Data from Ofra_2a_PS_OGT1K_Reflection_1.txt Node
Date: Tue Jul 20 09:28:18 EDT 2021
User: Adam
Spectrometer: FLMT01687
Trigger mode: 0
Integration Time (sec): 9.450000E-1
Scans to average: 3
Electric dark correction enabled: true
Nonlinearity correction enabled: false
Boxcar width: 3
XAxis mode: Wavelengths
Number of Pixels in Spectrum: 3648
>>>>>Begin Spectral Data<<<<<
179.494	337.28
179.716	110.92
179.937	202.2
180.158	642.19
180.38	-432.56
180.601	-107.06
180.823	-9.86
181.044	40.64
181.265	21.53
181.486	105.84
181.708	1369.57
181.929	336.28
182.15	1438.64
182.372	-74.73
182.593	-57.53
182.814	321.56
183.035	211.98
183.257	109.09
183.478	42.02
183.699	82.77
183.92	73.52
184.141	65.22
184.363	56.2
184.584	35.38
184.805	40.06
185.026	40.43
185.247	13.4
185.468	30.73
185.689	42.84
185.91	38.75
186.132	63.37
186.353	53.36
186.574	48.21
186.795	25.84
187.016	25.01
187.237	16.23
187.458	-2.6
187.679	-17.1
187.9	-9.1
188.121	3.66
188.342	43.21
188.563	44.62
188.784	50.1
189.005	58.89
189.226	66.35
189.447	63.44
189.667	64.89
189.888	70.3
190.109	71.79
190.33	73.22
190.551	65.99
190.772	37.46
190.993	51.4
191.214	48.4
191.434	34.52
191.655	26.16
191.876	27.73
192.097	29.33
192.318	40.57
192.538	22.44
192.759	27.68
192.98	30.22
193.201	37.17
193.421	37.69
193.642	33.06
193.863	25.17
194.083	30.86
194.304	26.07
194.525	26.74
194.745	14.02
194.966	18.36
195.187	26.49
195.407	21.9
195.628	22.43
195.848	20.77
196.069	16.06
196.29	5.11
196.51	4.56
196.731	6.51
196.951	24.75
197.172	29.87
197.392	31.69
197.613	37.23
197.833	47.82
198.054	34.99
198.274	20.83
198.495	17.16
198.715	8.31
198.936	-6.6
199.156	-5.47
199.377	4.71
199.597	15.38
199.817	28.84
200.038	25.84
200.258	40.97
200.479	43.02
200.699	50.42
200.919	44.51
201.14	41
201.36	50.02
201.58	50.83
201.801	41.64
202.021	42.36
202.241	38.96
202.461	35.18
202.682	37.38
202.902	35.74
203.122	28.55
203.342	39.05
203.563	39.46
203.783	39.46
204.003	48.86
204.223	51.26
204.443	44.44
204.663	47.37
204.884	33.28
205.104	39.93
205.324	57.66
205.544	52.9
205.764	44.95
205.984	46.06
206.204	56.53
206.424	52.59
206.644	46.23
206.864	36.26
207.084	43.64
207.304	44.28
207.525	44.56
207.745	44.04
207.964	55.73
208.184	49.49
208.404	36.07
208.624	15.6
208.844	19.13
209.064	25.73
209.284	25.93
209.504	17.42
209.724	-13.39
209.944	1.75
210.164	12.25
210.384	13.65
210.604	12.62
210.823	15.27
211.043	23.94
211.263	48.98
211.483	42.52
211.703	51.19
211.922	55.47
212.142	65.46
212.362	62.05
212.582	66.54
212.801	66.62
213.021	72.82
213.241	77.86
213.461	63.85
213.68	46.6
213.9	54.78
214.12	41.93
214.339	44.2
214.559	45.26
214.779	40.23
214.998	34.9
215.218	39
215.438	49.09
215.657	54.55
215.877	55.97
216.096	53.2
216.316	56.87
216.535	60.55
216.755	45.74
216.974	35.83
217.194	35.32
217.413	40.64
217.633	41.41
217.852	46.43
218.072	41.28
218.291	51.67
218.511	42.82
218.73	43.38
218.95	40.1
219.169	37.93
219.389	34.56
219.608	42.74
219.827	32.86
220.047	34.8
220.266	29.01
220.485	22.83
220.705	27.58
220.924	20.91
221.143	26.01
221.363	24.45
221.582	32.18
221.801	28.52
222.021	35.49
222.24	26.19
222.459	22.92
222.678	15.76
222.897	23.44
223.117	6.95
223.336	19.76
223.555	14.29
223.774	23.31
223.993	39.57
224.213	34.21
224.432	40.39
224.651	45.31
224.87	27.52
225.089	37.19
225.308	34.98
225.527	24.81
225.746	31.82
225.965	16.35
226.184	20.59
226.404	23.65
226.623	8.12
226.842	-1.11
227.061	1.98
227.28	7.99
227.499	30.99
227.718	27.1
227.936	22.77
228.155	32
228.374	46.21
228.593	48.47
228.812	41.66
229.031	36.95
229.25	52.7
229.469	70.93
229.688	67.11
229.907	61.43
230.125	47.73
230.344	49.07
230.563	47.86
230.782	38.04
231.001	32.18
231.22	23.94
231.438	29.56
231.657	32.39
231.876	31.17
232.095	32.99
232.313	41.81
232.532	43.98
232.751	53.06
232.969	40.33
233.188	47.5
233.407	41.39
233.625	43.17
233.844	39.94
234.063	42.29
234.281	31.44
234.5	37.86
234.719	37.95
234.937	43.44
235.156	37.3
235.374	31.02
235.593	25.59
235.811	32.3
236.03	23.01
236.249	22.35
236.467	21.57
236.686	37.43
236.904	37.36
237.123	39.74
237.341	45.37
237.559	58.51
237.778	63.12
237.996	70.3
238.215	54.79
238.433	55.29
238.652	55.56
238.87	45.97
239.088	43.36
239.307	36.86
239.525	29.9
239.743	30.84
239.962	28.89
240.18	32.31
240.398	41.09
240.617	38.83
240.835	41.08
241.053	45.44
241.271	46.36
241.49	37.11
241.708	30.65
241.926	22.13
242.144	20.68
242.363	22.24
242.581	23.3
242.799	24.7
243.017	32.02
243.235	23.01
243.453	21.38
243.672	24.13
243.89	19.09
244.108	26.41
244.326	20.31
244.544	28.24
244.762	25.85
244.98	25.11
245.198	17.96
245.416	21.7
245.634	21.52
245.852	38.35
246.07	28.29
246.288	39.88
246.506	46.93
246.724	49.69
246.942	51.28
247.16	36.65
247.378	15.43
247.596	15.94
247.814	17.94
248.032	17.69
248.25	12.35
248.468	16
248.685	28.08
248.903	31.66
249.121	39.91
249.339	35.32
249.557	39.67
249.775	32.48
249.992	23.87
250.21	8.18
250.428	8.54
250.646	8.03
250.863	10.4
251.081	10.58
251.299	29.98
251.517	46.29
251.734	55.52
251.952	59.33
252.17	55.67
252.387	60.64
252.605	53.39
252.823	30.19
253.04	18.86
253.258	31.37
253.475	38.35
253.693	35.15
253.911	21.72
254.128	20.09
254.346	28.46
254.563	23.99
254.781	12.24
254.998	13.6
255.216	20
255.433	24.21
255.651	24.74
255.868	36.14
256.086	47.08
256.303	60.4
256.521	50.6
256.738	42.78
256.956	46.08
257.173	47.43
257.39	39.17
257.608	29.93
257.825	29.36
258.043	39.66
258.26	40.34
258.477	33.7
258.695	37.33
258.912	46
259.129	50.43
259.346	41.88
259.564	32.87
259.781	40.76
259.998	40.7
260.216	36.09
260.433	25.94
260.65	38.38
260.867	39.18
261.084	35.72
261.302	17.8
261.519	20.87
261.736	25.68
261.953	31.56
262.17	15.15
262.387	13.98
262.604	5.8
262.822	16.91
263.039	16.23
263.256	12.37
263.473	0.88
263.69	4.75
263.907	4.57
264.124	8.7
264.341	26.62
264.558	25.17
264.775	24.56
264.992	26.14
265.209	30.73
265.426	35.6
265.643	44.9
265.86	30.64
266.077	38.75
266.294	41.36
266.51	50.42
266.727	40.77
266.944	39.17
267.161	38.73
267.378	38.78
267.595	22.47
267.812	14.8
268.028	15.93
268.245	26.61
268.462	36.41
268.679	28.54
268.896	28.44
269.112	47.92
269.329	58.49
269.546	54.49
269.763	62.04
269.979	53.59
270.196	57.55
270.413	57.94
270.629	47.79
270.846	37.33
271.063	33.96
271.279	22.17
271.496	16.42
271.712	7.73
271.929	19.14
272.146	17.85
272.362	19.12
272.579	18.04
272.795	16.36
273.012	18.77
273.228	18.93
273.445	15.79
273.661	14.89
273.878	27.54
274.094	31
274.311	35.99
274.527	29.36
274.744	29.21
274.96	21.25
275.177	29.85
275.393	15.43
275.609	23.22
275.826	18.2
276.042	24.17
276.259	33.8
276.475	40.16
276.691	30.81
276.908	32.67
277.124	23.43
277.34	22.8
277.557	23.46
277.773	16.89
277.989	15.23
278.205	8.11
278.422	19.6
278.638	25.11
278.854	23.64
279.07	21.62
279.286	30.45
279.503	31.53
279.719	48.5
279.935	24.81
280.151	28.67
280.367	32.6
280.583	32.22
280.799	27.34
281.016	28.52
281.232	12.01
281.448	20.63
281.664	12.17
281.88	24.71
282.096	30.03
282.312	17.59
282.528	6.65
282.744	13.33
282.96	25.21
283.176	35.21
283.392	36.46
283.608	34.3
283.824	42.59
284.04	41.14
284.256	46.57
284.471	40.36
284.687	41.16
284.903	35.42
285.119	32.89
285.335	28.79
285.551	41.63
285.767	39.18
285.982	42.75
286.198	38.75
286.414	37.48
286.63	38.35
286.846	41.64
287.061	37.44
287.277	38.5
287.493	35.01
287.709	31.46
287.924	35.97
288.14	37.32
288.356	35.63
288.571	37.55
288.787	31.95
289.003	33.66
289.218	29.53
289.434	20.79
289.65	20.04
289.865	33.84
290.081	31.52
290.296	33.27
290.512	40.01
290.727	51.29
290.943	49.31
291.159	48.8
291.374	49.72
291.59	48.78
291.805	49.62
292.021	40.1
292.236	32.39
292.451	40.09
292.667	47.72
292.882	34.53
293.098	31.1
293.313	29.62
293.529	29.8
293.744	27.94
293.959	26.93
294.175	22.11
294.39	36.68
294.605	42.12
294.821	41.61
295.036	43.27
295.251	49.43
295.467	37
295.682	36.71
295.897	30.67
296.112	27.75
296.328	30.81
296.543	34.1
296.758	24.1
296.973	35.88
297.188	35.31
297.404	36.92
297.619	35.41
297.834	33.94
298.049	29.59
298.264	31.95
298.479	19.85
298.694	16.78
298.909	16.22
299.125	26.1
299.34	30.17
299.555	32.38
299.77	36.43
299.985	47.48
300.2	52.6
300.415	47.08
300.63	39.13
300.845	41
301.06	33.18
301.275	34.24
301.49	38.31
301.704	34.87
301.919	25.88
302.134	22.68
302.349	12.03
302.564	15.86
302.779	5.97
302.994	-6.06
303.209	-12.53
303.423	6.58
303.638	8.33
303.853	17.29
304.068	20.04
304.283	26.41
304.497	32.58
304.712	33.99
304.927	27.21
305.142	30.62
305.356	29.57
305.571	32.88
305.786	28.78
306	25.87
306.215	30.96
306.43	38.8
306.644	35.7
306.859	33.29
307.074	30.15
307.288	39.72
307.503	34.35
307.717	27.96
307.932	30.54
308.147	27.84
308.361	28.75
308.576	27.81
308.79	17.59
309.005	26.39
309.219	35.65
309.434	25.2
309.648	26.43
309.863	31.32
310.077	32.5
310.292	40.46
310.506	43.31
310.72	33.04
310.935	41.8
311.149	43.07
311.364	45.54
311.578	46.65
311.792	38.35
312.007	37.29
312.221	34.52
312.435	31.2
312.649	44.5
312.864	27.41
313.078	33.06
313.292	40.12
313.507	31.54
313.721	29.1
313.935	40.27
314.149	25.6
314.363	32.94
314.578	35.79
314.792	44.79
315.006	42.94
315.22	51.25
315.434	35.97
315.648	35.95
315.862	34.88
316.077	29.41
316.291	18.28
316.505	24.46
316.719	14.11
316.933	29.47
317.147	30.06
317.361	26.86
317.575	30.42
317.789	31.18
318.003	33.14
318.217	31.31
318.431	32.18
318.645	37.48
318.859	35.41
319.073	33.11
319.287	36.24
319.5	29.29
319.714	34.75
319.928	35.77
320.142	26.33
320.356	37.11
320.57	35.95
320.784	40.24
320.997	42.12
321.211	44.28
321.425	36.46
321.639	43.77
321.853	39.24
322.066	34.44
322.28	34.67
322.494	33.1
322.707	29.13
322.921	35.31
323.135	29.64
323.349	30.24
323.562	36.46
323.776	31.28
323.989	31.13
324.203	34.05
324.417	19.29
324.63	17.48
324.844	6.65
325.057	10.42
325.271	3.86
325.485	14.74
325.698	8.02
325.912	20.92
326.125	26.98
326.339	39.52
326.552	41.02
326.766	41.02
326.979	35.1
327.193	33.96
327.406	29.75
327.619	23.84
327.833	16.51
328.046	4.88
328.26	9.27
328.473	16.87
328.686	24.94
328.9	27.31
329.113	29.54
329.326	27.86
329.54	33.63
329.753	32.5
329.966	28.66
330.179	26.23
330.393	27.74
330.606	29.82
330.819	36.75
331.032	36.93
331.246	37.6
331.459	38.34
331.672	38.56
331.885	39.58
332.098	38.6
332.311	29.81
332.525	25.99
332.738	29.36
332.951	23.7
333.164	21.8
333.377	12.65
333.59	16.04
333.803	25.74
334.016	24.46
334.229	15.63
334.442	22.67
334.655	31.57
334.868	44.32
335.081	47.28
335.294	34.22
335.507	47.4
335.72	46.63
335.933	46.3
336.146	32.92
336.359	29.17
336.572	26.68
336.785	36.45
336.997	25.91
337.21	32.08
337.423	33
337.636	44.67
337.849	33.22
338.062	32.73
338.274	35.31
338.487	32.28
338.7	26.49
338.913	23.81
339.125	19.06
339.338	33.86
339.551	30.68
339.763	22.85
339.976	24.27
340.189	22.21
340.402	25.72
340.614	25.26
340.827	15.66
341.039	15.54
341.252	23.67
341.465	27.92
341.677	28.11
341.89	25.99
342.102	33.53
342.315	50.95
342.527	53.98
342.74	48.84
342.952	43.59
343.165	54.45
343.377	55.18
343.59	44.22
343.802	37.42
344.015	45.96
344.227	37.57
344.44	40.98
344.652	27.21
344.864	27.49
345.077	23.11
345.289	13.66
345.502	11.1
345.714	17.46
345.926	13.1
346.139	22.1
346.351	18.67
346.563	35.83
346.775	35.01
346.988	23.05
347.2	27.37
347.412	25.57
347.624	23.61
347.837	25.09
348.049	18.25
348.261	18.01
348.473	15.89
348.685	9.92
348.897	4.44
349.11	8.81
349.322	9.69
349.534	4.6
349.746	10.33
349.958	18.2
350.17	17.58
350.382	19.81
350.594	16.2
350.806	7.28
351.018	17.02
351.23	15.25
351.442	18.45
351.654	27.69
351.866	33.04
352.078	31.94
352.29	40.8
352.502	38.08
352.714	43.43
352.926	35.85
353.138	33.2
353.35	24.33
353.561	20.08
353.773	15.64
353.985	23.67
354.197	17.61
354.409	20.9
354.621	17.11
354.832	22.41
355.044	32.97
355.256	33.32
355.468	25.14
355.679	29.91
355.891	31.06
356.103	28.54
356.314	23.34
356.526	14.22
356.738	7.32
356.949	9.02
357.161	6.01
357.373	3.1
357.584	20.85
357.796	19.84
358.008	28.56
358.219	33.15
358.431	34.94
358.642	30.59
358.854	28.39
359.065	15.97
359.277	14.58
359.488	6.21
359.7	13.69
359.911	10.34
360.123	16.2
360.334	18.68
360.546	16.55
360.757	29.56
360.969	40.29
361.18	35.99
361.391	30.46
361.603	30.27
361.814	30.05
362.025	31.84
362.237	27.73
362.448	28.44
362.659	21.5
362.871	29.66
363.082	31.22
363.293	27.8
363.504	26.37
363.716	23.53
363.927	21.08
364.138	27.8
364.349	32.52
364.56	32.53
364.772	38.52
364.983	37.21
365.194	43.63
365.405	43.01
365.616	43.25
365.827	40.98
366.038	45.77
366.25	41.56
366.461	43.94
366.672	40.01
366.883	40.71
367.094	43.01
367.305	34.23
367.516	24.97
367.727	22.68
367.938	26.66
368.149	27.51
368.36	22.15
368.571	23.5
368.781	24.45
368.992	29.47
369.203	33.59
369.414	27.54
369.625	24.57
369.836	27.94
370.047	24.47
370.258	31.22
370.468	30.29
370.679	30.16
370.89	35.09
371.101	34.72
371.312	31.12
371.522	35.9
371.733	26.24
371.944	23.14
372.155	17.37
372.365	11.56
372.576	8.94
372.787	11.13
372.997	7.43
373.208	17.44
373.419	21.96
373.629	30.78
373.84	30.31
374.05	35.91
374.261	27.52
374.472	27.6
374.682	22.46
374.893	9.74
375.103	9.5
375.314	11.54
375.524	10.16
375.735	12.57
375.945	19.85
376.156	23.09
376.366	32.76
376.577	30.38
376.787	31.67
376.997	35.47
377.208	42.23
377.418	33.5
377.629	31.61
377.839	35.02
378.049	34.18
378.26	33.78
378.47	33.22
378.68	28.9
378.89	30.88
379.101	23.32
379.311	18.89
379.521	22.82
379.732	15.74
379.942	15.47
380.152	20.08
380.362	23.03
380.572	34.08
380.783	31.7
380.993	26.42
381.203	32.75
381.413	35.33
381.623	33.01
381.833	28.58
382.043	22.24
382.253	25.63
382.463	31.76
382.674	32.5
382.884	24.62
383.094	20.29
383.304	18.81
383.514	20.85
383.724	19.32
383.934	15.81
384.144	16.3
384.353	20.3
384.563	18.67
384.773	18.02
384.983	18.29
385.193	18.14
385.403	18.37
385.613	11.36
385.823	8.58
386.033	14.33
386.242	11.69
386.452	11.71
386.662	10.46
386.872	8.21
387.082	13.42
387.291	13.55
387.501	11.87
387.711	15.06
387.921	11.5
388.13	11.35
388.34	11.91
388.55	12.47
388.759	12.95
388.969	8.82
389.179	10.41
389.388	11
389.598	9.73
389.807	9.34
390.017	8.03
390.227	7.98
390.436	10.66
390.646	10.26
390.855	10.47
391.065	10.8
391.274	10.08
391.484	10.89
391.693	10.78
391.903	9.92
392.112	8.56
392.322	10.86
392.531	10.13
392.74	9.46
392.95	8.4
393.159	8.82
393.369	9.11
393.578	8.99
393.787	6.99
393.997	7.62
394.206	7.72
394.415	7.52
394.625	5.79
394.834	4.97
395.043	6.09
395.252	7.04
395.462	6.86
395.671	6.79
395.88	7.01
396.089	7.51
396.298	7.82
396.508	6.88
396.717	6.13
396.926	5.74
397.135	5.1
397.344	4.82
397.553	5.28
397.762	5.29
397.971	5.24
398.181	5.03
398.39	4.94
398.599	5.43
398.808	5.65
399.017	5.69
399.226	5.73
399.435	5.77
399.644	5.83
399.853	5.96
400.062	5.88
400.27	5.89
400.479	5.67
400.688	5.7
400.897	5.93
401.106	6.02
401.315	6.04
401.524	6.11
401.733	6.25
401.941	6.1
402.15	5.77
402.359	5.77
402.568	5.68
402.777	5.59
402.985	5.53
403.194	5.29
403.403	5.14
403.612	5.33
403.82	5.23
404.029	5.11
404.238	5.21
404.446	5.15
404.655	5.04
404.864	5.13
405.072	5.21
405.281	5.1
405.489	5.27
405.698	5.18
405.906	5.21
406.115	5.42
406.324	5.44
406.532	5.27
406.741	5.29
406.949	5.14
407.158	5.15
407.366	5.15
407.574	5.05
407.783	5.02
407.991	5.03
408.2	4.89
408.408	4.93
408.617	4.91
408.825	4.9
409.033	4.9
409.242	4.83
409.45	4.8
409.658	4.85
409.867	4.88
410.075	4.86
410.283	4.78
410.491	4.69
410.7	4.75
410.908	4.74
411.116	4.69
411.324	4.66
411.533	4.58
411.741	4.64
411.949	4.71
412.157	4.76
412.365	4.78
412.573	4.8
412.781	4.83
412.99	4.89
413.198	4.87
413.406	4.77
413.614	4.74
413.822	4.76
414.03	4.77
414.238	4.79
414.446	4.73
414.654	4.75
414.862	4.79
415.07	4.74
415.278	4.64
415.486	4.73
415.694	4.63
415.902	4.59
416.109	4.59
416.317	4.57
416.525	4.65
416.733	4.74
416.941	4.62
417.149	4.68
417.357	4.77
417.564	4.59
417.772	4.56
417.98	4.42
418.188	4.24
418.395	4.26
418.603	4.18
418.811	4.07
419.019	4.24
419.226	4.31
419.434	4.29
419.642	4.41
419.849	4.39
420.057	4.4
420.265	4.47
420.472	4.36
420.68	4.29
420.887	4.41
421.095	4.38
421.302	4.42
421.51	4.46
421.717	4.42
421.925	4.43
422.132	4.33
422.34	4.22
422.547	4.12
422.755	3.95
422.962	3.83
423.17	3.83
423.377	3.85
423.585	3.94
423.792	3.89
423.999	3.97
424.207	3.99
424.414	4.15
424.621	4.15
424.829	4.14
425.036	4.12
425.243	4.19
425.451	4.27
425.658	4.42
425.865	4.3
426.072	4.37
426.28	4.32
426.487	4.27
426.694	4.18
426.901	4.03
427.108	3.97
427.315	3.94
427.523	3.89
427.73	4
427.937	4.07
428.144	4.15
428.351	4.31
428.558	4.24
428.765	4.23
428.972	4.2
429.179	4.07
429.386	4.07
429.593	4
429.8	4
430.007	4.11
430.214	4.22
430.421	4.27
430.628	4.2
430.835	4.25
431.042	4.27
431.249	4.22
431.456	4.22
431.662	4.16
431.869	4.2
432.076	4.36
432.283	4.3
432.49	4.31
432.697	4.43
432.903	4.45
433.11	4.49
433.317	4.49
433.524	4.39
433.73	4.46
433.937	4.49
434.144	4.42
434.35	4.41
434.557	4.43
434.764	4.43
434.97	4.54
435.177	4.51
435.384	4.58
435.59	4.53
435.797	4.51
436.003	4.51
436.21	4.45
436.416	4.42
436.623	4.5
436.829	4.46
437.036	4.6
437.242	4.63
437.449	4.69
437.655	4.82
437.862	4.82
438.068	4.8
438.275	4.77
438.481	4.74
438.687	4.82
438.894	4.72
439.1	4.64
439.307	4.61
439.513	4.59
439.719	4.65
439.926	4.72
440.132	4.64
440.338	4.79
440.544	4.85
440.751	4.88
440.957	4.87
441.163	4.89
441.369	4.83
441.575	4.87
441.782	4.8
441.988	4.74
442.194	4.84
442.4	4.82
442.606	4.84
442.812	4.9
443.018	4.89
443.224	4.88
443.431	4.94
443.637	4.9
443.843	4.93
444.049	4.93
444.255	4.86
444.461	4.87
444.667	4.89
444.873	4.84
445.079	4.86
445.284	4.88
445.49	4.86
445.696	4.94
445.902	4.94
446.108	4.99
446.314	5.06
446.52	5.08
446.726	5.14
446.931	5.18
447.137	5.14
447.343	5.19
447.549	5.17
447.755	5.14
447.96	5.14
448.166	5.12
448.372	5.11
448.578	5.11
448.783	5.04
448.989	5.08
449.195	5.15
449.4	5.14
449.606	5.17
449.812	5.18
450.017	5.19
450.223	5.23
450.428	5.19
450.634	5.17
450.84	5.17
451.045	5.24
451.251	5.29
451.456	5.25
451.662	5.23
451.867	5.25
452.073	5.26
452.278	5.21
452.483	5.13
452.689	5.09
452.894	5.09
453.1	5.07
453.305	5.07
453.51	5.07
453.716	5.11
453.921	5.12
454.127	5.06
454.332	5.11
454.537	5.16
454.742	5.15
454.948	5.15
455.153	5.19
455.358	5.21
455.563	5.24
455.769	5.23
455.974	5.22
456.179	5.2
456.384	5.24
456.589	5.25
456.795	5.18
457	5.25
457.205	5.23
457.41	5.27
457.615	5.36
457.82	5.38
458.025	5.37
458.23	5.42
458.435	5.39
458.64	5.44
458.845	5.4
459.05	5.4
459.255	5.37
459.46	5.33
459.665	5.37
459.87	5.45
460.075	5.44
460.28	5.48
460.485	5.51
460.69	5.5
460.895	5.58
461.099	5.57
461.304	5.54
461.509	5.53
461.714	5.54
461.919	5.47
462.123	5.51
462.328	5.53
462.533	5.54
462.738	5.51
462.942	5.58
463.147	5.54
463.352	5.63
463.556	5.65
463.761	5.58
463.966	5.62
464.17	5.66
464.375	5.62
464.58	5.64
464.784	5.63
464.989	5.62
465.193	5.73
465.398	5.72
465.602	5.69
465.807	5.71
466.011	5.77
466.216	5.77
466.42	5.86
466.625	5.79
466.829	5.86
467.034	5.86
467.238	5.94
467.443	5.98
467.647	5.97
467.851	5.86
468.056	5.9
468.26	5.85
468.464	5.91
468.669	5.86
468.873	5.84
469.077	5.85
469.282	5.92
469.486	5.98
469.69	6.02
469.894	6.1
470.099	6.17
470.303	6.21
470.507	6.25
470.711	6.24
470.915	6.2
471.119	6.23
471.324	6.16
471.528	6.17
471.732	6.16
471.936	6.21
472.14	6.25
472.344	6.31
472.548	6.31
472.752	6.36
472.956	6.37
473.16	6.4
473.364	6.36
473.568	6.38
473.772	6.41
473.976	6.44
474.18	6.41
474.384	6.44
474.588	6.44
474.792	6.43
474.995	6.42
475.199	6.42
475.403	6.39
475.607	6.44
475.811	6.44
476.015	6.51
476.218	6.55
476.422	6.6
476.626	6.62
476.83	6.66
477.033	6.68
477.237	6.73
477.441	6.71
477.644	6.75
477.848	6.71
478.052	6.74
478.255	6.73
478.459	6.76
478.663	6.72
478.866	6.71
479.07	6.73
479.273	6.76
479.477	6.78
479.681	6.82
479.884	6.79
480.088	6.83
480.291	6.87
480.495	6.89
480.698	6.88
480.901	6.86
481.105	6.88
481.308	6.88
481.512	6.86
481.715	6.87
481.919	6.88
482.122	6.92
482.325	6.94
482.529	6.96
482.732	7.01
482.935	7.07
483.138	7.09
483.342	7.1
483.545	7.1
483.748	7.14
483.952	7.16
484.155	7.17
484.358	7.14
484.561	7.16
484.764	7.17
484.967	7.19
485.171	7.15
485.374	7.15
485.577	7.17
485.78	7.2
485.983	7.17
486.186	7.14
486.389	7.12
486.592	7.1
486.795	7.05
486.998	7.04
487.201	7.05
487.404	7.11
487.607	7.14
487.81	7.2
488.013	7.22
488.216	7.28
488.419	7.28
488.622	7.26
488.825	7.23
489.028	7.21
489.231	7.2
489.433	7.2
489.636	7.16
489.839	7.14
490.042	7.14
490.245	7.14
490.447	7.14
490.65	7.13
490.853	7.19
491.056	7.2
491.258	7.22
491.461	7.23
491.664	7.21
491.866	7.22
492.069	7.25
492.272	7.2
492.474	7.19
492.677	7.2
492.879	7.18
493.082	7.21
493.285	7.24
493.487	7.23
493.69	7.23
493.892	7.26
494.095	7.25
494.297	7.29
494.5	7.3
494.702	7.27
494.905	7.3
495.107	7.32
495.309	7.31
495.512	7.3
495.714	7.31
495.917	7.36
496.119	7.4
496.321	7.41
496.524	7.42
496.726	7.43
496.928	7.48
497.13	7.49
497.333	7.5
497.535	7.52
497.737	7.48
497.939	7.49
498.142	7.53
498.344	7.54
498.546	7.61
498.748	7.56
498.95	7.52
499.152	7.55
499.355	7.57
499.557	7.61
499.759	7.61
499.961	7.59
500.163	7.65
500.365	7.68
500.567	7.69
500.769	7.75
500.971	7.71
501.173	7.69
501.375	7.68
501.577	7.66
501.779	7.66
501.981	7.69
502.183	7.65
502.385	7.72
502.587	7.73
502.788	7.73
502.99	7.76
503.192	7.8
503.394	7.83
503.596	7.87
503.798	7.92
503.999	7.96
504.201	7.99
504.403	8
504.605	8.05
504.806	8.06
505.008	8.08
505.21	8.02
505.411	8.07
505.613	8.1
505.815	8.12
506.016	8.12
506.218	8.14
506.42	8.19
506.621	8.19
506.823	8.22
507.024	8.26
507.226	8.28
507.427	8.3
507.629	8.34
507.83	8.3
508.032	8.34
508.233	8.31
508.435	8.33
508.636	8.35
508.838	8.36
509.039	8.37
509.24	8.42
509.442	8.42
509.643	8.44
509.845	8.42
510.046	8.43
510.247	8.45
510.448	8.48
510.65	8.48
510.851	8.52
511.052	8.57
511.254	8.6
511.455	8.62
511.656	8.61
511.857	8.61
512.058	8.65
512.26	8.65
512.461	8.66
512.662	8.69
512.863	8.72
513.064	8.75
513.265	8.78
513.466	8.81
513.667	8.83
513.868	8.83
514.069	8.82
514.27	8.82
514.471	8.84
514.672	8.84
514.873	8.86
515.074	8.91
515.275	8.91
515.476	8.95
515.677	8.95
515.878	8.96
516.079	8.98
516.28	8.98
516.481	8.98
516.682	9.02
516.882	9.01
517.083	9.03
517.284	9.03
517.485	9.04
517.686	9.04
517.886	9.02
518.087	9.05
518.288	9.11
518.488	9.15
518.689	9.15
518.89	9.18
519.091	9.19
519.291	9.2
519.492	9.22
519.692	9.22
519.893	9.21
520.094	9.26
520.294	9.22
520.495	9.24
520.695	9.3
520.896	9.28
521.096	9.28
521.297	9.3
521.497	9.29
521.698	9.34
521.898	9.33
522.099	9.34
522.299	9.33
522.499	9.34
522.7	9.39
522.9	9.39
523.101	9.37
523.301	9.41
523.501	9.44
523.702	9.48
523.902	9.49
524.102	9.47
524.302	9.47
524.503	9.53
524.703	9.55
524.903	9.56
525.103	9.54
525.304	9.58
525.504	9.59
525.704	9.61
525.904	9.59
526.104	9.63
526.304	9.62
526.504	9.65
526.705	9.63
526.905	9.68
527.105	9.7
527.305	9.69
527.505	9.7
527.705	9.71
527.905	9.73
528.105	9.75
528.305	9.71
528.505	9.73
528.705	9.8
528.905	9.78
529.105	9.79
529.304	9.82
529.504	9.82
529.704	9.83
529.904	9.85
530.104	9.82
530.304	9.87
530.503	9.88
530.703	9.93
530.903	9.95
531.103	10
531.303	10.04
531.502	10.05
531.702	10.04
531.902	10.07
532.101	10.03
532.301	10.04
532.501	10.04
532.7	10.04
532.9	10.09
533.1	10.09
533.299	10.1
533.499	10.13
533.698	10.19
533.898	10.24
534.097	10.27
534.297	10.26
534.496	10.28
534.696	10.28
534.895	10.34
535.095	10.34
535.294	10.32
535.494	10.32
535.693	10.36
535.892	10.36
536.092	10.41
536.291	10.42
536.491	10.46
536.69	10.48
536.889	10.48
537.088	10.5
537.288	10.57
537.487	10.57
537.686	10.58
537.886	10.59
538.085	10.64
538.284	10.67
538.483	10.72
538.682	10.74
538.882	10.77
539.081	10.81
539.28	10.85
539.479	10.87
539.678	10.91
539.877	10.9
540.076	10.92
540.275	10.98
540.474	10.96
540.673	10.98
540.872	11.01
541.071	11.05
541.27	11.07
541.469	11.1
541.668	11.12
541.867	11.19
542.066	11.21
542.265	11.26
542.464	11.29
542.663	11.41
542.862	11.47
543.06	11.52
543.259	11.56
543.458	11.63
543.657	11.68
543.856	11.75
544.054	11.75
544.253	11.78
544.452	11.75
544.651	11.76
544.849	11.8
545.048	11.81
545.247	11.83
545.445	11.83
545.644	11.88
545.843	11.95
546.041	11.98
546.24	12
546.438	12.11
546.637	12.16
546.836	12.22
547.034	12.25
547.233	12.31
547.431	12.36
547.63	12.44
547.828	12.45
548.027	12.51
548.225	12.59
548.423	12.65
548.622	12.71
548.82	12.79
549.019	12.83
549.217	12.89
549.415	12.91
549.614	12.93
549.812	12.96
550.01	13
550.209	13.05
550.407	13.15
550.605	13.21
550.803	13.28
551.002	13.35
551.2	13.47
551.398	13.55
551.596	13.63
551.794	13.68
551.993	13.73
552.191	13.82
552.389	13.92
552.587	13.94
552.785	14
552.983	14.07
553.181	14.09
553.379	14.2
553.577	14.26
553.775	14.3
553.973	14.37
554.171	14.44
554.369	14.48
554.567	14.58
554.765	14.61
554.963	14.68
555.161	14.78
555.359	14.87
555.557	14.98
555.755	15.04
555.952	15.12
556.15	15.21
556.348	15.29
556.546	15.4
556.744	15.5
556.941	15.59
557.139	15.7
557.337	15.75
557.535	15.85
557.732	15.94
557.93	15.98
558.128	16.09
558.325	16.18
558.523	16.25
558.721	16.36
558.918	16.43
559.116	16.49
559.313	16.59
559.511	16.64
559.708	16.69
559.906	16.78
560.104	16.91
560.301	16.99
560.498	17.09
560.696	17.21
560.893	17.32
561.091	17.41
561.288	17.52
561.486	17.59
561.683	17.67
561.88	17.77
562.078	17.85
562.275	17.94
562.473	18.05
562.67	18.17
562.867	18.27
563.064	18.41
563.262	18.55
563.459	18.64
563.656	18.76
563.853	18.87
564.051	18.89
564.248	19.01
564.445	19.09
564.642	19.16
564.839	19.3
565.036	19.38
565.234	19.49
565.431	19.64
565.628	19.72
565.825	19.79
566.022	19.85
566.219	19.87
566.416	19.94
566.613	19.99
566.81	20.04
567.007	20.1
567.204	20.2
567.401	20.28
567.598	20.32
567.795	20.38
567.991	20.42
568.188	20.55
568.385	20.62
568.582	20.7
568.779	20.79
568.976	20.89
569.172	20.99
569.369	21.07
569.566	21.03
569.763	21.09
569.96	21.15
570.156	21.2
570.353	21.28
570.55	21.31
570.746	21.38
570.943	21.49
571.14	21.53
571.336	21.57
571.533	21.62
571.729	21.65
571.926	21.69
572.123	21.73
572.319	21.79
572.516	21.83
572.712	21.89
572.909	21.95
573.105	22.02
573.302	22.02
573.498	22.08
573.695	22.1
573.891	22.15
574.087	22.14
574.284	22.1
574.48	22.08
574.677	22.11
574.873	22.11
575.069	22.16
575.266	22.15
575.462	22.2
575.658	22.33
575.854	22.33
576.051	22.34
576.247	22.34
576.443	22.32
576.639	22.36
576.835	22.39
577.032	22.31
577.228	22.33
577.424	22.38
577.62	22.4
577.816	22.4
578.012	22.42
578.208	22.39
578.404	22.43
578.6	22.46
578.796	22.47
578.993	22.45
579.189	22.45
579.384	22.39
579.58	22.41
579.776	22.39
579.972	22.34
580.168	22.32
580.364	22.31
580.56	22.32
580.756	22.37
580.952	22.34
581.148	22.34
581.343	22.33
581.539	22.27
581.735	22.25
581.931	22.24
582.127	22.18
582.322	22.19
582.518	22.15
582.714	22.11
582.909	22.12
583.105	22.11
583.301	22.07
583.496	22.11
583.692	22.02
583.888	22.04
584.083	22.09
584.279	22.16
584.474	22.17
584.67	22.2
584.866	22.14
585.061	22.21
585.257	22.21
585.452	22.18
585.648	22.1
585.843	22.15
586.039	22.12
586.234	22.14
586.429	22.12
586.625	22.09
586.82	22.08
587.015	22.11
587.211	22.08
587.406	22.11
587.601	22.12
587.797	22.08
587.992	22.11
588.187	22.19
588.383	22.22
588.578	22.21
588.773	22.25
588.968	22.29
589.163	22.42
589.359	22.39
589.554	22.36
589.749	22.37
589.944	22.4
590.139	22.38
590.334	22.35
590.529	22.37
590.724	22.45
590.919	22.54
591.114	22.53
591.309	22.58
591.504	22.6
591.699	22.65
591.894	22.69
592.089	22.74
592.284	22.7
592.479	22.76
592.674	22.76
592.869	22.82
593.064	22.9
593.259	22.9
593.454	22.86
593.648	22.94
593.843	22.97
594.038	23.06
594.233	23.15
594.428	23.21
594.622	23.24
594.817	23.37
595.012	23.46
595.206	23.56
595.401	23.59
595.596	23.63
595.79	23.63
595.985	23.73
596.18	23.83
596.374	23.89
596.569	23.94
596.763	24.08
596.958	24.16
597.153	24.27
597.347	24.34
597.542	24.37
597.736	24.47
597.931	24.54
598.125	24.54
598.319	24.62
598.514	24.71
598.708	24.79
598.903	24.93
599.097	24.96
599.291	25.05
599.486	25.12
599.68	25.15
599.874	25.17
600.069	25.22
600.263	25.17
600.457	25.18
600.651	25.23
600.846	25.22
601.04	25.24
601.234	25.29
601.428	25.27
601.622	25.36
601.817	25.42
602.011	25.47
602.205	25.57
602.399	25.65
602.593	25.65
602.787	25.75
602.981	25.77
603.175	25.79
603.369	25.72
603.563	25.69
603.757	25.62
603.951	25.63
604.145	25.53
604.339	25.54
604.533	25.53
604.727	25.53
604.921	25.52
605.115	25.52
605.309	25.52
605.502	25.54
605.696	25.47
605.89	25.45
606.084	25.47
606.278	25.48
606.471	25.37
606.665	25.35
606.859	25.33
607.053	25.26
607.246	25.22
607.44	25.17
607.634	25.06
607.827	25.02
608.021	24.93
608.214	24.86
608.408	24.84
608.602	24.78
608.795	24.68
608.989	24.68
609.182	24.72
609.376	24.64
609.569	24.54
609.763	24.46
609.956	24.34
610.15	24.26
610.343	24.12
610.537	24.04
610.73	24.02
610.923	24.01
611.117	23.9
611.31	23.9
611.504	23.91
611.697	23.9
611.89	23.85
612.083	23.8
612.277	23.71
612.47	23.69
612.663	23.59
612.856	23.44
613.05	23.4
613.243	23.35
613.436	23.28
613.629	23.28
613.822	23.22
614.015	23.14
614.209	23.16
614.402	23.08
614.595	22.99
614.788	22.88
614.981	22.79
615.174	22.72
615.367	22.7
615.56	22.61
615.753	22.53
615.946	22.5
616.139	22.52
616.332	22.48
616.525	22.42
616.718	22.36
616.911	22.32
617.103	22.26
617.296	22.14
617.489	22.07
617.682	22.01
617.875	21.9
618.067	21.85
618.26	21.79
618.453	21.68
618.646	21.65
618.838	21.59
619.031	21.54
619.224	21.54
619.417	21.52
619.609	21.46
619.802	21.51
619.994	21.48
620.187	21.44
620.38	21.39
620.572	21.38
620.765	21.32
620.957	21.32
621.15	21.25
621.342	21.25
621.535	21.23
621.727	21.15
621.92	21.13
622.112	21.12
622.305	21.11
622.497	21.09
622.69	21.06
622.882	21.06
623.074	21.07
623.267	21.05
623.459	21.05
623.651	21.01
623.844	21.02
624.036	20.97
624.228	20.95
624.42	20.94
624.613	20.91
624.805	20.89
624.997	20.89
625.189	20.84
625.381	20.75
625.574	20.68
625.766	20.67
625.958	20.62
626.15	20.6
626.342	20.57
626.534	20.53
626.726	20.56
626.918	20.52
627.11	20.5
627.302	20.48
627.494	20.45
627.686	20.41
627.878	20.36
628.07	20.35
628.262	20.37
628.454	20.33
628.646	20.27
628.838	20.18
629.029	20.11
629.221	20.1
629.413	20.05
629.605	20.01
629.797	19.97
629.989	19.92
630.18	19.88
630.372	19.92
630.564	19.94
630.755	19.87
630.947	19.84
631.139	19.74
631.33	19.75
631.522	19.71
631.714	19.71
631.905	19.63
632.097	19.69
632.289	19.64
632.48	19.68
632.672	19.64
632.863	19.65
633.055	19.62
633.246	19.6
633.438	19.53
633.629	19.54
633.821	19.54
634.012	19.54
634.203	19.56
634.395	19.53
634.586	19.52
634.777	19.5
634.969	19.47
635.16	19.42
635.351	19.39
635.543	19.34
635.734	19.27
635.925	19.26
636.117	19.26
636.308	19.24
636.499	19.25
636.69	19.3
636.881	19.32
637.073	19.36
637.264	19.33
637.455	19.33
637.646	19.33
637.837	19.31
638.028	19.28
638.219	19.23
638.41	19.2
638.601	19.2
638.792	19.12
638.983	19.08
639.174	19.08
639.365	19.04
639.556	19.02
639.747	19.04
639.938	19.05
640.129	19.04
640.32	19.01
640.511	18.95
640.701	18.93
640.892	18.91
641.083	18.79
641.274	18.75
641.465	18.75
641.655	18.75
641.846	18.71
642.037	18.7
642.228	18.63
642.418	18.69
642.609	18.68
642.8	18.62
642.99	18.55
643.181	18.59
643.372	18.56
643.562	18.58
643.753	18.56
643.943	18.5
644.134	18.54
644.324	18.62
644.515	18.6
644.705	18.61
644.896	18.57
645.086	18.51
645.277	18.5
645.467	18.45
645.658	18.35
645.848	18.3
646.038	18.23
646.229	18.29
646.419	18.31
646.61	18.26
646.8	18.23
646.99	18.2
647.18	18.17
647.371	18.11
647.561	18.02
647.751	17.97
647.941	17.92
648.132	17.96
648.322	18
648.512	18.03
648.702	18.02
648.892	18.01
649.082	17.98
649.272	17.93
649.462	17.81
649.653	17.78
649.843	17.68
650.033	17.68
650.223	17.61
650.413	17.61
650.603	17.6
650.793	17.57
650.983	17.5
651.172	17.5
651.362	17.43
651.552	17.33
651.742	17.23
651.932	17.27
652.122	17.25
652.312	17.11
652.502	17.01
652.691	16.99
652.881	16.99
653.071	16.95
653.261	16.85
653.45	16.74
653.64	16.81
653.83	16.68
654.019	16.53
654.209	16.41
654.399	16.25
654.588	16.09
654.778	15.99
654.968	15.8
655.157	15.76
655.347	15.68
655.536	15.51
655.726	15.47
655.915	15.36
656.105	15.23
656.294	15.12
656.484	14.97
656.673	14.84
656.863	14.76
657.052	14.56
657.241	14.43
657.431	14.32
657.62	14.16
657.809	14.02
657.999	13.92
658.188	13.78
658.377	13.72
658.567	13.58
658.756	13.4
658.945	13.3
659.134	13.14
659.324	12.96
659.513	12.77
659.702	12.57
659.891	12.41
660.08	12.3
660.269	12.17
660.458	12.02
660.648	11.9
660.837	11.85
661.026	11.67
661.215	11.63
661.404	11.48
661.593	11.32
661.782	11.21
661.971	11.03
662.16	10.87
662.349	10.82
662.538	10.7
662.726	10.56
662.915	10.48
663.104	10.35
663.293	10.31
663.482	10.22
663.671	10.14
663.86	10
664.048	9.89
664.237	9.8
664.426	9.77
664.615	9.64
664.803	9.54
664.992	9.48
665.181	9.36
665.369	9.34
665.558	9.27
665.747	9.19
665.935	9.15
666.124	9.07
666.312	8.94
666.501	8.9
666.69	8.88
666.878	8.85
667.067	8.84
667.255	8.78
667.444	8.77
667.632	8.76
667.82	8.71
668.009	8.67
668.197	8.62
668.386	8.56
668.574	8.54
668.762	8.57
668.951	8.56
669.139	8.57
669.327	8.56
669.516	8.55
669.704	8.55
669.892	8.53
670.08	8.51
670.269	8.52
670.457	8.48
670.645	8.48
670.833	8.49
671.021	8.51
671.21	8.56
671.398	8.58
671.586	8.65
671.774	8.69
671.962	8.74
672.15	8.73
672.338	8.75
672.526	8.74
672.714	8.75
672.902	8.75
673.09	8.83
673.278	8.86
673.466	8.97
673.654	9.01
673.842	9.06
674.03	9.17
674.218	9.2
674.405	9.25
674.593	9.24
674.781	9.26
674.969	9.35
675.157	9.39
675.344	9.39
675.532	9.47
675.72	9.49
675.908	9.55
676.095	9.68
676.283	9.71
676.471	9.8
676.658	9.86
676.846	9.97
677.033	10.07
677.221	10.19
677.409	10.24
677.596	10.39
677.784	10.45
677.971	10.52
678.159	10.57
678.346	10.63
678.534	10.67
678.721	10.69
678.909	10.66
679.096	10.78
679.283	10.91
679.471	10.98
679.658	11.11
679.846	11.21
680.033	11.4
680.22	11.53
680.408	11.56
680.595	11.62
680.782	11.67
680.969	11.71
681.157	11.81
681.344	11.83
681.531	11.97
681.718	12.15
681.905	12.3
682.093	12.55
682.28	12.76
682.467	12.89
682.654	13.07
682.841	13.21
683.028	13.46
683.215	13.62
683.402	13.65
683.589	13.75
683.776	13.94
683.963	14.08
684.15	14.29
684.337	14.35
684.524	14.56
684.711	14.76
684.898	14.97
685.085	15.24
685.271	15.59
685.458	15.85
685.645	16.17
685.832	16.43
686.019	16.81
686.205	17.08
686.392	17.36
686.579	17.53
686.766	17.85
686.952	18.18
687.139	18.44
687.326	18.78
687.512	19.17
687.699	19.44
687.886	19.82
688.072	20.25
688.259	20.62
688.445	21.03
688.632	21.54
688.818	21.99
689.005	22.5
689.191	23
689.378	23.37
689.564	23.85
689.751	24.32
689.937	24.7
690.124	25.18
690.31	25.68
690.496	26.16
690.683	26.78
690.869	27.29
691.055	27.96
691.242	28.41
691.428	28.97
691.614	29.63
691.8	30.23
691.987	30.79
692.173	31.5
692.359	32.04
692.545	32.78
692.731	33.43
692.918	34.11
693.104	34.7
693.29	35.35
693.476	35.77
693.662	36.44
693.848	36.86
694.034	37.37
694.22	37.96
694.406	38.61
694.592	39.23
694.778	39.89
694.964	40.57
695.15	41.39
695.336	42.25
695.522	42.88
695.708	43.61
695.894	44.24
696.08	44.91
696.265	45.43
696.451	46.05
696.637	46.6
696.823	47.01
697.009	47.43
697.194	47.99
697.38	48.43
697.566	48.96
697.751	49.59
697.937	50.14
698.123	50.74
698.308	51.26
698.494	51.77
698.68	52.45
698.865	53.17
699.051	53.64
699.236	54.2
699.422	54.82
699.607	55.32
699.793	55.8
699.978	56.16
700.164	56.6
700.349	56.95
700.535	57.29
700.72	57.75
700.906	58.27
701.091	58.62
701.276	59.21
701.462	59.48
701.647	59.94
701.832	60.33
702.018	60.71
702.203	61.05
702.388	61.59
702.573	61.96
702.759	62.49
702.944	62.97
703.129	63.28
703.314	63.67
703.499	64.13
703.684	64.5
703.87	64.85
704.055	65.09
704.24	65.34
704.425	65.99
704.61	66.24
704.795	66.72
704.98	66.99
705.165	67.31
705.35	67.59
705.535	67.98
705.72	68.01
705.905	68.1
706.09	68.21
706.275	68.39
706.459	68.68
706.644	68.9
706.829	69.02
707.014	69.21
707.199	69.57
707.384	69.89
707.568	70.13
707.753	70.41
707.938	70.77
708.123	71.02
708.307	71.4
708.492	71.62
708.677	71.84
708.861	72.15
709.046	71.98
709.231	72.22
709.415	72.43
709.6	72.6
709.784	72.79
709.969	73.02
710.153	73.27
710.338	73.7
710.522	73.61
710.707	73.58
710.891	73.74
711.076	73.86
711.26	73.82
711.445	73.82
711.629	74.29
711.813	74.43
711.998	74.64
712.182	74.94
712.366	75.25
712.551	75.56
712.735	75.59
712.919	75.6
713.103	75.93
713.288	76.2
713.472	76.03
713.656	75.84
713.84	76.01
714.024	76.35
714.208	76.21
714.393	76.23
714.577	76.4
714.761	76.68
714.945	76.87
715.129	76.97
715.313	76.93
715.497	77.01
715.681	77.2
715.865	77.12
716.049	77.08
716.233	77.4
716.417	77.53
716.601	77.74
716.785	78.08
716.968	78.06
717.152	78.39
717.336	78.47
717.52	78.61
717.704	78.69
717.888	78.76
718.071	78.56
718.255	78.56
718.439	78.38
718.622	78.6
718.806	78.31
718.99	78.38
719.174	78.6
719.357	78.91
719.541	79.31
719.724	79.69
719.908	79.86
720.092	80.12
720.275	80.06
720.459	79.98
720.642	80.09
720.826	79.86
721.009	79.45
721.193	79.49
721.376	79.55
721.559	79.56
721.743	79.59
721.926	79.64
722.11	79.99
722.293	79.95
722.476	79.81
722.66	79.79
722.843	80.07
723.026	80.24
723.21	80.02
723.393	80.08
723.576	80.63
723.759	80.94
723.942	81.28
724.126	81.15
724.309	81.38
724.492	81.63
724.675	81.77
724.858	82.04
725.041	82.24
725.224	82.11
725.407	81.84
725.59	81.69
725.774	81.86
725.957	81.85
726.14	81.63
726.322	81.46
726.505	81.78
726.688	82.34
726.871	82.42
727.054	82.35
727.237	82.06
727.42	82.3
727.603	82.55
727.786	82.41
727.968	82.9
728.151	83.13
728.334	83.17
728.517	83.55
728.699	83.85
728.882	84.4
729.065	84.58
729.248	84.04
729.43	84.06
729.613	84.37
729.796	84.43
729.978	84.29
730.161	83.82
730.343	84.06
730.526	84.53
730.708	84.79
730.891	84.85
731.073	84.91
731.256	85.17
731.438	85.66
731.621	85.59
731.803	85.66
731.986	85.51
732.168	85.51
732.35	85.85
732.533	85.95
732.715	85.98
732.898	86.47
733.08	86.51
733.262	86.82
733.444	86.78
733.627	86.68
733.809	86.57
733.991	86.49
734.173	85.99
734.355	86.18
734.538	86.1
734.72	86.73
734.902	86.48
735.084	86.47
735.266	86.25
735.448	86.65
735.63	86.19
735.812	86.06
735.994	85.53
736.176	86.14
736.358	86.43
736.54	86.77
736.722	86.52
736.904	86.8
737.086	87.09
737.268	87.51
737.45	87.44
737.632	87.18
737.814	86.92
737.995	87.48
738.177	87.79
738.359	88.03
738.541	87.78
738.723	87.93
738.904	87.95
739.086	88.43
739.268	88.63
739.449	88.79
739.631	88.6
739.813	88.38
739.994	88.57
740.176	88.31
740.358	88.11
740.539	87.57
740.721	87.14
740.902	86.65
741.084	87.25
741.265	86.88
741.447	86.93
741.628	87.13
741.81	87.45
741.991	87.55
742.172	87.76
742.354	88.04
742.535	88.43
742.717	88.85
742.898	88.68
743.079	88.69
743.261	89.08
743.442	89.63
743.623	89.14
743.804	89.07
743.986	89.18
744.167	88.99
744.348	89.04
744.529	89.14
744.71	88.92
744.891	89.07
745.073	88.9
745.254	88.91
745.435	88.92
745.616	88.44
745.797	88.19
745.978	88.59
746.159	88.39
746.34	88.59
746.521	88.5
746.702	88.47
746.883	89.18
747.064	89.09
747.245	88.96
747.426	89.44
747.606	89.19
747.787	89.9
747.968	90.4
748.149	89.89
748.33	90.3
748.51	90.13
748.691	89.58
748.872	89.47
749.053	88.6
749.233	88.55
749.414	88.67
749.595	88.45
749.775	88.8
749.956	88.91
750.137	89.1
750.317	88.96
750.498	89.02
750.678	89.51
750.859	89.22
751.04	88.76
751.22	88.46
751.4	88.84
751.581	88.95
751.761	89.01
751.942	88.16
752.122	88.13
752.303	87.83
752.483	88.97
752.663	89.27
752.844	89.07
753.024	88.95
753.204	89.1
753.385	89.61
753.565	89.26
753.745	88.44
753.925	87.85
754.106	88.41
754.286	88.2
754.466	88.65
754.646	88.29
754.826	89.26
755.006	89.37
755.187	89.68
755.367	89.69
755.547	89.41
755.727	89.5
755.907	89.42
756.087	89.33
756.267	89.47
756.447	89.85
756.627	89.57
756.807	90.31
756.987	91.14
757.167	91.52
757.346	91.41
757.526	91.18
757.706	90.8
757.886	90.42
758.066	89.93
758.246	89.43
758.425	89.34
758.605	88.57
758.785	88.69
758.965	87.84
759.144	88.69
759.324	88.57
759.504	87.75
759.683	87.33
759.863	87.8
760.043	88.16
760.222	87.74
760.402	87.59
760.581	87.74
760.761	87.56
760.94	87.06
761.12	87.3
761.299	86.28
761.479	87.73
761.658	86.75
761.838	87.35
762.017	87.74
762.197	88.43
762.376	88.19
762.555	89.14
762.735	88
762.914	89.11
763.093	88.21
763.273	87.89
763.452	87.53
763.631	86.7
763.81	86.32
763.99	86.96
764.169	87.14
764.348	87.84
764.527	88.08
764.706	87.9
764.885	89.59
765.064	89.65
765.243	88.56
765.423	88.3
765.602	87.2
765.781	87.29
765.96	88.31
766.139	87.36
766.318	87.93
766.497	89.13
766.676	89.4
766.854	89.7
767.033	88.68
767.212	87.78
767.391	87.25
767.57	86.65
767.749	86.46
767.928	85.19
768.106	85.47
768.285	86.27
768.464	86.19
768.643	86.74
768.821	86.5
769	86.42
769.179	86.24
769.357	86.39
769.536	86.73
769.715	86.42
769.893	86.22
770.072	86.41
770.25	85.71
770.429	85.61
770.607	85.28
770.786	84.56
770.964	84.62
771.143	84.53
771.321	83.72
771.5	83.97
771.678	83.76
771.857	82.74
772.035	82.36
772.213	82.84
772.392	83.75
772.57	84.72
772.748	84.97
772.927	85.83
773.105	86.58
773.283	86.6
773.461	86.28
773.64	85.43
773.818	84.44
773.996	83.97
774.174	84.48
774.352	85.17
774.531	84.98
774.709	85.39
774.887	84.63
775.065	84.61
775.243	85.18
775.421	84.8
775.599	83.51
775.777	84.15
775.955	83.12
776.133	84
776.311	84.57
776.489	84.3
776.667	83.99
776.844	84.59
777.022	84.91
777.2	85.92
777.378	86.29
777.556	86.52
777.734	86.14
777.911	86.28
778.089	85.37
778.267	85.38
778.445	83.53
778.622	82.32
778.8	82.27
778.978	83.14
779.155	82.21
779.333	83.06
779.511	82.08
779.688	82.74
779.866	83.34
780.043	85.01
780.221	84.8
780.398	85.85
780.576	84.62
780.753	84.22
780.931	85.2
781.108	85.34
781.286	82.14
781.463	80.7
781.64	80.58
781.818	81.6
781.995	83.61
782.172	82.07
782.35	81.77
782.527	83.52
782.704	83.8
782.882	84.35
783.059	85.06
783.236	83.66
783.413	85.62
783.59	85.91
783.768	84.78
783.945	86.4
784.122	85.35
784.299	85.06
784.476	85.1
784.653	84.56
784.83	83.47
785.007	83.58
785.184	83.56
785.361	83.76
785.538	84.49
785.715	83.95
785.892	82.9
786.069	83.58
786.246	82.93
786.423	84.24
786.6	85.1
786.776	83.52
786.953	83.83
787.13	83.75
787.307	84.15
787.484	85.35
787.66	83.23
787.837	84
788.014	84.01
788.191	83.81
788.367	83.52
788.544	83.53
788.721	83.26
788.897	84.5
789.074	82.7
789.25	84.28
789.427	85.02
789.603	88.38
789.78	89.83
789.956	88.94
790.133	89.36
790.309	90.58
790.486	91.63
790.662	91.69
790.839	91.83
791.015	90.08
791.192	91.19
791.368	90.95
791.544	90.59
791.721	86.64
791.897	87.18
792.073	83.98
792.249	84.9
792.426	84.71
792.602	82.98
792.778	82.45
792.954	84.53
793.13	84.16
793.307	80.87
793.483	82.18
793.659	83.85
793.835	83.7
794.011	84.04
794.187	81.81
794.363	80.81
794.539	84.67
794.715	81.04
794.891	79.42
795.067	79.89
795.243	79.16
795.419	81.92
795.595	81.86
795.771	81.71
795.947	84.63
796.122	83.42
796.298	80.76
796.474	82.25
796.65	82.59
796.826	85.33
797.001	87.13
797.177	83.88
797.353	87.6
797.529	90.33
797.704	89.1
797.88	87.22
798.056	87.52
798.231	87.09
798.407	88.48
798.582	83.93
798.758	84.68
798.934	83.32
799.109	81.24
799.285	79.05
799.46	77.8
799.636	78.85
799.811	82.65
799.986	83.1
800.162	84.59
800.337	87.75
800.513	88.36
800.688	93.3
800.863	90.97
801.039	87.07
801.214	85.71
801.389	84.12
801.565	83.41
801.74	81.69
801.915	78.28
802.09	79.74
802.265	81.51
802.441	84.3
802.616	86.78
802.791	86.81
802.966	88.56
803.141	85.33
803.316	87.8
803.491	87.01
803.666	86.56
803.841	85.54
804.016	84.79
804.191	84.46
804.366	85.54
804.541	81.02
804.716	79.02
804.891	77.85
805.066	77.08
805.241	76.05
805.416	76.23
805.591	79.33
805.765	80.17
805.94	83.97
806.115	80.86
806.29	82.14
806.464	82.06
806.639	80.85
806.814	78.27
806.989	78.59
807.163	76.83
807.338	80.6
807.512	76.97
807.687	76.57
807.862	81.96
808.036	81.65
808.211	82.34
808.385	82.69
808.56	80.68
808.734	82.91
808.909	85.24
809.083	79.65
809.258	82.78
809.432	82.91
809.606	88.74
809.781	89.61
809.955	93.18
810.13	95.61
810.304	97.97
810.478	95.72
810.652	99.46
810.827	91.97
811.001	91.24
811.175	84.62
811.349	79.72
811.524	79.39
811.698	79.14
811.872	76.52
812.046	80.38
812.22	79.02
812.394	85.35
812.568	86.67
812.742	86.95
812.916	86.56
813.09	82.52
813.264	77.63
813.438	84.63
813.612	80.03
813.786	82.11
813.96	80.72
814.134	76.28
814.308	74.88
814.482	70.51
814.656	68.11
814.83	73.75
815.003	72.72
815.177	75.29
815.351	81.03
815.525	81.85
815.698	86.79
815.872	84.97
816.046	80.34
816.219	82.66
816.393	75.02
816.567	71.87
816.74	77.87
816.914	81.39
817.088	77.86
817.261	78.02
817.435	76.21
817.608	79.92
817.782	88.72
817.955	88.33
818.129	86.65
818.302	91.02
818.475	92.49
818.649	95.31
818.822	100.32
818.996	94.61
819.169	87.12
819.342	83.43
819.516	80.29
819.689	78.43
819.862	72.48
820.035	68.2
820.209	62.69
820.382	66.63
820.555	69.27
820.728	70.42
820.901	71.89
821.075	76.33
821.248	76.36
821.421	80.29
821.594	78.07
821.767	79.18
821.94	76.73
822.113	80.02
822.286	85.09
822.459	91.58
822.632	93.77
822.805	94.9
822.978	89.58
823.151	100.59
823.324	92.18
823.496	80.79
823.669	84.42
823.842	86.1
824.015	85.99
824.188	94.12
824.361	77.4
824.533	83.08
824.706	100.11
824.879	84.65
825.051	83.87
825.224	82.68
825.397	74.07
825.569	81.67
825.742	78.96
825.915	70.31
826.087	70.14
826.26	64.55
826.432	62.8
826.605	65.21
826.777	60.73
826.95	60.63
827.122	57.77
827.295	62.22
827.467	60.21
827.64	56.47
827.812	58.7
827.984	66.82
828.157	63.92
828.329	63.59
828.501	66.19
828.674	67.29
828.846	67.29
829.018	62.85
829.19	51.26
829.363	55.03
829.535	58.41
829.707	58.94
829.879	62.11
830.051	62.42
830.223	61.69
830.395	62.28
830.568	66.29
830.74	68.17
830.912	61.99
831.084	57.69
831.256	59.7
831.428	64.9
831.6	67.62
831.772	67.74
831.943	70.53
832.115	71.26
832.287	81.32
832.459	90.75
832.631	90.86
832.803	105.97
832.975	108.31
833.146	101.36
833.318	103.34
833.49	91.13
833.662	86.47
833.833	90.18
834.005	79.24
834.177	76.26
834.348	75.5
834.52	81.08
834.692	88.98
834.863	80.18
835.035	67.24
835.206	68.07
835.378	66.88
835.549	68.55
835.721	64.58
835.892	58.3
836.064	71.34
836.235	77.42
836.407	75.11
836.578	76.09
836.749	79.11
836.921	81.24
837.092	90.93
837.264	84.13
837.435	76.67
837.606	77.85
837.777	78.51
837.949	75.51
838.12	70.43
838.291	74.84
838.462	80.65
838.633	85.53
838.805	76.19
838.976	73.42
839.147	75.83
839.318	77.55
839.489	67.6
839.66	65.74
839.831	62.86
840.002	75.08
840.173	82.28
840.344	80.54
840.515	77.68
840.686	88.97
840.857	72.92
841.028	83.58
841.199	80.55
841.369	77.76
841.54	77.03
841.711	82.67
841.882	71.61
842.053	92.25
842.223	83.69
842.394	84.05
842.565	85.75
842.736	90.44
842.906	92.53
843.077	88.24
843.248	93.29
843.418	89.22
843.589	86.27
843.759	87.79
843.93	91.62
844.101	95.49
844.271	95.51
844.442	100.04
844.612	102.46
844.783	90.28
844.953	78.97
845.123	78.46
845.294	80.47
845.464	93
845.635	84.13
845.805	73.34
845.975	77.52
846.146	79.96
846.316	89.4
846.486	86.32
846.656	81.71
846.827	75.54
846.997	97.94
847.167	100.4
847.337	104.04
847.507	97.6
847.677	97.19
847.848	101.61
848.018	105.49
848.188	90.01
848.358	89.93
848.528	87.08
848.698	66.01
848.868	51.78
849.038	50.17
849.208	54.59
849.378	55.62
849.548	72.45
849.718	64.28
849.887	70.14
850.057	80.55
850.227	72.86
850.397	64.48
850.567	82.14
850.737	75.68
850.906	97.34
851.076	105.23
851.246	101.92
851.415	108.34
851.585	107.43
851.755	96.59
851.924	97.05
852.094	80.77
852.264	76.27
852.433	74.08
852.603	72.67
852.772	70.24
852.942	64.1
853.111	59.18
853.281	65.16
853.45	70.58
853.62	72.67
853.789	70.12
853.959	80.24
854.128	90.05
854.297	98.89
854.467	104.17
854.636	83.35
854.805	80.12
854.975	85.13
855.144	85.71
855.313	94.7
855.482	77.76
855.652	72.37
855.821	82.77
855.99	93.42
856.159	90.49
856.328	81.02
856.497	68.92
856.667	75.99
856.836	72.14
857.005	74.58
857.174	69.66
857.343	71.15
857.512	61.91
857.681	57.56
857.85	57
858.019	59.13
858.188	63.09
858.356	49.06
858.525	41.82
858.694	55.66
858.863	60.07
859.032	63.73
859.201	68.46
859.369	60.27
859.538	70.8
859.707	75.64
859.876	78.34
860.044	75.98
860.213	68.75
860.382	70.28
860.55	102.74
860.719	96.16
860.888	91.06
861.056	98.14
861.225	108.14
861.393	114.98
861.562	95.52
861.73	80.61
861.899	77.92
862.067	75.29
862.236	66.33
862.404	64.47
862.572	56.75
862.741	69.18
862.909	60.54
863.078	59.82
863.246	57.09
863.414	40.5
863.582	37.72
863.751	43.82
863.919	46.75
864.087	47.54
864.255	49.9
864.424	65.2
864.592	88.51
864.76	99.38
864.928	105.75
865.096	97.5
865.264	98.51
865.432	97.97
865.6	96.56
865.768	95.17
865.936	96.2
866.104	84.03
866.272	103.3
866.44	73.83
866.608	83.41
866.776	85.51
866.944	46.22
867.112	35.71
867.28	47.43
867.448	42.14
867.615	87.68
867.783	60.44
867.951	71.53
868.119	96.38
868.286	69.84
868.454	65.17
868.622	57.96
868.789	58.81
868.957	90.13
869.125	69.48
869.292	62.52
869.46	82.07
869.627	86.75
869.795	95.03
869.963	79.85
870.13	52.64
870.298	40.88
870.465	44.66
870.632	16.35
870.8	21.5
870.967	15.74
871.135	16.79
871.302	27.58
871.469	37.3
871.637	37.11
871.804	43.13
871.971	38.85
872.139	48.23
872.306	53.51
872.473	57.98
872.64	69.72
872.807	80.94
872.975	119.06
873.142	148.8
873.309	182.58
873.476	298.21
873.643	302.19
873.81	275.75
873.977	177.09
874.144	152.13
874.311	143.48
874.478	90.48
874.645	96.92
874.812	74.53
874.979	65.85
875.146	65.69
875.313	56.9
875.48	92.66
875.647	65.94
875.813	69.2
875.98	68.87
876.147	57.74
876.314	81.35
876.481	81.14
876.647	70.73
876.814	77.05
876.981	48.96
877.147	41.56
877.314	56.85
877.481	54.31
877.647	68.26
877.814	58.19
877.98	75.98
878.147	90.25
878.314	96.2
878.48	84.24
878.647	103.45
878.813	99.03
878.979	114.57
879.146	75.97
879.312	111.37
879.479	107.79
879.645	99.42
879.811	79.18
879.978	69.69
880.144	67.96
880.31	89.45
880.477	54.01
880.643	85.93
880.809	136.49
880.975	107.65
881.142	122.05
881.308	134.45
881.474	164.33
881.64	161.45
881.806	103.21
881.972	129.58
882.138	112.5
882.304	111.13
882.47	143.56
882.636	79.21
882.802	95.74
882.968	105.74
883.134	-5.52
883.3	79.25
883.466	97.62
883.632	56.62
883.798	77.98
883.964	86.16
884.129	112.14
884.295	93.74
884.461	139.72
884.627	161.7
884.793	114.94
884.958	123.67
885.124	120.92
885.29	84.36
885.455	72.28
885.621	54.1
885.787	43.84
885.952	38.76
886.118	58.09
886.283	61.39
886.449	55.64
886.614	65.73
886.78	58.37
886.945	41.28
887.111	48.45
887.276	26.15
887.442	30.94
887.607	26.94
887.773	57.41
887.938	63.77
888.103	77.61
888.269	71.51
888.434	95.34
888.599	85.99
888.764	87.49
888.93	85.48
889.095	101.7
889.26	130.48
889.425	145.4
889.59	99.51
889.756	118.5
889.921	100.5
890.086	103.68
890.251	87.4
890.416	52.75
890.581	48.03
890.746	10.54
890.911	-29.77
891.076	-22.01
891.241	-55.89
891.406	-2.58
891.571	31.84
891.736	23.99
891.901	79.4
892.065	91.09
892.23	79.93
892.395	69.43
892.56	55.35
892.725	67.34
892.889	64.94
893.054	67.56
893.219	92.58
893.384	141.6
893.548	321.67
893.713	-700.99
893.878	-167.93
