Data from Ofra_PS_T2_2A_6EV18_Reflection_2.txt Node
Date: Wed Jul 21 17:16:47 EDT 2021
User: Adam
Spectrometer: FLMT01687
Trigger mode: 0
Integration Time (sec): 1.100000E0
Scans to average: 2
Electric dark correction enabled: true
Nonlinearity correction enabled: false
Boxcar width: 2
XAxis mode: Wavelengths
Number of Pixels in Spectrum: 3648
>>>>>Begin Spectral Data<<<<<
179.494	570
179.716	623.29
179.937	572.48
180.158	573.37
180.38	872.81
180.601	274.31
180.823	87.85
181.044	16.35
181.265	3.31
181.486	12.47
181.708	71.02
181.929	247.96
182.15	-116.2
182.372	50.17
182.593	9.93
182.814	8
183.035	29.48
183.257	29.39
183.478	-13.09
183.699	51.64
183.92	21.12
184.141	35.9
184.363	2.06
184.584	43.54
184.805	39.89
185.026	70.89
185.247	54.14
185.468	40.55
185.689	34.51
185.91	26.2
186.132	40.12
186.353	53.52
186.574	92.79
186.795	83.92
187.016	43.39
187.237	18.36
187.458	-10.79
187.679	8.7
187.9	23.19
188.121	-2.92
188.342	2.23
188.563	51.16
188.784	68.15
189.005	68.67
189.226	154.67
189.447	149.76
189.667	61.89
189.888	-204.68
190.109	-1338.31
190.33	-734.52
190.551	-1230.53
190.772	-245.16
190.993	-172.91
191.214	-70.41
191.434	-66.54
191.655	-15.28
191.876	-50.89
192.097	-120.37
192.318	-177.97
192.538	-228.3
192.759	-169.26
192.98	-65.23
193.201	2.41
193.421	4.15
193.642	27.4
193.863	44.28
194.083	22.53
194.304	-1.26
194.525	0.71
194.745	-28.44
194.966	-50.05
195.187	-47.85
195.407	-89.06
195.628	-144.68
195.848	-131.69
196.069	-143.39
196.29	-85.46
196.51	-69.58
196.731	-48.25
196.951	-54.26
197.172	-53
197.392	-92.27
197.613	-80.29
197.833	-101.77
198.054	-114.21
198.274	-71.71
198.495	-79.94
198.715	-33.09
198.936	-49.77
199.156	-19.08
199.377	-66.56
199.597	-73.13
199.817	-88.55
200.038	-21.25
200.258	-76.49
200.479	1.41
200.699	-0.27
200.919	34.21
201.14	-0.17
201.36	-17.43
201.58	7.08
201.801	41.78
202.021	-8.45
202.241	-14.94
202.461	-2.8
202.682	-119.82
202.902	-197.27
203.122	-116.58
203.342	-90.93
203.563	-53.24
203.783	0.1
204.003	-49.14
204.223	-21.59
204.443	18.65
204.663	2.77
204.884	0.69
205.104	47.51
205.324	59.84
205.544	61.93
205.764	71.12
205.984	54.79
206.204	57.94
206.424	51.02
206.644	13.78
206.864	10.43
207.084	-16.25
207.304	-7.26
207.525	-194.53
207.745	-89.21
207.964	-25.03
208.184	-54.11
208.404	-112.79
208.624	-74.37
208.844	-67.11
209.064	-341.13
209.284	-298.83
209.504	-83.02
209.724	-8.61
209.944	1.32
210.164	23.48
210.384	33.9
210.604	33.11
210.823	-14.76
211.043	-33.07
211.263	-24.8
211.483	-22.1
211.703	-85.33
211.922	-58.71
212.142	7.33
212.362	41.76
212.582	15.58
212.801	42.46
213.021	13.58
213.241	8.94
213.461	-44.19
213.68	-80.85
213.9	-52.37
214.12	-29.46
214.339	-103.42
214.559	-67.51
214.779	-1.89
214.998	-12.68
215.218	-40.25
215.438	-10.16
215.657	-30.36
215.877	-38.44
216.096	-9.81
216.316	8.11
216.535	-0.59
216.755	-5.34
216.974	-96.01
217.194	-139.41
217.413	-163.72
217.633	-151.22
217.852	-243.86
218.072	-100.84
218.291	-55.61
218.511	-8.6
218.73	-47.49
218.95	-37.14
219.169	-31.36
219.389	-76.73
219.608	-59.89
219.827	-37.61
220.047	-16.28
220.266	-13.7
220.485	-19.24
220.705	-8.87
220.924	-21.77
221.143	12.33
221.363	-9.94
221.582	7.57
221.801	13.27
222.021	21.83
222.24	-28.7
222.459	22.98
222.678	37.89
222.897	-33.94
223.117	-51.87
223.336	-42.96
223.555	-38.58
223.774	-36.16
223.993	-33.18
224.213	2.13
224.432	-4.7
224.651	28.64
224.87	13.98
225.089	35.33
225.308	37.76
225.527	57.9
225.746	56.77
225.965	41.14
226.184	32.99
226.404	27.85
226.623	-3.35
226.842	-3.46
227.061	26.02
227.28	25.17
227.499	22.28
227.718	31.06
227.936	25.1
228.155	41.38
228.374	24.36
228.593	29.71
228.812	39.79
229.031	35.41
229.25	-43.03
229.469	-43.3
229.688	-38.93
229.907	1.03
230.125	19.49
230.344	50.34
230.563	55.37
230.782	51.22
231.001	-38.55
231.22	-25.54
231.438	7.67
231.657	9.87
231.876	-4.23
232.095	57.04
232.313	52.68
232.532	39.11
232.751	15.03
232.969	31.73
233.188	-44.82
233.407	-2.97
233.625	-15.74
233.844	-25.48
234.063	-19.66
234.281	-3.64
234.5	-19.27
234.719	-5.96
234.937	18.06
235.156	7.27
235.374	1.5
235.593	-4.41
235.811	-24.96
236.03	-42.02
236.249	-78.63
236.467	-52.95
236.686	-14.71
236.904	7.64
237.123	-15.47
237.341	-10.91
237.559	-7.68
237.778	-32.31
237.996	-73.39
238.215	-22.06
238.433	-15.02
238.652	-16.19
238.87	-24.67
239.088	-4.08
239.307	-10.34
239.525	12.13
239.743	-19.21
239.962	-0.65
240.18	-9.38
240.398	-35.54
240.617	-59.46
240.835	-13.57
241.053	17.59
241.271	65.28
241.49	55.15
241.708	47.1
241.926	28.31
242.144	-10.1
242.363	-70.7
242.581	-70.6
242.799	-32.87
243.017	-23.36
243.235	-31.28
243.453	-15.31
243.672	-10.11
243.89	-8.31
244.108	-1.41
244.326	24.61
244.544	23.35
244.762	11.37
244.98	24.91
245.198	26.06
245.416	-12.71
245.634	-5.11
245.852	-0.6
246.07	-4.02
246.288	-18.52
246.506	-28.31
246.724	-24.07
246.942	-26.66
247.16	-14.69
247.378	14.57
247.596	32
247.814	25.9
248.032	9.74
248.25	28.51
248.468	3.52
248.685	16.19
248.903	48.15
249.121	48.73
249.339	12.4
249.557	13.65
249.775	6.79
249.992	-58.47
250.21	-60.22
250.428	-37.35
250.646	-69.14
250.863	-79.02
251.081	-43.66
251.299	-23.13
251.517	-29.38
251.734	-9.5
251.952	-5.23
252.17	-7.25
252.387	-3.04
252.605	-12.39
252.823	-0.66
253.04	12.36
253.258	27.25
253.475	27.02
253.693	59.25
253.911	55.89
254.128	55.46
254.346	46.69
254.563	25.61
254.781	-15.11
254.998	-39.76
255.216	-43.36
255.433	-24.78
255.651	16.64
255.868	67.26
256.086	75.52
256.303	47.05
256.521	31.02
256.738	8
256.956	-22.94
257.173	-50.04
257.39	-58.77
257.608	-95.56
257.825	-8.76
258.043	29.4
258.26	41.16
258.477	81.91
258.695	92.36
258.912	15.1
259.129	17.12
259.346	-18.56
259.564	-49.92
259.781	-72.55
259.998	-8.73
260.216	-11.13
260.433	41.44
260.65	34.34
260.867	57.49
261.084	26.88
261.302	33.47
261.519	16.28
261.736	-1.48
261.953	-42.14
262.17	-12.67
262.387	-70.06
262.604	-92.2
262.822	-112.57
263.039	-72.61
263.256	-107.19
263.473	-45.15
263.69	-25.69
263.907	18.14
264.124	35.28
264.341	37.66
264.558	23.22
264.775	38.56
264.992	33.25
265.209	12.25
265.426	24.72
265.643	23.26
265.86	26.88
266.077	32.99
266.294	33.4
266.51	11.6
266.727	-2.3
266.944	-12.51
267.161	-35.25
267.378	-32.32
267.595	5.31
267.812	-16.33
268.028	-44.83
268.245	-12.03
268.462	-27.02
268.679	-56.56
268.896	15.81
269.112	35.37
269.329	26.98
269.546	42.82
269.763	39.82
269.979	21.39
270.196	13.72
270.413	-16.25
270.629	-53.31
270.846	-56.08
271.063	-40.7
271.279	-51.95
271.496	-28.55
271.712	9.29
271.929	37.41
272.146	5.19
272.362	6.14
272.579	29.58
272.795	33.09
273.012	23.07
273.228	42.91
273.445	24.84
273.661	-16.44
273.878	-51.84
274.094	-43.48
274.311	-67.44
274.527	-9.74
274.744	-0.29
274.96	-2.49
275.177	-0.41
275.393	10.34
275.609	13.7
275.826	31.68
276.042	19.1
276.259	4.61
276.475	17.5
276.691	11.23
276.908	-23.06
277.124	-0.53
277.34	10.98
277.557	-7.15
277.773	-17.47
277.989	0.08
278.205	2.72
278.422	11.12
278.638	15.49
278.854	33.32
279.07	28.97
279.286	-2.61
279.503	-32.67
279.719	-32.64
279.935	-50.7
280.151	-58.61
280.367	2.41
280.583	-9.65
280.799	-20.88
281.016	-42.11
281.232	-3.56
281.448	-15.73
281.664	17.28
281.88	11.32
282.096	31.21
282.312	40.1
282.528	64.22
282.744	62.04
282.96	51.91
283.176	40.64
283.392	30.8
283.608	7.2
283.824	6.02
284.04	17.36
284.256	18.82
284.471	1.58
284.687	0.81
284.903	14.88
285.119	30.04
285.335	0.62
285.551	8.38
285.767	-0.52
285.982	-24.41
286.198	-58.81
286.414	20.72
286.63	18.06
286.846	41.46
287.061	18.88
287.277	46.49
287.493	1.66
287.709	17.52
287.924	-2.09
288.14	40.69
288.356	26.03
288.571	50.24
288.787	44.82
289.003	48.17
289.218	25.68
289.434	-24.43
289.65	-16.01
289.865	-36.58
290.081	-18.66
290.296	-21.15
290.512	15.12
290.727	-19.99
290.943	-18.4
291.159	-31.83
291.374	-22.71
291.59	-44.62
291.805	-37.24
292.021	-34.01
292.236	-30.69
292.451	-7.7
292.667	10.7
292.882	36.4
293.098	39.33
293.313	9.4
293.529	-30.21
293.744	-45.46
293.959	-66.36
294.175	-52.43
294.39	-5.82
294.605	18.57
294.821	37.86
295.036	46.13
295.251	48.92
295.467	32.93
295.682	12.53
295.897	-18.1
296.112	-34.28
296.328	-33.6
296.543	-52.3
296.758	-33.87
296.973	0.1
297.188	30.13
297.404	11.09
297.619	3.63
297.834	-5.33
298.049	-22.46
298.264	-57.23
298.479	-3.84
298.694	0.21
298.909	14.52
299.125	17.4
299.34	45.19
299.555	15.16
299.77	41.52
299.985	-7.4
300.2	-56.86
300.415	-89.18
300.63	-38.68
300.845	-52.57
301.06	-55.19
301.275	-13.2
301.49	8.83
301.704	-17.59
301.919	-40.93
302.134	-30.62
302.349	-48.7
302.564	-114.16
302.779	-171.82
302.994	-141.77
303.209	-94.03
303.423	-41.25
303.638	13.61
303.853	14.36
304.068	-6.76
304.283	-5.54
304.497	-16.24
304.712	-17.55
304.927	-8.23
305.142	-4.33
305.356	12.78
305.571	20.8
305.786	0.42
306	-20.85
306.215	-8.76
306.43	-52.38
306.644	-43.68
306.859	18.27
307.074	19.65
307.288	-15.98
307.503	-24.38
307.717	-23.45
307.932	-30.96
308.147	-23.39
308.361	9.12
308.576	9.33
308.79	-51.6
309.005	-38.59
309.219	-23.81
309.434	-41.93
309.648	-37.43
309.863	13.77
310.077	-7.49
310.292	-17.94
310.506	-3.54
310.72	8.44
310.935	4.74
311.149	5.46
311.364	20.69
311.578	30.73
311.792	21.33
312.007	26.55
312.221	12.6
312.435	13.65
312.649	-4.42
312.864	-14.93
313.078	-13.22
313.292	62.83
313.507	42.97
313.721	60.85
313.935	59.83
314.149	54.35
314.363	30.66
314.578	18.11
314.792	24.53
315.006	9.72
315.22	24.98
315.434	35.46
315.648	46.73
315.862	41.11
316.077	37.48
316.291	11.95
316.505	4.97
316.719	-21.94
316.933	-54.48
317.147	-27.33
317.361	-63.28
317.575	-97.24
317.789	-102.48
318.003	-134.33
318.217	-111.55
318.431	-26.34
318.645	24.73
318.859	10.44
319.073	37.48
319.287	14.49
319.5	-23.8
319.714	-73.72
319.928	-92.21
320.142	-125.47
320.356	-64.46
320.57	-32.37
320.784	-42.44
320.997	-49.21
321.211	-47.31
321.425	-91.84
321.639	-100.22
321.853	-34.58
322.066	-16.88
322.28	-17.63
322.494	-16.19
322.707	9.81
322.921	-20.17
323.135	-27.92
323.349	-0.91
323.562	-16.27
323.776	-36.49
323.989	-29.31
324.203	-53.4
324.417	-82.92
324.63	-80.54
324.844	-82.56
325.057	-76.94
325.271	-31.51
325.485	-5.09
325.698	14.86
325.912	33.71
326.125	14.1
326.339	20.66
326.552	9.43
326.766	2.83
326.979	21.58
327.193	45.24
327.406	26.23
327.619	20.02
327.833	34.2
328.046	-14.44
328.26	-39.58
328.473	-16.52
328.686	-34.18
328.9	-33.8
329.113	-2.9
329.326	-25.95
329.54	-21.87
329.753	-40.3
329.966	-71.81
330.179	-51.54
330.393	-4.78
330.606	-2.34
330.819	15.5
331.032	26.1
331.246	34.1
331.459	51.8
331.672	38.64
331.885	34.55
332.098	14.37
332.311	-9.23
332.525	-55.99
332.738	-26.07
332.951	6.21
333.164	40.46
333.377	47.09
333.59	53.31
333.803	51.82
334.016	34.82
334.229	17.93
334.442	21.08
334.655	30.47
334.868	24.55
335.081	13.41
335.294	-4.81
335.507	-22.57
335.72	-34.82
335.933	-40.04
336.146	-37.38
336.359	-35.92
336.572	-73.93
336.785	-86.57
336.997	-69.12
337.21	-26.45
337.423	-15.08
337.636	12.05
337.849	22.8
338.062	18.41
338.274	-0.26
338.487	-21.12
338.7	-13.99
338.913	-41.75
339.125	-70.42
339.338	-110.69
339.551	-71.39
339.763	-37.97
339.976	-31.47
340.189	-24.27
340.402	-21.93
340.614	-25.66
340.827	-41.16
341.039	-57.19
341.252	-47.13
341.465	-13.72
341.677	-26.31
341.89	-69.55
342.102	-22.15
342.315	-33.39
342.527	-74
342.74	-41.76
342.952	5.51
343.165	6.51
343.377	40.72
343.59	27.85
343.802	43.85
344.015	40.9
344.227	45.13
344.44	25.37
344.652	26.75
344.864	-5.75
345.077	24.05
345.289	26.23
345.502	33.47
345.714	34.87
345.926	42.63
346.139	29.08
346.351	43.52
346.563	50.41
346.775	58.94
346.988	48.92
347.2	30.58
347.412	-34.63
347.624	-68.86
347.837	-89.37
348.049	-58.36
348.261	-20.81
348.473	-0.65
348.685	-11.47
348.897	-24.01
349.11	-44.29
349.322	-69.75
349.534	-65.53
349.746	-43.25
349.958	-30.58
350.17	-26.39
350.382	-0.26
350.594	-2.86
350.806	-3.6
351.018	-3.68
351.23	-9.99
351.442	-80.77
351.654	-82.2
351.866	-71.9
352.078	-60.41
352.29	-28.52
352.502	19.25
352.714	31.7
352.926	20.21
353.138	23.18
353.35	17.95
353.561	12.36
353.773	-7.09
353.985	2.66
354.197	-11.5
354.409	-16.16
354.621	-23.86
354.832	-11.64
355.044	-17.51
355.256	-19.53
355.468	-13.69
355.679	-7.65
355.891	0.65
356.103	-4.81
356.314	11.13
356.526	9.52
356.738	3.34
356.949	-28.79
357.161	-4.35
357.373	-2.82
357.584	-19.96
357.796	-7.39
358.008	8.7
358.219	17.64
358.431	5.87
358.642	23.61
358.854	15.99
359.065	-8.94
359.277	-45.09
359.488	-49.69
359.7	-75.14
359.911	-94.32
360.123	-50.34
360.334	-53.05
360.546	-71.4
360.757	-54.83
360.969	-31.49
361.18	-33.68
361.391	-8.77
361.603	-6.38
361.814	-7.62
362.025	-11.07
362.237	-15.77
362.448	-17.7
362.659	6.97
362.871	-3.09
363.082	0.64
363.293	-2.76
363.504	-16.75
363.716	-44.99
363.927	-40.01
364.138	-68.37
364.349	-77.53
364.56	-65.83
364.772	-54.68
364.983	-15.86
365.194	-14.86
365.405	10.5
365.616	35.18
365.827	42.59
366.038	8.38
366.25	25.46
366.461	-15.42
366.672	-11.18
366.883	8.16
367.094	16.78
367.305	-4.54
367.516	3.42
367.727	-26.62
367.938	-43.59
368.149	-58.28
368.36	-37.31
368.571	-26.31
368.781	-32.89
368.992	-37.85
369.203	-45.84
369.414	-61.59
369.625	-60.34
369.836	-45.3
370.047	-70.98
370.258	-38.02
370.468	-28.96
370.679	-49.21
370.89	-47.65
371.101	-17.13
371.312	-35.31
371.522	-46.45
371.733	-28.16
371.944	-15.87
372.155	-21.54
372.365	-16.63
372.576	-12.82
372.787	-15.59
372.997	-23.74
373.208	-22.11
373.419	5.85
373.629	-5.84
373.84	-9.22
374.05	-22.81
374.261	-0.59
374.472	-21.42
374.682	20.37
374.893	24.14
375.103	53.58
375.314	34.16
375.524	26.65
375.735	19.95
375.945	29.28
376.156	-3.04
376.366	10.71
376.577	11.71
376.787	2.61
376.997	-4.47
377.208	-1.56
377.418	-22.21
377.629	-15.79
377.839	-18.58
378.049	-10.44
378.26	6.68
378.47	19.94
378.68	15.63
378.89	12.53
379.101	1.7
379.311	-35.43
379.521	-65.72
379.732	-62.41
379.942	-58.18
380.152	-74.63
380.362	-34.37
380.572	-32.07
380.783	-20.5
380.993	-11.45
381.203	4.98
381.413	15.71
381.623	24.18
381.833	23.45
382.043	5.69
382.253	0.16
382.463	-5.03
382.674	-12.81
382.884	-37.53
383.094	-29.67
383.304	-24.99
383.514	-15.41
383.724	-10.41
383.934	-8.73
384.144	-15.22
384.353	-20.89
384.563	-31.11
384.773	-24.15
384.983	-31.11
385.193	-5.85
385.403	-0.81
385.613	4.21
385.823	-7.11
386.033	3.37
386.242	-12.29
386.452	-12.83
386.662	-22.66
386.872	-4.88
387.082	-9.19
387.291	-11.48
387.501	-12.28
387.711	0.4
387.921	-9.76
388.13	-8.96
388.34	1.99
388.55	-5.39
388.759	-13.61
388.969	-6.91
389.179	-9.08
389.388	-11.16
389.598	-4.28
389.807	-7.44
390.017	-11.6
390.227	-9.96
390.436	-12.05
390.646	-13.26
390.855	-7.59
391.065	-7.01
391.274	-6.53
391.484	-7.93
391.693	-1.79
391.903	-1.94
392.112	1.4
392.322	2.68
392.531	5.71
392.74	2.29
392.95	-1.6
393.159	-3.38
393.369	-3.46
393.578	-2.91
393.787	-3.17
393.997	-0.36
394.206	-0.96
394.415	-0.64
394.625	-1.77
394.834	-3.44
395.043	-2.29
395.252	-0.04
395.462	2.2
395.671	3.38
395.88	4.62
396.089	4.61
396.298	2.18
396.508	1.53
396.717	0.7
396.926	1.61
397.135	0.78
397.344	1.14
397.553	1.21
397.762	2.62
397.971	2.18
398.181	3.23
398.39	2.76
398.599	2.64
398.808	2.25
399.017	3.25
399.226	3.63
399.435	4.73
399.644	4.76
399.853	3.9
400.062	3.24
400.27	2.84
400.479	2.29
400.688	1.31
400.897	1.84
401.106	1.98
401.315	2
401.524	2.17
401.733	2.91
401.941	3.35
402.15	3.52
402.359	3.22
402.568	3.81
402.777	3.88
402.985	3.53
403.194	3.23
403.403	3.16
403.612	2.55
403.82	2.51
404.029	2.59
404.238	2.51
404.446	3.05
404.655	3.08
404.864	3.1
405.072	2.9
405.281	3.18
405.489	2.67
405.698	2.66
405.906	2.6
406.115	2.69
406.324	2.58
406.532	2.79
406.741	3.16
406.949	3.08
407.158	3.09
407.366	3.06
407.574	2.93
407.783	2.69
407.991	2.66
408.2	2.86
408.408	2.86
408.617	2.83
408.825	2.67
409.033	2.76
409.242	2.69
409.45	2.8
409.658	2.73
409.867	2.95
410.075	2.85
410.283	2.69
410.491	2.57
410.7	2.6
410.908	2.63
411.116	2.92
411.324	3.01
411.533	2.87
411.741	3.18
411.949	3.02
412.157	2.73
412.365	2.66
412.573	2.78
412.781	2.61
412.99	2.55
413.198	2.69
413.406	2.71
413.614	2.71
413.822	2.52
414.03	2.46
414.238	2.22
414.446	2.33
414.654	2.26
414.862	2.41
415.07	2.55
415.278	2.83
415.486	2.48
415.694	2.49
415.902	2.41
416.109	2.28
416.317	2.12
416.525	2.08
416.733	2.01
416.941	2.07
417.149	1.96
417.357	1.95
417.564	2.28
417.772	2.6
417.98	2.59
418.188	2.68
418.395	2.71
418.603	2.75
418.811	2.25
419.019	2.09
419.226	2.38
419.434	2.5
419.642	2.19
419.849	2.47
420.057	2.56
420.265	2.52
420.472	2.39
420.68	2.49
420.887	2.42
421.095	2.5
421.302	2.36
421.51	2.37
421.717	2.38
421.925	2.43
422.132	2.27
422.34	1.91
422.547	2.12
422.755	2.05
422.962	1.93
423.17	1.95
423.377	2.23
423.585	2.15
423.792	2.15
423.999	2.25
424.207	2.22
424.414	2.31
424.621	2.32
424.829	2.32
425.036	2.35
425.243	2.5
425.451	2.3
425.658	2.01
425.865	2.19
426.072	2.19
426.28	2.43
426.487	2.43
426.694	2.52
426.901	2.32
427.108	2.26
427.315	1.94
427.523	2.17
427.73	2.2
427.937	2.07
428.144	1.93
428.351	1.92
428.558	2.01
428.765	1.9
428.972	1.95
429.179	2.12
429.386	2.43
429.593	2.15
429.8	2.06
430.007	2.27
430.214	2.35
430.421	2.05
430.628	1.98
430.835	1.94
431.042	2.13
431.249	2.1
431.456	2.13
431.662	2.27
431.869	2.48
432.076	2.39
432.283	2.42
432.49	2.42
432.697	2.49
432.903	2.29
433.11	2.2
433.317	2.29
433.524	2.52
433.73	2.3
433.937	2.6
434.144	2.56
434.35	2.41
434.557	2.2
434.764	2.26
434.97	2.16
435.177	2.37
435.384	2.3
435.59	2.4
435.797	2.64
436.003	2.7
436.21	2.56
436.416	2.72
436.623	2.68
436.829	2.68
437.036	2.67
437.242	2.73
437.449	2.56
437.655	2.58
437.862	2.51
438.068	2.51
438.275	2.57
438.481	2.9
438.687	2.94
438.894	2.95
439.1	2.94
439.307	3.05
439.513	2.82
439.719	2.79
439.926	2.85
440.132	2.8
440.338	2.55
440.544	2.69
440.751	2.64
440.957	2.65
441.163	2.61
441.369	2.69
441.575	2.47
441.782	2.45
441.988	2.4
442.194	2.43
442.4	2.42
442.606	2.72
442.812	2.77
443.018	2.91
443.224	2.96
443.431	3.05
443.637	2.83
443.843	2.8
444.049	2.72
444.255	2.64
444.461	2.66
444.667	2.63
444.873	2.72
445.079	2.69
445.284	2.82
445.49	2.54
445.696	2.41
445.902	2.28
446.108	2.23
446.314	2.1
446.52	2.28
446.726	2.52
446.931	2.57
447.137	2.63
447.343	2.7
447.549	2.51
447.755	2.43
447.96	2.47
448.166	2.38
448.372	2.29
448.578	2.43
448.783	2.52
448.989	2.52
449.195	2.78
449.4	2.83
449.606	2.83
449.812	2.62
450.017	2.71
450.223	2.5
450.428	2.43
450.634	2.59
450.84	2.82
451.045	2.67
451.251	2.59
451.456	2.83
451.662	2.84
451.867	2.86
452.073	2.88
452.278	3.06
452.483	3.12
452.689	2.95
452.894	2.9
453.1	2.9
453.305	2.85
453.51	2.7
453.716	2.67
453.921	2.74
454.127	2.63
454.332	2.49
454.537	2.45
454.742	2.53
454.948	2.47
455.153	2.6
455.358	2.77
455.563	2.88
455.769	2.95
455.974	2.96
456.179	2.77
456.384	2.65
456.589	2.57
456.795	2.4
457	2.39
457.205	2.71
457.41	2.71
457.615	2.65
457.82	2.75
458.025	2.7
458.23	2.48
458.435	2.57
458.64	2.53
458.845	2.65
459.05	2.66
459.255	2.7
459.46	2.69
459.665	2.77
459.87	2.75
460.075	2.71
460.28	2.76
460.485	2.81
460.69	2.76
460.895	2.52
461.099	2.59
461.304	2.76
461.509	2.72
461.714	2.71
461.919	2.97
462.123	2.89
462.328	2.79
462.533	2.74
462.738	2.8
462.942	2.65
463.147	2.77
463.352	2.82
463.556	2.87
463.761	2.94
463.966	2.94
464.17	2.89
464.375	2.69
464.58	2.61
464.784	2.44
464.989	2.45
465.193	2.45
465.398	2.53
465.602	2.75
465.807	2.72
466.011	2.83
466.216	2.84
466.42	2.82
466.625	2.79
466.829	2.95
467.034	2.99
467.238	3.25
467.443	3.19
467.647	3.05
467.851	3.11
468.056	3.13
468.26	2.88
468.464	3.01
468.669	3.09
468.873	3.21
469.077	3.18
469.282	3.29
469.486	3.26
469.69	3.33
469.894	3.12
470.099	3.19
470.303	3.35
470.507	3.27
470.711	3.19
470.915	3.16
471.119	3.03
471.324	2.89
471.528	2.95
471.732	3.03
471.936	3.07
472.14	3.16
472.344	3.17
472.548	3.23
472.752	3.36
472.956	3.6
473.16	3.59
473.364	3.45
473.568	3.47
473.772	3.44
473.976	3.3
474.18	3.25
474.384	3.4
474.588	3.33
474.792	3.15
474.995	3.27
475.199	3.37
475.403	3.42
475.607	3.46
475.811	3.53
476.015	3.52
476.218	3.57
476.422	3.45
476.626	3.54
476.83	3.7
477.033	3.63
477.237	3.54
477.441	3.64
477.644	3.61
477.848	3.52
478.052	3.48
478.255	3.5
478.459	3.57
478.663	3.66
478.866	3.7
479.07	3.73
479.273	3.95
479.477	3.94
479.681	3.89
479.884	3.89
480.088	3.88
480.291	3.66
480.495	3.64
480.698	3.64
480.901	3.67
481.105	3.75
481.308	3.8
481.512	3.75
481.715	3.78
481.919	3.8
482.122	3.73
482.325	3.76
482.529	3.82
482.732	3.87
482.935	3.83
483.138	3.83
483.342	3.92
483.545	3.98
483.748	3.99
483.952	4.02
484.155	4.19
484.358	4.18
484.561	4.06
484.764	3.99
484.967	4.11
485.171	4.12
485.374	4.06
485.577	4.21
485.78	4.26
485.983	4.22
486.186	4.07
486.389	4.04
486.592	3.99
486.795	3.96
486.998	3.9
487.201	3.98
487.404	4.09
487.607	4.12
487.81	4.21
488.013	4.28
488.216	4.22
488.419	4.18
488.622	4.12
488.825	4.01
489.028	3.91
489.231	3.88
489.433	3.86
489.636	3.82
489.839	3.88
490.042	3.89
490.245	3.91
490.447	3.95
490.65	3.98
490.853	4
491.056	4.08
491.258	4.15
491.461	4.12
491.664	4.22
491.866	4.1
492.069	4.15
492.272	4.09
492.474	4.17
492.677	4.21
492.879	4.34
493.082	4.38
493.285	4.49
493.487	4.44
493.69	4.3
493.892	4.23
494.095	4.12
494.297	4.06
494.5	4.12
494.702	4.2
494.905	4.29
495.107	4.27
495.309	4.29
495.512	4.31
495.714	4.38
495.917	4.39
496.119	4.44
496.321	4.53
496.524	4.56
496.726	4.5
496.928	4.55
497.13	4.52
497.333	4.45
497.535	4.42
497.737	4.48
497.939	4.46
498.142	4.58
498.344	4.62
498.546	4.56
498.748	4.59
498.95	4.7
499.152	4.6
499.355	4.66
499.557	4.77
499.759	4.82
499.961	4.71
500.163	4.83
500.365	4.86
500.567	4.9
500.769	4.83
500.971	4.87
501.173	4.76
501.375	4.82
501.577	4.73
501.779	4.7
501.981	4.71
502.183	4.77
502.385	4.73
502.587	4.69
502.788	4.77
502.99	4.81
503.192	4.92
503.394	4.89
503.596	4.99
503.798	5.04
503.999	5.05
504.201	4.95
504.403	5.06
504.605	5.04
504.806	5.05
505.008	5.04
505.21	5.13
505.411	5.1
505.613	5.15
505.815	5.13
506.016	5.22
506.218	5.33
506.42	5.34
506.621	5.36
506.823	5.43
507.024	5.36
507.226	5.29
507.427	5.3
507.629	5.34
507.83	5.36
508.032	5.4
508.233	5.5
508.435	5.53
508.636	5.59
508.838	5.57
509.039	5.6
509.24	5.61
509.442	5.68
509.643	5.62
509.845	5.68
510.046	5.75
510.247	5.75
510.448	5.76
510.65	5.86
510.851	5.97
511.052	5.98
511.254	6.01
511.455	6.1
511.656	6.16
511.857	6.2
512.058	6.16
512.26	6.13
512.461	6.08
512.662	6.08
512.863	5.9
513.064	5.93
513.265	5.96
513.466	5.94
513.667	5.94
513.868	6.04
514.069	6.1
514.27	6.2
514.471	6.17
514.672	6.13
514.873	6.07
515.074	6.12
515.275	5.97
515.476	6.03
515.677	6.11
515.878	6.24
516.079	6.14
516.28	6.22
516.481	6.32
516.682	6.31
516.882	6.22
517.083	6.22
517.284	6.17
517.485	6.12
517.686	6.12
517.886	6.18
518.087	6.25
518.288	6.36
518.488	6.31
518.689	6.33
518.89	6.26
519.091	6.26
519.291	6.17
519.492	6.21
519.692	6.24
519.893	6.34
520.094	6.34
520.294	6.39
520.495	6.4
520.695	6.41
520.896	6.35
521.096	6.39
521.297	6.36
521.497	6.38
521.698	6.29
521.898	6.3
522.099	6.32
522.299	6.38
522.499	6.34
522.7	6.43
522.9	6.43
523.101	6.49
523.301	6.49
523.501	6.5
523.702	6.48
523.902	6.57
524.102	6.54
524.302	6.55
524.503	6.59
524.703	6.62
524.903	6.58
525.103	6.54
525.304	6.61
525.504	6.62
525.704	6.65
525.904	6.66
526.104	6.66
526.304	6.62
526.504	6.63
526.705	6.58
526.905	6.7
527.105	6.72
527.305	6.68
527.505	6.65
527.705	6.67
527.905	6.6
528.105	6.6
528.305	6.57
528.505	6.6
528.705	6.7
528.905	6.63
529.105	6.63
529.304	6.72
529.504	6.82
529.704	6.7
529.904	6.78
530.104	6.81
530.304	6.92
530.503	6.85
530.703	6.82
530.903	6.82
531.103	6.84
531.303	6.74
531.502	6.76
531.702	6.89
531.902	6.9
532.101	6.86
532.301	6.87
532.501	6.9
532.7	6.86
532.9	6.89
533.1	6.97
533.299	6.98
533.499	6.98
533.698	6.96
533.898	6.95
534.097	6.92
534.297	7.05
534.496	7.02
534.696	7.06
534.895	7.17
535.095	7.26
535.294	7.13
535.494	7.11
535.693	7.13
535.892	7.1
536.092	7
536.291	7.01
536.491	7.11
536.69	7.18
536.889	7.13
537.088	7.14
537.288	7.2
537.487	7.28
537.686	7.24
537.886	7.34
538.085	7.43
538.284	7.57
538.483	7.5
538.682	7.56
538.882	7.56
539.081	7.58
539.28	7.43
539.479	7.42
539.678	7.39
539.877	7.46
540.076	7.44
540.275	7.51
540.474	7.69
540.673	7.72
540.872	7.65
541.071	7.71
541.27	7.77
541.469	7.71
541.668	7.76
541.867	7.83
542.066	7.88
542.265	7.95
542.464	7.92
542.663	7.95
542.862	8.07
543.06	8.11
543.259	8.11
543.458	8.24
543.657	8.27
543.856	8.26
544.054	8.22
544.253	8.19
544.452	8.19
544.651	8.28
544.849	8.23
545.048	8.32
545.247	8.39
545.445	8.52
545.644	8.52
545.843	8.55
546.041	8.59
546.24	8.69
546.438	8.68
546.637	8.73
546.836	8.87
547.034	8.95
547.233	8.93
547.431	8.92
547.63	8.92
547.828	8.89
548.027	8.92
548.225	8.99
548.423	9.07
548.622	9.2
548.82	9.25
549.019	9.28
549.217	9.37
549.415	9.43
549.614	9.45
549.812	9.48
550.01	9.49
550.209	9.54
550.407	9.59
550.605	9.61
550.803	9.68
551.002	9.78
551.2	9.75
551.398	9.86
551.596	10.01
551.794	10.13
551.993	10.22
552.191	10.39
552.389	10.42
552.587	10.46
552.785	10.49
552.983	10.54
553.181	10.58
553.379	10.63
553.577	10.65
553.775	10.77
553.973	10.84
554.171	10.95
554.369	11.01
554.567	11.05
554.765	11.07
554.963	11.17
555.161	11.14
555.359	11.27
555.557	11.45
555.755	11.48
555.952	11.62
556.15	11.7
556.348	11.75
556.546	11.83
556.744	11.89
556.941	11.87
557.139	11.97
557.337	12.01
557.535	11.94
557.732	12.13
557.93	12.31
558.128	12.46
558.325	12.61
558.523	12.72
558.721	12.77
558.918	12.74
559.116	12.77
559.313	12.78
559.511	12.93
559.708	13.01
559.906	13.09
560.104	13.12
560.301	13.25
560.498	13.3
560.696	13.36
560.893	13.5
561.091	13.7
561.288	13.85
561.486	13.96
561.683	14.11
561.88	14.16
562.078	14.23
562.275	14.2
562.473	14.39
562.67	14.53
562.867	14.72
563.064	14.79
563.262	14.93
563.459	14.93
563.656	15
563.853	15.07
564.051	15.18
564.248	15.29
564.445	15.4
564.642	15.51
564.839	15.63
565.036	15.79
565.234	15.98
565.431	16.12
565.628	16.15
565.825	16.14
566.022	16.22
566.219	16.3
566.416	16.37
566.613	16.53
566.81	16.64
567.007	16.72
567.204	16.64
567.401	16.66
567.598	16.67
567.795	16.7
567.991	16.71
568.188	16.84
568.385	17
568.582	17.09
568.779	17.22
568.976	17.27
569.172	17.44
569.369	17.41
569.566	17.52
569.763	17.62
569.96	17.68
570.156	17.65
570.353	17.7
570.55	17.7
570.746	17.7
570.943	17.79
571.14	17.8
571.336	17.94
571.533	18.05
571.729	18.07
571.926	18.17
572.123	18.28
572.319	18.29
572.516	18.27
572.712	18.36
572.909	18.35
573.105	18.41
573.302	18.45
573.498	18.54
573.695	18.51
573.891	18.58
574.087	18.54
574.284	18.59
574.48	18.48
574.677	18.61
574.873	18.6
575.069	18.74
575.266	18.79
575.462	18.84
575.658	18.84
575.854	19
576.051	18.95
576.247	18.95
576.443	19
576.639	18.98
576.835	18.92
577.032	18.85
577.228	18.93
577.424	19.04
577.62	19
577.816	19.02
578.012	19.14
578.208	19.09
578.404	19.05
578.6	19.07
578.796	19.08
578.993	19.03
579.189	18.96
579.384	18.84
579.58	18.85
579.776	18.82
579.972	18.84
580.168	18.86
580.364	18.93
580.56	18.95
580.756	18.9
580.952	18.83
581.148	18.76
581.343	18.72
581.539	18.72
581.735	18.71
581.931	18.73
582.127	18.85
582.322	18.83
582.518	18.8
582.714	18.83
582.909	18.8
583.105	18.73
583.301	18.69
583.496	18.72
583.692	18.55
583.888	18.52
584.083	18.61
584.279	18.69
584.474	18.69
584.67	18.8
584.866	18.9
585.061	18.74
585.257	18.74
585.452	18.73
585.648	18.68
585.843	18.64
586.039	18.64
586.234	18.64
586.429	18.53
586.625	18.68
586.82	18.6
587.015	18.6
587.211	18.47
587.406	18.59
587.601	18.53
587.797	18.55
587.992	18.55
588.187	18.73
588.383	18.64
588.578	18.59
588.773	18.7
588.968	18.74
589.163	18.7
589.359	18.62
589.554	18.63
589.749	18.55
589.944	18.59
590.139	18.51
590.334	18.62
590.529	18.68
590.724	18.78
590.919	18.88
591.114	18.95
591.309	19.07
591.504	19.08
591.699	19.08
591.894	19.12
592.089	19.12
592.284	19.05
592.479	19.2
592.674	19.2
592.869	19.27
593.064	19.32
593.259	19.51
593.454	19.59
593.648	19.58
593.843	19.56
594.038	19.66
594.233	19.57
594.428	19.54
594.622	19.64
594.817	19.81
595.012	19.84
595.206	19.96
595.401	19.96
595.596	20.03
595.79	20.05
595.985	20.19
596.18	20.28
596.374	20.42
596.569	20.53
596.763	20.49
596.958	20.59
597.153	20.63
597.347	20.68
597.542	20.71
597.736	20.83
597.931	20.82
598.125	20.84
598.319	20.92
598.514	20.96
598.708	20.99
598.903	21.13
599.097	21.2
599.291	21.23
599.486	21.27
599.68	21.23
599.874	21.32
600.069	21.4
600.263	21.44
600.457	21.5
600.651	21.59
600.846	21.55
601.04	21.53
601.234	21.55
601.428	21.67
601.622	21.8
601.817	21.8
602.011	21.94
602.205	22.05
602.399	22.01
602.593	21.87
602.787	21.93
602.981	21.89
603.175	21.92
603.369	21.92
603.563	22.07
603.757	22.02
603.951	22.13
604.145	22.1
604.339	22.22
604.533	22.06
604.727	22.06
604.921	21.88
605.115	21.85
605.309	21.87
605.502	21.94
605.696	21.99
605.89	21.97
606.084	21.9
606.278	21.72
606.471	21.64
606.665	21.51
606.859	21.46
607.053	21.36
607.246	21.37
607.44	21.35
607.634	21.32
607.827	21.39
608.021	21.34
608.214	21.31
608.408	21.25
608.602	21.19
608.795	21.03
608.989	21.03
609.182	20.93
609.376	20.92
609.569	20.78
609.763	20.6
609.956	20.5
610.15	20.4
610.343	20.25
610.537	20.27
610.73	20.37
610.923	20.35
611.117	20.37
611.31	20.3
611.504	20.2
611.697	20.04
611.89	19.9
612.083	19.77
612.277	19.76
612.47	19.73
612.663	19.64
612.856	19.59
613.05	19.45
613.243	19.32
613.436	19.21
613.629	19.18
613.822	19.08
614.015	19.06
614.209	18.9
614.402	18.94
614.595	18.87
614.788	18.85
614.981	18.7
615.174	18.64
615.367	18.45
615.56	18.41
615.753	18.34
615.946	18.31
616.139	18.28
616.332	18.35
616.525	18.27
616.718	18.24
616.911	18.24
617.103	18.27
617.296	18.16
617.489	18.11
617.682	17.99
617.875	18.03
618.067	17.9
618.26	17.8
618.453	17.86
618.646	17.91
618.838	17.82
619.031	17.91
619.224	17.98
619.417	17.86
619.609	17.87
619.802	17.76
619.994	17.7
620.187	17.65
620.38	17.67
620.572	17.55
620.765	17.6
620.957	17.5
621.15	17.39
621.342	17.25
621.535	17.33
621.727	17.2
621.92	17.15
622.112	17.11
622.305	17.17
622.497	17.01
622.69	17.05
622.882	17.12
623.074	17.15
623.267	17.08
623.459	17.01
623.651	16.89
623.844	16.84
624.036	16.82
624.228	16.75
624.42	16.82
624.613	16.95
624.805	16.9
624.997	16.87
625.189	16.83
625.381	16.82
625.574	16.77
625.766	16.74
625.958	16.69
626.15	16.78
626.342	16.77
626.534	16.7
626.726	16.71
626.918	16.71
627.11	16.6
627.302	16.56
627.494	16.48
627.686	16.44
627.878	16.4
628.07	16.45
628.262	16.42
628.454	16.49
628.646	16.4
628.838	16.42
629.029	16.33
629.221	16.36
629.413	16.25
629.605	16.19
629.797	16.09
629.989	16.07
630.18	15.97
630.372	15.92
630.564	15.95
630.755	16.01
630.947	15.99
631.139	15.89
631.33	15.83
631.522	15.87
631.714	15.82
631.905	15.75
632.097	15.69
632.289	15.75
632.48	15.62
632.672	15.56
632.863	15.51
633.055	15.49
633.246	15.46
633.438	15.38
633.629	15.33
633.821	15.4
634.012	15.43
634.203	15.37
634.395	15.46
634.586	15.49
634.777	15.44
634.969	15.37
635.16	15.38
635.351	15.28
635.543	15.23
635.734	15.25
635.925	15.3
636.117	15.31
636.308	15.4
636.499	15.34
636.69	15.23
636.881	15.14
637.073	15.22
637.264	15.15
637.455	15.22
637.646	15.36
637.837	15.46
638.028	15.32
638.219	15.37
638.41	15.32
638.601	15.23
638.792	15.23
638.983	15.15
639.174	15.08
639.365	15.11
639.556	15.07
639.747	14.98
639.938	15.11
640.129	15.11
640.32	14.98
640.511	15.04
640.701	15.16
640.892	15.04
641.083	15.09
641.274	15.26
641.465	15.19
641.655	15.04
641.846	15.1
642.037	15.04
642.228	14.9
642.418	14.94
642.609	15.04
642.8	15.04
642.99	14.97
643.181	15.02
643.372	15.1
643.562	15.03
643.753	14.97
643.943	14.96
644.134	14.89
644.324	14.79
644.515	14.79
644.705	14.83
644.896	14.9
645.086	14.92
645.277	14.8
645.467	14.79
645.658	14.7
645.848	14.69
646.038	14.68
646.229	14.75
646.419	14.66
646.61	14.74
646.8	14.68
646.99	14.61
647.18	14.55
647.371	14.57
647.561	14.45
647.751	14.5
647.941	14.43
648.132	14.37
648.322	14.36
648.512	14.41
648.702	14.39
648.892	14.38
649.082	14.39
649.272	14.25
649.462	14.12
649.653	13.93
649.843	13.88
650.033	13.89
650.223	13.95
650.413	13.86
650.603	13.9
650.793	13.93
650.983	13.79
651.172	13.66
651.362	13.65
651.552	13.58
651.742	13.58
651.932	13.61
652.122	13.65
652.312	13.7
652.502	13.66
652.691	13.63
652.881	13.57
653.071	13.52
653.261	13.36
653.45	13.26
653.64	13.11
653.83	12.95
654.019	12.84
654.209	12.85
654.399	12.83
654.588	12.76
654.778	12.76
654.968	12.61
655.157	12.54
655.347	12.49
655.536	12.39
655.726	12.16
655.915	12.01
656.105	11.84
656.294	11.67
656.484	11.45
656.673	11.42
656.863	11.47
657.052	11.29
657.241	11.11
657.431	10.95
657.62	10.8
657.809	10.43
657.999	10.25
658.188	10.09
658.377	9.99
658.567	9.9
658.756	9.86
658.945	9.75
659.134	9.59
659.324	9.45
659.513	9.26
659.702	9.09
659.891	8.99
660.08	8.91
660.269	8.86
660.458	8.71
660.648	8.59
660.837	8.46
661.026	8.36
661.215	8.19
661.404	8.04
661.593	8
661.782	7.79
661.971	7.63
662.16	7.46
662.349	7.39
662.538	7.18
662.726	7.23
662.915	7.06
663.104	7.03
663.293	7
663.482	7.17
663.671	6.96
663.86	6.98
664.048	6.93
664.237	6.87
664.426	6.5
664.615	6.49
664.803	6.38
664.992	6.29
665.181	6.17
665.369	6.18
665.558	6.12
665.747	6.07
665.935	6.07
666.124	6.09
666.312	6.11
666.501	6.06
666.69	6.02
666.878	5.96
667.067	5.79
667.255	5.75
667.444	6.05
667.632	6.1
667.82	6.19
668.009	6.19
668.197	6.17
668.386	5.98
668.574	6.15
668.762	6.03
668.951	6
669.139	5.98
669.327	5.78
669.516	5.75
669.704	5.76
669.892	5.96
670.08	6.04
670.269	6.03
670.457	5.76
670.645	5.61
670.833	5.63
671.021	5.58
671.21	5.67
671.398	6
671.586	6.15
671.774	5.94
671.962	5.98
672.15	6
672.338	5.82
672.526	5.89
672.714	5.9
672.902	5.93
673.09	6.05
673.278	6.3
673.466	6.3
673.654	6.69
673.842	6.82
674.03	6.88
674.218	6.71
674.405	6.74
674.593	6.52
674.781	6.58
674.969	6.56
675.157	6.75
675.344	6.94
675.532	7.07
675.72	7.12
675.908	7.27
676.095	7.24
676.283	7.19
676.471	7.45
676.658	7.5
676.846	7.5
677.033	7.69
677.221	7.84
677.409	7.68
677.596	7.69
677.784	7.77
677.971	7.8
678.159	7.78
678.346	7.88
678.534	8.08
678.721	8.3
678.909	8.37
679.096	8.47
679.283	8.76
679.471	8.82
679.658	8.85
679.846	9.08
680.033	9.41
680.22	9.36
680.408	9.34
680.595	9.4
680.782	9.23
680.969	9.27
681.157	9.38
681.344	9.5
681.531	9.53
681.718	9.64
681.905	9.68
682.093	9.81
682.28	10.12
682.467	10.43
682.654	10.67
682.841	10.85
683.028	11.13
683.215	11.31
683.402	11.24
683.589	11.39
683.776	11.61
683.963	11.69
684.15	11.85
684.337	12.14
684.524	12.32
684.711	12.49
684.898	12.48
685.085	12.54
685.271	12.76
685.458	13.05
685.645	13.19
685.832	13.64
686.019	14.03
686.205	14.31
686.392	14.51
686.579	14.9
686.766	15.33
686.952	15.62
687.139	16.15
687.326	16.51
687.512	16.85
687.699	16.94
687.886	17.18
688.072	17.3
688.259	17.67
688.445	17.95
688.632	18.33
688.818	18.9
689.005	19.41
689.191	19.71
689.378	20.42
689.564	21
689.751	21.39
689.937	21.67
690.124	22.38
690.31	22.67
690.496	23.12
690.683	23.66
690.869	24.25
691.055	24.85
691.242	25.64
691.428	26.31
691.614	26.91
691.8	27.65
691.987	27.96
692.173	28.38
692.359	29.15
692.545	29.77
692.731	30.37
692.918	31.25
693.104	31.73
693.29	32.11
693.476	32.82
693.662	33.53
693.848	34.01
694.034	34.84
694.22	35.37
694.406	35.96
694.592	36.57
694.778	37.26
694.964	37.84
695.15	38.57
695.336	39.14
695.522	39.78
695.708	40.45
695.894	41.11
696.08	41.96
696.265	42.62
696.451	43.15
696.637	43.95
696.823	44.59
697.009	44.86
697.194	45.24
697.38	45.7
697.566	45.91
697.751	46.43
697.937	47.56
698.123	48.51
698.308	49.49
698.494	50.25
698.68	50.78
698.865	51.02
699.051	51.45
699.236	51.47
699.422	51.9
699.607	52.21
699.793	52.78
699.978	53.25
700.164	53.83
700.349	54.63
700.535	55.04
700.72	55.31
700.906	56
701.091	56.57
701.276	56.71
701.462	57.74
701.647	58.47
701.832	58.69
702.018	59.21
702.203	59.63
702.388	59.66
702.573	59.81
702.759	60.5
702.944	60.76
703.129	61.11
703.314	61.73
703.499	62.15
703.684	62.18
703.87	63.41
704.055	64.2
704.24	64.23
704.425	64.7
704.61	65.16
704.795	64.69
704.98	64.68
705.165	64.83
705.35	64.86
705.535	65.17
705.72	65.42
705.905	66.15
706.09	67.33
706.275	67.71
706.459	67.82
706.644	68.11
706.829	67.67
707.014	67.18
707.199	67.62
707.384	68.21
707.568	68.22
707.753	69.1
707.938	69.44
708.123	69.33
708.307	69.18
708.492	69.69
708.677	69.59
708.861	69.82
709.046	69.94
709.231	70.88
709.415	71.21
709.6	71.27
709.784	71.3
709.969	71.77
710.153	71.23
710.338	71.29
710.522	71.51
710.707	72.07
710.891	72.08
711.076	72.44
711.26	72.22
711.445	72.66
711.629	72.87
711.813	72.96
711.998	73.3
712.182	73.32
712.366	73.73
712.551	73.96
712.735	74.55
712.919	74.1
713.103	74.58
713.288	74.1
713.472	73.84
713.656	74.16
713.84	74.93
714.024	75.44
714.208	75.46
714.393	75.67
714.577	75.69
714.761	75.61
714.945	75.46
715.129	75.87
715.313	76.05
715.497	76.04
715.681	76.36
715.865	76.35
716.049	76.63
716.233	76.16
716.417	76.38
716.601	76.03
716.785	76.28
716.968	76.48
717.152	77.31
717.336	77.31
717.52	77.36
717.704	77.45
717.888	77.54
718.071	77.49
718.255	77.47
718.439	77.54
718.622	77.74
718.806	78
718.99	77.66
719.174	77.34
719.357	77.73
719.541	77.82
719.724	77.49
719.908	78.97
720.092	79.63
720.275	80.06
720.459	79.9
720.642	79.76
720.826	78.95
721.009	78.67
721.193	78.29
721.376	78.81
721.559	79.18
721.743	79.16
721.926	79.42
722.11	79.54
722.293	78.87
722.476	78.98
722.66	78.82
722.843	78.66
723.026	78.31
723.21	78.61
723.393	79.07
723.576	79.31
723.759	79.64
723.942	80.13
724.126	80.35
724.309	80.14
724.492	80.43
724.675	80.01
724.858	80.2
725.041	80.32
725.224	80.31
725.407	80.23
725.59	80.85
725.774	80.75
725.957	80.22
726.14	79.82
726.322	80.43
726.505	80.26
726.688	81.03
726.871	81.56
727.054	82.39
727.237	81.66
727.42	82.39
727.603	82.31
727.786	82.61
727.968	82.83
728.151	83.54
728.334	83.24
728.517	83.12
728.699	83.28
728.882	82.54
729.065	82.67
729.248	82.72
729.43	82.99
729.613	84
729.796	85.17
729.978	84.66
730.161	85.18
730.343	85.09
730.526	84.66
730.708	83.66
730.891	84.1
731.073	83.46
731.256	82.83
731.438	82.83
731.621	83.81
731.803	83.91
731.986	84.12
732.168	84.46
732.35	84.66
732.533	84.85
732.715	84.9
732.898	85.05
733.08	85.82
733.262	85.57
733.444	84.8
733.627	85.26
733.809	85.88
733.991	86.05
734.173	86.24
734.355	86.38
734.538	86.37
734.72	86.08
734.902	85.31
735.084	85.43
735.266	86.33
735.448	86.39
735.63	86.32
735.812	86.88
735.994	88.23
736.176	88.35
736.358	88.49
736.54	89.84
736.722	88.98
736.904	87.47
737.086	86.79
737.268	87.89
737.45	87.13
737.632	87.89
737.814	87.63
737.995	88.37
738.177	87.21
738.359	86.87
738.541	87.68
738.723	87.92
738.904	88.16
739.086	88.62
739.268	88.88
739.449	89.17
739.631	89.78
739.813	89.71
739.994	89.94
740.176	90.27
740.358	89.39
740.539	89.92
740.721	90.04
740.902	90.35
741.084	90.14
741.265	90.46
741.447	91
741.628	90.7
741.81	89.81
741.991	90.1
742.172	91.13
742.354	91.25
742.535	90.83
742.717	91.77
742.898	91.9
743.079	91.57
743.261	90.74
743.442	90.5
743.623	90.39
743.804	90.73
743.986	90.95
744.167	89.77
744.348	90.26
744.529	90.1
744.71	88.85
744.891	87.78
745.073	88.84
745.254	88.92
745.435	88.85
745.616	88.96
745.797	89.49
745.978	89.41
746.159	89.7
746.34	88.28
746.521	90.52
746.702	90
746.883	88.98
747.064	88.46
747.245	89.87
747.426	88.53
747.606	88.4
747.787	89.68
747.968	90.02
748.149	90.36
748.33	90.15
748.51	90.03
748.691	89.59
748.872	89.88
749.053	88.98
749.233	88.8
749.414	88.53
749.595	87.68
749.775	86.81
749.956	85.71
750.137	86.09
750.317	87.54
750.498	89.49
750.678	90.11
750.859	92.6
751.04	91.66
751.22	89.76
751.4	88.75
751.581	86.69
751.761	85.42
751.942	87.19
752.122	88.52
752.303	87.28
752.483	88.69
752.663	88.49
752.844	85.88
753.024	87.26
753.204	88.82
753.385	88.8
753.565	89.21
753.745	90.55
753.925	89.59
754.106	88.65
754.286	89.02
754.466	88.4
754.646	89
754.826	87.68
755.006	87.01
755.187	87.3
755.367	88.96
755.547	88.93
755.727	89.9
755.907	89.89
756.087	90.2
756.267	88.67
756.447	88.86
756.627	86.42
756.807	88.16
756.987	86.27
757.167	87.24
757.346	86.54
757.526	87
757.706	87.6
757.886	88.86
758.066	89.83
758.246	92.49
758.425	93.02
758.605	90.36
758.785	90.62
758.965	89.09
759.144	86.12
759.324	86.48
759.504	87.34
759.683	87.12
759.863	85.24
760.043	84.01
760.222	83.65
760.402	84
760.581	83.46
760.761	86.81
760.94	87.13
761.12	89.93
761.299	90.21
761.479	89.79
761.658	86.75
761.838	85.21
762.017	83.68
762.197	83.92
762.376	84.7
762.555	87.22
762.735	90.53
762.914	88.77
763.093	87.46
763.273	86.74
763.452	85.29
763.631	83.38
763.81	83.89
763.99	84.84
764.169	85.28
764.348	83.68
764.527	83.85
764.706	84.9
764.885	84.43
765.064	82.86
765.243	84.51
765.423	85.78
765.602	85.49
765.781	83.08
765.96	82.65
766.139	82.35
766.318	82.5
766.497	82.21
766.676	85.1
766.854	88.5
767.033	88.93
767.212	87.42
767.391	87.35
767.57	88.16
767.749	86.56
767.928	86.8
768.106	86.28
768.285	84.33
768.464	83.42
768.643	81.51
768.821	81.35
769	83
769.179	83.17
769.357	82.03
769.536	82.43
769.715	82.4
769.893	82.94
770.072	82.75
770.25	83.52
770.429	86.04
770.607	83.84
770.786	82.61
770.964	84.23
771.143	82.22
771.321	81.25
771.5	82.69
771.678	80.99
771.857	78.52
772.035	78.64
772.213	76.52
772.392	73.94
772.57	75.89
772.748	79.2
772.927	79.12
773.105	80.2
773.283	81.93
773.461	82.06
773.64	80.59
773.818	80.06
773.996	81.55
774.174	81.34
774.352	79.04
774.531	76.25
774.709	79.65
774.887	75.25
775.065	75.23
775.243	77.63
775.421	80.29
775.599	80.52
775.777	81.11
775.955	79.03
776.133	76.58
776.311	75.94
776.489	72.12
776.667	72.97
776.844	74.53
777.022	75.37
777.2	76.75
777.378	79.45
777.556	80.78
777.734	82.74
777.911	84.17
778.089	81.85
778.267	80.87
778.445	79.05
778.622	77.84
778.8	77.11
778.978	78.44
779.155	77.21
779.333	77.64
779.511	78.17
779.688	80.12
779.866	77.06
780.043	73.76
780.221	75.43
780.398	72.44
780.576	72.72
780.753	75.11
780.931	76.5
781.108	76.4
781.286	79.56
781.463	74.08
781.64	71.02
781.818	73.13
781.995	72.61
782.172	69.81
782.35	73.26
782.527	77.1
782.704	75.35
782.882	74.61
783.059	76.7
783.236	79.66
783.413	81.67
783.59	83.09
783.768	82.5
783.945	82.04
784.122	78.67
784.299	74.83
784.476	73.41
784.653	70.78
784.83	68.58
785.007	64.75
785.184	66.55
785.361	66.2
785.538	73.03
785.715	77.25
785.892	79.13
786.069	78
786.246	80.57
786.423	77.29
786.6	73.98
786.776	75.52
786.953	72.87
787.13	73.99
787.307	75.39
787.484	76.9
787.66	72.33
787.837	74.18
788.014	69.41
788.191	66.76
788.367	62.06
788.544	68.03
788.721	67.78
788.897	71.97
789.074	70.25
789.25	70.6
789.427	71.39
789.603	71.78
789.78	70.84
789.956	72.55
790.133	72.88
790.309	72.09
790.486	75.54
790.662	74.56
790.839	74.52
791.015	79.33
791.192	74.63
791.368	76.76
791.544	74.84
791.721	75.37
791.897	73.41
792.073	72.18
792.249	62.67
792.426	64.54
792.602	67.43
792.778	67.31
792.954	67.69
793.13	67.24
793.307	61.28
793.483	50.97
793.659	48.98
793.835	56.04
794.011	59.61
794.187	63.39
794.363	64.74
794.539	65.95
794.715	56.73
794.891	57.03
795.067	55.88
795.243	63.1
795.419	61.95
795.595	63.67
795.771	62.53
795.947	67.67
796.122	65.49
796.298	67.12
796.474	69.59
796.65	70.64
796.826	63.95
797.001	64.49
797.177	64.19
797.353	66.24
797.529	71.66
797.704	74.5
797.88	69
798.056	63.08
798.231	60.53
798.407	60.9
798.582	63.7
798.758	75.39
798.934	83.02
799.109	80.22
799.285	72.09
799.46	74.9
799.636	70.66
799.811	68.22
799.986	72.17
800.162	72.94
800.337	70.12
800.513	64.64
800.688	65.84
800.863	73.5
801.039	71.17
801.214	70.64
801.389	79.48
801.565	77.12
801.74	59.07
801.915	66.08
802.09	64.78
802.265	65.54
802.441	63.78
802.616	70.91
802.791	69.46
802.966	67.79
803.141	65.16
803.316	58.08
803.491	63.34
803.666	62.12
803.841	62.34
804.016	57.83
804.191	66.04
804.366	59.51
804.541	56.28
804.716	50.54
804.891	46.57
805.066	55.24
805.241	53.81
805.416	56.91
805.591	63.58
805.765	73.82
805.94	70.18
806.115	69.39
806.29	63.4
806.464	60.22
806.639	53.59
806.814	46.72
806.989	45.11
807.163	60.17
807.338	61.47
807.512	50.38
807.687	42.74
807.862	54.39
808.036	48.1
808.211	50.32
808.385	63.59
808.56	75.68
808.734	79.33
808.909	75.77
809.083	67.01
809.258	69.59
809.432	71.2
809.606	52.64
809.781	56.96
809.955	64.97
810.13	65.85
810.304	62.66
810.478	67.3
810.652	74.98
810.827	73.63
811.001	69.79
811.175	62.83
811.349	58.65
811.524	48.25
811.698	34.41
811.872	38.78
812.046	52
812.22	64.65
812.394	65.63
812.568	73.61
812.742	64.54
812.916	53.35
813.09	45.58
813.264	40.6
813.438	52.1
813.612	55.08
813.786	58.72
813.96	61.1
814.134	66.95
814.308	72.04
814.482	69.34
814.656	62.88
814.83	71.82
815.003	72.93
815.177	61.21
815.351	64.3
815.525	72.33
815.698	68.89
815.872	57.37
816.046	50.21
816.219	58.43
816.393	65.53
816.567	64.85
816.74	71.12
816.914	78.82
817.088	76.65
817.261	63.08
817.435	56.03
817.608	50.83
817.782	41.85
817.955	33.67
818.129	34.85
818.302	42.8
818.475	53.4
818.649	58.25
818.822	52.98
818.996	65.36
819.169	57.72
819.342	47.58
819.516	59.62
819.689	58.62
819.862	50.27
820.035	42.27
820.209	43.88
820.382	44.54
820.555	46.96
820.728	39.77
820.901	41.2
821.075	42
821.248	41.17
821.421	37.41
821.594	40.4
821.767	60.85
821.94	72.64
822.113	44.98
822.286	43.46
822.459	57.24
822.632	47.02
822.805	31.58
822.978	35.57
823.151	37.5
823.324	16.12
823.496	7.16
823.669	3.05
823.842	9.22
824.015	-5.95
824.188	0.62
824.361	-1.82
824.533	-7.22
824.706	11.41
824.879	12.56
825.051	25.95
825.224	33.41
825.397	43.86
825.569	19.88
825.742	62.08
825.915	70.3
826.087	85.17
826.26	65.72
826.432	68.29
826.605	57.62
826.777	35.55
826.95	25.23
827.122	9.94
827.295	6.88
827.467	2.6
827.64	-33.86
827.812	-31.62
827.984	-9.61
828.157	-6.74
828.329	-54.91
828.501	-17.5
828.674	4.82
828.846	-7.79
829.018	11.79
829.19	10.74
829.363	24.74
829.535	3.46
829.707	15.72
829.879	-11.2
830.051	-4.01
830.223	-18.74
830.395	-35.34
830.568	-38.35
830.74	-27.93
830.912	9.53
831.084	3.52
831.256	8.31
831.428	-10.1
831.6	-30.45
831.772	-74.79
831.943	-78.31
832.115	-34.1
832.287	2.52
832.459	26.3
832.631	47.23
832.803	77.97
832.975	93.62
833.146	77.68
833.318	81.77
833.49	77.33
833.662	55.56
833.833	24.23
834.005	22.42
834.177	22.67
834.348	5.33
834.52	-15.71
834.692	-3.96
834.863	-13.79
835.035	-17.72
835.206	-32.21
835.378	-6.53
835.549	-31
835.721	-17.23
835.892	-19.05
836.064	-10.4
836.235	-4.05
836.407	4.3
836.578	-41.4
836.749	-35.41
836.921	-86.35
837.092	-104.4
837.264	-71.69
837.435	-67.85
837.606	-27.69
837.777	25.13
837.949	35.08
838.12	36.84
838.291	46.97
838.462	45.83
838.633	6.17
838.805	14.46
838.976	23.25
839.147	-5.75
839.318	-52.76
839.489	-98.23
839.66	-97.84
839.831	-51.31
840.002	-37.56
840.173	-44.22
840.344	67.68
840.515	86.63
840.686	-25.25
840.857	-20.56
841.028	-12.65
841.199	-89.96
841.369	-102.19
841.54	-73.47
841.711	-29.98
841.882	6.68
842.053	9.79
842.223	2.71
842.394	10.27
842.565	-0.36
842.736	0.08
842.906	0.81
843.077	22.3
843.248	46.91
843.418	47.13
843.589	21.97
843.759	86.22
843.93	70.54
844.101	29.37
844.271	32.49
844.442	49.17
844.612	52.41
844.783	20.7
844.953	-4.8
845.123	12.9
845.294	3.96
845.464	-210
845.635	-64.87
845.805	20.5
845.975	12.25
846.146	-31.02
846.316	-16.09
846.486	-4.81
846.656	18.83
846.827	7.59
846.997	-3.01
847.167	5.45
847.337	0.8
847.507	-54.37
847.677	-41.12
847.848	29.07
848.018	37.41
848.188	51.29
848.358	39.91
848.528	16.8
848.698	-24.03
848.868	-129.31
849.038	-268.17
849.208	-109.66
849.378	-37.16
849.548	-22.52
849.718	-0.74
849.887	27.96
850.057	-9.67
850.227	-49.65
850.397	-80.54
850.567	-189.49
850.737	-480.65
850.906	-1051.88
851.076	-767.58
851.246	-212.83
851.415	14.81
851.585	3.69
851.755	-10.12
851.924	15.59
852.094	-0.22
852.264	-82.63
852.433	-846.63
852.603	-188.24
852.772	-85.49
852.942	-75.56
853.111	-61.17
853.281	-4.39
853.45	27.85
853.62	-73.95
853.789	-68.74
853.959	-37.5
854.128	-62.42
854.297	-97.63
854.467	-127.99
854.636	-151.1
854.805	-84.5
854.975	-118.01
855.144	-204.25
855.313	3.15
855.482	-358.03
855.652	-160.04
855.821	-133.87
855.99	8
856.159	14.49
856.328	30.73
856.497	5.33
856.667	1.18
856.836	6.95
857.005	-38.15
857.174	-67.6
857.343	-112.23
857.512	-33.65
857.681	-107.73
857.85	-175.18
858.019	-91.43
858.188	-46.49
858.356	-97.17
858.525	-142.75
858.694	-71.44
858.863	-131.84
859.032	-135.21
859.201	-166.21
859.369	-96.05
859.538	-96.7
859.707	-83.77
859.876	-50.37
860.044	-47.03
860.213	21.92
860.382	9.4
860.55	17.46
860.719	45.33
860.888	78.06
861.056	40.55
861.225	34.51
861.393	74.18
861.562	38.16
861.73	-50.1
861.899	-212.83
862.067	-2291.38
862.236	-127.61
862.404	-266.71
862.572	-154.5
862.741	-19.27
862.909	0.8
863.078	-108.65
863.246	-73.13
863.414	-54.81
863.582	-41.36
863.751	-62.43
863.919	-25.33
864.087	63.27
864.255	53.98
864.424	-159.56
864.592	19.45
864.76	-22.6
864.928	-121.2
865.096	-160.99
865.264	-96.63
865.432	-1455.68
865.6	21.75
865.768	-111.82
865.936	-98.46
866.104	-105.23
866.272	-103.59
866.44	-392.72
866.608	631.79
866.776	319.21
866.944	2961.63
867.112	-587.92
867.28	-297.13
867.448	-142.06
867.615	-49.46
867.783	-31.23
867.951	-33.32
868.119	21.87
868.286	16.92
868.454	-105.82
868.622	-127.09
868.789	-203.57
868.957	-1875
869.125	-1732.89
869.292	-163.27
869.46	-222.66
869.627	8.02
869.795	-7.74
869.963	2.07
870.13	49.28
870.298	42.26
870.465	-83.31
870.632	-109.27
870.8	-58.57
870.967	-113.83
871.135	-130.33
871.302	-58.61
871.469	-53.43
871.637	-89.15
871.804	-71.2
871.971	-107.02
872.139	-403.95
872.306	-32.81
872.473	-43.78
872.64	-218.24
872.807	30.68
872.975	89.86
873.142	-9.27
873.309	895.95
873.476	117.82
873.643	159.19
873.81	102.66
873.977	89.39
874.144	92.91
874.311	-48.35
874.478	-133.98
874.645	-159.6
874.812	-100.46
874.979	-60.65
875.146	-86.08
875.313	-101.98
875.48	-23.09
875.647	-38.93
875.813	-66.33
875.98	-33.69
876.147	-54.22
876.314	-128.09
876.481	1077.27
876.647	-1619.66
876.814	568.13
876.981	-152.88
877.147	-78.74
877.314	3.21
877.481	43.46
877.647	44.73
877.814	19.24
877.98	2.13
878.147	16.13
878.314	65.07
878.48	-13.99
878.647	-3.88
878.813	43.28
878.979	33.63
879.146	-28.02
879.312	-8.92
879.479	-40.61
879.645	-169.47
879.811	-408.36
879.978	-1022.52
880.144	-275.14
880.31	-150.47
880.477	-406.23
880.643	-450.53
880.809	-108.14
880.975	-68.63
881.142	-533.18
881.308	4.98
881.474	78.15
881.64	25.34
881.806	-85.27
881.972	-49.86
882.138	-58.64
882.304	-133.57
882.47	-278.12
882.636	-952.87
882.802	-294.75
882.968	-94.8
883.134	-40.19
883.3	-18.37
883.466	33.17
883.632	74.78
883.798	36.38
883.964	38.98
884.129	20.51
884.295	72.21
884.461	12.99
884.627	-1.56
884.793	-24.59
884.958	13.65
885.124	-115.76
885.29	-211.17
885.455	-369.17
885.621	-66.24
885.787	-136.89
885.952	-79.64
886.118	-80.06
886.283	-32.54
886.449	-138.56
886.614	-148.13
886.78	-209.42
886.945	779.51
887.111	-626.88
887.276	-565.06
887.442	-925.91
887.607	-351.65
887.773	-237.42
887.938	-187.6
888.103	-250.31
888.269	-110.69
888.434	-174.32
888.599	-126.9
888.764	-34.86
888.93	2.11
889.095	-26.69
889.26	-88.16
889.425	-42.94
889.59	-10.68
889.756	-23.3
889.921	-2.19
890.086	47.16
890.251	39.78
890.416	-119.11
890.581	-1105.65
890.746	175.18
890.911	348.73
891.076	189.19
891.241	-285.45
891.406	24.77
891.571	-79.98
891.736	-332.34
891.901	-500.44
892.065	621.43
892.23	134.2
892.395	165.26
892.56	216.33
892.725	17.58
892.889	-186.59
893.054	-106.47
893.219	-27.3
893.384	-1.42
893.548	-78.13
893.713	-95.73
893.878	-60.98
