Data from Ofra_PS_T2_1A_9CX05_Reflection_3.txt Node
Date: Wed Jul 21 18:18:12 EDT 2021
User: Adam
Spectrometer: FLMT01687
Trigger mode: 0
Integration Time (sec): 1.100000E0
Scans to average: 2
Electric dark correction enabled: true
Nonlinearity correction enabled: false
Boxcar width: 2
XAxis mode: Wavelengths
Number of Pixels in Spectrum: 3648
>>>>>Begin Spectral Data<<<<<
179.494	422
179.716	512
179.937	442.84
180.158	386.37
180.38	517.81
180.601	227.35
180.823	50
181.044	-31.04
181.265	196.69
181.486	95.84
181.708	90.88
181.929	484.69
182.15	-313.38
182.372	93.07
182.593	15.51
182.814	30.9
183.035	88.61
183.257	49.56
183.478	-28.83
183.699	46.63
183.92	38.68
184.141	8.47
184.363	-14.71
184.584	27.94
184.805	17.51
185.026	35.88
185.247	46.02
185.468	32.41
185.689	10.4
185.91	11.13
186.132	0.78
186.353	6.35
186.574	59.88
186.795	82.97
187.016	48.05
187.237	27.99
187.458	-6.17
187.679	-53.67
187.9	-24.68
188.121	-6.72
188.342	12.91
188.563	55.13
188.784	86.91
189.005	45.35
189.226	82.67
189.447	70.37
189.667	8.5
189.888	-106.65
190.109	-518.83
190.33	-395.16
190.551	-794.25
190.772	-170.82
190.993	-90.33
191.214	-45.31
191.434	-31.17
191.655	48.16
191.876	27.62
192.097	-16.35
192.318	-36.37
192.538	-52.93
192.759	-94.46
192.98	-24.18
193.201	-5.72
193.421	3.52
193.642	11.07
193.863	10.01
194.083	-4.13
194.304	-10.52
194.525	-11.63
194.745	-12.41
194.966	-24.4
195.187	-33.23
195.407	-48.67
195.628	-121.94
195.848	-131.94
196.069	-113.85
196.29	-67.63
196.51	-72.8
196.731	-38.53
196.951	-17.6
197.172	-30.5
197.392	-42.08
197.613	-43.14
197.833	-77.81
198.054	-77.57
198.274	-37.87
198.495	-57.65
198.715	-17.9
198.936	-43.34
199.156	-13.39
199.377	-77.81
199.597	-79.47
199.817	-96.03
200.038	-34.55
200.258	-108.54
200.479	-40.68
200.699	-55.74
200.919	5.35
201.14	-22.92
201.36	-60.82
201.58	-11.2
201.801	33.43
202.021	-7.63
202.241	-1.24
202.461	9.03
202.682	-81.72
202.902	-173.6
203.122	-78.82
203.342	-65.88
203.563	-6.68
203.783	21.75
204.003	-5.8
204.223	-28.2
204.443	27.3
204.663	-1.03
204.884	24.63
205.104	54.09
205.324	72.58
205.544	44.61
205.764	33.69
205.984	26.14
206.204	42.53
206.424	39.5
206.644	20.29
206.864	46.17
207.084	35.09
207.304	47.5
207.525	-32.97
207.745	8.91
207.964	32.94
208.184	-8.16
208.404	-62.5
208.624	-43.35
208.844	-22.69
209.064	-235.83
209.284	-285.36
209.504	-127.86
209.724	-24.76
209.944	-14.2
210.164	22.45
210.384	47.02
210.604	54.1
210.823	21.12
211.043	-7.14
211.263	-4.37
211.483	-18.66
211.703	-74.47
211.922	-66.87
212.142	-5.16
212.362	-8.19
212.582	-12.2
212.801	17.04
213.021	8.52
213.241	-13.12
213.461	-47.84
213.68	-65.07
213.9	-48.18
214.12	-30.4
214.339	-85.39
214.559	-63.26
214.779	-13.6
214.998	-30.1
215.218	-86.78
215.438	-33.9
215.657	-29.99
215.877	-22.97
216.096	7.46
216.316	24.82
216.535	22.23
216.755	24.07
216.974	-34.03
217.194	-57.87
217.413	-73.52
217.633	-106.72
217.852	-218.91
218.072	-94.79
218.291	-60.99
218.511	-28.83
218.73	-35.73
218.95	-18.64
219.169	-24.6
219.389	-57.3
219.608	-34.94
219.827	-31.93
220.047	-32.59
220.266	-11.88
220.485	0.56
220.705	5.88
220.924	-15.13
221.143	13.63
221.363	-1.03
221.582	8.31
221.801	-2.96
222.021	28.8
222.24	2.03
222.459	46.9
222.678	5.69
222.897	-4.35
223.117	-59.88
223.336	-31.41
223.555	-22.67
223.774	22.03
223.993	15.03
224.213	94.17
224.432	65.47
224.651	58.17
224.87	41.57
225.089	65.3
225.308	42.73
225.527	47.7
225.746	50.55
225.965	30.23
226.184	-14.27
226.404	1.33
226.623	-18.59
226.842	-4.25
227.061	26.07
227.28	33.78
227.499	26.33
227.718	30.82
227.936	14.98
228.155	2.79
228.374	-5.94
228.593	10.13
228.812	13.26
229.031	24.62
229.25	-14.72
229.469	-14.61
229.688	-27.71
229.907	0.65
230.125	0.88
230.344	21.91
230.563	37.01
230.782	42.3
231.001	-8.41
231.22	-6.34
231.438	24.43
231.657	19.15
231.876	27.38
232.095	56.42
232.313	55.58
232.532	46.21
232.751	16.68
232.969	0.25
233.188	-55.68
233.407	22.97
233.625	6.3
233.844	7.88
234.063	6.16
234.281	30.96
234.5	17.52
234.719	11.89
234.937	33.32
235.156	37.94
235.374	29.74
235.593	9.81
235.811	12.02
236.03	-9.82
236.249	-42.68
236.467	-43.86
236.686	-7.76
236.904	4.04
237.123	-18.2
237.341	-17.9
237.559	-10.04
237.778	-25.45
237.996	-49.46
238.215	-5.57
238.433	11.02
238.652	12.08
238.87	-11.15
239.088	1.6
239.307	2.95
239.525	-3.27
239.743	-36.07
239.962	-12.46
240.18	-32.43
240.398	-70.26
240.617	-62.73
240.835	-35.36
241.053	-29.5
241.271	10.8
241.49	32.6
241.708	13.63
241.926	-27.41
242.144	-29.9
242.363	-78.35
242.581	-130.55
242.799	-97.97
243.017	-50.77
243.235	-51.94
243.453	-22.1
243.672	-13.22
243.89	-1.86
244.108	-0.19
244.326	9.98
244.544	5.38
244.762	4.88
244.98	-1.32
245.198	-4.81
245.416	-33.32
245.634	-21.09
245.852	-37.48
246.07	-32.82
246.288	-16.58
246.506	-25.08
246.724	-24.92
246.942	-1.24
247.16	18.52
247.378	21.31
247.596	29.15
247.814	33.25
248.032	17.43
248.25	15.06
248.468	17.34
248.685	44.25
248.903	40.06
249.121	32.62
249.339	14.02
249.557	4.95
249.775	25.93
249.992	-26.4
250.21	-17.27
250.428	-7.86
250.646	-41.54
250.863	-85.72
251.081	-45.65
251.299	-32.71
251.517	-26.19
251.734	0.65
251.952	-1.53
252.17	1.14
252.387	-1.86
252.605	-16.72
252.823	-11.53
253.04	11.36
253.258	25.98
253.475	22.42
253.693	24.27
253.911	33.38
254.128	31.24
254.346	23.02
254.563	7.68
254.781	2.88
254.998	-20.6
255.216	-48.78
255.433	-45.81
255.651	-0.05
255.868	40.97
256.086	50.23
256.303	34.7
256.521	29.44
256.738	2.84
256.956	-37.98
257.173	-63.56
257.39	-44.9
257.608	-55.65
257.825	34.99
258.043	53.24
258.26	51.75
258.477	68.62
258.695	62.78
258.912	-27.71
259.129	-2.36
259.346	-22.87
259.564	-58.87
259.781	-61.49
259.998	9.02
260.216	35.31
260.433	63.28
260.65	68.85
260.867	82.12
261.084	61.15
261.302	36.68
261.519	37.56
261.736	-4.83
261.953	-37.19
262.17	-18.23
262.387	-31.27
262.604	-50.73
262.822	-29.49
263.039	-5.46
263.256	-22.72
263.473	3.03
263.69	9.04
263.907	34.71
264.124	27.34
264.341	25.25
264.558	15.66
264.775	15.86
264.992	6.47
265.209	29.89
265.426	45.99
265.643	52.56
265.86	71.76
266.077	59.17
266.294	32.76
266.51	-9.95
266.727	-25.42
266.944	-32.68
267.161	-27.12
267.378	-32.24
267.595	9.19
267.812	-15.84
268.028	-44
268.245	-26.68
268.462	-24.28
268.679	-35.96
268.896	14.83
269.112	27.2
269.329	18.07
269.546	21.97
269.763	12.91
269.979	-2.86
270.196	-6.16
270.413	-30.76
270.629	-49.86
270.846	-52.53
271.063	-49.86
271.279	-62.02
271.496	-57.13
271.712	-28.01
271.929	-18.68
272.146	-1.91
272.362	28.32
272.579	43.64
272.795	53.95
273.012	61.48
273.228	41.17
273.445	12.68
273.661	2.86
273.878	-37.65
274.094	-52.07
274.311	-71.39
274.527	-21.05
274.744	-9.35
274.96	3.35
275.177	6.25
275.393	25.1
275.609	26.99
275.826	42.54
276.042	23.27
276.259	26.65
276.475	31.14
276.691	22.28
276.908	-8.31
277.124	13.07
277.34	5.83
277.557	-16.99
277.773	-16.94
277.989	-7.11
278.205	-10.23
278.422	6.69
278.638	19.03
278.854	41.6
279.07	46.78
279.286	37.13
279.503	12.12
279.719	-1.18
279.935	-34.65
280.151	-43.11
280.367	-9.46
280.583	-16.96
280.799	-5.04
281.016	-22.75
281.232	4.09
281.448	-20.08
281.664	16.82
281.88	-13.68
282.096	13.27
282.312	25.04
282.528	65.04
282.744	66.77
282.96	56.97
283.176	42.04
283.392	28.34
283.608	11.61
283.824	-9.43
284.04	9.73
284.256	6.91
284.471	-3.01
284.687	-8.1
284.903	14.94
285.119	14.24
285.335	2.78
285.551	-5.55
285.767	-14.89
285.982	-24.34
286.198	-33.4
286.414	10.68
286.63	26.44
286.846	53.85
287.061	43.17
287.277	52.76
287.493	36.21
287.709	48.15
287.924	30.04
288.14	46.81
288.356	41.44
288.571	51.3
288.787	28.88
289.003	27.44
289.218	30.32
289.434	-0.03
289.65	-0.03
289.865	-1.26
290.081	23.32
290.296	9.41
290.512	16.2
290.727	-10.76
290.943	-9.01
291.159	-25.83
291.374	-18.44
291.59	-25.5
291.805	-5.24
292.021	1.39
292.236	13.21
292.451	9.47
292.667	20.38
292.882	33.43
293.098	30.38
293.313	15.98
293.529	-3.3
293.744	-12.49
293.959	-22.69
294.175	-25
294.39	-0.02
294.605	15.88
294.821	35.92
295.036	29.92
295.251	28.58
295.467	8.26
295.682	-1.33
295.897	-52.89
296.112	-55.58
296.328	-27.5
296.543	-33.16
296.758	-39.88
296.973	-8.83
297.188	13.33
297.404	-18.7
297.619	-36.13
297.834	-44.82
298.049	-65.63
298.264	-80.64
298.479	-28.91
298.694	-14.41
298.909	8.71
299.125	21.68
299.34	31.97
299.555	23.1
299.77	32.87
299.985	-3.6
300.2	-41.56
300.415	-63.8
300.63	-35.03
300.845	-47.1
301.06	-45.59
301.275	-17.46
301.49	3.84
301.704	-9.76
301.919	-15.82
302.134	-22.44
302.349	-24.51
302.564	-79.77
302.779	-99.45
302.994	-62.15
303.209	-12.99
303.423	-22.5
303.638	36.18
303.853	19.83
304.068	3.3
304.283	-4.33
304.497	7.99
304.712	1.33
304.927	-7.45
305.142	-1.12
305.356	10.51
305.571	1.27
305.786	-1.36
306	-11.47
306.215	-12.68
306.43	-31.68
306.644	-40.92
306.859	-22.47
307.074	2.68
307.288	-32.66
307.503	-64.13
307.717	-36.3
307.932	-36.75
308.147	-32.45
308.361	-1.11
308.576	12.69
308.79	-27.55
309.005	-35.37
309.219	-26.9
309.434	-36.26
309.648	-32.4
309.863	-6
310.077	4.73
310.292	-4.72
310.506	0.14
310.72	9.07
310.935	18.92
311.149	9.3
311.364	23.66
311.578	27.9
311.792	18.26
312.007	14.02
312.221	5.07
312.435	11.2
312.649	7.32
312.864	3.23
313.078	14.42
313.292	45.88
313.507	23.77
313.721	16.62
313.935	25.54
314.149	19.9
314.363	16.75
314.578	15.03
314.792	11.23
315.006	-2.76
315.22	8.99
315.434	15.61
315.648	17.9
315.862	30.72
316.077	33.48
316.291	7.32
316.505	2.87
316.719	2.55
316.933	-23.61
317.147	-1.41
317.361	-35.15
317.575	-76.89
317.789	-121.73
318.003	-184.27
318.217	-140.61
318.431	-35.84
318.645	29.64
318.859	37.24
319.073	62.93
319.287	42.64
319.5	9.01
319.714	-34.48
319.928	-47.23
320.142	-80.5
320.356	-39.28
320.57	21.01
320.784	29.17
320.997	-3.46
321.211	-14.96
321.425	-50.9
321.639	-73.07
321.853	-28.86
322.066	-6.5
322.28	-0.85
322.494	4.31
322.707	13.58
322.921	9.75
323.135	19.01
323.349	27.95
323.562	5.78
323.776	-10.02
323.989	-18.19
324.203	-58.29
324.417	-70.47
324.63	-69.81
324.844	-73.48
325.057	-68.49
325.271	-37.07
325.485	-2.75
325.698	15.07
325.912	42.02
326.125	26.26
326.339	23.13
326.552	3.94
326.766	15.21
326.979	13.52
327.193	36.92
327.406	24.03
327.619	19.49
327.833	24.66
328.046	-8.05
328.26	-28.99
328.473	-10.56
328.686	-30.01
328.9	-49.25
329.113	-23.65
329.326	-50.95
329.54	-30.73
329.753	-27.56
329.966	-40.67
330.179	-49.27
330.393	-17.59
330.606	-18.21
330.819	-6.8
331.032	7.97
331.246	12.95
331.459	28.89
331.672	23.12
331.885	13.88
332.098	-0.94
332.311	-17.34
332.525	-56.83
332.738	-58.96
332.951	-19.66
333.164	5.76
333.377	16.81
333.59	29.74
333.803	33.92
334.016	16.23
334.229	16.11
334.442	21.73
334.655	36.32
334.868	52.98
335.081	52.47
335.294	37.74
335.507	31.82
335.72	19.48
335.933	-1.74
336.146	-1.55
336.359	-2.64
336.572	-22.61
336.785	-53
336.997	-50.26
337.21	-26.58
337.423	-36.46
337.636	-30.28
337.849	-10.72
338.062	-17.59
338.274	-14.75
338.487	-22.37
338.7	-19.77
338.913	-46.6
339.125	-52.23
339.338	-110.3
339.551	-76.11
339.763	-45.7
339.976	-16.89
340.189	-11.22
340.402	-1.17
340.614	-6.08
340.827	-14.09
341.039	-44.69
341.252	-28.14
341.465	-13.51
341.677	-14.86
341.89	-61.5
342.102	-13.4
342.315	-24.91
342.527	-53.38
342.74	-54.56
342.952	-13.5
343.165	-31.13
343.377	-17.71
343.59	-10.65
343.802	8.76
344.015	15.56
344.227	39.45
344.44	34.53
344.652	33.73
344.864	19.89
345.077	25.78
345.289	15.71
345.502	12.53
345.714	8.77
345.926	11.23
346.139	5.89
346.351	8.28
346.563	25.61
346.775	33.33
346.988	29.31
347.2	20.52
347.412	-11.05
347.624	-37.89
347.837	-55.71
348.049	-42.35
348.261	-20.75
348.473	-5.81
348.685	-9.29
348.897	-8.41
349.11	-19.39
349.322	-49.39
349.534	-39.75
349.746	-37.92
349.958	-24.94
350.17	-29.28
350.382	-3.66
350.594	-10.78
350.806	12.1
351.018	6.64
351.23	1.38
351.442	-28.7
351.654	-7.85
351.866	-26.07
352.078	-25.77
352.29	-14.8
352.502	0.25
352.714	9.2
352.926	3.38
353.138	-0.64
353.35	-4.28
353.561	-5.57
353.773	-29.57
353.985	-16.2
354.197	-26.43
354.409	-31.23
354.621	-24.68
354.832	-12.59
355.044	-18.66
355.256	-15.89
355.468	0.47
355.679	-9.51
355.891	-9.58
356.103	-25.24
356.314	-12.29
356.526	-10
356.738	0.15
356.949	4.57
357.161	31.96
357.373	27.85
357.584	20.02
357.796	21.53
358.008	19.38
358.219	21.88
358.431	22.49
358.642	12.43
358.854	13.08
359.065	-3.98
359.277	-29.18
359.488	-42.43
359.7	-53.31
359.911	-51.48
360.123	-30.68
360.334	-46.62
360.546	-56.75
360.757	-47.24
360.969	-41.43
361.18	-42.95
361.391	-6.59
361.603	-8.65
361.814	14.66
362.025	4.26
362.237	-8.04
362.448	-4.99
362.659	9.75
362.871	1.49
363.082	6.53
363.293	13.26
363.504	-6.98
363.716	-19.35
363.927	-25.75
364.138	-50.7
364.349	-56.87
364.56	-54.82
364.772	-42.96
364.983	-19.15
365.194	-21.98
365.405	-5.74
365.616	9.8
365.827	7.82
366.038	-16.62
366.25	1.27
366.461	-17.8
366.672	-0.37
366.883	8.36
367.094	17.86
367.305	-3.17
367.516	2.64
367.727	-20.83
367.938	-25.33
368.149	-35.98
368.36	-12.67
368.571	-13.53
368.781	-22.25
368.992	-33.06
369.203	-33.93
369.414	-55.58
369.625	-54.72
369.836	-44.54
370.047	-64.18
370.258	-62.48
370.468	-58.98
370.679	-66.63
370.89	-52.21
371.101	-34.55
371.312	-48.28
371.522	-35.04
371.733	-25.51
371.944	-13.01
372.155	5.31
372.365	14.34
372.576	6.55
372.787	12.13
372.997	-10.7
373.208	-27.57
373.419	-2.98
373.629	-24.28
373.84	-43
374.05	-54.97
374.261	-47.18
374.472	-68.35
374.682	-13.6
374.893	-0.17
375.103	25.53
375.314	29.79
375.524	33.37
375.735	24.14
375.945	31.56
376.156	9.98
376.366	2.27
376.577	3.98
376.787	-7.69
376.997	-10.09
377.208	-6.49
377.418	-13.23
377.629	-15.75
377.839	-15.51
378.049	-8.45
378.26	10.6
378.47	20.5
378.68	17.24
378.89	24.94
379.101	8.64
379.311	-16.73
379.521	-55.49
379.732	-57.79
379.942	-50.12
380.152	-55.23
380.362	-32.95
380.572	-22.58
380.783	-19.37
380.993	-15.4
381.203	-5.98
381.413	2.86
381.623	13.45
381.833	18.28
382.043	7.5
382.253	-3.36
382.463	-7.59
382.674	-17.89
382.884	-29.74
383.094	-37.24
383.304	-28.66
383.514	-20.12
383.724	-7.64
383.934	-14.03
384.144	-13.88
384.353	-22.59
384.563	-26.04
384.773	-25.48
384.983	-29.38
385.193	-12.28
385.403	-3.09
385.613	-5.93
385.823	-14
386.033	0.79
386.242	-10.08
386.452	-16.29
386.662	-21.69
386.872	-6.29
387.082	-13.95
387.291	-20.45
387.501	-19.1
387.711	-5.86
387.921	-13.55
388.13	-6.8
388.34	8.02
388.55	3
388.759	-1.55
388.969	0.4
389.179	-6.39
389.388	-10.38
389.598	-4.41
389.807	-10.13
390.017	-15.58
390.227	-12.33
390.436	-12.43
390.646	-10.68
390.855	-4.98
391.065	-4.23
391.274	-5.82
391.484	-7.61
391.693	-6.68
391.903	-8.7
392.112	0.05
392.322	1.88
392.531	6.04
392.74	4.8
392.95	2.97
393.159	-1.31
393.369	-0.21
393.578	-1.62
393.787	-3.63
393.997	-2.17
394.206	-3.3
394.415	-3.37
394.625	-3.27
394.834	-3.21
395.043	-1.81
395.252	0.5
395.462	2.06
395.671	2.26
395.88	2.92
396.089	2.93
396.298	0.42
396.508	-0.06
396.717	-0.72
396.926	0.06
397.135	-0.97
397.344	-0.42
397.553	0.44
397.762	2.21
397.971	2.44
398.181	2.92
398.39	2.66
398.599	1.97
398.808	1.35
399.017	1.32
399.226	2.45
399.435	3.33
399.644	3.37
399.853	2.52
400.062	2.44
400.27	1.56
400.479	1.08
400.688	0.63
400.897	1.12
401.106	1.11
401.315	1.19
401.524	1.37
401.733	1.67
401.941	2.16
402.15	2.06
402.359	1.87
402.568	2.24
402.777	2.38
402.985	1.8
403.194	1.82
403.403	2.14
403.612	1.64
403.82	1.26
404.029	1.67
404.238	1.75
404.446	1.82
404.655	1.89
404.864	2.09
405.072	1.81
405.281	1.75
405.489	1.49
405.698	1.5
405.906	1.49
406.115	1.5
406.324	1.45
406.532	1.69
406.741	1.91
406.949	1.98
407.158	1.96
407.366	2.05
407.574	1.99
407.783	1.91
407.991	1.76
408.2	1.92
408.408	1.9
408.617	1.77
408.825	1.58
409.033	1.71
409.242	1.68
409.45	1.72
409.658	1.6
409.867	1.8
410.075	1.59
410.283	1.5
410.491	1.4
410.7	1.61
410.908	1.51
411.116	1.79
411.324	1.81
411.533	1.78
411.741	1.86
411.949	1.85
412.157	1.65
412.365	1.66
412.573	1.77
412.781	1.68
412.99	1.6
413.198	1.77
413.406	1.67
413.614	1.69
413.822	1.65
414.03	1.7
414.238	1.4
414.446	1.6
414.654	1.25
414.862	1.42
415.07	1.48
415.278	1.82
415.486	1.55
415.694	1.8
415.902	1.56
416.109	1.46
416.317	1.31
416.525	1.21
416.733	1.22
416.941	1.41
417.149	1.4
417.357	1.49
417.564	1.86
417.772	2.06
417.98	1.93
418.188	1.89
418.395	1.91
418.603	1.98
418.811	1.59
419.019	1.51
419.226	1.77
419.434	1.81
419.642	1.42
419.849	1.62
420.057	1.65
420.265	1.59
420.472	1.32
420.68	1.54
420.887	1.49
421.095	1.51
421.302	1.41
421.51	1.62
421.717	1.71
421.925	1.76
422.132	1.69
422.34	1.5
422.547	1.5
422.755	1.29
422.962	1.25
423.17	1.23
423.377	1.37
423.585	1.29
423.792	1.22
423.999	1.1
424.207	1.11
424.414	1.22
424.621	1.18
424.829	1.26
425.036	1.39
425.243	1.45
425.451	1.3
425.658	1.2
425.865	1.37
426.072	1.46
426.28	1.71
426.487	1.72
426.694	1.85
426.901	1.65
427.108	1.6
427.315	1.27
427.523	1.51
427.73	1.52
427.937	1.58
428.144	1.38
428.351	1.51
428.558	1.57
428.765	1.49
428.972	1.33
429.179	1.42
429.386	1.55
429.593	1.36
429.8	1.24
430.007	1.4
430.214	1.54
430.421	1.35
430.628	1.21
430.835	1.17
431.042	1.17
431.249	1.13
431.456	1.15
431.662	1.22
431.869	1.42
432.076	1.52
432.283	1.57
432.49	1.54
432.697	1.65
432.903	1.49
433.11	1.44
433.317	1.49
433.524	1.7
433.73	1.64
433.937	1.93
434.144	1.93
434.35	1.9
434.557	1.73
434.764	1.71
434.97	1.57
435.177	1.66
435.384	1.57
435.59	1.69
435.797	1.93
436.003	1.95
436.21	1.86
436.416	1.97
436.623	1.95
436.829	2.02
437.036	2.1
437.242	2.14
437.449	2.11
437.655	2.16
437.862	2
438.068	1.97
438.275	2.1
438.481	2.24
438.687	2.18
438.894	2.16
439.1	2.13
439.307	2.19
439.513	2.03
439.719	2.06
439.926	2.11
440.132	2.15
440.338	2.01
440.544	2.08
440.751	1.97
440.957	2.01
441.163	1.95
441.369	2.03
441.575	1.9
441.782	1.96
441.988	1.85
442.194	1.83
442.4	1.84
442.606	2.1
442.812	2.1
443.018	2.22
443.224	2.26
443.431	2.4
443.637	2.15
443.843	2.13
444.049	2.18
444.255	2.22
444.461	2.11
444.667	2.17
444.873	2.3
445.079	2.18
445.284	2.23
445.49	2
445.696	1.97
445.902	1.87
446.108	1.87
446.314	1.79
446.52	1.94
446.726	2.17
446.931	2.18
447.137	2.23
447.343	2.29
447.549	2.23
447.755	2.1
447.96	2.22
448.166	2.19
448.372	2.1
448.578	2.15
448.783	2.17
448.989	2.17
449.195	2.29
449.4	2.4
449.606	2.38
449.812	2.23
450.017	2.24
450.223	2.15
450.428	2.13
450.634	2.26
450.84	2.45
451.045	2.39
451.251	2.35
451.456	2.52
451.662	2.57
451.867	2.63
452.073	2.64
452.278	2.76
452.483	2.74
452.689	2.58
452.894	2.51
453.1	2.5
453.305	2.39
453.51	2.34
453.716	2.34
453.921	2.43
454.127	2.44
454.332	2.46
454.537	2.32
454.742	2.41
454.948	2.33
455.153	2.37
455.358	2.46
455.563	2.68
455.769	2.66
455.974	2.71
456.179	2.55
456.384	2.48
456.589	2.41
456.795	2.26
457	2.18
457.205	2.45
457.41	2.44
457.615	2.42
457.82	2.55
458.025	2.61
458.23	2.45
458.435	2.45
458.64	2.37
458.845	2.47
459.05	2.5
459.255	2.45
459.46	2.56
459.665	2.57
459.87	2.51
460.075	2.49
460.28	2.6
460.485	2.58
460.69	2.57
460.895	2.54
461.099	2.51
461.304	2.62
461.509	2.62
461.714	2.65
461.919	2.77
462.123	2.6
462.328	2.56
462.533	2.48
462.738	2.66
462.942	2.57
463.147	2.73
463.352	2.75
463.556	2.89
463.761	2.79
463.966	2.83
464.17	2.83
464.375	2.7
464.58	2.6
464.784	2.52
464.989	2.44
465.193	2.47
465.398	2.55
465.602	2.63
465.807	2.66
466.011	2.78
466.216	2.82
466.42	2.78
466.625	2.84
466.829	2.99
467.034	2.98
467.238	3.2
467.443	3.18
467.647	3.09
467.851	3.1
468.056	3.14
468.26	2.93
468.464	3.04
468.669	3.18
468.873	3.33
469.077	3.28
469.282	3.46
469.486	3.46
469.69	3.45
469.894	3.22
470.099	3.31
470.303	3.33
470.507	3.25
470.711	3.06
470.915	3.05
471.119	3.01
471.324	2.88
471.528	2.96
471.732	3.09
471.936	3.09
472.14	3.13
472.344	3.24
472.548	3.25
472.752	3.4
472.956	3.66
473.16	3.63
473.364	3.5
473.568	3.56
473.772	3.59
473.976	3.49
474.18	3.5
474.384	3.56
474.588	3.56
474.792	3.45
474.995	3.5
475.199	3.58
475.403	3.66
475.607	3.67
475.811	3.67
476.015	3.63
476.218	3.73
476.422	3.7
476.626	3.74
476.83	3.8
477.033	3.78
477.237	3.63
477.441	3.65
477.644	3.66
477.848	3.74
478.052	3.69
478.255	3.68
478.459	3.69
478.663	3.69
478.866	3.62
479.07	3.7
479.273	3.91
479.477	3.94
479.681	3.98
479.884	4.01
480.088	3.99
480.291	3.89
480.495	3.9
480.698	3.9
480.901	3.91
481.105	4.05
481.308	4.08
481.512	4.07
481.715	4.07
481.919	4.14
482.122	4.07
482.325	4.06
482.529	4.06
482.732	4.11
482.935	4.04
483.138	4.02
483.342	4.12
483.545	4.19
483.748	4.2
483.952	4.26
484.155	4.37
484.358	4.31
484.561	4.3
484.764	4.27
484.967	4.3
485.171	4.35
485.374	4.36
485.577	4.42
485.78	4.42
485.983	4.4
486.186	4.25
486.389	4.22
486.592	4.18
486.795	4.21
486.998	4.21
487.201	4.31
487.404	4.38
487.607	4.48
487.81	4.53
488.013	4.58
488.216	4.51
488.419	4.5
488.622	4.43
488.825	4.35
489.028	4.3
489.231	4.31
489.433	4.2
489.636	4.12
489.839	4.16
490.042	4.12
490.245	4.15
490.447	4.26
490.65	4.3
490.853	4.29
491.056	4.34
491.258	4.34
491.461	4.36
491.664	4.43
491.866	4.39
492.069	4.48
492.272	4.44
492.474	4.45
492.677	4.48
492.879	4.55
493.082	4.64
493.285	4.81
493.487	4.78
493.69	4.7
493.892	4.7
494.095	4.59
494.297	4.5
494.5	4.52
494.702	4.6
494.905	4.64
495.107	4.65
495.309	4.69
495.512	4.74
495.714	4.75
495.917	4.86
496.119	4.9
496.321	4.93
496.524	4.95
496.726	4.97
496.928	4.93
497.13	4.96
497.333	4.96
497.535	5
497.737	5.02
497.939	5.04
498.142	5.09
498.344	5.1
498.546	5.01
498.748	5.04
498.95	5.09
499.152	5.05
499.355	5.09
499.557	5.19
499.759	5.2
499.961	5.16
500.163	5.22
500.365	5.2
500.567	5.27
500.769	5.25
500.971	5.31
501.173	5.22
501.375	5.31
501.577	5.2
501.779	5.16
501.981	5.16
502.183	5.2
502.385	5.12
502.587	5.13
502.788	5.22
502.99	5.23
503.192	5.31
503.394	5.34
503.596	5.39
503.798	5.42
503.999	5.42
504.201	5.41
504.403	5.44
504.605	5.44
504.806	5.38
505.008	5.43
505.21	5.48
505.411	5.42
505.613	5.48
505.815	5.51
506.016	5.5
506.218	5.57
506.42	5.59
506.621	5.63
506.823	5.7
507.024	5.67
507.226	5.54
507.427	5.57
507.629	5.57
507.83	5.54
508.032	5.55
508.233	5.69
508.435	5.74
508.636	5.76
508.838	5.73
509.039	5.75
509.24	5.7
509.442	5.73
509.643	5.68
509.845	5.73
510.046	5.78
510.247	5.83
510.448	5.83
510.65	5.89
510.851	5.96
511.052	5.94
511.254	5.89
511.455	5.96
511.656	5.97
511.857	5.96
512.058	5.98
512.26	5.99
512.461	5.96
512.662	5.99
512.863	5.94
513.064	5.95
513.265	5.94
513.466	5.96
513.667	5.96
513.868	5.98
514.069	6.02
514.27	6.09
514.471	6
514.672	6.01
514.873	6.06
515.074	6.1
515.275	6.04
515.476	6.13
515.677	6.13
515.878	6.22
516.079	6.19
516.28	6.25
516.481	6.33
516.682	6.4
516.882	6.28
517.083	6.23
517.284	6.19
517.485	6.13
517.686	6.04
517.886	6.05
518.087	6.17
518.288	6.22
518.488	6.16
518.689	6.2
518.89	6.2
519.091	6.21
519.291	6.19
519.492	6.29
519.692	6.28
519.893	6.3
520.094	6.22
520.294	6.24
520.495	6.18
520.695	6.27
520.896	6.28
521.096	6.34
521.297	6.32
521.497	6.37
521.698	6.26
521.898	6.29
522.099	6.28
522.299	6.4
522.499	6.36
522.7	6.46
522.9	6.44
523.101	6.48
523.301	6.45
523.501	6.48
523.702	6.41
523.902	6.48
524.102	6.49
524.302	6.42
524.503	6.49
524.703	6.55
524.903	6.55
525.103	6.52
525.304	6.62
525.504	6.6
525.704	6.64
525.904	6.54
526.104	6.54
526.304	6.51
526.504	6.52
526.705	6.49
526.905	6.62
527.105	6.63
527.305	6.61
527.505	6.55
527.705	6.53
527.905	6.5
528.105	6.52
528.305	6.49
528.505	6.54
528.705	6.62
528.905	6.6
529.105	6.59
529.304	6.71
529.504	6.77
529.704	6.75
529.904	6.78
530.104	6.81
530.304	6.79
530.503	6.69
530.703	6.67
530.903	6.67
531.103	6.68
531.303	6.67
531.502	6.74
531.702	6.84
531.902	6.86
532.101	6.85
532.301	6.85
532.501	6.84
532.7	6.78
532.9	6.85
533.1	6.9
533.299	6.93
533.499	7.02
533.698	7.05
533.898	6.99
534.097	6.97
534.297	6.95
534.496	6.93
534.696	6.95
534.895	7.09
535.095	7.16
535.294	7.18
535.494	7.19
535.693	7.23
535.892	7.2
536.092	7.11
536.291	7.16
536.491	7.2
536.69	7.21
536.889	7.15
537.088	7.19
537.288	7.22
537.487	7.28
537.686	7.24
537.886	7.35
538.085	7.38
538.284	7.5
538.483	7.46
538.682	7.57
538.882	7.55
539.081	7.65
539.28	7.53
539.479	7.53
539.678	7.51
539.877	7.61
540.076	7.6
540.275	7.67
540.474	7.77
540.673	7.79
540.872	7.72
541.071	7.76
541.27	7.82
541.469	7.8
541.668	7.85
541.867	7.9
542.066	7.9
542.265	7.95
542.464	7.9
542.663	7.91
542.862	7.99
543.06	8.06
543.259	8.06
543.458	8.16
543.657	8.24
543.856	8.3
544.054	8.28
544.253	8.25
544.452	8.26
544.651	8.25
544.849	8.2
545.048	8.24
545.247	8.31
545.445	8.33
545.644	8.42
545.843	8.39
546.041	8.43
546.24	8.56
546.438	8.67
546.637	8.67
546.836	8.84
547.034	8.88
547.233	8.88
547.431	8.88
547.63	8.94
547.828	8.89
548.027	8.94
548.225	8.92
548.423	8.92
548.622	8.99
548.82	9.04
549.019	9.07
549.217	9.21
549.415	9.28
549.614	9.29
549.812	9.3
550.01	9.29
550.209	9.3
550.407	9.37
550.605	9.42
550.803	9.53
551.002	9.67
551.2	9.74
551.398	9.86
551.596	9.99
551.794	10.11
551.993	10.13
552.191	10.22
552.389	10.31
552.587	10.35
552.785	10.4
552.983	10.51
553.181	10.57
553.379	10.6
553.577	10.6
553.775	10.65
553.973	10.66
554.171	10.7
554.369	10.73
554.567	10.8
554.765	10.88
554.963	11
555.161	10.97
555.359	11.09
555.557	11.24
555.755	11.3
555.952	11.37
556.15	11.49
556.348	11.58
556.546	11.65
556.744	11.7
556.941	11.76
557.139	11.92
557.337	11.9
557.535	11.9
557.732	12
557.93	12.08
558.128	12.11
558.325	12.2
558.523	12.23
558.721	12.31
558.918	12.37
559.116	12.44
559.313	12.47
559.511	12.66
559.708	12.75
559.906	12.87
560.104	12.9
560.301	13.05
560.498	13.09
560.696	13.11
560.893	13.19
561.091	13.38
561.288	13.43
561.486	13.52
561.683	13.63
561.88	13.66
562.078	13.76
562.275	13.79
562.473	13.93
562.67	14.03
562.867	14.16
563.064	14.21
563.262	14.34
563.459	14.41
563.656	14.62
563.853	14.69
564.051	14.76
564.248	14.89
564.445	15
564.642	14.99
564.839	15.16
565.036	15.33
565.234	15.59
565.431	15.65
565.628	15.73
565.825	15.8
566.022	15.88
566.219	15.8
566.416	15.96
566.613	16.04
566.81	16.17
567.007	16.15
567.204	16.24
567.401	16.19
567.598	16.22
567.795	16.17
567.991	16.26
568.188	16.31
568.385	16.49
568.582	16.56
568.779	16.83
568.976	16.97
569.172	17.23
569.369	17.18
569.566	17.34
569.763	17.38
569.96	17.44
570.156	17.27
570.353	17.39
570.55	17.4
570.746	17.45
570.943	17.54
571.14	17.7
571.336	17.89
571.533	17.97
571.729	17.91
571.926	17.99
572.123	18.06
572.319	18.03
572.516	18.11
572.712	18.26
572.909	18.21
573.105	18.31
573.302	18.43
573.498	18.52
573.695	18.55
573.891	18.69
574.087	18.72
574.284	18.69
574.48	18.62
574.677	18.71
574.873	18.74
575.069	18.78
575.266	18.92
575.462	18.99
575.658	19.1
575.854	19.24
576.051	19.36
576.247	19.38
576.443	19.4
576.639	19.41
576.835	19.4
577.032	19.31
577.228	19.43
577.424	19.55
577.62	19.45
577.816	19.48
578.012	19.55
578.208	19.42
578.404	19.47
578.6	19.63
578.796	19.61
578.993	19.63
579.189	19.67
579.384	19.63
579.58	19.52
579.776	19.54
579.972	19.59
580.168	19.56
580.364	19.61
580.56	19.65
580.756	19.66
580.952	19.57
581.148	19.66
581.343	19.65
581.539	19.77
581.735	19.74
581.931	19.79
582.127	19.77
582.322	19.79
582.518	19.76
582.714	19.79
582.909	19.86
583.105	19.88
583.301	19.83
583.496	19.78
583.692	19.77
583.888	19.71
584.083	19.75
584.279	19.76
584.474	19.79
584.67	19.76
584.866	19.75
585.061	19.59
585.257	19.63
585.452	19.65
585.648	19.65
585.843	19.73
586.039	19.75
586.234	19.77
586.429	19.72
586.625	19.77
586.82	19.76
587.015	19.91
587.211	19.85
587.406	19.89
587.601	19.79
587.797	19.73
587.992	19.64
588.187	19.69
588.383	19.69
588.578	19.81
588.773	19.9
588.968	19.94
589.163	19.95
589.359	19.91
589.554	19.93
589.749	19.92
589.944	19.91
590.139	20
590.334	20.03
590.529	20.04
590.724	20.02
590.919	20.17
591.114	20.12
591.309	20.29
591.504	20.29
591.699	20.35
591.894	20.33
592.089	20.37
592.284	20.27
592.479	20.4
592.674	20.37
592.869	20.49
593.064	20.6
593.259	20.77
593.454	20.86
593.648	21
593.843	20.91
594.038	20.98
594.233	20.94
594.428	20.97
594.622	21.04
594.817	21.24
595.012	21.17
595.206	21.26
595.401	21.23
595.596	21.32
595.79	21.4
595.985	21.61
596.18	21.69
596.374	21.81
596.569	21.89
596.763	21.9
596.958	21.9
597.153	22.06
597.347	22.06
597.542	22.09
597.736	22.13
597.931	22.2
598.125	22.21
598.319	22.36
598.514	22.35
598.708	22.46
598.903	22.54
599.097	22.54
599.291	22.54
599.486	22.67
599.68	22.72
599.874	22.83
600.069	22.86
600.263	22.96
600.457	23.05
600.651	23.14
600.846	23.15
601.04	23.22
601.234	23.3
601.428	23.32
601.622	23.29
601.817	23.23
602.011	23.39
602.205	23.38
602.399	23.38
602.593	23.39
602.787	23.5
602.981	23.39
603.175	23.4
603.369	23.36
603.563	23.4
603.757	23.5
603.951	23.59
604.145	23.51
604.339	23.62
604.533	23.51
604.727	23.46
604.921	23.4
605.115	23.42
605.309	23.4
605.502	23.56
605.696	23.47
605.89	23.46
606.084	23.51
606.278	23.46
606.471	23.28
606.665	23.18
606.859	23.07
607.053	23
607.246	22.94
607.44	22.92
607.634	22.9
607.827	22.91
608.021	22.8
608.214	22.75
608.408	22.73
608.602	22.66
608.795	22.58
608.989	22.5
609.182	22.47
609.376	22.42
609.569	22.37
609.763	22.19
609.956	22.12
610.15	21.97
610.343	21.93
610.537	21.87
610.73	21.97
610.923	21.91
611.117	21.92
611.31	21.9
611.504	21.81
611.697	21.67
611.89	21.62
612.083	21.58
612.277	21.56
612.47	21.54
612.663	21.43
612.856	21.36
613.05	21.2
613.243	21.06
613.436	20.96
613.629	20.95
613.822	20.89
614.015	20.8
614.209	20.63
614.402	20.54
614.595	20.47
614.788	20.38
614.981	20.28
615.174	20.25
615.367	20.25
615.56	20.14
615.753	20.07
615.946	20.1
616.139	20.09
616.332	20.1
616.525	20.08
616.718	20.13
616.911	20.09
617.103	20.04
617.296	19.94
617.489	19.95
617.682	19.86
617.875	19.86
618.067	19.79
618.26	19.66
618.453	19.67
618.646	19.69
618.838	19.67
619.031	19.76
619.224	19.84
619.417	19.74
619.609	19.76
619.802	19.64
619.994	19.59
620.187	19.5
620.38	19.44
620.572	19.34
620.765	19.43
620.957	19.31
621.15	19.23
621.342	19.23
621.535	19.22
621.727	19.16
621.92	19.09
622.112	19.06
622.305	19.07
622.497	19
622.69	18.95
622.882	18.99
623.074	19.1
623.267	19.01
623.459	18.93
623.651	18.84
623.844	18.86
624.036	18.75
624.228	18.74
624.42	18.72
624.613	18.83
624.805	18.75
624.997	18.73
625.189	18.71
625.381	18.75
625.574	18.6
625.766	18.55
625.958	18.56
626.15	18.59
626.342	18.51
626.534	18.56
626.726	18.55
626.918	18.57
627.11	18.53
627.302	18.52
627.494	18.46
627.686	18.44
627.878	18.29
628.07	18.25
628.262	18.28
628.454	18.3
628.646	18.33
628.838	18.45
629.029	18.38
629.221	18.36
629.413	18.32
629.605	18.16
629.797	18.03
629.989	18.02
630.18	17.94
630.372	17.86
630.564	17.85
630.755	17.91
630.947	18
631.139	17.9
631.33	17.85
631.522	17.99
631.714	17.97
631.905	17.86
632.097	17.93
632.289	17.99
632.48	17.85
632.672	17.82
632.863	17.8
633.055	17.77
633.246	17.65
633.438	17.58
633.629	17.48
633.821	17.53
634.012	17.46
634.203	17.44
634.395	17.51
634.586	17.55
634.777	17.41
634.969	17.41
635.16	17.46
635.351	17.41
635.543	17.46
635.734	17.48
635.925	17.41
636.117	17.45
636.308	17.51
636.499	17.36
636.69	17.31
636.881	17.39
637.073	17.39
637.264	17.36
637.455	17.44
637.646	17.53
637.837	17.53
638.028	17.45
638.219	17.47
638.41	17.42
638.601	17.38
638.792	17.4
638.983	17.43
639.174	17.32
639.365	17.33
639.556	17.27
639.747	17.19
639.938	17.21
640.129	17.22
640.32	17.17
640.511	17.16
640.701	17.25
640.892	17.16
641.083	17.22
641.274	17.29
641.465	17.38
641.655	17.3
641.846	17.29
642.037	17.16
642.228	16.99
642.418	16.97
642.609	16.94
642.8	16.94
642.99	16.88
643.181	17.01
643.372	16.98
643.562	16.93
643.753	16.85
643.943	16.89
644.134	16.73
644.324	16.63
644.515	16.62
644.705	16.66
644.896	16.7
645.086	16.81
645.277	16.77
645.467	16.77
645.658	16.8
645.848	16.77
646.038	16.74
646.229	16.84
646.419	16.75
646.61	16.69
646.8	16.64
646.99	16.62
647.18	16.51
647.371	16.48
647.561	16.45
647.751	16.42
647.941	16.3
648.132	16.26
648.322	16.29
648.512	16.34
648.702	16.35
648.892	16.4
649.082	16.43
649.272	16.36
649.462	16.24
649.653	16.12
649.843	16.06
650.033	16.08
650.223	16
650.413	15.95
650.603	16.03
650.793	15.98
650.983	15.85
651.172	15.83
651.362	15.77
651.552	15.6
651.742	15.57
651.932	15.55
652.122	15.55
652.312	15.59
652.502	15.6
652.691	15.51
652.881	15.41
653.071	15.34
653.261	15.13
653.45	14.99
653.64	14.89
653.83	14.8
654.019	14.66
654.209	14.62
654.399	14.54
654.588	14.4
654.778	14.23
654.968	14.11
655.157	13.99
655.347	13.9
655.536	13.83
655.726	13.7
655.915	13.59
656.105	13.5
656.294	13.37
656.484	13.27
656.673	13.24
656.863	13.17
657.052	12.92
657.241	12.75
657.431	12.53
657.62	12.32
657.809	11.97
657.999	11.82
658.188	11.62
658.377	11.47
658.567	11.34
658.756	11.26
658.945	11.14
659.134	11.02
659.324	10.88
659.513	10.65
659.702	10.48
659.891	10.33
660.08	10.15
660.269	10.19
660.458	10.11
660.648	10.12
660.837	10.02
661.026	9.97
661.215	9.74
661.404	9.61
661.593	9.48
661.782	9.28
661.971	9.17
662.16	8.96
662.349	8.85
662.538	8.66
662.726	8.64
662.915	8.42
663.104	8.31
663.293	8.23
663.482	8.2
663.671	8.07
663.86	7.96
664.048	7.86
664.237	7.81
664.426	7.57
664.615	7.47
664.803	7.43
664.992	7.3
665.181	7.14
665.369	7.02
665.558	6.94
665.747	6.83
665.935	6.94
666.124	6.93
666.312	6.97
666.501	6.87
666.69	6.78
666.878	6.64
667.067	6.48
667.255	6.53
667.444	6.71
667.632	6.69
667.82	6.74
668.009	6.75
668.197	6.61
668.386	6.47
668.574	6.56
668.762	6.44
668.951	6.31
669.139	6.4
669.327	6.3
669.516	6.29
669.704	6.23
669.892	6.46
670.08	6.3
670.269	6.22
670.457	6.04
670.645	5.9
670.833	5.93
671.021	5.94
671.21	5.99
671.398	6.27
671.586	6.28
671.774	6.08
671.962	6.13
672.15	6.15
672.338	5.9
672.526	5.99
672.714	5.86
672.902	5.86
673.09	5.99
673.278	6.17
673.466	6.19
673.654	6.48
673.842	6.53
674.03	6.4
674.218	6.32
674.405	6.4
674.593	6.27
674.781	6.3
674.969	6.34
675.157	6.47
675.344	6.57
675.532	6.67
675.72	6.74
675.908	6.91
676.095	6.84
676.283	6.86
676.471	7.03
676.658	6.97
676.846	6.93
677.033	7.05
677.221	7.01
677.409	6.83
677.596	6.95
677.784	7.01
677.971	6.99
678.159	7.1
678.346	7.19
678.534	7.28
678.721	7.43
678.909	7.49
679.096	7.61
679.283	7.93
679.471	8.06
679.658	8.12
679.846	8.33
680.033	8.53
680.22	8.45
680.408	8.46
680.595	8.55
680.782	8.62
680.969	8.61
681.157	8.74
681.344	8.84
681.531	8.87
681.718	8.82
681.905	9.04
682.093	9.26
682.28	9.47
682.467	9.81
682.654	9.98
682.841	10.08
683.028	10.23
683.215	10.43
683.402	10.3
683.589	10.56
683.776	10.77
683.963	10.8
684.15	10.99
684.337	11.26
684.524	11.51
684.711	11.78
684.898	11.92
685.085	12.04
685.271	12.49
685.458	12.69
685.645	12.79
685.832	13.22
686.019	13.56
686.205	13.63
686.392	13.89
686.579	14.17
686.766	14.55
686.952	14.91
687.139	15.44
687.326	15.82
687.512	16.11
687.699	16.39
687.886	16.7
688.072	16.88
688.259	17.42
688.445	17.93
688.632	18.2
688.818	18.83
689.005	19.35
689.191	19.55
689.378	20.29
689.564	20.92
689.751	21.21
689.937	21.63
690.124	22.19
690.31	22.33
690.496	22.88
690.683	23.42
690.869	23.88
691.055	24.34
691.242	25.13
691.428	25.63
691.614	26.21
691.8	27.04
691.987	27.84
692.173	28.36
692.359	28.96
692.545	29.45
692.731	29.89
692.918	30.47
693.104	31.01
693.29	31.67
693.476	32.42
693.662	33.28
693.848	33.85
694.034	34.39
694.22	35.07
694.406	35.61
694.592	36.16
694.778	36.7
694.964	37.49
695.15	38.06
695.336	38.68
695.522	39.43
695.708	40.24
695.894	40.78
696.08	41.48
696.265	42.15
696.451	42.63
696.637	43.3
696.823	43.87
697.009	44.42
697.194	45.09
697.38	45.64
697.566	46.16
697.751	46.78
697.937	47.41
698.123	47.89
698.308	48.41
698.494	48.96
698.68	49.39
698.865	50.14
699.051	50.82
699.236	51.09
699.422	51.52
699.607	51.97
699.793	52.17
699.978	52.32
700.164	52.9
700.349	53.52
700.535	54.07
700.72	54.43
700.906	55
701.091	55.75
701.276	56.1
701.462	56.76
701.647	57.36
701.832	57.59
702.018	57.97
702.203	58.07
702.388	58.13
702.573	58.33
702.759	59.1
702.944	59.09
703.129	59.6
703.314	59.84
703.499	59.99
703.684	60.14
703.87	61.11
704.055	61.65
704.24	62.12
704.425	62.88
704.61	63.11
704.795	62.83
704.98	62.8
705.165	62.87
705.35	62.92
705.535	63.16
705.72	63.62
705.905	64.1
706.09	64.5
706.275	64.64
706.459	64.8
706.644	64.62
706.829	64.73
707.014	64.72
707.199	65.14
707.384	65.38
707.568	65.58
707.753	66.03
707.938	66.25
708.123	66.38
708.307	66.44
708.492	67.01
708.677	66.86
708.861	67.09
709.046	66.67
709.231	67.18
709.415	67.3
709.6	67.55
709.784	67.43
709.969	67.69
710.153	67.66
710.338	67.71
710.522	67.95
710.707	68.57
710.891	68.92
711.076	68.83
711.26	68.75
711.445	69.03
711.629	69.32
711.813	69.41
711.998	69.72
712.182	69.83
712.366	69.95
712.551	70.19
712.735	70.54
712.919	70.91
713.103	71.48
713.288	71.03
713.472	70.81
713.656	71.06
713.84	70.97
714.024	70.85
714.208	71.25
714.393	71.5
714.577	71.63
714.761	71.58
714.945	71.85
715.129	71.72
715.313	71.9
715.497	71.71
715.681	72.24
715.865	72.12
716.049	72.53
716.233	72.56
716.417	72.57
716.601	72.23
716.785	72.45
716.968	72.8
717.152	72.95
717.336	73.4
717.52	73.93
717.704	73.94
717.888	74.23
718.071	74.49
718.255	74.4
718.439	73.95
718.622	74.05
718.806	74.14
718.99	73.77
719.174	74.05
719.357	74.73
719.541	74.9
719.724	74.6
719.908	75.38
720.092	75.92
720.275	75.79
720.459	75.88
720.642	75.59
720.826	74.83
721.009	74.1
721.193	74.08
721.376	74.42
721.559	75.13
721.743	75.42
721.926	76.27
722.11	76.38
722.293	75.97
722.476	75.73
722.66	76.02
722.843	75.39
723.026	75.2
723.21	75.33
723.393	76.26
723.576	76.29
723.759	76.61
723.942	76.66
724.126	76.91
724.309	76.27
724.492	76.48
724.675	76.15
724.858	76.79
725.041	77.2
725.224	77.83
725.407	78.48
725.59	79.69
725.774	79.79
725.957	79.2
726.14	78.67
726.322	78.76
726.505	78.09
726.688	78.68
726.871	79.29
727.054	79.66
727.237	79.21
727.42	80
727.603	79.92
727.786	80.41
727.968	80.34
728.151	80.28
728.334	80.16
728.517	80.04
728.699	79.93
728.882	80.09
729.065	80.74
729.248	81.07
729.43	80.87
729.613	81.8
729.796	82.72
729.978	82.38
730.161	82.26
730.343	82.51
730.526	82.65
730.708	81.68
730.891	81.74
731.073	81.3
731.256	80.97
731.438	80.18
731.621	80.76
731.803	81.21
731.986	81.27
732.168	81.59
732.35	81.47
732.533	81.16
732.715	81.11
732.898	81.36
733.08	81.6
733.262	82.4
733.444	82.41
733.627	82.96
733.809	84.2
733.991	84.54
734.173	84.12
734.355	84.65
734.538	84.91
734.72	84.13
734.902	84.61
735.084	84.85
735.266	85.03
735.448	84.86
735.63	84.8
735.812	84.14
735.994	85.13
736.176	85.28
736.358	85.22
736.54	86.08
736.722	86.04
736.904	84.61
737.086	84.61
737.268	85.09
737.45	85
737.632	84.84
737.814	85.36
737.995	85.29
738.177	84.96
738.359	83.54
738.541	84.59
738.723	85.03
738.904	85.62
739.086	85.85
739.268	87.22
739.449	87.39
739.631	86.69
739.813	86.95
739.994	87.15
740.176	87.02
740.358	86.73
740.539	87.6
740.721	87.88
740.902	88.49
741.084	88.17
741.265	87.94
741.447	88.47
741.628	88.04
741.81	86.68
741.991	87.06
742.172	87.8
742.354	87.66
742.535	87.65
742.717	88.71
742.898	89.45
743.079	89.4
743.261	89.03
743.442	88.22
743.623	88.45
743.804	88.43
743.986	89.28
744.167	88.01
744.348	88.37
744.529	87.85
744.71	86.95
744.891	85.43
745.073	85.95
745.254	85.57
745.435	85.44
745.616	85.3
745.797	85.38
745.978	85.24
746.159	85.21
746.34	84.76
746.521	85.4
746.702	84.82
746.883	85.24
747.064	85.92
747.245	85.7
747.426	85.77
747.606	86.1
747.787	85.89
747.968	86.46
748.149	87.21
748.33	87.4
748.51	87.9
748.691	87.85
748.872	87.81
749.053	87.08
749.233	86.01
749.414	85.56
749.595	84.17
749.775	82.76
749.956	83.32
750.137	84.46
750.317	85.3
750.498	87.94
750.678	88.7
750.859	88.79
751.04	88.55
751.22	88.26
751.4	87.21
751.581	86.15
751.761	85.28
751.942	85.53
752.122	84.72
752.303	85.04
752.483	84.32
752.663	83.84
752.844	82.19
753.024	82.77
753.204	82.73
753.385	83.16
753.565	83.91
753.745	84.77
753.925	85.46
754.106	84
754.286	84.46
754.466	85.16
754.646	86.1
754.826	84.06
755.006	84.64
755.187	85.56
755.367	85.02
755.547	84.49
755.727	86.33
755.907	86.7
756.087	87.35
756.267	86.49
756.447	86.13
756.627	84.19
756.807	84.41
756.987	83.04
757.167	84.49
757.346	83.78
757.526	84.28
757.706	84.57
757.886	85.6
758.066	86.39
758.246	89.01
758.425	88.7
758.605	87.83
758.785	87.12
758.965	86.38
759.144	83.76
759.324	84.9
759.504	85.78
759.683	85.89
759.863	84.99
760.043	84.38
760.222	84.39
760.402	84
760.581	82.66
760.761	83.65
760.94	83.21
761.12	83.64
761.299	83.76
761.479	85.24
761.658	83.84
761.838	84.74
762.017	84.45
762.197	84.53
762.376	84.5
762.555	86.07
762.735	88.18
762.914	86.03
763.093	85.48
763.273	84.92
763.452	84.45
763.631	83.18
763.81	84.61
763.99	84.71
764.169	85.14
764.348	83.69
764.527	81.91
764.706	83.81
764.885	85.07
765.064	83.85
765.243	84.83
765.423	87.33
765.602	86.09
765.781	83.54
765.96	83.28
766.139	82.66
766.318	81.99
766.497	80.33
766.676	81.95
766.854	84.59
767.033	84.02
767.212	82.94
767.391	83.46
767.57	83.34
767.749	82.5
767.928	84.28
768.106	83.68
768.285	83.6
768.464	84.12
768.643	81.32
768.821	80.41
769	82.05
769.179	80.62
769.357	79.17
769.536	81.67
769.715	82.5
769.893	83.17
770.072	85.22
770.25	85.52
770.429	85.15
770.607	84.09
770.786	83.19
770.964	82.86
771.143	82.66
771.321	82.79
771.5	83.86
771.678	82.73
771.857	81.19
772.035	81.43
772.213	80.74
772.392	78.99
772.57	80.29
772.748	82.49
772.927	81.64
773.105	80.71
773.283	82.6
773.461	83.2
773.64	83.69
773.818	84.02
773.996	86.41
774.174	83.77
774.352	81.59
774.531	77.99
774.709	80.28
774.887	78.23
775.065	79.81
775.243	80.58
775.421	81.9
775.599	81.51
775.777	81.01
775.955	79
776.133	77.17
776.311	76.79
776.489	73.44
776.667	73.21
776.844	73.95
777.022	73.97
777.2	75.88
777.378	77.48
777.556	76.96
777.734	79.64
777.911	84.33
778.089	82.3
778.267	81.45
778.445	81.97
778.622	81.26
778.8	77.81
778.978	81.45
779.155	80.99
779.333	81.51
779.511	79.51
779.688	82.45
779.866	76.13
780.043	75.09
780.221	75.8
780.398	75.31
780.576	74.74
780.753	78.09
780.931	78.23
781.108	79.96
781.286	82.27
781.463	78.02
781.64	74.45
781.818	78.44
781.995	76.78
782.172	74.49
782.35	74.58
782.527	78.27
782.704	76.03
782.882	74.78
783.059	74.22
783.236	77.11
783.413	79.36
783.59	79.12
783.768	78.26
783.945	82.1
784.122	81.03
784.299	78.83
784.476	77.61
784.653	75.63
784.83	71.78
785.007	70.29
785.184	72.2
785.361	71.93
785.538	78.4
785.715	81.36
785.892	82.04
786.069	82.44
786.246	85.23
786.423	82.33
786.6	79.36
786.776	82.05
786.953	78.8
787.13	80.03
787.307	80.57
787.484	81.21
787.66	79.03
787.837	80.18
788.014	77.73
788.191	76.72
788.367	77.52
788.544	78.32
788.721	78.13
788.897	78.98
789.074	78.53
789.25	74.1
789.427	73.06
789.603	73.08
789.78	73.98
789.956	72.66
790.133	76.73
790.309	76.77
790.486	78.45
790.662	75.87
790.839	77.39
791.015	75.18
791.192	75.63
791.368	75
791.544	74.38
791.721	72.22
791.897	73.39
792.073	70.39
792.249	63.6
792.426	66.76
792.602	69.12
792.778	67.73
792.954	68.24
793.13	72.59
793.307	66.3
793.483	62.39
793.659	61.86
793.835	66.37
794.011	65.41
794.187	66.2
794.363	67.02
794.539	75.35
794.715	66.39
794.891	67.24
795.067	70.81
795.243	74.68
795.419	66.51
795.595	72.78
795.771	71.46
795.947	71.62
796.122	68.47
796.298	73.28
796.474	70.87
796.65	71.14
796.826	67.07
797.001	70.44
797.177	70.84
797.353	75.57
797.529	76.88
797.704	76.87
797.88	72.02
798.056	66.47
798.231	63.88
798.407	65.73
798.582	71.64
798.758	80.49
798.934	85.82
799.109	84.25
799.285	80.4
799.46	77.13
799.636	72.44
799.811	70.95
799.986	76.9
800.162	82.78
800.337	88.59
800.513	84.05
800.688	82.61
800.863	84.56
801.039	75.91
801.214	67.16
801.389	69.75
801.565	63.52
801.74	53.43
801.915	60.2
802.09	67.76
802.265	70.49
802.441	72.18
802.616	74.25
802.791	71.88
802.966	68.56
803.141	69.66
803.316	70.57
803.491	78.43
803.666	81.93
803.841	82.5
804.016	78.03
804.191	78.98
804.366	67.67
804.541	63.48
804.716	57.75
804.891	56.46
805.066	58.62
805.241	56.14
805.416	57.41
805.591	61.3
805.765	63.65
805.94	62.61
806.115	66.31
806.29	60.04
806.464	61.31
806.639	57.82
806.814	53.18
806.989	45.9
807.163	56.76
807.338	58.58
807.512	59.1
807.687	51.63
807.862	67.09
808.036	64.72
808.211	65.8
808.385	70.18
808.56	87.98
808.734	101.77
808.909	101.65
809.083	96.65
809.258	89.88
809.432	82.94
809.606	59.63
809.781	53.77
809.955	56.06
810.13	61.2
810.304	63.16
810.478	60.71
810.652	72.81
810.827	74.97
811.001	67.88
811.175	57.79
811.349	63.12
811.524	55.7
811.698	45.32
811.872	54.49
812.046	65.84
812.22	68.58
812.394	70.62
812.568	81.56
812.742	83.05
812.916	77.55
813.09	68.51
813.264	66.55
813.438	63.37
813.612	55.48
813.786	50.67
813.96	63.11
814.134	64.87
814.308	71.03
814.482	75.46
814.656	74.65
814.83	75.77
815.003	78.88
815.177	74.65
815.351	65.16
815.525	67.75
815.698	63.63
815.872	55.25
816.046	46.2
816.219	53.24
816.393	66.99
816.567	70.93
816.74	72.43
816.914	82.29
817.088	90.62
817.261	71.47
817.435	62.41
817.608	65.02
817.782	57.33
817.955	56.24
818.129	58.18
818.302	60.06
818.475	65.08
818.649	65.53
818.822	53.97
818.996	75.59
819.169	76.91
819.342	67.39
819.516	72.29
819.689	81.16
819.862	65.82
820.035	56.81
820.209	48
820.382	44.66
820.555	41.85
820.728	26.5
820.901	24.49
821.075	33.46
821.248	31.42
821.421	21.71
821.594	34.48
821.767	53.59
821.94	61.43
822.113	49.17
822.286	46.34
822.459	56.35
822.632	54.61
822.805	45.62
822.978	47.83
823.151	55.77
823.324	35.67
823.496	15.21
823.669	6.53
823.842	16.06
824.015	20.7
824.188	20.12
824.361	38.82
824.533	37.84
824.706	33.28
824.879	23.58
825.051	40.48
825.224	32.14
825.397	31.58
825.569	39.16
825.742	48.69
825.915	51.58
826.087	74.17
826.26	50.36
826.432	57.53
826.605	60.2
826.777	41.48
826.95	31.44
827.122	30.13
827.295	15.3
827.467	15.41
827.64	-2.71
827.812	0.14
827.984	18.49
828.157	16.48
828.329	-13.68
828.501	17.57
828.674	36.26
828.846	35.26
829.018	63.14
829.19	53.41
829.363	64.66
829.535	65.94
829.707	64.94
829.879	35.72
830.051	33.01
830.223	3.39
830.395	-39.16
830.568	-30.22
830.74	-23.98
830.912	16.62
831.084	17.66
831.256	36.91
831.428	35.65
831.6	22.93
831.772	-18.39
831.943	-23.01
832.115	-11.76
832.287	-1.15
832.459	21.88
832.631	39.03
832.803	60.45
832.975	77.73
833.146	77.54
833.318	66.75
833.49	85.39
833.662	68.71
833.833	48.8
834.005	41.35
834.177	44.58
834.348	20.91
834.52	10.22
834.692	-1.57
834.863	-20.49
835.035	-30.56
835.206	-73.4
835.378	-21.73
835.549	-17.8
835.721	-4.26
835.892	6.5
836.064	14.43
836.235	-5.37
836.407	3.28
836.578	-20.51
836.749	-8.59
836.921	-7.71
837.092	-44.54
837.264	-48.06
837.435	-45.78
837.606	-3.41
837.777	15.01
837.949	31.72
838.12	40.11
838.291	45.56
838.462	28.28
838.633	13
838.805	14.7
838.976	30.4
839.147	-22.68
839.318	-26.93
839.489	-68.97
839.66	-62.37
839.831	-47.56
840.002	-12.52
840.173	-31.8
840.344	43.28
840.515	63.8
840.686	-12.94
840.857	-49.9
841.028	-46.56
841.199	-77.86
841.369	-85.77
841.54	-70.31
841.711	-48.37
841.882	-21.32
842.053	-20.83
842.223	-12.31
842.394	6.45
842.565	32.6
842.736	42.78
842.906	47.11
843.077	56.27
843.248	83.32
843.418	66.13
843.589	-13.82
843.759	53.56
843.93	13.02
844.101	4.24
844.271	18.35
844.442	47.51
844.612	49.18
844.783	24.69
844.953	-4.45
845.123	1.09
845.294	-11.72
845.464	-215.07
845.635	-88.67
845.805	20.16
845.975	18.4
846.146	-27.92
846.316	-28.66
846.486	9.2
846.656	23.9
846.827	21.28
846.997	25.95
847.167	68.25
847.337	29.76
847.507	3.53
847.677	13.34
847.848	62.1
848.018	61.84
848.188	56.98
848.358	40.43
848.528	25.66
848.698	-8.42
848.868	-86.97
849.038	-90.86
849.208	11.46
849.378	24.2
849.548	20.24
849.718	6.73
849.887	11.49
850.057	-4.81
850.227	-31.19
850.397	-56.87
850.567	-135.07
850.737	-341.96
850.906	-1399.38
851.076	-832.42
851.246	-306.54
851.415	6.97
851.585	14.12
851.755	9.88
851.924	21.4
852.094	-27.27
852.264	-97.68
852.433	-914.9
852.603	-106.31
852.772	44.88
852.942	11.2
853.111	-15.12
853.281	23.83
853.45	28.7
853.62	-63.89
853.789	-59.92
853.959	-26.43
854.128	-24.76
854.297	-43.58
854.467	-45.26
854.636	-10
854.805	9.28
854.975	20.22
855.144	58.22
855.313	540.91
855.482	56.57
855.652	-75.18
855.821	-104.8
855.99	-21.65
856.159	-18.3
856.328	8.17
856.497	-11.48
856.667	-7.57
856.836	1.65
857.005	-38.64
857.174	-43.75
857.343	-7.1
857.512	3
857.681	-65.31
857.85	-88.07
858.019	-42.62
858.188	-44.12
858.356	-23.61
858.525	-61.97
858.694	-16.5
858.863	-89.04
859.032	-56.14
859.201	-100.38
859.369	-11.61
859.538	3.09
859.707	14.23
859.876	25.78
860.044	-19.02
860.213	29.44
860.382	12.93
860.55	15.9
860.719	27.96
860.888	26.38
861.056	-2.49
861.225	-5.55
861.393	-1.36
861.562	1.25
861.73	-75.1
861.899	-147.91
862.067	-1243.1
862.236	11.97
862.404	-180.84
862.572	-16.9
862.741	-12.3
862.909	-21.48
863.078	-170.63
863.246	-93.89
863.414	-79.02
863.582	-66.16
863.751	-105.07
863.919	-72.71
864.087	-30.42
864.255	-36.37
864.424	-217.73
864.592	27.2
864.76	54.91
864.928	227.6
865.096	-19.27
865.264	8.76
865.432	-1317.05
865.6	-130.75
865.768	-97.56
865.936	-86.63
866.104	-72.27
866.272	21.41
866.44	-54.53
866.608	256.25
866.776	170.98
866.944	2240.7
867.112	-522.67
867.28	-231.74
867.448	-111.27
867.615	-29.52
867.783	3.09
867.951	-0.58
868.119	28.86
868.286	48.61
868.454	-25.37
868.622	-61.69
868.789	-15.98
868.957	1025
869.125	-182.89
869.292	4.3
869.46	7.34
869.627	66.69
869.795	2.47
869.963	22.07
870.13	57.26
870.298	51.48
870.465	-14.61
870.632	-17.28
870.8	-21.08
870.967	-95.6
871.135	-93.97
871.302	-31.58
871.469	-62.5
871.637	-45.02
871.804	-13.6
871.971	-38.64
872.139	-202.56
872.306	60.61
872.473	-7.92
872.64	-94.21
872.807	-46.92
872.975	-3.28
873.142	-278.36
873.309	2336.49
873.476	-52.15
873.643	-14.92
873.81	2.11
873.977	65.37
874.144	82.31
874.311	-15.65
874.478	-59.07
874.645	-123.62
874.812	-122.54
874.979	-81.65
875.146	-55.87
875.313	-43.39
875.48	49.03
875.647	26.71
875.813	9.86
875.98	7.92
876.147	-8.65
876.314	-64.9
876.481	838.43
876.647	-1133.15
876.814	455.7
876.981	-155.96
877.147	-101.81
877.314	-23.62
877.481	-15.28
877.647	5.53
877.814	-9.59
877.98	-44.96
878.147	-10.13
878.314	33.43
878.48	2.37
878.647	17.1
878.813	72.98
878.979	66.58
879.146	29.32
879.312	19.3
879.479	-21.51
879.645	-170.53
879.811	-315.3
879.978	-820.23
880.144	-209.97
880.31	-83.85
880.477	-221.73
880.643	-298.06
880.809	-101.59
880.975	-125.77
881.142	-1001.36
881.308	-136.62
881.474	-56.21
881.64	-89.22
881.806	-90.6
881.972	-12.28
882.138	8.74
882.304	-87.46
882.47	-156.1
882.636	-681.56
882.802	-272.45
882.968	-101.16
883.134	-29.47
883.3	-47.92
883.466	1.31
883.632	29.65
883.798	11.32
883.964	7.33
884.129	30.05
884.295	16.02
884.461	-40.72
884.627	-48.59
884.793	-65.66
884.958	-8.82
885.124	-48.86
885.29	-54.82
885.455	-52.67
885.621	1.99
885.787	-158.23
885.952	-38.92
886.118	-48.28
886.283	-45.32
886.449	-142.97
886.614	-142.59
886.78	-379.81
886.945	1525.41
887.111	-686.99
887.276	-378.69
887.442	-720.45
887.607	-294.58
887.773	-207.48
887.938	-181.85
888.103	-280.65
888.269	-76.05
888.434	-99.19
888.599	-46.33
888.764	8.11
888.93	17.58
889.095	-28.23
889.26	-79.73
889.425	-33.71
889.59	-31.3
889.756	-57.41
889.921	-27.59
890.086	34.83
890.251	-3.87
890.416	-124.37
890.581	-1133.06
890.746	228.39
890.911	565.92
891.076	221.71
891.241	-589.18
891.406	-10.11
891.571	-25
891.736	-119.95
891.901	-212.83
892.065	132.42
892.23	130.52
892.395	233.17
892.56	324.42
892.725	-452.73
892.889	-1720.73
893.054	-179.97
893.219	-27.12
893.384	1.15
893.548	-33.58
893.713	-36.79
893.878	-19.39
