Data from Ofra_2a_PS_4HS15_Reflection_3.txt Node
Date: Tue Jul 20 09:51:33 EDT 2021
User: Adam
Spectrometer: FLMT01687
Trigger mode: 0
Integration Time (sec): 9.450000E-1
Scans to average: 3
Electric dark correction enabled: true
Nonlinearity correction enabled: false
Boxcar width: 3
XAxis mode: Wavelengths
Number of Pixels in Spectrum: 3648
>>>>>Begin Spectral Data<<<<<
179.494	908.88
179.716	469.81
179.937	539.01
180.158	1955.86
180.38	-1019.48
180.601	-238.94
180.823	-129.25
181.044	-89.94
181.265	-159.69
181.486	32.07
181.708	-720.65
181.929	73.6
182.15	332.39
182.372	-149.19
182.593	-120.98
182.814	344.46
183.035	165.81
183.257	103.33
183.478	62.33
183.699	79.6
183.92	50.85
184.141	62.46
184.363	53.04
184.584	43.88
184.805	50.81
185.026	79.8
185.247	56.5
185.468	65.17
185.689	46.91
185.91	37.4
186.132	45.12
186.353	38.56
186.574	28.54
186.795	44.15
187.016	45.76
187.237	58.57
187.458	84.56
187.679	103.75
187.9	111.15
188.121	120.61
188.342	98.72
188.563	110.83
188.784	93.84
189.005	100.15
189.226	85.97
189.447	74.56
189.667	66.7
189.888	51.47
190.109	39.74
190.33	37.03
190.551	24.08
190.772	17.54
190.993	28.98
191.214	27.67
191.434	32.96
191.655	45.9
191.876	52.92
192.097	46.09
192.318	54.57
192.538	55.13
192.759	52.41
192.98	42.83
193.201	44.6
193.421	46.34
193.642	49.83
193.863	49.83
194.083	39.7
194.304	51.81
194.525	72.25
194.745	58.35
194.966	56.73
195.187	65.24
195.407	42.71
195.628	39.92
195.848	26.95
196.069	7.82
196.29	0.44
196.51	-12.15
196.731	-6.41
196.951	6.37
197.172	-4.94
197.392	17.98
197.613	17.06
197.833	31.35
198.054	27.26
198.274	7.58
198.495	26.58
198.715	17.04
198.936	23.47
199.156	32.59
199.377	33.59
199.597	32.24
199.817	38.95
200.038	42.7
200.258	49.05
200.479	42.86
200.699	44.28
200.919	30.18
201.14	34.65
201.36	46.72
201.58	36.54
201.801	34.62
202.021	36.27
202.241	38.93
202.461	44.49
202.682	51.63
202.902	43.84
203.122	41.74
203.342	54.51
203.563	55.68
203.783	48.94
204.003	46.62
204.223	47.06
204.443	47.56
204.663	45.83
204.884	43.97
205.104	49.63
205.324	63.93
205.544	64.39
205.764	59.47
205.984	58.03
206.204	61.2
206.424	49.04
206.644	43.74
206.864	32.05
207.084	49
207.304	50.28
207.525	45.53
207.745	47.68
207.964	63.25
208.184	53.11
208.404	51.12
208.624	34.81
208.844	32.47
209.064	31.69
209.284	41.96
209.504	38.49
209.724	33.22
209.944	32.46
210.164	36.85
210.384	39.32
210.604	36.59
210.823	9.35
211.043	21.3
211.263	30.51
211.483	35.61
211.703	35.18
211.922	29.87
212.142	39.17
212.362	35.58
212.582	28.46
212.801	27.61
213.021	21.85
213.241	20.6
213.461	24.1
213.68	28.6
213.9	36.27
214.12	25.63
214.339	19.72
214.559	32.7
214.779	35.06
214.998	38.93
215.218	48.11
215.438	54.92
215.657	64.62
215.877	70.04
216.096	58.39
216.316	50.27
216.535	43.51
216.755	19.39
216.974	17
217.194	12.6
217.413	32.04
217.633	31.68
217.852	28.57
218.072	16.23
218.291	33.7
218.511	30.68
218.73	20.12
218.95	2.1
219.169	0.62
219.389	10.9
219.608	27.18
219.827	15.8
220.047	35.66
220.266	42.35
220.485	45.96
220.705	31.51
220.924	33.45
221.143	30.27
221.363	33.25
221.582	17.81
221.801	20.25
222.021	30.12
222.24	43.25
222.459	33.54
222.678	24.83
222.897	21.53
223.117	28.96
223.336	34.8
223.555	17.49
223.774	21.62
223.993	24.89
224.213	34.19
224.432	46.31
224.651	36.24
224.87	37.43
225.089	48.82
225.308	46.79
225.527	57.59
225.746	56.43
225.965	42.95
226.184	45.75
226.404	29.49
226.623	29.82
226.842	30.45
227.061	37.54
227.28	52.05
227.499	55.67
227.718	46.46
227.936	43.57
228.155	33.52
228.374	36.66
228.593	26.08
228.812	20.48
229.031	6.35
229.25	18.86
229.469	31.68
229.688	35.51
229.907	25.03
230.125	20.85
230.344	18.31
230.563	37.9
230.782	29.46
231.001	26.28
231.22	20.38
231.438	30.9
231.657	45.53
231.876	44.66
232.095	38.57
232.313	45
232.532	43.4
232.751	51.09
232.969	43.98
233.188	37.43
233.407	43
233.625	50.23
233.844	48.79
234.063	56.24
234.281	52.21
234.5	55.75
234.719	47.58
234.937	47.41
235.156	33.59
235.374	30.8
235.593	17.72
235.811	6.36
236.03	3.39
236.249	25.41
236.467	25.12
236.686	17.55
236.904	25.39
237.123	30.32
237.341	37.28
237.559	38.43
237.778	38.66
237.996	40.81
238.215	38.73
238.433	41.51
238.652	39.21
238.87	42.49
239.088	35.37
239.307	28.37
239.525	20.84
239.743	21.65
239.962	17.35
240.18	22.82
240.398	17.28
240.617	29.87
240.835	30.96
241.053	42.51
241.271	46.42
241.49	31.06
241.708	36.38
241.926	31.97
242.144	25.6
242.363	22.32
242.581	17.88
242.799	16.89
243.017	30.77
243.235	12.19
243.453	26.75
243.672	15.42
243.89	20.97
244.108	28.76
244.326	28.67
244.544	42.01
244.762	43.96
244.98	40.48
245.198	44.3
245.416	49.76
245.634	53.48
245.852	56.4
246.07	51
246.288	61.7
246.506	68.99
246.724	85.45
246.942	87.93
247.16	73.27
247.378	58.09
247.596	60.89
247.814	51.66
248.032	37.11
248.25	22.62
248.468	20.41
248.685	21.59
248.903	20.13
249.121	9.93
249.339	21.52
249.557	21.47
249.775	8.25
249.992	10.62
250.21	0.15
250.428	3.82
250.646	9.88
250.863	8.44
251.081	14.32
251.299	41.39
251.517	39.91
251.734	58.31
251.952	58.07
252.17	46.29
252.387	37.22
252.605	40.64
252.823	29.41
253.04	20.87
253.258	7.28
253.475	4.68
253.693	19.74
253.911	21.05
254.128	11.31
254.346	9.23
254.563	7.61
254.781	12.43
254.998	18.38
255.216	14.91
255.433	13.45
255.651	11.93
255.868	25.95
256.086	28.56
256.303	24.96
256.521	17.23
256.738	14.85
256.956	5.4
257.173	23.25
257.39	21.26
257.608	29.01
257.825	31.91
258.043	45.84
258.26	45.14
258.477	49.45
258.695	47.15
258.912	48.03
259.129	42.79
259.346	50.29
259.564	44.21
259.781	51.9
259.998	52.27
260.216	62.2
260.433	59.2
260.65	63.79
260.867	48.28
261.084	50.43
261.302	45.91
261.519	42.83
261.736	32.94
261.953	33.09
262.17	21.71
262.387	34.4
262.604	24.55
262.822	22.08
263.039	31.12
263.256	25.07
263.473	18.28
263.69	26.17
263.907	26.2
264.124	21.94
264.341	30.5
264.558	31.23
264.775	32.83
264.992	39.03
265.209	47.33
265.426	44.28
265.643	44.56
265.86	39.94
266.077	41.72
266.294	44.07
266.51	44.55
266.727	34.36
266.944	32.11
267.161	33.72
267.378	31.63
267.595	13.32
267.812	12.53
268.028	9.45
268.245	10.21
268.462	14.18
268.679	20.09
268.896	12.06
269.112	20.71
269.329	17.32
269.546	15.72
269.763	18.85
269.979	20.56
270.196	22.15
270.413	30.91
270.629	34.3
270.846	35.69
271.063	42.95
271.279	42.51
271.496	34.41
271.712	35.96
271.929	39.53
272.146	41.93
272.362	37.45
272.579	30.1
272.795	27.21
273.012	27.7
273.228	16.72
273.445	11.43
273.661	7.78
273.878	20.84
274.094	24.4
274.311	27.52
274.527	32.74
274.744	38.15
274.96	37.97
275.177	39.04
275.393	38.46
275.609	38.17
275.826	40.47
276.042	40.94
276.259	39.46
276.475	38.28
276.691	41.16
276.908	30.07
277.124	23.7
277.34	20.76
277.557	27.72
277.773	27.16
277.989	21.08
278.205	9.76
278.422	24.26
278.638	33.99
278.854	32.38
279.07	15.17
279.286	14.87
279.503	24.56
279.719	44.47
279.935	33.24
280.151	36.34
280.367	36.41
280.583	42.84
280.799	45.68
281.016	44.2
281.232	33.6
281.448	37.95
281.664	28.46
281.88	34.24
282.096	41.41
282.312	34.86
282.528	32.98
282.744	20.02
282.96	17.54
283.176	24.06
283.392	28.71
283.608	30.08
283.824	18.35
284.04	23.08
284.256	25.99
284.471	35.7
284.687	27.01
284.903	23.72
285.119	3.3
285.335	10.77
285.551	15.76
285.767	24.43
285.982	12.44
286.198	20.63
286.414	27.47
286.63	34.33
286.846	42.45
287.061	41.27
287.277	36.88
287.493	43.14
287.709	36.29
287.924	27.58
288.14	30.14
288.356	41.49
288.571	30.4
288.787	36.82
289.003	42.01
289.218	41.62
289.434	47.15
289.65	50.21
289.865	44.39
290.081	51.38
290.296	52.88
290.512	49.66
290.727	62.54
290.943	55.81
291.159	51.38
291.374	49.78
291.59	50.72
291.805	48.13
292.021	43.25
292.236	32.73
292.451	36.87
292.667	35.97
292.882	28.22
293.098	20.48
293.313	14.92
293.529	5.43
293.744	4.48
293.959	0.87
294.175	13.55
294.39	16.65
294.605	25.36
294.821	18.83
295.036	34.31
295.251	29.2
295.467	28.13
295.682	15.16
295.897	13.8
296.112	13.37
296.328	20.34
296.543	6.36
296.758	11.74
296.973	27.9
297.188	28.03
297.404	29.04
297.619	13.07
297.834	21.69
298.049	34.75
298.264	33.9
298.479	14.45
298.694	20.64
298.909	19.15
299.125	32.68
299.34	27.93
299.555	25.15
299.77	24.73
299.985	23.14
300.2	23.16
300.415	33.52
300.63	27.81
300.845	34.02
301.06	30.26
301.275	38.04
301.49	47.33
301.704	37.32
301.919	25.72
302.134	16.7
302.349	9.58
302.564	21.3
302.779	7.49
302.994	-2.87
303.209	3.48
303.423	12.73
303.638	27.69
303.853	25.14
304.068	16.25
304.283	17
304.497	24.76
304.712	25.21
304.927	20.49
305.142	20.01
305.356	22.35
305.571	29.07
305.786	29.55
306	28.77
306.215	31.51
306.43	45.07
306.644	42.75
306.859	47.27
307.074	37.96
307.288	42.06
307.503	41.74
307.717	37.2
307.932	35.75
308.147	39.99
308.361	38.84
308.576	35.57
308.79	41.49
309.005	42.75
309.219	51.25
309.434	43.12
309.648	40.85
309.863	40.87
310.077	40.14
310.292	30.93
310.506	34.32
310.72	30.26
310.935	28.31
311.149	32.06
311.364	37.47
311.578	38.68
311.792	30.11
312.007	18.31
312.221	24.15
312.435	27.64
312.649	19.33
312.864	8.31
313.078	19.35
313.292	34.45
313.507	52.33
313.721	49.88
313.935	59.32
314.149	58.71
314.363	62.23
314.578	86.35
314.792	82.64
315.006	76.54
315.22	80.19
315.434	66.42
315.648	67.1
315.862	63.76
316.077	45.7
316.291	45.46
316.505	53.5
316.719	33.78
316.933	42.36
317.147	36.29
317.361	37.84
317.575	38.79
317.789	45.66
318.003	41.77
318.217	47.78
318.431	43.44
318.645	45.12
318.859	32.66
319.073	27.21
319.287	27.58
319.5	26.24
319.714	27.56
319.928	36.45
320.142	35.77
320.356	49.67
320.57	45.58
320.784	43.07
320.997	46.38
321.211	49.27
321.425	33.82
321.639	37.9
321.853	26.25
322.066	26.49
322.28	27.07
322.494	24.2
322.707	19.04
322.921	31.08
323.135	20.86
323.349	26.03
323.562	30.86
323.776	27.4
323.989	25.62
324.203	28.94
324.417	18.76
324.63	20.43
324.844	13.28
325.057	17.45
325.271	8.52
325.485	13.15
325.698	12.79
325.912	21.31
326.125	27.19
326.339	31.21
326.552	24.8
326.766	33.99
326.979	32.83
327.193	29.93
327.406	30.98
327.619	17.11
327.833	15.44
328.046	15.22
328.26	13.89
328.473	13.4
328.686	12.45
328.9	-0.02
329.113	9.53
329.326	18.81
329.54	22.37
329.753	28.94
329.966	29
330.179	37.92
330.393	52.34
330.606	52.18
330.819	50.81
331.032	49.57
331.246	49.85
331.459	51.75
331.672	45.79
331.885	30.94
332.098	40.29
332.311	27.84
332.525	24.78
332.738	15.6
332.951	14.79
333.164	6.66
333.377	2.86
333.59	2.46
333.803	10.56
334.016	8.41
334.229	17.72
334.442	18.39
334.655	32.83
334.868	39.1
335.081	36.96
335.294	39.05
335.507	47.19
335.72	32.89
335.933	31.7
336.146	27.42
336.359	28.26
336.572	23.11
336.785	27.94
336.997	20.96
337.21	34.39
337.423	40.54
337.636	46.9
337.849	41.62
338.062	41.87
338.274	41.67
338.487	35.37
338.7	37.09
338.913	29.64
339.125	25.71
339.338	34.27
339.551	38.65
339.763	32.79
339.976	34.31
340.189	30.31
340.402	31.69
340.614	30.13
340.827	17.73
341.039	13.33
341.252	14.17
341.465	11.84
341.677	9.75
341.89	12.56
342.102	11.58
342.315	19.9
342.527	16.15
342.74	10.2
342.952	17.62
343.165	24.43
343.377	18.28
343.59	25.79
343.802	32.27
344.015	34.42
344.227	36.86
344.44	28.97
344.652	31.47
344.864	38.3
345.077	36.78
345.289	24.8
345.502	25.34
345.714	25.34
345.926	26.01
346.139	22.47
346.351	12.97
346.563	23.34
346.775	19.84
346.988	24.48
347.2	30.9
347.412	35.49
347.624	37.9
347.837	32.73
348.049	25.3
348.261	31.27
348.473	19.91
348.685	17.75
348.897	10.2
349.11	3.43
349.322	4.19
349.534	3.05
349.746	2.3
349.958	13.01
350.17	7.1
350.382	10.09
350.594	15.67
350.806	20.11
351.018	24.99
351.23	28.16
351.442	27.28
351.654	31.73
351.866	35.06
352.078	27.61
352.29	30.82
352.502	29.69
352.714	31.78
352.926	31.49
353.138	29.98
353.35	25.02
353.561	24.53
353.773	27.17
353.985	27.98
354.197	21.3
354.409	27.57
354.621	26.37
354.832	20.51
355.044	29.6
355.256	24.76
355.468	22.33
355.679	27.65
355.891	22.64
356.103	25.02
356.314	27.75
356.526	24.49
356.738	23.51
356.949	17.89
357.161	22.63
357.373	28.27
357.584	34.93
357.796	32.47
358.008	33.23
358.219	38.23
358.431	40.54
358.642	30.1
358.854	28.37
359.065	14.48
359.277	18.07
359.488	9.83
359.7	14.35
359.911	22.25
360.123	30.73
360.334	29.69
360.546	29.84
360.757	34.5
360.969	43.35
361.18	35.21
361.391	29.47
361.603	31.3
361.814	27.94
362.025	34.74
362.237	28.33
362.448	27.43
362.659	24.83
362.871	27.29
363.082	17.9
363.293	23.72
363.504	18.36
363.716	24.16
363.927	23.47
364.138	27.04
364.349	32.2
364.56	35.48
364.772	34.5
364.983	32.77
365.194	33.48
365.405	30.02
365.616	25.24
365.827	15.77
366.038	20.75
366.25	20.18
366.461	29.1
366.672	21.24
366.883	28.7
367.094	30.49
367.305	32.37
367.516	32.44
367.727	29.65
367.938	26.52
368.149	33.75
368.36	28.74
368.571	31.43
368.781	27.71
368.992	18.98
369.203	16.95
369.414	15.15
369.625	7.73
369.836	7.66
370.047	-0.67
370.258	-5.87
370.468	1.48
370.679	5.38
370.89	13.55
371.101	14.45
371.312	16.89
371.522	25.94
371.733	30.94
371.944	31.8
372.155	24.44
372.365	19.06
372.576	17.75
372.787	13.2
372.997	10.44
373.208	11.77
373.419	9.52
373.629	19.09
373.84	13.2
374.05	13.51
374.261	9.62
374.472	9.44
374.682	5.33
374.893	2.09
375.103	3.34
375.314	8.73
375.524	11.79
375.735	20.17
375.945	20.53
376.156	25.59
376.366	31.52
376.577	32.07
376.787	32.96
376.997	33.16
377.208	24.13
377.418	24.92
377.629	20.84
377.839	30.19
378.049	28.41
378.26	27.72
378.47	24.46
378.68	27.9
378.89	23.94
379.101	19.02
379.311	0.16
379.521	9.48
379.732	2.11
379.942	4.46
380.152	7.75
380.362	9.92
380.572	14.71
380.783	21.73
380.993	14.85
381.203	16.65
381.413	19.71
381.623	23.96
381.833	26.37
382.043	21.44
382.253	21.01
382.463	23.54
382.674	27.47
382.884	24.7
383.094	20.48
383.304	20.22
383.514	28.7
383.724	21.66
383.934	16.47
384.144	17.5
384.353	20.22
384.563	16.87
384.773	18.19
384.983	15.14
385.193	22.95
385.403	24.8
385.613	21.31
385.823	19.05
386.033	21.28
386.242	21.59
386.452	21.68
386.662	17.29
386.872	11.9
387.082	10.08
387.291	12.26
387.501	13
387.711	10.14
387.921	6.33
388.13	5.8
388.34	10.33
388.55	14.7
388.759	13.75
388.969	11.82
389.179	15.07
389.388	15.24
389.598	14.2
389.807	12.25
390.017	11.54
390.227	9.97
390.436	9.97
390.646	8.45
390.855	10.02
391.065	9.46
391.274	7.57
391.484	7.88
391.693	9.08
391.903	8.69
392.112	7.86
392.322	8.57
392.531	8.91
392.74	8.64
392.95	7.6
393.159	6.74
393.369	7.11
393.578	7.37
393.787	6.19
393.997	7.38
394.206	8.22
394.415	8.53
394.625	7.27
394.834	5.82
395.043	5.74
395.252	5.91
395.462	5.36
395.671	6.24
395.88	5.82
396.089	6.59
396.298	7.26
396.508	6.85
396.717	6.52
396.926	5.9
397.135	5.02
397.344	4.89
397.553	4.94
397.762	4.56
397.971	4.73
398.181	4.28
398.39	4.61
398.599	5.15
398.808	5.36
399.017	5.37
399.226	5.81
399.435	5.58
399.644	5.83
399.853	5.64
400.062	5.38
400.27	5.06
400.479	4.81
400.688	4.89
400.897	5.16
401.106	5.22
401.315	5.18
401.524	5.22
401.733	5.52
401.941	5.54
402.15	5.11
402.359	4.86
402.568	4.78
402.777	4.71
402.985	4.55
403.194	4.27
403.403	4.16
403.612	4.29
403.82	4.37
404.029	4.28
404.238	4.35
404.446	4.34
404.655	4.27
404.864	4.27
405.072	4.27
405.281	4.17
405.489	4.24
405.698	4.1
405.906	4.03
406.115	4.18
406.324	4.12
406.532	4.08
406.741	4.17
406.949	4.06
407.158	4.18
407.366	4.26
407.574	4.18
407.783	4.12
407.991	4.03
408.2	3.93
408.408	3.97
408.617	3.83
408.825	3.75
409.033	3.73
409.242	3.79
409.45	3.78
409.658	3.73
409.867	3.72
410.075	3.75
410.283	3.65
410.491	3.59
410.7	3.6
410.908	3.7
411.116	3.69
411.324	3.7
411.533	3.63
411.741	3.69
411.949	3.75
412.157	3.71
412.365	3.66
412.573	3.68
412.781	3.58
412.99	3.72
413.198	3.73
413.406	3.66
413.614	3.68
413.822	3.62
414.03	3.57
414.238	3.65
414.446	3.51
414.654	3.45
414.862	3.48
415.07	3.49
415.278	3.44
415.486	3.59
415.694	3.56
415.902	3.6
416.109	3.64
416.317	3.56
416.525	3.68
416.733	3.77
416.941	3.64
417.149	3.73
417.357	3.68
417.564	3.67
417.772	3.71
417.98	3.54
418.188	3.48
418.395	3.43
418.603	3.27
418.811	3.21
419.019	3.18
419.226	3.22
419.434	3.2
419.642	3.15
419.849	3.12
420.057	3.18
420.265	3.21
420.472	3.17
420.68	3.14
420.887	3.15
421.095	3.14
421.302	3.28
421.51	3.32
421.717	3.37
421.925	3.38
422.132	3.31
422.34	3.29
422.547	3.3
422.755	3.24
422.962	3.09
423.17	3.06
423.377	3.17
423.585	3.25
423.792	3.27
423.999	3.28
424.207	3.1
424.414	3.23
424.621	3.27
424.829	3.17
425.036	3.1
425.243	3.15
425.451	3.14
425.658	3.32
425.865	3.2
426.072	3.21
426.28	3.22
426.487	3.26
426.694	3.12
426.901	3.07
427.108	3.09
427.315	3.21
427.523	3.21
427.73	3.23
427.937	3.29
428.144	3.33
428.351	3.42
428.558	3.34
428.765	3.3
428.972	3.24
429.179	3.15
429.386	3.23
429.593	3.23
429.8	3.28
430.007	3.41
430.214	3.45
430.421	3.54
430.628	3.47
430.835	3.29
431.042	3.39
431.249	3.3
431.456	3.29
431.662	3.23
431.869	3.23
432.076	3.36
432.283	3.4
432.49	3.36
432.697	3.45
432.903	3.39
433.11	3.43
433.317	3.49
433.524	3.39
433.73	3.45
433.937	3.41
434.144	3.44
434.35	3.43
434.557	3.43
434.764	3.38
434.97	3.49
435.177	3.45
435.384	3.54
435.59	3.5
435.797	3.56
436.003	3.56
436.21	3.54
436.416	3.46
436.623	3.59
436.829	3.52
437.036	3.55
437.242	3.59
437.449	3.63
437.655	3.67
437.862	3.71
438.068	3.66
438.275	3.66
438.481	3.68
438.687	3.65
438.894	3.66
439.1	3.66
439.307	3.64
439.513	3.63
439.719	3.67
439.926	3.71
440.132	3.71
440.338	3.71
440.544	3.69
440.751	3.74
440.957	3.71
441.163	3.74
441.369	3.7
441.575	3.7
441.782	3.7
441.988	3.72
442.194	3.78
442.4	3.86
442.606	3.88
442.812	3.89
443.018	3.94
443.224	3.96
443.431	3.99
443.637	3.89
443.843	3.86
444.049	3.82
444.255	3.83
444.461	3.78
444.667	3.74
444.873	3.71
445.079	3.81
445.284	3.82
445.49	3.82
445.696	3.83
445.902	3.88
446.108	3.94
446.314	3.98
446.52	3.98
446.726	4.01
446.931	4.01
447.137	3.98
447.343	3.98
447.549	3.95
447.755	3.93
447.96	3.89
448.166	3.96
448.372	3.99
448.578	4.03
448.783	4.03
448.989	4.08
449.195	4.07
449.4	4.12
449.606	4.06
449.812	4.15
450.017	4.16
450.223	4.13
450.428	4.15
450.634	4.21
450.84	4.2
451.045	4.18
451.251	4.16
451.456	4.15
451.662	4.16
451.867	4.15
452.073	4.15
452.278	4.12
452.483	4.15
452.689	4.13
452.894	4.18
453.1	4.15
453.305	4.17
453.51	4.16
453.716	4.2
453.921	4.17
454.127	4.15
454.332	4.15
454.537	4.2
454.742	4.19
454.948	4.2
455.153	4.2
455.358	4.26
455.563	4.28
455.769	4.28
455.974	4.28
456.179	4.26
456.384	4.27
456.589	4.31
456.795	4.19
457	4.2
457.205	4.16
457.41	4.2
457.615	4.27
457.82	4.34
458.025	4.3
458.23	4.41
458.435	4.4
458.64	4.48
458.845	4.43
459.05	4.45
459.255	4.39
459.46	4.46
459.665	4.5
459.87	4.49
460.075	4.46
460.28	4.49
460.485	4.5
460.69	4.45
460.895	4.44
461.099	4.44
461.304	4.52
461.509	4.47
461.714	4.46
461.919	4.43
462.123	4.56
462.328	4.53
462.533	4.54
462.738	4.48
462.942	4.58
463.147	4.59
463.352	4.62
463.556	4.54
463.761	4.56
463.966	4.6
464.17	4.68
464.375	4.63
464.58	4.66
464.784	4.67
464.989	4.68
465.193	4.75
465.398	4.74
465.602	4.71
465.807	4.75
466.011	4.79
466.216	4.78
466.42	4.9
466.625	4.87
466.829	4.94
467.034	4.97
467.238	4.98
467.443	4.98
467.647	4.99
467.851	4.95
468.056	4.97
468.26	4.86
468.464	4.84
468.669	4.87
468.873	4.89
469.077	4.92
469.282	4.9
469.486	4.91
469.69	4.95
469.894	5.03
470.099	5.05
470.303	5.04
470.507	5.09
470.711	5.1
470.915	5.19
471.119	5.25
471.324	5.18
471.528	5.21
471.732	5.27
471.936	5.26
472.14	5.24
472.344	5.13
472.548	5.14
472.752	5.19
472.956	5.17
473.16	5.17
473.364	5.15
473.568	5.22
473.772	5.31
473.976	5.27
474.18	5.28
474.384	5.28
474.588	5.3
474.792	5.3
474.995	5.32
475.199	5.28
475.403	5.33
475.607	5.34
475.811	5.39
476.015	5.38
476.218	5.39
476.422	5.4
476.626	5.39
476.83	5.38
477.033	5.43
477.237	5.42
477.441	5.41
477.644	5.42
477.848	5.4
478.052	5.45
478.255	5.45
478.459	5.49
478.663	5.49
478.866	5.49
479.07	5.52
479.273	5.51
479.477	5.52
479.681	5.56
479.884	5.48
480.088	5.51
480.291	5.54
480.495	5.58
480.698	5.6
480.901	5.63
481.105	5.64
481.308	5.66
481.512	5.69
481.715	5.73
481.919	5.71
482.122	5.73
482.325	5.76
482.529	5.79
482.732	5.8
482.935	5.81
483.138	5.8
483.342	5.82
483.545	5.8
483.748	5.77
483.952	5.75
484.155	5.8
484.358	5.73
484.561	5.73
484.764	5.73
484.967	5.77
485.171	5.77
485.374	5.78
485.577	5.79
485.78	5.86
485.983	5.86
486.186	5.82
486.389	5.79
486.592	5.8
486.795	5.75
486.998	5.74
487.201	5.69
487.404	5.74
487.607	5.8
487.81	5.82
488.013	5.79
488.216	5.8
488.419	5.75
488.622	5.75
488.825	5.71
489.028	5.66
489.231	5.65
489.433	5.68
489.636	5.68
489.839	5.74
490.042	5.75
490.245	5.76
490.447	5.8
490.65	5.83
490.853	5.83
491.056	5.81
491.258	5.8
491.461	5.77
491.664	5.75
491.866	5.75
492.069	5.72
492.272	5.69
492.474	5.72
492.677	5.7
492.879	5.75
493.082	5.8
493.285	5.78
493.487	5.79
493.69	5.78
493.892	5.81
494.095	5.8
494.297	5.8
494.5	5.79
494.702	5.77
494.905	5.78
495.107	5.81
495.309	5.71
495.512	5.76
495.714	5.75
495.917	5.69
496.119	5.71
496.321	5.72
496.524	5.74
496.726	5.79
496.928	5.79
497.13	5.83
497.333	5.92
497.535	5.94
497.737	5.92
497.939	5.94
498.142	5.93
498.344	5.91
498.546	5.94
498.748	5.91
498.95	5.88
499.152	5.89
499.355	5.86
499.557	5.94
499.759	6.02
499.961	6.02
500.163	6.07
500.365	6.11
500.567	6.09
500.769	6.14
500.971	6.09
501.173	6.01
501.375	5.96
501.577	5.95
501.779	5.93
501.981	5.96
502.183	5.95
502.385	5.95
502.587	5.97
502.788	5.99
502.99	5.98
503.192	6.03
503.394	6.03
503.596	6.07
503.798	6.12
503.999	6.15
504.201	6.17
504.403	6.21
504.605	6.21
504.806	6.24
505.008	6.19
505.21	6.18
505.411	6.22
505.613	6.23
505.815	6.24
506.016	6.25
506.218	6.24
506.42	6.27
506.621	6.28
506.823	6.3
507.024	6.32
507.226	6.3
507.427	6.29
507.629	6.33
507.83	6.3
508.032	6.33
508.233	6.33
508.435	6.3
508.636	6.32
508.838	6.35
509.039	6.35
509.24	6.39
509.442	6.36
509.643	6.35
509.845	6.37
510.046	6.38
510.247	6.4
510.448	6.41
510.65	6.42
510.851	6.46
511.052	6.51
511.254	6.49
511.455	6.47
511.656	6.47
511.857	6.47
512.058	6.51
512.26	6.51
512.461	6.53
512.662	6.53
512.863	6.56
513.064	6.56
513.265	6.59
513.466	6.63
513.667	6.64
513.868	6.62
514.069	6.68
514.27	6.68
514.471	6.72
514.672	6.72
514.873	6.72
515.074	6.73
515.275	6.74
515.476	6.75
515.677	6.78
515.878	6.81
516.079	6.81
516.28	6.81
516.481	6.81
516.682	6.84
516.882	6.82
517.083	6.84
517.284	6.81
517.485	6.84
517.686	6.82
517.886	6.83
518.087	6.83
518.288	6.85
518.488	6.87
518.689	6.85
518.89	6.87
519.091	6.9
519.291	6.91
519.492	6.93
519.692	6.97
519.893	6.94
520.094	6.98
520.294	6.96
520.495	6.97
520.695	7.02
520.896	6.98
521.096	7.01
521.297	7.04
521.497	7.03
521.698	7.05
521.898	7.08
522.099	7.05
522.299	7.07
522.499	7.07
522.7	7.08
522.9	7.09
523.101	7.12
523.301	7.13
523.501	7.15
523.702	7.15
523.902	7.16
524.102	7.15
524.302	7.18
524.503	7.18
524.703	7.18
524.903	7.2
525.103	7.24
525.304	7.25
525.504	7.27
525.704	7.27
525.904	7.29
526.104	7.3
526.304	7.3
526.504	7.29
526.705	7.31
526.905	7.33
527.105	7.37
527.305	7.36
527.505	7.34
527.705	7.32
527.905	7.35
528.105	7.31
528.305	7.34
528.505	7.33
528.705	7.35
528.905	7.37
529.105	7.44
529.304	7.47
529.504	7.49
529.704	7.46
529.904	7.5
530.104	7.49
530.304	7.54
530.503	7.52
530.703	7.54
530.903	7.57
531.103	7.61
531.303	7.63
531.502	7.65
531.702	7.63
531.902	7.64
532.101	7.63
532.301	7.61
532.501	7.64
532.7	7.64
532.9	7.68
533.1	7.68
533.299	7.73
533.499	7.77
533.698	7.84
533.898	7.84
534.097	7.84
534.297	7.85
534.496	7.87
534.696	7.86
534.895	7.87
535.095	7.87
535.294	7.88
535.494	7.88
535.693	7.91
535.892	7.95
536.092	7.97
536.291	7.99
536.491	8
536.69	7.99
536.889	8.01
537.088	8.03
537.288	8.08
537.487	8.08
537.686	8.14
537.886	8.18
538.085	8.24
538.284	8.27
538.483	8.31
538.682	8.29
538.882	8.34
539.081	8.34
539.28	8.34
539.479	8.35
539.678	8.41
539.877	8.43
540.076	8.45
540.275	8.49
540.474	8.48
540.673	8.49
540.872	8.5
541.071	8.53
541.27	8.53
541.469	8.6
541.668	8.6
541.867	8.7
542.066	8.75
542.265	8.8
542.464	8.84
542.663	8.95
542.862	8.99
543.06	9.06
543.259	9.07
543.458	9.12
543.657	9.17
543.856	9.19
544.054	9.2
544.253	9.21
544.452	9.21
544.651	9.22
544.849	9.25
545.048	9.25
545.247	9.29
545.445	9.3
545.644	9.36
545.843	9.42
546.041	9.44
546.24	9.5
546.438	9.57
546.637	9.64
546.836	9.68
547.034	9.72
547.233	9.76
547.431	9.83
547.63	9.87
547.828	9.89
548.027	9.88
548.225	9.96
548.423	10.01
548.622	10.07
548.82	10.16
549.019	10.19
549.217	10.3
549.415	10.37
549.614	10.42
549.812	10.46
550.01	10.53
550.209	10.57
550.407	10.65
550.605	10.71
550.803	10.78
551.002	10.84
551.2	10.92
551.398	10.96
551.596	11.02
551.794	11.09
551.993	11.13
552.191	11.21
552.389	11.29
552.587	11.34
552.785	11.45
552.983	11.54
553.181	11.58
553.379	11.66
553.577	11.71
553.775	11.82
553.973	11.9
554.171	11.95
554.369	12
554.567	12.11
554.765	12.17
554.963	12.24
555.161	12.33
555.359	12.4
555.557	12.48
555.755	12.56
555.952	12.63
556.15	12.72
556.348	12.85
556.546	12.89
556.744	13.03
556.941	13.15
557.139	13.25
557.337	13.32
557.535	13.43
557.732	13.5
557.93	13.63
558.128	13.65
558.325	13.75
558.523	13.85
558.721	13.95
558.918	13.99
559.116	14.09
559.313	14.17
559.511	14.29
559.708	14.37
559.906	14.42
560.104	14.51
560.301	14.62
560.498	14.67
560.696	14.71
560.893	14.78
561.091	14.88
561.288	15.01
561.486	15.11
561.683	15.23
561.88	15.34
562.078	15.47
562.275	15.58
562.473	15.66
562.67	15.72
562.867	15.82
563.064	15.92
563.262	16.05
563.459	16.1
563.656	16.22
563.853	16.32
564.051	16.41
564.248	16.51
564.445	16.55
564.642	16.63
564.839	16.8
565.036	16.89
565.234	16.95
565.431	17.03
565.628	17.12
565.825	17.21
566.022	17.32
566.219	17.3
566.416	17.38
566.613	17.48
566.81	17.55
567.007	17.58
567.204	17.62
567.401	17.67
567.598	17.79
567.795	17.81
567.991	17.91
568.188	17.99
568.385	18.05
568.582	18.16
568.779	18.24
568.976	18.29
569.172	18.42
569.369	18.42
569.566	18.43
569.763	18.51
569.96	18.52
570.156	18.51
570.353	18.59
570.55	18.59
570.746	18.61
570.943	18.73
571.14	18.76
571.336	18.84
571.533	18.91
571.729	18.91
571.926	18.95
572.123	19
572.319	19.01
572.516	19.06
572.712	19.06
572.909	19.05
573.105	19.1
573.302	19.07
573.498	19.11
573.695	19.09
573.891	19.17
574.087	19.19
574.284	19.24
574.48	19.22
574.677	19.31
574.873	19.35
575.069	19.46
575.266	19.4
575.462	19.4
575.658	19.42
575.854	19.44
576.051	19.39
576.247	19.38
576.443	19.32
576.639	19.35
576.835	19.37
577.032	19.31
577.228	19.32
577.424	19.34
577.62	19.37
577.816	19.38
578.012	19.37
578.208	19.37
578.404	19.43
578.6	19.44
578.796	19.44
578.993	19.41
579.189	19.34
579.384	19.31
579.58	19.3
579.776	19.26
579.972	19.19
580.168	19.14
580.364	19.09
580.56	19.11
580.756	19.1
580.952	19.06
581.148	19.02
581.343	19.04
581.539	18.99
581.735	19.01
581.931	19.02
582.127	18.98
582.322	18.98
582.518	18.97
582.714	18.94
582.909	18.98
583.105	18.93
583.301	18.84
583.496	18.82
583.692	18.75
583.888	18.72
584.083	18.71
584.279	18.73
584.474	18.7
584.67	18.73
584.866	18.71
585.061	18.72
585.257	18.7
585.452	18.67
585.648	18.63
585.843	18.62
586.039	18.59
586.234	18.59
586.429	18.58
586.625	18.57
586.82	18.5
587.015	18.52
587.211	18.5
587.406	18.52
587.601	18.55
587.797	18.58
587.992	18.6
588.187	18.69
588.383	18.7
588.578	18.69
588.773	18.69
588.968	18.73
589.163	18.7
589.359	18.7
589.554	18.71
589.749	18.7
589.944	18.74
590.139	18.75
590.334	18.69
590.529	18.74
590.724	18.74
590.919	18.79
591.114	18.81
591.309	18.86
591.504	18.88
591.699	18.93
591.894	18.95
592.089	19.01
592.284	18.97
592.479	18.98
592.674	18.97
592.869	19
593.064	19.07
593.259	19.1
593.454	19.11
593.648	19.16
593.843	19.22
594.038	19.26
594.233	19.31
594.428	19.35
594.622	19.37
594.817	19.48
595.012	19.52
595.206	19.61
595.401	19.68
595.596	19.81
595.79	19.84
595.985	19.93
596.18	19.99
596.374	20.09
596.569	20.14
596.763	20.26
596.958	20.32
597.153	20.4
597.347	20.53
597.542	20.59
597.736	20.7
597.931	20.81
598.125	20.86
598.319	20.89
598.514	20.92
598.708	20.89
598.903	20.94
599.097	20.95
599.291	20.99
599.486	20.99
599.68	20.97
599.874	21.04
600.069	21.08
600.263	21.1
600.457	21.14
600.651	21.16
600.846	21.19
601.04	21.27
601.234	21.33
601.428	21.37
601.622	21.4
601.817	21.47
602.011	21.5
602.205	21.54
602.399	21.55
602.593	21.53
602.787	21.61
602.981	21.65
603.175	21.61
603.369	21.59
603.563	21.59
603.757	21.59
603.951	21.59
604.145	21.55
604.339	21.54
604.533	21.52
604.727	21.56
604.921	21.53
605.115	21.49
605.309	21.49
605.502	21.5
605.696	21.44
605.89	21.44
606.084	21.35
606.278	21.31
606.471	21.27
606.665	21.17
606.859	21.07
607.053	21.03
607.246	20.95
607.44	20.91
607.634	20.85
607.827	20.8
608.021	20.75
608.214	20.73
608.408	20.65
608.602	20.59
608.795	20.56
608.989	20.55
609.182	20.53
609.376	20.51
609.569	20.43
609.763	20.38
609.956	20.34
610.15	20.2
610.343	20.1
610.537	20
610.73	19.95
610.923	19.9
611.117	19.79
611.31	19.71
611.504	19.69
611.697	19.64
611.89	19.54
612.083	19.45
612.277	19.33
612.47	19.29
612.663	19.23
612.856	19.15
613.05	19.07
613.243	19.03
613.436	18.91
613.629	18.84
613.822	18.79
614.015	18.69
614.209	18.65
614.402	18.58
614.595	18.49
614.788	18.45
614.981	18.39
615.174	18.31
615.367	18.26
615.56	18.19
615.753	18.09
615.946	18.09
616.139	18.05
616.332	17.98
616.525	17.93
616.718	17.86
616.911	17.83
617.103	17.78
617.296	17.69
617.489	17.61
617.682	17.58
617.875	17.54
618.067	17.54
618.26	17.46
618.453	17.42
618.646	17.38
618.838	17.38
619.031	17.36
619.224	17.33
619.417	17.26
619.609	17.23
619.802	17.22
619.994	17.17
620.187	17.13
620.38	17.1
620.572	17.09
620.765	17.05
620.957	16.96
621.15	16.96
621.342	16.94
621.535	16.87
621.727	16.8
621.92	16.78
622.112	16.79
622.305	16.81
622.497	16.75
622.69	16.75
622.882	16.74
623.074	16.75
623.267	16.64
623.459	16.58
623.651	16.58
623.844	16.56
624.036	16.53
624.228	16.53
624.42	16.5
624.613	16.53
624.805	16.51
624.997	16.45
625.189	16.45
625.381	16.38
625.574	16.37
625.766	16.33
625.958	16.29
626.15	16.34
626.342	16.34
626.534	16.25
626.726	16.25
626.918	16.19
627.11	16.17
627.302	16.1
627.494	16.03
627.686	15.99
627.878	15.97
628.07	15.94
628.262	15.89
628.454	15.85
628.646	15.83
628.838	15.77
629.029	15.66
629.221	15.64
629.413	15.57
629.605	15.52
629.797	15.48
629.989	15.45
630.18	15.43
630.372	15.47
630.564	15.46
630.755	15.46
630.947	15.44
631.139	15.4
631.33	15.43
631.522	15.41
631.714	15.36
631.905	15.3
632.097	15.27
632.289	15.23
632.48	15.18
632.672	15.09
632.863	15.01
633.055	15.02
633.246	14.98
633.438	14.94
633.629	14.92
633.821	14.94
634.012	14.92
634.203	14.94
634.395	14.92
634.586	14.91
634.777	14.84
634.969	14.8
635.16	14.74
635.351	14.68
635.543	14.62
635.734	14.56
635.925	14.62
636.117	14.63
636.308	14.61
636.499	14.59
636.69	14.63
636.881	14.66
637.073	14.65
637.264	14.53
637.455	14.5
637.646	14.51
637.837	14.49
638.028	14.48
638.219	14.44
638.41	14.41
638.601	14.43
638.792	14.4
638.983	14.32
639.174	14.33
639.365	14.23
639.556	14.17
639.747	14.18
639.938	14.16
640.129	14.12
640.32	14.12
640.511	14.09
640.701	14.09
640.892	14.08
641.083	13.96
641.274	13.91
641.465	13.91
641.655	13.89
641.846	13.83
642.037	13.8
642.228	13.73
642.418	13.69
642.609	13.67
642.8	13.59
642.99	13.59
643.181	13.58
643.372	13.53
643.562	13.55
643.753	13.54
643.943	13.49
644.134	13.53
644.324	13.47
644.515	13.43
644.705	13.43
644.896	13.37
645.086	13.31
645.277	13.35
645.467	13.27
645.658	13.27
645.848	13.27
646.038	13.22
646.229	13.23
646.419	13.26
646.61	13.22
646.8	13.21
646.99	13.22
647.18	13.2
647.371	13.2
647.561	13.11
647.751	13.06
647.941	12.99
648.132	12.97
648.322	12.91
648.512	12.91
648.702	12.84
648.892	12.96
649.082	12.95
649.272	12.91
649.462	12.89
649.653	12.91
649.843	12.8
650.033	12.85
650.223	12.7
650.413	12.72
650.603	12.73
650.793	12.71
650.983	12.65
651.172	12.66
651.362	12.62
651.552	12.62
651.742	12.52
651.932	12.55
652.122	12.46
652.312	12.38
652.502	12.31
652.691	12.26
652.881	12.2
653.071	12.18
653.261	12.14
653.45	12.12
653.64	12.12
653.83	12.08
654.019	11.93
654.209	11.9
654.399	11.8
654.588	11.68
654.778	11.6
654.968	11.53
655.157	11.43
655.347	11.41
655.536	11.29
655.726	11.24
655.915	11.13
656.105	11.06
656.294	10.9
656.484	10.84
656.673	10.72
656.863	10.63
657.052	10.46
657.241	10.36
657.431	10.2
657.62	10.08
657.809	9.92
657.999	9.8
658.188	9.68
658.377	9.66
658.567	9.53
658.756	9.4
658.945	9.31
659.134	9.2
659.324	9.11
659.513	9.01
659.702	8.85
659.891	8.72
660.08	8.64
660.269	8.53
660.458	8.45
660.648	8.32
660.837	8.22
661.026	8.09
661.215	8.04
661.404	7.95
661.593	7.84
661.782	7.71
661.971	7.63
662.16	7.52
662.349	7.42
662.538	7.31
662.726	7.22
662.915	7.14
663.104	7.03
663.293	6.98
663.482	6.89
663.671	6.81
663.86	6.77
664.048	6.68
664.237	6.64
664.426	6.63
664.615	6.53
664.803	6.51
664.992	6.5
665.181	6.44
665.369	6.41
665.558	6.39
665.747	6.39
665.935	6.44
666.124	6.46
666.312	6.41
666.501	6.39
666.69	6.38
666.878	6.33
667.067	6.32
667.255	6.26
667.444	6.22
667.632	6.18
667.82	6.16
668.009	6.18
668.197	6.19
668.386	6.14
668.574	6.12
668.762	6.1
668.951	6.12
669.139	6.15
669.327	6.16
669.516	6.13
669.704	6.19
669.892	6.19
670.08	6.19
670.269	6.24
670.457	6.23
670.645	6.23
670.833	6.26
671.021	6.23
671.21	6.32
671.398	6.38
671.586	6.36
671.774	6.31
671.962	6.33
672.15	6.34
672.338	6.41
672.526	6.41
672.714	6.44
672.902	6.51
673.09	6.65
673.278	6.71
673.466	6.83
673.654	6.88
673.842	6.92
674.03	7.01
674.218	7.01
674.405	7.07
674.593	7.12
674.781	7.12
674.969	7.13
675.157	7.15
675.344	7.16
675.532	7.26
675.72	7.21
675.908	7.25
676.095	7.36
676.283	7.37
676.471	7.47
676.658	7.5
676.846	7.58
677.033	7.68
677.221	7.8
677.409	7.83
677.596	8
677.784	8.03
677.971	8.13
678.159	8.2
678.346	8.3
678.534	8.36
678.721	8.37
678.909	8.38
679.096	8.46
679.283	8.49
679.471	8.6
679.658	8.68
679.846	8.72
680.033	8.85
680.22	8.92
680.408	9.01
680.595	9.08
680.782	9.16
680.969	9.21
681.157	9.23
681.344	9.37
681.531	9.45
681.718	9.55
681.905	9.72
682.093	9.83
682.28	9.99
682.467	10.08
682.654	10.14
682.841	10.33
683.028	10.5
683.215	10.62
683.402	10.66
683.589	10.74
683.776	10.93
683.963	11.08
684.15	11.17
684.337	11.29
684.524	11.49
684.711	11.69
684.898	11.86
685.085	12.14
685.271	12.29
685.458	12.52
685.645	12.73
685.832	12.89
686.019	13.14
686.205	13.43
686.392	13.64
686.579	13.97
686.766	14.24
686.952	14.57
687.139	14.84
687.326	15.16
687.512	15.43
687.699	15.77
687.886	16.09
688.072	16.49
688.259	16.79
688.445	17.19
688.632	17.65
688.818	18
689.005	18.47
689.191	18.85
689.378	19.22
689.564	19.74
689.751	20.28
689.937	20.62
690.124	21.19
690.31	21.64
690.496	22.25
690.683	22.85
690.869	23.35
691.055	23.91
691.242	24.51
691.428	25.12
691.614	25.83
691.8	26.35
691.987	27.02
692.173	27.72
692.359	28.39
692.545	29.1
692.731	29.75
692.918	30.36
693.104	31.05
693.29	31.63
693.476	32.24
693.662	32.82
693.848	33.36
694.034	33.87
694.22	34.45
694.406	35.19
694.592	35.89
694.778	36.59
694.964	37.26
695.15	38.07
695.336	39.07
695.522	39.86
695.708	40.65
695.894	41.45
696.08	42.14
696.265	42.91
696.451	43.77
696.637	44.36
696.823	45.04
697.009	45.7
697.194	46.39
697.38	47.11
697.566	47.86
697.751	48.55
697.937	49.22
698.123	49.94
698.308	50.59
698.494	51.19
698.68	51.95
698.865	52.64
699.051	53.2
699.236	53.91
699.422	54.52
699.607	55.07
699.793	55.68
699.978	56.16
700.164	56.7
700.349	57.16
700.535	57.69
700.72	58.41
700.906	59.1
701.091	59.65
701.276	60.22
701.462	60.91
701.647	61.48
701.832	62.01
702.018	62.4
702.203	62.89
702.388	63.39
702.573	64.13
702.759	64.48
702.944	65.25
703.129	65.89
703.314	66.55
703.499	67.14
703.684	67.78
703.87	68.09
704.055	68.7
704.24	69.01
704.425	69.5
704.61	69.78
704.795	70.15
704.98	70.44
705.165	70.92
705.35	71.16
705.535	71.63
705.72	71.77
705.905	72.23
706.09	72.51
706.275	72.84
706.459	73.28
706.644	73.7
706.829	74.01
707.014	74.34
707.199	74.52
707.384	74.96
707.568	75.44
707.753	75.79
707.938	76.07
708.123	76.18
708.307	76.7
708.492	77.09
708.677	77.54
708.861	77.89
709.046	77.98
709.231	78.41
709.415	78.91
709.6	79.11
709.784	79.48
709.969	79.73
710.153	80.19
710.338	80.48
710.522	80.57
710.707	80.53
710.891	81.04
711.076	81.11
711.26	81.38
711.445	81.36
711.629	81.76
711.813	81.97
711.998	82.2
712.182	82.27
712.366	82.66
712.551	82.88
712.735	82.97
712.919	83.1
713.103	83.39
713.288	84.01
713.472	84.17
713.656	84.45
713.84	84.75
714.024	85.21
714.208	85.34
714.393	85.6
714.577	85.62
714.761	85.84
714.945	85.68
715.129	85.59
715.313	85.64
715.497	85.87
715.681	86.16
715.865	86.27
716.049	86.41
716.233	86.93
716.417	87.25
716.601	87.37
716.785	87.58
716.968	87.5
717.152	87.49
717.336	87.57
717.52	87.5
717.704	87.58
717.888	87.76
718.071	87.76
718.255	87.97
718.439	88.26
718.622	88.55
718.806	88.72
718.99	88.96
719.174	88.97
719.357	89.28
719.541	89.5
719.724	89.88
719.908	89.89
720.092	90.1
720.275	90.08
720.459	90.12
720.642	90.3
720.826	90.2
721.009	89.91
721.193	90.08
721.376	90.18
721.559	90.41
721.743	90.77
721.926	90.35
722.11	90.62
722.293	90.44
722.476	90.5
722.66	90.6
722.843	90.51
723.026	90.74
723.21	91.19
723.393	91.35
723.576	91.59
723.759	91.8
723.942	91.82
724.126	91.91
724.309	91.89
724.492	91.84
724.675	91.88
724.858	92.38
725.041	92.31
725.224	92.42
725.407	92.59
725.59	92.67
725.774	92.81
725.957	93.12
726.14	93.11
726.322	93
726.505	93.37
726.688	93.58
726.871	93.67
727.054	94.17
727.237	94.04
727.42	94.27
727.603	94.7
727.786	94.74
727.968	94.94
728.151	95.25
728.334	95.09
728.517	95.22
728.699	95.55
728.882	95.95
729.065	95.79
729.248	95.55
729.43	95.25
729.613	95.68
729.796	95.78
729.978	95.7
730.161	95.61
730.343	95.91
730.526	96.41
730.708	97.35
730.891	97.25
731.073	97.5
731.256	97.53
731.438	97.7
731.621	98.14
731.803	98.49
731.986	98.16
732.168	98.11
732.35	98.28
732.533	98.44
732.715	98.43
732.898	98.39
733.08	98.12
733.262	98.15
733.444	98.1
733.627	98.18
733.809	98.32
733.991	98.29
734.173	97.57
734.355	97.72
734.538	97.43
734.72	98.02
734.902	97.79
735.084	98.03
735.266	98.47
735.448	99.14
735.63	99.19
735.812	99.59
735.994	98.73
736.176	99.32
736.358	99.37
736.54	99.2
736.722	98.9
736.904	98.85
737.086	98.98
737.268	100.04
737.45	99.88
737.632	98.83
737.814	98.79
737.995	99.38
738.177	99.61
738.359	100.02
738.541	99.31
738.723	99.19
738.904	99.88
739.086	99.84
739.268	100.23
739.449	100.17
739.631	99.42
739.813	99.75
739.994	100.1
740.176	100.24
740.358	100.57
740.539	99.8
740.721	99.64
740.902	99.6
741.084	99.56
741.265	98.78
741.447	98.89
741.628	98.72
741.81	99.46
741.991	100.01
742.172	100.56
742.354	101.36
742.535	102.09
742.717	102.18
742.898	102.21
743.079	101.77
743.261	101.62
743.442	101.7
743.623	101.11
743.804	101.27
743.986	101.02
744.167	100.83
744.348	101.14
744.529	100.35
744.71	99.76
744.891	100.14
745.073	99.95
745.254	100.16
745.435	99.96
745.616	99.55
745.797	99.77
745.978	100.88
746.159	100.53
746.34	100.59
746.521	100.58
746.702	100.97
746.883	100.81
747.064	100.82
747.245	100.85
747.426	100.85
747.606	100.89
747.787	101.13
747.968	101.19
748.149	101.22
748.33	101.98
748.51	101.14
748.691	101.7
748.872	101.62
749.053	101.56
749.233	101.29
749.414	102.25
749.595	101.27
749.775	101.44
749.956	100.36
750.137	100.28
750.317	100.28
750.498	100.74
750.678	100.1
750.859	100.96
751.04	101.24
751.22	101.18
751.4	100.78
751.581	100.63
751.761	100.89
751.942	101.16
752.122	100.84
752.303	100.71
752.483	101.23
752.663	102.2
752.844	101.37
753.024	101.35
753.204	101.29
753.385	100.97
753.565	100.12
753.745	100.33
753.925	99.32
754.106	99.89
754.286	99.53
754.466	98.82
754.646	99.03
754.826	99.32
755.006	98.49
755.187	98.96
755.367	98.73
755.547	99.17
755.727	98.63
755.907	99.29
756.087	99.42
756.267	99.73
756.447	99.75
756.627	100.28
756.807	100.52
756.987	102.43
757.167	101.96
757.346	101.59
757.526	101.69
757.706	101.65
757.886	101.44
758.066	100.73
758.246	100.46
758.425	100.34
758.605	100.78
758.785	100.96
758.965	99.39
759.144	99.56
759.324	99.7
759.504	99.41
759.683	98.66
759.863	98.3
760.043	97.81
760.222	98.6
760.402	99.13
760.581	98.55
760.761	97.46
760.94	97.2
761.12	97.59
761.299	97.46
761.479	98.9
761.658	97.45
761.838	98.47
762.017	99.38
762.197	100.26
762.376	99.93
762.555	100.48
762.735	98.52
762.914	99.66
763.093	98.56
763.273	97.89
763.452	97.07
763.631	96.15
763.81	96.77
763.99	97.67
764.169	96.67
764.348	97.61
764.527	97.6
764.706	98.14
764.885	99.57
765.064	98.34
765.243	97.72
765.423	99.26
765.602	97.2
765.781	97.54
765.96	97.6
766.139	96.07
766.318	96.75
766.497	97.72
766.676	96.94
766.854	97.92
767.033	97.29
767.212	96.77
767.391	97.75
767.57	97.45
767.749	96.82
767.928	95.92
768.106	96.15
768.285	96.91
768.464	97.14
768.643	97.23
768.821	96.85
769	97.53
769.179	96.79
769.357	96.7
769.536	95.54
769.715	95.26
769.893	94.54
770.072	94.29
770.25	93.27
770.429	94.32
770.607	94.18
770.786	94.92
770.964	95.31
771.143	95.54
771.321	95.74
771.5	94.78
771.678	95.64
771.857	94.95
772.035	94.74
772.213	93.68
772.392	94.04
772.57	93.33
772.748	93.61
772.927	91.89
773.105	92.92
773.283	92.43
773.461	93.25
773.64	92.31
773.818	92.09
773.996	93
774.174	93.89
774.352	92.99
774.531	92.02
774.709	92.38
774.887	92.9
775.065	92.87
775.243	93.04
775.421	93.01
775.599	93.03
775.777	94.49
775.955	93.47
776.133	91.9
776.311	91.65
776.489	90.95
776.667	89.73
776.844	90.05
777.022	89.58
777.2	89.99
777.378	91.21
777.556	92.61
777.734	92.29
777.911	94.24
778.089	93.15
778.267	93.39
778.445	92.57
778.622	92.08
778.8	91.93
778.978	92.27
779.155	90.76
779.333	89.58
779.511	90.39
779.688	89.99
779.866	89.54
780.043	89.19
780.221	88.69
780.398	90.7
780.576	91.8
780.753	89.12
780.931	90.92
781.108	92.04
781.286	90.4
781.463	92.08
781.64	90.41
781.818	91.24
781.995	93.86
782.172	93.12
782.35	91.89
782.527	93.32
782.704	91.83
782.882	93.04
783.059	91.88
783.236	91.58
783.413	91.77
783.59	91.4
783.768	89.8
783.945	90.45
784.122	89.42
784.299	90.59
784.476	89.86
784.653	88.98
784.83	89.84
785.007	92.04
785.184	91.24
785.361	92.23
785.538	90.85
785.715	90.55
785.892	89.11
786.069	89.19
786.246	87.37
786.423	89.47
786.6	90.55
786.776	91.13
786.953	90.73
787.13	93.31
787.307	94.8
787.484	95.64
787.66	93.42
787.837	90.84
788.014	90.91
788.191	91.13
788.367	89.6
788.544	87.37
788.721	87.45
788.897	88.47
789.074	87.86
789.25	90.88
789.427	90.86
789.603	93.59
789.78	95.39
789.956	95.41
790.133	95.2
790.309	96.32
790.486	95.09
790.662	95.49
790.839	95.84
791.015	95.89
791.192	96.23
791.368	95.67
791.544	95.53
791.721	93.71
791.897	92.9
792.073	90.11
792.249	90
792.426	90.34
792.602	88.92
792.778	87.02
792.954	86.16
793.13	88.55
793.307	85.92
793.483	84.67
793.659	84.73
793.835	84.19
794.011	83.66
794.187	81.39
794.363	80.68
794.539	82.37
794.715	81.73
794.891	78.45
795.067	82.16
795.243	84.26
795.419	88.65
795.595	87.77
795.771	90.46
795.947	90.95
796.122	92.49
796.298	88.24
796.474	89.76
796.65	88.6
796.826	91.05
797.001	89.3
797.177	89.81
797.353	92.97
797.529	95.93
797.704	93.77
797.88	93.64
798.056	91.76
798.231	90.96
798.407	92.77
798.582	91.05
798.758	92.62
798.934	91.53
799.109	89.98
799.285	88.27
799.46	88.36
799.636	86.08
799.811	86.48
799.986	85.51
800.162	86.04
800.337	85.66
800.513	88.05
800.688	89.6
800.863	91.01
801.039	87.24
801.214	84.86
801.389	85.07
801.565	87.46
801.74	83.74
801.915	84.71
802.09	83.35
802.265	84.96
802.441	87.74
802.616	87.84
802.791	87.49
802.966	88.42
803.141	84.54
803.316	87.19
803.491	85.93
803.666	83
803.841	83.06
804.016	82.49
804.191	80.01
804.366	82.4
804.541	79.3
804.716	80.26
804.891	85.92
805.066	84.39
805.241	83.38
805.416	84
805.591	84.86
805.765	83.75
805.94	84.25
806.115	77.48
806.29	79.73
806.464	79.45
806.639	83.42
806.814	77.74
806.989	81.02
807.163	80.51
807.338	84.55
807.512	81.48
807.687	80.54
807.862	80.27
808.036	81.42
808.211	84.48
808.385	83.78
808.56	82.66
808.734	82.01
808.909	83.14
809.083	83.02
809.258	88.69
809.432	83.2
809.606	83.44
809.781	81.69
809.955	86.51
810.13	91.72
810.304	89.6
810.478	87.75
810.652	92.86
810.827	96.47
811.001	96.98
811.175	94.66
811.349	92.15
811.524	92.66
811.698	92.47
811.872	92.19
812.046	87.86
812.22	86.86
812.394	84.98
812.568	84.7
812.742	84.95
812.916	82.79
813.09	79.81
813.264	81.64
813.438	89.01
813.612	87.14
813.786	85.05
813.96	85.23
814.134	89.58
814.308	89.84
814.482	89.58
814.656	87.65
814.83	92.56
815.003	95.43
815.177	94.95
815.351	95.2
815.525	93.72
815.698	95.67
815.872	92.8
816.046	93.38
816.219	91.75
816.393	85.46
816.567	77.99
816.74	81.65
816.914	84.71
817.088	80.32
817.261	77.79
817.435	75.82
817.608	80.97
817.782	90.94
817.955	83.99
818.129	80.84
818.302	86.24
818.475	90.23
818.649	86.91
818.822	89.12
818.996	84.64
819.169	88.29
819.342	80.17
819.516	75.73
819.689	74.82
819.862	74.56
820.035	70.46
820.209	69.68
820.382	69.24
820.555	75.56
820.728	75.12
820.901	66.27
821.075	71.04
821.248	72.38
821.421	70.39
821.594	68.82
821.767	70.63
821.94	69.93
822.113	77.68
822.286	84.78
822.459	93.22
822.632	98.11
822.805	98.35
822.978	92.11
823.151	96.1
823.324	82
823.496	67.34
823.669	61.16
823.842	61
824.015	59.82
824.188	56.46
824.361	61.41
824.533	73.03
824.706	88.75
824.879	95.33
825.051	98.1
825.224	94.88
825.397	97.7
825.569	102.17
825.742	99.89
825.915	89.38
826.087	79.06
826.26	78.65
826.432	87.42
826.605	83.23
826.777	68.57
826.95	64.16
827.122	73.28
827.295	77.73
827.467	69.63
827.64	60.3
827.812	58.81
827.984	66.8
828.157	66.76
828.329	60.49
828.501	61.47
828.674	58.14
828.846	58.97
829.018	52.02
829.19	48.11
829.363	49.06
829.535	51.15
829.707	55.65
829.879	63.32
830.051	62.76
830.223	65.39
830.395	59.94
830.568	71.1
830.74	69.66
830.912	62.55
831.084	55.31
831.256	53.27
831.428	54.56
831.6	57.35
831.772	49.05
831.943	46.19
832.115	49.09
832.287	52.56
832.459	61.44
832.631	67.51
832.803	73.03
832.975	71.29
833.146	70.08
833.318	73.61
833.49	79.24
833.662	77.13
833.833	80.96
834.005	76.7
834.177	83.1
834.348	82.91
834.52	78.45
834.692	82.24
834.863	79.38
835.035	70.46
835.206	69.45
835.378	63.85
835.549	63.49
835.721	70.73
835.892	66.28
836.064	75.06
836.235	79.36
836.407	80.43
836.578	87.75
836.749	96.9
836.921	94.77
837.092	99.42
837.264	84.37
837.435	78.18
837.606	76.35
837.777	65.15
837.949	51.84
838.12	50.2
838.291	54.9
838.462	63.68
838.633	62.76
838.805	67.75
838.976	72.76
839.147	73.26
839.318	68.67
839.489	65.48
839.66	76.24
839.831	77.53
840.002	74.14
840.173	75.85
840.344	80.72
840.515	85.23
840.686	83.42
840.857	71.83
841.028	72.44
841.199	80.43
841.369	82.89
841.54	88.18
841.711	98.88
841.882	104.36
842.053	97.71
842.223	107.58
842.394	90.93
842.565	89.35
842.736	86.1
842.906	82.62
843.077	77.64
843.248	86.04
843.418	85.41
843.589	94.5
843.759	95.17
843.93	93.53
844.101	85.6
844.271	86.12
844.442	79.62
844.612	68.42
844.783	44.35
844.953	33.32
845.123	37.54
845.294	34.99
845.464	47.31
845.635	55.37
845.805	68.58
845.975	72.82
846.146	75.27
846.316	85.76
846.486	88.02
846.656	79.83
846.827	76.76
846.997	86.36
847.167	87.74
847.337	89.81
847.507	88.94
847.677	96.22
847.848	108.49
848.018	106.31
848.188	90.89
848.358	96.08
848.528	101.42
848.698	73.03
848.868	46.55
849.038	36.73
849.208	29.91
849.378	23.31
849.548	40.83
849.718	25.76
849.887	26.73
850.057	42.55
850.227	50.98
850.397	47.1
850.567	69.09
850.737	49.24
850.906	45.93
851.076	50.58
851.246	48.06
851.415	38.41
851.585	57.02
851.755	51.11
851.924	65.07
852.094	73.12
852.264	69.86
852.433	84.07
852.603	92.06
852.772	88.88
852.942	76.84
853.111	83.04
853.281	88.25
853.45	89.56
853.62	72.85
853.789	72.55
853.959	69.45
854.128	60.56
854.297	55.58
854.467	53.64
854.636	57.42
854.805	72.5
854.975	82.62
855.144	92.01
855.313	113.75
855.482	102.94
855.652	96.96
855.821	105.36
855.99	116.38
856.159	100.57
856.328	70.89
856.497	65.87
856.667	72.37
856.836	84.58
857.005	76.73
857.174	78.93
857.343	83.2
857.512	89.01
857.681	93.45
857.85	87.81
858.019	73.76
858.188	74.2
858.356	45.98
858.525	52.95
858.694	65.53
858.863	57.1
859.032	51.03
859.201	50.69
859.369	60.72
859.538	60.68
859.707	54.88
859.876	44.97
860.044	50.66
860.213	61.25
860.382	65.71
860.55	83.72
860.719	86.69
860.888	81.51
861.056	103.21
861.225	121.85
861.393	113.83
861.562	90.79
861.73	70.3
861.899	71.36
862.067	74.62
862.236	59.32
862.404	43.34
862.572	47.68
862.741	62.12
862.909	54.58
863.078	49.6
863.246	56.08
863.414	77.83
863.582	81.4
863.751	68.04
863.919	68.29
864.087	70.01
864.255	63.21
864.424	61.16
864.592	51.96
864.76	61.53
864.928	53.46
865.096	38.89
865.264	38.25
865.432	49.69
865.6	40.32
865.768	26.14
865.936	3.96
866.104	27.74
866.272	32.15
866.44	12.67
866.608	-7.87
866.776	30.71
866.944	35.07
867.112	43.59
867.28	27.78
867.448	32.21
867.615	81.84
867.783	70.29
867.951	90.41
868.119	101.32
868.286	106.19
868.454	92.79
868.622	94.32
868.789	69
868.957	92.39
869.125	68.6
869.292	66.36
869.46	63.06
869.627	48.59
869.795	50.75
869.963	53.85
870.13	53.28
870.298	55.19
870.465	42.31
870.632	38.66
870.8	38
870.967	36.29
871.135	43.1
871.302	40.25
871.469	45.2
871.637	39.48
871.804	45.1
871.971	43.29
872.139	48.89
872.306	46.13
872.473	34.75
872.64	26.96
872.807	39.01
872.975	15.18
873.142	12.71
873.309	4.69
873.476	4.03
873.643	79.24
873.81	92.14
873.977	64.54
874.144	152.95
874.311	136.37
874.478	81.74
874.645	84.09
874.812	61.69
874.979	53.77
875.146	65.25
875.313	35.39
875.48	89.65
875.647	86.95
875.813	45.41
875.98	68.77
876.147	74.21
876.314	74.19
876.481	54.9
876.647	51.1
876.814	54.81
876.981	54.62
877.147	35.76
877.314	44.32
877.481	55.45
877.647	68.48
877.814	57.21
877.98	91.34
878.147	78.27
878.314	93.71
878.48	89.53
878.647	96.44
878.813	93.78
878.979	119.42
879.146	70.18
879.312	95.03
879.479	80.81
879.645	67.14
879.811	65.27
879.978	66.11
880.144	81.73
880.31	93.98
880.477	80.06
880.643	139.26
880.809	155.47
880.975	108.34
881.142	80.92
881.308	80.59
881.474	160.44
881.64	122.94
881.806	88.5
881.972	94.64
882.138	88.8
882.304	96.23
882.47	67.84
882.636	-45.61
882.802	-38.4
882.968	-44.42
883.134	-162.19
883.3	-26.86
883.466	57.26
883.632	33.22
883.798	81.15
883.964	79.62
884.129	70.98
884.295	59.46
884.461	60.13
884.627	28.72
884.793	53.63
884.958	47.6
885.124	10.94
885.29	23.93
885.455	30.93
885.621	19.63
885.787	24.56
885.952	12.28
886.118	24.31
886.283	46.3
886.449	23.37
886.614	24.28
886.78	53.88
886.945	24.72
887.111	25.75
887.276	10.04
887.442	4.45
887.607	6.74
887.773	5.82
887.938	-17.5
888.103	33.37
888.269	41.13
888.434	57.86
888.599	72.58
888.764	76.42
888.93	94.02
889.095	69.24
889.26	91.37
889.425	109.93
889.59	74.17
889.756	70.88
889.921	68.93
890.086	76.74
890.251	94.81
890.416	26.3
890.581	7.45
890.746	7.05
890.911	-40.98
891.076	-91.62
891.241	-161.99
891.406	-23.3
891.571	15.86
891.736	23.71
891.901	47.72
892.065	71.33
892.23	68.05
892.395	38.38
892.56	19.25
892.725	25.8
892.889	-7.85
893.054	-49.1
893.219	-93.58
893.384	-118.35
893.548	-182.5
893.713	382.43
893.878	304.89
