Data from Ofra_2a_PS_OGT35_Reflection_3.txt Node
Date: Tue Jul 20 09:29:54 EDT 2021
User: Adam
Spectrometer: FLMT01687
Trigger mode: 0
Integration Time (sec): 9.450000E-1
Scans to average: 3
Electric dark correction enabled: true
Nonlinearity correction enabled: false
Boxcar width: 3
XAxis mode: Wavelengths
Number of Pixels in Spectrum: 3648
>>>>>Begin Spectral Data<<<<<
179.494	467.46
179.716	315.76
179.937	320.33
180.158	1326.95
180.38	-534.01
180.601	-156.23
180.823	-88.01
181.044	-38.35
181.265	-87.68
181.486	-1.46
181.708	-222.83
181.929	-15.47
182.15	-286.93
182.372	17.42
182.593	19.61
182.814	330.39
183.035	195.76
183.257	49.8
183.478	30.03
183.699	35.93
183.92	29.69
184.141	22.63
184.363	5.95
184.584	9.79
184.805	29.51
185.026	7.46
185.247	0.17
185.468	-6.8
185.689	4.98
185.91	10.01
186.132	2.23
186.353	-29.25
186.574	-12.54
186.795	-23.71
187.016	-18.44
187.237	-20.86
187.458	-40.2
187.679	-52.9
187.9	-36.22
188.121	-11.56
188.342	19.94
188.563	9.15
188.784	3.29
189.005	12.31
189.226	14.92
189.447	14.17
189.667	7.73
189.888	6.37
190.109	8.6
190.33	3.75
190.551	-8.46
190.772	-13.27
190.993	3.84
191.214	-2.41
191.434	-9.79
191.655	9.18
191.876	14.32
192.097	24.83
192.318	27.29
192.538	14.74
192.759	25.02
192.98	15
193.201	21.08
193.421	17.04
193.642	11.55
193.863	-0.47
194.083	17.29
194.304	-2.05
194.525	29.11
194.745	-0.82
194.966	11.2
195.187	16.19
195.407	22.08
195.628	17.76
195.848	15.6
196.069	12
196.29	14.86
196.51	11.39
196.731	10.29
196.951	-0.76
197.172	-13.51
197.392	7.97
197.613	-13.51
197.833	-19
198.054	-15.31
198.274	-26.7
198.495	-22.55
198.715	-11.95
198.936	-31.17
199.156	-8.13
199.377	-1.53
199.597	-12.86
199.817	-9.58
200.038	-10.42
200.258	-18.99
200.479	-16.89
200.699	-13.94
200.919	-21.25
201.14	-2.72
201.36	2.55
201.58	20.83
201.801	24.77
202.021	28.06
202.241	25.31
202.461	37.88
202.682	33.2
202.902	31.91
203.122	26.52
203.342	18.65
203.563	16.52
203.783	13.88
204.003	4.7
204.223	14.7
204.443	7.92
204.663	10
204.884	16.35
205.104	10.97
205.324	11.12
205.544	9.04
205.764	3.5
205.984	17.3
206.204	14.69
206.424	22.04
206.644	21.21
206.864	28.36
207.084	48.57
207.304	39.49
207.525	39.98
207.745	37.16
207.964	33.19
208.184	30.63
208.404	25.62
208.624	-7.88
208.844	-6.43
209.064	-6.33
209.284	-0.12
209.504	-6.29
209.724	-33.27
209.944	-32.51
210.164	-8.82
210.384	-1.47
210.604	-8.14
210.823	0.97
211.043	9.35
211.263	43.23
211.483	43.33
211.703	47.11
211.922	43.82
212.142	43.11
212.362	32.94
212.582	33.84
212.801	22.14
213.021	9.13
213.241	-4.18
213.461	-11.1
213.68	-1.75
213.9	10.65
214.12	1.5
214.339	6.81
214.559	19.29
214.779	24.22
214.998	29.23
215.218	33.24
215.438	40.2
215.657	39.91
215.877	38.63
216.096	30.31
216.316	26.64
216.535	29.76
216.755	4.71
216.974	-11.48
217.194	10.82
217.413	26.51
217.633	26.34
217.852	30.64
218.072	8.89
218.291	37.74
218.511	42.45
218.73	17.54
218.95	18.14
219.169	30.33
219.389	25.85
219.608	43.33
219.827	37.44
220.047	38.54
220.266	50.07
220.485	34.5
220.705	25
220.924	36.61
221.143	24.76
221.363	30.73
221.582	32.83
221.801	29.33
222.021	20.45
222.24	13.59
222.459	1.62
222.678	-8.69
222.897	-17.56
223.117	-23.34
223.336	-15.77
223.555	-16.29
223.774	-9.36
223.993	7.19
224.213	12.1
224.432	14
224.651	24.47
224.87	21.92
225.089	33.63
225.308	29
225.527	21.03
225.746	20.17
225.965	21.24
226.184	6.53
226.404	-1.41
226.623	4.83
226.842	19.53
227.061	23.95
227.28	36.46
227.499	30.19
227.718	34.73
227.936	29.11
228.155	26.43
228.374	25.78
228.593	29.01
228.812	30.49
229.031	31.03
229.25	36.5
229.469	50.1
229.688	51.99
229.907	42.86
230.125	31.09
230.344	21.94
230.563	24.04
230.782	14.34
231.001	9.27
231.22	1.14
231.438	9.9
231.657	13.55
231.876	22.54
232.095	19.55
232.313	25.49
232.532	28.86
232.751	31.88
232.969	38.4
233.188	43.7
233.407	26.92
233.625	35.89
233.844	35.8
234.063	29.32
234.281	23.97
234.5	18.43
234.719	5.38
234.937	11.7
235.156	7.84
235.374	-3.93
235.593	-7.35
235.811	-10.74
236.03	-17.73
236.249	1.47
236.467	1.11
236.686	-0.25
236.904	5.96
237.123	15.21
237.341	11.36
237.559	9.98
237.778	15.66
237.996	15.13
238.215	6.56
238.433	17.11
238.652	20.21
238.87	27.27
239.088	22
239.307	17.95
239.525	12.62
239.743	16.66
239.962	5.75
240.18	10.73
240.398	12.7
240.617	21.8
240.835	20.27
241.053	27.97
241.271	35.67
241.49	26.38
241.708	18.15
241.926	2.57
242.144	-3.97
242.363	-17.36
242.581	-18.67
242.799	-28.19
243.017	-10.92
243.235	-18.7
243.453	-10.79
243.672	-11.41
243.89	10.16
244.108	14.21
244.326	5.95
244.544	8.94
244.762	14.59
244.98	21.13
245.198	14.62
245.416	-1.28
245.634	3.78
245.852	18.34
246.07	13.96
246.288	1.22
246.506	-9.85
246.724	4.1
246.942	16.02
247.16	15.15
247.378	-7.58
247.596	-2.16
247.814	2.86
248.032	5.53
248.25	-5.36
248.468	8.09
248.685	8.36
248.903	23.73
249.121	23.32
249.339	24.15
249.557	22.56
249.775	22.22
249.992	13.55
250.21	6.6
250.428	9.99
250.646	9.01
250.863	11.59
251.081	16.96
251.299	25.95
251.517	20.77
251.734	26.9
251.952	26.91
252.17	14.26
252.387	19.2
252.605	18.8
252.823	-2.75
253.04	-9.31
253.258	-3.79
253.475	-6.04
253.693	5.32
253.911	-3.87
254.128	-0.41
254.346	11.07
254.563	7.27
254.781	4.85
254.998	15.61
255.216	21.3
255.433	21.09
255.651	17.79
255.868	22.69
256.086	32.05
256.303	32.17
256.521	13.44
256.738	8.71
256.956	2.65
257.173	6.95
257.39	3.47
257.608	5.46
257.825	-1.05
258.043	13.1
258.26	5.2
258.477	18.44
258.695	20.1
258.912	27.89
259.129	28.69
259.346	33.61
259.564	21.6
259.781	31.04
259.998	28.23
260.216	29.21
260.433	19.56
260.65	18.29
260.867	5.8
261.084	17.63
261.302	11.2
261.519	9.76
261.736	12.21
261.953	19.62
262.17	29.54
262.387	35.55
262.604	15.92
262.822	25.83
263.039	18.25
263.256	13.52
263.473	2.46
263.69	-17.67
263.907	-18.67
264.124	-7.41
264.341	-13.49
264.558	0.14
264.775	-3.96
264.992	-3.66
265.209	12.37
265.426	21.58
265.643	21.99
265.86	19.37
266.077	15.15
266.294	19.82
266.51	28.03
266.727	14.2
266.944	-0.11
267.161	-6.52
267.378	-13.18
267.595	-19.17
267.812	-27.93
268.028	-26.34
268.245	-18.43
268.462	-6.83
268.679	5.19
268.896	7.55
269.112	21.59
269.329	22.3
269.546	14.28
269.763	20.67
269.979	11.91
270.196	14.24
270.413	11.37
270.629	-1.51
270.846	5.27
271.063	13.19
271.279	8.32
271.496	6.97
271.712	-2.61
271.929	6.54
272.146	14.88
272.362	1.13
272.579	-9.86
272.795	-7.55
273.012	-4.57
273.228	0.58
273.445	-4.01
273.661	-2.63
273.878	8.37
274.094	14.28
274.311	9.24
274.527	11.01
274.744	3.19
274.96	3.33
275.177	-1.36
275.393	-5.71
275.609	-3.92
275.826	1.58
276.042	11.16
276.259	21.14
276.475	19.47
276.691	24.81
276.908	24.69
277.124	21.61
277.34	16.28
277.557	10.31
277.773	4.23
277.989	11.89
278.205	-8.96
278.422	-11
278.638	-8.67
278.854	-11.98
279.07	-17.17
279.286	-18.09
279.503	-22.9
279.719	6.35
279.935	2.97
280.151	7.12
280.367	14.21
280.583	10.93
280.799	16.19
281.016	17.32
281.232	5.25
281.448	-2.45
281.664	-5.54
281.88	2.49
282.096	8.74
282.312	-2.37
282.528	-24.46
282.744	-28.88
282.96	-8.65
283.176	-2.25
283.392	3.52
283.608	6.76
283.824	8.16
284.04	23.09
284.256	29.33
284.471	30.69
284.687	26
284.903	20.27
285.119	8.26
285.335	12.37
285.551	18.8
285.767	17.31
285.982	9.58
286.198	7.96
286.414	12.16
286.63	17.05
286.846	17.95
287.061	14.71
287.277	22.18
287.493	25.34
287.709	26.52
287.924	24.36
288.14	25.72
288.356	23.6
288.571	13.57
288.787	12.99
289.003	17.5
289.218	9.45
289.434	8.2
289.65	4.85
289.865	7.8
290.081	13.16
290.296	7.06
290.512	10.13
290.727	11.2
290.943	4.81
291.159	7.64
291.374	13.81
291.59	15.37
291.805	22.84
292.021	11.24
292.236	12.22
292.451	14.57
292.667	10.76
292.882	-0.01
293.098	-10.96
293.313	-26.2
293.529	-24.52
293.744	-24.89
293.959	-11.49
294.175	-13.04
294.39	-17.41
294.605	-10.35
294.821	1.39
295.036	2.13
295.251	-1.09
295.467	-13.36
295.682	-0.59
295.897	2.53
296.112	-0.73
296.328	1.54
296.543	-1.1
296.758	7.69
296.973	13.87
297.188	12.16
297.404	20.85
297.619	28.52
297.834	33.25
298.049	33.77
298.264	26.42
298.479	14.46
298.694	15.11
298.909	19.49
299.125	15.57
299.34	14.94
299.555	11
299.77	11.89
299.985	12.7
300.2	8.43
300.415	1.61
300.63	-2.29
300.845	-8.29
301.06	-4.58
301.275	-3.2
301.49	-3.7
301.704	-6.74
301.919	-9.87
302.134	-5.69
302.349	-9.23
302.564	-21.5
302.779	-20.19
302.994	-20.28
303.209	-17.42
303.423	-12.66
303.638	-9.87
303.853	8.07
304.068	19.21
304.283	14.03
304.497	17.46
304.712	15.1
304.927	7.91
305.142	8.64
305.356	4.05
305.571	6.82
305.786	1.57
306	10.2
306.215	11.61
306.43	24.67
306.644	27.53
306.859	19.23
307.074	10.6
307.288	21.28
307.503	17.84
307.717	21.2
307.932	19.32
308.147	12.03
308.361	13.98
308.576	16.9
308.79	9.47
309.005	13.32
309.219	7.74
309.434	6.56
309.648	4.45
309.863	6.95
310.077	7.99
310.292	11.32
310.506	11.63
310.72	11.2
310.935	8.12
311.149	6.66
311.364	9.76
311.578	5.46
311.792	2.02
312.007	-2.45
312.221	1.15
312.435	2.4
312.649	19.24
312.864	12.44
313.078	22.31
313.292	30.11
313.507	32.36
313.721	31.71
313.935	51.43
314.149	35.27
314.363	42.38
314.578	43.52
314.792	35.98
315.006	35.19
315.22	38.61
315.434	22.44
315.648	12.94
315.862	5.04
316.077	0.5
316.291	3.57
316.505	5.5
316.719	-16.22
316.933	-4.6
317.147	2
317.361	12.95
317.575	19.08
317.789	25.25
318.003	16.75
318.217	32.35
318.431	20.9
318.645	20.55
318.859	8.32
319.073	6.94
319.287	10.06
319.5	10.91
319.714	7.45
319.928	17.56
320.142	13.9
320.356	29.53
320.57	27.38
320.784	20.62
320.997	21.22
321.211	22.86
321.425	12.6
321.639	21.31
321.853	6.09
322.066	3.9
322.28	10.4
322.494	7.52
322.707	6.08
322.921	8.77
323.135	11.25
323.349	23.08
323.562	27.3
323.776	24.68
323.989	26.71
324.203	27.97
324.417	26.74
324.63	15.54
324.844	0.91
325.057	8.65
325.271	-0.28
325.485	0.86
325.698	8.01
325.912	18.05
326.125	23.18
326.339	38.76
326.552	25.35
326.766	29.66
326.979	31.72
327.193	13.42
327.406	4.42
327.619	-15.61
327.833	-28.83
328.046	-17.77
328.26	-28.59
328.473	-33.38
328.686	-16.94
328.9	-19.42
329.113	-0.65
329.326	7.4
329.54	5.87
329.753	17.86
329.966	15.84
330.179	22.07
330.393	22.34
330.606	17.86
330.819	20.63
331.032	21.4
331.246	21.48
331.459	25.58
331.672	22.75
331.885	15.47
332.098	9.47
332.311	-10.89
332.525	-2.18
332.738	0.34
332.951	4.27
333.164	-3.46
333.377	-11.95
333.59	0.32
333.803	6.52
334.016	2.31
334.229	-3.03
334.442	12.95
334.655	19.81
334.868	31.55
335.081	34.21
335.294	34.3
335.507	38.81
335.72	24.26
335.933	15.89
336.146	15.07
336.359	13.2
336.572	3.2
336.785	2.96
336.997	-21.06
337.21	-7.22
337.423	-12.76
337.636	-13.25
337.849	-19.4
338.062	-12.64
338.274	-11.56
338.487	-2.34
338.7	-1.66
338.913	-5.29
339.125	-11.02
339.338	4.59
339.551	4.41
339.763	7.91
339.976	10.83
340.189	6.79
340.402	3.19
340.614	7.23
340.827	-7.86
341.039	-7.87
341.252	-1.32
341.465	-4.42
341.677	-3.17
341.89	6.46
342.102	13.47
342.315	22.88
342.527	25.56
342.74	15.29
342.952	19.93
343.165	23.21
343.377	26.11
343.59	23.78
343.802	21.08
344.015	17.68
344.227	19.85
344.44	9.8
344.652	5.69
344.864	1.87
345.077	-4.83
345.289	-3.26
345.502	3.41
345.714	-1.5
345.926	4.36
346.139	12.52
346.351	-3.67
346.563	-5.63
346.775	-14.88
346.988	-17.72
347.2	-7.36
347.412	-7.76
347.624	-7.35
347.837	3.4
348.049	12.77
348.261	19.67
348.473	15.5
348.685	14.97
348.897	22.21
349.11	19.29
349.322	15.8
349.534	1.02
349.746	5.42
349.958	5.55
350.17	10.8
350.382	7.85
350.594	3.35
350.806	8.69
351.018	24.51
351.23	27.42
351.442	28.54
351.654	26.61
351.866	29.09
352.078	26.1
352.29	27.86
352.502	26.05
352.714	23.41
352.926	21.87
353.138	15.07
353.35	11.81
353.561	13.97
353.773	11.54
353.985	8.34
354.197	0.8
354.409	6.21
354.621	9.02
354.832	1.29
355.044	12.08
355.256	8.53
355.468	11.21
355.679	12.02
355.891	9.03
356.103	14.01
356.314	27.05
356.526	13.82
356.738	17.49
356.949	24.51
357.161	26.4
357.373	26.98
357.584	27.3
357.796	17.74
358.008	31.23
358.219	36.2
358.431	29.45
358.642	23.64
358.854	26.47
359.065	17.5
359.277	17.05
359.488	9.28
359.7	5.73
359.911	-3.18
360.123	5.82
360.334	5.57
360.546	3.57
360.757	9.31
360.969	15.65
361.18	10.32
361.391	15.54
361.603	19.34
361.814	18.38
362.025	19.53
362.237	14.11
362.448	9.45
362.659	2.84
362.871	4.11
363.082	-3.5
363.293	4.83
363.504	7.76
363.716	16.2
363.927	15
364.138	22.4
364.349	19.9
364.56	22.79
364.772	16.41
364.983	9.63
365.194	4.27
365.405	6.17
365.616	0.54
365.827	1.86
366.038	3.42
366.25	12.46
366.461	23.51
366.672	22.72
366.883	27.64
367.094	32.27
367.305	31.68
367.516	29.32
367.727	21.55
367.938	19.97
368.149	14.73
368.36	10.24
368.571	11.19
368.781	6.83
368.992	7.53
369.203	5
369.414	0.37
369.625	5.32
369.836	3.62
370.047	3.73
370.258	-0.33
370.468	-0.72
370.679	-2.86
370.89	5.36
371.101	3.12
371.312	3.27
371.522	1.9
371.733	-0.07
371.944	-2.38
372.155	-3.76
372.365	-10.86
372.576	-11.16
372.787	-12.12
372.997	-11.64
373.208	-0.13
373.419	0.51
373.629	7
373.84	2.63
374.05	2.17
374.261	8.12
374.472	5.18
374.682	-4.38
374.893	-1.66
375.103	-6.91
375.314	-3.1
375.524	2.55
375.735	0.51
375.945	5.61
376.156	9.8
376.366	11.31
376.577	16.31
376.787	21.81
376.997	21.89
377.208	16.54
377.418	7.32
377.629	12.01
377.839	10.36
378.049	14.4
378.26	13.47
378.47	15.08
378.68	13.51
378.89	9.89
379.101	3.72
379.311	-1.36
379.521	-1.56
379.732	-5.83
379.942	-6.34
380.152	-1.58
380.362	3
380.572	5.52
380.783	9.03
380.993	6.96
381.203	1.75
381.413	2.89
381.623	2.09
381.833	2.04
382.043	-1.09
382.253	2.15
382.463	-0.6
382.674	9.95
382.884	4.57
383.094	6.74
383.304	2.21
383.514	7.81
383.724	1.87
383.934	4.14
384.144	2.88
384.353	5.16
384.563	-1.01
384.773	4.98
384.983	3.28
385.193	5.94
385.403	3.16
385.613	-2.41
385.823	-2.54
386.033	0.79
386.242	0.3
386.452	-2.24
386.662	-0.14
386.872	-0.07
387.082	3.49
387.291	1.5
387.501	3.65
387.711	4.32
387.921	4.6
388.13	1.09
388.34	0.62
388.55	2.3
388.759	3.76
388.969	-1.52
389.179	-0.94
389.388	1.14
389.598	1.8
389.807	1.74
390.017	1.9
390.227	1.19
390.436	4.25
390.646	4.6
390.855	4.59
391.065	4.7
391.274	5.23
391.484	4.77
391.693	5.06
391.903	4.91
392.112	2.72
392.322	3.85
392.531	4.23
392.74	3.27
392.95	3.34
393.159	3.95
393.369	4.58
393.578	5.74
393.787	5.4
393.997	6.75
394.206	6.91
394.415	6.24
394.625	5.52
394.834	4.63
395.043	4.38
395.252	4.15
395.462	3.48
395.671	4.41
395.88	4.41
396.089	4.32
396.298	4.35
396.508	4.1
396.717	3.86
396.926	3.38
397.135	2.62
397.344	2.74
397.553	3.45
397.762	3.43
397.971	3.42
398.181	2.99
398.39	3.48
398.599	4.24
398.808	4.16
399.017	4.21
399.226	4.85
399.435	5
399.644	5.26
399.853	5.07
400.062	4.61
400.27	4.72
400.479	4.64
400.688	4.57
400.897	4.8
401.106	5.02
401.315	5
401.524	5.21
401.733	5.03
401.941	4.82
402.15	4.53
402.359	4.25
402.568	3.97
402.777	3.79
402.985	3.68
403.194	3.72
403.403	3.56
403.612	3.5
403.82	3.62
404.029	3.74
404.238	4.01
404.446	3.95
404.655	3.92
404.864	4.07
405.072	4.2
405.281	4.01
405.489	4.06
405.698	3.9
405.906	3.92
406.115	4.05
406.324	3.97
406.532	3.95
406.741	4.11
406.949	3.96
407.158	3.98
407.366	3.97
407.574	3.95
407.783	3.93
407.991	3.86
408.2	3.83
408.408	3.9
408.617	3.85
408.825	3.86
409.033	3.85
409.242	3.8
409.45	3.77
409.658	3.71
409.867	3.65
410.075	3.6
410.283	3.56
410.491	3.51
410.7	3.56
410.908	3.63
411.116	3.56
411.324	3.58
411.533	3.56
411.741	3.51
411.949	3.57
412.157	3.64
412.365	3.62
412.573	3.7
412.781	3.71
412.99	3.82
413.198	3.8
413.406	3.74
413.614	3.71
413.822	3.69
414.03	3.63
414.238	3.59
414.446	3.45
414.654	3.55
414.862	3.45
415.07	3.4
415.278	3.3
415.486	3.4
415.694	3.33
415.902	3.37
416.109	3.35
416.317	3.36
416.525	3.46
416.733	3.52
416.941	3.42
417.149	3.53
417.357	3.58
417.564	3.48
417.772	3.57
417.98	3.44
418.188	3.34
418.395	3.34
418.603	3.2
418.811	3.13
419.019	3.19
419.226	3.17
419.434	3.14
419.642	3.13
419.849	3.14
420.057	3.24
420.265	3.26
420.472	3.19
420.68	3.18
420.887	3.26
421.095	3.38
421.302	3.44
421.51	3.4
421.717	3.38
421.925	3.29
422.132	3.22
422.34	3.14
422.547	3.1
422.755	3.08
422.962	2.97
423.17	2.95
423.377	3.11
423.585	3.12
423.792	3.12
423.999	3.15
424.207	3.04
424.414	3.19
424.621	3.19
424.829	3.12
425.036	3.08
425.243	3.14
425.451	3.11
425.658	3.19
425.865	3.06
426.072	3.09
426.28	3.07
426.487	3.08
426.694	2.96
426.901	2.91
427.108	2.86
427.315	2.89
427.523	2.87
427.73	3.01
427.937	3.06
428.144	3.16
428.351	3.32
428.558	3.3
428.765	3.26
428.972	3.24
429.179	3.11
429.386	3.23
429.593	3.22
429.8	3.13
430.007	3.26
430.214	3.37
430.421	3.44
430.628	3.4
430.835	3.3
431.042	3.34
431.249	3.35
431.456	3.35
431.662	3.32
431.869	3.33
432.076	3.4
432.283	3.33
432.49	3.3
432.697	3.27
432.903	3.26
433.11	3.26
433.317	3.32
433.524	3.28
433.73	3.39
433.937	3.39
434.144	3.49
434.35	3.48
434.557	3.44
434.764	3.38
434.97	3.46
435.177	3.44
435.384	3.52
435.59	3.43
435.797	3.47
436.003	3.51
436.21	3.52
436.416	3.51
436.623	3.56
436.829	3.52
437.036	3.55
437.242	3.56
437.449	3.67
437.655	3.65
437.862	3.71
438.068	3.74
438.275	3.79
438.481	3.83
438.687	3.88
438.894	3.85
439.1	3.93
439.307	3.94
439.513	3.9
439.719	3.93
439.926	3.96
440.132	3.89
440.338	3.85
440.544	3.81
440.751	3.83
440.957	3.79
441.163	3.77
441.369	3.76
441.575	3.77
441.782	3.79
441.988	3.81
442.194	3.81
442.4	3.89
442.606	3.92
442.812	3.9
443.018	3.94
443.224	3.96
443.431	4.01
443.637	3.97
443.843	3.96
444.049	3.91
444.255	3.93
444.461	3.93
444.667	3.95
444.873	3.95
445.079	3.99
445.284	3.97
445.49	3.97
445.696	4.01
445.902	4.04
446.108	4
446.314	4.05
446.52	4.1
446.726	4.13
446.931	4.2
447.137	4.21
447.343	4.21
447.549	4.24
447.755	4.16
447.96	4.1
448.166	4.09
448.372	4.09
448.578	4.14
448.783	4.09
448.989	4.1
449.195	4.16
449.4	4.2
449.606	4.24
449.812	4.23
450.017	4.19
450.223	4.24
450.428	4.29
450.634	4.27
450.84	4.21
451.045	4.22
451.251	4.26
451.456	4.24
451.662	4.23
451.867	4.21
452.073	4.28
452.278	4.32
452.483	4.29
452.689	4.23
452.894	4.27
453.1	4.27
453.305	4.28
453.51	4.24
453.716	4.26
453.921	4.29
454.127	4.3
454.332	4.25
454.537	4.31
454.742	4.27
454.948	4.3
455.153	4.36
455.358	4.42
455.563	4.49
455.769	4.56
455.974	4.48
456.179	4.52
456.384	4.53
456.589	4.52
456.795	4.45
457	4.43
457.205	4.43
457.41	4.5
457.615	4.55
457.82	4.59
458.025	4.61
458.23	4.65
458.435	4.61
458.64	4.71
458.845	4.68
459.05	4.68
459.255	4.65
459.46	4.62
459.665	4.66
459.87	4.74
460.075	4.67
460.28	4.73
460.485	4.75
460.69	4.73
460.895	4.78
461.099	4.79
461.304	4.76
461.509	4.72
461.714	4.69
461.919	4.68
462.123	4.77
462.328	4.78
462.533	4.81
462.738	4.8
462.942	4.88
463.147	4.87
463.352	4.91
463.556	4.9
463.761	4.87
463.966	4.89
464.17	4.9
464.375	4.89
464.58	4.97
464.784	4.94
464.989	4.93
465.193	4.93
465.398	4.9
465.602	4.92
465.807	4.93
466.011	4.93
466.216	4.97
466.42	4.99
466.625	5.05
466.829	5.12
467.034	5.11
467.238	5.13
467.443	5.15
467.647	5.16
467.851	5.16
468.056	5.12
468.26	5.09
468.464	5.13
468.669	5.19
468.873	5.14
469.077	5.13
469.282	5.16
469.486	5.19
469.69	5.17
469.894	5.19
470.099	5.2
470.303	5.26
470.507	5.25
470.711	5.19
470.915	5.25
471.119	5.31
471.324	5.33
471.528	5.32
471.732	5.3
471.936	5.33
472.14	5.35
472.344	5.36
472.548	5.38
472.752	5.41
472.956	5.44
473.16	5.43
473.364	5.43
473.568	5.48
473.772	5.51
473.976	5.51
474.18	5.46
474.384	5.44
474.588	5.46
474.792	5.47
474.995	5.49
475.199	5.47
475.403	5.51
475.607	5.52
475.811	5.53
476.015	5.58
476.218	5.58
476.422	5.6
476.626	5.55
476.83	5.52
477.033	5.56
477.237	5.56
477.441	5.52
477.644	5.54
477.848	5.52
478.052	5.58
478.255	5.61
478.459	5.64
478.663	5.64
478.866	5.65
479.07	5.7
479.273	5.73
479.477	5.76
479.681	5.77
479.884	5.74
480.088	5.74
480.291	5.76
480.495	5.74
480.698	5.69
480.901	5.72
481.105	5.7
481.308	5.69
481.512	5.69
481.715	5.69
481.919	5.73
482.122	5.78
482.325	5.78
482.529	5.83
482.732	5.88
482.935	5.92
483.138	5.96
483.342	5.95
483.545	5.96
483.748	5.95
483.952	5.88
484.155	5.9
484.358	5.91
484.561	5.92
484.764	5.93
484.967	5.95
485.171	5.94
485.374	6.01
485.577	6.01
485.78	6.03
485.983	6.04
486.186	6.01
486.389	6.02
486.592	6.01
486.795	5.95
486.998	5.96
487.201	5.96
487.404	5.96
487.607	5.99
487.81	6.05
488.013	6.11
488.216	6.17
488.419	6.15
488.622	6.13
488.825	6.15
489.028	6.16
489.231	6.14
489.433	6.12
489.636	6.11
489.839	6.16
490.042	6.22
490.245	6.24
490.447	6.27
490.65	6.31
490.853	6.33
491.056	6.36
491.258	6.36
491.461	6.31
491.664	6.32
491.866	6.35
492.069	6.36
492.272	6.36
492.474	6.38
492.677	6.4
492.879	6.46
493.082	6.53
493.285	6.58
493.487	6.59
493.69	6.67
493.892	6.75
494.095	6.78
494.297	6.87
494.5	6.93
494.702	6.95
494.905	7
495.107	7.03
495.309	7.01
495.512	7.11
495.714	7.14
495.917	7.18
496.119	7.25
496.321	7.32
496.524	7.37
496.726	7.46
496.928	7.5
497.13	7.56
497.333	7.6
497.535	7.64
497.737	7.68
497.939	7.75
498.142	7.8
498.344	7.83
498.546	7.9
498.748	7.91
498.95	7.97
499.152	7.98
499.355	8.01
499.557	8.06
499.759	8.17
499.961	8.22
500.163	8.29
500.365	8.29
500.567	8.33
500.769	8.4
500.971	8.43
501.173	8.45
501.375	8.46
501.577	8.5
501.779	8.55
501.981	8.6
502.183	8.56
502.385	8.55
502.587	8.52
502.788	8.49
502.99	8.47
503.192	8.49
503.394	8.53
503.596	8.56
503.798	8.63
503.999	8.68
504.201	8.72
504.403	8.73
504.605	8.73
504.806	8.74
505.008	8.72
505.21	8.71
505.411	8.69
505.613	8.7
505.815	8.72
506.016	8.72
506.218	8.67
506.42	8.69
506.621	8.67
506.823	8.65
507.024	8.6
507.226	8.59
507.427	8.54
507.629	8.56
507.83	8.52
508.032	8.54
508.233	8.55
508.435	8.54
508.636	8.53
508.838	8.52
509.039	8.53
509.24	8.53
509.442	8.45
509.643	8.37
509.845	8.35
510.046	8.27
510.247	8.27
510.448	8.22
510.65	8.23
510.851	8.22
511.052	8.25
511.254	8.25
511.455	8.28
511.656	8.23
511.857	8.24
512.058	8.21
512.26	8.18
512.461	8.15
512.662	8.14
512.863	8.13
513.064	8.13
513.265	8.12
513.466	8.15
513.667	8.16
513.868	8.17
514.069	8.18
514.27	8.17
514.471	8.16
514.672	8.13
514.873	8.07
515.074	8.06
515.275	8.05
515.476	8
515.677	7.98
515.878	7.98
516.079	8.02
516.28	8
516.481	7.94
516.682	7.96
516.882	7.99
517.083	7.97
517.284	7.93
517.485	7.9
517.686	7.92
517.886	7.93
518.087	7.92
518.288	7.87
518.488	7.88
518.689	7.9
518.89	7.9
519.091	7.87
519.291	7.88
519.492	7.87
519.692	7.89
519.893	7.88
520.094	7.88
520.294	7.85
520.495	7.89
520.695	7.87
520.896	7.88
521.096	7.88
521.297	7.86
521.497	7.83
521.698	7.85
521.898	7.83
522.099	7.82
522.299	7.8
522.499	7.79
522.7	7.8
522.9	7.8
523.101	7.82
523.301	7.82
523.501	7.85
523.702	7.84
523.902	7.81
524.102	7.8
524.302	7.81
524.503	7.79
524.703	7.77
524.903	7.74
525.103	7.77
525.304	7.83
525.504	7.81
525.704	7.79
525.904	7.79
526.104	7.79
526.304	7.84
526.504	7.8
526.705	7.76
526.905	7.79
527.105	7.78
527.305	7.76
527.505	7.79
527.705	7.73
527.905	7.76
528.105	7.8
528.305	7.79
528.505	7.81
528.705	7.83
528.905	7.79
529.105	7.82
529.304	7.83
529.504	7.81
529.704	7.83
529.904	7.85
530.104	7.84
530.304	7.88
530.503	7.87
530.703	7.87
530.903	7.88
531.103	7.84
531.303	7.86
531.502	7.84
531.702	7.82
531.902	7.84
532.101	7.87
532.301	7.9
532.501	7.93
532.7	7.91
532.9	7.97
533.1	7.97
533.299	8.01
533.499	7.98
533.698	7.96
533.898	7.97
534.097	7.99
534.297	7.99
534.496	8.01
534.696	8.03
534.895	8.07
535.095	8.11
535.294	8.12
535.494	8.12
535.693	8.14
535.892	8.13
536.092	8.08
536.291	8.11
536.491	8.1
536.69	8.11
536.889	8.11
537.088	8.08
537.288	8.12
537.487	8.16
537.686	8.15
537.886	8.15
538.085	8.17
538.284	8.19
538.483	8.23
538.682	8.23
538.882	8.24
539.081	8.25
539.28	8.26
539.479	8.28
539.678	8.3
539.877	8.34
540.076	8.36
540.275	8.39
540.474	8.38
540.673	8.38
540.872	8.38
541.071	8.4
541.27	8.39
541.469	8.41
541.668	8.42
541.867	8.46
542.066	8.51
542.265	8.55
542.464	8.56
542.663	8.61
542.862	8.62
543.06	8.65
543.259	8.67
543.458	8.67
543.657	8.68
543.856	8.72
544.054	8.72
544.253	8.72
544.452	8.7
544.651	8.72
544.849	8.74
545.048	8.76
545.247	8.75
545.445	8.76
545.644	8.79
545.843	8.89
546.041	8.93
546.24	8.97
546.438	9.01
546.637	9.05
546.836	9.09
547.034	9.13
547.233	9.14
547.431	9.16
547.63	9.21
547.828	9.22
548.027	9.26
548.225	9.3
548.423	9.33
548.622	9.37
548.82	9.39
549.019	9.39
549.217	9.47
549.415	9.52
549.614	9.52
549.812	9.59
550.01	9.61
550.209	9.67
550.407	9.73
550.605	9.76
550.803	9.82
551.002	9.89
551.2	9.93
551.398	9.95
551.596	10
551.794	10.04
551.993	10.08
552.191	10.12
552.389	10.18
552.587	10.22
552.785	10.32
552.983	10.36
553.181	10.36
553.379	10.4
553.577	10.47
553.775	10.52
553.973	10.62
554.171	10.66
554.369	10.73
554.567	10.81
554.765	10.86
554.963	10.91
555.161	10.98
555.359	10.98
555.557	11.05
555.755	11.12
555.952	11.22
556.15	11.28
556.348	11.36
556.546	11.45
556.744	11.54
556.941	11.62
557.139	11.7
557.337	11.77
557.535	11.9
557.732	11.98
557.93	11.99
558.128	12.09
558.325	12.16
558.523	12.22
558.721	12.29
558.918	12.35
559.116	12.41
559.313	12.55
559.511	12.57
559.708	12.66
559.906	12.72
560.104	12.78
560.301	12.84
560.498	12.89
560.696	12.93
560.893	13.04
561.091	13.08
561.288	13.21
561.486	13.26
561.683	13.36
561.88	13.45
562.078	13.55
562.275	13.6
562.473	13.67
562.67	13.72
562.867	13.79
563.064	13.91
563.262	14.01
563.459	14.09
563.656	14.23
563.853	14.34
564.051	14.38
564.248	14.5
564.445	14.56
564.642	14.65
564.839	14.74
565.036	14.83
565.234	14.92
565.431	15.06
565.628	15.15
565.825	15.21
566.022	15.27
566.219	15.33
566.416	15.4
566.613	15.5
566.81	15.57
567.007	15.64
567.204	15.68
567.401	15.78
567.598	15.82
567.795	15.88
567.991	15.92
568.188	15.98
568.385	16.09
568.582	16.19
568.779	16.21
568.976	16.3
569.172	16.36
569.369	16.39
569.566	16.37
569.763	16.38
569.96	16.43
570.156	16.47
570.353	16.54
570.55	16.56
570.746	16.63
570.943	16.75
571.14	16.81
571.336	16.84
571.533	16.9
571.729	16.92
571.926	16.99
572.123	17
572.319	17.02
572.516	17.02
572.712	17.08
572.909	17.15
573.105	17.17
573.302	17.18
573.498	17.23
573.695	17.23
573.891	17.28
574.087	17.3
574.284	17.32
574.48	17.29
574.677	17.32
574.873	17.34
575.069	17.39
575.266	17.41
575.462	17.42
575.658	17.42
575.854	17.47
576.051	17.46
576.247	17.42
576.443	17.44
576.639	17.42
576.835	17.44
577.032	17.44
577.228	17.47
577.424	17.53
577.62	17.61
577.816	17.6
578.012	17.61
578.208	17.64
578.404	17.65
578.6	17.63
578.796	17.6
578.993	17.54
579.189	17.55
579.384	17.55
579.58	17.52
579.776	17.5
579.972	17.51
580.168	17.51
580.364	17.51
580.56	17.5
580.756	17.49
580.952	17.48
581.148	17.44
581.343	17.43
581.539	17.44
581.735	17.47
581.931	17.43
582.127	17.39
582.322	17.36
582.518	17.4
582.714	17.4
582.909	17.36
583.105	17.32
583.301	17.31
583.496	17.32
583.692	17.32
583.888	17.28
584.083	17.3
584.279	17.27
584.474	17.25
584.67	17.26
584.866	17.24
585.061	17.21
585.257	17.2
585.452	17.16
585.648	17.17
585.843	17.16
586.039	17.14
586.234	17.16
586.429	17.14
586.625	17.17
586.82	17.12
587.015	17.11
587.211	17.13
587.406	17.16
587.601	17.17
587.797	17.17
587.992	17.15
588.187	17.19
588.383	17.23
588.578	17.19
588.773	17.18
588.968	17.23
589.163	17.26
589.359	17.25
589.554	17.24
589.749	17.24
589.944	17.31
590.139	17.32
590.334	17.28
590.529	17.38
590.724	17.46
590.919	17.55
591.114	17.56
591.309	17.55
591.504	17.61
591.699	17.61
591.894	17.62
592.089	17.63
592.284	17.62
592.479	17.68
592.674	17.74
592.869	17.79
593.064	17.9
593.259	17.89
593.454	17.89
593.648	17.92
593.843	17.96
594.038	18.06
594.233	18.1
594.428	18.15
594.622	18.2
594.817	18.31
595.012	18.36
595.206	18.43
595.401	18.43
595.596	18.53
595.79	18.58
595.985	18.65
596.18	18.73
596.374	18.85
596.569	18.94
596.763	19.04
596.958	19.07
597.153	19.15
597.347	19.24
597.542	19.27
597.736	19.33
597.931	19.4
598.125	19.49
598.319	19.55
598.514	19.62
598.708	19.69
598.903	19.81
599.097	19.91
599.291	19.98
599.486	20.03
599.68	20.08
599.874	20.17
600.069	20.23
600.263	20.23
600.457	20.27
600.651	20.28
600.846	20.27
601.04	20.32
601.234	20.35
601.428	20.34
601.622	20.38
601.817	20.38
602.011	20.41
602.205	20.5
602.399	20.53
602.593	20.53
602.787	20.58
602.981	20.6
603.175	20.62
603.369	20.6
603.563	20.61
603.757	20.62
603.951	20.59
604.145	20.57
604.339	20.56
604.533	20.53
604.727	20.49
604.921	20.46
605.115	20.4
605.309	20.4
605.502	20.38
605.696	20.32
605.89	20.32
606.084	20.37
606.278	20.31
606.471	20.23
606.665	20.19
606.859	20.18
607.053	20.16
607.246	20.08
607.44	20
607.634	19.97
607.827	19.95
608.021	19.86
608.214	19.8
608.408	19.71
608.602	19.72
608.795	19.69
608.989	19.63
609.182	19.59
609.376	19.54
609.569	19.43
609.763	19.41
609.956	19.3
610.15	19.21
610.343	19.14
610.537	19.12
610.73	19.1
610.923	19.1
611.117	18.99
611.31	18.95
611.504	18.89
611.697	18.81
611.89	18.69
612.083	18.59
612.277	18.47
612.47	18.43
612.663	18.35
612.856	18.27
613.05	18.21
613.243	18.15
613.436	18.09
613.629	18.03
613.822	17.95
614.015	17.88
614.209	17.82
614.402	17.7
614.595	17.62
614.788	17.55
614.981	17.5
615.174	17.43
615.367	17.35
615.56	17.23
615.753	17.21
615.946	17.14
616.139	17.12
616.332	17.04
616.525	17.02
616.718	16.97
616.911	16.99
617.103	16.92
617.296	16.87
617.489	16.82
617.682	16.77
617.875	16.68
618.067	16.65
618.26	16.56
618.453	16.53
618.646	16.48
618.838	16.42
619.031	16.39
619.224	16.37
619.417	16.3
619.609	16.29
619.802	16.3
619.994	16.26
620.187	16.22
620.38	16.17
620.572	16.14
620.765	16.09
620.957	16.05
621.15	16
621.342	16
621.535	15.96
621.727	15.91
621.92	15.88
622.112	15.9
622.305	15.86
622.497	15.78
622.69	15.71
622.882	15.7
623.074	15.68
623.267	15.65
623.459	15.61
623.651	15.59
623.844	15.61
624.036	15.66
624.228	15.61
624.42	15.63
624.613	15.64
624.805	15.64
624.997	15.59
625.189	15.57
625.381	15.53
625.574	15.53
625.766	15.51
625.958	15.47
626.15	15.4
626.342	15.43
626.534	15.41
626.726	15.39
626.918	15.36
627.11	15.31
627.302	15.23
627.494	15.27
627.686	15.21
627.878	15.18
628.07	15.14
628.262	15.11
628.454	15.13
628.646	15.13
628.838	15.06
629.029	14.98
629.221	14.93
629.413	14.9
629.605	14.86
629.797	14.8
629.989	14.77
630.18	14.72
630.372	14.71
630.564	14.7
630.755	14.66
630.947	14.64
631.139	14.6
631.33	14.56
631.522	14.54
631.714	14.54
631.905	14.5
632.097	14.51
632.289	14.47
632.48	14.39
632.672	14.34
632.863	14.37
633.055	14.31
633.246	14.32
633.438	14.24
633.629	14.22
633.821	14.28
634.012	14.31
634.203	14.29
634.395	14.37
634.586	14.32
634.777	14.29
634.969	14.31
635.16	14.27
635.351	14.24
635.543	14.19
635.734	14.12
635.925	14.15
636.117	14.18
636.308	14.15
636.499	14.11
636.69	14.13
636.881	14.16
637.073	14.12
637.264	14.07
637.455	14.06
637.646	14.07
637.837	14.09
638.028	14.07
638.219	14
638.41	13.98
638.601	13.99
638.792	13.94
638.983	13.85
639.174	13.84
639.365	13.78
639.556	13.8
639.747	13.83
639.938	13.79
640.129	13.77
640.32	13.78
640.511	13.73
640.701	13.73
640.892	13.7
641.083	13.63
641.274	13.61
641.465	13.62
641.655	13.62
641.846	13.53
642.037	13.55
642.228	13.5
642.418	13.44
642.609	13.44
642.8	13.4
642.99	13.39
643.181	13.43
643.372	13.43
643.562	13.41
643.753	13.44
643.943	13.39
644.134	13.38
644.324	13.34
644.515	13.31
644.705	13.23
644.896	13.19
645.086	13.15
645.277	13.15
645.467	13.17
645.658	13.18
645.848	13.13
646.038	13.1
646.229	13.14
646.419	13.16
646.61	13.13
646.8	13.1
646.99	13.09
647.18	13.08
647.371	13.06
647.561	13.01
647.751	12.95
647.941	12.92
648.132	12.91
648.322	12.87
648.512	12.9
648.702	12.91
648.892	12.96
649.082	12.95
649.272	12.93
649.462	12.91
649.653	12.9
649.843	12.84
650.033	12.83
650.223	12.8
650.413	12.82
650.603	12.82
650.793	12.77
650.983	12.76
651.172	12.75
651.362	12.72
651.552	12.67
651.742	12.58
651.932	12.58
652.122	12.61
652.312	12.49
652.502	12.4
652.691	12.36
652.881	12.27
653.071	12.22
653.261	12.17
653.45	12.02
653.64	12.04
653.83	11.95
654.019	11.78
654.209	11.73
654.399	11.67
654.588	11.52
654.778	11.5
654.968	11.34
655.157	11.27
655.347	11.23
655.536	11.1
655.726	10.98
655.915	10.88
656.105	10.77
656.294	10.69
656.484	10.63
656.673	10.57
656.863	10.5
657.052	10.35
657.241	10.25
657.431	10.1
657.62	9.95
657.809	9.83
657.999	9.7
658.188	9.56
658.377	9.52
658.567	9.4
658.756	9.3
658.945	9.2
659.134	9.1
659.324	8.89
659.513	8.74
659.702	8.56
659.891	8.4
660.08	8.26
660.269	8.2
660.458	8.03
660.648	7.98
660.837	7.9
661.026	7.81
661.215	7.77
661.404	7.69
661.593	7.55
661.782	7.47
661.971	7.38
662.16	7.28
662.349	7.21
662.538	7.14
662.726	7
662.915	6.96
663.104	6.84
663.293	6.78
663.482	6.69
663.671	6.61
663.86	6.53
664.048	6.5
664.237	6.42
664.426	6.43
664.615	6.36
664.803	6.32
664.992	6.3
665.181	6.31
665.369	6.25
665.558	6.21
665.747	6.23
665.935	6.23
666.124	6.24
666.312	6.15
666.501	6.08
666.69	6.07
666.878	6.04
667.067	6.01
667.255	5.99
667.444	5.98
667.632	5.99
667.82	5.97
668.009	6.03
668.197	6.05
668.386	5.95
668.574	5.91
668.762	5.89
668.951	5.9
669.139	5.91
669.327	5.87
669.516	5.89
669.704	5.95
669.892	5.94
670.08	5.96
670.269	5.93
670.457	5.92
670.645	5.92
670.833	5.9
671.021	5.85
671.21	5.94
671.398	5.88
671.586	5.91
671.774	5.92
671.962	5.92
672.15	5.95
672.338	6.03
672.526	5.98
672.714	6.07
672.902	6.1
673.09	6.14
673.278	6.12
673.466	6.18
673.654	6.16
673.842	6.18
674.03	6.23
674.218	6.23
674.405	6.34
674.593	6.45
674.781	6.41
674.969	6.47
675.157	6.56
675.344	6.58
675.532	6.68
675.72	6.6
675.908	6.64
676.095	6.8
676.283	6.81
676.471	6.77
676.658	6.83
676.846	6.84
677.033	6.95
677.221	6.99
677.409	6.98
677.596	7.14
677.784	7.2
677.971	7.21
678.159	7.26
678.346	7.34
678.534	7.31
678.721	7.32
678.909	7.24
679.096	7.31
679.283	7.42
679.471	7.49
679.658	7.5
679.846	7.66
680.033	7.72
680.22	7.76
680.408	7.84
680.595	7.83
680.782	7.88
680.969	7.88
681.157	7.91
681.344	8.05
681.531	8.16
681.718	8.25
681.905	8.38
682.093	8.55
682.28	8.72
682.467	8.79
682.654	8.81
682.841	8.91
683.028	9.06
683.215	9.12
683.402	9.09
683.589	9.23
683.776	9.34
683.963	9.46
684.15	9.59
684.337	9.67
684.524	9.8
684.711	10.01
684.898	10.14
685.085	10.36
685.271	10.54
685.458	10.77
685.645	10.91
685.832	11.12
686.019	11.29
686.205	11.49
686.392	11.64
686.579	11.74
686.766	11.94
686.952	12.25
687.139	12.56
687.326	12.84
687.512	13.17
687.699	13.49
687.886	13.84
688.072	14.15
688.259	14.46
688.445	14.78
688.632	15.22
688.818	15.52
689.005	16.02
689.191	16.52
689.378	16.95
689.564	17.39
689.751	17.88
689.937	18.24
690.124	18.8
690.31	19.14
690.496	19.64
690.683	20.19
690.869	20.73
691.055	21.29
691.242	21.77
691.428	22.37
691.614	23.06
691.8	23.62
691.987	24.28
692.173	24.95
692.359	25.59
692.545	26.43
692.731	26.97
692.918	27.53
693.104	28.18
693.29	28.88
693.476	29.4
693.662	30.08
693.848	30.6
694.034	31.35
694.22	32.13
694.406	32.95
694.592	33.59
694.778	34.37
694.964	34.96
695.15	35.84
695.336	36.68
695.522	37.45
695.708	38.04
695.894	38.94
696.08	39.77
696.265	40.62
696.451	41.42
696.637	42.21
696.823	42.88
697.009	43.89
697.194	44.58
697.38	45.25
697.566	46.02
697.751	46.73
697.937	47.37
698.123	48.03
698.308	48.58
698.494	49.1
698.68	49.84
698.865	50.54
699.051	51.23
699.236	51.96
699.422	52.84
699.607	53.49
699.793	54.29
699.978	54.95
700.164	55.58
700.349	56.2
700.535	56.72
700.72	57.32
700.906	57.88
701.091	58.46
701.276	59.02
701.462	59.52
701.647	60.06
701.832	60.71
702.018	61.17
702.203	61.71
702.388	62.19
702.573	62.74
702.759	63.34
702.944	63.96
703.129	64.42
703.314	65.02
703.499	65.72
703.684	66.34
703.87	66.96
704.055	67.56
704.24	67.86
704.425	68.48
704.61	68.91
704.795	69.39
704.98	69.64
705.165	70.01
705.35	70.28
705.535	71.02
705.72	71.29
705.905	71.68
706.09	71.85
706.275	72.3
706.459	72.89
706.644	73.17
706.829	73.49
707.014	73.79
707.199	73.85
707.384	74.3
707.568	74.73
707.753	74.86
707.938	75.29
708.123	75.27
708.307	76.01
708.492	76.58
708.677	76.97
708.861	77.28
709.046	77.34
709.231	77.69
709.415	78.17
709.6	78.03
709.784	78.28
709.969	78.66
710.153	79.1
710.338	79.71
710.522	79.97
710.707	79.9
710.891	80.3
711.076	80.42
711.26	80.59
711.445	80.63
711.629	80.86
711.813	80.87
711.998	81.25
712.182	81.59
712.366	82.08
712.551	82.25
712.735	82.22
712.919	82.36
713.103	82.86
713.288	83.28
713.472	83.17
713.656	83.02
713.84	83
714.024	83.51
714.208	83.67
714.393	83.72
714.577	83.84
714.761	84.22
714.945	84.34
715.129	84.63
715.313	84.78
715.497	84.99
715.681	85.33
715.865	85.46
716.049	85.56
716.233	86.23
716.417	86.51
716.601	86.49
716.785	86.66
716.968	86.43
717.152	86.56
717.336	86.71
717.52	86.9
717.704	87.12
717.888	87.29
718.071	87.43
718.255	87.78
718.439	87.76
718.622	88.01
718.806	87.48
718.99	87.56
719.174	87.66
719.357	87.6
719.541	87.95
719.724	88.24
719.908	88.16
720.092	88.47
720.275	88.5
720.459	88.67
720.642	88.53
720.826	88.37
721.009	88.48
721.193	88.69
721.376	88.75
721.559	88.81
721.743	88.58
721.926	88.74
722.11	88.94
722.293	88.57
722.476	88.36
722.66	88.72
722.843	88.74
723.026	88.96
723.21	89.05
723.393	88.88
723.576	89.08
723.759	89.14
723.942	89.07
724.126	89.01
724.309	89.25
724.492	89.6
724.675	89.76
724.858	90.14
725.041	90.48
725.224	90.57
725.407	90.43
725.59	90.18
725.774	90.11
725.957	90.34
726.14	90.05
726.322	89.97
726.505	90.42
726.688	90.94
726.871	91.3
727.054	91.56
727.237	91.13
727.42	91.64
727.603	92.03
727.786	91.95
727.968	91.81
728.151	91.9
728.334	91.63
728.517	92.24
728.699	92.35
728.882	92.4
729.065	92.19
729.248	92.19
729.43	92.12
729.613	92.54
729.796	92.39
729.978	92.29
730.161	92.17
730.343	92.29
730.526	92.51
730.708	92.92
730.891	92.79
731.073	92.83
731.256	93.02
731.438	93.21
731.621	93.46
731.803	93.79
731.986	93.66
732.168	93.86
732.35	94.15
732.533	94.06
732.715	93.76
732.898	93.73
733.08	93.75
733.262	93.68
733.444	93.54
733.627	93.01
733.809	92.75
733.991	93.07
734.173	92.64
734.355	92.81
734.538	92.76
734.72	93.03
734.902	93.24
735.084	93.41
735.266	93.28
735.448	93.95
735.63	93.66
735.812	93.7
735.994	93.22
736.176	93.65
736.358	94.17
736.54	94.29
736.722	93.97
736.904	93.94
737.086	93.93
737.268	94.47
737.45	94.23
737.632	93.85
737.814	93.91
737.995	94.2
738.177	94.6
738.359	95.07
738.541	94.58
738.723	94.57
738.904	94.08
739.086	94.37
739.268	94.6
739.449	94.33
739.631	94.15
739.813	94.34
739.994	94.75
740.176	95.31
740.358	94.94
740.539	94.5
740.721	94.59
740.902	94.41
741.084	94.44
741.265	94.35
741.447	93.86
741.628	93.78
741.81	94.13
741.991	93.86
742.172	94.17
742.354	94.79
742.535	94.69
742.717	95.24
742.898	95.95
743.079	95.35
743.261	95.8
743.442	95.99
743.623	95.25
743.804	94.89
743.986	94.95
744.167	94.24
744.348	94.61
744.529	93.97
744.71	92.67
744.891	93.2
745.073	93.38
745.254	93.03
745.435	92.8
745.616	92.52
745.797	92.09
745.978	93.25
746.159	92.84
746.34	93.23
746.521	93.56
746.702	93.79
746.883	94.37
747.064	94.59
747.245	94.98
747.426	95.17
747.606	94.84
747.787	95.05
747.968	95.41
748.149	95.23
748.33	96.29
748.51	95.62
748.691	95.7
748.872	95.18
749.053	94.47
749.233	94.63
749.414	94.44
749.595	93.94
749.775	94.35
749.956	93.36
750.137	93.97
750.317	94.49
750.498	94.24
750.678	94.49
750.859	94.41
751.04	93.6
751.22	94.13
751.4	94.03
751.581	94.05
751.761	94.15
751.942	93.68
752.122	93.56
752.303	94.27
752.483	94.86
752.663	95.02
752.844	94.75
753.024	94.83
753.204	95.22
753.385	95.03
753.565	94.07
753.745	93.36
753.925	93.06
754.106	92.95
754.286	92.79
754.466	92.11
754.646	92.27
754.826	92.78
755.006	93.36
755.187	93.07
755.367	93.22
755.547	93.5
755.727	93.88
755.907	94.75
756.087	94.93
756.267	94.3
756.447	94.63
756.627	94.36
756.807	94.39
756.987	95.04
757.167	94.29
757.346	94.26
757.526	94.77
757.706	94.91
757.886	94.84
758.066	93.76
758.246	92.97
758.425	92.84
758.605	91.98
758.785	91.98
758.965	90.96
759.144	91.5
759.324	92.49
759.504	92.91
759.683	92.27
759.863	93.41
760.043	93.22
760.222	93.36
760.402	93.09
760.581	91.96
760.761	91.43
760.94	91.09
761.12	89.49
761.299	89.54
761.479	89.94
761.658	89.9
761.838	90.47
762.017	91.08
762.197	92.25
762.376	93.51
762.555	93.24
762.735	93.01
762.914	93.3
763.093	92.37
763.273	92.63
763.452	92.82
763.631	92.01
763.81	92.51
763.99	92.37
764.169	92.7
764.348	93.87
764.527	92.85
764.706	92.81
764.885	93.2
765.064	92.47
765.243	92.4
765.423	92.29
765.602	91.58
765.781	92.67
765.96	92.21
766.139	92.76
766.318	93.11
766.497	93.69
766.676	93.89
766.854	92.54
767.033	91.3
767.212	91.19
767.391	90.72
767.57	91.11
767.749	90.68
767.928	89.18
768.106	91.67
768.285	92.32
768.464	92.24
768.643	92.63
768.821	92.2
769	93.07
769.179	93.26
769.357	92.26
769.536	91.91
769.715	91.71
769.893	90.98
770.072	90.71
770.25	89.91
770.429	90.57
770.607	91.26
770.786	91.67
770.964	91.79
771.143	91.83
771.321	91.48
771.5	90.68
771.678	90.88
771.857	88.92
772.035	87.47
772.213	87.54
772.392	87.31
772.57	87.35
772.748	87.98
772.927	87.72
773.105	88.68
773.283	88.36
773.461	87.66
773.64	87.15
773.818	86.5
773.996	86.3
774.174	86.37
774.352	86.33
774.531	86.46
774.709	87.25
774.887	87.5
775.065	87.74
775.243	89.06
775.421	87.6
775.599	85.82
775.777	86.89
775.955	86
776.133	85.4
776.311	86.18
776.489	85.1
776.667	85.08
776.844	86.67
777.022	86.58
777.2	87.87
777.378	88.92
777.556	89.57
777.734	90.13
777.911	92.04
778.089	91.63
778.267	91.45
778.445	90.51
778.622	89.12
778.8	88.34
778.978	87.66
779.155	85.75
779.333	84.92
779.511	84.58
779.688	83.31
779.866	83.38
780.043	83.78
780.221	83.96
780.398	84.42
780.576	85.09
780.753	83.98
780.931	85.06
781.108	85.82
781.286	85.04
781.463	84.91
781.64	84.28
781.818	84.94
781.995	87.47
782.172	88.35
782.35	88.73
782.527	89.81
782.704	88.15
782.882	90.48
783.059	89.78
783.236	87.9
783.413	87.19
783.59	85.37
783.768	83.99
783.945	85.07
784.122	83.9
784.299	83.78
784.476	84.92
784.653	85
784.83	85.24
785.007	84.87
785.184	86.27
785.361	85.93
785.538	87.03
785.715	87.16
785.892	86.79
786.069	87.65
786.246	88.28
786.423	88.56
786.6	87.96
786.776	86.41
786.953	85.05
787.13	85.3
787.307	84.59
787.484	83.03
787.66	80.2
787.837	81.33
788.014	80.61
788.191	80.23
788.367	78.72
788.544	80.85
788.721	82.17
788.897	84.4
789.074	83.5
789.25	85.1
789.427	85.75
789.603	88.04
789.78	87.88
789.956	86.09
790.133	84.47
790.309	84.28
790.486	85.06
790.662	85.25
790.839	85.27
791.015	83.62
791.192	85.19
791.368	87.81
791.544	87.79
791.721	85.96
791.897	86.86
792.073	85.76
792.249	86.89
792.426	88.2
792.602	85.78
792.778	83.91
792.954	85.59
793.13	85.9
793.307	84.25
793.483	83.58
793.659	84.31
793.835	85.67
794.011	86.96
794.187	84.19
794.363	83.24
794.539	84.08
794.715	85
794.891	81.55
795.067	79.78
795.243	80.73
795.419	83.03
795.595	82.32
795.771	83.47
795.947	81.87
796.122	81.78
796.298	83.7
796.474	83.18
796.65	83.11
796.826	85.1
797.001	85.99
797.177	85.66
797.353	88.15
797.529	85.54
797.704	85.9
797.88	84.22
798.056	82.15
798.231	79.17
798.407	80.74
798.582	79.35
798.758	81.81
798.934	80.73
799.109	79.81
799.285	78.93
799.46	79.34
799.636	77.39
799.811	77.79
799.986	77.34
800.162	78.12
800.337	80.12
800.513	79.44
800.688	82.2
800.863	83.86
801.039	82.93
801.214	80.86
801.389	80.46
801.565	81.52
801.74	80.37
801.915	78.66
802.09	78.61
802.265	78.73
802.441	81.27
802.616	83.21
802.791	82.11
802.966	84.38
803.141	82.84
803.316	84.11
803.491	82.91
803.666	80.93
803.841	78.41
804.016	75.95
804.191	75.58
804.366	76.06
804.541	73.8
804.716	72.5
804.891	74.05
805.066	74.96
805.241	73.06
805.416	69.72
805.591	70.34
805.765	70.16
805.94	75.03
806.115	71.7
806.29	71.07
806.464	73.7
806.639	78.3
806.814	77.71
806.989	77.47
807.163	76.98
807.338	77.12
807.512	73.27
807.687	70.48
807.862	68.83
808.036	69.96
808.211	69.69
808.385	64.84
808.56	63.04
808.734	64.44
808.909	67.83
809.083	67.88
809.258	69.82
809.432	68.45
809.606	71.55
809.781	73.51
809.955	80.74
810.13	80.37
810.304	81.64
810.478	79.8
810.652	87.64
810.827	89.58
811.001	88.79
811.175	80.57
811.349	77.08
811.524	76.23
811.698	76.15
811.872	72.4
812.046	68.79
812.22	69.29
812.394	72.34
812.568	75.33
812.742	75.28
812.916	70.24
813.09	65.9
813.264	65.05
813.438	69.81
813.612	66.72
813.786	70.52
813.96	71.77
814.134	77.1
814.308	78.56
814.482	79.93
814.656	78.78
814.83	83.54
815.003	81.13
815.177	80.7
815.351	85.43
815.525	85.25
815.698	81.86
815.872	77.91
816.046	73.45
816.219	75.61
816.393	72.49
816.567	63
816.74	63.51
816.914	65.26
817.088	67.94
817.261	68.84
817.435	67.62
817.608	69
817.782	75.91
817.955	77.35
818.129	82.05
818.302	81.76
818.475	83.22
818.649	79.23
818.822	81.15
818.996	79.39
819.169	73.51
819.342	69.27
819.516	67.98
819.689	69.23
819.862	70.42
820.035	67.89
820.209	62.03
820.382	63.79
820.555	66.28
820.728	65.64
820.901	61.62
821.075	60.17
821.248	56.66
821.421	56.98
821.594	55.81
821.767	55.68
821.94	52.31
822.113	55.19
822.286	60.54
822.459	77.59
822.632	84.53
822.805	91.99
822.978	87.73
823.151	94.92
823.324	90.57
823.496	80.29
823.669	74.36
823.842	73.52
824.015	69.38
824.188	65.88
824.361	62.29
824.533	63.46
824.706	80.87
824.879	78.16
825.051	82.17
825.224	80.39
825.397	86.92
825.569	89.05
825.742	89.46
825.915	79.58
826.087	72.78
826.26	71.36
826.432	75.31
826.605	69.3
826.777	79.11
826.95	73.74
827.122	69.34
827.295	74.02
827.467	68.57
827.64	60.13
827.812	61.67
827.984	55.03
828.157	54.66
828.329	56.91
828.501	51.42
828.674	54.03
828.846	57.09
829.018	53.46
829.19	46.39
829.363	43.99
829.535	46.09
829.707	51.11
829.879	46.34
830.051	44.82
830.223	42.82
830.395	42.79
830.568	52.97
830.74	53.81
830.912	53.66
831.084	53.24
831.256	51.61
831.428	55.69
831.6	55.92
831.772	50.43
831.943	58.19
832.115	55.16
832.287	48.67
832.459	56.61
832.631	55.97
832.803	63.58
832.975	65.96
833.146	54.67
833.318	57.52
833.49	64.34
833.662	67.67
833.833	71.37
834.005	65.81
834.177	62.4
834.348	63.6
834.52	68.13
834.692	73.45
834.863	71.41
835.035	68.73
835.206	65.49
835.378	65.62
835.549	64.54
835.721	58.15
835.892	52.68
836.064	52.26
836.235	50.34
836.407	49.09
836.578	51.69
836.749	55.17
836.921	51.58
837.092	63.62
837.264	62.3
837.435	61.15
837.606	63.84
837.777	52.1
837.949	40.93
838.12	42.45
838.291	37.34
838.462	33.81
838.633	29.82
838.805	34.47
838.976	46.64
839.147	49.47
839.318	42.53
839.489	36.94
839.66	42.99
839.831	41.32
840.002	34.61
840.173	34.44
840.344	38.88
840.515	46.4
840.686	54.73
840.857	45.02
841.028	51.63
841.199	48.04
841.369	42.14
841.54	35.2
841.711	35.85
841.882	29.48
842.053	39.98
842.223	27.01
842.394	37.09
842.565	51.14
842.736	64.16
842.906	74.15
843.077	70.14
843.248	63.45
843.418	68.43
843.589	69.65
843.759	62.99
843.93	58.42
844.101	48.36
844.271	38
844.442	42.92
844.612	45.88
844.783	34.4
844.953	27.73
845.123	28.33
845.294	32.31
845.464	40.41
845.635	25.06
845.805	25.98
845.975	26.35
846.146	20.67
846.316	24.6
846.486	31.92
846.656	49.3
846.827	61.17
846.997	82.92
847.167	86.92
847.337	92.79
847.507	87.17
847.677	90.65
847.848	84.52
848.018	84
848.188	59.58
848.358	68.84
848.528	52.97
848.698	44.96
848.868	28.7
849.038	20.51
849.208	17.88
849.378	22.4
849.548	12.99
849.718	24.93
849.887	7.61
850.057	14.87
850.227	25.81
850.397	20
850.567	11.74
850.737	15.42
850.906	16.68
851.076	24.06
851.246	24.31
851.415	37.18
851.585	40.66
851.755	43.73
851.924	61.5
852.094	63.6
852.264	68.98
852.433	80.86
852.603	78.33
852.772	69.28
852.942	69.3
853.111	42.2
853.281	40.19
853.45	44.13
853.62	37.29
853.789	29.15
853.959	40.28
854.128	19.72
854.297	33.51
854.467	34.81
854.636	21.42
854.805	33.49
854.975	44.36
855.144	55.91
855.313	74.71
855.482	75.05
855.652	72.14
855.821	84.65
855.99	99.51
856.159	93.57
856.328	68.09
856.497	71.18
856.667	61.79
856.836	59.21
857.005	48.62
857.174	42.23
857.343	30.79
857.512	18.55
857.681	8.51
857.85	14.07
858.019	2.41
858.188	5.18
858.356	-5.79
858.525	7.65
858.694	33.25
858.863	43.84
859.032	38.02
859.201	32.2
859.369	34.82
859.538	28.18
859.707	46.51
859.876	38.82
860.044	18.51
860.213	15.78
860.382	32.98
860.55	43.92
860.719	62.36
860.888	38.68
861.056	40.58
861.225	59.64
861.393	64.78
861.562	61.89
861.73	47.88
861.899	31.06
862.067	48.73
862.236	53.55
862.404	46.01
862.572	37.41
862.741	43.08
862.909	41.95
863.078	36.17
863.246	28.53
863.414	11.3
863.582	17.15
863.751	37.24
863.919	44.81
864.087	41.72
864.255	49.39
864.424	45.88
864.592	45.33
864.76	55.73
864.928	50.52
865.096	46.73
865.264	46.86
865.432	35.12
865.6	30.93
865.768	30.54
865.936	-0.17
866.104	-4.29
866.272	5.73
866.44	10.38
866.608	39.26
866.776	49.2
866.944	41.81
867.112	35.69
867.28	14.87
867.448	7.44
867.615	17.96
867.783	-15.08
867.951	-20.84
868.119	-0.02
868.286	11.48
868.454	21.94
868.622	19.65
868.789	25.8
868.957	45.27
869.125	57.1
869.292	68.31
869.46	69.49
869.627	70.8
869.795	53.05
869.963	37.94
870.13	51.62
870.298	29.21
870.465	-6.89
870.632	2.49
870.8	9.69
870.967	23.45
871.135	28.38
871.302	21.89
871.469	15.74
871.637	16.68
871.804	20.66
871.971	28.77
872.139	29.88
872.306	33.66
872.473	28.23
872.64	33.02
872.807	33
872.975	34.9
873.142	6.63
873.309	16.53
873.476	-43.59
873.643	0.5
873.81	26.32
873.977	33.97
874.144	16.97
874.311	34.9
874.478	-6.12
874.645	17.83
874.812	15.83
874.979	15.92
875.146	10.86
875.313	-61.95
875.48	-37.85
875.647	-61.95
875.813	-48.75
875.98	-21.01
876.147	23.08
876.314	24.09
876.481	31.64
876.647	41.4
876.814	41.93
876.981	26.76
877.147	7.2
877.314	-10.69
877.481	7.52
877.647	31.52
877.814	22.13
877.98	36.45
878.147	67.53
878.314	81.14
878.48	72.27
878.647	83.46
878.813	57.82
878.979	75.5
879.146	43.9
879.312	49.63
879.479	55.07
879.645	49.06
879.811	31.5
879.978	47.42
880.144	54.35
880.31	69.87
880.477	43.13
880.643	21.8
880.809	94.06
880.975	67.25
881.142	81.25
881.308	81.29
881.474	130.47
881.64	80.88
881.806	64.25
881.972	72
882.138	47.81
882.304	-33.42
882.47	-10.33
882.636	-87.97
882.802	-92.99
882.968	-163.58
883.134	-367.25
883.3	-79.29
883.466	5.55
883.632	-27.09
883.798	25.81
883.964	66.22
884.129	82.19
884.295	66.9
884.461	59.2
884.627	61.19
884.793	74.78
884.958	43.82
885.124	-13.19
885.29	-6.84
885.455	-11.47
885.621	-1.4
885.787	-3.86
885.952	-32.28
886.118	-34.31
886.283	-16.98
886.449	-39.84
886.614	-40.87
886.78	-15.95
886.945	-12.01
887.111	3.83
887.276	10.07
887.442	26.22
887.607	19.23
887.773	11.72
887.938	5.47
888.103	22.79
888.269	24.75
888.434	25.59
888.599	16.34
888.764	27.26
888.93	35.44
889.095	24.03
889.26	30.14
889.425	50.02
889.59	23.43
889.756	32.34
889.921	44.69
890.086	31.9
890.251	29.19
890.416	-30.59
890.581	-55.57
890.746	-51.38
890.911	-102.75
891.076	-183.92
891.241	-193.54
891.406	-65.42
891.571	-23.78
891.736	6.15
891.901	40.87
892.065	58.67
892.23	54.07
892.395	33.4
892.56	29.92
892.725	8.32
892.889	-23.64
893.054	-63.04
893.219	-83.27
893.384	-125.45
893.548	-305.83
893.713	584.9
893.878	171.74
