Data from Ofra_2a_PS_9CX5_Reflection_1.txt Node
Date: Tue Jul 20 09:58:18 EDT 2021
User: Adam
Spectrometer: FLMT01687
Trigger mode: 0
Integration Time (sec): 9.450000E-1
Scans to average: 3
Electric dark correction enabled: true
Nonlinearity correction enabled: false
Boxcar width: 3
XAxis mode: Wavelengths
Number of Pixels in Spectrum: 3648
>>>>>Begin Spectral Data<<<<<
179.494	1039.05
179.716	632.92
179.937	694.51
180.158	2783.59
180.38	-1590.12
180.601	-319.89
180.823	-108.36
181.044	-38.05
181.265	-127.51
181.486	-1.29
181.708	-102.17
181.929	82.56
182.15	430.68
182.372	48.56
182.593	-29.97
182.814	196.11
183.035	193.6
183.257	37.23
183.478	39.01
183.699	27.33
183.92	31.45
184.141	19.52
184.363	18.05
184.584	4.99
184.805	26.14
185.026	-9.47
185.247	-25.49
185.468	-18.2
185.689	-4.67
185.91	9.91
186.132	13.74
186.353	-4.8
186.574	4.05
186.795	-5.7
187.016	-3.39
187.237	3.06
187.458	-19.82
187.679	-24.34
187.9	-9.44
188.121	18.12
188.342	57.15
188.563	59.66
188.784	52.42
189.005	60.54
189.226	54.89
189.447	44.47
189.667	38
189.888	28.96
190.109	29.37
190.33	18.03
190.551	11.08
190.772	9.56
190.993	17.38
191.214	20.92
191.434	15.46
191.655	22.38
191.876	28.77
192.097	31.29
192.318	35.14
192.538	41.05
192.759	33.08
192.98	19.57
193.201	20.02
193.421	16.96
193.642	6.33
193.863	-13.85
194.083	-16.34
194.304	-14.54
194.525	18.83
194.745	-2.4
194.966	2.52
195.187	16.81
195.407	19.6
195.628	15.32
195.848	11.49
196.069	1.37
196.29	1.07
196.51	-6.25
196.731	-0.38
196.951	-5.04
197.172	-14.48
197.392	10.8
197.613	7.09
197.833	-1.6
198.054	1.19
198.274	-25.18
198.495	-18.73
198.715	-35.79
198.936	-52.58
199.156	-43.21
199.377	-29.74
199.597	-27.52
199.817	-8.07
200.038	-23
200.258	-8.85
200.479	-7.61
200.699	3.34
200.919	-8.69
201.14	-3.72
201.36	16.94
201.58	34.45
201.801	32.72
202.021	33.74
202.241	28.64
202.461	48.07
202.682	50.58
202.902	35.67
203.122	30.98
203.342	32.05
203.563	21.04
203.783	25.32
204.003	19.2
204.223	22.35
204.443	20.5
204.663	29.3
204.884	30.52
205.104	38.69
205.324	39.58
205.544	43.4
205.764	49.52
205.984	66.79
206.204	65.35
206.424	52.97
206.644	45.67
206.864	39.7
207.084	49.85
207.304	41.71
207.525	21.18
207.745	19.67
207.964	-2.05
208.184	9.09
208.404	6.03
208.624	-16.84
208.844	-30.87
209.064	-25.71
209.284	-23.31
209.504	-10.65
209.724	-36.68
209.944	-27.38
210.164	-17.33
210.384	-10.31
210.604	-24.68
210.823	-38.37
211.043	-43.88
211.263	-22.33
211.483	-18.21
211.703	-19.01
211.922	-15.48
212.142	-4.52
212.362	5.78
212.582	9.6
212.801	6.07
213.021	4.26
213.241	-13.69
213.461	-19.48
213.68	-19.69
213.9	-18.47
214.12	-14.1
214.339	-12.51
214.559	-6.74
214.779	10.78
214.998	25.38
215.218	35.84
215.438	53.99
215.657	53.05
215.877	55.26
216.096	55.05
216.316	48.25
216.535	48.41
216.755	35.56
216.974	14.45
217.194	2.6
217.413	15.3
217.633	0.93
217.852	5.41
218.072	-9.8
218.291	18.79
218.511	18.51
218.73	14.38
218.95	10.44
219.169	11.14
219.389	4.25
219.608	23.93
219.827	-2.52
220.047	-2.68
220.266	2.15
220.485	8.3
220.705	13.81
220.924	11.7
221.143	-9.7
221.363	-8.4
221.582	-10.74
221.801	-2.22
222.021	-2.75
222.24	-13.02
222.459	-24.09
222.678	-7.78
222.897	1.02
223.117	3.32
223.336	4.7
223.555	-11.91
223.774	3.22
223.993	46.79
224.213	28.23
224.432	36.09
224.651	39.44
224.87	38.62
225.089	53.53
225.308	48.54
225.527	23.57
225.746	30.35
225.965	19.36
226.184	6.2
226.404	4.36
226.623	-0.24
226.842	-3.54
227.061	7.46
227.28	21.5
227.499	36.5
227.718	39.73
227.936	31.06
228.155	29.38
228.374	30.13
228.593	27.17
228.812	16.14
229.031	5.66
229.25	18.8
229.469	23.07
229.688	28.8
229.907	28.69
230.125	26.37
230.344	28.29
230.563	32.95
230.782	12.77
231.001	20.53
231.22	16.61
231.438	22.22
231.657	24.1
231.876	13.44
232.095	9.44
232.313	20.97
232.532	13.04
232.751	7.64
232.969	4.77
233.188	-3.4
233.407	11.03
233.625	6.06
233.844	14.65
234.063	16.29
234.281	17.2
234.5	18.14
234.719	12.32
234.937	19.61
235.156	13.59
235.374	-5.48
235.593	-10.18
235.811	-29.27
236.03	-46.71
236.249	-17.89
236.467	-29.38
236.686	-15.07
236.904	-5.41
237.123	11.74
237.341	22.66
237.559	28.22
237.778	34.54
237.996	40.85
238.215	32.19
238.433	39.57
238.652	30.69
238.87	29.48
239.088	20.27
239.307	15.75
239.525	3.93
239.743	2.66
239.962	1.68
240.18	12.48
240.398	20.47
240.617	30.53
240.835	26.68
241.053	38.78
241.271	42.13
241.49	33.52
241.708	26.25
241.926	7.76
242.144	8.92
242.363	-3.97
242.581	-7.85
242.799	-17.51
243.017	-9.4
243.235	-12.85
243.453	3.36
243.672	-8.16
243.89	6.67
244.108	17.91
244.326	25.48
244.544	18.88
244.762	14.16
244.98	13.29
245.198	5.36
245.416	13.05
245.634	24.33
245.852	28.6
246.07	35.7
246.288	36.2
246.506	44.43
246.724	65.6
246.942	58.44
247.16	42.31
247.378	28.25
247.596	31.21
247.814	16.38
248.032	11.88
248.25	7.32
248.468	6.38
248.685	5.63
248.903	1.92
249.121	-0.92
249.339	10.98
249.557	11.3
249.775	-8.17
249.992	-14.44
250.21	-24.78
250.428	-28.94
250.646	-27.91
250.863	-25.2
251.081	-31.72
251.299	-4.72
251.517	9.6
251.734	13.35
251.952	30.64
252.17	10.79
252.387	18.16
252.605	20.24
252.823	0.89
253.04	-8.9
253.258	-12.96
253.475	-14.99
253.693	11.96
253.911	5.81
254.128	5.32
254.346	11.93
254.563	11.34
254.781	14.71
254.998	17.71
255.216	12.04
255.433	10.68
255.651	8.96
255.868	12.29
256.086	13.85
256.303	14.84
256.521	5.95
256.738	4.63
256.956	3.7
257.173	1.08
257.39	7.05
257.608	4.5
257.825	8.28
258.043	17.69
258.26	13.59
258.477	18.24
258.695	19.02
258.912	22.13
259.129	23.95
259.346	25.46
259.564	21.02
259.781	35.69
259.998	37.86
260.216	42.7
260.433	34.18
260.65	33.8
260.867	6.44
261.084	12.54
261.302	-2.93
261.519	-16.86
261.736	-22.3
261.953	-29.2
262.17	-14.48
262.387	1.54
262.604	-8.74
262.822	-4.13
263.039	1.03
263.256	-0.7
263.473	-4.12
263.69	-10.56
263.907	1.32
264.124	7.41
264.341	6.29
264.558	9.19
264.775	17.6
264.992	15.36
265.209	24.12
265.426	16.88
265.643	13.29
265.86	9.39
266.077	17.96
266.294	14.18
266.51	19.13
266.727	7.58
266.944	4.84
267.161	7.07
267.378	21.16
267.595	-7.97
267.812	-7.16
268.028	5.12
268.245	-1.57
268.462	6.11
268.679	1.38
268.896	-2.12
269.112	14.28
269.329	19.88
269.546	16.64
269.763	26.2
269.979	17.13
270.196	26.79
270.413	31.79
270.629	27.02
270.846	20.71
271.063	17.2
271.279	12.39
271.496	3.34
271.712	-4.53
271.929	-4.41
272.146	1.41
272.362	-3.77
272.579	-11.98
272.795	-15.86
273.012	3.72
273.228	-0.57
273.445	-5.79
273.661	-11.06
273.878	3.68
274.094	12.87
274.311	18.95
274.527	20.06
274.744	28.45
274.96	27.07
275.177	35.87
275.393	28.77
275.609	31.91
275.826	27.48
276.042	20.76
276.259	16.66
276.475	13.37
276.691	13.3
276.908	11.29
277.124	9.01
277.34	4.59
277.557	-1.29
277.773	-3.24
277.989	-3.32
278.205	-12.11
278.422	-3.73
278.638	8.11
278.854	12.3
279.07	4.88
279.286	2.54
279.503	10.79
279.719	20.06
279.935	11.13
280.151	8.26
280.367	14.39
280.583	28.26
280.799	39.82
281.016	39.93
281.232	39.71
281.448	39.67
281.664	33.67
281.88	28.25
282.096	30.04
282.312	16.52
282.528	10.95
282.744	4.11
282.96	6.39
283.176	7.87
283.392	13.28
283.608	13.35
283.824	14.58
284.04	24.71
284.256	17.09
284.471	14.15
284.687	16.33
284.903	5.85
285.119	-12.85
285.335	-5.94
285.551	-7.21
285.767	-6.93
285.982	-4.11
286.198	-3.82
286.414	19.36
286.63	30.59
286.846	23.62
287.061	18.21
287.277	33.94
287.493	32.72
287.709	27.35
287.924	18.91
288.14	13.16
288.356	21.39
288.571	2.9
288.787	-7.99
289.003	-3.06
289.218	-7.87
289.434	-13.35
289.65	2.91
289.865	0.41
290.081	7.15
290.296	12.84
290.512	13.79
290.727	23.07
290.943	18.23
291.159	6.15
291.374	7.85
291.59	1.21
291.805	-2.44
292.021	-14.62
292.236	-14.62
292.451	-3.17
292.667	-2
292.882	-11.16
293.098	-6.88
293.313	-13.52
293.529	-6.12
293.744	-7.97
293.959	-16.08
294.175	-9.06
294.39	-1.23
294.605	-0.92
294.821	0.39
295.036	15.93
295.251	7.96
295.467	13.66
295.682	14.95
295.897	13.1
296.112	18.57
296.328	21.38
296.543	-1.16
296.758	14.5
296.973	14.57
297.188	3.83
297.404	7.26
297.619	3.02
297.834	15.32
298.049	32.15
298.264	24.47
298.479	11.09
298.694	21.2
298.909	15.59
299.125	25.21
299.34	14.54
299.555	15.78
299.77	10.53
299.985	13.2
300.2	0.01
300.415	9.83
300.63	0.27
300.845	3.68
301.06	1.06
301.275	5.83
301.49	13.16
301.704	15.59
301.919	3.73
302.134	-7.66
302.349	-9.95
302.564	-16.89
302.779	-19.9
302.994	-25.94
303.209	-28.34
303.423	-14.93
303.638	12.73
303.853	10.99
304.068	9.94
304.283	6.16
304.497	6.43
304.712	13.91
304.927	5.76
305.142	0.75
305.356	1.76
305.571	12.01
305.786	13.83
306	20.97
306.215	19.76
306.43	33.15
306.644	37.53
306.859	42.61
307.074	32.87
307.288	40.09
307.503	34.77
307.717	29.12
307.932	24.23
308.147	15.96
308.361	5.89
308.576	11.7
308.79	6.33
309.005	2.35
309.219	13.93
309.434	12.58
309.648	7.93
309.863	12.72
310.077	-2.93
310.292	-4.91
310.506	17.3
310.72	16.57
310.935	19.64
311.149	25.98
311.364	29.04
311.578	38.77
311.792	40.32
312.007	23.58
312.221	18.19
312.435	16.71
312.649	17.58
312.864	-5.01
313.078	4.33
313.292	2.47
313.507	5.43
313.721	-2.03
313.935	8.87
314.149	10.77
314.363	18.68
314.578	38.21
314.792	35.61
315.006	43.34
315.22	53.73
315.434	43.04
315.648	39.27
315.862	38.49
316.077	14.43
316.291	24.16
316.505	20.39
316.719	-4.38
316.933	3.92
317.147	11.72
317.361	20.91
317.575	23.89
317.789	9.93
318.003	10.05
318.217	20.93
318.431	21.53
318.645	19.96
318.859	1.38
319.073	0.69
319.287	5.13
319.5	6.95
319.714	8.51
319.928	1.85
320.142	7.49
320.356	25.18
320.57	20.8
320.784	21.66
320.997	29.78
321.211	25.71
321.425	28.05
321.639	29.15
321.853	20.38
322.066	23.76
322.28	25.65
322.494	14.7
322.707	18.73
322.921	18.86
323.135	17.39
323.349	21.54
323.562	20.59
323.776	21.04
323.989	16.83
324.203	23.82
324.417	16.09
324.63	1.65
324.844	-8.55
325.057	3.94
325.271	-7.06
325.485	12.66
325.698	2.02
325.912	14.4
326.125	21.12
326.339	30.86
326.552	21.98
326.766	28.01
326.979	16.19
327.193	9.51
327.406	10.88
327.619	0.49
327.833	-2.75
328.046	-4.53
328.26	-3.86
328.473	-2.41
328.686	6.37
328.9	-6.4
329.113	0.66
329.326	3.1
329.54	3.3
329.753	4.5
329.966	6.74
330.179	6.68
330.393	16.33
330.606	17.46
330.819	17.7
331.032	20.11
331.246	25.82
331.459	26.12
331.672	27.74
331.885	20.67
332.098	24.17
332.311	13.55
332.525	19.82
332.738	12.09
332.951	10.34
333.164	2.43
333.377	-7.92
333.59	-0.98
333.803	12.92
334.016	-2.41
334.229	5.36
334.442	12.51
334.655	25.25
334.868	41.58
335.081	42.07
335.294	40.03
335.507	46.75
335.72	33.57
335.933	36.3
336.146	31.41
336.359	17.14
336.572	6.49
336.785	9.09
336.997	1.42
337.21	12.33
337.423	7.5
337.636	7.07
337.849	15.74
338.062	19.15
338.274	16.17
338.487	18.17
338.7	17.53
338.913	14.45
339.125	8.64
339.338	12.31
339.551	19.05
339.763	21.12
339.976	16.21
340.189	11.84
340.402	11.09
340.614	19.59
340.827	10.45
341.039	5.92
341.252	7.17
341.465	7.66
341.677	3.11
341.89	0.01
342.102	-1.53
342.315	9.39
342.527	-0.13
342.74	-3.62
342.952	-2.64
343.165	12.97
343.377	22.36
343.59	22.96
343.802	23.3
344.015	30.69
344.227	25.93
344.44	22.65
344.652	22.07
344.864	23.96
345.077	20.19
345.289	19.17
345.502	18.87
345.714	14.98
345.926	20.02
346.139	10.14
346.351	-5.48
346.563	-0.51
346.775	-9.17
346.988	-9.04
347.2	0.83
347.412	0.98
347.624	-1.68
347.837	3.48
348.049	0.66
348.261	3.9
348.473	-7.42
348.685	-4.31
348.897	-1.39
349.11	-0.52
349.322	-2.13
349.534	-12.34
349.746	-4.12
349.958	13.66
350.17	12.06
350.382	-0.07
350.594	7.31
350.806	18.11
351.018	27.8
351.23	26.3
351.442	23.32
351.654	26.98
351.866	34.31
352.078	30.25
352.29	27.81
352.502	25
352.714	24.74
352.926	21.31
353.138	15.65
353.35	14.58
353.561	14.38
353.773	10.09
353.985	16.58
354.197	8.04
354.409	11.59
354.621	12.67
354.832	4.43
355.044	11.5
355.256	11.95
355.468	4.38
355.679	8.34
355.891	10.18
356.103	14.09
356.314	21.94
356.526	12.63
356.738	5.1
356.949	15.63
357.161	17.97
357.373	16.9
357.584	19.16
357.796	17.23
358.008	25.02
358.219	36.79
358.431	27.76
358.642	27.54
358.854	31.37
359.065	24.2
359.277	25.05
359.488	16.29
359.7	20.78
359.911	22.9
360.123	29.37
360.334	25.2
360.546	23.84
360.757	25.63
360.969	34.57
361.18	26.07
361.391	25.4
361.603	21.62
361.814	26.11
362.025	28.76
362.237	22.81
362.448	17.88
362.659	12.21
362.871	10.53
363.082	17.68
363.293	12.44
363.504	8.82
363.716	15.03
363.927	14.33
364.138	20.16
364.349	23.03
364.56	15.98
364.772	14.4
364.983	9.22
365.194	5.54
365.405	2.99
365.616	0.56
365.827	-4.93
366.038	6.78
366.25	8.4
366.461	24.46
366.672	24.65
366.883	27.33
367.094	22.59
367.305	25.79
367.516	18.04
367.727	16.96
367.938	13.37
368.149	8.67
368.36	7.41
368.571	17.7
368.781	11.51
368.992	10.76
369.203	14.58
369.414	9.73
369.625	14.77
369.836	18.31
370.047	12.39
370.258	9.83
370.468	3.72
370.679	-0.86
370.89	5.77
371.101	-0.99
371.312	-6.78
371.522	-9.38
371.733	-4.94
371.944	5.97
372.155	-1.16
372.365	-8.98
372.576	-10.79
372.787	-10.02
372.997	-12.43
373.208	-7.34
373.419	-17.25
373.629	-5.8
373.84	-10.57
374.05	4.5
374.261	2.59
374.472	5.06
374.682	-2.69
374.893	-5.66
375.103	-0.18
375.314	11.01
375.524	6.42
375.735	10.7
375.945	17.72
376.156	28.64
376.366	33.44
376.577	29.3
376.787	29.4
376.997	31.8
377.208	26.62
377.418	19.45
377.629	10.81
377.839	16.88
378.049	19.18
378.26	14.22
378.47	15.83
378.68	17.03
378.89	15.4
379.101	7.19
379.311	1.9
379.521	4.12
379.732	-2.29
379.942	-3.77
380.152	10.7
380.362	19.01
380.572	30.82
380.783	29.96
380.993	29.63
381.203	42.18
381.413	42.64
381.623	32.83
381.833	22.91
382.043	14.52
382.253	13.03
382.463	12.06
382.674	5.55
382.884	-2.53
383.094	-4.02
383.304	-4.8
383.514	1.96
383.724	4.12
383.934	-1.33
384.144	1.33
384.353	5.89
384.563	5.78
384.773	8.32
384.983	7.15
385.193	5.67
385.403	9.86
385.613	5.7
385.823	4.47
386.033	2.8
386.242	2.64
386.452	0.92
386.662	1.58
386.872	-0.7
387.082	-0.84
387.291	0.86
387.501	4.08
387.711	3.8
387.921	8.22
388.13	9.35
388.34	8.25
388.55	9.7
388.759	8.14
388.969	5.38
389.179	7.5
389.388	5.09
389.598	2.54
389.807	3.02
390.017	2.69
390.227	1.92
390.436	2.01
390.646	1.19
390.855	0.3
391.065	1.37
391.274	0.74
391.484	3.24
391.693	4.87
391.903	5.29
392.112	5.43
392.322	7.52
392.531	7.79
392.74	7.84
392.95	6.46
393.159	5.67
393.369	5.19
393.578	4.67
393.787	3.97
393.997	4.74
394.206	5.19
394.415	5.05
394.625	4.38
394.834	3.36
395.043	3.92
395.252	4.1
395.462	4.36
395.671	4.91
395.88	5.09
396.089	6.08
396.298	6.55
396.508	6.23
396.717	5.48
396.926	4.7
397.135	4.13
397.344	3.52
397.553	3.32
397.762	3.39
397.971	3.3
398.181	2.95
398.39	2.98
398.599	2.93
398.808	3.4
399.017	3.08
399.226	3.44
399.435	3.39
399.644	3.6
399.853	3.58
400.062	3.57
400.27	3.41
400.479	3.57
400.688	3.44
400.897	3.58
401.106	3.75
401.315	3.83
401.524	3.87
401.733	4.02
401.941	3.97
402.15	3.55
402.359	3.57
402.568	3.58
402.777	3.41
402.985	3.34
403.194	3.22
403.403	3.03
403.612	3.37
403.82	3.44
404.029	3.3
404.238	3.33
404.446	3.25
404.655	3.15
404.864	3.26
405.072	3.17
405.281	2.86
405.489	2.98
405.698	2.91
405.906	2.94
406.115	3.07
406.324	2.96
406.532	3
406.741	3.23
406.949	3.13
407.158	3.21
407.366	3.35
407.574	3.31
407.783	3.33
407.991	3.19
408.2	3.09
408.408	3.09
408.617	2.98
408.825	2.95
409.033	2.93
409.242	2.96
409.45	2.99
409.658	2.99
409.867	2.97
410.075	3.07
410.283	2.91
410.491	2.84
410.7	2.8
410.908	2.9
411.116	2.85
411.324	2.89
411.533	2.77
411.741	2.83
411.949	2.84
412.157	2.88
412.365	2.79
412.573	2.8
412.781	2.8
412.99	2.96
413.198	2.97
413.406	3
413.614	2.99
413.822	2.98
414.03	2.96
414.238	3.02
414.446	2.88
414.654	2.87
414.862	2.76
415.07	2.8
415.278	2.74
415.486	2.82
415.694	2.62
415.902	2.66
416.109	2.7
416.317	2.7
416.525	2.73
416.733	2.87
416.941	2.7
417.149	2.87
417.357	2.81
417.564	2.77
417.772	2.83
417.98	2.68
418.188	2.51
418.395	2.65
418.603	2.51
418.811	2.47
419.019	2.54
419.226	2.58
419.434	2.58
419.642	2.64
419.849	2.58
420.057	2.65
420.265	2.67
420.472	2.51
420.68	2.47
420.887	2.58
421.095	2.6
421.302	2.7
421.51	2.77
421.717	2.88
421.925	2.87
422.132	2.73
422.34	2.65
422.547	2.6
422.755	2.53
422.962	2.39
423.17	2.27
423.377	2.5
423.585	2.68
423.792	2.65
423.999	2.69
424.207	2.62
424.414	2.62
424.621	2.71
424.829	2.48
425.036	2.45
425.243	2.5
425.451	2.47
425.658	2.67
425.865	2.64
426.072	2.61
426.28	2.7
426.487	2.68
426.694	2.66
426.901	2.67
427.108	2.58
427.315	2.65
427.523	2.68
427.73	2.66
427.937	2.64
428.144	2.7
428.351	2.74
428.558	2.71
428.765	2.7
428.972	2.69
429.179	2.67
429.386	2.73
429.593	2.66
429.8	2.66
430.007	2.74
430.214	2.74
430.421	2.65
430.628	2.55
430.835	2.41
431.042	2.45
431.249	2.44
431.456	2.37
431.662	2.43
431.869	2.53
432.076	2.68
432.283	2.75
432.49	2.74
432.697	2.77
432.903	2.77
433.11	2.82
433.317	2.82
433.524	2.71
433.73	2.84
433.937	2.76
434.144	2.78
434.35	2.8
434.557	2.69
434.764	2.64
434.97	2.77
435.177	2.64
435.384	2.76
435.59	2.75
435.797	2.76
436.003	2.78
436.21	2.78
436.416	2.76
436.623	2.85
436.829	2.84
437.036	2.83
437.242	2.81
437.449	2.84
437.655	2.89
437.862	2.85
438.068	2.88
438.275	2.89
438.481	2.92
438.687	2.98
438.894	3.01
439.1	3.03
439.307	3.05
439.513	3.02
439.719	3.03
439.926	3.05
440.132	2.98
440.338	2.96
440.544	2.93
440.751	2.94
440.957	2.91
441.163	2.88
441.369	2.87
441.575	2.88
441.782	2.87
441.988	2.84
442.194	2.87
442.4	2.92
442.606	2.95
442.812	2.93
443.018	2.95
443.224	2.98
443.431	3.04
443.637	3.02
443.843	2.98
444.049	2.92
444.255	2.92
444.461	2.93
444.667	2.99
444.873	2.99
445.079	3.07
445.284	3.1
445.49	3.12
445.696	3.16
445.902	3.21
446.108	3.18
446.314	3.25
446.52	3.22
446.726	3.19
446.931	3.28
447.137	3.3
447.343	3.22
447.549	3.21
447.755	3.09
447.96	3.04
448.166	3.09
448.372	3.04
448.578	3.04
448.783	3.09
448.989	3.08
449.195	3.09
449.4	3.13
449.606	3.07
449.812	3.1
450.017	3.07
450.223	3.02
450.428	3.05
450.634	3.11
450.84	3.08
451.045	3.06
451.251	3.07
451.456	3.07
451.662	3.1
451.867	3.08
452.073	3.07
452.278	3.03
452.483	3.13
452.689	3.12
452.894	3.1
453.1	3.06
453.305	3.1
453.51	3.1
453.716	3.14
453.921	3.11
454.127	3.1
454.332	3.12
454.537	3.21
454.742	3.18
454.948	3.17
455.153	3.21
455.358	3.23
455.563	3.27
455.769	3.27
455.974	3.21
456.179	3.19
456.384	3.22
456.589	3.24
456.795	3.14
457	3.14
457.205	3.1
457.41	3.15
457.615	3.22
457.82	3.24
458.025	3.17
458.23	3.22
458.435	3.16
458.64	3.26
458.845	3.24
459.05	3.17
459.255	3.13
459.46	3.15
459.665	3.23
459.87	3.26
460.075	3.23
460.28	3.2
460.485	3.27
460.69	3.2
460.895	3.27
461.099	3.18
461.304	3.2
461.509	3.14
461.714	3.16
461.919	3.1
462.123	3.17
462.328	3.1
462.533	3.17
462.738	3.19
462.942	3.26
463.147	3.29
463.352	3.34
463.556	3.37
463.761	3.36
463.966	3.38
464.17	3.39
464.375	3.36
464.58	3.33
464.784	3.31
464.989	3.28
465.193	3.34
465.398	3.36
465.602	3.35
465.807	3.39
466.011	3.43
466.216	3.47
466.42	3.58
466.625	3.54
466.829	3.52
467.034	3.5
467.238	3.54
467.443	3.54
467.647	3.51
467.851	3.47
468.056	3.45
468.26	3.43
468.464	3.49
468.669	3.46
468.873	3.49
469.077	3.55
469.282	3.57
469.486	3.65
469.69	3.7
469.894	3.68
470.099	3.77
470.303	3.73
470.507	3.73
470.711	3.68
470.915	3.72
471.119	3.72
471.324	3.68
471.528	3.62
471.732	3.68
471.936	3.69
472.14	3.72
472.344	3.68
472.548	3.7
472.752	3.74
472.956	3.75
473.16	3.77
473.364	3.73
473.568	3.72
473.772	3.79
473.976	3.79
474.18	3.8
474.384	3.82
474.588	3.78
474.792	3.81
474.995	3.88
475.199	3.89
475.403	3.91
475.607	3.94
475.811	3.95
476.015	4.01
476.218	4.02
476.422	3.99
476.626	3.93
476.83	3.92
477.033	3.92
477.237	3.96
477.441	3.96
477.644	3.97
477.848	3.96
478.052	4.02
478.255	4.02
478.459	4.06
478.663	4.08
478.866	4.08
479.07	4.08
479.273	4.1
479.477	4.11
479.681	4.1
479.884	4.07
480.088	4.03
480.291	4.09
480.495	4.14
480.698	4.12
480.901	4.1
481.105	4.14
481.308	4.13
481.512	4.16
481.715	4.14
481.919	4.15
482.122	4.21
482.325	4.24
482.529	4.3
482.732	4.32
482.935	4.31
483.138	4.37
483.342	4.39
483.545	4.4
483.748	4.42
483.952	4.4
484.155	4.44
484.358	4.45
484.561	4.4
484.764	4.37
484.967	4.4
485.171	4.38
485.374	4.37
485.577	4.38
485.78	4.36
485.983	4.4
486.186	4.4
486.389	4.35
486.592	4.4
486.795	4.41
486.998	4.41
487.201	4.44
487.404	4.5
487.607	4.52
487.81	4.56
488.013	4.52
488.216	4.55
488.419	4.51
488.622	4.51
488.825	4.44
489.028	4.41
489.231	4.4
489.433	4.4
489.636	4.39
489.839	4.44
490.042	4.45
490.245	4.47
490.447	4.48
490.65	4.54
490.853	4.57
491.056	4.56
491.258	4.6
491.461	4.62
491.664	4.59
491.866	4.62
492.069	4.63
492.272	4.63
492.474	4.65
492.677	4.59
492.879	4.63
493.082	4.68
493.285	4.69
493.487	4.67
493.69	4.68
493.892	4.72
494.095	4.71
494.297	4.75
494.5	4.78
494.702	4.79
494.905	4.84
495.107	4.88
495.309	4.86
495.512	4.95
495.714	4.94
495.917	4.96
496.119	5.02
496.321	5.04
496.524	5.05
496.726	5.07
496.928	5.1
497.13	5.16
497.333	5.2
497.535	5.18
497.737	5.19
497.939	5.21
498.142	5.22
498.344	5.21
498.546	5.25
498.748	5.21
498.95	5.24
499.152	5.23
499.355	5.26
499.557	5.34
499.759	5.39
499.961	5.38
500.163	5.44
500.365	5.46
500.567	5.53
500.769	5.57
500.971	5.51
501.173	5.49
501.375	5.47
501.577	5.46
501.779	5.46
501.981	5.42
502.183	5.36
502.385	5.4
502.587	5.39
502.788	5.41
502.99	5.4
503.192	5.43
503.394	5.48
503.596	5.52
503.798	5.61
503.999	5.63
504.201	5.67
504.403	5.71
504.605	5.71
504.806	5.67
505.008	5.69
505.21	5.65
505.411	5.66
505.613	5.65
505.815	5.65
506.016	5.67
506.218	5.7
506.42	5.7
506.621	5.68
506.823	5.7
507.024	5.71
507.226	5.72
507.427	5.64
507.629	5.66
507.83	5.67
508.032	5.72
508.233	5.71
508.435	5.71
508.636	5.68
508.838	5.75
509.039	5.75
509.24	5.74
509.442	5.69
509.643	5.71
509.845	5.69
510.046	5.72
510.247	5.74
510.448	5.75
510.65	5.78
510.851	5.82
511.052	5.8
511.254	5.85
511.455	5.84
511.656	5.83
511.857	5.82
512.058	5.82
512.26	5.81
512.461	5.81
512.662	5.77
512.863	5.78
513.064	5.77
513.265	5.78
513.466	5.82
513.667	5.81
513.868	5.84
514.069	5.87
514.27	5.87
514.471	5.92
514.672	5.94
514.873	5.95
515.074	5.94
515.275	5.93
515.476	5.95
515.677	5.93
515.878	5.95
516.079	5.95
516.28	5.93
516.481	5.97
516.682	5.97
516.882	5.93
517.083	5.97
517.284	5.94
517.485	5.95
517.686	5.95
517.886	5.96
518.087	5.98
518.288	5.98
518.488	6
518.689	6.02
518.89	6.06
519.091	6.06
519.291	6.06
519.492	6.05
519.692	6.1
519.893	6.07
520.094	6.09
520.294	6.05
520.495	6.07
520.695	6.09
520.896	6.08
521.096	6.08
521.297	6.11
521.497	6.09
521.698	6.1
521.898	6.11
522.099	6.11
522.299	6.12
522.499	6.12
522.7	6.11
522.9	6.13
523.101	6.15
523.301	6.13
523.501	6.17
523.702	6.17
523.902	6.19
524.102	6.21
524.302	6.23
524.503	6.25
524.703	6.26
524.903	6.29
525.103	6.31
525.304	6.32
525.504	6.3
525.704	6.28
525.904	6.25
526.104	6.29
526.304	6.26
526.504	6.24
526.705	6.26
526.905	6.28
527.105	6.27
527.305	6.26
527.505	6.26
527.705	6.27
527.905	6.26
528.105	6.24
528.305	6.21
528.505	6.25
528.705	6.27
528.905	6.26
529.105	6.29
529.304	6.34
529.504	6.34
529.704	6.37
529.904	6.36
530.104	6.37
530.304	6.37
530.503	6.35
530.703	6.38
530.903	6.42
531.103	6.43
531.303	6.48
531.502	6.48
531.702	6.51
531.902	6.53
532.101	6.5
532.301	6.48
532.501	6.49
532.7	6.49
532.9	6.51
533.1	6.5
533.299	6.54
533.499	6.56
533.698	6.59
533.898	6.58
534.097	6.6
534.297	6.62
534.496	6.65
534.696	6.63
534.895	6.71
535.095	6.72
535.294	6.73
535.494	6.76
535.693	6.77
535.892	6.77
536.092	6.78
536.291	6.75
536.491	6.76
536.69	6.78
536.889	6.76
537.088	6.76
537.288	6.83
537.487	6.87
537.686	6.9
537.886	6.93
538.085	6.99
538.284	7.02
538.483	7.08
538.682	7.08
538.882	7.08
539.081	7.09
539.28	7.1
539.479	7.08
539.678	7.1
539.877	7.09
540.076	7.11
540.275	7.15
540.474	7.14
540.673	7.16
540.872	7.2
541.071	7.21
541.27	7.22
541.469	7.24
541.668	7.26
541.867	7.34
542.066	7.39
542.265	7.4
542.464	7.46
542.663	7.53
542.862	7.58
543.06	7.59
543.259	7.59
543.458	7.62
543.657	7.65
543.856	7.65
544.054	7.65
544.253	7.64
544.452	7.62
544.651	7.64
544.849	7.65
545.048	7.68
545.247	7.69
545.445	7.71
545.644	7.77
545.843	7.82
546.041	7.86
546.24	7.93
546.438	7.98
546.637	8.06
546.836	8.1
547.034	8.13
547.233	8.17
547.431	8.19
547.63	8.2
547.828	8.23
548.027	8.22
548.225	8.25
548.423	8.27
548.622	8.32
548.82	8.38
549.019	8.44
549.217	8.51
549.415	8.57
549.614	8.58
549.812	8.62
550.01	8.67
550.209	8.71
550.407	8.73
550.605	8.76
550.803	8.8
551.002	8.87
551.2	9
551.398	9.02
551.596	9.05
551.794	9.14
551.993	9.14
552.191	9.21
552.389	9.26
552.587	9.25
552.785	9.35
552.983	9.41
553.181	9.43
553.379	9.53
553.577	9.6
553.775	9.69
553.973	9.76
554.171	9.77
554.369	9.81
554.567	9.84
554.765	9.84
554.963	9.85
555.161	9.9
555.359	9.92
555.557	10.02
555.755	10.12
555.952	10.21
556.15	10.28
556.348	10.38
556.546	10.44
556.744	10.52
556.941	10.57
557.139	10.62
557.337	10.69
557.535	10.81
557.732	10.92
557.93	10.99
558.128	11.09
558.325	11.14
558.523	11.19
558.721	11.24
558.918	11.28
559.116	11.33
559.313	11.42
559.511	11.47
559.708	11.56
559.906	11.64
560.104	11.76
560.301	11.82
560.498	11.87
560.696	11.91
560.893	12
561.091	12.12
561.288	12.18
561.486	12.23
561.683	12.32
561.88	12.43
562.078	12.48
562.275	12.54
562.473	12.6
562.67	12.66
562.867	12.76
563.064	12.85
563.262	12.92
563.459	13.04
563.656	13.13
563.853	13.16
564.051	13.28
564.248	13.37
564.445	13.47
564.642	13.56
564.839	13.69
565.036	13.82
565.234	13.98
565.431	14.06
565.628	14.13
565.825	14.17
566.022	14.25
566.219	14.31
566.416	14.35
566.613	14.42
566.81	14.46
567.007	14.54
567.204	14.63
567.401	14.69
567.598	14.71
567.795	14.77
567.991	14.84
568.188	14.93
568.385	15.02
568.582	15.12
568.779	15.2
568.976	15.32
569.172	15.41
569.369	15.5
569.566	15.6
569.763	15.68
569.96	15.75
570.156	15.8
570.353	15.86
570.55	15.96
570.746	15.99
570.943	16.07
571.14	16.1
571.336	16.12
571.533	16.2
571.729	16.24
571.926	16.27
572.123	16.34
572.319	16.36
572.516	16.42
572.712	16.49
572.909	16.58
573.105	16.69
573.302	16.72
573.498	16.76
573.695	16.77
573.891	16.86
574.087	16.88
574.284	16.91
574.48	16.89
574.677	16.92
574.873	16.98
575.069	17.13
575.266	17.15
575.462	17.23
575.658	17.29
575.854	17.39
576.051	17.45
576.247	17.45
576.443	17.45
576.639	17.51
576.835	17.51
577.032	17.54
577.228	17.58
577.424	17.62
577.62	17.71
577.816	17.76
578.012	17.79
578.208	17.82
578.404	17.87
578.6	17.87
578.796	17.91
578.993	17.91
579.189	17.85
579.384	17.86
579.58	17.89
579.776	17.84
579.972	17.82
580.168	17.77
580.364	17.76
580.56	17.8
580.756	17.71
580.952	17.73
581.148	17.77
581.343	17.8
581.539	17.8
581.735	17.81
581.931	17.83
582.127	17.9
582.322	17.93
582.518	17.93
582.714	17.87
582.909	17.86
583.105	17.86
583.301	17.8
583.496	17.77
583.692	17.71
583.888	17.67
584.083	17.71
584.279	17.78
584.474	17.78
584.67	17.8
584.866	17.82
585.061	17.85
585.257	17.86
585.452	17.81
585.648	17.8
585.843	17.78
586.039	17.74
586.234	17.7
586.429	17.66
586.625	17.68
586.82	17.69
587.015	17.6
587.211	17.61
587.406	17.65
587.601	17.67
587.797	17.65
587.992	17.65
588.187	17.67
588.383	17.71
588.578	17.69
588.773	17.71
588.968	17.77
589.163	17.83
589.359	17.74
589.554	17.79
589.749	17.83
589.944	17.88
590.139	17.9
590.334	17.86
590.529	17.89
590.724	17.97
590.919	18.02
591.114	18.01
591.309	18.08
591.504	18.13
591.699	18.17
591.894	18.19
592.089	18.27
592.284	18.21
592.479	18.26
592.674	18.23
592.869	18.29
593.064	18.36
593.259	18.37
593.454	18.39
593.648	18.44
593.843	18.5
594.038	18.56
594.233	18.59
594.428	18.65
594.622	18.68
594.817	18.76
595.012	18.84
595.206	18.91
595.401	18.93
595.596	19.01
595.79	19.05
595.985	19.2
596.18	19.25
596.374	19.29
596.569	19.34
596.763	19.51
596.958	19.52
597.153	19.58
597.347	19.61
597.542	19.67
597.736	19.75
597.931	19.81
598.125	19.86
598.319	19.92
598.514	20.02
598.708	20.07
598.903	20.18
599.097	20.25
599.291	20.35
599.486	20.33
599.68	20.39
599.874	20.46
600.069	20.5
600.263	20.49
600.457	20.54
600.651	20.57
600.846	20.64
601.04	20.67
601.234	20.69
601.428	20.68
601.622	20.72
601.817	20.78
602.011	20.8
602.205	20.79
602.399	20.83
602.593	20.84
602.787	20.9
602.981	20.9
603.175	20.85
603.369	20.84
603.563	20.92
603.757	20.94
603.951	20.92
604.145	20.93
604.339	20.95
604.533	21
604.727	21.02
604.921	20.97
605.115	20.88
605.309	20.88
605.502	20.87
605.696	20.81
605.89	20.76
606.084	20.72
606.278	20.63
606.471	20.64
606.665	20.59
606.859	20.58
607.053	20.6
607.246	20.57
607.44	20.53
607.634	20.53
607.827	20.46
608.021	20.36
608.214	20.26
608.408	20.18
608.602	20.11
608.795	20
608.989	19.98
609.182	20.01
609.376	19.96
609.569	19.9
609.763	19.9
609.956	19.8
610.15	19.8
610.343	19.73
610.537	19.66
610.73	19.68
610.923	19.61
611.117	19.47
611.31	19.45
611.504	19.39
611.697	19.31
611.89	19.21
612.083	19.11
612.277	19.04
612.47	19.03
612.663	18.98
612.856	18.92
613.05	18.85
613.243	18.81
613.436	18.69
613.629	18.67
613.822	18.55
614.015	18.48
614.209	18.45
614.402	18.39
614.595	18.28
614.788	18.27
614.981	18.2
615.174	18.15
615.367	18.09
615.56	17.97
615.753	17.91
615.946	17.91
616.139	17.9
616.332	17.83
616.525	17.84
616.718	17.79
616.911	17.82
617.103	17.78
617.296	17.68
617.489	17.61
617.682	17.6
617.875	17.47
618.067	17.38
618.26	17.28
618.453	17.25
618.646	17.21
618.838	17.19
619.031	17.16
619.224	17.23
619.417	17.23
619.609	17.2
619.802	17.21
619.994	17.23
620.187	17.14
620.38	17.1
620.572	17.01
620.765	16.96
620.957	16.9
621.15	16.84
621.342	16.81
621.535	16.8
621.727	16.76
621.92	16.77
622.112	16.8
622.305	16.78
622.497	16.69
622.69	16.66
622.882	16.68
623.074	16.66
623.267	16.6
623.459	16.56
623.651	16.6
623.844	16.67
624.036	16.69
624.228	16.62
624.42	16.63
624.613	16.63
624.805	16.61
624.997	16.59
625.189	16.59
625.381	16.51
625.574	16.51
625.766	16.47
625.958	16.49
626.15	16.49
626.342	16.46
626.534	16.36
626.726	16.37
626.918	16.35
627.11	16.3
627.302	16.22
627.494	16.16
627.686	16.13
627.878	16.14
628.07	16.12
628.262	16.06
628.454	16.09
628.646	16
628.838	15.97
629.029	15.88
629.221	15.8
629.413	15.72
629.605	15.71
629.797	15.68
629.989	15.74
630.18	15.72
630.372	15.75
630.564	15.81
630.755	15.78
630.947	15.78
631.139	15.68
631.33	15.63
631.522	15.59
631.714	15.56
631.905	15.54
632.097	15.53
632.289	15.47
632.48	15.45
632.672	15.37
632.863	15.37
633.055	15.35
633.246	15.32
633.438	15.3
633.629	15.29
633.821	15.33
634.012	15.32
634.203	15.36
634.395	15.35
634.586	15.33
634.777	15.33
634.969	15.34
635.16	15.3
635.351	15.37
635.543	15.31
635.734	15.28
635.925	15.31
636.117	15.33
636.308	15.29
636.499	15.26
636.69	15.27
636.881	15.31
637.073	15.27
637.264	15.21
637.455	15.21
637.646	15.25
637.837	15.25
638.028	15.25
638.219	15.2
638.41	15.23
638.601	15.21
638.792	15.13
638.983	15.02
639.174	15.04
639.365	14.94
639.556	14.93
639.747	14.91
639.938	14.91
640.129	14.92
640.32	14.96
640.511	14.92
640.701	14.93
640.892	14.95
641.083	14.88
641.274	14.85
641.465	14.83
641.655	14.81
641.846	14.78
642.037	14.72
642.228	14.66
642.418	14.65
642.609	14.64
642.8	14.58
642.99	14.57
643.181	14.59
643.372	14.56
643.562	14.49
643.753	14.48
643.943	14.44
644.134	14.45
644.324	14.44
644.515	14.37
644.705	14.41
644.896	14.41
645.086	14.38
645.277	14.41
645.467	14.38
645.658	14.36
645.848	14.38
646.038	14.34
646.229	14.39
646.419	14.41
646.61	14.32
646.8	14.31
646.99	14.27
647.18	14.19
647.371	14.22
647.561	14.15
647.751	14.08
647.941	14.05
648.132	14.06
648.322	14.03
648.512	14.04
648.702	13.97
648.892	13.98
649.082	13.99
649.272	13.95
649.462	13.94
649.653	13.95
649.843	13.91
650.033	13.92
650.223	13.86
650.413	13.88
650.603	13.89
650.793	13.85
650.983	13.8
651.172	13.78
651.362	13.72
651.552	13.7
651.742	13.57
651.932	13.54
652.122	13.47
652.312	13.34
652.502	13.3
652.691	13.24
652.881	13.2
653.071	13.16
653.261	13.11
653.45	13.03
653.64	13.07
653.83	13.01
654.019	12.9
654.209	12.82
654.399	12.76
654.588	12.64
654.778	12.55
654.968	12.42
655.157	12.27
655.347	12.16
655.536	11.96
655.726	11.87
655.915	11.73
656.105	11.61
656.294	11.45
656.484	11.38
656.673	11.32
656.863	11.23
657.052	11.06
657.241	10.96
657.431	10.88
657.62	10.73
657.809	10.56
657.999	10.44
658.188	10.34
658.377	10.31
658.567	10.2
658.756	10.07
658.945	9.98
659.134	9.85
659.324	9.69
659.513	9.52
659.702	9.32
659.891	9.17
660.08	9.07
660.269	8.98
660.458	8.89
660.648	8.78
660.837	8.73
661.026	8.65
661.215	8.55
661.404	8.43
661.593	8.28
661.782	8.17
661.971	8.07
662.16	7.94
662.349	7.79
662.538	7.7
662.726	7.58
662.915	7.49
663.104	7.39
663.293	7.33
663.482	7.22
663.671	7.19
663.86	7.13
664.048	7.07
664.237	7.03
664.426	6.97
664.615	6.91
664.803	6.89
664.992	6.88
665.181	6.85
665.369	6.79
665.558	6.72
665.747	6.73
665.935	6.68
666.124	6.64
666.312	6.54
666.501	6.44
666.69	6.39
666.878	6.38
667.067	6.34
667.255	6.35
667.444	6.33
667.632	6.29
667.82	6.28
668.009	6.31
668.197	6.32
668.386	6.22
668.574	6.12
668.762	6.04
668.951	6.02
669.139	6.05
669.327	5.98
669.516	5.94
669.704	6.02
669.892	6.08
670.08	6.04
670.269	6.11
670.457	6.05
670.645	6.07
670.833	6.08
671.021	6.03
671.21	6.01
671.398	6.08
671.586	6.04
671.774	6.06
671.962	6.08
672.15	6.1
672.338	6.15
672.526	6.11
672.714	6.11
672.902	6.13
673.09	6.2
673.278	6.18
673.466	6.28
673.654	6.3
673.842	6.44
674.03	6.56
674.218	6.58
674.405	6.58
674.593	6.7
674.781	6.63
674.969	6.71
675.157	6.69
675.344	6.71
675.532	6.83
675.72	6.91
675.908	6.91
676.095	7.05
676.283	7.07
676.471	7.17
676.658	7.24
676.846	7.31
677.033	7.31
677.221	7.4
677.409	7.44
677.596	7.58
677.784	7.64
677.971	7.74
678.159	7.8
678.346	7.86
678.534	7.96
678.721	8.06
678.909	8.06
679.096	8.1
679.283	8.14
679.471	8.21
679.658	8.35
679.846	8.45
680.033	8.47
680.22	8.52
680.408	8.66
680.595	8.68
680.782	8.78
680.969	8.83
681.157	8.83
681.344	9.03
681.531	9.12
681.718	9.24
681.905	9.42
682.093	9.55
682.28	9.74
682.467	9.94
682.654	10
682.841	10.17
683.028	10.32
683.215	10.42
683.402	10.5
683.589	10.65
683.776	10.76
683.963	10.88
684.15	11.01
684.337	11.1
684.524	11.37
684.711	11.57
684.898	11.66
685.085	11.93
685.271	12.2
685.458	12.55
685.645	12.82
685.832	13
686.019	13.26
686.205	13.56
686.392	13.8
686.579	14.03
686.766	14.22
686.952	14.51
687.139	14.83
687.326	15.21
687.512	15.57
687.699	15.81
687.886	16.09
688.072	16.47
688.259	16.9
688.445	17.24
688.632	17.72
688.818	18.08
689.005	18.63
689.191	19.18
689.378	19.53
689.564	19.88
689.751	20.5
689.937	20.83
690.124	21.43
690.31	21.98
690.496	22.48
690.683	23.17
690.869	23.73
691.055	24.32
691.242	24.92
691.428	25.4
691.614	26.06
691.8	26.6
691.987	27.22
692.173	28.01
692.359	28.63
692.545	29.25
692.731	29.96
692.918	30.53
693.104	31.12
693.29	31.87
693.476	32.45
693.662	33.04
693.848	33.72
694.034	34.35
694.22	35.11
694.406	35.98
694.592	36.54
694.778	37.22
694.964	37.87
695.15	38.56
695.336	39.49
695.522	40.21
695.708	40.9
695.894	41.7
696.08	42.33
696.265	43.07
696.451	44.05
696.637	44.62
696.823	45.35
697.009	46.24
697.194	47.02
697.38	47.8
697.566	48.54
697.751	49.09
697.937	49.86
698.123	50.53
698.308	51.02
698.494	51.59
698.68	52.38
698.865	53.21
699.051	53.95
699.236	54.53
699.422	55.14
699.607	55.72
699.793	56.32
699.978	56.82
700.164	57.57
700.349	58.01
700.535	58.62
700.72	59.24
700.906	60.04
701.091	60.73
701.276	61.27
701.462	61.56
701.647	62.12
701.832	62.64
702.018	63.18
702.203	63.6
702.388	63.95
702.573	64.63
702.759	65.21
702.944	65.92
703.129	66.48
703.314	66.97
703.499	67.56
703.684	68.31
703.87	68.62
704.055	68.97
704.24	69.35
704.425	69.96
704.61	70.23
704.795	70.47
704.98	70.75
705.165	71.38
705.35	71.92
705.535	72.45
705.72	72.55
705.905	73.06
706.09	73.38
706.275	73.63
706.459	74.05
706.644	74.41
706.829	74.7
707.014	75.03
707.199	75.21
707.384	75.63
707.568	76.12
707.753	76.53
707.938	76.76
708.123	76.95
708.307	77.54
708.492	77.83
708.677	78.38
708.861	78.54
709.046	78.25
709.231	78.44
709.415	78.65
709.6	78.57
709.784	78.89
709.969	79.17
710.153	79.61
710.338	80.01
710.522	80.34
710.707	80.29
710.891	80.87
711.076	80.98
711.26	81.05
711.445	81.1
711.629	81.65
711.813	81.78
711.998	82.2
712.182	82.26
712.366	82.86
712.551	83.1
712.735	83.05
712.919	83.21
713.103	83.43
713.288	84.09
713.472	84.33
713.656	84.25
713.84	84.3
714.024	84.98
714.208	85.12
714.393	85.42
714.577	85.3
714.761	85.62
714.945	85.82
715.129	86.05
715.313	86.02
715.497	86.24
715.681	86.49
715.865	86.51
716.049	86.62
716.233	86.85
716.417	87.14
716.601	87.19
716.785	87.22
716.968	87.13
717.152	87.27
717.336	87.27
717.52	87.48
717.704	87.54
717.888	87.83
718.071	88
718.255	88.37
718.439	88.35
718.622	88.56
718.806	88.57
718.99	88.79
719.174	88.77
719.357	88.97
719.541	89.18
719.724	89.53
719.908	89.43
720.092	89.68
720.275	89.73
720.459	89.9
720.642	89.83
720.826	89.59
721.009	89.5
721.193	89.78
721.376	89.87
721.559	90.03
721.743	90.2
721.926	90.18
722.11	90.67
722.293	90.55
722.476	90.35
722.66	90.38
722.843	90.53
723.026	90.58
723.21	90.64
723.393	90.84
723.576	91.13
723.759	91.54
723.942	91.57
724.126	91.18
724.309	91.54
724.492	91.73
724.675	91.41
724.858	92.01
725.041	92.2
725.224	92.53
725.407	92.65
725.59	92.59
725.774	92.77
725.957	93
726.14	92.84
726.322	92.74
726.505	93
726.688	93.29
726.871	93.38
727.054	93.61
727.237	93.01
727.42	93.11
727.603	93.08
727.786	93.12
727.968	93.23
728.151	93.26
728.334	93.17
728.517	94.09
728.699	94.18
728.882	94.68
729.065	94.51
729.248	94.75
729.43	95.09
729.613	95.54
729.796	95.24
729.978	95.5
730.161	95.45
730.343	95.72
730.526	95.89
730.708	95.86
730.891	95.89
731.073	96.39
731.256	96.44
731.438	96.81
731.621	96.92
731.803	96.96
731.986	96.97
732.168	96.92
732.35	96.79
732.533	96.69
732.715	96.43
732.898	96.38
733.08	96.83
733.262	97.05
733.444	96.98
733.627	97.68
733.809	98.07
733.991	98.41
734.173	98.22
734.355	98.28
734.538	98.19
734.72	98.91
734.902	98.39
735.084	98.65
735.266	98.26
735.448	98.79
735.63	98.49
735.812	98.72
735.994	98.19
736.176	98.49
736.358	98.21
736.54	98.54
736.722	98.4
736.904	98.27
737.086	98.42
737.268	99
737.45	99.08
737.632	99
737.814	99.06
737.995	99.61
738.177	100.26
738.359	100.21
738.541	99.79
738.723	99.62
738.904	99.51
739.086	99.62
739.268	99.52
739.449	99.29
739.631	99.58
739.813	99.68
739.994	100.29
740.176	100.5
740.358	100.73
740.539	100.61
740.721	100.71
740.902	100.26
741.084	100.19
741.265	99.58
741.447	99.3
741.628	98.68
741.81	99.02
741.991	99.14
742.172	99.23
742.354	99.92
742.535	100.4
742.717	101.11
742.898	101.7
743.079	101.26
743.261	101.12
743.442	101.47
743.623	101.41
743.804	101.16
743.986	100.88
744.167	100.6
744.348	100.45
744.529	100.76
744.71	99.78
744.891	99.73
745.073	99.4
745.254	99.43
745.435	99.42
745.616	99.99
745.797	99.21
745.978	100.55
746.159	99.72
746.34	100.23
746.521	100.29
746.702	100.02
746.883	100.11
747.064	99.94
747.245	99.78
747.426	100.2
747.606	100.09
747.787	100.45
747.968	101.67
748.149	101.41
748.33	102.68
748.51	102.12
748.691	102.06
748.872	101.95
749.053	101.37
749.233	100.51
749.414	99.99
749.595	99.29
749.775	98.98
749.956	98.49
750.137	98.8
750.317	99.14
750.498	99.14
750.678	99.4
750.859	99.22
751.04	99.92
751.22	100.15
751.4	99.75
751.581	99.67
751.761	100.57
751.942	100.59
752.122	100.91
752.303	100.67
752.483	101.2
752.663	101.49
752.844	101.1
753.024	100.45
753.204	100.47
753.385	99.56
753.565	98.88
753.745	98.19
753.925	97.97
754.106	98.67
754.286	98.48
754.466	98.46
754.646	98.97
754.826	99.55
755.006	99.57
755.187	99.59
755.367	98.87
755.547	98.89
755.727	97.95
755.907	98.13
756.087	98.34
756.267	98
756.447	97.35
756.627	97.35
756.807	97.34
756.987	98.94
757.167	98.75
757.346	97.8
757.526	98.68
757.706	99.33
757.886	99.15
758.066	98.97
758.246	98.13
758.425	98.06
758.605	98.39
758.785	97.56
758.965	96.63
759.144	97.1
759.324	97.27
759.504	97
759.683	96.62
759.863	97.08
760.043	97.38
760.222	97.31
760.402	97.73
760.581	97.28
760.761	96.28
760.94	96.65
761.12	96.42
761.299	95.42
761.479	97.08
761.658	96.52
761.838	96.91
762.017	97.83
762.197	98.66
762.376	98.58
762.555	99.4
762.735	97.07
762.914	97.79
763.093	97.02
763.273	97.14
763.452	95.89
763.631	94.6
763.81	95.42
763.99	96.54
764.169	95.9
764.348	96.35
764.527	96.7
764.706	96.81
764.885	98.28
765.064	97.27
765.243	97.21
765.423	97.57
765.602	97.15
765.781	97.08
765.96	97.45
766.139	96.31
766.318	97.07
766.497	97.1
766.676	97.32
766.854	97.27
767.033	96.22
767.212	96.09
767.391	96.17
767.57	95.85
767.749	95.95
767.928	94.31
768.106	95.17
768.285	96.28
768.464	96.15
768.643	96.65
768.821	96.31
769	96.73
769.179	96.13
769.357	94.81
769.536	93.39
769.715	92.78
769.893	92.74
770.072	92.01
770.25	91.58
770.429	93.53
770.607	94.88
770.786	95.92
770.964	96.24
771.143	96.32
771.321	96.54
771.5	96.51
771.678	95.12
771.857	94.42
772.035	94.19
772.213	93.68
772.392	93.52
772.57	93.89
772.748	92.82
772.927	93.45
773.105	93.6
773.283	92.3
773.461	92.46
773.64	91.8
773.818	91.06
773.996	91.81
774.174	91.26
774.352	91.22
774.531	91.77
774.709	92.28
774.887	92.07
775.065	92.8
775.243	93.46
775.421	92.93
775.599	91.7
775.777	91.75
775.955	91.08
776.133	90.22
776.311	89.18
776.489	88.45
776.667	88.74
776.844	89.34
777.022	89.79
777.2	89.3
777.378	91.07
777.556	91.75
777.734	90.76
777.911	91.24
778.089	90.44
778.267	90.36
778.445	90.21
778.622	89.86
778.8	89.73
778.978	90.58
779.155	89.09
779.333	88.05
779.511	88.12
779.688	87.51
779.866	86.49
780.043	87.63
780.221	87.26
780.398	88.62
780.576	89.78
780.753	87.97
780.931	89.65
781.108	90.7
781.286	88.47
781.463	87.3
781.64	86.73
781.818	86.96
781.995	88.67
782.172	87.93
782.35	86.49
782.527	88.97
782.704	89.08
782.882	89.78
783.059	89.19
783.236	87.88
783.413	88.56
783.59	89.49
783.768	88.95
783.945	90.36
784.122	87.96
784.299	88.96
784.476	89.97
784.653	89.15
784.83	88.33
785.007	87.68
785.184	86.77
785.361	88.63
785.538	87.18
785.715	87.35
785.892	88.11
786.069	88.83
786.246	86.41
786.423	89.05
786.6	89.85
786.776	89.35
786.953	88.87
787.13	89.54
787.307	89.93
787.484	91.8
787.66	88.32
787.837	87.9
788.014	88.65
788.191	87.68
788.367	87.09
788.544	84.16
788.721	84.17
788.897	88.31
789.074	86.92
789.25	89.22
789.427	89.9
789.603	90.54
789.78	94.58
789.956	93.6
790.133	91.48
790.309	91
790.486	91.12
790.662	90.77
790.839	90.25
791.015	89.76
791.192	90.19
791.368	91.75
791.544	93.6
791.721	90.51
791.897	91.87
792.073	88.54
792.249	89.42
792.426	90.16
792.602	86.54
792.778	84.46
792.954	85.72
793.13	85.6
793.307	85.12
793.483	83.77
793.659	83.5
793.835	84.56
794.011	82.65
794.187	78.66
794.363	80.7
794.539	81.57
794.715	80.02
794.891	76.66
795.067	75.64
795.243	76.76
795.419	80.68
795.595	76.86
795.771	79.65
795.947	78.75
796.122	80.72
796.298	80.49
796.474	82.07
796.65	81.83
796.826	83.49
797.001	83.69
797.177	86.93
797.353	90.57
797.529	91.28
797.704	93.19
797.88	91.11
798.056	90.06
798.231	86.88
798.407	84.83
798.582	82.06
798.758	82.61
798.934	80.62
799.109	81.11
799.285	82.25
799.46	84.74
799.636	84.49
799.811	86.98
799.986	85.78
800.162	86.1
800.337	87.73
800.513	86.32
800.688	86.19
800.863	87
801.039	81.51
801.214	83.18
801.389	82.73
801.565	85.71
801.74	84.36
801.915	82.36
802.09	80.64
802.265	83.26
802.441	79.74
802.616	81.51
802.791	77.74
802.966	79.81
803.141	75.86
803.316	78.62
803.491	77.51
803.666	78.99
803.841	77.55
804.016	79.58
804.191	77.25
804.366	81.5
804.541	77.17
804.716	77.08
804.891	80.84
805.066	78.27
805.241	74.5
805.416	73.44
805.591	76.15
805.765	79.01
805.94	79.54
806.115	73.84
806.29	75.07
806.464	73.5
806.639	74.67
806.814	68.52
806.989	68.69
807.163	65.9
807.338	66.95
807.512	61.63
807.687	64.57
807.862	63.43
808.036	66.58
808.211	68.55
808.385	65.97
808.56	72.95
808.734	75.57
808.909	75.28
809.083	79.06
809.258	78.39
809.432	72.39
809.606	74.58
809.781	70.37
809.955	75.44
810.13	77.08
810.304	74.63
810.478	78.16
810.652	83.94
810.827	83.93
811.001	82.45
811.175	76.81
811.349	75.58
811.524	74.77
811.698	74.32
811.872	73.05
812.046	71.69
812.22	69.17
812.394	72.75
812.568	74.53
812.742	75.03
812.916	72.48
813.09	70.88
813.264	72.32
813.438	78.73
813.612	75.48
813.786	76.09
813.96	78.28
814.134	81.67
814.308	79.69
814.482	79.54
814.656	79.44
814.83	82.27
815.003	80.11
815.177	79.49
815.351	78.45
815.525	76.85
815.698	78.09
815.872	73.08
816.046	73.08
816.219	71.65
816.393	63.37
816.567	59.58
816.74	62.84
816.914	65.93
817.088	61.98
817.261	63.11
817.435	63.85
817.608	70.81
817.782	78.01
817.955	80.13
818.129	77.25
818.302	86.53
818.475	87.54
818.649	85.46
818.822	85.88
818.996	85.76
819.169	83.06
819.342	82.3
819.516	80.74
819.689	80.97
819.862	80.53
820.035	75.29
820.209	71.66
820.382	66.47
820.555	66.53
820.728	60.31
820.901	54
821.075	58.25
821.248	59.62
821.421	53.72
821.594	57.04
821.767	61.43
821.94	57.6
822.113	61.02
822.286	60.05
822.459	63.07
822.632	68.6
822.805	66.86
822.978	61.89
823.151	68.6
823.324	64.02
823.496	56.87
823.669	60.35
823.842	59.11
824.015	58.53
824.188	62.38
824.361	61.1
824.533	67.04
824.706	79.13
824.879	80.74
825.051	86.88
825.224	90.79
825.397	85.88
825.569	93.64
825.742	89.88
825.915	85.4
826.087	79.64
826.26	76.99
826.432	81.92
826.605	74.66
826.777	69.33
826.95	66.55
827.122	58.21
827.295	55.54
827.467	44.15
827.64	35.81
827.812	39.08
827.984	43.31
828.157	48.51
828.329	50.93
828.501	59.88
828.674	63.25
828.846	62.72
829.018	57.82
829.19	48.39
829.363	49.22
829.535	53.61
829.707	44.5
829.879	47.45
830.051	50.77
830.223	43.5
830.395	43.63
830.568	48.09
830.74	50.02
830.912	53.61
831.084	48.17
831.256	43
831.428	54.92
831.6	59.58
831.772	52.85
831.943	48.66
832.115	52.08
832.287	52.98
832.459	60.57
832.631	62.92
832.803	74.23
832.975	74.17
833.146	72.62
833.318	69.62
833.49	86.03
833.662	82.84
833.833	73.63
834.005	63.23
834.177	71.01
834.348	65.13
834.52	64.43
834.692	63.58
834.863	61.29
835.035	67.33
835.206	72.47
835.378	63.97
835.549	77.14
835.721	72.48
835.892	63.92
836.064	72.77
836.235	78.41
836.407	70.77
836.578	74.61
836.749	70.96
836.921	72.86
837.092	78.47
837.264	62.92
837.435	43.31
837.606	57.6
837.777	51.07
837.949	45.43
838.12	51.2
838.291	60.11
838.462	71.72
838.633	75.86
838.805	61.98
838.976	66.86
839.147	65.02
839.318	58.26
839.489	44.14
839.66	37.28
839.831	30.81
840.002	26.54
840.173	16.22
840.344	25.64
840.515	29.39
840.686	34.92
840.857	32.65
841.028	43.42
841.199	47.03
841.369	42.62
841.54	44.72
841.711	47.58
841.882	40.65
842.053	31.2
842.223	36.46
842.394	51.32
842.565	58.77
842.736	39.36
842.906	32.44
843.077	36.51
843.248	50.84
843.418	50.45
843.589	51.74
843.759	48.3
843.93	56.13
844.101	64.3
844.271	67.86
844.442	71.61
844.612	62.75
844.783	44.5
844.953	44.27
845.123	52.18
845.294	41.48
845.464	52.94
845.635	46.72
845.805	52.8
845.975	48.79
846.146	41.14
846.316	36.88
846.486	49.12
846.656	48.45
846.827	41.46
846.997	51.77
847.167	64.07
847.337	77.91
847.507	77.42
847.677	87.23
847.848	89.68
848.018	95.67
848.188	89
848.358	96.28
848.528	77.81
848.698	55.51
848.868	20.8
849.038	27.67
849.208	28.11
849.378	20.56
849.548	26.56
849.718	26.25
849.887	24.25
850.057	38.24
850.227	28.82
850.397	26.3
850.567	38.22
850.737	20.19
850.906	25.06
851.076	38.83
851.246	41.47
851.415	48.11
851.585	48.82
851.755	46.29
851.924	64.22
852.094	58.51
852.264	58.22
852.433	63.33
852.603	69.28
852.772	70.38
852.942	55.44
853.111	49.67
853.281	55.46
853.45	49.14
853.62	29.41
853.789	24.74
853.959	19.25
854.128	8.48
854.297	-0.11
854.467	-3.69
854.636	8.3
854.805	24.88
854.975	28.02
855.144	36.66
855.313	54.18
855.482	54.93
855.652	53.09
855.821	53.82
855.99	50.69
856.159	33.89
856.328	32.66
856.497	35.56
856.667	38.91
856.836	31.34
857.005	29.14
857.174	43.36
857.343	46.91
857.512	24.25
857.681	7.16
857.85	1.63
858.019	14.17
858.188	-4.4
858.356	-38.3
858.525	-14.9
858.694	10.48
858.863	14.48
859.032	3.59
859.201	-10.24
859.369	10.87
859.538	11.3
859.707	16.8
859.876	27.77
860.044	42.07
860.213	59.26
860.382	64.56
860.55	81.22
860.719	106.96
860.888	95.9
861.056	83.62
861.225	89.43
861.393	86.58
861.562	59.43
861.73	64.99
861.899	24.73
862.067	52.21
862.236	48.67
862.404	44.52
862.572	40.73
862.741	49.39
862.909	30.34
863.078	35.53
863.246	10.52
863.414	21.46
863.582	11.85
863.751	1.02
863.919	11.45
864.087	14.66
864.255	12
864.424	6.33
864.592	-0.25
864.76	-14.71
864.928	0.53
865.096	-11.09
865.264	-2.05
865.432	-5.45
865.6	-6.94
865.768	-15.44
865.936	10.95
866.104	0.25
866.272	14.53
866.44	-38.43
866.608	-28.21
866.776	-0.17
866.944	5.82
867.112	-16.5
867.28	-38.01
867.448	-17.96
867.615	19.41
867.783	11.13
867.951	25.4
868.119	34.99
868.286	47.52
868.454	40.6
868.622	28.15
868.789	28.9
868.957	38.69
869.125	31.55
869.292	36.74
869.46	22.14
869.627	18.43
869.795	34.85
869.963	30.59
870.13	42.04
870.298	31.59
870.465	2.33
870.632	17.9
870.8	21.34
870.967	7.74
871.135	4.8
871.302	7.28
871.469	3.3
871.637	-2.5
871.804	7.6
871.971	19.23
872.139	30.6
872.306	26.96
872.473	-4.73
872.64	3.36
872.807	44.93
872.975	55.82
873.142	40.24
873.309	33.93
873.476	59.74
873.643	104.11
873.81	94.46
873.977	-18.99
874.144	-52.83
874.311	-86.57
874.478	-94.28
874.645	-65.3
874.812	-16.05
874.979	-39.68
875.146	-60.01
875.313	-62.75
875.48	-9.07
875.647	-63.84
875.813	-99.17
875.98	-119.46
876.147	-21.92
876.314	-4.7
876.481	-13.98
876.647	5.3
876.814	34.11
876.981	29.35
877.147	25.98
877.314	23.19
877.481	38.87
877.647	36.87
877.814	14.6
877.98	16.75
878.147	44.48
878.314	42.14
878.48	45.65
878.647	68.62
878.813	84.92
878.979	122.11
879.146	81.19
879.312	100.1
879.479	103.05
879.645	68
879.811	40.66
879.978	34.57
880.144	36.37
880.31	1.49
880.477	-54.55
880.643	-185.3
880.809	10.33
880.975	-16.16
881.142	14.88
881.308	20.46
881.474	103.97
881.64	60.65
881.806	41.07
881.972	56.47
882.138	57.63
882.304	-20.63
882.47	-24.09
882.636	-79.16
882.802	-106.85
882.968	-215.06
883.134	-448.93
883.3	-178.85
883.466	-11.73
883.632	-30.75
883.798	5.75
883.964	49.72
884.129	59.01
884.295	44.06
884.461	34.05
884.627	-12.55
884.793	27.67
884.958	-10.21
885.124	-78.32
885.29	-47.93
885.455	-26.44
885.621	-7.97
885.787	-5.34
885.952	-26.08
886.118	-1.47
886.283	27.91
886.449	15.04
886.614	37.65
886.78	49.32
886.945	30.31
887.111	48.49
887.276	16.51
887.442	19.03
887.607	1.62
887.773	-24.5
887.938	-57.29
888.103	-9.87
888.269	1.18
888.434	30.17
888.599	40.83
888.764	65.45
888.93	76.77
889.095	55.47
889.26	101.52
889.425	104.13
889.59	40.65
889.756	16.32
889.921	7.7
890.086	8.2
890.251	26.53
890.416	-54.8
890.581	-40.47
890.746	-30.77
890.911	-87.62
891.076	-118.63
891.241	-180.76
891.406	-92.3
891.571	-67.94
891.736	-85.19
891.901	-59.63
892.065	-25.58
892.23	-37.63
892.395	-40.44
892.56	-1.35
892.725	-7.89
892.889	-17.4
893.054	-64
893.219	-101.41
893.384	-173.3
893.548	-318.33
893.713	983.66
893.878	465.22
