Data from Ofra_2a_PS_8HS24_Reflection_3.txt Node
Date: Tue Jul 20 09:57:53 EDT 2021
User: Adam
Spectrometer: FLMT01687
Trigger mode: 0
Integration Time (sec): 9.450000E-1
Scans to average: 3
Electric dark correction enabled: true
Nonlinearity correction enabled: false
Boxcar width: 3
XAxis mode: Wavelengths
Number of Pixels in Spectrum: 3648
>>>>>Begin Spectral Data<<<<<
179.494	1109.47
179.716	689.79
179.937	687.91
180.158	2850
180.38	-1433.72
180.601	-248.7
180.823	-42.74
181.044	-1.2
181.265	25.84
181.486	42.06
181.708	391.3
181.929	120
182.15	-156.82
182.372	53.07
182.593	109.93
182.814	17.96
183.035	4.96
183.257	55.02
183.478	52.46
183.699	81.43
183.92	58.53
184.141	74.82
184.363	60.31
184.584	46.84
184.805	40.3
185.026	17.59
185.247	-31.58
185.468	-22.69
185.689	-28.17
185.91	-8.17
186.132	-1.87
186.353	-26.4
186.574	-8.18
186.795	1.43
187.016	-1.06
187.237	24.68
187.458	7.97
187.679	15.92
187.9	34.34
188.121	66.2
188.342	78.37
188.563	99
188.784	72.2
189.005	70.94
189.226	52.06
189.447	46.86
189.667	29.5
189.888	25.07
190.109	9.7
190.33	-0.91
190.551	-4.85
190.772	-4.89
190.993	10.06
191.214	-2.93
191.434	-1.06
191.655	7.49
191.876	16.47
192.097	19.84
192.318	29.93
192.538	26.28
192.759	33.43
192.98	16.29
193.201	19.52
193.421	35.06
193.642	36.06
193.863	33.25
194.083	40.68
194.304	34.51
194.525	56.19
194.745	42.61
194.966	28.86
195.187	34.65
195.407	31.54
195.628	25.87
195.848	31.11
196.069	14.83
196.29	10.34
196.51	-13.54
196.731	-0.41
196.951	-3.13
197.172	-17.89
197.392	3.99
197.613	4.79
197.833	22.69
198.054	35.63
198.274	6.24
198.495	2.91
198.715	7.71
198.936	-5.57
199.156	-13.25
199.377	-22.2
199.597	-28.56
199.817	-8.39
200.038	-7.71
200.258	9.12
200.479	8.25
200.699	31.84
200.919	17.15
201.14	13.79
201.36	31.26
201.58	38.73
201.801	26.39
202.021	43.28
202.241	34.52
202.461	36.3
202.682	46.2
202.902	38.48
203.122	39.16
203.342	45.78
203.563	30.38
203.783	26.95
204.003	34.65
204.223	39.93
204.443	41.46
204.663	50.17
204.884	48.68
205.104	49.34
205.324	74.52
205.544	74.41
205.764	80.42
205.984	75.93
206.204	58.58
206.424	56.39
206.644	50.11
206.864	37.4
207.084	54.41
207.304	41.98
207.525	33.31
207.745	37.41
207.964	25.05
208.184	36.53
208.404	35.61
208.624	8.29
208.844	0
209.064	11.87
209.284	17.03
209.504	17.9
209.724	-13.53
209.944	-28.36
210.164	-16.33
210.384	-19.35
210.604	-41.3
210.823	-37.27
211.043	-52.71
211.263	-16.73
211.483	-7.69
211.703	4.78
211.922	16.87
212.142	27.41
212.362	24.16
212.582	31.34
212.801	25.55
213.021	29.93
213.241	21.22
213.461	19.01
213.68	9.97
213.9	16.67
214.12	18.11
214.339	20.75
214.559	29.69
214.779	40.03
214.998	34.09
215.218	42.87
215.438	49.67
215.657	50.96
215.877	41.66
216.096	25.3
216.316	15.39
216.535	19.64
216.755	-6.91
216.974	-16.08
217.194	-22.3
217.413	6.95
217.633	10.95
217.852	14.49
218.072	3.38
218.291	32.59
218.511	27.79
218.73	15.66
218.95	0.22
219.169	-2.75
219.389	-6.11
219.608	11.46
219.827	2.42
220.047	7.05
220.266	18.23
220.485	18.37
220.705	15.91
220.924	16.2
221.143	4.57
221.363	-1.72
221.582	2.55
221.801	15.89
222.021	25.4
222.24	22.14
222.459	19.77
222.678	10.41
222.897	17.55
223.117	21.92
223.336	21.24
223.555	-2.86
223.774	16.14
223.993	37.09
224.213	42.51
224.432	40.74
224.651	32.26
224.87	38.26
225.089	63.18
225.308	55.99
225.527	37.96
225.746	40.98
225.965	33.31
226.184	28.83
226.404	5.04
226.623	1.05
226.842	9.59
227.061	15.35
227.28	28.23
227.499	40.59
227.718	34.66
227.936	35.53
228.155	34.42
228.374	31.95
228.593	27.07
228.812	14.01
229.031	3.09
229.25	11.54
229.469	17.94
229.688	16.01
229.907	15.03
230.125	19.46
230.344	26.22
230.563	32.86
230.782	22.99
231.001	21.79
231.22	24.13
231.438	20.69
231.657	24.57
231.876	20.51
232.095	16.54
232.313	36.64
232.532	32.89
232.751	32.29
232.969	43
233.188	42.29
233.407	39.86
233.625	36.65
233.844	36.41
234.063	46.43
234.281	42.68
234.5	37.79
234.719	34.82
234.937	44.88
235.156	40.81
235.374	39.66
235.593	25.49
235.811	24.23
236.03	0.71
236.249	3.33
236.467	3.58
236.686	15.33
236.904	9.45
237.123	10.76
237.341	9.46
237.559	28.2
237.778	37.53
237.996	33.94
238.215	29.93
238.433	34.46
238.652	34.85
238.87	36.77
239.088	17.48
239.307	14.87
239.525	10.53
239.743	2.79
239.962	-2.09
240.18	1.37
240.398	10.18
240.617	27.46
240.835	30.12
241.053	40.47
241.271	55.4
241.49	43.06
241.708	41.48
241.926	24.62
242.144	27.7
242.363	13.46
242.581	15.63
242.799	0.61
243.017	21.99
243.235	15.5
243.453	30.31
243.672	18.88
243.89	29.64
244.108	28.78
244.326	20.11
244.544	14.55
244.762	17.96
244.98	7.86
245.198	7.8
245.416	2.64
245.634	2.39
245.852	14.01
246.07	14.51
246.288	8.18
246.506	22.09
246.724	39.79
246.942	41.73
247.16	35.56
247.378	30.27
247.596	33.83
247.814	23.02
248.032	12.44
248.25	-5.97
248.468	5.3
248.685	10.91
248.903	11.61
249.121	7.88
249.339	22.41
249.557	28.48
249.775	24.12
249.992	23.06
250.21	13.83
250.428	9.48
250.646	14.72
250.863	25.4
251.081	26.5
251.299	47.7
251.517	47.41
251.734	43.66
251.952	49.57
252.17	36.33
252.387	28.34
252.605	28.05
252.823	5.24
253.04	2.8
253.258	11.09
253.475	17.42
253.693	29.91
253.911	35.06
254.128	32.14
254.346	30.84
254.563	29.1
254.781	30.83
254.998	29.22
255.216	29.93
255.433	24.36
255.651	32.51
255.868	43.37
256.086	42.32
256.303	48.62
256.521	53.35
256.738	49.97
256.956	40.03
257.173	30.4
257.39	27.66
257.608	34.56
257.825	26.47
258.043	29.58
258.26	21.71
258.477	28.62
258.695	35.89
258.912	42.64
259.129	29.16
259.346	36.29
259.564	36.42
259.781	51.29
259.998	51.63
260.216	51.55
260.433	44.08
260.65	47.39
260.867	29.13
261.084	27.87
261.302	5.7
261.519	-3.89
261.736	-11.66
261.953	-9.93
262.17	-9.69
262.387	-7.51
262.604	-26.75
262.822	-13.7
263.039	-4.97
263.256	-6.41
263.473	-12.93
263.69	-1.36
263.907	10.82
264.124	11.71
264.341	6.95
264.558	10.29
264.775	13.02
264.992	18.43
265.209	17.77
265.426	13.95
265.643	19.33
265.86	26.44
266.077	26.78
266.294	24.8
266.51	20
266.727	12.19
266.944	7.03
267.161	2.5
267.378	-9.67
267.595	-21.79
267.812	-24.22
268.028	-12.39
268.245	-6.98
268.462	6.28
268.679	2.22
268.896	6.99
269.112	23.65
269.329	29.56
269.546	32.13
269.763	35.94
269.979	30.04
270.196	33.32
270.413	24.88
270.629	18.13
270.846	24.01
271.063	20.42
271.279	15.11
271.496	3.81
271.712	2.02
271.929	18.8
272.146	29.7
272.362	13.72
272.579	14.22
272.795	11.85
273.012	19.28
273.228	21.79
273.445	10.71
273.661	-2.07
273.878	8.45
274.094	13.68
274.311	22.33
274.527	20.54
274.744	24.23
274.96	23.57
275.177	26.63
275.393	26.91
275.609	18.29
275.826	18.62
276.042	24
276.259	21.31
276.475	17.46
276.691	19.13
276.908	21.76
277.124	20.82
277.34	9.15
277.557	7.64
277.773	8.71
277.989	13.01
278.205	10.04
278.422	13.8
278.638	25.83
278.854	33.5
279.07	33.26
279.286	32.14
279.503	40.44
279.719	51.37
279.935	37.05
280.151	37.96
280.367	38.43
280.583	42.86
280.799	47.38
281.016	43.24
281.232	24.76
281.448	25.93
281.664	18.07
281.88	14.63
282.096	15.01
282.312	-0.69
282.528	-13.74
282.744	3.15
282.96	14.56
283.176	18.38
283.392	33.22
283.608	32.01
283.824	34.24
284.04	37.32
284.256	32.58
284.471	28.89
284.687	23.17
284.903	10.1
285.119	-10.74
285.335	-7.62
285.551	1.07
285.767	9.17
285.982	17.39
286.198	19.08
286.414	34.98
286.63	46.8
286.846	45.64
287.061	49.45
287.277	46.81
287.493	32.55
287.709	31.29
287.924	27.93
288.14	28.77
288.356	38.12
288.571	19.26
288.787	28.48
289.003	43.91
289.218	41.22
289.434	35.64
289.65	31.89
289.865	37.55
290.081	44.75
290.296	34.44
290.512	33.72
290.727	40.74
290.943	34.35
291.159	31.66
291.374	23.93
291.59	16.14
291.805	15.59
292.021	-0.85
292.236	1.25
292.451	6.74
292.667	12.94
292.882	9.36
293.098	4.51
293.313	0.26
293.529	9.53
293.744	9.34
293.959	7.52
294.175	7.01
294.39	21.88
294.605	34.69
294.821	36.22
295.036	40.2
295.251	40.31
295.467	35.17
295.682	34.71
295.897	20.4
296.112	22.59
296.328	19.28
296.543	10.75
296.758	6.46
296.973	14.13
297.188	8.62
297.404	14.75
297.619	5.14
297.834	21.97
298.049	24.66
298.264	26.88
298.479	21.01
298.694	30.84
298.909	26.52
299.125	29.85
299.34	26.55
299.555	35.66
299.77	32.86
299.985	33.07
300.2	24.84
300.415	26.35
300.63	17.97
300.845	18.6
301.06	12.17
301.275	21.78
301.49	27.64
301.704	31.53
301.919	28.81
302.134	26.51
302.349	20.52
302.564	17.51
302.779	15.84
302.994	4.55
303.209	0
303.423	8.37
303.638	16.11
303.853	22.68
304.068	16.73
304.283	12.11
304.497	16.58
304.712	22.39
304.927	16.38
305.142	14.07
305.356	22.58
305.571	31.02
305.786	31
306	37.38
306.215	32.5
306.43	42.76
306.644	46.41
306.859	37.98
307.074	29.12
307.288	30.68
307.503	27.89
307.717	29.72
307.932	22.84
308.147	19.15
308.361	11.11
308.576	14.82
308.79	11.6
309.005	11.76
309.219	8.35
309.434	4.89
309.648	-2.3
309.863	8.97
310.077	7.83
310.292	7.61
310.506	18.66
310.72	23.08
310.935	28.25
311.149	31.19
311.364	35.63
311.578	37.31
311.792	34.31
312.007	20.69
312.221	18.86
312.435	18.39
312.649	16.73
312.864	14.05
313.078	16.74
313.292	25.86
313.507	40.08
313.721	44.79
313.935	49.54
314.149	44.02
314.363	39.04
314.578	57.4
314.792	49.74
315.006	45.2
315.22	50.01
315.434	43.47
315.648	48.65
315.862	46.19
316.077	31.89
316.291	38.47
316.505	35.99
316.719	11.91
316.933	17.51
317.147	5.21
317.361	-0.94
317.575	-7.19
317.789	-5.75
318.003	4.63
318.217	22.32
318.431	27.67
318.645	38.76
318.859	30.77
319.073	31.19
319.287	30.54
319.5	26.32
319.714	25.61
319.928	28.41
320.142	20.89
320.356	37.36
320.57	28.81
320.784	33.45
320.997	33.84
321.211	29.91
321.425	15.5
321.639	21.56
321.853	6.88
322.066	12.85
322.28	7.03
322.494	8.45
322.707	9.8
322.921	13.2
323.135	7.41
323.349	14.11
323.562	18.77
323.776	19.03
323.989	19.12
324.203	20.06
324.417	21.33
324.63	18.07
324.844	18.21
325.057	16.43
325.271	11.94
325.485	9.33
325.698	13.85
325.912	21.08
326.125	32.08
326.339	37.65
326.552	43.33
326.766	52.72
326.979	57.47
327.193	52.79
327.406	48.64
327.619	36.95
327.833	39.9
328.046	18.36
328.26	13.34
328.473	5.41
328.686	7.85
328.9	-4.83
329.113	3.24
329.326	9.96
329.54	19.97
329.753	20.07
329.966	20.05
330.179	23.12
330.393	32.63
330.606	35.03
330.819	35.37
331.032	35.82
331.246	30.69
331.459	37.89
331.672	43.1
331.885	39.22
332.098	45.9
332.311	20.61
332.525	18.82
332.738	19.99
332.951	13.71
333.164	1.47
333.377	-10.55
333.59	-13.56
333.803	2.85
334.016	-1.05
334.229	9.28
334.442	15.45
334.655	24.78
334.868	45.01
335.081	47.74
335.294	47.76
335.507	44.89
335.72	36.54
335.933	44.6
336.146	40.29
336.359	27.79
336.572	18.81
336.785	25.57
336.997	23.17
337.21	32.52
337.423	19.65
337.636	18.19
337.849	14.34
338.062	30.36
338.274	27.55
338.487	30.09
338.7	25.32
338.913	18.46
339.125	18.34
339.338	24.18
339.551	20.86
339.763	13.67
339.976	7.17
340.189	1.45
340.402	11.02
340.614	17.63
340.827	8.96
341.039	4.69
341.252	11.05
341.465	11.24
341.677	5.41
341.89	6.6
342.102	4.05
342.315	12.67
342.527	5.1
342.74	6.97
342.952	12.55
343.165	28.38
343.377	31.42
343.59	32.16
343.802	37.27
344.015	39.19
344.227	36.88
344.44	39.43
344.652	34.4
344.864	35.4
345.077	25.32
345.289	26.99
345.502	35.29
345.714	23.53
345.926	26.82
346.139	22.41
346.351	-3.57
346.563	14.23
346.775	10.41
346.988	5.82
347.2	17.7
347.412	12.12
347.624	24.65
347.837	36.81
348.049	34.85
348.261	33.51
348.473	30.44
348.685	32.01
348.897	35.24
349.11	24.2
349.322	19.07
349.534	10.14
349.746	16.1
349.958	19.97
350.17	21.71
350.382	15.79
350.594	20.06
350.806	35.09
351.018	41.82
351.23	40.72
351.442	38.51
351.654	34.43
351.866	39.43
352.078	37.66
352.29	30.71
352.502	22.73
352.714	22.72
352.926	21.08
353.138	22.82
353.35	13.51
353.561	2.49
353.773	5.93
353.985	14.14
354.197	12.42
354.409	16.34
354.621	14.6
354.832	15.07
355.044	27.32
355.256	22.49
355.468	14.83
355.679	13.98
355.891	14.68
356.103	15.83
356.314	24.43
356.526	20.77
356.738	21.23
356.949	28.7
357.161	25.88
357.373	31.68
357.584	40.66
357.796	28.82
358.008	31.98
358.219	44.56
358.431	39.87
358.642	42.24
358.854	37.83
359.065	32.87
359.277	37.29
359.488	29.49
359.7	24.48
359.911	25.99
360.123	26.63
360.334	18.99
360.546	14.96
360.757	17.97
360.969	30.37
361.18	20.32
361.391	16.57
361.603	17.62
361.814	21.16
362.025	12.01
362.237	18.24
362.448	17.69
362.659	17.2
362.871	25.94
363.082	28.28
363.293	34.34
363.504	41.14
363.716	32.42
363.927	30.93
364.138	36.01
364.349	33.12
364.56	28.61
364.772	24.02
364.983	23.09
365.194	24.81
365.405	18.73
365.616	6.18
365.827	12.88
366.038	19.65
366.25	18.59
366.461	18.98
366.672	16.99
366.883	27.11
367.094	28.93
367.305	26.16
367.516	13.13
367.727	12.92
367.938	14.95
368.149	17.25
368.36	12.16
368.571	15.84
368.781	6.67
368.992	10.75
369.203	12.92
369.414	14.61
369.625	9.38
369.836	5.16
370.047	5.21
370.258	8.13
370.468	8.58
370.679	7.57
370.89	14.5
371.101	10.21
371.312	9.18
371.522	8.35
371.733	-0.61
371.944	3.3
372.155	-10.59
372.365	-19.66
372.576	-12.66
372.787	-13.95
372.997	-14.17
373.208	-1.22
373.419	-3.67
373.629	13.42
373.84	10.4
374.05	17.18
374.261	16.38
374.472	17.43
374.682	11.84
374.893	7.39
375.103	7.85
375.314	10.11
375.524	7.2
375.735	12
375.945	12.56
376.156	18.27
376.366	23.68
376.577	23.65
376.787	28.59
376.997	31.25
377.208	22.97
377.418	22.92
377.629	25.13
377.839	30.54
378.049	32.59
378.26	32.51
378.47	37.16
378.68	43.8
378.89	41.55
379.101	34.68
379.311	21.26
379.521	22.44
379.732	12.04
379.942	11.51
380.152	14.57
380.362	17.78
380.572	23.07
380.783	29.62
380.993	25.7
381.203	32.24
381.413	28.49
381.623	24.65
381.833	18.62
382.043	10.92
382.253	13.59
382.463	14.89
382.674	12.18
382.884	8.32
383.094	10.92
383.304	14.83
383.514	23.74
383.724	16.72
383.934	16.44
384.144	20.74
384.353	24.24
384.563	17.22
384.773	16.52
384.983	16.15
385.193	19.39
385.403	18.86
385.613	12.76
385.823	12.03
386.033	17.26
386.242	14.86
386.452	8.49
386.662	8.89
386.872	7.54
387.082	7.6
387.291	6.94
387.501	7.73
387.711	10.43
387.921	10.94
388.13	8.2
388.34	9.09
388.55	11.81
388.759	11.8
388.969	8.6
389.179	10.91
389.388	12.64
389.598	10.7
389.807	10.51
390.017	10.3
390.227	8.97
390.436	9.74
390.646	9.43
390.855	9.58
391.065	10.67
391.274	9.69
391.484	10.31
391.693	11.4
391.903	10.82
392.112	9.23
392.322	10.94
392.531	12.29
392.74	11.67
392.95	11.52
393.159	11.44
393.369	11.05
393.578	11.4
393.787	10.32
393.997	9.95
394.206	10.61
394.415	9.43
394.625	8.31
394.834	7.77
395.043	7.8
395.252	8.17
395.462	7.82
395.671	8.52
395.88	9.59
396.089	10.09
396.298	10.48
396.508	10.3
396.717	9.74
396.926	9.73
397.135	8.88
397.344	8.62
397.553	9.04
397.762	9.16
397.971	9.09
398.181	8.69
398.39	9.16
398.599	9.52
398.808	9.36
399.017	9.42
399.226	10.04
399.435	9.95
399.644	10.29
399.853	10.23
400.062	10.05
400.27	10.14
400.479	9.79
400.688	9.63
400.897	9.87
401.106	9.78
401.315	9.63
401.524	9.66
401.733	9.6
401.941	9.58
402.15	9.24
402.359	9.14
402.568	9.13
402.777	9.23
402.985	9.24
403.194	9.26
403.403	9.02
403.612	9.15
403.82	9.2
404.029	9.25
404.238	9.2
404.446	9.09
404.655	8.98
404.864	9.12
405.072	9.1
405.281	8.96
405.489	8.97
405.698	8.79
405.906	8.79
406.115	8.82
406.324	8.79
406.532	8.77
406.741	8.83
406.949	8.73
407.158	8.76
407.366	8.76
407.574	8.74
407.783	8.69
407.991	8.6
408.2	8.52
408.408	8.45
408.617	8.48
408.825	8.51
409.033	8.52
409.242	8.48
409.45	8.55
409.658	8.52
409.867	8.59
410.075	8.55
410.283	8.48
410.491	8.46
410.7	8.5
410.908	8.36
411.116	8.25
411.324	8.29
411.533	8.24
411.741	8.26
411.949	8.27
412.157	8.27
412.365	8.3
412.573	8.39
412.781	8.33
412.99	8.4
413.198	8.41
413.406	8.34
413.614	8.33
413.822	8.38
414.03	8.29
414.238	8.4
414.446	8.28
414.654	8.24
414.862	8.21
415.07	8.28
415.278	8.18
415.486	8.27
415.694	8.03
415.902	8.03
416.109	8.08
416.317	8.02
416.525	7.96
416.733	8.07
416.941	8.02
417.149	8.12
417.357	8.08
417.564	7.97
417.772	8.03
417.98	7.93
418.188	7.72
418.395	7.69
418.603	7.59
418.811	7.58
419.019	7.58
419.226	7.62
419.434	7.58
419.642	7.66
419.849	7.63
420.057	7.65
420.265	7.62
420.472	7.52
420.68	7.36
420.887	7.4
421.095	7.38
421.302	7.45
421.51	7.48
421.717	7.51
421.925	7.48
422.132	7.5
422.34	7.51
422.547	7.51
422.755	7.42
422.962	7.39
423.17	7.31
423.377	7.47
423.585	7.41
423.792	7.41
423.999	7.38
424.207	7.25
424.414	7.25
424.621	7.34
424.829	7.23
425.036	7.25
425.243	7.3
425.451	7.28
425.658	7.47
425.865	7.37
426.072	7.48
426.28	7.43
426.487	7.46
426.694	7.32
426.901	7.3
427.108	7.22
427.315	7.25
427.523	7.19
427.73	7.27
427.937	7.32
428.144	7.39
428.351	7.48
428.558	7.47
428.765	7.45
428.972	7.45
429.179	7.36
429.386	7.46
429.593	7.41
429.8	7.47
430.007	7.57
430.214	7.61
430.421	7.6
430.628	7.5
430.835	7.38
431.042	7.54
431.249	7.51
431.456	7.54
431.662	7.6
431.869	7.74
432.076	7.88
432.283	7.93
432.49	7.84
432.697	7.84
432.903	7.84
433.11	7.83
433.317	7.81
433.524	7.78
433.73	7.84
433.937	7.82
434.144	8.02
434.35	7.97
434.557	7.93
434.764	7.84
434.97	7.96
435.177	7.9
435.384	7.96
435.59	7.84
435.797	7.91
436.003	7.9
436.21	7.88
436.416	7.83
436.623	7.92
436.829	7.98
437.036	7.94
437.242	7.98
437.449	8.02
437.655	8.15
437.862	8.19
438.068	8.18
438.275	8.17
438.481	8.24
438.687	8.25
438.894	8.31
439.1	8.29
439.307	8.3
439.513	8.29
439.719	8.37
439.926	8.38
440.132	8.37
440.338	8.39
440.544	8.35
440.751	8.34
440.957	8.31
441.163	8.28
441.369	8.29
441.575	8.36
441.782	8.31
441.988	8.36
442.194	8.45
442.4	8.51
442.606	8.53
442.812	8.56
443.018	8.52
443.224	8.58
443.431	8.58
443.637	8.47
443.843	8.47
444.049	8.43
444.255	8.32
444.461	8.36
444.667	8.39
444.873	8.46
445.079	8.59
445.284	8.57
445.49	8.56
445.696	8.63
445.902	8.64
446.108	8.6
446.314	8.6
446.52	8.53
446.726	8.58
446.931	8.6
447.137	8.66
447.343	8.67
447.549	8.67
447.755	8.59
447.96	8.6
448.166	8.6
448.372	8.63
448.578	8.62
448.783	8.62
448.989	8.71
449.195	8.78
449.4	8.77
449.606	8.79
449.812	8.87
450.017	8.9
450.223	8.91
450.428	8.89
450.634	8.94
450.84	8.99
451.045	9.02
451.251	8.99
451.456	8.99
451.662	9
451.867	8.99
452.073	8.94
452.278	8.93
452.483	8.95
452.689	8.94
452.894	8.94
453.1	8.9
453.305	8.91
453.51	8.96
453.716	8.99
453.921	8.98
454.127	9.02
454.332	9.03
454.537	9.1
454.742	9.14
454.948	9.13
455.153	9.17
455.358	9.25
455.563	9.29
455.769	9.31
455.974	9.28
456.179	9.23
456.384	9.23
456.589	9.18
456.795	9.12
457	9.1
457.205	9.08
457.41	9.11
457.615	9.21
457.82	9.28
458.025	9.34
458.23	9.38
458.435	9.38
458.64	9.44
458.845	9.47
459.05	9.5
459.255	9.47
459.46	9.44
459.665	9.51
459.87	9.56
460.075	9.54
460.28	9.58
460.485	9.61
460.69	9.58
460.895	9.63
461.099	9.63
461.304	9.66
461.509	9.62
461.714	9.57
461.919	9.54
462.123	9.64
462.328	9.67
462.533	9.67
462.738	9.66
462.942	9.74
463.147	9.79
463.352	9.86
463.556	9.85
463.761	9.88
463.966	9.94
464.17	10.01
464.375	10.04
464.58	10.1
464.784	10.13
464.989	10.14
465.193	10.2
465.398	10.21
465.602	10.2
465.807	10.21
466.011	10.24
466.216	10.19
466.42	10.25
466.625	10.25
466.829	10.25
467.034	10.31
467.238	10.4
467.443	10.41
467.647	10.47
467.851	10.41
468.056	10.42
468.26	10.39
468.464	10.39
468.669	10.42
468.873	10.42
469.077	10.43
469.282	10.52
469.486	10.49
469.69	10.56
469.894	10.61
470.099	10.62
470.303	10.61
470.507	10.63
470.711	10.61
470.915	10.7
471.119	10.7
471.324	10.66
471.528	10.67
471.732	10.73
471.936	10.77
472.14	10.84
472.344	10.78
472.548	10.82
472.752	10.88
472.956	10.92
473.16	10.9
473.364	10.87
473.568	10.84
473.772	10.88
473.976	10.87
474.18	10.84
474.384	10.78
474.588	10.84
474.792	10.85
474.995	10.91
475.199	10.92
475.403	10.96
475.607	11
475.811	11.09
476.015	11.11
476.218	11.13
476.422	11.15
476.626	11.13
476.83	11.15
477.033	11.16
477.237	11.16
477.441	11.15
477.644	11.17
477.848	11.16
478.052	11.24
478.255	11.23
478.459	11.29
478.663	11.27
478.866	11.28
479.07	11.31
479.273	11.3
479.477	11.37
479.681	11.38
479.884	11.29
480.088	11.33
480.291	11.33
480.495	11.32
480.698	11.31
480.901	11.28
481.105	11.3
481.308	11.38
481.512	11.35
481.715	11.39
481.919	11.4
482.122	11.38
482.325	11.39
482.529	11.45
482.732	11.45
482.935	11.47
483.138	11.46
483.342	11.51
483.545	11.56
483.748	11.57
483.952	11.55
484.155	11.59
484.358	11.58
484.561	11.61
484.764	11.58
484.967	11.62
485.171	11.59
485.374	11.57
485.577	11.56
485.78	11.59
485.983	11.56
486.186	11.51
486.389	11.44
486.592	11.45
486.795	11.41
486.998	11.37
487.201	11.35
487.404	11.44
487.607	11.48
487.81	11.5
488.013	11.48
488.216	11.49
488.419	11.49
488.622	11.44
488.825	11.36
489.028	11.33
489.231	11.35
489.433	11.37
489.636	11.35
489.839	11.33
490.042	11.35
490.245	11.34
490.447	11.33
490.65	11.33
490.853	11.3
491.056	11.29
491.258	11.32
491.461	11.35
491.664	11.29
491.866	11.34
492.069	11.33
492.272	11.29
492.474	11.31
492.677	11.26
492.879	11.25
493.082	11.28
493.285	11.22
493.487	11.19
493.69	11.22
493.892	11.27
494.095	11.29
494.297	11.32
494.5	11.36
494.702	11.36
494.905	11.36
495.107	11.36
495.309	11.29
495.512	11.29
495.714	11.29
495.917	11.3
496.119	11.36
496.321	11.38
496.524	11.39
496.726	11.42
496.928	11.47
497.13	11.48
497.333	11.48
497.535	11.44
497.737	11.44
497.939	11.43
498.142	11.39
498.344	11.35
498.546	11.33
498.748	11.27
498.95	11.24
499.152	11.23
499.355	11.25
499.557	11.31
499.759	11.35
499.961	11.32
500.163	11.35
500.365	11.34
500.567	11.29
500.769	11.29
500.971	11.25
501.173	11.22
501.375	11.23
501.577	11.24
501.779	11.29
501.981	11.33
502.183	11.3
502.385	11.32
502.587	11.32
502.788	11.28
502.99	11.27
503.192	11.25
503.394	11.24
503.596	11.26
503.798	11.34
503.999	11.33
504.201	11.35
504.403	11.37
504.605	11.41
504.806	11.43
505.008	11.5
505.21	11.43
505.411	11.42
505.613	11.45
505.815	11.45
506.016	11.45
506.218	11.45
506.42	11.41
506.621	11.4
506.823	11.43
507.024	11.44
507.226	11.42
507.427	11.36
507.629	11.36
507.83	11.34
508.032	11.39
508.233	11.41
508.435	11.41
508.636	11.44
508.838	11.5
509.039	11.5
509.24	11.53
509.442	11.47
509.643	11.44
509.845	11.46
510.046	11.43
510.247	11.44
510.448	11.42
510.65	11.42
510.851	11.5
511.052	11.53
511.254	11.53
511.455	11.49
511.656	11.49
511.857	11.51
512.058	11.53
512.26	11.51
512.461	11.48
512.662	11.42
512.863	11.44
513.064	11.44
513.265	11.47
513.466	11.46
513.667	11.46
513.868	11.46
514.069	11.49
514.27	11.49
514.471	11.48
514.672	11.48
514.873	11.5
515.074	11.49
515.275	11.51
515.476	11.54
515.677	11.54
515.878	11.6
516.079	11.58
516.28	11.55
516.481	11.55
516.682	11.57
516.882	11.56
517.083	11.6
517.284	11.55
517.485	11.57
517.686	11.59
517.886	11.56
518.087	11.55
518.288	11.58
518.488	11.51
518.689	11.48
518.89	11.48
519.091	11.45
519.291	11.5
519.492	11.47
519.692	11.48
519.893	11.46
520.094	11.5
520.294	11.47
520.495	11.49
520.695	11.49
520.896	11.5
521.096	11.49
521.297	11.57
521.497	11.54
521.698	11.57
521.898	11.56
522.099	11.52
522.299	11.5
522.499	11.51
522.7	11.51
522.9	11.53
523.101	11.53
523.301	11.54
523.501	11.58
523.702	11.6
523.902	11.6
524.102	11.56
524.302	11.55
524.503	11.53
524.703	11.54
524.903	11.55
525.103	11.56
525.304	11.53
525.504	11.55
525.704	11.54
525.904	11.56
526.104	11.56
526.304	11.55
526.504	11.54
526.705	11.59
526.905	11.61
527.105	11.62
527.305	11.58
527.505	11.59
527.705	11.59
527.905	11.57
528.105	11.54
528.305	11.54
528.505	11.57
528.705	11.58
528.905	11.56
529.105	11.57
529.304	11.62
529.504	11.59
529.704	11.59
529.904	11.6
530.104	11.6
530.304	11.6
530.503	11.59
530.703	11.59
530.903	11.63
531.103	11.63
531.303	11.6
531.502	11.6
531.702	11.6
531.902	11.58
532.101	11.56
532.301	11.53
532.501	11.51
532.7	11.49
532.9	11.51
533.1	11.5
533.299	11.52
533.499	11.55
533.698	11.59
533.898	11.63
534.097	11.66
534.297	11.68
534.496	11.69
534.696	11.72
534.895	11.75
535.095	11.74
535.294	11.73
535.494	11.73
535.693	11.74
535.892	11.76
536.092	11.75
536.291	11.74
536.491	11.76
536.69	11.76
536.889	11.75
537.088	11.76
537.288	11.8
537.487	11.81
537.686	11.84
537.886	11.87
538.085	11.92
538.284	11.97
538.483	11.98
538.682	11.97
538.882	11.98
539.081	11.96
539.28	11.93
539.479	11.92
539.678	11.94
539.877	11.98
540.076	11.97
540.275	11.96
540.474	11.97
540.673	12.01
540.872	12.03
541.071	12.04
541.27	12.03
541.469	12.06
541.668	12.1
541.867	12.13
542.066	12.16
542.265	12.18
542.464	12.19
542.663	12.26
542.862	12.33
543.06	12.39
543.259	12.42
543.458	12.45
543.657	12.5
543.856	12.54
544.054	12.53
544.253	12.51
544.452	12.49
544.651	12.47
544.849	12.48
545.048	12.44
545.247	12.43
545.445	12.42
545.644	12.44
545.843	12.48
546.041	12.51
546.24	12.53
546.438	12.58
546.637	12.65
546.836	12.66
547.034	12.65
547.233	12.64
547.431	12.63
547.63	12.67
547.828	12.7
548.027	12.66
548.225	12.69
548.423	12.76
548.622	12.8
548.82	12.89
549.019	12.88
549.217	12.94
549.415	12.99
549.614	13.02
549.812	13.04
550.01	13.08
550.209	13.07
550.407	13.16
550.605	13.2
550.803	13.24
551.002	13.28
551.2	13.36
551.398	13.37
551.596	13.45
551.794	13.47
551.993	13.47
552.191	13.55
552.389	13.63
552.587	13.63
552.785	13.72
552.983	13.75
553.181	13.77
553.379	13.82
553.577	13.87
553.775	13.88
553.973	13.96
554.171	13.98
554.369	14.03
554.567	14.07
554.765	14.08
554.963	14.07
555.161	14.16
555.359	14.18
555.557	14.23
555.755	14.26
555.952	14.35
556.15	14.47
556.348	14.61
556.546	14.67
556.744	14.74
556.941	14.8
557.139	14.91
557.337	14.94
557.535	14.97
557.732	14.97
557.93	15.02
558.128	15.06
558.325	15.15
558.523	15.18
558.721	15.26
558.918	15.32
559.116	15.37
559.313	15.42
559.511	15.48
559.708	15.5
559.906	15.59
560.104	15.7
560.301	15.77
560.498	15.86
560.696	15.91
560.893	15.99
561.091	16.06
561.288	16.14
561.486	16.18
561.683	16.26
561.88	16.32
562.078	16.38
562.275	16.46
562.473	16.54
562.67	16.6
562.867	16.66
563.064	16.7
563.262	16.8
563.459	16.88
563.656	16.97
563.853	17.04
564.051	17.12
564.248	17.19
564.445	17.27
564.642	17.35
564.839	17.45
565.036	17.55
565.234	17.59
565.431	17.63
565.628	17.72
565.825	17.79
566.022	17.81
566.219	17.83
566.416	17.92
566.613	18.06
566.81	18.14
567.007	18.16
567.204	18.21
567.401	18.31
567.598	18.35
567.795	18.37
567.991	18.4
568.188	18.44
568.385	18.53
568.582	18.65
568.779	18.73
568.976	18.85
569.172	18.96
569.369	19.01
569.566	19.07
569.763	19.11
569.96	19.14
570.156	19.14
570.353	19.14
570.55	19.19
570.746	19.21
570.943	19.29
571.14	19.34
571.336	19.35
571.533	19.4
571.729	19.49
571.926	19.49
572.123	19.55
572.319	19.58
572.516	19.6
572.712	19.63
572.909	19.74
573.105	19.77
573.302	19.8
573.498	19.82
573.695	19.86
573.891	19.9
574.087	19.91
574.284	19.84
574.48	19.82
574.677	19.82
574.873	19.9
575.069	19.93
575.266	19.96
575.462	20.02
575.658	20.08
575.854	20.11
576.051	20.14
576.247	20.11
576.443	20.1
576.639	20.08
576.835	20.1
577.032	20.18
577.228	20.24
577.424	20.25
577.62	20.28
577.816	20.25
578.012	20.26
578.208	20.28
578.404	20.25
578.6	20.24
578.796	20.24
578.993	20.22
579.189	20.21
579.384	20.21
579.58	20.2
579.776	20.14
579.972	20.11
580.168	20.09
580.364	20.09
580.56	20.12
580.756	20.12
580.952	20.1
581.148	20.15
581.343	20.19
581.539	20.2
581.735	20.19
581.931	20.2
582.127	20.18
582.322	20.13
582.518	20.07
582.714	20.02
582.909	19.99
583.105	19.94
583.301	19.9
583.496	19.87
583.692	19.88
583.888	19.87
584.083	19.95
584.279	19.97
584.474	20.01
584.67	20.02
584.866	20.05
585.061	20.04
585.257	20.09
585.452	19.97
585.648	19.96
585.843	19.95
586.039	19.93
586.234	19.9
586.429	19.93
586.625	19.87
586.82	19.89
587.015	19.87
587.211	19.93
587.406	19.95
587.601	19.97
587.797	19.87
587.992	19.94
588.187	19.97
588.383	20.01
588.578	19.98
588.773	19.96
588.968	20
589.163	20.08
589.359	20.01
589.554	20
589.749	20
589.944	20.02
590.139	20.04
590.334	20.03
590.529	20.06
590.724	20.08
590.919	20.15
591.114	20.18
591.309	20.23
591.504	20.25
591.699	20.31
591.894	20.33
592.089	20.37
592.284	20.33
592.479	20.26
592.674	20.26
592.869	20.29
593.064	20.32
593.259	20.33
593.454	20.35
593.648	20.38
593.843	20.48
594.038	20.5
594.233	20.52
594.428	20.56
594.622	20.6
594.817	20.7
595.012	20.75
595.206	20.81
595.401	20.86
595.596	20.99
595.79	21.01
595.985	21.1
596.18	21.15
596.374	21.26
596.569	21.3
596.763	21.42
596.958	21.41
597.153	21.48
597.347	21.56
597.542	21.59
597.736	21.64
597.931	21.72
598.125	21.73
598.319	21.79
598.514	21.79
598.708	21.79
598.903	21.85
599.097	21.88
599.291	21.9
599.486	21.93
599.68	21.95
599.874	22.06
600.069	22.11
600.263	22.1
600.457	22.11
600.651	22.17
600.846	22.17
601.04	22.23
601.234	22.28
601.428	22.27
601.622	22.29
601.817	22.33
602.011	22.32
602.205	22.37
602.399	22.36
602.593	22.33
602.787	22.38
602.981	22.48
603.175	22.49
603.369	22.5
603.563	22.53
603.757	22.56
603.951	22.56
604.145	22.52
604.339	22.44
604.533	22.36
604.727	22.36
604.921	22.31
605.115	22.25
605.309	22.25
605.502	22.3
605.696	22.29
605.89	22.34
606.084	22.28
606.278	22.23
606.471	22.22
606.665	22.18
606.859	22.09
607.053	22.04
607.246	21.99
607.44	21.96
607.634	21.92
607.827	21.85
608.021	21.77
608.214	21.72
608.408	21.66
608.602	21.63
608.795	21.6
608.989	21.62
609.182	21.61
609.376	21.58
609.569	21.5
609.763	21.47
609.956	21.41
610.15	21.33
610.343	21.17
610.537	21.16
610.73	21.13
610.923	21.12
611.117	21.06
611.31	21
611.504	20.97
611.697	20.94
611.89	20.83
612.083	20.74
612.277	20.63
612.47	20.57
612.663	20.52
612.856	20.45
613.05	20.35
613.243	20.28
613.436	20.19
613.629	20.17
613.822	20.13
614.015	20.05
614.209	20.03
614.402	19.98
614.595	19.89
614.788	19.85
614.981	19.76
615.174	19.66
615.367	19.6
615.56	19.51
615.753	19.46
615.946	19.51
616.139	19.5
616.332	19.45
616.525	19.45
616.718	19.4
616.911	19.37
617.103	19.36
617.296	19.25
617.489	19.25
617.682	19.24
617.875	19.18
618.067	19.11
618.26	19.02
618.453	18.93
618.646	18.93
618.838	18.85
619.031	18.77
619.224	18.82
619.417	18.86
619.609	18.88
619.802	18.9
619.994	18.83
620.187	18.81
620.38	18.8
620.572	18.73
620.765	18.69
620.957	18.61
621.15	18.56
621.342	18.59
621.535	18.63
621.727	18.61
621.92	18.59
622.112	18.61
622.305	18.54
622.497	18.53
622.69	18.45
622.882	18.38
623.074	18.35
623.267	18.29
623.459	18.21
623.651	18.22
623.844	18.24
624.036	18.26
624.228	18.23
624.42	18.22
624.613	18.26
624.805	18.29
624.997	18.33
625.189	18.3
625.381	18.26
625.574	18.23
625.766	18.17
625.958	18.09
626.15	18.09
626.342	18.06
626.534	17.99
626.726	17.99
626.918	17.94
627.11	17.94
627.302	17.94
627.494	17.88
627.686	17.85
627.878	17.86
628.07	17.82
628.262	17.83
628.454	17.82
628.646	17.78
628.838	17.71
629.029	17.64
629.221	17.6
629.413	17.54
629.605	17.47
629.797	17.43
629.989	17.44
630.18	17.39
630.372	17.42
630.564	17.42
630.755	17.4
630.947	17.38
631.139	17.31
631.33	17.3
631.522	17.33
631.714	17.27
631.905	17.22
632.097	17.19
632.289	17.19
632.48	17.16
632.672	17.06
632.863	17.04
633.055	16.99
633.246	17
633.438	16.99
633.629	17.01
633.821	17.05
634.012	17.07
634.203	17.09
634.395	17.14
634.586	17.12
634.777	17.09
634.969	17.07
635.16	17.05
635.351	17.02
635.543	16.99
635.734	16.96
635.925	16.98
636.117	17.01
636.308	16.95
636.499	16.94
636.69	17.02
636.881	17.01
637.073	16.99
637.264	16.95
637.455	16.93
637.646	16.96
637.837	16.93
638.028	16.95
638.219	16.95
638.41	16.92
638.601	16.95
638.792	16.89
638.983	16.85
639.174	16.88
639.365	16.77
639.556	16.73
639.747	16.76
639.938	16.74
640.129	16.75
640.32	16.75
640.511	16.71
640.701	16.71
640.892	16.73
641.083	16.67
641.274	16.62
641.465	16.65
641.655	16.65
641.846	16.6
642.037	16.58
642.228	16.5
642.418	16.45
642.609	16.46
642.8	16.41
642.99	16.37
643.181	16.4
643.372	16.41
643.562	16.43
643.753	16.4
643.943	16.33
644.134	16.33
644.324	16.36
644.515	16.36
644.705	16.33
644.896	16.29
645.086	16.31
645.277	16.36
645.467	16.36
645.658	16.3
645.848	16.28
646.038	16.24
646.229	16.24
646.419	16.26
646.61	16.19
646.8	16.17
646.99	16.16
647.18	16.14
647.371	16.18
647.561	16.17
647.751	16.07
647.941	16.1
648.132	16.11
648.322	16.1
648.512	16.09
648.702	16.05
648.892	16.08
649.082	16.09
649.272	16.02
649.462	15.93
649.653	15.95
649.843	15.87
650.033	15.8
650.223	15.76
650.413	15.81
650.603	15.81
650.793	15.78
650.983	15.75
651.172	15.75
651.362	15.73
651.552	15.64
651.742	15.54
651.932	15.54
652.122	15.55
652.312	15.43
652.502	15.38
652.691	15.45
652.881	15.46
653.071	15.39
653.261	15.3
653.45	15.25
653.64	15.26
653.83	15.16
654.019	14.96
654.209	14.84
654.399	14.77
654.588	14.71
654.778	14.65
654.968	14.54
655.157	14.49
655.347	14.43
655.536	14.32
655.726	14.26
655.915	14.18
656.105	14.06
656.294	13.97
656.484	13.92
656.673	13.9
656.863	13.8
657.052	13.7
657.241	13.59
657.431	13.48
657.62	13.36
657.809	13.25
657.999	13.08
658.188	13.02
658.377	12.93
658.567	12.79
658.756	12.66
658.945	12.61
659.134	12.49
659.324	12.43
659.513	12.3
659.702	12.21
659.891	12.08
660.08	12.01
660.269	11.91
660.458	11.8
660.648	11.68
660.837	11.65
661.026	11.53
661.215	11.51
661.404	11.43
661.593	11.34
661.782	11.24
661.971	11.17
662.16	11.03
662.349	10.97
662.538	10.92
662.726	10.85
662.915	10.78
663.104	10.68
663.293	10.59
663.482	10.59
663.671	10.5
663.86	10.4
664.048	10.31
664.237	10.25
664.426	10.25
664.615	10.21
664.803	10.08
664.992	10.09
665.181	10.05
665.369	10.05
665.558	10
665.747	10.05
665.935	10.05
666.124	10.07
666.312	9.95
666.501	9.94
666.69	9.94
666.878	9.89
667.067	9.81
667.255	9.76
667.444	9.75
667.632	9.79
667.82	9.76
668.009	9.77
668.197	9.81
668.386	9.77
668.574	9.73
668.762	9.63
668.951	9.65
669.139	9.69
669.327	9.7
669.516	9.72
669.704	9.81
669.892	9.83
670.08	9.9
670.269	9.9
670.457	9.88
670.645	9.84
670.833	9.8
671.021	9.74
671.21	9.81
671.398	9.83
671.586	9.88
671.774	9.91
671.962	9.92
672.15	9.92
672.338	10.04
672.526	10
672.714	10.01
672.902	10.02
673.09	10.09
673.278	10.06
673.466	10.17
673.654	10.16
673.842	10.23
674.03	10.33
674.218	10.36
674.405	10.37
674.593	10.46
674.781	10.47
674.969	10.47
675.157	10.49
675.344	10.5
675.532	10.53
675.72	10.57
675.908	10.62
676.095	10.72
676.283	10.71
676.471	10.76
676.658	10.77
676.846	10.89
677.033	10.95
677.221	11.06
677.409	11.1
677.596	11.26
677.784	11.32
677.971	11.45
678.159	11.51
678.346	11.54
678.534	11.57
678.721	11.57
678.909	11.59
679.096	11.65
679.283	11.64
679.471	11.71
679.658	11.8
679.846	11.87
680.033	12.03
680.22	12.08
680.408	12.13
680.595	12.16
680.782	12.24
680.969	12.27
681.157	12.25
681.344	12.32
681.531	12.43
681.718	12.57
681.905	12.76
682.093	12.84
682.28	13.04
682.467	13.15
682.654	13.11
682.841	13.18
683.028	13.3
683.215	13.32
683.402	13.39
683.589	13.43
683.776	13.6
683.963	13.83
684.15	13.94
684.337	13.98
684.524	14.19
684.711	14.33
684.898	14.46
685.085	14.67
685.271	14.82
685.458	15.08
685.645	15.35
685.832	15.57
686.019	15.8
686.205	16.02
686.392	16.21
686.579	16.38
686.766	16.58
686.952	16.83
687.139	17.03
687.326	17.34
687.512	17.63
687.699	17.81
687.886	18.05
688.072	18.31
688.259	18.54
688.445	18.84
688.632	19.25
688.818	19.5
689.005	19.96
689.191	20.35
689.378	20.74
689.564	21.1
689.751	21.51
689.937	21.78
690.124	22.23
690.31	22.53
690.496	22.94
690.683	23.36
690.869	23.79
691.055	24.25
691.242	24.57
691.428	25.05
691.614	25.63
691.8	26.08
691.987	26.56
692.173	27.15
692.359	27.69
692.545	28.32
692.731	28.88
692.918	29.46
693.104	29.96
693.29	30.54
693.476	31
693.662	31.48
693.848	31.87
694.034	32.3
694.22	32.77
694.406	33.55
694.592	34
694.778	34.59
694.964	35.11
695.15	35.83
695.336	36.62
695.522	37.23
695.708	37.77
695.894	38.55
696.08	39.16
696.265	39.83
696.451	40.46
696.637	41
696.823	41.51
697.009	42.07
697.194	42.56
697.38	43.07
697.566	43.5
697.751	44.11
697.937	44.58
698.123	45.15
698.308	45.54
698.494	46.09
698.68	46.67
698.865	47.37
699.051	47.85
699.236	48.44
699.422	48.92
699.607	49.49
699.793	49.88
699.978	50.35
700.164	50.78
700.349	51.3
700.535	51.73
700.72	52.33
700.906	52.86
701.091	53.36
701.276	53.83
701.462	54.29
701.647	54.63
701.832	55.06
702.018	55.37
702.203	55.57
702.388	55.9
702.573	56.37
702.759	56.79
702.944	57.13
703.129	57.54
703.314	58.13
703.499	58.72
703.684	59.24
703.87	59.58
704.055	59.89
704.24	60.45
704.425	60.93
704.61	61.11
704.795	61.59
704.98	62.08
705.165	62.39
705.35	62.81
705.535	63.15
705.72	63.18
705.905	63.62
706.09	63.69
706.275	63.7
706.459	64.13
706.644	64.48
706.829	64.73
707.014	65.09
707.199	65.21
707.384	65.53
707.568	66.02
707.753	66.4
707.938	66.54
708.123	66.72
708.307	67.22
708.492	67.49
708.677	67.83
708.861	68.1
709.046	68.11
709.231	68.33
709.415	68.49
709.6	68.68
709.784	69.11
709.969	69.5
710.153	69.83
710.338	70.07
710.522	70.33
710.707	70.32
710.891	70.32
711.076	70.35
711.26	70.38
711.445	70.39
711.629	70.7
711.813	70.85
711.998	71.19
712.182	71.43
712.366	71.73
712.551	71.94
712.735	72
712.919	72.23
713.103	72.25
713.288	72.64
713.472	72.86
713.656	72.62
713.84	72.92
714.024	73.28
714.208	73.21
714.393	73.81
714.577	73.83
714.761	74.05
714.945	74.51
715.129	74.29
715.313	74.36
715.497	74.71
715.681	74.71
715.865	74.61
716.049	74.91
716.233	74.86
716.417	75.52
716.601	75.62
716.785	75.71
716.968	75.42
717.152	75.72
717.336	75.65
717.52	75.94
717.704	75.84
717.888	76.04
718.071	76.19
718.255	76.51
718.439	76.48
718.622	76.4
718.806	76.4
718.99	76.38
719.174	76.32
719.357	76.49
719.541	76.79
719.724	77.32
719.908	77.62
720.092	78.07
720.275	78.3
720.459	78.47
720.642	78.37
720.826	78.52
721.009	78.12
721.193	78.3
721.376	78.26
721.559	78.24
721.743	78.65
721.926	78.7
722.11	78.57
722.293	78.81
722.476	78.72
722.66	78.63
722.843	78.93
723.026	78.69
723.21	78.88
723.393	78.91
723.576	78.91
723.759	79.18
723.942	79.41
724.126	79.48
724.309	79.51
724.492	79.68
724.675	80.07
724.858	80.61
725.041	80.6
725.224	80.67
725.407	80.35
725.59	80.83
725.774	81.05
725.957	81.29
726.14	81.61
726.322	81.59
726.505	82.31
726.688	82.54
726.871	82.56
727.054	82.68
727.237	82.19
727.42	82.34
727.603	82.48
727.786	81.99
727.968	82.6
728.151	82.7
728.334	82.83
728.517	83.56
728.699	83.52
728.882	84.13
729.065	84.34
729.248	84.19
729.43	84.25
729.613	84.63
729.796	84.28
729.978	84.27
730.161	84.43
730.343	84.77
730.526	84.86
730.708	85.29
730.891	85.17
731.073	85.53
731.256	85.79
731.438	85.96
731.621	85.94
731.803	86.32
731.986	86.06
732.168	85.92
732.35	86.07
732.533	85.67
732.715	85.6
732.898	85.72
733.08	85.79
733.262	86.18
733.444	86.14
733.627	86.24
733.809	86.73
733.991	86.93
734.173	86.52
734.355	86.92
734.538	86.73
734.72	87.09
734.902	86.94
735.084	86.86
735.266	86.61
735.448	87.32
735.63	86.86
735.812	87.09
735.994	86.75
736.176	87.67
736.358	88.41
736.54	88.29
736.722	87.72
736.904	88.14
737.086	88.12
737.268	88.83
737.45	88.38
737.632	87.56
737.814	88.12
737.995	89.04
738.177	89.23
738.359	89.53
738.541	88.97
738.723	88.94
738.904	89.12
739.086	89.04
739.268	88.6
739.449	88.91
739.631	89.03
739.813	89.36
739.994	90.02
740.176	90.12
740.358	90.12
740.539	90.45
740.721	89.77
740.902	89.51
741.084	89.54
741.265	89.66
741.447	89.52
741.628	89.04
741.81	89.15
741.991	89.69
742.172	89.82
742.354	90.18
742.535	89.74
742.717	89.92
742.898	90.58
743.079	90.6
743.261	90.62
743.442	90.78
743.623	90.55
743.804	90.28
743.986	90.41
744.167	90.21
744.348	90.43
744.529	90.23
744.71	89.73
744.891	90.09
745.073	90.23
745.254	90.75
745.435	90.85
745.616	90.07
745.797	89.65
745.978	90.13
746.159	89.55
746.34	89.99
746.521	89.79
746.702	89.59
746.883	90.2
747.064	90.18
747.245	90.68
747.426	91.11
747.606	90.76
747.787	90.88
747.968	91.89
748.149	91.1
748.33	92.04
748.51	91.39
748.691	91.49
748.872	91.44
749.053	91.18
749.233	89.55
749.414	90.31
749.595	89.1
749.775	88.91
749.956	88.27
750.137	88.04
750.317	87.76
750.498	88.5
750.678	88.28
750.859	88.67
751.04	88.61
751.22	89.09
751.4	89.11
751.581	89.22
751.761	89.61
751.942	89.61
752.122	89.73
752.303	90.47
752.483	91.3
752.663	91.72
752.844	91.04
753.024	91.08
753.204	90.91
753.385	90.49
753.565	89.72
753.745	88.48
753.925	88.23
754.106	88.6
754.286	88.28
754.466	88.53
754.646	88.69
754.826	89.18
755.006	89.13
755.187	89.97
755.367	90.01
755.547	89.59
755.727	88.86
755.907	90.14
756.087	89.45
756.267	89.94
756.447	89.72
756.627	90.21
756.807	90.57
756.987	91.8
757.167	90.77
757.346	90.75
757.526	90.78
757.706	89.85
757.886	89.94
758.066	90.3
758.246	89.93
758.425	90.63
758.605	91.02
758.785	91.41
758.965	90.63
759.144	91.27
759.324	91.41
759.504	90.93
759.683	89.88
759.863	89.76
760.043	88.91
760.222	89.16
760.402	88.77
760.581	87.83
760.761	87.2
760.94	87.24
761.12	87.42
761.299	86.28
761.479	87.6
761.658	86.6
761.838	86.55
762.017	86.93
762.197	87.58
762.376	87.15
762.555	88.96
762.735	87.38
762.914	88.03
763.093	87.75
763.273	87.97
763.452	87.32
763.631	86.93
763.81	86.84
763.99	87.85
764.169	87.8
764.348	88.63
764.527	88.22
764.706	88.85
764.885	89.87
765.064	88.97
765.243	88.15
765.423	88.04
765.602	87.03
765.781	87.29
765.96	86.52
766.139	85.66
766.318	85.48
766.497	86.38
766.676	86.77
766.854	87.1
767.033	86.52
767.212	86.43
767.391	86.22
767.57	86.74
767.749	86.52
767.928	85.35
768.106	85.72
768.285	86.42
768.464	87.16
768.643	87.68
768.821	87.86
769	87.94
769.179	87.64
769.357	87.16
769.536	86.01
769.715	85.33
769.893	84.1
770.072	83.07
770.25	83.12
770.429	84.38
770.607	85.09
770.786	86.39
770.964	86.34
771.143	87.19
771.321	87.82
771.5	86.56
771.678	85.87
771.857	84.94
772.035	84.38
772.213	83.89
772.392	84.52
772.57	84.51
772.748	84.22
772.927	83.91
773.105	84.73
773.283	84.15
773.461	84.55
773.64	84.17
773.818	83.43
773.996	84.41
774.174	84.91
774.352	84.32
774.531	84.09
774.709	84.15
774.887	83.38
775.065	83.55
775.243	84.07
775.421	84.18
775.599	83.23
775.777	83.62
775.955	82.9
776.133	82.43
776.311	82.38
776.489	82.2
776.667	81.87
776.844	82.81
777.022	83.93
777.2	85.23
777.378	86.2
777.556	88.15
777.734	87.54
777.911	88.28
778.089	87.25
778.267	84.38
778.445	82.49
778.622	83.41
778.8	81.76
778.978	82.42
779.155	81.26
779.333	79.95
779.511	80.99
779.688	80.36
779.866	78.92
780.043	79.26
780.221	77.92
780.398	78.6
780.576	81.59
780.753	81.35
780.931	83.4
781.108	84.35
781.286	82.9
781.463	83.61
781.64	82.52
781.818	80
781.995	82.39
782.172	82.52
782.35	80.91
782.527	83.7
782.704	83.79
782.882	84.48
783.059	86.02
783.236	83.93
783.413	83.33
783.59	82.86
783.768	79.91
783.945	79.65
784.122	79.51
784.299	80.29
784.476	81.67
784.653	80.44
784.83	79.64
785.007	80.44
785.184	80.44
785.361	80.34
785.538	79.3
785.715	79.16
785.892	78.75
786.069	81.45
786.246	81
786.423	81.93
786.6	81
786.776	81.09
786.953	79.32
787.13	81.5
787.307	80.21
787.484	81.04
787.66	78.57
787.837	79.5
788.014	79.23
788.191	80.37
788.367	78.84
788.544	77.22
788.721	75.64
788.897	77.92
789.074	76.79
789.25	77.3
789.427	74.57
789.603	76.29
789.78	80.1
789.956	79.95
790.133	79.05
790.309	79.67
790.486	81.31
790.662	84.97
790.839	83.65
791.015	82.43
791.192	85.66
791.368	86.93
791.544	88.64
791.721	85.75
791.897	84.42
792.073	84.4
792.249	85.53
792.426	84.69
792.602	83.66
792.778	81
792.954	82.33
793.13	83.13
793.307	81.36
793.483	79.89
793.659	80.59
793.835	80.26
794.011	79.47
794.187	73.6
794.363	73.64
794.539	75.25
794.715	74.28
794.891	70.98
795.067	71.26
795.243	72.4
795.419	76.83
795.595	75.71
795.771	76.04
795.947	74.98
796.122	76.94
796.298	74.89
796.474	75.25
796.65	75.9
796.826	78.21
797.001	78.09
797.177	81.04
797.353	82.15
797.529	85.78
797.704	83.3
797.88	82.63
798.056	83.58
798.231	82.38
798.407	81.94
798.582	81.96
798.758	80.41
798.934	81.07
799.109	78.38
799.285	76.3
799.46	76.42
799.636	76.84
799.811	78.4
799.986	79.16
800.162	81.18
800.337	84.82
800.513	87.61
800.688	93.15
800.863	93.8
801.039	89
801.214	86.83
801.389	86.46
801.565	88.42
801.74	83.38
801.915	79.78
802.09	77.42
802.265	78.38
802.441	78.14
802.616	78.42
802.791	75.81
802.966	78.29
803.141	72.66
803.316	74.39
803.491	74.31
803.666	78.23
803.841	81.16
804.016	81.06
804.191	77.76
804.366	79.48
804.541	76.91
804.716	72.81
804.891	73.44
805.066	69.5
805.241	68.97
805.416	68.97
805.591	72.47
805.765	71.54
805.94	78.59
806.115	73.72
806.29	75.24
806.464	74.36
806.639	74.88
806.814	70.72
806.989	71.64
807.163	69.02
807.338	68.92
807.512	64.51
807.687	64.94
807.862	67.96
808.036	70.09
808.211	74.56
808.385	72.49
808.56	76.45
808.734	78.41
808.909	76.37
809.083	74.99
809.258	78.03
809.432	72.81
809.606	76.38
809.781	74.72
809.955	79.72
810.13	85.46
810.304	81.71
810.478	81.14
810.652	85.58
810.827	85.13
811.001	82.73
811.175	76.55
811.349	74.33
811.524	74.23
811.698	69.77
811.872	70.16
812.046	67.72
812.22	68.47
812.394	70.13
812.568	74.03
812.742	74.66
812.916	78.92
813.09	75.8
813.264	77.94
813.438	79.95
813.612	78.35
813.786	73.81
813.96	78.74
814.134	82.48
814.308	81.76
814.482	81.13
814.656	82.63
814.83	86.15
815.003	87.79
815.177	88.28
815.351	85.03
815.525	84.81
815.698	80.31
815.872	77.5
816.046	70.16
816.219	71.4
816.393	64.17
816.567	61.01
816.74	62.87
816.914	68.63
817.088	67
817.261	73.21
817.435	65.2
817.608	68.87
817.782	71.98
817.955	72.87
818.129	72.65
818.302	78.12
818.475	77.85
818.649	79.69
818.822	78.95
818.996	82.2
819.169	77.91
819.342	74.11
819.516	75.74
819.689	78.79
819.862	80.3
820.035	78.21
820.209	72.35
820.382	73.19
820.555	74.97
820.728	65.39
820.901	61.33
821.075	64.67
821.248	67.05
821.421	63.16
821.594	67.71
821.767	68.29
821.94	67.53
822.113	75.41
822.286	82.68
822.459	90.19
822.632	100.76
822.805	91.31
822.978	90.93
823.151	91.47
823.324	80.35
823.496	59.05
823.669	58.15
823.842	58.15
824.015	57.74
824.188	52.1
824.361	52.03
824.533	58.63
824.706	83.73
824.879	72.36
825.051	69.02
825.224	73.12
825.397	73.95
825.569	81.02
825.742	77.43
825.915	66.73
826.087	60.6
826.26	67.2
826.432	67.86
826.605	65.21
826.777	61.53
826.95	51.94
827.122	62.76
827.295	70.36
827.467	54.99
827.64	48.79
827.812	54.32
827.984	60.14
828.157	68.06
828.329	63.15
828.501	62.19
828.674	69.32
828.846	74.01
829.018	71.49
829.19	64.17
829.363	67.73
829.535	62.49
829.707	57.47
829.879	55.42
830.051	52.05
830.223	37.2
830.395	34.73
830.568	37.39
830.74	48.04
830.912	57.63
831.084	57.98
831.256	55
831.428	66.88
831.6	64.39
831.772	57.72
831.943	59.77
832.115	60.48
832.287	58.48
832.459	66.63
832.631	64.22
832.803	81.26
832.975	84.94
833.146	69.77
833.318	66.12
833.49	73.74
833.662	75.18
833.833	82.02
834.005	72.67
834.177	71.69
834.348	72.12
834.52	78.39
834.692	73.38
834.863	70.12
835.035	67.63
835.206	60.03
835.378	54.61
835.549	56.86
835.721	51.93
835.892	55.46
836.064	62.13
836.235	61.8
836.407	65.03
836.578	65.77
836.749	73.18
836.921	68.15
837.092	70.62
837.264	56.55
837.435	53.85
837.606	51.67
837.777	48.27
837.949	36.38
838.12	44.23
838.291	50.05
838.462	59.7
838.633	62.02
838.805	65.23
838.976	69.46
839.147	69.26
839.318	60.5
839.489	60.9
839.66	57.9
839.831	45.42
840.002	42.63
840.173	45.8
840.344	51.65
840.515	52.81
840.686	45.3
840.857	34.28
841.028	50.32
841.199	58.63
841.369	59.26
841.54	65.57
841.711	71.34
841.882	67.79
842.053	71.29
842.223	69.79
842.394	49.77
842.565	55.69
842.736	37.9
842.906	45.92
843.077	52.56
843.248	64.6
843.418	65.39
843.589	78.77
843.759	76.63
843.93	88.42
844.101	76.29
844.271	78.5
844.442	77.6
844.612	68.01
844.783	40.43
844.953	42.03
845.123	43.79
845.294	52.92
845.464	53.14
845.635	52.08
845.805	60.24
845.975	74.51
846.146	66.69
846.316	82.77
846.486	77.22
846.656	77.35
846.827	71.72
846.997	82.51
847.167	79.76
847.337	90.88
847.507	77.57
847.677	78.96
847.848	82.12
848.018	82.83
848.188	61.18
848.358	67.73
848.528	57.21
848.698	41.51
848.868	32.99
849.038	34.2
849.208	50.49
849.378	58.29
849.548	64.35
849.718	68.69
849.887	65.35
850.057	49.64
850.227	53.12
850.397	26.16
850.567	41.84
850.737	21.39
850.906	20.34
851.076	41.41
851.246	66.32
851.415	61.5
851.585	66.87
851.755	58.83
851.924	80.52
852.094	82.47
852.264	66.19
852.433	71.18
852.603	90.83
852.772	102.67
852.942	82.17
853.111	75.31
853.281	69.66
853.45	73.31
853.62	57.16
853.789	41.9
853.959	31.36
854.128	31.77
854.297	24.91
854.467	35.5
854.636	49.43
854.805	44.9
854.975	51.71
855.144	73.18
855.313	91.29
855.482	88.56
855.652	79.38
855.821	59.15
855.99	81.07
856.159	71.66
856.328	34.99
856.497	16.1
856.667	25.36
856.836	30.03
857.005	32.19
857.174	37.91
857.343	32.3
857.512	35.24
857.681	40.64
857.85	29.5
858.019	29.82
858.188	31.77
858.356	-7.38
858.525	20.17
858.694	24.16
858.863	26.21
859.032	29.27
859.201	5.13
859.369	23.14
859.538	25.04
859.707	23.52
859.876	41.23
860.044	58.54
860.213	61.87
860.382	66.93
860.55	81.77
860.719	84.54
860.888	71.65
861.056	67.13
861.225	74.96
861.393	86.87
861.562	75.51
861.73	48.21
861.899	29.86
862.067	44.41
862.236	38.84
862.404	29.1
862.572	19.64
862.741	25.77
862.909	29.43
863.078	37.08
863.246	38.48
863.414	46.45
863.582	41.61
863.751	36.54
863.919	45.46
864.087	51.41
864.255	44.41
864.424	51.11
864.592	36.38
864.76	42.1
864.928	45.93
865.096	32.89
865.264	26.21
865.432	39.51
865.6	10.31
865.768	11.56
865.936	3.54
866.104	-1.07
866.272	13.11
866.44	-28.08
866.608	-30.4
866.776	18.46
866.944	30.74
867.112	0.22
867.28	-21.51
867.448	-4.61
867.615	38.75
867.783	12.29
867.951	4.8
868.119	29.31
868.286	42.37
868.454	49.05
868.622	55.03
868.789	60.64
868.957	70.44
869.125	65.84
869.292	70.59
869.46	79.18
869.627	69.66
869.795	49.11
869.963	48.3
870.13	67.32
870.298	63.84
870.465	15.34
870.632	37.97
870.8	47.56
870.967	56
871.135	51.59
871.302	51.41
871.469	44.86
871.637	50.08
871.804	34.64
871.971	32.31
872.139	42.35
872.306	28.41
872.473	-0.59
872.64	16.68
872.807	35.03
872.975	84.38
873.142	68.68
873.309	62.21
873.476	203.98
873.643	262.77
873.81	214.59
873.977	131.88
874.144	102.52
874.311	101.55
874.478	25.03
874.645	7.97
874.812	27.21
874.979	10.71
875.146	-22.48
875.313	-27.77
875.48	72.3
875.647	75
875.813	34.6
875.98	0.4
876.147	65.89
876.314	71.45
876.481	55.67
876.647	60.58
876.814	71.89
876.981	63.68
877.147	59.79
877.314	46.99
877.481	53.79
877.647	57.62
877.814	29.03
877.98	40.16
878.147	64.46
878.314	92.34
878.48	88.11
878.647	109.11
878.813	107.56
878.979	143.28
879.146	92.46
879.312	103.71
879.479	76.08
879.645	42.09
879.811	30.76
879.978	43.27
880.144	43.25
880.31	41.71
880.477	-9.1
880.643	-44.47
880.809	78.26
880.975	32.06
881.142	26.52
881.308	24.3
881.474	42.46
881.64	14.41
881.806	31.4
881.972	69.47
882.138	68.5
882.304	4.23
882.47	0.32
882.636	-16.53
882.802	28.72
882.968	3.69
883.134	-153.68
883.3	1.94
883.466	91.43
883.632	49.92
883.798	52.15
883.964	48.24
884.129	83.77
884.295	62.49
884.461	21.78
884.627	-5.04
884.793	27.11
884.958	29.31
885.124	-12.24
885.29	-21.09
885.455	-22.34
885.621	4
885.787	-0.96
885.952	-4.54
886.118	15.74
886.283	38.51
886.449	28.02
886.614	78.18
886.78	80.42
886.945	72.35
887.111	88.53
887.276	72.07
887.442	68.54
887.607	81.51
887.773	43.01
887.938	27.71
888.103	61.17
888.269	59.54
888.434	66.58
888.599	67.53
888.764	48.42
888.93	53.75
889.095	43.21
889.26	38.82
889.425	52.64
889.59	34.15
889.756	29.57
889.921	28.96
890.086	45.12
890.251	39.17
890.416	-24.28
890.581	-44.01
890.746	-64.27
890.911	-109.92
891.076	-138.99
891.241	-198.77
891.406	-24.09
891.571	19.21
891.736	23.31
891.901	62.04
892.065	74.45
892.23	62.19
892.395	35.09
892.56	-10.64
892.725	-7.09
892.889	-40.25
893.054	-119.37
893.219	-195.85
893.384	-286.2
893.548	-661.67
893.713	959.41
893.878	595.11
