Data from Ofra_PS_T2_1A_4HS13_Reflection_3.txt Node
Date: Wed Jul 21 18:06:33 EDT 2021
User: Adam
Spectrometer: FLMT01687
Trigger mode: 0
Integration Time (sec): 1.100000E0
Scans to average: 2
Electric dark correction enabled: true
Nonlinearity correction enabled: false
Boxcar width: 2
XAxis mode: Wavelengths
Number of Pixels in Spectrum: 3648
>>>>>Begin Spectral Data<<<<<
179.494	569.8
179.716	599.76
179.937	576.46
180.158	557.31
180.38	890.78
180.601	212.29
180.823	77.56
181.044	-107.94
181.265	90.62
181.486	-18.43
181.708	118.53
181.929	833.16
182.15	-477.82
182.372	98.23
182.593	-27.26
182.814	41.27
183.035	53.7
183.257	26.96
183.478	-70.27
183.699	-63.88
183.92	-90.17
184.141	-42.72
184.363	-93.79
184.584	-11.92
184.805	12.6
185.026	52.9
185.247	36.64
185.468	31.58
185.689	29.27
185.91	32.51
186.132	18.45
186.353	6.09
186.574	65.01
186.795	49.89
187.016	29.23
187.237	22.97
187.458	27.65
187.679	-17.43
187.9	-1.95
188.121	-1.69
188.342	18.61
188.563	61.53
188.784	103.38
189.005	96
189.226	137.45
189.447	127.44
189.667	100.36
189.888	-124.26
190.109	-635.39
190.33	-489.84
190.551	-1173.67
190.772	-244.85
190.993	-186.93
191.214	-150.05
191.434	-100.65
191.655	-9.6
191.876	-69.32
192.097	-155.81
192.318	-255.17
192.538	-370.45
192.759	-255.26
192.98	-144.73
193.201	-62.12
193.421	-37.49
193.642	-4.97
193.863	2.91
194.083	-14.06
194.304	-26.25
194.525	-19.75
194.745	-23.43
194.966	-53.23
195.187	-53.22
195.407	-63.15
195.628	-105.5
195.848	-130.79
196.069	-107.85
196.29	-51.91
196.51	-53.75
196.731	-47.22
196.951	-66.9
197.172	-56.14
197.392	-101.98
197.613	-147.01
197.833	-183.77
198.054	-133.69
198.274	-81.42
198.495	-77.89
198.715	-27.73
198.936	-23.18
199.156	-25.65
199.377	-114.19
199.597	-137.81
199.817	-144.33
200.038	-67.61
200.258	-125.6
200.479	-62.37
200.699	-13.83
200.919	43.65
201.14	2.4
201.36	-19.71
201.58	11.54
201.801	23.14
202.021	-23.56
202.241	-26.09
202.461	-17.37
202.682	-109.38
202.902	-149.63
203.122	-79.42
203.342	-60.75
203.563	-13.06
203.783	4.5
204.003	-63.84
204.223	-79.98
204.443	-11.14
204.663	-63.94
204.884	-32.19
205.104	22.53
205.324	72.29
205.544	58.58
205.764	72.54
205.984	61.63
206.204	62.76
206.424	34.22
206.644	-6.18
206.864	-5.57
207.084	-44.55
207.304	-48.12
207.525	-217.58
207.745	-99.67
207.964	-43.42
208.184	-74.25
208.404	-131.35
208.624	-115.58
208.844	-141.26
209.064	-491.53
209.284	-497.47
209.504	-249.39
209.724	-69.58
209.944	-36.5
210.164	-14.35
210.384	0.94
210.604	-1.53
210.823	-47.84
211.043	-74.51
211.263	-44.21
211.483	-51.85
211.703	-94.46
211.922	-91.04
212.142	-3.04
212.362	3.29
212.582	-17
212.801	-15.18
213.021	-25.25
213.241	-61.68
213.461	-89.15
213.68	-100.69
213.9	-79.06
214.12	-45.56
214.339	-103.01
214.559	-79.6
214.779	-13.36
214.998	0.43
215.218	-33.59
215.438	-2.78
215.657	-6.68
215.877	-47.83
216.096	-29.78
216.316	-26.82
216.535	-31.89
216.755	-29.36
216.974	-98.44
217.194	-126.69
217.413	-133.8
217.633	-115.64
217.852	-222.89
218.072	-94.76
218.291	-42.1
218.511	-6.03
218.73	-37.41
218.95	-17.67
219.169	-13.26
219.389	-51.38
219.608	-35.41
219.827	-14.88
220.047	6.1
220.266	4.45
220.485	-6.73
220.705	4.36
220.924	-23.63
221.143	-0.85
221.363	-14.21
221.582	-2.74
221.801	-5.45
222.021	23.59
222.24	-28.95
222.459	41.27
222.678	7.05
222.897	-37.06
223.117	-87.44
223.336	-88.33
223.555	-84.72
223.774	-17.84
223.993	-6.39
224.213	48.39
224.432	42.44
224.651	45.76
224.87	9.8
225.089	28.52
225.308	6.64
225.527	31.8
225.746	31.92
225.965	22.68
226.184	-2.23
226.404	15.56
226.623	-20.68
226.842	-15.56
227.061	17.73
227.28	12.91
227.499	-13.71
227.718	16.96
227.936	-5.02
228.155	2
228.374	-3.51
228.593	15.39
228.812	-9.18
229.031	8.34
229.25	-50.62
229.469	-28.89
229.688	-17.46
229.907	34.71
230.125	46.79
230.344	42.22
230.563	35.86
230.782	37.74
231.001	-56.21
231.22	-61.84
231.438	-5.8
231.657	-7.35
231.876	-27.67
232.095	23.31
232.313	25.14
232.532	-23.01
232.751	-37.53
232.969	-41.43
233.188	-94.7
233.407	-46.08
233.625	-33.98
233.844	-62.87
234.063	-42.2
234.281	-37.54
234.5	-36.33
234.719	-20.44
234.937	4.13
235.156	6.83
235.374	24.12
235.593	16.59
235.811	-0.74
236.03	-2.53
236.249	-52.99
236.467	-65.01
236.686	-32.3
236.904	-12.62
237.123	-35.71
237.341	-19.49
237.559	-8.69
237.778	-33.67
237.996	-58.38
238.215	-19.68
238.433	-1.15
238.652	-0.64
238.87	-9.96
239.088	8.14
239.307	0.36
239.525	4.37
239.743	-37.57
239.962	-27.44
240.18	-59.68
240.398	-95.48
240.617	-128.22
240.835	-106.54
241.053	-42.64
241.271	8.12
241.49	29.13
241.708	39.15
241.926	19.22
242.144	-25.65
242.363	-83.48
242.581	-127.76
242.799	-78.47
243.017	-41.73
243.235	-54.29
243.453	-37.68
243.672	-32.72
243.89	-28.38
244.108	-29.76
244.326	-0.98
244.544	0.71
244.762	11.99
244.98	12.38
245.198	4.13
245.416	-41.17
245.634	-35.46
245.852	-56.66
246.07	-72.12
246.288	-68.29
246.506	-82.3
246.724	-54.54
246.942	-51.56
247.16	-15.26
247.378	-12.47
247.596	5.61
247.814	-3.77
248.032	-7.85
248.25	-9.03
248.468	9.27
248.685	27.77
248.903	49.69
249.121	46.54
249.339	20.79
249.557	-0.22
249.775	8.93
249.992	-55.78
250.21	-51.52
250.428	-42.9
250.646	-63.72
250.863	-89.09
251.081	-51.59
251.299	-39.48
251.517	-3.12
251.734	10.52
251.952	1.26
252.17	3.49
252.387	20.05
252.605	-1.11
252.823	13.24
253.04	32.49
253.258	42.23
253.475	18.22
253.693	42.32
253.911	31.26
254.128	36.22
254.346	44.72
254.563	24.95
254.781	-1.69
254.998	-21.55
255.216	-33.03
255.433	-31.32
255.651	19.55
255.868	48.45
256.086	64.32
256.303	46.45
256.521	29.64
256.738	-2.2
256.956	-34
257.173	-59.75
257.39	-84.13
257.608	-135.54
257.825	-70.3
258.043	-42.5
258.26	-27.87
258.477	22.93
258.695	37.24
258.912	-18.7
259.129	1.96
259.346	-38.53
259.564	-89.61
259.781	-136.75
259.998	-57.9
260.216	-55.11
260.433	16.36
260.65	13.95
260.867	49.66
261.084	28.88
261.302	8.94
261.519	-43.45
261.736	-51.99
261.953	-84.77
262.17	-53.95
262.387	-96.64
262.604	-103.21
262.822	-104.04
263.039	-84.89
263.256	-132.56
263.473	-73.28
263.69	-43.76
263.907	4.46
264.124	21.85
264.341	29.18
264.558	16.59
264.775	30.77
264.992	16.86
265.209	-2.72
265.426	10.82
265.643	12.93
265.86	21.93
266.077	30.08
266.294	43.32
266.51	6.75
266.727	-10.9
266.944	-9.79
267.161	-21.11
267.378	-25.97
267.595	-6.43
267.812	-23.4
268.028	-45.72
268.245	-26.14
268.462	-27.35
268.679	-23.54
268.896	24.7
269.112	12.88
269.329	-10.22
269.546	-22.16
269.763	-34.45
269.979	-60.88
270.196	-54.39
270.413	-72.11
270.629	-86.15
270.846	-84.5
271.063	-87.37
271.279	-80.26
271.496	-69.73
271.712	-28.2
271.929	-1.49
272.146	10.36
272.362	6.8
272.579	35.67
272.795	39.29
273.012	25.76
273.228	23.53
273.445	-6.61
273.661	-33.78
273.878	-75.51
274.094	-68.46
274.311	-105.9
274.527	-18.33
274.744	-20.37
274.96	-13.54
275.177	-13.06
275.393	14.54
275.609	-2.44
275.826	13.64
276.042	14.38
276.259	-1.19
276.475	15.65
276.691	13.37
276.908	1.39
277.124	5.93
277.34	14.79
277.557	-9.36
277.773	-14.24
277.989	-14.36
278.205	-26.34
278.422	-9.42
278.638	-12.66
278.854	-1.73
279.07	-1.58
279.286	-0.02
279.503	-28.46
279.719	-22.76
279.935	-59.04
280.151	-87.62
280.367	-58.43
280.583	-73.65
280.799	-49.95
281.016	-56.8
281.232	-15.21
281.448	-11.79
281.664	28.7
281.88	-17.31
282.096	-14.55
282.312	-5.89
282.528	7.62
282.744	-20.66
282.96	2.69
283.176	4.51
283.392	-8.84
283.608	-20.66
283.824	-20.91
284.04	-16.12
284.256	-4.7
284.471	-9.31
284.687	-8.62
284.903	5.86
285.119	31.87
285.335	8.95
285.551	9.39
285.767	-7.86
285.982	-16.83
286.198	-62.6
286.414	-22.66
286.63	1.15
286.846	28.01
287.061	7.19
287.277	48.89
287.493	32.18
287.709	33.8
287.924	20.36
288.14	53.7
288.356	28.04
288.571	49.87
288.787	36.22
289.003	29.45
289.218	10.79
289.434	-19.09
289.65	-22.45
289.865	-18.16
290.081	6.16
290.296	19.31
290.512	18.86
290.727	8.18
290.943	-5.89
291.159	-25.82
291.374	-29.67
291.59	-41.07
291.805	-42.54
292.021	-22.26
292.236	-27.18
292.451	-23.35
292.667	-17.02
292.882	-3.04
293.098	-39.82
293.313	-50.17
293.529	-73.5
293.744	-79.89
293.959	-89.69
294.175	-60.21
294.39	-29.31
294.605	-12.83
294.821	13.95
295.036	16.37
295.251	18.47
295.467	-13.48
295.682	-27.12
295.897	-88.4
296.112	-93.92
296.328	-79.91
296.543	-78.42
296.758	-76.19
296.973	-12.92
297.188	11.82
297.404	-17.52
297.619	-31.21
297.834	-30.36
298.049	-53.92
298.264	-63.06
298.479	-8.44
298.694	1.23
298.909	15.75
299.125	16.83
299.34	26.37
299.555	-9.13
299.77	24.95
299.985	-8.93
300.2	-60.73
300.415	-84.39
300.63	-49.76
300.845	-77.27
301.06	-70.1
301.275	-21.93
301.49	-8.93
301.704	-18.18
301.919	-18.89
302.134	-28.96
302.349	-47.74
302.564	-103.41
302.779	-125.09
302.994	-68.22
303.209	-29.59
303.423	-0.37
303.638	40.48
303.853	9.82
304.068	-11.87
304.283	-20.36
304.497	-17.78
304.712	-34.44
304.927	-25.5
305.142	-33.73
305.356	-29.59
305.571	-34.01
305.786	-45.89
306	-56.45
306.215	-52.39
306.43	-82.05
306.644	-94.2
306.859	-48.85
307.074	-26.96
307.288	-50.5
307.503	-62.06
307.717	-44.83
307.932	-40.64
308.147	-45.22
308.361	-18.08
308.576	-14.05
308.79	-51.09
309.005	-56.56
309.219	-47.27
309.434	-63.46
309.648	-64.03
309.863	-35.09
310.077	-35.6
310.292	-29.4
310.506	-20.92
310.72	-4.71
310.935	-6.76
311.149	-2.92
311.364	16.35
311.578	23.59
311.792	11.75
312.007	15.37
312.221	-3.15
312.435	-26.48
312.649	-32.36
312.864	-11.14
313.078	-34.81
313.292	26.37
313.507	5.45
313.721	-6.55
313.935	-8.98
314.149	-0.02
314.363	-13.81
314.578	-3.15
314.792	1.52
315.006	-8.79
315.22	6.25
315.434	2.83
315.648	2.44
315.862	-0.45
316.077	-7.37
316.291	-29.22
316.505	-24.5
316.719	-14.98
316.933	-47.99
317.147	-31.03
317.361	-66.31
317.575	-86.26
317.789	-112.45
318.003	-139.14
318.217	-113.4
318.431	-19.68
318.645	8.52
318.859	6.33
319.073	19.69
319.287	3.52
319.5	-33.1
319.714	-67.63
319.928	-101.23
320.142	-113.1
320.356	-42.73
320.57	4.4
320.784	4.64
320.997	-8.2
321.211	-16.46
321.425	-83.61
321.639	-120.86
321.853	-65.83
322.066	-35.87
322.28	-31.83
322.494	-12.5
322.707	13.6
322.921	-7.52
323.135	-11.18
323.349	2.62
323.562	-14.22
323.776	-37.07
323.989	-14.21
324.203	-26.57
324.417	-37.57
324.63	-62.27
324.844	-61.26
325.057	-67.22
325.271	-45.2
325.485	-10.91
325.698	8.14
325.912	21.79
326.125	-9.57
326.339	-10.31
326.552	-45.48
326.766	-32.46
326.979	-14.34
327.193	36.18
327.406	30.11
327.619	26.93
327.833	39.77
328.046	6.94
328.26	-38.28
328.473	-18.68
328.686	-57.39
328.9	-70.06
329.113	-40.64
329.326	-49.69
329.54	-46.74
329.753	-45.8
329.966	-80.39
330.179	-73.46
330.393	-46.64
330.606	-33.25
330.819	-15.87
331.032	13.55
331.246	20.83
331.459	41.29
331.672	36.77
331.885	36.93
332.098	4.85
332.311	-16.19
332.525	-71.01
332.738	-68.53
332.951	-51.25
333.164	-14.23
333.377	5.23
333.59	35.62
333.803	49.04
334.016	50.39
334.229	58.75
334.442	46.81
334.655	57.5
334.868	27.93
335.081	19.96
335.294	-4.19
335.507	-13.31
335.72	-25.97
335.933	-29.04
336.146	-32.36
336.359	-30.44
336.572	-45.37
336.785	-63.66
336.997	-54.8
337.21	-26.93
337.423	-28.78
337.636	-32.37
337.849	-24.9
338.062	-21.16
338.274	-21.04
338.487	-17.47
338.7	0.18
338.913	-30.91
339.125	-47.68
339.338	-100.12
339.551	-87.39
339.763	-58.69
339.976	-40.13
340.189	-26.38
340.402	-17.48
340.614	-36.48
340.827	-39.97
341.039	-51.46
341.252	-48.55
341.465	-19.77
341.677	-14.68
341.89	-45.33
342.102	-7.14
342.315	-28.63
342.527	-72.72
342.74	-51.68
342.952	-34.65
343.165	-46.32
343.377	-11.96
343.59	-15.03
343.802	-0.29
344.015	4.14
344.227	19.73
344.44	9.57
344.652	15.81
344.864	-6.29
345.077	26.24
345.289	24.44
345.502	29.51
345.714	23.76
345.926	33.08
346.139	10.75
346.351	16.87
346.563	17.64
346.775	30.9
346.988	21.85
347.2	12
347.412	-38.85
347.624	-53.02
347.837	-84.32
348.049	-49.47
348.261	-10.27
348.473	11.54
348.685	8.27
348.897	14.48
349.11	-21.09
349.322	-68.04
349.534	-60.16
349.746	-57.17
349.958	-57.84
350.17	-50.06
350.382	-11.61
350.594	-31.05
350.806	-32.02
351.018	-28.58
351.23	-30.08
351.442	-68.28
351.654	-43.61
351.866	-34.65
352.078	-13.6
352.29	3.12
352.502	18.76
352.714	20.74
352.926	12.92
353.138	8.19
353.35	-9.87
353.561	-18.12
353.773	-33.01
353.985	-13.71
354.197	-18.93
354.409	-3.37
354.621	-8.23
354.832	0.85
355.044	-9
355.256	-9.81
355.468	-9.95
355.679	-4.06
355.891	-6.09
356.103	-18.13
356.314	-19.84
356.526	-9.44
356.738	-13.02
356.949	-12.79
357.161	15.09
357.373	17.23
357.584	-2.52
357.796	18.23
358.008	10.22
358.219	8.91
358.431	4.71
358.642	14.36
358.854	-7.9
359.065	-19.49
359.277	-45.53
359.488	-46.94
359.7	-74.87
359.911	-90.47
360.123	-56.03
360.334	-62.47
360.546	-79.63
360.757	-74.87
360.969	-49.66
361.18	-48.46
361.391	-29.9
361.603	-40.25
361.814	-21.86
362.025	-19.41
362.237	-34.28
362.448	-19
362.659	16.66
362.871	5.2
363.082	11.25
363.293	16.66
363.504	-0.01
363.716	-27.75
363.927	-26.27
364.138	-57.4
364.349	-64.58
364.56	-61.16
364.772	-51.42
364.983	-30.19
365.194	-23.32
365.405	-9.22
365.616	8.86
365.827	-0.15
366.038	-21.15
366.25	-32.06
366.461	-63.94
366.672	-47.82
366.883	-15.74
367.094	-5.71
367.305	-14.16
367.516	-8.23
367.727	-38.61
367.938	-58.03
368.149	-58.36
368.36	-21.04
368.571	-11.7
368.781	-19.37
368.992	-35.95
369.203	-55.51
369.414	-93.24
369.625	-103.12
369.836	-94.64
370.047	-105.88
370.258	-76.38
370.468	-64.03
370.679	-73.27
370.89	-59.17
371.101	-32.77
371.312	-40.91
371.522	-45.14
371.733	-37.7
371.944	-25.59
372.155	-12.02
372.365	-20.98
372.576	-16.18
372.787	-15.81
372.997	-41.3
373.208	-54.53
373.419	-18.33
373.629	-50.64
373.84	-48.6
374.05	-46.48
374.261	-39.23
374.472	-69.55
374.682	-1.89
374.893	-2.04
375.103	30.24
375.314	30.4
375.524	29.79
375.735	11.06
375.945	24.26
376.156	-3.34
376.366	-6.54
376.577	-8.23
376.787	-11.16
376.997	-13.48
377.208	-13.41
377.418	-17.5
377.629	2.95
377.839	3.83
378.049	-5.66
378.26	8.24
378.47	14.7
378.68	-6.35
378.89	-19.98
379.101	-21.4
379.311	-50.39
379.521	-86.59
379.732	-72.76
379.942	-57.28
380.152	-73.36
380.362	-43.67
380.572	-37.69
380.783	-20.45
380.993	-12.74
381.203	-2.3
381.413	11.01
381.623	15.38
381.833	10.39
382.043	4.06
382.253	-2.3
382.463	-10.63
382.674	-20.7
382.884	-45.67
383.094	-44.64
383.304	-33.59
383.514	-24.95
383.724	-7.98
383.934	-4.93
384.144	-15.27
384.353	-22.31
384.563	-28.01
384.773	-22.53
384.983	-27.21
385.193	-2.13
385.403	-0.47
385.613	-6.15
385.823	-21.93
386.033	-9.65
386.242	-20.36
386.452	-24.18
386.662	-30.92
386.872	-9.56
387.082	-17.81
387.291	-28.32
387.501	-26.1
387.711	-9.44
387.921	-25.45
388.13	-20.07
388.34	-2.72
388.55	-7.61
388.759	-13.9
388.969	-7.7
389.179	-8.66
389.388	-12.9
389.598	-1.82
389.807	-5.26
390.017	-6.59
390.227	-8.25
390.436	-7.18
390.646	-9.77
390.855	-5.35
391.065	-6.52
391.274	-5.19
391.484	-7.78
391.693	-6.48
391.903	-4.6
392.112	1.15
392.322	1.66
392.531	4.65
392.74	4.11
392.95	-1.92
393.159	-3.54
393.369	-2.35
393.578	-4.3
393.787	-5.95
393.997	-2.1
394.206	-4.17
394.415	-4.59
394.625	-4.06
394.834	-4.29
395.043	-4.34
395.252	-1.77
395.462	-0.24
395.671	0.13
395.88	1.94
396.089	2.38
396.298	-0.65
396.508	-1.46
396.717	-1.92
396.926	-2.35
397.135	-2.15
397.344	-1.47
397.553	0.27
397.762	2.48
397.971	2.5
398.181	2.78
398.39	2.98
398.599	1.7
398.808	1.05
399.017	1.9
399.226	2.81
399.435	3.62
399.644	4.1
399.853	3.18
400.062	2.53
400.27	1.87
400.479	1.51
400.688	0.56
400.897	1.13
401.106	1.3
401.315	1.03
401.524	1.14
401.733	1.82
401.941	2.12
402.15	2.21
402.359	1.87
402.568	2.21
402.777	2.3
402.985	1.99
403.194	1.71
403.403	2.04
403.612	1.51
403.82	1.46
404.029	1.65
404.238	1.6
404.446	1.77
404.655	1.61
404.864	1.58
405.072	1.31
405.281	1.57
405.489	1.45
405.698	1.44
405.906	1.41
406.115	1.42
406.324	1.39
406.532	1.47
406.741	1.85
406.949	1.78
407.158	1.79
407.366	1.76
407.574	1.69
407.783	1.62
407.991	1.45
408.2	1.68
408.408	1.53
408.617	1.47
408.825	1.41
409.033	1.53
409.242	1.45
409.45	1.57
409.658	1.41
409.867	1.54
410.075	1.47
410.283	1.38
410.491	1.42
410.7	1.52
410.908	1.39
411.116	1.79
411.324	1.75
411.533	1.65
411.741	1.88
411.949	1.89
412.157	1.59
412.365	1.58
412.573	1.64
412.781	1.68
412.99	1.64
413.198	1.82
413.406	1.81
413.614	1.78
413.822	1.59
414.03	1.49
414.238	1.22
414.446	1.4
414.654	1.23
414.862	1.33
415.07	1.49
415.278	1.76
415.486	1.6
415.694	1.83
415.902	1.63
416.109	1.5
416.317	1.43
416.525	1.24
416.733	1.17
416.941	1.43
417.149	1.43
417.357	1.36
417.564	1.58
417.772	1.82
417.98	1.68
418.188	1.62
418.395	1.74
418.603	1.88
418.811	1.47
419.019	1.41
419.226	1.7
419.434	1.76
419.642	1.52
419.849	1.81
420.057	1.89
420.265	1.83
420.472	1.52
420.68	1.5
420.887	1.26
421.095	1.28
421.302	1.13
421.51	1.39
421.717	1.51
421.925	1.61
422.132	1.48
422.34	1.27
422.547	1.32
422.755	1.23
422.962	1.2
423.17	1.19
423.377	1.4
423.585	1.27
423.792	1.23
423.999	1.23
424.207	1.29
424.414	1.44
424.621	1.35
424.829	1.46
425.036	1.43
425.243	1.44
425.451	1.23
425.658	1.22
425.865	1.27
426.072	1.22
426.28	1.43
426.487	1.43
426.694	1.56
426.901	1.4
427.108	1.42
427.315	1.28
427.523	1.47
427.73	1.26
427.937	1.27
428.144	1.16
428.351	1.02
428.558	1.2
428.765	1.1
428.972	1.12
429.179	1.22
429.386	1.56
429.593	1.2
429.8	1.32
430.007	1.4
430.214	1.51
430.421	1.3
430.628	1.23
430.835	1.15
431.042	1.33
431.249	1.32
431.456	1.26
431.662	1.43
431.869	1.57
432.076	1.38
432.283	1.42
432.49	1.37
432.697	1.34
432.903	1.11
433.11	1.09
433.317	1.13
433.524	1.38
433.73	1.33
433.937	1.64
434.144	1.52
434.35	1.44
434.557	1.27
434.764	1.27
434.97	1.12
435.177	1.34
435.384	1.28
435.59	1.29
435.797	1.45
436.003	1.57
436.21	1.52
436.416	1.66
436.623	1.69
436.829	1.77
437.036	1.77
437.242	1.8
437.449	1.66
437.655	1.68
437.862	1.56
438.068	1.42
438.275	1.43
438.481	1.65
438.687	1.49
438.894	1.42
439.1	1.47
439.307	1.62
439.513	1.44
439.719	1.48
439.926	1.58
440.132	1.54
440.338	1.34
440.544	1.47
440.751	1.49
440.957	1.53
441.163	1.54
441.369	1.69
441.575	1.44
441.782	1.44
441.988	1.31
442.194	1.27
442.4	1.19
442.606	1.51
442.812	1.59
443.018	1.67
443.224	1.77
443.431	1.91
443.637	1.65
443.843	1.53
444.049	1.57
444.255	1.47
444.461	1.44
444.667	1.45
444.873	1.61
445.079	1.53
445.284	1.63
445.49	1.36
445.696	1.23
445.902	1.05
446.108	0.99
446.314	0.9
446.52	1.07
446.726	1.36
446.931	1.38
447.137	1.43
447.343	1.52
447.549	1.37
447.755	1.25
447.96	1.3
448.166	1.34
448.372	1.19
448.578	1.3
448.783	1.33
448.989	1.39
449.195	1.49
449.4	1.6
449.606	1.59
449.812	1.52
450.017	1.53
450.223	1.42
450.428	1.37
450.634	1.41
450.84	1.52
451.045	1.44
451.251	1.38
451.456	1.62
451.662	1.71
451.867	1.81
452.073	1.78
452.278	1.86
452.483	1.84
452.689	1.69
452.894	1.62
453.1	1.66
453.305	1.66
453.51	1.59
453.716	1.52
453.921	1.49
454.127	1.39
454.332	1.25
454.537	1.15
454.742	1.21
454.948	1.2
455.153	1.29
455.358	1.45
455.563	1.67
455.769	1.79
455.974	1.83
456.179	1.72
456.384	1.71
456.589	1.53
456.795	1.31
457	1.2
457.205	1.44
457.41	1.38
457.615	1.36
457.82	1.44
458.025	1.48
458.23	1.26
458.435	1.32
458.64	1.27
458.845	1.39
459.05	1.38
459.255	1.43
459.46	1.4
459.665	1.4
459.87	1.35
460.075	1.37
460.28	1.39
460.485	1.44
460.69	1.47
460.895	1.26
461.099	1.2
461.304	1.28
461.509	1.35
461.714	1.31
461.919	1.67
462.123	1.61
462.328	1.7
462.533	1.6
462.738	1.68
462.942	1.48
463.147	1.58
463.352	1.5
463.556	1.5
463.761	1.54
463.966	1.55
464.17	1.54
464.375	1.41
464.58	1.32
464.784	1.24
464.989	1.21
465.193	1.18
465.398	1.25
465.602	1.42
465.807	1.4
466.011	1.45
466.216	1.49
466.42	1.54
466.625	1.55
466.829	1.62
467.034	1.67
467.238	1.87
467.443	1.79
467.647	1.61
467.851	1.71
468.056	1.71
468.26	1.49
468.464	1.53
468.669	1.71
468.873	1.78
469.077	1.76
469.282	1.84
469.486	1.92
469.69	1.91
469.894	1.74
470.099	1.81
470.303	1.92
470.507	1.78
470.711	1.64
470.915	1.64
471.119	1.65
471.324	1.52
471.528	1.56
471.732	1.63
471.936	1.6
472.14	1.49
472.344	1.53
472.548	1.56
472.752	1.68
472.956	1.95
473.16	1.95
473.364	1.87
473.568	1.9
473.772	1.9
473.976	1.65
474.18	1.65
474.384	1.77
474.588	1.66
474.792	1.52
474.995	1.62
475.199	1.71
475.403	1.67
475.607	1.71
475.811	1.64
476.015	1.7
476.218	1.63
476.422	1.57
476.626	1.61
476.83	1.75
477.033	1.66
477.237	1.62
477.441	1.74
477.644	1.74
477.848	1.74
478.052	1.68
478.255	1.75
478.459	1.67
478.663	1.77
478.866	1.83
479.07	1.87
479.273	2.02
479.477	2.11
479.681	2.05
479.884	1.94
480.088	1.9
480.291	1.77
480.495	1.73
480.698	1.73
480.901	1.8
481.105	1.99
481.308	1.97
481.512	1.94
481.715	1.98
481.919	2.01
482.122	1.89
482.325	1.92
482.529	1.94
482.732	1.94
482.935	1.86
483.138	1.84
483.342	1.92
483.545	2
483.748	1.96
483.952	2.03
484.155	2.21
484.358	2.16
484.561	2.06
484.764	2.03
484.967	2.08
485.171	2.04
485.374	2.04
485.577	2.14
485.78	2.19
485.983	2.12
486.186	1.99
486.389	1.93
486.592	1.93
486.795	2
486.998	2.02
487.201	2.09
487.404	2.2
487.607	2.2
487.81	2.14
488.013	2.23
488.216	2.23
488.419	2.16
488.622	2.12
488.825	2.09
489.028	2
489.231	1.97
489.433	1.93
489.636	1.89
489.839	1.89
490.042	1.82
490.245	1.81
490.447	1.86
490.65	1.89
490.853	1.9
491.056	1.99
491.258	2.03
491.461	2.09
491.664	2.1
491.866	2.03
492.069	2.15
492.272	2.12
492.474	2.1
492.677	2.11
492.879	2.16
493.082	2.15
493.285	2.26
493.487	2.26
493.69	2.23
493.892	2.16
494.095	2.08
494.297	2.01
494.5	2.03
494.702	2.08
494.905	2.16
495.107	2.13
495.309	2.15
495.512	2.19
495.714	2.21
495.917	2.23
496.119	2.3
496.321	2.37
496.524	2.37
496.726	2.36
496.928	2.41
497.13	2.38
497.333	2.31
497.535	2.3
497.737	2.3
497.939	2.3
498.142	2.29
498.344	2.23
498.546	2.15
498.748	2.2
498.95	2.26
499.152	2.24
499.355	2.31
499.557	2.43
499.759	2.52
499.961	2.43
500.163	2.51
500.365	2.53
500.567	2.56
500.769	2.39
500.971	2.43
501.173	2.35
501.375	2.37
501.577	2.24
501.779	2.26
501.981	2.28
502.183	2.27
502.385	2.22
502.587	2.21
502.788	2.29
502.99	2.33
503.192	2.41
503.394	2.39
503.596	2.43
503.798	2.42
503.999	2.43
504.201	2.39
504.403	2.44
504.605	2.48
504.806	2.41
505.008	2.37
505.21	2.49
505.411	2.5
505.613	2.47
505.815	2.52
506.016	2.58
506.218	2.61
506.42	2.59
506.621	2.64
506.823	2.65
507.024	2.57
507.226	2.5
507.427	2.55
507.629	2.55
507.83	2.61
508.032	2.61
508.233	2.67
508.435	2.64
508.636	2.74
508.838	2.69
509.039	2.76
509.24	2.76
509.442	2.82
509.643	2.71
509.845	2.75
510.046	2.76
510.247	2.79
510.448	2.81
510.65	2.86
510.851	2.94
511.052	2.95
511.254	2.87
511.455	2.94
511.656	2.99
511.857	3.04
512.058	3.04
512.26	3.09
512.461	2.98
512.662	2.99
512.863	2.86
513.064	2.85
513.265	2.89
513.466	2.98
513.667	3
513.868	3.03
514.069	3.07
514.27	3.1
514.471	3.06
514.672	3.01
514.873	2.99
515.074	3.02
515.275	2.91
515.476	2.95
515.677	2.99
515.878	3.14
516.079	3.13
516.28	3.17
516.481	3.26
516.682	3.3
516.882	3.16
517.083	3.14
517.284	3.15
517.485	3.06
517.686	3.03
517.886	3.06
518.087	3.08
518.288	3.12
518.488	3.13
518.689	3.11
518.89	3.07
519.091	3.1
519.291	3.12
519.492	3.15
519.692	3.19
519.893	3.29
520.094	3.29
520.294	3.24
520.495	3.2
520.695	3.24
520.896	3.21
521.096	3.26
521.297	3.31
521.497	3.32
521.698	3.24
521.898	3.27
522.099	3.25
522.299	3.3
522.499	3.33
522.7	3.38
522.9	3.38
523.101	3.42
523.301	3.42
523.501	3.41
523.702	3.46
523.902	3.53
524.102	3.59
524.302	3.57
524.503	3.66
524.703	3.64
524.903	3.64
525.103	3.54
525.304	3.64
525.504	3.67
525.704	3.73
525.904	3.67
526.104	3.68
526.304	3.63
526.504	3.58
526.705	3.52
526.905	3.6
527.105	3.62
527.305	3.59
527.505	3.53
527.705	3.54
527.905	3.58
528.105	3.61
528.305	3.6
528.505	3.72
528.705	3.78
528.905	3.69
529.105	3.73
529.304	3.8
529.504	3.84
529.704	3.79
529.904	3.83
530.104	3.86
530.304	3.9
530.503	3.87
530.703	3.84
530.903	3.8
531.103	3.77
531.303	3.72
531.502	3.74
531.702	3.85
531.902	3.91
532.101	3.9
532.301	3.91
532.501	3.88
532.7	3.82
532.9	3.85
533.1	3.89
533.299	3.94
533.499	4.02
533.698	4.04
533.898	4.03
534.097	4.02
534.297	4.1
534.496	4.07
534.696	4.12
534.895	4.21
535.095	4.29
535.294	4.21
535.494	4.19
535.693	4.19
535.892	4.18
536.092	4.09
536.291	4.13
536.491	4.2
536.69	4.26
536.889	4.17
537.088	4.17
537.288	4.22
537.487	4.24
537.686	4.25
537.886	4.36
538.085	4.44
538.284	4.5
538.483	4.47
538.682	4.51
538.882	4.51
539.081	4.54
539.28	4.47
539.479	4.43
539.678	4.38
539.877	4.48
540.076	4.53
540.275	4.57
540.474	4.72
540.673	4.77
540.872	4.67
541.071	4.68
541.27	4.7
541.469	4.67
541.668	4.75
541.867	4.82
542.066	4.87
542.265	4.91
542.464	4.92
542.663	4.87
542.862	4.94
543.06	4.93
543.259	4.95
543.458	4.99
543.657	5.07
543.856	5.11
544.054	5.12
544.253	5.14
544.452	5.17
544.651	5.26
544.849	5.23
545.048	5.36
545.247	5.38
545.445	5.42
545.644	5.46
545.843	5.48
546.041	5.44
546.24	5.57
546.438	5.64
546.637	5.63
546.836	5.74
547.034	5.81
547.233	5.81
547.431	5.8
547.63	5.84
547.828	5.79
548.027	5.82
548.225	5.85
548.423	5.85
548.622	5.94
548.82	5.94
549.019	6.03
549.217	6.13
549.415	6.26
549.614	6.26
549.812	6.39
550.01	6.36
550.209	6.37
550.407	6.4
550.605	6.41
550.803	6.48
551.002	6.56
551.2	6.61
551.398	6.7
551.596	6.88
551.794	6.96
551.993	7.01
552.191	7.06
552.389	7.12
552.587	7.15
552.785	7.15
552.983	7.28
553.181	7.36
553.379	7.44
553.577	7.42
553.775	7.55
553.973	7.55
554.171	7.64
554.369	7.53
554.567	7.63
554.765	7.65
554.963	7.75
555.161	7.69
555.359	7.88
555.557	7.98
555.755	8.01
555.952	8.14
556.15	8.29
556.348	8.34
556.546	8.41
556.744	8.48
556.941	8.45
557.139	8.58
557.337	8.67
557.535	8.7
557.732	8.82
557.93	8.98
558.128	9.03
558.325	9.08
558.523	9.13
558.721	9.23
558.918	9.23
559.116	9.32
559.313	9.38
559.511	9.52
559.708	9.6
559.906	9.69
560.104	9.74
560.301	9.83
560.498	9.88
560.696	9.86
560.893	9.94
561.091	10.03
561.288	10.15
561.486	10.23
561.683	10.34
561.88	10.38
562.078	10.4
562.275	10.34
562.473	10.47
562.67	10.57
562.867	10.74
563.064	10.86
563.262	10.94
563.459	10.94
563.656	11.04
563.853	11.06
564.051	11.15
564.248	11.4
564.445	11.53
564.642	11.6
564.839	11.74
565.036	11.87
565.234	11.96
565.431	12.02
565.628	12.07
565.825	12.17
566.022	12.26
566.219	12.28
566.416	12.45
566.613	12.52
566.81	12.57
567.007	12.51
567.204	12.5
567.401	12.41
567.598	12.47
567.795	12.42
567.991	12.5
568.188	12.58
568.385	12.73
568.582	12.83
568.779	12.96
568.976	13.03
569.172	13.09
569.369	13.1
569.566	13.15
569.763	13.15
569.96	13.18
570.156	13.23
570.353	13.25
570.55	13.31
570.746	13.4
570.943	13.48
571.14	13.51
571.336	13.61
571.533	13.58
571.729	13.53
571.926	13.56
572.123	13.66
572.319	13.7
572.516	13.73
572.712	13.83
572.909	13.84
573.105	13.83
573.302	13.86
573.498	13.94
573.695	13.91
573.891	13.9
574.087	13.93
574.284	13.87
574.48	13.83
574.677	13.85
574.873	13.91
575.069	13.96
575.266	14.04
575.462	14.05
575.658	14.13
575.854	14.16
576.051	14.13
576.247	14.09
576.443	14.08
576.639	14
576.835	13.92
577.032	13.91
577.228	14.05
577.424	14.09
577.62	14.08
577.816	14.16
578.012	14.16
578.208	14.04
578.404	14.07
578.6	14.09
578.796	14.07
578.993	14.06
579.189	14.08
579.384	13.97
579.58	13.88
579.776	13.81
579.972	13.79
580.168	13.69
580.364	13.75
580.56	13.73
580.756	13.72
580.952	13.72
581.148	13.72
581.343	13.71
581.539	13.8
581.735	13.84
581.931	13.87
582.127	13.92
582.322	13.82
582.518	13.81
582.714	13.72
582.909	13.64
583.105	13.57
583.301	13.58
583.496	13.58
583.692	13.6
583.888	13.55
584.083	13.57
584.279	13.62
584.474	13.6
584.67	13.59
584.866	13.61
585.061	13.43
585.257	13.41
585.452	13.34
585.648	13.3
585.843	13.32
586.039	13.47
586.234	13.43
586.429	13.39
586.625	13.44
586.82	13.36
587.015	13.3
587.211	13.19
587.406	13.24
587.601	13.15
587.797	13.14
587.992	13.04
588.187	13.15
588.383	13.09
588.578	13.09
588.773	13.15
588.968	13.29
589.163	13.34
589.359	13.29
589.554	13.26
589.749	13.25
589.944	13.25
590.139	13.19
590.334	13.33
590.529	13.38
590.724	13.4
590.919	13.43
591.114	13.44
591.309	13.39
591.504	13.49
591.699	13.51
591.894	13.58
592.089	13.61
592.284	13.64
592.479	13.7
592.674	13.7
592.869	13.71
593.064	13.84
593.259	13.98
593.454	13.96
593.648	14.04
593.843	14
594.038	14
594.233	13.91
594.428	13.91
594.622	14.04
594.817	14.22
595.012	14.26
595.206	14.33
595.401	14.38
595.596	14.29
595.79	14.31
595.985	14.37
596.18	14.43
596.374	14.54
596.569	14.67
596.763	14.71
596.958	14.69
597.153	14.78
597.347	14.78
597.542	14.96
597.736	14.99
597.931	15.02
598.125	15.04
598.319	15.22
598.514	15.08
598.708	15.12
598.903	15.21
599.097	15.29
599.291	15.27
599.486	15.24
599.68	15.2
599.874	15.27
600.069	15.31
600.263	15.32
600.457	15.49
600.651	15.58
600.846	15.66
601.04	15.67
601.234	15.61
601.428	15.67
601.622	15.72
601.817	15.69
602.011	15.79
602.205	15.94
602.399	15.9
602.593	15.89
602.787	15.94
602.981	15.88
603.175	15.9
603.369	15.87
603.563	15.95
603.757	15.91
603.951	15.92
604.145	15.89
604.339	15.93
604.533	15.75
604.727	15.77
604.921	15.76
605.115	15.69
605.309	15.76
605.502	15.83
605.696	15.71
605.89	15.64
606.084	15.56
606.278	15.41
606.471	15.38
606.665	15.29
606.859	15.18
607.053	15.19
607.246	15.2
607.44	15.15
607.634	15.2
607.827	15.25
608.021	15.16
608.214	15.05
608.408	15.02
608.602	14.92
608.795	14.83
608.989	14.81
609.182	14.8
609.376	14.79
609.569	14.76
609.763	14.62
609.956	14.53
610.15	14.39
610.343	14.26
610.537	14.15
610.73	14.15
610.923	14.1
611.117	14.03
611.31	13.96
611.504	13.89
611.697	13.77
611.89	13.69
612.083	13.64
612.277	13.66
612.47	13.65
612.663	13.64
612.856	13.6
613.05	13.52
613.243	13.42
613.436	13.32
613.629	13.27
613.822	13.18
614.015	13.17
614.209	12.95
614.402	12.91
614.595	12.9
614.788	12.8
614.981	12.6
615.174	12.56
615.367	12.49
615.56	12.39
615.753	12.39
615.946	12.38
616.139	12.47
616.332	12.57
616.525	12.5
616.718	12.52
616.911	12.53
617.103	12.41
617.296	12.32
617.489	12.27
617.682	12.15
617.875	12.07
618.067	12
618.26	11.85
618.453	11.89
618.646	11.86
618.838	11.9
619.031	12.02
619.224	12.04
619.417	12
619.609	12.03
619.802	11.94
619.994	11.79
620.187	11.82
620.38	11.71
620.572	11.57
620.765	11.63
620.957	11.57
621.15	11.41
621.342	11.44
621.535	11.51
621.727	11.4
621.92	11.33
622.112	11.33
622.305	11.28
622.497	11.22
622.69	11.22
622.882	11.24
623.074	11.3
623.267	11.27
623.459	11.15
623.651	11.07
623.844	11.08
624.036	11.08
624.228	11
624.42	10.99
624.613	11.11
624.805	11.11
624.997	11.01
625.189	11.07
625.381	11.16
625.574	11.03
625.766	10.96
625.958	10.94
626.15	10.96
626.342	10.9
626.534	10.91
626.726	10.9
626.918	10.87
627.11	10.76
627.302	10.76
627.494	10.73
627.686	10.72
627.878	10.66
628.07	10.66
628.262	10.63
628.454	10.66
628.646	10.65
628.838	10.72
629.029	10.62
629.221	10.67
629.413	10.56
629.605	10.48
629.797	10.41
629.989	10.47
630.18	10.36
630.372	10.36
630.564	10.39
630.755	10.49
630.947	10.49
631.139	10.38
631.33	10.29
631.522	10.39
631.714	10.25
631.905	10.26
632.097	10.24
632.289	10.27
632.48	10.17
632.672	10.12
632.863	9.93
633.055	9.99
633.246	9.99
633.438	9.86
633.629	9.8
633.821	9.89
634.012	9.81
634.203	9.66
634.395	9.64
634.586	9.73
634.777	9.62
634.969	9.64
635.16	9.66
635.351	9.6
635.543	9.56
635.734	9.59
635.925	9.58
636.117	9.63
636.308	9.62
636.499	9.53
636.69	9.46
636.881	9.43
637.073	9.41
637.264	9.45
637.455	9.51
637.646	9.62
637.837	9.68
638.028	9.57
638.219	9.63
638.41	9.51
638.601	9.43
638.792	9.36
638.983	9.37
639.174	9.24
639.365	9.28
639.556	9.22
639.747	9.18
639.938	9.19
640.129	9.16
640.32	9.08
640.511	9.13
640.701	9.26
640.892	9.24
641.083	9.29
641.274	9.36
641.465	9.37
641.655	9.22
641.846	9.22
642.037	9.12
642.228	9
642.418	8.96
642.609	8.98
642.8	8.99
642.99	8.97
643.181	9.09
643.372	9.11
643.562	9.09
643.753	8.97
643.943	8.97
644.134	8.83
644.324	8.69
644.515	8.66
644.705	8.78
644.896	8.8
645.086	8.83
645.277	8.81
645.467	8.77
645.658	8.61
645.848	8.66
646.038	8.7
646.229	8.79
646.419	8.72
646.61	8.75
646.8	8.66
646.99	8.58
647.18	8.54
647.371	8.58
647.561	8.52
647.751	8.52
647.941	8.49
648.132	8.42
648.322	8.41
648.512	8.53
648.702	8.56
648.892	8.56
649.082	8.66
649.272	8.55
649.462	8.42
649.653	8.29
649.843	8.19
650.033	8.15
650.223	8.19
650.413	8.13
650.603	8.26
650.793	8.32
650.983	8.19
651.172	8.06
651.362	8.12
651.552	7.98
651.742	7.87
651.932	7.88
652.122	7.97
652.312	7.97
652.502	7.94
652.691	8
652.881	7.98
653.071	7.91
653.261	7.8
653.45	7.68
653.64	7.59
653.83	7.47
654.019	7.42
654.209	7.46
654.399	7.48
654.588	7.37
654.778	7.31
654.968	7.23
655.157	7.09
655.347	7.08
655.536	7.03
655.726	7.02
655.915	6.92
656.105	6.81
656.294	6.69
656.484	6.58
656.673	6.5
656.863	6.48
657.052	6.35
657.241	6.21
657.431	6.05
657.62	5.9
657.809	5.63
657.999	5.6
658.188	5.5
658.377	5.42
658.567	5.35
658.756	5.31
658.945	5.22
659.134	5.08
659.324	5.04
659.513	4.98
659.702	4.9
659.891	4.77
660.08	4.73
660.269	4.67
660.458	4.53
660.648	4.5
660.837	4.43
661.026	4.37
661.215	4.28
661.404	4.13
661.593	4.03
661.782	3.88
661.971	3.85
662.16	3.74
662.349	3.73
662.538	3.59
662.726	3.61
662.915	3.44
663.104	3.33
663.293	3.24
663.482	3.35
663.671	3.32
663.86	3.25
664.048	3.23
664.237	3.29
664.426	3.1
664.615	3.05
664.803	3.07
664.992	3.01
665.181	2.87
665.369	2.8
665.558	2.7
665.747	2.62
665.935	2.65
666.124	2.71
666.312	2.79
666.501	2.84
666.69	2.8
666.878	2.78
667.067	2.62
667.255	2.71
667.444	2.96
667.632	3.05
667.82	3.13
668.009	3.21
668.197	3.12
668.386	2.92
668.574	2.98
668.762	2.9
668.951	2.89
669.139	2.82
669.327	2.64
669.516	2.65
669.704	2.61
669.892	2.67
670.08	2.73
670.269	2.74
670.457	2.57
670.645	2.38
670.833	2.41
671.021	2.45
671.21	2.51
671.398	2.78
671.586	2.9
671.774	2.81
671.962	2.82
672.15	2.86
672.338	2.66
672.526	2.72
672.714	2.64
672.902	2.63
673.09	2.81
673.278	3.01
673.466	3.07
673.654	3.28
673.842	3.23
674.03	3.13
674.218	2.96
674.405	2.89
674.593	2.76
674.781	2.93
674.969	2.96
675.157	3.25
675.344	3.39
675.532	3.52
675.72	3.58
675.908	3.57
676.095	3.26
676.283	3.23
676.471	3.33
676.658	3.3
676.846	3.32
677.033	3.55
677.221	3.53
677.409	3.35
677.596	3.33
677.784	3.32
677.971	3.37
678.159	3.41
678.346	3.57
678.534	3.66
678.721	3.89
678.909	3.88
679.096	4.06
679.283	4.15
679.471	4.18
679.658	4.2
679.846	4.43
680.033	4.5
680.22	4.45
680.408	4.41
680.595	4.44
680.782	4.12
680.969	4.15
681.157	4.37
681.344	4.46
681.531	4.42
681.718	4.56
681.905	4.64
682.093	4.69
682.28	4.8
682.467	4.98
682.654	5.08
682.841	5.13
683.028	5.24
683.215	5.29
683.402	5.13
683.589	5.35
683.776	5.48
683.963	5.44
684.15	5.63
684.337	5.89
684.524	6.02
684.711	6.14
684.898	6.18
685.085	6.28
685.271	6.56
685.458	6.7
685.645	6.78
685.832	7.12
686.019	7.39
686.205	7.31
686.392	7.46
686.579	7.69
686.766	7.97
686.952	7.96
687.139	8.44
687.326	8.51
687.512	8.78
687.699	8.88
687.886	9.23
688.072	9.33
688.259	9.85
688.445	10.26
688.632	10.41
688.818	10.9
689.005	11.22
689.191	11.48
689.378	11.99
689.564	12.61
689.751	12.9
689.937	13.4
690.124	13.85
690.31	13.93
690.496	14.34
690.683	14.88
690.869	15.3
691.055	15.72
691.242	16.5
691.428	16.95
691.614	17.41
691.8	18.1
691.987	18.71
692.173	19.11
692.359	19.86
692.545	20.49
692.731	20.82
692.918	21.34
693.104	21.83
693.29	22.4
693.476	23.14
693.662	23.96
693.848	24.67
694.034	25.43
694.22	25.83
694.406	26.35
694.592	27.13
694.778	27.95
694.964	28.51
695.15	29.32
695.336	29.94
695.522	30.67
695.708	31.11
695.894	31.91
696.08	32.62
696.265	33.33
696.451	33.91
696.637	34.93
696.823	35.67
697.009	36.36
697.194	37.07
697.38	37.76
697.566	38.26
697.751	38.96
697.937	39.91
698.123	40.67
698.308	41.47
698.494	42.33
698.68	43
698.865	43.46
699.051	44.12
699.236	44.64
699.422	45.19
699.607	45.52
699.793	46.17
699.978	46.6
700.164	47.03
700.349	47.75
700.535	48.73
700.72	49.27
700.906	50.07
701.091	50.87
701.276	51.25
701.462	52.08
701.647	53.1
701.832	53.68
702.018	54.25
702.203	54.76
702.388	55.06
702.573	55.42
702.759	56.12
702.944	56.67
703.129	57.29
703.314	57.81
703.499	58.16
703.684	58.53
703.87	59.56
704.055	60.15
704.24	60.7
704.425	61.44
704.61	61.89
704.795	61.77
704.98	62.27
705.165	62.31
705.35	62.43
705.535	62.98
705.72	63.38
705.905	63.91
706.09	64.79
706.275	65.31
706.459	65.29
706.644	65.86
706.829	66.36
707.014	66.52
707.199	67.2
707.384	68.1
707.568	68.17
707.753	68.52
707.938	68.94
708.123	68.66
708.307	68.8
708.492	69.38
708.677	69.54
708.861	69.75
709.046	70.3
709.231	70.99
709.415	71.69
709.6	71.58
709.784	72.13
709.969	72.49
710.153	72.35
710.338	72.28
710.522	72.88
710.707	73.34
710.891	73.45
711.076	73.77
711.26	73.4
711.445	73.76
711.629	73.81
711.813	73.9
711.998	74.22
712.182	74.82
712.366	75.35
712.551	75.9
712.735	76.56
712.919	76.59
713.103	77.04
713.288	76.71
713.472	76.3
713.656	76.91
713.84	77.2
714.024	77.38
714.208	77.62
714.393	78.41
714.577	78.05
714.761	78.04
714.945	78.14
715.129	78.04
715.313	77.98
715.497	78.27
715.681	79.02
715.865	78.93
716.049	79.56
716.233	79.45
716.417	79.53
716.601	79.21
716.785	79.57
716.968	79.69
717.152	79.81
717.336	79.65
717.52	79.66
717.704	80.12
717.888	80.77
718.071	81.14
718.255	81.88
718.439	81.86
718.622	82.01
718.806	81.65
718.99	81.31
719.174	81.17
719.357	81.53
719.541	81.17
719.724	81.11
719.908	81.98
720.092	82.57
720.275	82.8
720.459	82.96
720.642	82.83
720.826	82.11
721.009	81.34
721.193	80.85
721.376	80.69
721.559	80.98
721.743	81.4
721.926	82.06
722.11	82.68
722.293	82.22
722.476	82.07
722.66	82.45
722.843	82.35
723.026	81.69
723.21	82.83
723.393	83.85
723.576	83.63
723.759	82.74
723.942	83.28
724.126	83.08
724.309	82.41
724.492	82.63
724.675	83.25
724.858	83.69
725.041	83.8
725.224	84.33
725.407	84.55
725.59	85.12
725.774	84.77
725.957	84.18
726.14	84
726.322	83.91
726.505	83.7
726.688	84.32
726.871	85.07
727.054	85.4
727.237	85.15
727.42	85.79
727.603	85.77
727.786	86.1
727.968	86.46
728.151	86.62
728.334	85.92
728.517	86.43
728.699	86.83
728.882	85.93
729.065	86.61
729.248	87.55
729.43	87.27
729.613	87.72
729.796	88.47
729.978	87.49
730.161	86.9
730.343	86.7
730.526	87
730.708	86.7
730.891	87.56
731.073	87.48
731.256	87.65
731.438	86.8
731.621	87.42
731.803	86.8
731.986	87.37
732.168	86.81
732.35	86.85
732.533	86.5
732.715	86.95
732.898	87.09
733.08	87.92
733.262	88.55
733.444	88.69
733.627	88.97
733.809	89.26
733.991	89.79
734.173	89.41
734.355	89.27
734.538	89.74
734.72	89.07
734.902	88.9
735.084	88.81
735.266	89.03
735.448	89.23
735.63	89.71
735.812	88.83
735.994	89.39
736.176	89.11
736.358	88.71
736.54	89.93
736.722	90.76
736.904	90.5
737.086	90.8
737.268	92.01
737.45	91.03
737.632	91.11
737.814	90.56
737.995	90.92
738.177	89.59
738.359	88.78
738.541	88.87
738.723	89.59
738.904	89.96
739.086	90.13
739.268	90.53
739.449	90.56
739.631	90.58
739.813	90.85
739.994	91.43
740.176	92.16
740.358	92.29
740.539	92.74
740.721	92.46
740.902	92.57
741.084	91.72
741.265	90.97
741.447	90.73
741.628	91.21
741.81	90.47
741.991	91.76
742.172	93.92
742.354	94.37
742.535	93.61
742.717	94.56
742.898	94.27
743.079	93.36
743.261	92.68
743.442	92.38
743.623	93.15
743.804	93.33
743.986	93.95
744.167	93.44
744.348	93.86
744.529	92.92
744.71	91.38
744.891	90.12
745.073	90.16
745.254	89.58
745.435	89.18
745.616	89.48
745.797	89.42
745.978	89.33
746.159	89.22
746.34	88.95
746.521	91.4
746.702	90.15
746.883	89.61
747.064	89.91
747.245	89.66
747.426	88.13
747.606	89.42
747.787	90.51
747.968	91.09
748.149	91.34
748.33	92.38
748.51	92.93
748.691	92.62
748.872	92.54
749.053	92.98
749.233	90.87
749.414	89.91
749.595	88.82
749.775	87.23
749.956	85.99
750.137	86.49
750.317	87.69
750.498	89.93
750.678	90.93
750.859	92.12
751.04	92.69
751.22	91.05
751.4	89.61
751.581	88.66
751.761	88.41
751.942	88.33
752.122	88.92
752.303	88.36
752.483	89.44
752.663	89.75
752.844	88.06
753.024	88.72
753.204	89.77
753.385	88.71
753.565	87.6
753.745	89.39
753.925	89.28
754.106	88.92
754.286	89.26
754.466	89.61
754.646	89.69
754.826	88.24
755.006	86.68
755.187	87.78
755.367	88.54
755.547	87.48
755.727	89.35
755.907	90.19
756.087	90.12
756.267	88.56
756.447	88.98
756.627	86.48
756.807	87.69
756.987	87.81
757.167	88.74
757.346	89.9
757.526	89.59
757.706	89.83
757.886	89.48
758.066	89.83
758.246	89.26
758.425	90.68
758.605	89.89
758.785	90.63
758.965	90.37
759.144	89.02
759.324	89.26
759.504	89.28
759.683	88.97
759.863	87.3
760.043	86.95
760.222	86.25
760.402	85.56
760.581	84.78
760.761	87.3
760.94	86.69
761.12	89.7
761.299	89.73
761.479	90.15
761.658	87.72
761.838	88.91
762.017	86.58
762.197	87.58
762.376	87.27
762.555	88.27
762.735	89.2
762.914	87.62
763.093	86.89
763.273	85.32
763.452	86.3
763.631	85.03
763.81	85.23
763.99	84.11
764.169	85.24
764.348	83.19
764.527	82.26
764.706	85.43
764.885	88.74
765.064	87.48
765.243	88.82
765.423	90.28
765.602	88.04
765.781	85.82
765.96	84.77
766.139	82.7
766.318	83.24
766.497	81.77
766.676	82.07
766.854	85.2
767.033	87.35
767.212	87.28
767.391	87.49
767.57	88.58
767.749	88.6
767.928	88.89
768.106	88.27
768.285	88.18
768.464	86.96
768.643	85.37
768.821	84.94
769	85.41
769.179	85.41
769.357	84.13
769.536	83.36
769.715	83.41
769.893	84.15
770.072	83.99
770.25	85.87
770.429	88.26
770.607	86.47
770.786	85.51
770.964	88.18
771.143	86.07
771.321	86.15
771.5	87.8
771.678	86.35
771.857	83.17
772.035	83.19
772.213	80.59
772.392	79.08
772.57	80.34
772.748	81.78
772.927	81.59
773.105	82.84
773.283	82.13
773.461	83.15
773.64	84
773.818	85.38
773.996	85.45
774.174	84.7
774.352	81
774.531	75.81
774.709	78.31
774.887	77.87
775.065	79.95
775.243	80.52
775.421	83.93
775.599	82.42
775.777	80.54
775.955	77.76
776.133	78.28
776.311	78.93
776.489	75.13
776.667	76.66
776.844	79.84
777.022	78.8
777.2	78.15
777.378	80.5
777.556	81.6
777.734	82.84
777.911	84.88
778.089	84.56
778.267	83.41
778.445	80.52
778.622	77.96
778.8	77.66
778.978	78.43
779.155	77.95
779.333	79.19
779.511	79.35
779.688	82.01
779.866	78.68
780.043	77.77
780.221	76.2
780.398	72.82
780.576	72
780.753	75.96
780.931	75.96
781.108	76.46
781.286	80.4
781.463	76.56
781.64	72.14
781.818	76.86
781.995	77.98
782.172	77.37
782.35	80.71
782.527	87.71
782.704	84.24
782.882	85.18
783.059	84.49
783.236	84.26
783.413	82.85
783.59	85.59
783.768	81.4
783.945	83.58
784.122	82.56
784.299	80.61
784.476	76.85
784.653	77.29
784.83	72.37
785.007	67.29
785.184	69.27
785.361	68.52
785.538	73.48
785.715	78.07
785.892	81.45
786.069	80.23
786.246	80.76
786.423	77.06
786.6	78.31
786.776	81.77
786.953	79.89
787.13	83.62
787.307	82.94
787.484	77.8
787.66	75.47
787.837	74.68
788.014	70.63
788.191	70.92
788.367	71.62
788.544	71.52
788.721	70.87
788.897	70.66
789.074	71.95
789.25	71.98
789.427	70.03
789.603	69.3
789.78	72.2
789.956	71.21
790.133	72.5
790.309	73.47
790.486	78.09
790.662	78.44
790.839	77.47
791.015	76.56
791.192	74.99
791.368	77.2
791.544	71.77
791.721	69.55
791.897	68.54
792.073	67.8
792.249	59.31
792.426	63.48
792.602	66.55
792.778	68.88
792.954	70.1
793.13	70.52
793.307	65.6
793.483	61.3
793.659	59.99
793.835	63.48
794.011	64.73
794.187	68.66
794.363	69.49
794.539	73
794.715	65.8
794.891	64.12
795.067	62.73
795.243	67.08
795.419	63.51
795.595	64.24
795.771	67.86
795.947	72.61
796.122	70.61
796.298	74.51
796.474	75.46
796.65	75.12
796.826	71.89
797.001	72.97
797.177	64.87
797.353	72.74
797.529	72.44
797.704	69.86
797.88	63.41
798.056	60.57
798.231	52.79
798.407	54.71
798.582	54.34
798.758	67.17
798.934	80.82
799.109	79.93
799.285	76.56
799.46	83.02
799.636	74
799.811	66.51
799.986	66.17
800.162	69.84
800.337	67.6
800.513	65.31
800.688	63.39
800.863	78.23
801.039	73.09
801.214	68.68
801.389	82.4
801.565	83.86
801.74	64.83
801.915	70.57
802.09	72.86
802.265	65.38
802.441	62.66
802.616	65.38
802.791	64.45
802.966	64.95
803.141	61.34
803.316	62.42
803.491	66.42
803.666	69.94
803.841	60.36
804.016	61.89
804.191	66.19
804.366	58.56
804.541	50.45
804.716	51.45
804.891	46.54
805.066	49.66
805.241	52.8
805.416	54.92
805.591	58.69
805.765	66.91
805.94	62.87
806.115	65.11
806.29	59.58
806.464	56.32
806.639	48.78
806.814	44.54
806.989	36.17
807.163	46.02
807.338	51.66
807.512	48.78
807.687	43.26
807.862	54.35
808.036	54.51
808.211	57.66
808.385	70.78
808.56	80.48
808.734	92.55
808.909	91.14
809.083	81.81
809.258	83.79
809.432	87.74
809.606	64.3
809.781	59.96
809.955	70.99
810.13	65.12
810.304	53.81
810.478	47.88
810.652	55.04
810.827	46.31
811.001	45.26
811.175	45.06
811.349	51.39
811.524	46.07
811.698	38.67
811.872	37.22
812.046	45.83
812.22	50.13
812.394	49.62
812.568	56.25
812.742	64.84
812.916	62.86
813.09	61.68
813.264	62.45
813.438	64.35
813.612	54.66
813.786	47.24
813.96	49.89
814.134	47.64
814.308	57.02
814.482	58.65
814.656	57.59
814.83	64.33
815.003	65.69
815.177	55.39
815.351	51.2
815.525	54.58
815.698	42.42
815.872	38.73
816.046	27.05
816.219	27.07
816.393	41.09
816.567	47.91
816.74	47.9
816.914	59.32
817.088	66.89
817.261	46.8
817.435	42.75
817.608	49.49
817.782	49.69
817.955	39
818.129	45.04
818.302	51.12
818.475	51.78
818.649	40.07
818.822	38.86
818.996	47.14
819.169	40.38
819.342	36.67
819.516	54.47
819.689	61.98
819.862	55.93
820.035	56.12
820.209	49.72
820.382	51.79
820.555	47.96
820.728	40.86
820.901	40.94
821.075	45.47
821.248	33.85
821.421	33.15
821.594	42.71
821.767	57.77
821.94	68.34
822.113	59.49
822.286	51.27
822.459	52.44
822.632	34.78
822.805	22.32
822.978	33.8
823.151	41.45
823.324	30.51
823.496	18.11
823.669	24.4
823.842	14.3
824.015	-1.71
824.188	-13.8
824.361	1.72
824.533	-0.01
824.706	13.17
824.879	25.24
825.051	30.43
825.224	21.13
825.397	12.66
825.569	7.71
825.742	23.91
825.915	43.52
826.087	65.94
826.26	52.94
826.432	53.28
826.605	44.88
826.777	32.91
826.95	26.76
827.122	18.05
827.295	12.9
827.467	17.95
827.64	-4.12
827.812	-11.09
827.984	6.56
828.157	8.64
828.329	-19.26
828.501	-0.23
828.674	24.18
828.846	-2.72
829.018	22.66
829.19	16.57
829.363	43.73
829.535	43.52
829.707	59.22
829.879	28.21
830.051	29.85
830.223	7.78
830.395	-12.34
830.568	-21.93
830.74	-18.84
830.912	21.62
831.084	9.12
831.256	8.55
831.428	-2.47
831.6	-5.76
831.772	-60.19
831.943	-78.66
832.115	-45.75
832.287	-15.88
832.459	2.48
832.631	25.82
832.803	58.72
832.975	73.04
833.146	69.93
833.318	53.24
833.49	47.02
833.662	20.94
833.833	-6.28
834.005	-11.65
834.177	-2.18
834.348	0.37
834.52	-5.59
834.692	-10.23
834.863	-11.61
835.035	-15.28
835.206	-85.27
835.378	-45.06
835.549	-33.21
835.721	-22.75
835.892	-17.6
836.064	2.96
836.235	-4.42
836.407	9.96
836.578	-6.95
836.749	2.94
836.921	-20.83
837.092	-85.51
837.264	-78.33
837.435	-99.87
837.606	-58.06
837.777	-13.59
837.949	24.92
838.12	33.09
838.291	57.1
838.462	43.43
838.633	10.76
838.805	-4.98
838.976	-8.79
839.147	-66.04
839.318	-63.51
839.489	-99.8
839.66	-76.34
839.831	-27.58
840.002	-26.02
840.173	-42.14
840.344	30.75
840.515	66.91
840.686	-91.27
840.857	-40.01
841.028	-2.62
841.199	-41.92
841.369	-68.15
841.54	-43.24
841.711	-19.85
841.882	-18.02
842.053	-11.38
842.223	-24.33
842.394	-12.12
842.565	-6.02
842.736	4.06
842.906	6.49
843.077	24.07
843.248	46.76
843.418	24.44
843.589	-16.85
843.759	25.68
843.93	-11.58
844.101	-17.42
844.271	1.03
844.442	18.58
844.612	27.54
844.783	3.91
844.953	-8.84
845.123	-12.36
845.294	-41.96
845.464	-275.9
845.635	-118.82
845.805	-54.02
845.975	-16.36
846.146	-43.78
846.316	-43.95
846.486	-3.97
846.656	18.09
846.827	10.04
846.997	9.87
847.167	34.72
847.337	-7.3
847.507	-56.03
847.677	-44.08
847.848	39.06
848.018	34.93
848.188	47.54
848.358	34.38
848.528	16.33
848.698	-41.19
848.868	-104.31
849.038	-191.65
849.208	-41.81
849.378	-6.58
849.548	3.67
849.718	6.75
849.887	14.56
850.057	-6.84
850.227	-45.01
850.397	-81.78
850.567	-196.32
850.737	-467.07
850.906	-1447.81
851.076	-813.48
851.246	-494.9
851.415	-68.69
851.585	-51.11
851.755	-83.82
851.924	-33.48
852.094	-38.02
852.264	-120.19
852.433	-917.55
852.603	-110.71
852.772	-56.4
852.942	-35.68
853.111	-56.87
853.281	-13.38
853.45	-28.43
853.62	-98.63
853.789	-114.66
853.959	-130.01
854.128	-137.22
854.297	-156.77
854.467	-195.23
854.636	-201.51
854.805	-83.07
854.975	-103.71
855.144	-159.52
855.313	-155.42
855.482	-593.61
855.652	-394.1
855.821	-264.32
855.99	-60.7
856.159	-27.05
856.328	1.98
856.497	20.26
856.667	25.16
856.836	40.81
857.005	25.8
857.174	5.82
857.343	-61.97
857.512	-78.13
857.681	-121.78
857.85	-172.31
858.019	-71.88
858.188	-55.76
858.356	-94.53
858.525	-154.63
858.694	-135.96
858.863	-319.47
859.032	-221.15
859.201	-229.21
859.369	-160.01
859.538	-104.1
859.707	-66.5
859.876	-48.49
860.044	-40.12
860.213	19.55
860.382	6.33
860.55	5.75
860.719	20.87
860.888	12.01
861.056	-36.64
861.225	-42.09
861.393	-26.11
861.562	-68.86
861.73	-129.54
861.899	-472.91
862.067	-2856.03
862.236	-172.1
862.404	-342.44
862.572	-173.45
862.741	-52.25
862.909	-66.55
863.078	-190.63
863.246	-102.14
863.414	-134.47
863.582	-51.88
863.751	-63.12
863.919	-42.05
864.087	-3.19
864.255	1.34
864.424	-384.96
864.592	-70.68
864.76	-138.92
864.928	-504.2
865.096	-198.81
865.264	-97.91
865.432	-1800.57
865.6	-91.62
865.768	-118.1
865.936	-129.86
866.104	-174.44
866.272	-181.02
866.44	-374.51
866.608	544.7
866.776	245.3
866.944	1981.98
867.112	-422.14
867.28	-191
867.448	-56.19
867.615	-13.74
867.783	-14
867.951	-32.4
868.119	-2.56
868.286	-40.84
868.454	-155.26
868.622	-133.23
868.789	-142.2
868.957	-2637.5
869.125	-2574.34
869.292	-210.14
869.46	-359.14
869.627	-75.9
869.795	-63.82
869.963	-24.08
870.13	7.11
870.298	49.62
870.465	-33.69
870.632	-69.29
870.8	-41.41
870.967	-103.9
871.135	-178.37
871.302	-101.76
871.469	-68.42
871.637	-111.12
871.804	-84.47
871.971	-135.82
872.139	-431.28
872.306	-67.64
872.473	-79.35
872.64	-239.59
872.807	-70.21
872.975	42.49
873.142	-176.82
873.309	1468.24
873.476	29.62
873.643	120.9
873.81	29.13
873.977	63.65
874.144	44.17
874.311	-113.71
874.478	-145.97
874.645	-195.72
874.812	-110.81
874.979	-40.18
875.146	-63.75
875.313	-83.41
875.48	2.23
875.647	-28.49
875.813	-80.04
875.98	-28.52
876.147	-60.56
876.314	-140.87
876.481	1381.2
876.647	-1803.65
876.814	795.98
876.981	-215.87
877.147	-108.48
877.314	-12.27
877.481	16.21
877.647	14.31
877.814	-45.66
877.98	-52.95
878.147	-5.06
878.314	37.6
878.48	-9.86
878.647	-6.57
878.813	31.45
878.979	11.44
879.146	-20.4
879.312	-13.63
879.479	-5.52
879.645	-143.03
879.811	-305.76
879.978	-746.76
880.144	-200.63
880.31	-132.02
880.477	-278.19
880.643	-207.13
880.809	-15.91
880.975	26.59
881.142	-302.95
881.308	-62.16
881.474	-31.98
881.64	-68.79
881.806	-238.11
881.972	-88.36
882.138	-43.66
882.304	-24.28
882.47	-167.97
882.636	-519.06
882.802	-179.7
882.968	-109.51
883.134	-91.63
883.3	-100.48
883.466	-24.31
883.632	5.6
883.798	-11.62
883.964	-31.79
884.129	-0.41
884.295	2.65
884.461	-62.89
884.627	-46.77
884.793	-38.59
884.958	-24.63
885.124	-116.44
885.29	-177.72
885.455	-244.78
885.621	-96.09
885.787	-166.65
885.952	-76.01
886.118	-37.58
886.283	-67.76
886.449	-159.7
886.614	-188.62
886.78	-453.56
886.945	2469.26
887.111	-889.74
887.276	-577.98
887.442	-894.77
887.607	-247.76
887.773	-152.95
887.938	-191.19
888.103	-297.29
888.269	-224.17
888.434	-384.46
888.599	-128.02
888.764	-26.42
888.93	-0.8
889.095	-23.56
889.26	-73.12
889.425	-52.67
889.59	-82.16
889.756	-87.37
889.921	-58.68
890.086	-0.87
890.251	-3.84
890.416	-122.25
890.581	-1742.34
890.746	206.87
890.911	447.29
891.076	194.03
891.241	-300.19
891.406	76.21
891.571	-24.23
891.736	-147.36
891.901	-249.78
892.065	577.2
892.23	173.62
892.395	260.13
892.56	417.12
892.725	-729.1
892.889	-1727.44
893.054	-260.33
893.219	-92.8
893.384	-50.1
893.548	-113.9
893.713	-145.04
893.878	-95.91
