Data from Ofra_PS_T2_2A_2HS17_Reflection_1.txt Node
Date: Wed Jul 21 17:07:02 EDT 2021
User: Adam
Spectrometer: FLMT01687
Trigger mode: 0
Integration Time (sec): 1.100000E0
Scans to average: 2
Electric dark correction enabled: true
Nonlinearity correction enabled: false
Boxcar width: 2
XAxis mode: Wavelengths
Number of Pixels in Spectrum: 3648
>>>>>Begin Spectral Data<<<<<
179.494	491.4
179.716	571.76
179.937	552.67
180.158	558.56
180.38	998.91
180.601	336.05
180.823	129.48
181.044	-4.62
181.265	72.24
181.486	22.32
181.708	116.22
181.929	298.47
182.15	-256.69
182.372	121.88
182.593	58.8
182.814	33.69
183.035	82.57
183.257	78.48
183.478	3.35
183.699	17.26
183.92	8.82
184.141	-25.91
184.363	-81.29
184.584	-25.61
184.805	-15.02
185.026	16.8
185.247	34.55
185.468	18.38
185.689	34.7
185.91	51.47
186.132	41.15
186.353	35.1
186.574	104.28
186.795	60.32
187.016	9.18
187.237	6.52
187.458	-30.02
187.679	-37.19
187.9	-16.23
188.121	7.58
188.342	17.53
188.563	58.29
188.784	47.96
189.005	6.42
189.226	59.51
189.447	26
189.667	-225.36
189.888	-277.46
190.109	-766.56
190.33	-616.94
190.551	-1029.42
190.772	-202.48
190.993	-172.37
191.214	-122.33
191.434	-78.54
191.655	1.2
191.876	-1.47
192.097	-44.97
192.318	-136.32
192.538	-225
192.759	-180.46
192.98	-105.15
193.201	-46.72
193.421	-20.34
193.642	6.02
193.863	13.37
194.083	-7.56
194.304	-32.59
194.525	-10.73
194.745	-11.94
194.966	-31.79
195.187	-33.66
195.407	-22.76
195.628	-99.59
195.848	-111.61
196.069	-108.98
196.29	-64.24
196.51	-85.68
196.731	-55.54
196.951	-80.66
197.172	-107.73
197.392	-120.49
197.613	-123.08
197.833	-174.11
198.054	-127.65
198.274	-64.11
198.495	-75.12
198.715	-31.32
198.936	-37.98
199.156	-29.29
199.377	-101.93
199.597	-96.63
199.817	-110.04
200.038	-42.99
200.258	-86.92
200.479	-40.11
200.699	-37.5
200.919	5.51
201.14	-17.23
201.36	-29.95
201.58	13.6
201.801	23.82
202.021	-13.62
202.241	-7.57
202.461	6.99
202.682	-50.33
202.902	-100.83
203.122	-40.4
203.342	-2.33
203.563	-0.42
203.783	25.33
204.003	27.6
204.223	29.82
204.443	24.15
204.663	-9.7
204.884	-14.63
205.104	-0.21
205.324	10.18
205.544	27.01
205.764	47.54
205.984	47.13
206.204	57.55
206.424	43.54
206.644	-3.95
206.864	10.1
207.084	-23.48
207.304	-25.42
207.525	-152.58
207.745	-79.78
207.964	-27.35
208.184	-50.13
208.404	-94.48
208.624	-78.94
208.844	-66.87
209.064	-360.66
209.284	-402.4
209.504	-211.49
209.724	-43.15
209.944	-19.14
210.164	33.34
210.384	44.03
210.604	44.48
210.823	-14.05
211.043	-29.08
211.263	-33.3
211.483	-42.35
211.703	-102.07
211.922	-82.15
212.142	-25.31
212.362	-24.65
212.582	-16.15
212.801	21.71
213.021	-4.86
213.241	-25.82
213.461	-41.27
213.68	-57.53
213.9	-72.95
214.12	-37.5
214.339	-95.11
214.559	-79.78
214.779	-16.18
214.998	-6.68
215.218	-50.72
215.438	-2.19
215.657	-2.15
215.877	-18.1
216.096	16.15
216.316	29.88
216.535	19.28
216.755	0.51
216.974	-59.54
217.194	-140.01
217.413	-142.94
217.633	-139.93
217.852	-230.18
218.072	-132.2
218.291	-72.95
218.511	-26.88
218.73	-54.13
218.95	-44.34
219.169	-33.47
219.389	-71.28
219.608	-46.83
219.827	-18.81
220.047	24.96
220.266	14.62
220.485	35.77
220.705	35.31
220.924	-0.15
221.143	23.03
221.363	6.39
221.582	8.55
221.801	25.12
222.021	44.34
222.24	-14.56
222.459	87.91
222.678	48.86
222.897	-65.86
223.117	-131.73
223.336	-111.43
223.555	-101.11
223.774	-45.16
223.993	-10.63
224.213	59.62
224.432	41.33
224.651	64.7
224.87	23.74
225.089	44.05
225.308	15.11
225.527	28.88
225.746	22.38
225.965	27.85
226.184	-14.66
226.404	22.05
226.623	-2.63
226.842	-8.58
227.061	15.84
227.28	31.72
227.499	24.84
227.718	37.37
227.936	28.51
228.155	32.67
228.374	20.16
228.593	14.6
228.812	22.07
229.031	25.75
229.25	-33.38
229.469	-30.96
229.688	-27.58
229.907	5.77
230.125	25.88
230.344	42.7
230.563	46.59
230.782	69.69
231.001	-6.47
231.22	-14.87
231.438	4.06
231.657	3.81
231.876	-25.3
232.095	33.17
232.313	42.99
232.532	39.88
232.751	27.66
232.969	22.72
233.188	-30.93
233.407	9.16
233.625	-4.02
233.844	-6.8
234.063	-10.66
234.281	12.18
234.5	-10.04
234.719	-0.71
234.937	-0.65
235.156	10.13
235.374	12.73
235.593	7.64
235.811	7.78
236.03	13.86
236.249	-32.53
236.467	-44.03
236.686	-14.08
236.904	-11.31
237.123	-31.07
237.341	-10.51
237.559	-2.91
237.778	-25.37
237.996	-37.44
238.215	6.92
238.433	4.43
238.652	6.11
238.87	1.22
239.088	19.26
239.307	4.33
239.525	10.69
239.743	-26.43
239.962	-9.76
240.18	-46.45
240.398	-92.77
240.617	-95.38
240.835	-73.47
241.053	-33.96
241.271	26.91
241.49	54.01
241.708	48.26
241.926	51.32
242.144	31.73
242.363	-35.49
242.581	-84.49
242.799	-59.45
243.017	-21.01
243.235	-58.77
243.453	-33.24
243.672	-9.98
243.89	0.34
244.108	-13.42
244.326	17.31
244.544	17.53
244.762	-3.96
244.98	2.19
245.198	-2.23
245.416	-29.4
245.634	-25.8
245.852	-22.98
246.07	-47.59
246.288	-21.66
246.506	-45.91
246.724	-23.19
246.942	-11.84
247.16	32.31
247.378	44.76
247.596	70.52
247.814	61.33
248.032	31.4
248.25	17.19
248.468	2.62
248.685	-2.66
248.903	29.54
249.121	43.2
249.339	21.55
249.557	1.64
249.775	8.3
249.992	-57.22
250.21	-59.48
250.428	-45.05
250.646	-53.78
250.863	-76.53
251.081	-52.14
251.299	-49.59
251.517	-43.79
251.734	-34.75
251.952	-29.82
252.17	-18.47
252.387	-7.74
252.605	-16.53
252.823	-1.13
253.04	22.65
253.258	42.12
253.475	43.2
253.693	67.3
253.911	49.27
254.128	39.41
254.346	33.26
254.563	18.77
254.781	-3.28
254.998	-20.25
255.216	-30.33
255.433	-25.08
255.651	5.94
255.868	31.05
256.086	47.79
256.303	29.28
256.521	26.06
256.738	7.96
256.956	-35.45
257.173	-47.2
257.39	-56.02
257.608	-88.9
257.825	-19.73
258.043	24.06
258.26	16.76
258.477	51.21
258.695	51.15
258.912	1.67
259.129	5.96
259.346	-19.41
259.564	-56.81
259.781	-88.2
259.998	-43.02
260.216	-27.72
260.433	17.43
260.65	27.79
260.867	45.33
261.084	14.29
261.302	5.43
261.519	-6.55
261.736	-43.71
261.953	-61.24
262.17	-13.38
262.387	-40.77
262.604	-49.59
262.822	-22.64
263.039	-3.03
263.256	-46.51
263.473	-26.49
263.69	-18.72
263.907	17.64
264.124	30.79
264.341	30.13
264.558	27.14
264.775	36.07
264.992	10.02
265.209	-5.03
265.426	23.34
265.643	20.18
265.86	28.87
266.077	43.9
266.294	55.13
266.51	30.3
266.727	19.64
266.944	21.98
267.161	2.12
267.378	9.09
267.595	8.47
267.812	-20.59
268.028	-25.52
268.245	-4.33
268.462	-15.57
268.679	-9.57
268.896	24.76
269.112	12.12
269.329	10.4
269.546	10.26
269.763	-8.22
269.979	-14.84
270.196	-18.03
270.413	-67.32
270.629	-93.26
270.846	-74.59
271.063	-58.8
271.279	-67.56
271.496	-35.01
271.712	17.41
271.929	23.36
272.146	5.12
272.362	16.7
272.579	34.75
272.795	27.39
273.012	30.81
273.228	30.62
273.445	9.24
273.661	-16.51
273.878	-71.27
274.094	-47.99
274.311	-60.95
274.527	-1.69
274.744	1.38
274.96	4.23
275.177	4.33
275.393	34.97
275.609	25.95
275.826	38.47
276.042	43.05
276.259	20.26
276.475	12.03
276.691	9.92
276.908	-2.15
277.124	13.29
277.34	21.68
277.557	-1.29
277.773	-8.5
277.989	-12.95
278.205	-24.81
278.422	-7.13
278.638	0.62
278.854	11.52
279.07	12.14
279.286	10.11
279.503	-19.27
279.719	-23.6
279.935	-40.77
280.151	-50.84
280.367	-24.02
280.583	-38.78
280.799	-34.11
281.016	-49.88
281.232	-15.79
281.448	-23.13
281.664	-4.08
281.88	-25.51
282.096	4.55
282.312	28.52
282.528	44.43
282.744	56.04
282.96	59.76
283.176	42.44
283.392	30.92
283.608	15.6
283.824	5.98
284.04	1.96
284.256	8.89
284.471	-10.74
284.687	-20.94
284.903	-1.47
285.119	25.06
285.335	-8.4
285.551	-6.6
285.767	-14.19
285.982	-21.42
286.198	-58.14
286.414	14.61
286.63	20.02
286.846	56.23
287.061	28.69
287.277	50.81
287.493	16.78
287.709	27.21
287.924	-0.29
288.14	33.77
288.356	27.4
288.571	45.71
288.787	31.72
289.003	26.36
289.218	10.55
289.434	-27.11
289.65	-28.54
289.865	-35
290.081	1.43
290.296	18.52
290.512	34.96
290.727	-0.54
290.943	-15.34
291.159	-32.15
291.374	-39.45
291.59	-60.98
291.805	-37.11
292.021	-11.17
292.236	-8.21
292.451	14.04
292.667	30.5
292.882	44.17
293.098	35.34
293.313	29.32
293.529	10.56
293.744	-27.9
293.959	-28.46
294.175	-12.77
294.39	9.24
294.605	9.52
294.821	46.79
295.036	43.41
295.251	33.92
295.467	31.12
295.682	15.64
295.897	-56.84
296.112	-64.09
296.328	-45.93
296.543	-95.97
296.758	-62.52
296.973	-11.29
297.188	18.82
297.404	-20.8
297.619	-28.99
297.834	-51.79
298.049	-65.55
298.264	-89.44
298.479	-30.05
298.694	-8.54
298.909	17.75
299.125	21.74
299.34	24.39
299.555	6.18
299.77	7.02
299.985	-33.13
300.2	-80.04
300.415	-89.42
300.63	-51.59
300.845	-51.46
301.06	-59.91
301.275	-41.45
301.49	-33.76
301.704	-46.34
301.919	-69.12
302.134	-66.84
302.349	-57.61
302.564	-98.6
302.779	-126.07
302.994	-71.36
303.209	-34.64
303.423	-5.78
303.638	35.2
303.853	6.8
304.068	-11.26
304.283	-5.25
304.497	-12.63
304.712	-19.46
304.927	-9.43
305.142	-10.84
305.356	-5.54
305.571	-0.93
305.786	-12.76
306	-22.64
306.215	7.16
306.43	-24.08
306.644	-2.59
306.859	35.39
307.074	43.06
307.288	-10.3
307.503	-9.13
307.717	-28.05
307.932	-34.02
308.147	-33.25
308.361	-16.39
308.576	-18.12
308.79	-43.1
309.005	-42.17
309.219	-37.94
309.434	-60.19
309.648	-48.15
309.863	-32.84
310.077	-26.73
310.292	-29.52
310.506	-14.3
310.72	6.2
310.935	26.54
311.149	16.2
311.364	43
311.578	56.1
311.792	48.5
312.007	45.11
312.221	44.44
312.435	39.8
312.649	23.69
312.864	33.85
313.078	28.97
313.292	75.69
313.507	36.13
313.721	41.21
313.935	34.02
314.149	33.21
314.363	6.94
314.578	2.39
314.792	10.32
315.006	-2.7
315.22	16.43
315.434	23.2
315.648	41.54
315.862	35.85
316.077	32.79
316.291	-1.17
316.505	-0.42
316.719	-42.5
316.933	-35.7
317.147	-26.59
317.361	-52.34
317.575	-62.21
317.789	-87.41
318.003	-155.83
318.217	-121.91
318.431	-31.2
318.645	7.81
318.859	6.53
319.073	26.51
319.287	12.98
319.5	-23.2
319.714	-75.05
319.928	-82.24
320.142	-97.57
320.356	-65.06
320.57	-8.51
320.784	-22.93
320.997	-30.22
321.211	-18.79
321.425	-61.07
321.639	-96.08
321.853	-31.49
322.066	-19.9
322.28	-15.71
322.494	13.25
322.707	32.04
322.921	26.06
323.135	18.45
323.349	19.3
323.562	-12.33
323.776	-41.04
323.989	-55.6
324.203	-76.63
324.417	-96.36
324.63	-103.15
324.844	-104.22
325.057	-96.88
325.271	-62.59
325.485	-20.75
325.698	2.15
325.912	25.97
326.125	12.63
326.339	15.48
326.552	-7.89
326.766	-3.66
326.979	0.63
327.193	29.38
327.406	9.39
327.619	13.14
327.833	17.9
328.046	-3.51
328.26	-30.32
328.473	-13.52
328.686	-54.08
328.9	-58.15
329.113	-44.98
329.326	-86.86
329.54	-58.34
329.753	-48.88
329.966	-66.66
330.179	-37.74
330.393	-9.31
330.606	-2.73
330.819	17.48
331.032	39.39
331.246	38.82
331.459	68.52
331.672	52.24
331.885	37.93
332.098	-1.48
332.311	-17.07
332.525	-100.02
332.738	-76.17
332.951	-31.34
333.164	15.67
333.377	20.53
333.59	51.6
333.803	48.64
334.016	34.33
334.229	25.39
334.442	21.62
334.655	37.05
334.868	27.79
335.081	28.58
335.294	14.03
335.507	20.57
335.72	5.06
335.933	-9.52
336.146	-16.88
336.359	-16.36
336.572	-42.66
336.785	-63.59
336.997	-40.1
337.21	-11.83
337.423	-8.5
337.636	3.39
337.849	15.24
338.062	3.45
338.274	-2.06
338.487	-15.16
338.7	-26.53
338.913	-61.06
339.125	-67.88
339.338	-122.94
339.551	-98.61
339.763	-54.83
339.976	-21.92
340.189	-9.74
340.402	14.29
340.614	5.23
340.827	-0.76
341.039	-14.46
341.252	-8.39
341.465	2.55
341.677	-0.65
341.89	-37.5
342.102	-14.55
342.315	-25.2
342.527	-67.45
342.74	-54.27
342.952	-10.1
343.165	-8.92
343.377	16.64
343.59	16.47
343.802	37.23
344.015	38.19
344.227	41.04
344.44	20.46
344.652	34.09
344.864	22.87
345.077	26.96
345.289	29.85
345.502	35.34
345.714	20.64
345.926	15.25
346.139	3.71
346.351	4.74
346.563	11.41
346.775	15.81
346.988	14.15
347.2	10.47
347.412	-17.31
347.624	-42.92
347.837	-54.04
348.049	-51.29
348.261	-21.48
348.473	-21.38
348.685	-4
348.897	-3.1
349.11	-1.67
349.322	-11.93
349.534	6.71
349.746	-8.49
349.958	1.61
350.17	-12.51
350.382	-9.65
350.594	-16.78
350.806	7.08
351.018	3.81
351.23	-12.05
351.442	-34.43
351.654	-37.33
351.866	-40.88
352.078	-40.69
352.29	-10.11
352.502	-2.31
352.714	16.68
352.926	-5.68
353.138	-5.19
353.35	-14.57
353.561	-19.79
353.773	-50.06
353.985	-27.37
354.197	-30.73
354.409	-26.55
354.621	-23.61
354.832	-6.99
355.044	-24.02
355.256	-29.91
355.468	-13.23
355.679	-9.96
355.891	-10.97
356.103	-14.61
356.314	1.85
356.526	-5.21
356.738	-9.35
356.949	-11.88
357.161	11.42
357.373	1.33
357.584	-5.28
357.796	9.43
358.008	3.09
358.219	18.29
358.431	16.89
358.642	22.89
358.854	16.8
359.065	7.8
359.277	-26.04
359.488	-37.84
359.7	-60.11
359.911	-94.93
360.123	-62.51
360.334	-56.2
360.546	-69.23
360.757	-61.65
360.969	-34.88
361.18	-36.49
361.391	-44.68
361.603	-41.27
361.814	-42.18
362.025	-31.02
362.237	-31.32
362.448	-11.07
362.659	2.62
362.871	9.92
363.082	11.15
363.293	14.59
363.504	-3.88
363.716	-16.63
363.927	-31.36
364.138	-50.08
364.349	-64.15
364.56	-55.86
364.772	-40.68
364.983	-13.99
365.194	-13.66
365.405	5.53
365.616	19.3
365.827	15.86
366.038	-4.81
366.25	-16.72
366.461	-59.79
366.672	-40.59
366.883	-27.37
367.094	-17.33
367.305	-11.58
367.516	4.08
367.727	-25.15
367.938	-34
368.149	-32.38
368.36	-28.55
368.571	-24.26
368.781	-22.46
368.992	-30.64
369.203	-49.84
369.414	-60.59
369.625	-73.48
369.836	-66.9
370.047	-89.17
370.258	-70.53
370.468	-64.13
370.679	-74.41
370.89	-60.38
371.101	-38.59
371.312	-46.38
371.522	-45.55
371.733	-34.5
371.944	-30.9
372.155	-15.84
372.365	-18.73
372.576	-15.61
372.787	-14.28
372.997	-31.35
373.208	-42.59
373.419	-2.92
373.629	-30.89
373.84	-27.54
374.05	-36.76
374.261	-22.61
374.472	-55.27
374.682	-6.42
374.893	-14.61
375.103	11.73
375.314	15.41
375.524	17.84
375.735	23.31
375.945	42.68
376.156	21.82
376.366	12.4
376.577	12.36
376.787	-2.64
376.997	-10.79
377.208	-1.47
377.418	-0.47
377.629	15.05
377.839	10.98
378.049	5.37
378.26	16.71
378.47	21.24
378.68	12.09
378.89	9.14
379.101	5.66
379.311	-26.86
379.521	-67.33
379.732	-74.45
379.942	-60.75
380.152	-80.96
380.362	-40.88
380.572	-27.09
380.783	-13.97
380.993	-5.73
381.203	13.67
381.413	20.69
381.623	25.56
381.833	19.16
382.043	5.04
382.253	-6.65
382.463	-13.46
382.674	-21.17
382.884	-44.12
383.094	-38.09
383.304	-28.89
383.514	-22.07
383.724	-15.75
383.934	-9.82
384.144	-19.98
384.353	-28.65
384.563	-26.54
384.773	-20.43
384.983	-24.67
385.193	-3.5
385.403	7.93
385.613	1.76
385.823	-10.2
386.033	0.74
386.242	-11.53
386.452	-20.74
386.662	-26.02
386.872	-9.95
387.082	-20.79
387.291	-24.36
387.501	-22.29
387.711	-8.83
387.921	-14.93
388.13	-11.37
388.34	2.5
388.55	-4.22
388.759	-6.19
388.969	-3.83
389.179	-5.13
389.388	-10.41
389.598	-3
389.807	-11.31
390.017	-14.93
390.227	-13.63
390.436	-12.37
390.646	-10.9
390.855	-6.3
391.065	-4.18
391.274	-7.73
391.484	-8.8
391.693	-6.7
391.903	-4
392.112	-0.05
392.322	4.39
392.531	6.4
392.74	5.96
392.95	0.28
393.159	-1.45
393.369	-0.65
393.578	-1.22
393.787	-2.46
393.997	-0.48
394.206	-1.56
394.415	-1.71
394.625	-2.31
394.834	-3.46
395.043	-1.46
395.252	0.65
395.462	2.34
395.671	4.27
395.88	4.74
396.089	4.88
396.298	2.31
396.508	1.96
396.717	1.02
396.926	1.85
397.135	2.07
397.344	2.81
397.553	2.83
397.762	3.99
397.971	4.47
398.181	3.69
398.39	3.88
398.599	3.65
398.808	3.2
399.017	3.38
399.226	4.3
399.435	5.5
399.644	5.29
399.853	4.29
400.062	3.82
400.27	3.04
400.479	2.12
400.688	1.63
400.897	1.97
401.106	2.05
401.315	2.21
401.524	2.34
401.733	3.06
401.941	3.72
402.15	3.82
402.359	3.8
402.568	4.19
402.777	4.14
402.985	3.91
403.194	3.77
403.403	3.79
403.612	3.33
403.82	3.33
404.029	3.35
404.238	3.18
404.446	3.27
404.655	3.11
404.864	2.88
405.072	2.55
405.281	2.8
405.489	2.51
405.698	2.54
405.906	2.56
406.115	2.61
406.324	2.45
406.532	2.75
406.741	3
406.949	3.17
407.158	3.18
407.366	3.19
407.574	3.13
407.783	2.97
407.991	2.76
408.2	2.92
408.408	3.07
408.617	2.97
408.825	2.77
409.033	2.86
409.242	2.96
409.45	3.01
409.658	2.98
409.867	3.3
410.075	3.13
410.283	2.84
410.491	2.71
410.7	2.66
410.908	2.53
411.116	2.9
411.324	3.03
411.533	2.85
411.741	3.04
411.949	3.06
412.157	2.69
412.365	2.68
412.573	2.88
412.781	2.91
412.99	2.86
413.198	3.06
413.406	2.99
413.614	2.89
413.822	2.71
414.03	2.64
414.238	2.43
414.446	2.65
414.654	2.47
414.862	2.5
415.07	2.57
415.278	2.75
415.486	2.4
415.694	2.63
415.902	2.58
416.109	2.43
416.317	2.37
416.525	2.24
416.733	2.2
416.941	2.38
417.149	2.47
417.357	2.45
417.564	2.75
417.772	2.88
417.98	2.62
418.188	2.52
418.395	2.58
418.603	2.71
418.811	2.28
419.019	2.38
419.226	2.59
419.434	2.72
419.642	2.47
419.849	2.67
420.057	2.56
420.265	2.37
420.472	2.08
420.68	2.06
420.887	2.02
421.095	2.12
421.302	2.16
421.51	2.46
421.717	2.6
421.925	2.62
422.132	2.46
422.34	2.35
422.547	2.17
422.755	1.98
422.962	2.02
423.17	2.1
423.377	2.16
423.585	2.16
423.792	2.14
423.999	2.1
424.207	2.03
424.414	2.17
424.621	2.06
424.829	2.12
425.036	2.18
425.243	2.38
425.451	2.19
425.658	2.14
425.865	2.35
426.072	2.37
426.28	2.48
426.487	2.58
426.694	2.7
426.901	2.5
427.108	2.39
427.315	2.21
427.523	2.47
427.73	2.47
427.937	2.55
428.144	2.46
428.351	2.43
428.558	2.46
428.765	2.36
428.972	2.28
429.179	2.44
429.386	2.74
429.593	2.41
429.8	2.38
430.007	2.46
430.214	2.58
430.421	2.22
430.628	2.09
430.835	2.12
431.042	2.32
431.249	2.22
431.456	2.31
431.662	2.41
431.869	2.47
432.076	2.34
432.283	2.37
432.49	2.36
432.697	2.34
432.903	2.17
433.11	2.09
433.317	2.07
433.524	2.38
433.73	2.49
433.937	2.74
434.144	2.75
434.35	2.8
434.557	2.47
434.764	2.46
434.97	2.33
435.177	2.46
435.384	2.43
435.59	2.58
435.797	2.77
436.003	2.85
436.21	2.8
436.416	2.85
436.623	2.86
436.829	2.86
437.036	2.96
437.242	2.88
437.449	2.78
437.655	2.79
437.862	2.74
438.068	2.62
438.275	2.77
438.481	3.07
438.687	3.04
438.894	2.95
439.1	3.03
439.307	3.18
439.513	3.04
439.719	3.02
439.926	3.09
440.132	3.11
440.338	2.92
440.544	3.04
440.751	3.02
440.957	3.12
441.163	3.02
441.369	3.08
441.575	2.84
441.782	2.83
441.988	2.68
442.194	2.65
442.4	2.64
442.606	2.92
442.812	3.03
443.018	3.15
443.224	3.28
443.431	3.4
443.637	3.17
443.843	3.04
444.049	3.02
444.255	2.95
444.461	2.95
444.667	2.93
444.873	3.1
445.079	3.1
445.284	3.18
445.49	2.91
445.696	2.86
445.902	2.63
446.108	2.54
446.314	2.48
446.52	2.61
446.726	2.82
446.931	2.94
447.137	3.03
447.343	3.07
447.549	3
447.755	2.96
447.96	2.99
448.166	2.98
448.372	2.92
448.578	3
448.783	2.94
448.989	3.03
449.195	3.13
449.4	3.19
449.606	3.1
449.812	3.09
450.017	3.05
450.223	2.94
450.428	2.83
450.634	3.01
450.84	3.15
451.045	3.08
451.251	3.06
451.456	3.3
451.662	3.33
451.867	3.39
452.073	3.4
452.278	3.52
452.483	3.57
452.689	3.46
452.894	3.48
453.1	3.49
453.305	3.45
453.51	3.42
453.716	3.33
453.921	3.28
454.127	3.26
454.332	3.19
454.537	3.02
454.742	3.13
454.948	3.04
455.153	3.04
455.358	3.15
455.563	3.39
455.769	3.47
455.974	3.54
456.179	3.48
456.384	3.35
456.589	3.3
456.795	3.14
457	3.09
457.205	3.28
457.41	3.33
457.615	3.22
457.82	3.26
458.025	3.28
458.23	3.12
458.435	3.13
458.64	3.06
458.845	3.22
459.05	3.22
459.255	3.26
459.46	3.27
459.665	3.34
459.87	3.29
460.075	3.26
460.28	3.26
460.485	3.39
460.69	3.42
460.895	3.33
461.099	3.32
461.304	3.42
461.509	3.4
461.714	3.34
461.919	3.45
462.123	3.4
462.328	3.47
462.533	3.36
462.738	3.49
462.942	3.39
463.147	3.51
463.352	3.48
463.556	3.54
463.761	3.55
463.966	3.62
464.17	3.56
464.375	3.47
464.58	3.49
464.784	3.36
464.989	3.38
465.193	3.47
465.398	3.51
465.602	3.55
465.807	3.56
466.011	3.58
466.216	3.56
466.42	3.59
466.625	3.65
466.829	3.75
467.034	3.82
467.238	4.03
467.443	4
467.647	3.85
467.851	3.91
468.056	3.87
468.26	3.69
468.464	3.74
468.669	3.81
468.873	3.93
469.077	3.91
469.282	3.94
469.486	3.93
469.69	3.93
469.894	3.73
470.099	3.81
470.303	3.95
470.507	3.89
470.711	3.81
470.915	3.87
471.119	3.77
471.324	3.67
471.528	3.71
471.732	3.78
471.936	3.75
472.14	3.82
472.344	3.82
472.548	3.9
472.752	4.07
472.956	4.3
473.16	4.24
473.364	4.22
473.568	4.19
473.772	4.18
473.976	3.98
474.18	4.05
474.384	4.12
474.588	4.12
474.792	3.92
474.995	4.07
475.199	4.11
475.403	4.15
475.607	4.23
475.811	4.3
476.015	4.25
476.218	4.35
476.422	4.26
476.626	4.28
476.83	4.41
477.033	4.44
477.237	4.31
477.441	4.43
477.644	4.44
477.848	4.4
478.052	4.35
478.255	4.37
478.459	4.34
478.663	4.47
478.866	4.48
479.07	4.56
479.273	4.68
479.477	4.72
479.681	4.69
479.884	4.62
480.088	4.52
480.291	4.41
480.495	4.41
480.698	4.42
480.901	4.54
481.105	4.73
481.308	4.77
481.512	4.78
481.715	4.77
481.919	4.84
482.122	4.8
482.325	4.81
482.529	4.83
482.732	4.86
482.935	4.7
483.138	4.62
483.342	4.66
483.545	4.69
483.748	4.72
483.952	4.78
484.155	4.99
484.358	5.07
484.561	5.03
484.764	4.93
484.967	5.04
485.171	5.04
485.374	4.91
485.577	5.05
485.78	5.09
485.983	5.08
486.186	4.9
486.389	4.91
486.592	4.79
486.795	4.88
486.998	4.81
487.201	4.92
487.404	4.96
487.607	5.05
487.81	5.01
488.013	5.07
488.216	5.08
488.419	5.11
488.622	5.05
488.825	5.01
489.028	4.96
489.231	4.9
489.433	4.85
489.636	4.77
489.839	4.76
490.042	4.75
490.245	4.74
490.447	4.81
490.65	4.88
490.853	4.93
491.056	5.02
491.258	5.08
491.461	5.09
491.664	5.15
491.866	5.14
492.069	5.16
492.272	5.11
492.474	5.16
492.677	5.21
492.879	5.26
493.082	5.32
493.285	5.48
493.487	5.47
493.69	5.43
493.892	5.38
494.095	5.32
494.297	5.19
494.5	5.19
494.702	5.25
494.905	5.34
495.107	5.31
495.309	5.36
495.512	5.44
495.714	5.45
495.917	5.45
496.119	5.45
496.321	5.51
496.524	5.42
496.726	5.38
496.928	5.4
497.13	5.4
497.333	5.39
497.535	5.5
497.737	5.49
497.939	5.49
498.142	5.53
498.344	5.57
498.546	5.45
498.748	5.5
498.95	5.58
499.152	5.56
499.355	5.56
499.557	5.7
499.759	5.85
499.961	5.84
500.163	6
500.365	5.99
500.567	5.99
500.769	5.89
500.971	5.84
501.173	5.7
501.375	5.72
501.577	5.68
501.779	5.66
501.981	5.76
502.183	5.84
502.385	5.87
502.587	5.85
502.788	5.93
502.99	5.92
503.192	6.02
503.394	6.01
503.596	6.1
503.798	6.19
503.999	6.25
504.201	6.21
504.403	6.29
504.605	6.31
504.806	6.19
505.008	6.2
505.21	6.27
505.411	6.28
505.613	6.33
505.815	6.38
506.016	6.44
506.218	6.56
506.42	6.54
506.621	6.6
506.823	6.72
507.024	6.67
507.226	6.58
507.427	6.55
507.629	6.6
507.83	6.65
508.032	6.66
508.233	6.75
508.435	6.9
508.636	6.89
508.838	6.77
509.039	6.84
509.24	6.82
509.442	6.83
509.643	6.82
509.845	6.9
510.046	6.97
510.247	7.05
510.448	7.05
510.65	7.11
510.851	7.2
511.052	7.19
511.254	7.14
511.455	7.28
511.656	7.28
511.857	7.37
512.058	7.38
512.26	7.46
512.461	7.34
512.662	7.4
512.863	7.32
513.064	7.3
513.265	7.33
513.466	7.41
513.667	7.4
513.868	7.44
514.069	7.56
514.27	7.61
514.471	7.59
514.672	7.62
514.873	7.63
515.074	7.62
515.275	7.5
515.476	7.49
515.677	7.5
515.878	7.63
516.079	7.65
516.28	7.71
516.481	7.87
516.682	7.92
516.882	7.85
517.083	7.86
517.284	7.88
517.485	7.79
517.686	7.79
517.886	7.77
518.087	7.82
518.288	7.85
518.488	7.9
518.689	7.97
518.89	7.99
519.091	7.97
519.291	8.03
519.492	8.06
519.692	8.04
519.893	8.17
520.094	8.19
520.294	8.16
520.495	8.17
520.695	8.2
520.896	8.12
521.096	8.2
521.297	8.23
521.497	8.24
521.698	8.21
521.898	8.22
522.099	8.19
522.299	8.27
522.499	8.31
522.7	8.31
522.9	8.33
523.101	8.44
523.301	8.44
523.501	8.46
523.702	8.49
523.902	8.59
524.102	8.61
524.302	8.53
524.503	8.6
524.703	8.64
524.903	8.68
525.103	8.61
525.304	8.72
525.504	8.77
525.704	8.86
525.904	8.82
526.104	8.84
526.304	8.84
526.504	8.86
526.705	8.78
526.905	8.89
527.105	8.96
527.305	8.99
527.505	8.87
527.705	8.95
527.905	8.91
528.105	8.93
528.305	8.94
528.505	9.04
528.705	9.1
528.905	9.04
529.105	9.02
529.304	9.05
529.504	9.2
529.704	9.14
529.904	9.23
530.104	9.28
530.304	9.36
530.503	9.28
530.703	9.25
530.903	9.28
531.103	9.29
531.303	9.24
531.502	9.26
531.702	9.4
531.902	9.39
532.101	9.33
532.301	9.36
532.501	9.42
532.7	9.34
532.9	9.37
533.1	9.49
533.299	9.57
533.499	9.58
533.698	9.63
533.898	9.65
534.097	9.68
534.297	9.76
534.496	9.72
534.696	9.79
534.895	9.95
535.095	10.03
535.294	9.94
535.494	9.96
535.693	10.01
535.892	9.97
536.092	9.92
536.291	9.91
536.491	9.98
536.69	9.97
536.889	9.93
537.088	9.91
537.288	10.06
537.487	10.12
537.686	10.17
537.886	10.26
538.085	10.36
538.284	10.44
538.483	10.42
538.682	10.55
538.882	10.56
539.081	10.64
539.28	10.5
539.479	10.55
539.678	10.49
539.877	10.59
540.076	10.6
540.275	10.74
540.474	10.83
540.673	10.86
540.872	10.89
541.071	10.99
541.27	11.02
541.469	11.09
541.668	11.14
541.867	11.16
542.066	11.13
542.265	11.19
542.464	11.14
542.663	11.23
542.862	11.33
543.06	11.46
543.259	11.48
543.458	11.57
543.657	11.62
543.856	11.7
544.054	11.69
544.253	11.65
544.452	11.67
544.651	11.74
544.849	11.73
545.048	11.77
545.247	11.93
545.445	12.03
545.644	12.05
545.843	12.05
546.041	12.11
546.24	12.18
546.438	12.32
546.637	12.36
546.836	12.54
547.034	12.64
547.233	12.63
547.431	12.65
547.63	12.73
547.828	12.69
548.027	12.75
548.225	12.81
548.423	12.82
548.622	12.96
548.82	13.03
549.019	13.14
549.217	13.27
549.415	13.31
549.614	13.33
549.812	13.38
550.01	13.41
550.209	13.5
550.407	13.65
550.605	13.72
550.803	13.89
551.002	13.99
551.2	14.13
551.398	14.22
551.596	14.4
551.794	14.44
551.993	14.46
552.191	14.47
552.389	14.59
552.587	14.59
552.785	14.64
552.983	14.77
553.181	14.88
553.379	14.99
553.577	15.08
553.775	15.26
553.973	15.4
554.171	15.5
554.369	15.47
554.567	15.54
554.765	15.61
554.963	15.7
555.161	15.76
555.359	15.89
555.557	16.07
555.755	16.18
555.952	16.26
556.15	16.4
556.348	16.5
556.546	16.6
556.744	16.66
556.941	16.73
557.139	16.85
557.337	16.98
557.535	17.04
557.732	17.19
557.93	17.37
558.128	17.45
558.325	17.53
558.523	17.6
558.721	17.7
558.918	17.7
559.116	17.8
559.313	17.81
559.511	17.99
559.708	18.07
559.906	18.22
560.104	18.33
560.301	18.52
560.498	18.55
560.696	18.67
560.893	18.79
561.091	18.89
561.288	19.08
561.486	19.13
561.683	19.23
561.88	19.34
562.078	19.44
562.275	19.43
562.473	19.64
562.67	19.81
562.867	19.9
563.064	20.04
563.262	20.2
563.459	20.29
563.656	20.41
563.853	20.53
564.051	20.72
564.248	20.84
564.445	20.96
564.642	21.03
564.839	21.25
565.036	21.37
565.234	21.58
565.431	21.65
565.628	21.77
565.825	21.85
566.022	21.94
566.219	21.96
566.416	22.11
566.613	22.18
566.81	22.19
567.007	22.15
567.204	22.14
567.401	22.28
567.598	22.36
567.795	22.51
567.991	22.61
568.188	22.82
568.385	22.89
568.582	23.03
568.779	23.04
568.976	23.13
569.172	23.25
569.369	23.24
569.566	23.28
569.763	23.37
569.96	23.44
570.156	23.39
570.353	23.38
570.55	23.37
570.746	23.4
570.943	23.45
571.14	23.47
571.336	23.61
571.533	23.76
571.729	23.74
571.926	23.84
572.123	23.96
572.319	24.02
572.516	23.99
572.712	24.11
572.909	24.14
573.105	24.2
573.302	24.18
573.498	24.19
573.695	24.2
573.891	24.16
574.087	24.17
574.284	24.16
574.48	24.19
574.677	24.18
574.873	24.24
575.069	24.29
575.266	24.35
575.462	24.33
575.658	24.44
575.854	24.53
576.051	24.57
576.247	24.59
576.443	24.63
576.639	24.54
576.835	24.42
577.032	24.37
577.228	24.46
577.424	24.53
577.62	24.55
577.816	24.54
578.012	24.56
578.208	24.42
578.404	24.46
578.6	24.51
578.796	24.59
578.993	24.57
579.189	24.59
579.384	24.44
579.58	24.35
579.776	24.27
579.972	24.21
580.168	24.15
580.364	24.21
580.56	24.25
580.756	24.27
580.952	24.22
581.148	24.2
581.343	24.17
581.539	24.25
581.735	24.28
581.931	24.36
582.127	24.39
582.322	24.39
582.518	24.22
582.714	24.16
582.909	24.13
583.105	24.11
583.301	24.08
583.496	24.15
583.692	24.12
583.888	24.11
584.083	24.16
584.279	24.13
584.474	24.12
584.67	24.09
584.866	24.09
585.061	23.98
585.257	24.02
585.452	23.91
585.648	23.92
585.843	23.93
586.039	23.92
586.234	23.89
586.429	23.84
586.625	23.92
586.82	23.81
587.015	23.81
587.211	23.75
587.406	23.87
587.601	23.78
587.797	23.84
587.992	23.87
588.187	23.99
588.383	23.96
588.578	24.01
588.773	24.07
588.968	24.07
589.163	24.05
589.359	23.99
589.554	23.96
589.749	23.97
589.944	24.05
590.139	24.01
590.334	24.12
590.529	24.18
590.724	24.27
590.919	24.33
591.114	24.43
591.309	24.54
591.504	24.58
591.699	24.52
591.894	24.54
592.089	24.57
592.284	24.52
592.479	24.62
592.674	24.62
592.869	24.72
593.064	24.75
593.259	24.93
593.454	24.99
593.648	25.07
593.843	25.1
594.038	25.21
594.233	25.12
594.428	25.04
594.622	25.09
594.817	25.24
595.012	25.22
595.206	25.39
595.401	25.57
595.596	25.62
595.79	25.66
595.985	25.85
596.18	25.86
596.374	25.94
596.569	26.04
596.763	26.04
596.958	26.03
597.153	26.1
597.347	25.99
597.542	26.09
597.736	26.21
597.931	26.31
598.125	26.45
598.319	26.82
598.514	26.77
598.708	26.77
598.903	26.82
599.097	26.75
599.291	26.7
599.486	26.88
599.68	26.88
599.874	27.06
600.069	27.13
600.263	27.11
600.457	27.09
600.651	27.19
600.846	27.12
601.04	27.23
601.234	27.28
601.428	27.38
601.622	27.38
601.817	27.38
602.011	27.41
602.205	27.52
602.399	27.53
602.593	27.56
602.787	27.69
602.981	27.6
603.175	27.6
603.369	27.57
603.563	27.62
603.757	27.71
603.951	27.8
604.145	27.71
604.339	27.79
604.533	27.71
604.727	27.47
604.921	27.38
605.115	27.42
605.309	27.4
605.502	27.46
605.696	27.5
605.89	27.53
606.084	27.47
606.278	27.29
606.471	27.22
606.665	27.11
606.859	27.03
607.053	26.97
607.246	27.02
607.44	26.96
607.634	26.91
607.827	26.97
608.021	26.78
608.214	26.73
608.408	26.67
608.602	26.63
608.795	26.43
608.989	26.42
609.182	26.33
609.376	26.27
609.569	26.14
609.763	26.05
609.956	25.99
610.15	25.87
610.343	25.78
610.537	25.72
610.73	25.68
610.923	25.63
611.117	25.53
611.31	25.45
611.504	25.47
611.697	25.36
611.89	25.34
612.083	25.27
612.277	25.22
612.47	25.03
612.663	25.01
612.856	24.94
613.05	24.79
613.243	24.72
613.436	24.66
613.629	24.46
613.822	24.31
614.015	24.33
614.209	24.13
614.402	24.16
614.595	24.22
614.788	24.07
614.981	23.95
615.174	23.83
615.367	23.65
615.56	23.47
615.753	23.45
615.946	23.34
616.139	23.43
616.332	23.59
616.525	23.58
616.718	23.61
616.911	23.54
617.103	23.46
617.296	23.23
617.489	23.17
617.682	23.04
617.875	23.06
618.067	22.9
618.26	22.77
618.453	22.76
618.646	22.8
618.838	22.76
619.031	22.89
619.224	22.9
619.417	22.82
619.609	22.75
619.802	22.71
619.994	22.62
620.187	22.57
620.38	22.57
620.572	22.49
620.765	22.53
620.957	22.43
621.15	22.34
621.342	22.22
621.535	22.26
621.727	22.12
621.92	22.03
622.112	22.01
622.305	22.08
622.497	21.9
622.69	21.87
622.882	21.92
623.074	21.96
623.267	21.9
623.459	21.82
623.651	21.78
623.844	21.8
624.036	21.76
624.228	21.68
624.42	21.76
624.613	21.9
624.805	21.87
624.997	21.87
625.189	21.87
625.381	21.89
625.574	21.73
625.766	21.75
625.958	21.62
626.15	21.68
626.342	21.67
626.534	21.66
626.726	21.56
626.918	21.71
627.11	21.63
627.302	21.56
627.494	21.5
627.686	21.47
627.878	21.33
628.07	21.3
628.262	21.28
628.454	21.31
628.646	21.29
628.838	21.34
629.029	21.24
629.221	21.28
629.413	21.2
629.605	21.07
629.797	20.91
629.989	20.91
630.18	20.79
630.372	20.75
630.564	20.74
630.755	20.78
630.947	20.79
631.139	20.68
631.33	20.56
631.522	20.65
631.714	20.58
631.905	20.54
632.097	20.51
632.289	20.56
632.48	20.43
632.672	20.35
632.863	20.2
633.055	20.19
633.246	20.2
633.438	20.15
633.629	20.21
633.821	20.25
634.012	20.23
634.203	20.07
634.395	20.15
634.586	20.1
634.777	20.02
634.969	20.05
635.16	20.16
635.351	20.07
635.543	20
635.734	20.06
635.925	20.04
636.117	20.02
636.308	20.01
636.499	19.97
636.69	19.81
636.881	19.78
637.073	19.84
637.264	19.83
637.455	19.91
637.646	20.04
637.837	20.03
638.028	19.92
638.219	19.87
638.41	19.72
638.601	19.64
638.792	19.65
638.983	19.6
639.174	19.55
639.365	19.69
639.556	19.7
639.747	19.66
639.938	19.71
640.129	19.67
640.32	19.63
640.511	19.68
640.701	19.75
640.892	19.66
641.083	19.74
641.274	19.68
641.465	19.62
641.655	19.51
641.846	19.5
642.037	19.41
642.228	19.31
642.418	19.33
642.609	19.29
642.8	19.29
642.99	19.32
643.181	19.44
643.372	19.49
643.562	19.49
643.753	19.48
643.943	19.35
644.134	19.14
644.324	19.02
644.515	18.92
644.705	18.93
644.896	18.91
645.086	18.95
645.277	18.78
645.467	18.81
645.658	18.71
645.848	18.76
646.038	18.75
646.229	18.81
646.419	18.78
646.61	18.77
646.8	18.61
646.99	18.55
647.18	18.39
647.371	18.36
647.561	18.27
647.751	18.39
647.941	18.27
648.132	18.36
648.322	18.25
648.512	18.28
648.702	18.17
648.892	18.2
649.082	18.29
649.272	18.21
649.462	18.08
649.653	18.06
649.843	18
650.033	17.89
650.223	17.81
650.413	17.74
650.603	17.71
650.793	17.78
650.983	17.62
651.172	17.62
651.362	17.63
651.552	17.47
651.742	17.26
651.932	17.26
652.122	17.22
652.312	17.22
652.502	17.2
652.691	17.16
652.881	17.09
653.071	16.98
653.261	16.8
653.45	16.59
653.64	16.58
653.83	16.41
654.019	16.35
654.209	16.26
654.399	16.3
654.588	16.14
654.778	16.11
654.968	15.96
655.157	15.91
655.347	15.68
655.536	15.55
655.726	15.37
655.915	15.26
656.105	15.06
656.294	15.03
656.484	14.77
656.673	14.61
656.863	14.5
657.052	14.35
657.241	14.11
657.431	13.94
657.62	13.77
657.809	13.34
657.999	13.19
658.188	13.01
658.377	12.82
658.567	12.66
658.756	12.69
658.945	12.48
659.134	12.28
659.324	12.1
659.513	11.97
659.702	11.68
659.891	11.6
660.08	11.44
660.269	11.43
660.458	11.23
660.648	11.19
660.837	11.02
661.026	11.01
661.215	10.77
661.404	10.58
661.593	10.42
661.782	10.14
661.971	9.9
662.16	9.82
662.349	9.73
662.538	9.6
662.726	9.5
662.915	9.36
663.104	9.22
663.293	9.15
663.482	9.15
663.671	9.05
663.86	8.96
664.048	8.81
664.237	8.74
664.426	8.38
664.615	8.37
664.803	8.21
664.992	8.13
665.181	7.93
665.369	7.91
665.558	7.8
665.747	7.76
665.935	7.7
666.124	7.76
666.312	7.82
666.501	7.74
666.69	7.66
666.878	7.52
667.067	7.33
667.255	7.28
667.444	7.53
667.632	7.64
667.82	7.77
668.009	7.72
668.197	7.77
668.386	7.52
668.574	7.5
668.762	7.39
668.951	7.36
669.139	7.32
669.327	7.24
669.516	7.22
669.704	7.24
669.892	7.46
670.08	7.33
670.269	7.26
670.457	7.2
670.645	7.07
670.833	7.06
671.021	7.08
671.21	7.24
671.398	7.43
671.586	7.53
671.774	7.36
671.962	7.4
672.15	7.36
672.338	7.19
672.526	7.16
672.714	7.15
672.902	7.26
673.09	7.35
673.278	7.57
673.466	7.67
673.654	7.94
673.842	7.87
674.03	7.88
674.218	7.81
674.405	7.88
674.593	7.73
674.781	7.83
674.969	7.9
675.157	8.03
675.344	8.07
675.532	8.16
675.72	8.28
675.908	8.28
676.095	8.21
676.283	8.31
676.471	8.54
676.658	8.55
676.846	8.62
677.033	8.76
677.221	8.87
677.409	8.7
677.596	8.8
677.784	8.84
677.971	8.84
678.159	8.88
678.346	9.05
678.534	9.11
678.721	9.44
678.909	9.51
679.096	9.48
679.283	9.66
679.471	9.77
679.658	9.72
679.846	10.01
680.033	10.32
680.22	10.34
680.408	10.43
680.595	10.57
680.782	10.48
680.969	10.56
681.157	10.66
681.344	10.73
681.531	10.75
681.718	10.86
681.905	10.93
682.093	11.21
682.28	11.47
682.467	11.79
682.654	12.05
682.841	12.25
683.028	12.39
683.215	12.57
683.402	12.61
683.589	12.73
683.776	13.06
683.963	13.18
684.15	13.44
684.337	13.79
684.524	14.01
684.711	14.23
684.898	14.32
685.085	14.51
685.271	14.87
685.458	15.2
685.645	15.38
685.832	15.88
686.019	16.28
686.205	16.44
686.392	16.85
686.579	17.12
686.766	17.68
686.952	18
687.139	18.55
687.326	18.76
687.512	19.19
687.699	19.39
687.886	19.61
688.072	19.75
688.259	20.41
688.445	21
688.632	21.36
688.818	22.22
689.005	22.81
689.191	23.21
689.378	23.9
689.564	24.56
689.751	24.89
689.937	25.58
690.124	26.15
690.31	26.39
690.496	26.93
690.683	27.51
690.869	28.02
691.055	28.73
691.242	29.52
691.428	30.24
691.614	30.91
691.8	31.73
691.987	32.48
692.173	33.19
692.359	33.89
692.545	34.57
692.731	34.9
692.918	35.56
693.104	36.19
693.29	36.8
693.476	37.69
693.662	38.65
693.848	39.15
694.034	39.81
694.22	40.54
694.406	41.12
694.592	41.87
694.778	42.83
694.964	43.38
695.15	44.21
695.336	44.74
695.522	45.5
695.708	46.12
695.894	47.15
696.08	47.95
696.265	48.82
696.451	49.53
696.637	50.26
696.823	50.93
697.009	51.42
697.194	52.06
697.38	52.54
697.566	53.05
697.751	53.89
697.937	54.6
698.123	55.17
698.308	55.95
698.494	56.68
698.68	57.01
698.865	57.61
699.051	58.31
699.236	58.99
699.422	59.65
699.607	60.1
699.793	60.8
699.978	61.3
700.164	61.68
700.349	62.37
700.535	62.98
700.72	63.47
700.906	64.21
701.091	64.78
701.276	65.01
701.462	65.83
701.647	66.45
701.832	66.76
702.018	67.29
702.203	67.9
702.388	68.05
702.573	68.28
702.759	69.1
702.944	69.23
703.129	69.61
703.314	70.15
703.499	70.47
703.684	70.56
703.87	71.66
704.055	72.17
704.24	72.4
704.425	73.22
704.61	73.62
704.795	73.42
704.98	73.57
705.165	73.9
705.35	73.96
705.535	74.19
705.72	74.63
705.905	75.1
706.09	75.78
706.275	76
706.459	76.21
706.644	76.49
706.829	76.76
707.014	76.7
707.199	77.23
707.384	77.93
707.568	78.22
707.753	78.81
707.938	79.3
708.123	79.05
708.307	78.91
708.492	79.26
708.677	79.42
708.861	79.51
709.046	79.67
709.231	80.46
709.415	80.61
709.6	80.37
709.784	80.39
709.969	81.11
710.153	80.7
710.338	81.14
710.522	81.68
710.707	82.35
710.891	82.57
711.076	83.14
711.26	82.79
711.445	83.06
711.629	83.12
711.813	83.12
711.998	83.36
712.182	83.34
712.366	83.27
712.551	83.63
712.735	83.85
712.919	83.74
713.103	84.28
713.288	84.01
713.472	83.63
713.656	84.25
713.84	84.42
714.024	84.86
714.208	85.03
714.393	85.17
714.577	84.86
714.761	85.1
714.945	84.99
715.129	85.63
715.313	86.09
715.497	86.18
715.681	86.58
715.865	86.57
716.049	86.58
716.233	86.47
716.417	86.94
716.601	86.7
716.785	86.77
716.968	87.14
717.152	87.2
717.336	86.97
717.52	87.27
717.704	87.37
717.888	87.55
718.071	87.94
718.255	88.33
718.439	88.11
718.622	88.74
718.806	88.57
718.99	88.21
719.174	87.48
719.357	87.77
719.541	87.62
719.724	87.71
719.908	88.86
720.092	89.99
720.275	90.18
720.459	90.22
720.642	89.84
720.826	89.06
721.009	88.55
721.193	88.39
721.376	88.65
721.559	89.51
721.743	89.84
721.926	90.36
722.11	90.33
722.293	89.59
722.476	89.11
722.66	89.1
722.843	88.84
723.026	88.66
723.21	89.35
723.393	90.19
723.576	90.24
723.759	89.79
723.942	89.89
724.126	90.03
724.309	89.84
724.492	89.91
724.675	90.29
724.858	91.17
725.041	91.19
725.224	91.31
725.407	91.39
725.59	91.73
725.774	91.2
725.957	90.47
726.14	90.25
726.322	90.12
726.505	90.09
726.688	90.7
726.871	91.85
727.054	92.16
727.237	92.21
727.42	92.6
727.603	92.54
727.786	92.44
727.968	92.43
728.151	92.76
728.334	92.51
728.517	92.49
728.699	92.75
728.882	92.56
729.065	93.19
729.248	93.41
729.43	93.26
729.613	93.74
729.796	94.11
729.978	92.91
730.161	92.36
730.343	92.48
730.526	92.71
730.708	91.98
730.891	92.89
731.073	93.08
731.256	92.9
731.438	92.26
731.621	92.76
731.803	92.45
731.986	92.69
732.168	92.62
732.35	92.99
732.533	93.42
732.715	93.75
732.898	94.62
733.08	94.23
733.262	94.39
733.444	94.06
733.627	93.72
733.809	93.27
733.991	94.37
734.173	93.86
734.355	94.15
734.538	94.89
734.72	94.56
734.902	94.41
735.084	93.91
735.266	93.81
735.448	94.33
735.63	94.86
735.812	95.37
735.994	96.8
736.176	96.86
736.358	95.94
736.54	95.82
736.722	94.77
736.904	94.05
737.086	93.4
737.268	94.32
737.45	94.83
737.632	95.89
737.814	95.72
737.995	96.61
738.177	96.25
738.359	95.33
738.541	95.26
738.723	95.91
738.904	96.04
739.086	96.46
739.268	96.76
739.449	97.37
739.631	96.93
739.813	97.64
739.994	97.2
740.176	98.27
740.358	97.31
740.539	98.49
740.721	98.08
740.902	98.51
741.084	97.21
741.265	97.35
741.447	96.83
741.628	96.91
741.81	96.42
741.991	97.37
742.172	98.28
742.354	98.43
742.535	98.26
742.717	98.04
742.898	98.3
743.079	98.15
743.261	97.45
743.442	97.29
743.623	98.12
743.804	97.2
743.986	97.39
744.167	97.02
744.348	96.3
744.529	96.5
744.71	95.85
744.891	95.17
745.073	95.23
745.254	94.76
745.435	93.93
745.616	94.07
745.797	93.84
745.978	93.42
746.159	94.61
746.34	93.43
746.521	95.35
746.702	94.37
746.883	94.6
747.064	93.98
747.245	94.76
747.426	93.92
747.606	94.69
747.787	95.5
747.968	95.29
748.149	95.6
748.33	95.86
748.51	95.75
748.691	95.22
748.872	96.45
749.053	95.63
749.233	94.45
749.414	94.14
749.595	93.71
749.775	92.67
749.956	92.37
750.137	92.32
750.317	93.22
750.498	94.61
750.678	94.24
750.859	95.79
751.04	96.77
751.22	95.36
751.4	93.74
751.581	92.87
751.761	92.58
751.942	93.5
752.122	93.06
752.303	92.41
752.483	93.25
752.663	93.05
752.844	90.87
753.024	93.14
753.204	94.07
753.385	93.89
753.565	93.34
753.745	93.45
753.925	93.27
754.106	93.02
754.286	93.91
754.466	93.63
754.646	95.56
754.826	94.47
755.006	94.09
755.187	93.87
755.367	95.2
755.547	94.12
755.727	95.49
755.907	95.38
756.087	95.67
756.267	95.61
756.447	96.2
756.627	94.15
756.807	95.08
756.987	93.2
757.167	91.89
757.346	91.31
757.526	90
757.706	90.44
757.886	92.53
758.066	94.06
758.246	94.24
758.425	96
758.605	94.62
758.785	93.87
758.965	93.13
759.144	92.16
759.324	92.75
759.504	93.8
759.683	93.76
759.863	92.08
760.043	90.65
760.222	89.42
760.402	87.97
760.581	88.25
760.761	90.24
760.94	90.6
761.12	92.6
761.299	94.22
761.479	94.49
761.658	92.22
761.838	93.74
762.017	93.64
762.197	93.99
762.376	92.19
762.555	93.32
762.735	91.72
762.914	89.25
763.093	88.01
763.273	87.06
763.452	86.46
763.631	86.78
763.81	86.93
763.99	87.17
764.169	88.2
764.348	87.29
764.527	86.31
764.706	89.1
764.885	90.53
765.064	89.19
765.243	90.46
765.423	92.46
765.602	90.21
765.781	85.9
765.96	86.49
766.139	85.57
766.318	86.3
766.497	85.61
766.676	86.92
766.854	89.21
767.033	89.85
767.212	87.18
767.391	88.1
767.57	89.6
767.749	89.45
767.928	91.23
768.106	91.05
768.285	88.39
768.464	87.53
768.643	86.15
768.821	84.51
769	87.08
769.179	87.35
769.357	86.59
769.536	86.35
769.715	86.25
769.893	86.6
770.072	88.03
770.25	88.72
770.429	89.82
770.607	89.76
770.786	88.42
770.964	88.92
771.143	87.5
771.321	88.87
771.5	89.32
771.678	88.44
771.857	86.62
772.035	87.2
772.213	85.78
772.392	83.5
772.57	84.85
772.748	85.97
772.927	85.74
773.105	85.73
773.283	88.05
773.461	88.65
773.64	89.78
773.818	90.87
773.996	90.56
774.174	88.8
774.352	86.11
774.531	83.02
774.709	85.21
774.887	83.74
775.065	82.93
775.243	82.23
775.421	83.62
775.599	81.57
775.777	79.26
775.955	79.12
776.133	79.13
776.311	78.84
776.489	78.26
776.667	80.88
776.844	80.31
777.022	80.18
777.2	80.97
777.378	81.08
777.556	81.31
777.734	85.63
777.911	88.01
778.089	87.51
778.267	86.36
778.445	85.69
778.622	81.3
778.8	80.05
778.978	81.89
779.155	82.15
779.333	80.63
779.511	81.74
779.688	82.23
779.866	77.2
780.043	74.16
780.221	74.83
780.398	73.69
780.576	75.61
780.753	77.04
780.931	77.41
781.108	76.84
781.286	78.76
781.463	74.68
781.64	74.41
781.818	78.85
781.995	81.33
782.172	82.13
782.35	83.69
782.527	86
782.704	82.63
782.882	81.47
783.059	78.83
783.236	81.01
783.413	82.92
783.59	85.63
783.768	83.94
783.945	87.78
784.122	84.35
784.299	82.98
784.476	78.98
784.653	79.84
784.83	77.13
785.007	73.63
785.184	72.93
785.361	75.04
785.538	76.86
785.715	78.63
785.892	82.03
786.069	84.26
786.246	85.25
786.423	86.76
786.6	85.32
786.776	87.39
786.953	85.25
787.13	87.88
787.307	88.42
787.484	87.67
787.66	84.84
787.837	84.09
788.014	79.2
788.191	73.3
788.367	73.27
788.544	74.41
788.721	73.32
788.897	76.88
789.074	79.67
789.25	77.53
789.427	79.8
789.603	81.32
789.78	81.21
789.956	79.84
790.133	79.83
790.309	79.99
790.486	82.82
790.662	80.88
790.839	82.76
791.015	83.41
791.192	77.46
791.368	78.73
791.544	75.98
791.721	74.51
791.897	74.83
792.073	74.95
792.249	67.22
792.426	68.97
792.602	72.8
792.778	75.62
792.954	78.61
793.13	79.49
793.307	75.17
793.483	66.98
793.659	63.75
793.835	66.52
794.011	66.54
794.187	68.97
794.363	69.65
794.539	75.71
794.715	69.97
794.891	69.21
795.067	69.35
795.243	76
795.419	71.42
795.595	71.37
795.771	77.6
795.947	76.39
796.122	72.36
796.298	74.61
796.474	74.63
796.65	67.1
796.826	68.67
797.001	67.93
797.177	63.99
797.353	68
797.529	75.47
797.704	72.33
797.88	71.5
798.056	68.77
798.231	66.86
798.407	67.06
798.582	71.45
798.758	79.17
798.934	87.29
799.109	86.57
799.285	83.28
799.46	82.28
799.636	80.08
799.811	74.76
799.986	76.61
800.162	76.68
800.337	77.87
800.513	69.2
800.688	69.39
800.863	75.29
801.039	72.42
801.214	66.71
801.389	70.97
801.565	72.28
801.74	57.17
801.915	64.75
802.09	63.64
802.265	66.64
802.441	57.27
802.616	62.71
802.791	56.97
802.966	61.45
803.141	61.08
803.316	66.38
803.491	69.99
803.666	70.12
803.841	68.35
804.016	67.49
804.191	70.39
804.366	65.68
804.541	62.37
804.716	63.43
804.891	58.4
805.066	60.64
805.241	57.44
805.416	56.78
805.591	51.3
805.765	53.43
805.94	52.35
806.115	54.49
806.29	51.28
806.464	53.75
806.639	54.55
806.814	45.49
806.989	46
807.163	61.1
807.338	64.68
807.512	60.69
807.687	61.91
807.862	67.12
808.036	60.24
808.211	62.06
808.385	66.55
808.56	77.07
808.734	87.13
808.909	87.54
809.083	85.95
809.258	91.55
809.432	82.89
809.606	66.71
809.781	62.24
809.955	63.03
810.13	59.31
810.304	54.15
810.478	53.03
810.652	61.97
810.827	59.51
811.001	54.38
811.175	59.28
811.349	54.99
811.524	45.5
811.698	34.54
811.872	37.55
812.046	43.62
812.22	56.56
812.394	53.85
812.568	64.61
812.742	73.4
812.916	64.86
813.09	55.94
813.264	56.8
813.438	66.68
813.612	57.02
813.786	52.12
813.96	60.69
814.134	69.21
814.308	69.51
814.482	75.05
814.656	74.41
814.83	72.28
815.003	72.74
815.177	56.94
815.351	51.89
815.525	64.87
815.698	58.81
815.872	54.94
816.046	57.41
816.219	62.54
816.393	63.52
816.567	66.68
816.74	57.65
816.914	64.6
817.088	65.89
817.261	51.68
817.435	50.32
817.608	66.22
817.782	60.24
817.955	59.77
818.129	62.26
818.302	62.22
818.475	74.48
818.649	74.48
818.822	61.48
818.996	70.96
819.169	68.43
819.342	39.21
819.516	54.01
819.689	61.24
819.862	51.78
820.035	43.23
820.209	50.8
820.382	42.74
820.555	41.89
820.728	31.85
820.901	39.68
821.075	32.6
821.248	35.64
821.421	34.31
821.594	34.8
821.767	49.34
821.94	71.76
822.113	51.35
822.286	39.28
822.459	45.2
822.632	33.99
822.805	22.22
822.978	25.01
823.151	33.43
823.324	31.74
823.496	7.91
823.669	-3.09
823.842	11.4
824.015	-9.24
824.188	-8.44
824.361	9.75
824.533	16.92
824.706	17.18
824.879	28.17
825.051	39.86
825.224	31.15
825.397	14.92
825.569	3.63
825.742	22.4
825.915	17.6
826.087	28.9
826.26	31.86
826.432	32.01
826.605	31.13
826.777	28.21
826.95	40
827.122	45.75
827.295	56.66
827.467	67.39
827.64	49.9
827.812	37.37
827.984	45.4
828.157	33.47
828.329	-14.55
828.501	8.21
828.674	18.1
828.846	-3.89
829.018	26.5
829.19	16.81
829.363	33.08
829.535	31.76
829.707	45.38
829.879	19.88
830.051	21.7
830.223	-4.9
830.395	-28.48
830.568	-52.05
830.74	-50.7
830.912	-8.65
831.084	-14.79
831.256	-3.82
831.428	4.39
831.6	-5.9
831.772	-44.11
831.943	-42.36
832.115	-24.97
832.287	-17.31
832.459	0.87
832.631	31.78
832.803	65.26
832.975	87.02
833.146	91.45
833.318	79.49
833.49	74.61
833.662	48.74
833.833	23.45
834.005	20.49
834.177	24.43
834.348	16.53
834.52	2.51
834.692	0.57
834.863	-11.15
835.035	-0.45
835.206	-51.79
835.378	-28.29
835.549	-20.78
835.721	7.56
835.892	22.6
836.064	44.24
836.235	55.19
836.407	85.19
836.578	54.22
836.749	42.74
836.921	-34.69
837.092	-66.98
837.264	-79.82
837.435	-93.64
837.606	-37.34
837.777	19.6
837.949	50.84
838.12	48.23
838.291	60.99
838.462	44.47
838.633	15.85
838.805	7.14
838.976	12.24
839.147	-36.99
839.318	-63.99
839.489	-117.86
839.66	-130.48
839.831	-75.56
840.002	-54.27
840.173	-66.66
840.344	5.45
840.515	8.3
840.686	-45.04
840.857	1.3
841.028	36.27
841.199	4.49
841.369	-20.39
841.54	-23.35
841.711	-21.6
841.882	12.07
842.053	9.73
842.223	-3.95
842.394	5.89
842.565	10.86
842.736	2.25
842.906	-2.12
843.077	15.14
843.248	23.32
843.418	24.54
843.589	-6.78
843.759	40.65
843.93	28.45
844.101	8.63
844.271	21.36
844.442	25.16
844.612	37.6
844.783	8.09
844.953	-26.9
845.123	-40.34
845.294	-33.89
845.464	-299.78
845.635	-152.92
845.805	-27.38
845.975	-9.9
846.146	-48.48
846.316	-35.89
846.486	-2.03
846.656	30.75
846.827	30.21
846.997	40.19
847.167	83.98
847.337	36.45
847.507	-14.82
847.677	-18.61
847.848	23.87
848.018	17.37
848.188	20.92
848.358	-2.14
848.528	-24.03
848.698	-63.54
848.868	-182.38
849.038	-299.21
849.208	-89.23
849.378	-39.57
849.548	-32.33
849.718	4.5
849.887	18.33
850.057	-11.77
850.227	-53.44
850.397	-64
850.567	-155.45
850.737	-235.76
850.906	-921.56
851.076	-641.6
851.246	-310.6
851.415	-26.68
851.585	-35.36
851.755	-46.78
851.924	0.64
852.094	-20.61
852.264	-78.15
852.433	-694.47
852.603	-118.63
852.772	-75.51
852.942	-46.35
853.111	-36.42
853.281	0.44
853.45	50.33
853.62	-14.43
853.789	2.27
853.959	57.97
854.128	-1.78
854.297	-68.84
854.467	-88.34
854.636	-83.53
854.805	-53.67
854.975	-43.13
855.144	-57.33
855.313	65.56
855.482	-365.15
855.652	-170.86
855.821	-169.84
855.99	10.89
856.159	33.18
856.328	43.77
856.497	22.16
856.667	33.41
856.836	30.69
857.005	2.97
857.174	-5.42
857.343	15.04
857.512	61.77
857.681	-42.15
857.85	-80.96
858.019	-43.5
858.188	-36.61
858.356	-72.66
858.525	-104.27
858.694	-97.84
858.863	-208.4
859.032	-174.78
859.201	-224.43
859.369	-155.17
859.538	-84.73
859.707	-69.58
859.876	-80.78
860.044	-78.34
860.213	10.71
860.382	-8.41
860.55	-2.13
860.719	36.32
860.888	38.28
861.056	14.44
861.225	-3.51
861.393	29.1
861.562	-20.18
861.73	-89.5
861.899	-342.02
862.067	-2200.86
862.236	-120.68
862.404	-195.17
862.572	-84.45
862.741	6.93
862.909	5.52
863.078	-120.59
863.246	-107.52
863.414	-128.01
863.582	-117.45
863.751	-120.33
863.919	-78.04
864.087	-18.04
864.255	-22.86
864.424	-346.31
864.592	-61.14
864.76	-70.58
864.928	-225
865.096	-146.89
865.264	-77.43
865.432	-1709.66
865.6	-197.63
865.768	-162.32
865.936	-138.94
866.104	-148.83
866.272	-105.7
866.44	-209.94
866.608	394.16
866.776	190.26
866.944	1847.09
867.112	-411.55
867.28	-188.22
867.448	-54.22
867.615	12.91
867.783	35.43
867.951	15.71
868.119	0.81
868.286	-38.83
868.454	-192.14
868.622	-248.27
868.789	-322.27
868.957	-2930.36
869.125	-1845.39
869.292	-131.76
869.46	-98.2
869.627	30.46
869.795	-11.92
869.963	7.81
870.13	21.2
870.298	11.34
870.465	-58.48
870.632	-96.08
870.8	-55.65
870.967	-81.96
871.135	-126.27
871.302	-124.31
871.469	-83.46
871.637	-159.88
871.804	-112.99
871.971	-155.78
872.139	-535.47
872.306	-59.09
872.473	-82.76
872.64	-376.93
872.807	-180.93
872.975	15.66
873.142	-251.73
873.309	2260.14
873.476	6.86
873.643	85.52
873.81	23.26
873.977	37.45
874.144	35.57
874.311	-76.06
874.478	-119.87
874.645	-152.98
874.812	-56.63
874.979	-5.5
875.146	-26.02
875.313	-73.47
875.48	-14.45
875.647	-39.2
875.813	-70.57
875.98	-58.71
876.147	-61.01
876.314	-119.71
876.481	859.71
876.647	-1064.33
876.814	448.83
876.981	-59.71
877.147	-16.91
877.314	2.53
877.481	16.32
877.647	28.74
877.814	-21.37
877.98	-77.83
878.147	-43.47
878.314	11.13
878.48	-27.86
878.647	-21.15
878.813	44.78
878.979	50.59
879.146	6.97
879.312	22.76
879.479	0.12
879.645	-94.31
879.811	-217.43
879.978	-526.15
880.144	-227.32
880.31	-58.85
880.477	-229.56
880.643	-318.75
880.809	-74.68
880.975	-2.17
881.142	-552.95
881.308	-57.28
881.474	-33.75
881.64	-133.83
881.806	-187.06
881.972	-61.77
882.138	-67.63
882.304	-26.59
882.47	-105.64
882.636	-532.99
882.802	-177.47
882.968	-15.72
883.134	-31.47
883.3	-34.97
883.466	7.7
883.632	49.76
883.798	-1.15
883.964	-17.57
884.129	-20.61
884.295	-25.37
884.461	-118.48
884.627	-125.85
884.793	-132.83
884.958	-74.41
885.124	-185.2
885.29	-242.06
885.455	-506.43
885.621	-177.16
885.787	-237.34
885.952	-106.51
886.118	-114.02
886.283	-92.1
886.449	-155.47
886.614	-168.08
886.78	-322.79
886.945	1321.72
887.111	-719.22
887.276	-701.85
887.442	-1259.32
887.607	-562.85
887.773	-390.53
887.938	-298.24
888.103	-366.64
888.269	-273.57
888.434	-531.49
888.599	-199.59
888.764	-110.6
888.93	-37.12
889.095	-28.43
889.26	-36.29
889.425	-24.04
889.59	37.36
889.756	-17.01
889.921	-7.88
890.086	30.02
890.251	14.18
890.416	-116.53
890.581	-1092.34
890.746	171.16
890.911	326.27
891.076	144.22
891.241	-366.6
891.406	7.93
891.571	-72.33
891.736	-376.72
891.901	-819.69
892.065	994.78
892.23	200.04
892.395	237.62
892.56	337.93
892.725	-121.29
892.889	-371.34
893.054	-83.99
893.219	-25.84
893.384	14.76
893.548	-64.91
893.713	-73.28
893.878	-45.91
