Data from Ofra_PS_T2_2A_8HS23_Reflection_2.txt Node
Date: Wed Jul 21 17:20:25 EDT 2021
User: Adam
Spectrometer: FLMT01687
Trigger mode: 0
Integration Time (sec): 1.100000E0
Scans to average: 2
Electric dark correction enabled: true
Nonlinearity correction enabled: false
Boxcar width: 2
XAxis mode: Wavelengths
Number of Pixels in Spectrum: 3648
>>>>>Begin Spectral Data<<<<<
179.494	753.8
179.716	800
179.937	707.31
180.158	682.06
180.38	1024.53
180.601	269.2
180.823	54.8
181.044	-57.7
181.265	84.74
181.486	5.16
181.708	58.49
181.929	247.45
182.15	-175
182.372	152.62
182.593	12.11
182.814	34.38
183.035	57.7
183.257	63.82
183.478	18.24
183.699	70.89
183.92	28.99
184.141	32.83
184.363	-31.75
184.584	7.9
184.805	2.34
185.026	32.79
185.247	31.49
185.468	24.56
185.689	25.11
185.91	37.15
186.132	19.46
186.353	12.12
186.574	61.15
186.795	52.39
187.016	5.07
187.237	-0.68
187.458	-29.88
187.679	-28.91
187.9	-12.61
188.121	7.11
188.342	19.7
188.563	60.61
188.784	88.64
189.005	71.68
189.226	100.39
189.447	106.67
189.667	37.26
189.888	-198.65
190.109	-691.23
190.33	-492.42
190.551	-925
190.772	-132.51
190.993	-69.75
191.214	-76.26
191.434	-44.55
191.655	25.25
191.876	-19.94
192.097	-97.25
192.318	-148.41
192.538	-211.51
192.759	-177.41
192.98	-90.77
193.201	-36.7
193.421	-16.94
193.642	-0.75
193.863	2.3
194.083	-17.83
194.304	-31.75
194.525	-25.71
194.745	-43.04
194.966	-71.37
195.187	-56.33
195.407	-66.54
195.628	-141.1
195.848	-133.16
196.069	-127.59
196.29	-83.01
196.51	-105.92
196.731	-80.69
196.951	-111.6
197.172	-105.41
197.392	-171.16
197.613	-152.8
197.833	-189.39
198.054	-152.8
198.274	-78.63
198.495	-84.32
198.715	-39.71
198.936	-51.68
199.156	-44.95
199.377	-182.21
199.597	-161
199.817	-168.27
200.038	-69.13
200.258	-106.66
200.479	-1.78
200.699	30.52
200.919	49.71
201.14	-7.42
201.36	-31.21
201.58	-0.08
201.801	19.91
202.021	-24.57
202.241	-14.32
202.461	-12.81
202.682	-108.79
202.902	-172.11
203.122	-83.29
203.342	-64.45
203.563	-4.37
203.783	24.57
204.003	10.16
204.223	-2.69
204.443	32.34
204.663	7.04
204.884	5.15
205.104	28.92
205.324	17.55
205.544	-0.45
205.764	8.78
205.984	10.47
206.204	19.45
206.424	20.44
206.644	-17.77
206.864	3.59
207.084	-27.78
207.304	1.29
207.525	-94.14
207.745	-18.81
207.964	11.71
208.184	-46.6
208.404	-101.09
208.624	-94.59
208.844	-74.42
209.064	-377.02
209.284	-346.18
209.504	-132.5
209.724	-5.34
209.944	-23.62
210.164	8.5
210.384	15.09
210.604	7.24
210.823	-37.48
211.043	-52.55
211.263	-33.23
211.483	-32.63
211.703	-84.79
211.922	-74.08
212.142	12.94
212.362	20.68
212.582	4.96
212.801	7.12
213.021	-16.34
213.241	-61.5
213.461	-95.46
213.68	-105.92
213.9	-48.25
214.12	-5.25
214.339	-44.38
214.559	-22.85
214.779	23.93
214.998	2.37
215.218	-32.2
215.438	-16.91
215.657	-10.93
215.877	-22.2
216.096	7.84
216.316	34.71
216.535	32.25
216.755	14.69
216.974	-60.27
217.194	-129.25
217.413	-153.25
217.633	-165.03
217.852	-243.23
218.072	-88.01
218.291	-31.94
218.511	3.64
218.73	-14.32
218.95	-21.38
219.169	-30.55
219.389	-76.1
219.608	-64.56
219.827	-53.19
220.047	-24.78
220.266	2.25
220.485	15.12
220.705	35.82
220.924	14.24
221.143	31.29
221.363	0.6
221.582	-0.75
221.801	1.17
222.021	23.1
222.24	-36.21
222.459	29.73
222.678	-4.17
222.897	-108.43
223.117	-143.31
223.336	-124.09
223.555	-102.42
223.774	-17.61
223.993	6.19
224.213	58.42
224.432	61.75
224.651	71.91
224.87	21.46
225.089	40.5
225.308	28.49
225.527	35.62
225.746	33.34
225.965	37.56
226.184	17.31
226.404	26.17
226.623	-9.26
226.842	-15.28
227.061	13.8
227.28	18.22
227.499	-10.65
227.718	19.56
227.936	23.56
228.155	26.29
228.374	18.26
228.593	25.66
228.812	31.3
229.031	19.76
229.25	-40.3
229.469	-38.96
229.688	-24.47
229.907	-1.24
230.125	11.2
230.344	26.98
230.563	41.81
230.782	55.45
231.001	-24.67
231.22	-12.93
231.438	18.14
231.657	5.19
231.876	-10.83
232.095	46.58
232.313	43.05
232.532	1.85
232.751	-29.57
232.969	-34.38
233.188	-144.45
233.407	-60.84
233.625	-14.13
233.844	-27.05
234.063	-23.69
234.281	6.83
234.5	-14
234.719	-16.35
234.937	9.26
235.156	25.24
235.374	21.07
235.593	25.14
235.811	9.79
236.03	-10.14
236.249	-58.26
236.467	-51.47
236.686	-12.35
236.904	4.57
237.123	-16.94
237.341	-12.81
237.559	-3.53
237.778	-30.86
237.996	-51.76
238.215	12.91
238.433	4.48
238.652	1.79
238.87	-8.27
239.088	-0.8
239.307	-13.87
239.525	-1.02
239.743	-50.02
239.962	-28.04
240.18	-41.74
240.398	-82.52
240.617	-94.52
240.835	-52.94
241.053	-33.29
241.271	17.66
241.49	21.23
241.708	11.06
241.926	11.78
242.144	-17.91
242.363	-79.28
242.581	-64.36
242.799	-17.43
243.017	12.95
243.235	3.67
243.453	26.93
243.672	9.6
243.89	-6.01
244.108	-26
244.326	-7.65
244.544	-25.14
244.762	-21.36
244.98	-9.5
245.198	7.18
245.416	-7.96
245.634	-1.55
245.852	0.62
246.07	-2.51
246.288	-11.15
246.506	-35.48
246.724	-6.19
246.942	-15.02
247.16	9.41
247.378	13.7
247.596	27.02
247.814	38.26
248.032	16.47
248.25	11.85
248.468	16.26
248.685	36.47
248.903	46.05
249.121	57.96
249.339	36.17
249.557	25.83
249.775	18.15
249.992	-55.64
250.21	-55.5
250.428	-37.17
250.646	-65.63
250.863	-76.67
251.081	-41.18
251.299	-33.82
251.517	-28.8
251.734	-2.16
251.952	-25.48
252.17	-16.08
252.387	-5.29
252.605	-15.93
252.823	-13.02
253.04	18.51
253.258	29.42
253.475	30.6
253.693	38.2
253.911	23.21
254.128	21.44
254.346	18.35
254.563	8.37
254.781	-1.96
254.998	-17.72
255.216	-18.71
255.433	-0.34
255.651	14.42
255.868	53.51
256.086	96.06
256.303	72.83
256.521	46.86
256.738	21.32
256.956	-13.11
257.173	-42.66
257.39	-62.2
257.608	-92.18
257.825	9.91
258.043	49.58
258.26	44.89
258.477	80.05
258.695	76.77
258.912	-6.55
259.129	-1.15
259.346	-45.75
259.564	-93.1
259.781	-106.56
259.998	-19.09
260.216	3.35
260.433	48.85
260.65	60.19
260.867	86.82
261.084	40.28
261.302	20.95
261.519	26.63
261.736	-8.99
261.953	-32.6
262.17	21.14
262.387	-18.79
262.604	-48.73
262.822	-34.32
263.039	-38.54
263.256	-88.59
263.473	-33.11
263.69	-10.2
263.907	18
264.124	16.81
264.341	13.81
264.558	5.11
264.775	5.34
264.992	-1.92
265.209	11.25
265.426	41.5
265.643	47.08
265.86	61.3
266.077	58.12
266.294	63.83
266.51	-1.15
266.727	-34.67
266.944	-23.93
267.161	-29.03
267.378	-22.57
267.595	6.94
267.812	-1.77
268.028	-27.42
268.245	-0.88
268.462	-14.67
268.679	-14.84
268.896	37.26
269.112	52.13
269.329	31.17
269.546	18.37
269.763	12.71
269.979	-15.53
270.196	-39.28
270.413	-54.25
270.629	-63.42
270.846	-68.78
271.063	-53.61
271.279	-59.82
271.496	-59.11
271.712	-6.21
271.929	22.22
272.146	23.05
272.362	6.43
272.579	33.09
272.795	27.47
273.012	20.92
273.228	20.28
273.445	14.97
273.661	-16.42
273.878	-69.79
274.094	-63.85
274.311	-95.4
274.527	-8.37
274.744	-7.5
274.96	-7.24
275.177	3.23
275.393	26.14
275.609	13.34
275.826	44.24
276.042	40.36
276.259	13.65
276.475	14.64
276.691	15.39
276.908	-10.07
277.124	8.92
277.34	14.09
277.557	13.64
277.773	-6.39
277.989	-14.92
278.205	-18.01
278.422	-4.84
278.638	-7.48
278.854	18.26
279.07	18.06
279.286	9.21
279.503	-16.15
279.719	-39.9
279.935	-76.87
280.151	-72.29
280.367	-34.63
280.583	-42.99
280.799	-15.3
281.016	-29.02
281.232	-8.3
281.448	-28.77
281.664	-0.59
281.88	-33.22
282.096	-10.52
282.312	9.62
282.528	21.1
282.744	34.97
282.96	36.11
283.176	26.91
283.392	20.73
283.608	28.01
283.824	15.44
284.04	26.54
284.256	34.96
284.471	19.01
284.687	1.18
284.903	32.52
285.119	53.66
285.335	33.16
285.551	53.16
285.767	41.8
285.982	13.08
286.198	-24.21
286.414	27.61
286.63	20.41
286.846	34.5
287.061	13.9
287.277	44.03
287.493	24.77
287.709	50.27
287.924	41.36
288.14	78.37
288.356	70.16
288.571	71.86
288.787	44.68
289.003	44.91
289.218	23.91
289.434	-16.82
289.65	-12.92
289.865	-12.52
290.081	6.09
290.296	1.84
290.512	18.79
290.727	-16.27
290.943	-19.77
291.159	-37.32
291.374	-28.32
291.59	-47.36
291.805	-32.17
292.021	-20.11
292.236	-16.06
292.451	-7.53
292.667	-1.19
292.882	10.13
293.098	-0.27
293.313	-14.26
293.529	-43.25
293.744	-63.29
293.959	-66.35
294.175	-52.89
294.39	-11.57
294.605	12.05
294.821	40.9
295.036	47.08
295.251	58.77
295.467	51.59
295.682	44.11
295.897	-10.66
296.112	-21.47
296.328	-36.49
296.543	-76.11
296.758	-70.64
296.973	0.31
297.188	28.61
297.404	-0.07
297.619	-3.22
297.834	-21.03
298.049	-51.06
298.264	-79.21
298.479	-14.36
298.694	2.57
298.909	31.99
299.125	37.12
299.34	46.76
299.555	26.04
299.77	35.92
299.985	-14.34
300.2	-66.92
300.415	-89.94
300.63	-57.39
300.845	-72.07
301.06	-74.06
301.275	-30.79
301.49	-1.58
301.704	-14.34
301.919	-27.87
302.134	-39.6
302.349	-63.76
302.564	-124.31
302.779	-159.69
302.994	-141.73
303.209	-57.05
303.423	44.04
303.638	69.55
303.853	30.38
304.068	22.16
304.283	19.78
304.497	-6.32
304.712	-37.55
304.927	-13.46
305.142	-14.23
305.356	-14.62
305.571	-8.16
305.786	4.75
306	-16.56
306.215	-12.3
306.43	-37.83
306.644	-25.59
306.859	-0.74
307.074	19.17
307.288	-15.08
307.503	-4.19
307.717	-25.33
307.932	-23.85
308.147	-29.51
308.361	-3.15
308.576	-6.51
308.79	-31.98
309.005	-27.23
309.219	-14.53
309.434	-2.08
309.648	-0.26
309.863	25.89
310.077	30.23
310.292	32.56
310.506	25.33
310.72	26.34
310.935	24.99
311.149	14.36
311.364	32.94
311.578	39.25
311.792	29.42
312.007	32.71
312.221	25.41
312.435	17.68
312.649	-2.64
312.864	40.24
313.078	66.55
313.292	101.08
313.507	100.94
313.721	141.49
313.935	54.43
314.149	32.12
314.363	28.16
314.578	22.52
314.792	24.26
315.006	6.13
315.22	11.09
315.434	18.27
315.648	28.57
315.862	30.24
316.077	38.24
316.291	42.6
316.505	57.09
316.719	49.92
316.933	14.3
317.147	1.25
317.361	-75.31
317.575	-112.54
317.789	-145.91
318.003	-226.4
318.217	-147.98
318.431	-14.22
318.645	45.49
318.859	36.59
319.073	73.97
319.287	42.17
319.5	8
319.714	-40.54
319.928	-51.16
320.142	-79.82
320.356	-6.52
320.57	26.67
320.784	35
320.997	30.51
321.211	36.99
321.425	-36.36
321.639	-77.34
321.853	-30.17
322.066	-9.17
322.28	-16.47
322.494	-0.08
322.707	34.58
322.921	14.94
323.135	1.04
323.349	2.24
323.562	-21.75
323.776	-36.48
323.989	-27.64
324.203	-43.68
324.417	-41.09
324.63	-45.63
324.844	-62.53
325.057	-73.99
325.271	-37.31
325.485	-9.95
325.698	18.2
325.912	29.3
326.125	17.46
326.339	6.45
326.552	-15.77
326.766	-31.16
326.979	-5.31
327.193	20.16
327.406	8.41
327.619	0.08
327.833	17.36
328.046	-11.03
328.26	-45.89
328.473	-18.26
328.686	-37.19
328.9	-28.47
329.113	-0.68
329.326	-11.03
329.54	2.88
329.753	-6.43
329.966	-41.03
330.179	-35.47
330.393	-14.32
330.606	-15.13
330.819	7.44
331.032	34.47
331.246	30.29
331.459	59.84
331.672	49.71
331.885	41.52
332.098	2.22
332.311	-2.93
332.525	-64.22
332.738	-59.26
332.951	-25.6
333.164	13.44
333.377	14.54
333.59	45.07
333.803	56.47
334.016	49.29
334.229	55.68
334.442	81.53
334.655	79.03
334.868	61.56
335.081	55.85
335.294	25.17
335.507	-8.49
335.72	-6.34
335.933	-4.85
336.146	-18.53
336.359	4.92
336.572	-21.24
336.785	-62.47
336.997	-54.86
337.21	-26.81
337.423	-40.34
337.636	-17.48
337.849	14.96
338.062	12.76
338.274	8.51
338.487	-8.34
338.7	-20.22
338.913	-67.48
339.125	-96.5
339.338	-150.41
339.551	-82.68
339.763	-54.28
339.976	-20.57
340.189	9.5
340.402	32.58
340.614	-0.76
340.827	-5.02
341.039	-16.47
341.252	-14.88
341.465	-10.42
341.677	-9.22
341.89	-32.19
342.102	-11.19
342.315	-38.42
342.527	-57.93
342.74	-38.07
342.952	-1.65
343.165	1.45
343.377	39.8
343.59	39.76
343.802	54.84
344.015	57.98
344.227	81.59
344.44	64.8
344.652	52.52
344.864	25.22
345.077	34.81
345.289	28.26
345.502	28.63
345.714	19.78
345.926	25.76
346.139	14.39
346.351	28.03
346.563	42.71
346.775	49.84
346.988	42.98
347.2	36.13
347.412	-22.67
347.624	-53.91
347.837	-61.63
348.049	-28.63
348.261	7.09
348.473	22.28
348.685	12.07
348.897	16.69
349.11	-4.53
349.322	-22.46
349.534	1.28
349.746	18.74
349.958	13.47
350.17	15.9
350.382	21.22
350.594	12.76
350.806	7.84
351.018	12.93
351.23	-2.91
351.442	-52.09
351.654	-68.72
351.866	-49.89
352.078	-41.8
352.29	-3.58
352.502	16.92
352.714	31.97
352.926	15.05
353.138	8.4
353.35	-5.65
353.561	-4.28
353.773	-31.99
353.985	-6.07
354.197	-11.63
354.409	-15.87
354.621	-22.69
354.832	-5.6
355.044	-27.81
355.256	-16.34
355.468	-3.49
355.679	-12.95
355.891	-13.53
356.103	-28.43
356.314	-30.34
356.526	-24.37
356.738	-8.38
356.949	-15.79
357.161	11.12
357.373	-3.61
357.584	-18.07
357.796	-10.28
358.008	-9.22
358.219	8.87
358.431	20.17
358.642	21.57
358.854	18.82
359.065	3.58
359.277	-27.86
359.488	-45.82
359.7	-54.31
359.911	-59.25
360.123	-20.92
360.334	-25.41
360.546	-34.12
360.757	-37.51
360.969	-32.46
361.18	-32.38
361.391	-19.55
361.603	-18.4
361.814	-0.44
362.025	5.59
362.237	-9.11
362.448	12.24
362.659	39.33
362.871	24.37
363.082	11.48
363.293	14.07
363.504	-6.88
363.716	-47.29
363.927	-54.36
364.138	-70.54
364.349	-82.48
364.56	-68.99
364.772	-48.97
364.983	-22.62
365.194	-10.54
365.405	7.59
365.616	21.35
365.827	22.1
366.038	-2.73
366.25	-5.6
366.461	-48.49
366.672	-23.12
366.883	-3.36
367.094	8.63
367.305	-1.99
367.516	9.91
367.727	-19.22
367.938	-35.73
368.149	-40.73
368.36	-22.6
368.571	-8.5
368.781	-18.62
368.992	-31.78
369.203	-41.88
369.414	-65.44
369.625	-76.64
369.836	-62.11
370.047	-71.34
370.258	-49.77
370.468	-41.3
370.679	-58.08
370.89	-61.17
371.101	-39.77
371.312	-39.82
371.522	-39.43
371.733	-29.52
371.944	-10.77
372.155	1.41
372.365	-12.74
372.576	-3.47
372.787	-6.13
372.997	-22.8
373.208	-27.75
373.419	11.64
373.629	-30.08
373.84	-20.43
374.05	-28.22
374.261	-20.52
374.472	-37.88
374.682	29.93
374.893	22.56
375.103	55.12
375.314	45.74
375.524	37.66
375.735	26
375.945	46.38
376.156	9.95
376.366	10.15
376.577	15.48
376.787	2.86
376.997	-1.06
377.208	12.77
377.418	8.38
377.629	6.57
377.839	1.58
378.049	1.91
378.26	11.53
378.47	19.78
378.68	19.34
378.89	17.24
379.101	6.57
379.311	-23.3
379.521	-47.93
379.732	-54.2
379.942	-38.9
380.152	-53.16
380.362	-10.53
380.572	-7.94
380.783	2.58
380.993	2.5
381.203	17.03
381.413	18.98
381.623	16.88
381.833	16.59
382.043	8.21
382.253	2.77
382.463	-4.47
382.674	-7.17
382.884	-26
383.094	-20.19
383.304	-14.67
383.514	-11.69
383.724	-1.75
383.934	-4.71
384.144	-15.74
384.353	-23.34
384.563	-27.5
384.773	-28.12
384.983	-31.64
385.193	-9.69
385.403	-4.87
385.613	-3.07
385.823	-13
386.033	-10.83
386.242	-22.57
386.452	-24.63
386.662	-28.4
386.872	-11.5
387.082	-6.68
387.291	-10.66
387.501	-12.52
387.711	-6.68
387.921	-13.99
388.13	-17.58
388.34	-1.93
388.55	-2.98
388.759	-6.22
388.969	0.84
389.179	3.2
389.388	1.34
389.598	6.15
389.807	1.71
390.017	-3.88
390.227	-1.25
390.436	-4.17
390.646	-6.62
390.855	-0.8
391.065	-0.31
391.274	-4.43
391.484	-5.39
391.693	-1.4
391.903	0.81
392.112	7.04
392.322	11.81
392.531	15.18
392.74	14.43
392.95	7.92
393.159	4.57
393.369	3.71
393.578	1.45
393.787	-0.49
393.997	2.59
394.206	0.79
394.415	1.35
394.625	0.88
394.834	0.04
395.043	0.96
395.252	3.66
395.462	4.58
395.671	6.57
395.88	7.37
396.089	7.32
396.298	5.39
396.508	5.18
396.717	3.86
396.926	4.82
397.135	4.81
397.344	4.96
397.553	5.69
397.762	7.27
397.971	6.71
398.181	6.95
398.39	6.34
398.599	5.46
398.808	4.84
399.017	6.05
399.226	7.37
399.435	8.92
399.644	9.33
399.853	8.55
400.062	7.79
400.27	6.7
400.479	5.8
400.688	4.96
400.897	5.39
401.106	5.68
401.315	5.62
401.524	5.78
401.733	6.38
401.941	6.84
402.15	6.85
402.359	6.54
402.568	6.88
402.777	7.08
402.985	6.57
403.194	6.55
403.403	6.75
403.612	6.12
403.82	5.79
404.029	6.05
404.238	5.93
404.446	6.13
404.655	6.05
404.864	6.1
405.072	5.88
405.281	5.96
405.489	5.63
405.698	5.8
405.906	5.73
406.115	5.83
406.324	5.52
406.532	5.7
406.741	5.95
406.949	6.03
407.158	5.96
407.366	6.17
407.574	6.18
407.783	6.12
407.991	5.76
408.2	5.76
408.408	5.66
408.617	5.58
408.825	5.27
409.033	5.51
409.242	5.65
409.45	5.82
409.658	5.74
409.867	5.97
410.075	5.83
410.283	5.6
410.491	5.43
410.7	5.43
410.908	5.48
411.116	5.6
411.324	5.68
411.533	5.56
411.741	5.77
411.949	5.65
412.157	5.46
412.365	5.46
412.573	5.61
412.781	5.53
412.99	5.46
413.198	5.7
413.406	5.67
413.614	5.57
413.822	5.32
414.03	5.28
414.238	5.05
414.446	5.16
414.654	5.01
414.862	5.16
415.07	5.26
415.278	5.36
415.486	5.11
415.694	5.3
415.902	5.17
416.109	4.98
416.317	4.96
416.525	4.9
416.733	4.67
416.941	4.79
417.149	4.71
417.357	4.78
417.564	4.87
417.772	5.33
417.98	5.29
418.188	5.48
418.395	5.51
418.603	5.67
418.811	5.15
419.019	5.05
419.226	5.2
419.434	5.27
419.642	5
419.849	5.13
420.057	5.21
420.265	5.09
420.472	4.7
420.68	4.89
420.887	4.78
421.095	4.71
421.302	4.61
421.51	4.91
421.717	4.77
421.925	4.95
422.132	4.87
422.34	4.68
422.547	4.75
422.755	4.69
422.962	4.45
423.17	4.41
423.377	4.62
423.585	4.6
423.792	4.67
423.999	4.9
424.207	4.95
424.414	5.09
424.621	5.01
424.829	4.93
425.036	4.92
425.243	4.98
425.451	4.76
425.658	4.46
425.865	4.6
426.072	4.56
426.28	4.97
426.487	4.89
426.694	5.06
426.901	4.99
427.108	5.01
427.315	4.6
427.523	4.9
427.73	4.96
427.937	4.94
428.144	4.79
428.351	4.84
428.558	4.96
428.765	4.85
428.972	4.82
429.179	5.14
429.386	5.56
429.593	5.25
429.8	5.21
430.007	5.5
430.214	5.45
430.421	5.07
430.628	5
430.835	4.9
431.042	4.93
431.249	5.05
431.456	5.06
431.662	5.26
431.869	5.56
432.076	5.54
432.283	5.55
432.49	5.63
432.697	5.67
432.903	5.46
433.11	5.42
433.317	5.49
433.524	5.71
433.73	5.6
433.937	5.94
434.144	5.87
434.35	5.78
434.557	5.55
434.764	5.77
434.97	5.64
435.177	5.98
435.384	5.97
435.59	6.1
435.797	6.2
436.003	6.28
436.21	6.15
436.416	6.27
436.623	6.32
436.829	6.38
437.036	6.46
437.242	6.38
437.449	6.37
437.655	6.31
437.862	6.27
438.068	6.25
438.275	6.47
438.481	6.67
438.687	6.75
438.894	6.74
439.1	6.72
439.307	6.83
439.513	6.71
439.719	6.71
439.926	6.82
440.132	6.77
440.338	6.6
440.544	6.71
440.751	6.7
440.957	6.75
441.163	6.74
441.369	6.86
441.575	6.65
441.782	6.72
441.988	6.55
442.194	6.6
442.4	6.57
442.606	6.88
442.812	6.95
443.018	7.15
443.224	7.26
443.431	7.37
443.637	7.21
443.843	7.16
444.049	7.11
444.255	7.07
444.461	7.01
444.667	6.99
444.873	7.09
445.079	7.08
445.284	7.23
445.49	7.12
445.696	7.05
445.902	6.95
446.108	6.87
446.314	6.81
446.52	6.89
446.726	7.14
446.931	7.21
447.137	7.35
447.343	7.41
447.549	7.35
447.755	7.27
447.96	7.3
448.166	7.29
448.372	7.17
448.578	7.26
448.783	7.23
448.989	7.29
449.195	7.39
449.4	7.41
449.606	7.38
449.812	7.31
450.017	7.31
450.223	7.24
450.428	7.33
450.634	7.51
450.84	7.71
451.045	7.65
451.251	7.6
451.456	7.74
451.662	7.75
451.867	7.74
452.073	7.78
452.278	7.94
452.483	7.97
452.689	7.88
452.894	7.94
453.1	7.9
453.305	7.83
453.51	7.87
453.716	7.79
453.921	7.76
454.127	7.78
454.332	7.7
454.537	7.55
454.742	7.59
454.948	7.55
455.153	7.56
455.358	7.73
455.563	7.89
455.769	8.1
455.974	8.1
456.179	8.09
456.384	8.14
456.589	7.97
456.795	7.65
457	7.64
457.205	7.81
457.41	7.7
457.615	7.8
457.82	7.91
458.025	7.9
458.23	7.8
458.435	7.85
458.64	7.75
458.845	7.95
459.05	7.95
459.255	7.98
459.46	7.93
459.665	7.97
459.87	7.99
460.075	8.07
460.28	8.06
460.485	8.2
460.69	8.26
460.895	8.01
461.099	8.04
461.304	8.17
461.509	8.13
461.714	8.08
461.919	8.27
462.123	8.17
462.328	8.2
462.533	8.18
462.738	8.35
462.942	8.28
463.147	8.38
463.352	8.34
463.556	8.35
463.761	8.32
463.966	8.47
464.17	8.52
464.375	8.43
464.58	8.39
464.784	8.35
464.989	8.23
465.193	8.21
465.398	8.28
465.602	8.4
465.807	8.39
466.011	8.53
466.216	8.58
466.42	8.67
466.625	8.84
466.829	9
467.034	8.97
467.238	9.15
467.443	9.11
467.647	8.87
467.851	8.81
468.056	8.82
468.26	8.64
468.464	8.65
468.669	8.84
468.873	9.02
469.077	9.09
469.282	9.21
469.486	9.27
469.69	9.25
469.894	9.09
470.099	9.1
470.303	9.21
470.507	9.13
470.711	9.09
470.915	9.02
471.119	9.02
471.324	8.89
471.528	8.95
471.732	9.06
471.936	9.1
472.14	9.14
472.344	9.19
472.548	9.25
472.752	9.46
472.956	9.79
473.16	9.78
473.364	9.75
473.568	9.82
473.772	9.72
473.976	9.5
474.18	9.51
474.384	9.52
474.588	9.5
474.792	9.38
474.995	9.51
475.199	9.63
475.403	9.72
475.607	9.75
475.811	9.76
476.015	9.74
476.218	9.82
476.422	9.68
476.626	9.71
476.83	9.84
477.033	9.76
477.237	9.64
477.441	9.79
477.644	9.81
477.848	9.86
478.052	9.91
478.255	9.94
478.459	9.98
478.663	10.03
478.866	10.01
479.07	10.09
479.273	10.27
479.477	10.36
479.681	10.35
479.884	10.3
480.088	10.31
480.291	10.17
480.495	10.15
480.698	10.22
480.901	10.23
481.105	10.27
481.308	10.31
481.512	10.27
481.715	10.31
481.919	10.37
482.122	10.38
482.325	10.45
482.529	10.49
482.732	10.51
482.935	10.48
483.138	10.42
483.342	10.47
483.545	10.6
483.748	10.58
483.952	10.68
484.155	10.84
484.358	10.81
484.561	10.71
484.764	10.7
484.967	10.71
485.171	10.74
485.374	10.72
485.577	10.83
485.78	10.91
485.983	10.9
486.186	10.75
486.389	10.76
486.592	10.69
486.795	10.73
486.998	10.66
487.201	10.82
487.404	10.86
487.607	10.94
487.81	10.85
488.013	10.92
488.216	10.86
488.419	10.86
488.622	10.78
488.825	10.73
489.028	10.75
489.231	10.66
489.433	10.52
489.636	10.53
489.839	10.62
490.042	10.53
490.245	10.59
490.447	10.74
490.65	10.73
490.853	10.68
491.056	10.76
491.258	10.77
491.461	10.73
491.664	10.87
491.866	10.88
492.069	10.96
492.272	10.88
492.474	10.93
492.677	10.92
492.879	10.97
493.082	10.99
493.285	11.16
493.487	11.13
493.69	11.01
493.892	10.9
494.095	10.85
494.297	10.81
494.5	10.9
494.702	10.94
494.905	11.06
495.107	11.05
495.309	11.02
495.512	11.04
495.714	11.12
495.917	11.15
496.119	11.1
496.321	11.23
496.524	11.19
496.726	11.19
496.928	11.17
497.13	11.2
497.333	11.12
497.535	11.23
497.737	11.24
497.939	11.24
498.142	11.31
498.344	11.25
498.546	11.1
498.748	11.16
498.95	11.29
499.152	11.2
499.355	11.34
499.557	11.42
499.759	11.48
499.961	11.36
500.163	11.42
500.365	11.39
500.567	11.49
500.769	11.33
500.971	11.38
501.173	11.35
501.375	11.38
501.577	11.24
501.779	11.29
501.981	11.37
502.183	11.38
502.385	11.35
502.587	11.37
502.788	11.51
502.99	11.5
503.192	11.54
503.394	11.53
503.596	11.54
503.798	11.5
503.999	11.53
504.201	11.54
504.403	11.54
504.605	11.65
504.806	11.57
505.008	11.55
505.21	11.67
505.411	11.71
505.613	11.6
505.815	11.63
506.016	11.69
506.218	11.67
506.42	11.7
506.621	11.83
506.823	11.91
507.024	11.85
507.226	11.83
507.427	11.81
507.629	11.88
507.83	11.97
508.032	11.96
508.233	12.04
508.435	12.17
508.636	12.23
508.838	12.09
509.039	12.16
509.24	12.13
509.442	12.11
509.643	11.94
509.845	12.01
510.046	12.07
510.247	12.13
510.448	12.08
510.65	12.23
510.851	12.38
511.052	12.41
511.254	12.38
511.455	12.56
511.656	12.54
511.857	12.57
512.058	12.48
512.26	12.43
512.461	12.33
512.662	12.38
512.863	12.29
513.064	12.35
513.265	12.45
513.466	12.51
513.667	12.51
513.868	12.48
514.069	12.58
514.27	12.65
514.471	12.58
514.672	12.56
514.873	12.61
515.074	12.63
515.275	12.57
515.476	12.59
515.677	12.61
515.878	12.74
516.079	12.66
516.28	12.68
516.481	12.79
516.682	12.86
516.882	12.75
517.083	12.78
517.284	12.75
517.485	12.67
517.686	12.59
517.886	12.59
518.087	12.67
518.288	12.71
518.488	12.78
518.689	12.85
518.89	12.8
519.091	12.76
519.291	12.75
519.492	12.74
519.692	12.71
519.893	12.86
520.094	12.86
520.294	12.82
520.495	12.83
520.695	12.91
520.896	12.87
521.096	12.87
521.297	12.98
521.497	12.93
521.698	12.8
521.898	12.81
522.099	12.85
522.299	12.92
522.499	13.02
522.7	13.12
522.9	13.07
523.101	13.12
523.301	13.13
523.501	13.05
523.702	13.05
523.902	13.14
524.102	13.13
524.302	13.04
524.503	13.1
524.703	13.14
524.903	13.12
525.103	13.06
525.304	13.17
525.504	13.25
525.704	13.24
525.904	13.28
526.104	13.28
526.304	13.21
526.504	13.23
526.705	13.26
526.905	13.26
527.105	13.33
527.305	13.36
527.505	13.27
527.705	13.21
527.905	13.19
528.105	13.17
528.305	13.13
528.505	13.16
528.705	13.22
528.905	13.22
529.105	13.2
529.304	13.24
529.504	13.29
529.704	13.21
529.904	13.24
530.104	13.28
530.304	13.39
530.503	13.39
530.703	13.4
530.903	13.36
531.103	13.41
531.303	13.33
531.502	13.31
531.702	13.43
531.902	13.52
532.101	13.46
532.301	13.46
532.501	13.53
532.7	13.46
532.9	13.46
533.1	13.54
533.299	13.59
533.499	13.6
533.698	13.61
533.898	13.66
534.097	13.63
534.297	13.7
534.496	13.66
534.696	13.71
534.895	13.82
535.095	13.91
535.294	13.86
535.494	13.88
535.693	13.85
535.892	13.84
536.092	13.74
536.291	13.72
536.491	13.78
536.69	13.93
536.889	13.84
537.088	13.89
537.288	13.98
537.487	14.02
537.686	14
537.886	14.04
538.085	14.09
538.284	14.19
538.483	14.18
538.682	14.21
538.882	14.27
539.081	14.32
539.28	14.25
539.479	14.24
539.678	14.23
539.877	14.27
540.076	14.26
540.275	14.24
540.474	14.34
540.673	14.42
540.872	14.36
541.071	14.4
541.27	14.42
541.469	14.41
541.668	14.38
541.867	14.42
542.066	14.46
542.265	14.57
542.464	14.51
542.663	14.61
542.862	14.76
543.06	14.82
543.259	14.93
543.458	15
543.657	15.08
543.856	15.02
544.054	14.97
544.253	14.9
544.452	14.94
544.651	14.94
544.849	14.92
545.048	15.03
545.247	15.03
545.445	15.09
545.644	15.03
545.843	15.06
546.041	15.1
546.24	15.24
546.438	15.36
546.637	15.44
546.836	15.6
547.034	15.67
547.233	15.67
547.431	15.7
547.63	15.79
547.828	15.81
548.027	15.79
548.225	15.77
548.423	15.79
548.622	15.87
548.82	15.88
549.019	16
549.217	16.13
549.415	16.2
549.614	16.24
549.812	16.28
550.01	16.27
550.209	16.31
550.407	16.38
550.605	16.34
550.803	16.47
551.002	16.5
551.2	16.58
551.398	16.69
551.596	16.88
551.794	16.9
551.993	17.04
552.191	17.12
552.389	17.22
552.587	17.19
552.785	17.27
552.983	17.3
553.181	17.37
553.379	17.41
553.577	17.46
553.775	17.55
553.973	17.67
554.171	17.73
554.369	17.71
554.567	17.82
554.765	17.86
554.963	17.92
555.161	17.88
555.359	17.98
555.557	18.18
555.755	18.27
555.952	18.42
556.15	18.52
556.348	18.58
556.546	18.67
556.744	18.67
556.941	18.65
557.139	18.83
557.337	18.98
557.535	18.92
557.732	19.1
557.93	19.29
558.128	19.28
558.325	19.39
558.523	19.43
558.721	19.58
558.918	19.59
559.116	19.76
559.313	19.74
559.511	19.94
559.708	19.94
559.906	20.04
560.104	20.11
560.301	20.28
560.498	20.28
560.696	20.42
560.893	20.54
561.091	20.64
561.288	20.75
561.486	20.92
561.683	20.97
561.88	20.98
562.078	21.12
562.275	21.12
562.473	21.22
562.67	21.42
562.867	21.63
563.064	21.66
563.262	21.73
563.459	21.86
563.656	21.99
563.853	22.08
564.051	22.26
564.248	22.47
564.445	22.57
564.642	22.6
564.839	22.74
565.036	22.89
565.234	23.11
565.431	23.19
565.628	23.31
565.825	23.46
566.022	23.61
566.219	23.6
566.416	23.79
566.613	23.98
566.81	24
567.007	24.03
567.204	24.1
567.401	24.12
567.598	24.11
567.795	24.13
567.991	24.14
568.188	24.22
568.385	24.41
568.582	24.46
568.779	24.67
568.976	24.84
569.172	24.96
569.369	24.86
569.566	24.98
569.763	25.09
569.96	25.06
570.156	25.19
570.353	25.35
570.55	25.42
570.746	25.42
570.943	25.55
571.14	25.48
571.336	25.45
571.533	25.52
571.729	25.55
571.926	25.69
572.123	25.96
572.319	26.13
572.516	26.07
572.712	26.15
572.909	26.03
573.105	26.03
573.302	26.04
573.498	26.27
573.695	26.25
573.891	26.37
574.087	26.33
574.284	26.38
574.48	26.27
574.677	26.28
574.873	26.26
575.069	26.43
575.266	26.43
575.462	26.45
575.658	26.52
575.854	26.62
576.051	26.56
576.247	26.52
576.443	26.48
576.639	26.5
576.835	26.46
577.032	26.47
577.228	26.64
577.424	26.76
577.62	26.67
577.816	26.71
578.012	26.69
578.208	26.59
578.404	26.66
578.6	26.76
578.796	26.8
578.993	26.8
579.189	26.78
579.384	26.64
579.58	26.57
579.776	26.49
579.972	26.38
580.168	26.36
580.364	26.45
580.56	26.51
580.756	26.56
580.952	26.61
581.148	26.69
581.343	26.66
581.539	26.64
581.735	26.63
581.931	26.69
582.127	26.75
582.322	26.74
582.518	26.82
582.714	26.9
582.909	26.92
583.105	26.77
583.301	26.73
583.496	26.73
583.692	26.54
583.888	26.48
584.083	26.55
584.279	26.57
584.474	26.46
584.67	26.54
584.866	26.52
585.061	26.33
585.257	26.4
585.452	26.5
585.648	26.45
585.843	26.55
586.039	26.77
586.234	26.78
586.429	26.71
586.625	26.81
586.82	26.8
587.015	26.74
587.211	26.66
587.406	26.81
587.601	26.74
587.797	26.69
587.992	26.72
588.187	26.8
588.383	26.68
588.578	26.69
588.773	26.71
588.968	26.73
589.163	26.76
589.359	26.79
589.554	26.81
589.749	26.88
589.944	26.91
590.139	26.97
590.334	27.07
590.529	27.18
590.724	27.26
590.919	27.39
591.114	27.35
591.309	27.44
591.504	27.46
591.699	27.39
591.894	27.41
592.089	27.4
592.284	27.33
592.479	27.38
592.674	27.4
592.869	27.43
593.064	27.61
593.259	27.84
593.454	27.96
593.648	28.12
593.843	28.18
594.038	28.16
594.233	28.08
594.428	28.1
594.622	28.11
594.817	28.19
595.012	28.31
595.206	28.39
595.401	28.4
595.596	28.37
595.79	28.48
595.985	28.5
596.18	28.6
596.374	28.71
596.569	28.84
596.763	28.86
596.958	29
597.153	29.04
597.347	28.99
597.542	29.18
597.736	29.15
597.931	29.22
598.125	29.27
598.319	29.44
598.514	29.45
598.708	29.58
598.903	29.52
599.097	29.6
599.291	29.63
599.486	29.6
599.68	29.59
599.874	29.67
600.069	29.64
600.263	29.67
600.457	29.88
600.651	29.94
600.846	30.02
601.04	30.13
601.234	30.23
601.428	30.22
601.622	30.29
601.817	30.36
602.011	30.44
602.205	30.47
602.399	30.4
602.593	30.36
602.787	30.42
602.981	30.4
603.175	30.38
603.369	30.45
603.563	30.55
603.757	30.52
603.951	30.57
604.145	30.53
604.339	30.57
604.533	30.48
604.727	30.41
604.921	30.26
605.115	30.31
605.309	30.32
605.502	30.4
605.696	30.4
605.89	30.43
606.084	30.37
606.278	30.25
606.471	30.17
606.665	30.03
606.859	29.89
607.053	29.98
607.246	30.01
607.44	30.02
607.634	30.06
607.827	30.07
608.021	29.86
608.214	29.75
608.408	29.56
608.602	29.49
608.795	29.58
608.989	29.52
609.182	29.4
609.376	29.47
609.569	29.44
609.763	29.21
609.956	29.14
610.15	29.06
610.343	28.97
610.537	28.88
610.73	28.96
610.923	28.99
611.117	29.12
611.31	29.09
611.504	28.97
611.697	28.85
611.89	28.7
612.083	28.49
612.277	28.46
612.47	28.33
612.663	28.19
612.856	28.11
613.05	28.09
613.243	27.98
613.436	27.92
613.629	27.86
613.822	27.76
614.015	27.69
614.209	27.51
614.402	27.57
614.595	27.55
614.788	27.44
614.981	27.29
615.174	27.22
615.367	27.11
615.56	27.04
615.753	27.04
615.946	27.02
616.139	27.07
616.332	27.12
616.525	27.13
616.718	27.2
616.911	27.12
617.103	27.02
617.296	26.96
617.489	26.89
617.682	26.74
617.875	26.78
618.067	26.69
618.26	26.59
618.453	26.48
618.646	26.45
618.838	26.39
619.031	26.51
619.224	26.52
619.417	26.57
619.609	26.64
619.802	26.62
619.994	26.55
620.187	26.53
620.38	26.55
620.572	26.38
620.765	26.44
620.957	26.29
621.15	26.15
621.342	26.05
621.535	26.1
621.727	26
621.92	25.96
622.112	25.93
622.305	25.97
622.497	25.89
622.69	25.84
622.882	25.83
623.074	25.9
623.267	25.73
623.459	25.67
623.651	25.62
623.844	25.68
624.036	25.59
624.228	25.63
624.42	25.63
624.613	25.77
624.805	25.78
624.997	25.76
625.189	25.72
625.381	25.75
625.574	25.52
625.766	25.41
625.958	25.38
626.15	25.43
626.342	25.38
626.534	25.45
626.726	25.46
626.918	25.46
627.11	25.37
627.302	25.29
627.494	25.25
627.686	25.21
627.878	25.1
628.07	25.05
628.262	25.05
628.454	25
628.646	25.03
628.838	25.05
629.029	25.06
629.221	25.05
629.413	25
629.605	24.94
629.797	24.87
629.989	24.82
630.18	24.79
630.372	24.73
630.564	24.63
630.755	24.74
630.947	24.78
631.139	24.68
631.33	24.63
631.522	24.78
631.714	24.65
631.905	24.58
632.097	24.5
632.289	24.49
632.48	24.32
632.672	24.22
632.863	24.07
633.055	24.14
633.246	24.13
633.438	24.12
633.629	24.14
633.821	24.27
634.012	24.26
634.203	24.2
634.395	24.21
634.586	24.23
634.777	24.05
634.969	24.02
635.16	24.14
635.351	24.04
635.543	24.1
635.734	24.26
635.925	24.23
636.117	24.21
636.308	24.33
636.499	24.22
636.69	24.09
636.881	24.05
637.073	24.13
637.264	24
637.455	24.05
637.646	24.19
637.837	24.3
638.028	24.14
638.219	24.29
638.41	24.21
638.601	24.07
638.792	24.07
638.983	24.04
639.174	23.86
639.365	23.87
639.556	23.83
639.747	23.7
639.938	23.72
640.129	23.75
640.32	23.71
640.511	23.77
640.701	23.82
640.892	23.8
641.083	23.91
641.274	23.97
641.465	23.91
641.655	23.8
641.846	23.75
642.037	23.67
642.228	23.54
642.418	23.6
642.609	23.64
642.8	23.68
642.99	23.51
643.181	23.53
643.372	23.48
643.562	23.46
643.753	23.43
643.943	23.46
644.134	23.43
644.324	23.36
644.515	23.26
644.705	23.25
644.896	23.38
645.086	23.4
645.277	23.33
645.467	23.44
645.658	23.42
645.848	23.35
646.038	23.33
646.229	23.34
646.419	23.22
646.61	23.15
646.8	23.04
646.99	23
647.18	22.99
647.371	23.05
647.561	23.09
647.751	23.15
647.941	23.13
648.132	23.15
648.322	23.05
648.512	23.01
648.702	22.97
648.892	22.93
649.082	22.81
649.272	22.69
649.462	22.58
649.653	22.5
649.843	22.48
650.033	22.56
650.223	22.7
650.413	22.68
650.603	22.76
650.793	22.7
650.983	22.6
651.172	22.44
651.362	22.41
651.552	22.15
651.742	22.06
651.932	22.03
652.122	22.11
652.312	22.19
652.502	22.28
652.691	22.26
652.881	22.22
653.071	22.07
653.261	21.81
653.45	21.57
653.64	21.53
653.83	21.35
654.019	21.34
654.209	21.27
654.399	21.34
654.588	21.19
654.778	21.11
654.968	20.86
655.157	20.78
655.347	20.64
655.536	20.49
655.726	20.31
655.915	20.18
656.105	19.92
656.294	19.73
656.484	19.57
656.673	19.57
656.863	19.6
657.052	19.54
657.241	19.25
657.431	19.01
657.62	18.77
657.809	18.33
657.999	18.1
658.188	18.05
658.377	17.96
658.567	17.81
658.756	17.76
658.945	17.62
659.134	17.48
659.324	17.29
659.513	17.09
659.702	16.9
659.891	16.89
660.08	16.76
660.269	16.7
660.458	16.52
660.648	16.33
660.837	16.06
661.026	15.97
661.215	15.77
661.404	15.63
661.593	15.52
661.782	15.2
661.971	15
662.16	14.77
662.349	14.63
662.538	14.39
662.726	14.39
662.915	14.23
663.104	14.17
663.293	14.17
663.482	14.31
663.671	14.15
663.86	14
664.048	13.93
664.237	13.71
664.426	13.43
664.615	13.41
664.803	13.29
664.992	13.18
665.181	13.09
665.369	12.97
665.558	12.91
665.747	12.82
665.935	12.79
666.124	12.72
666.312	12.67
666.501	12.48
666.69	12.35
666.878	12.24
667.067	12.09
667.255	12.2
667.444	12.48
667.632	12.65
667.82	12.66
668.009	12.62
668.197	12.52
668.386	12.32
668.574	12.34
668.762	12.24
668.951	12.19
669.139	12.16
669.327	12.1
669.516	12.08
669.704	12.01
669.892	12.21
670.08	12.05
670.269	11.91
670.457	11.7
670.645	11.56
670.833	11.59
671.021	11.73
671.21	11.91
671.398	12.14
671.586	12.23
671.774	12.01
671.962	11.88
672.15	11.81
672.338	11.59
672.526	11.6
672.714	11.55
672.902	11.65
673.09	11.86
673.278	12.03
673.466	12.08
673.654	12.34
673.842	12.35
674.03	12.29
674.218	12.3
674.405	12.28
674.593	12.24
674.781	12.36
674.969	12.38
675.157	12.6
675.344	12.78
675.532	12.81
675.72	12.82
675.908	12.83
676.095	12.69
676.283	12.78
676.471	13.03
676.658	12.98
676.846	13
677.033	13.17
677.221	13.22
677.409	13.04
677.596	13.27
677.784	13.38
677.971	13.49
678.159	13.6
678.346	13.67
678.534	13.76
678.721	14.01
678.909	13.99
679.096	14.02
679.283	14.24
679.471	14.27
679.658	14.32
679.846	14.51
680.033	14.8
680.22	14.93
680.408	15.04
680.595	15
680.782	14.99
680.969	15.04
681.157	15.05
681.344	15.25
681.531	15.41
681.718	15.5
681.905	15.59
682.093	15.88
682.28	16.15
682.467	16.46
682.654	16.75
682.841	16.94
683.028	17.21
683.215	17.27
683.402	17.28
683.589	17.55
683.776	17.91
683.963	17.93
684.15	18.13
684.337	18.54
684.524	18.72
684.711	19.01
684.898	19.16
685.085	19.46
685.271	19.76
685.458	19.99
685.645	19.97
685.832	20.45
686.019	20.78
686.205	21.04
686.392	21.43
686.579	21.85
686.766	22.25
686.952	22.52
687.139	22.98
687.326	23.26
687.512	23.58
687.699	23.97
687.886	24.27
688.072	24.52
688.259	24.97
688.445	25.56
688.632	25.78
688.818	26.57
689.005	27.22
689.191	27.53
689.378	28
689.564	28.66
689.751	28.93
689.937	29.25
690.124	29.98
690.31	30.39
690.496	30.67
690.683	31.33
690.869	31.92
691.055	32.45
691.242	33.21
691.428	33.92
691.614	34.5
691.8	35.17
691.987	35.85
692.173	36.53
692.359	37.11
692.545	37.64
692.731	38.15
692.918	38.92
693.104	39.49
693.29	40.17
693.476	40.86
693.662	41.4
693.848	41.69
694.034	41.96
694.22	42.32
694.406	43.15
694.592	43.76
694.778	44.39
694.964	44.78
695.15	45.57
695.336	45.66
695.522	46.54
695.708	47.01
695.894	48.01
696.08	48.78
696.265	49.35
696.451	49.48
696.637	50.16
696.823	50.55
697.009	50.77
697.194	51.49
697.38	51.93
697.566	52.45
697.751	53.21
697.937	54.06
698.123	54.37
698.308	55.04
698.494	55.43
698.68	55.79
698.865	56.09
699.051	56.89
699.236	57.28
699.422	57.82
699.607	57.92
699.793	58.43
699.978	58.36
700.164	58.68
700.349	59.02
700.535	59.64
700.72	59.58
700.906	60.26
701.091	60.52
701.276	60.97
701.462	61.61
701.647	62.5
701.832	62.83
702.018	63.14
702.203	63.6
702.388	63.59
702.573	63.76
702.759	64.33
702.944	64.82
703.129	64.8
703.314	65.1
703.499	65.27
703.684	65.23
703.87	66.27
704.055	66.97
704.24	67.16
704.425	67.86
704.61	68.72
704.795	68.41
704.98	68.36
705.165	68.48
705.35	68.36
705.535	68.3
705.72	68.48
705.905	69.01
706.09	69.84
706.275	70
706.459	69.71
706.644	69.72
706.829	69.69
707.014	69.53
707.199	69.99
707.384	70.71
707.568	71
707.753	71.34
707.938	71.72
708.123	71.65
708.307	71.66
708.492	71.98
708.677	71.98
708.861	71.68
709.046	71.7
709.231	72.12
709.415	72.47
709.6	72.38
709.784	72.71
709.969	73.07
710.153	72.75
710.338	72.5
710.522	73.06
710.707	73.75
710.891	73.84
711.076	73.78
711.26	74.02
711.445	73.95
711.629	73.49
711.813	73.48
711.998	74.15
712.182	73.89
712.366	74.4
712.551	75.19
712.735	75.21
712.919	75.01
713.103	75.58
713.288	75.09
713.472	74.68
713.656	75.65
713.84	75.77
714.024	75.85
714.208	75.82
714.393	75.86
714.577	75.51
714.761	75.7
714.945	75.8
715.129	75.97
715.313	76.1
715.497	75.83
715.681	76.54
715.865	76.47
716.049	76.73
716.233	76.52
716.417	76.72
716.601	76.02
716.785	76.08
716.968	76.38
717.152	76.5
717.336	76.84
717.52	77.14
717.704	77.32
717.888	77.33
718.071	77.34
718.255	77.31
718.439	77.24
718.622	77.32
718.806	77.31
718.99	77.19
719.174	76.89
719.357	77.12
719.541	77.02
719.724	77.07
719.908	78.24
720.092	79.07
720.275	78.96
720.459	78.72
720.642	78.16
720.826	77.69
721.009	77.24
721.193	76.6
721.376	76.97
721.559	77.55
721.743	77.39
721.926	77.84
722.11	78.32
722.293	78.27
722.476	77.61
722.66	77.75
722.843	77.48
723.026	77.17
723.21	77.18
723.393	78.9
723.576	78.95
723.759	78.63
723.942	79.16
724.126	79.4
724.309	79.03
724.492	78.96
724.675	79.05
724.858	79.49
725.041	79.65
725.224	79.2
725.407	79.16
725.59	79.29
725.774	78.86
725.957	78.41
726.14	78.1
726.322	78.22
726.505	78.02
726.688	78.76
726.871	78.9
727.054	79.16
727.237	79.22
727.42	79.71
727.603	79.29
727.786	79.56
727.968	80.14
728.151	80.55
728.334	80.21
728.517	79.88
728.699	80.66
728.882	79.93
729.065	79.86
729.248	80.64
729.43	81.03
729.613	80.83
729.796	81.99
729.978	81.91
730.161	81.01
730.343	81.15
730.526	81.71
730.708	80.89
730.891	81.06
731.073	81.58
731.256	81.26
731.438	80.44
731.621	81.31
731.803	81.38
731.986	81.78
732.168	81.67
732.35	81.8
732.533	81.16
732.715	81.23
732.898	81.71
733.08	82.08
733.262	82.74
733.444	82.43
733.627	82.67
733.809	82.84
733.991	83.94
734.173	82.86
734.355	82.92
734.538	83.23
734.72	82.58
734.902	82.16
735.084	83.05
735.266	83.23
735.448	83.22
735.63	83.09
735.812	82.81
735.994	83.91
736.176	84.51
736.358	84
736.54	85.02
736.722	84.18
736.904	82.67
737.086	82.82
737.268	83.92
737.45	83.48
737.632	84.26
737.814	84.03
737.995	83.23
738.177	82.8
738.359	82.04
738.541	82.52
738.723	84.2
738.904	85.06
739.086	84.47
739.268	85.06
739.449	85.03
739.631	83.78
739.813	84.03
739.994	84.65
740.176	84.87
740.358	84.19
740.539	85.02
740.721	85.3
740.902	85.94
741.084	85.76
741.265	86.05
741.447	86.19
741.628	86.07
741.81	84.94
741.991	85.54
742.172	87.24
742.354	87.24
742.535	86.81
742.717	87.93
742.898	87.83
743.079	87.72
743.261	87.13
743.442	86.73
743.623	86.92
743.804	87.12
743.986	86.13
744.167	84.67
744.348	85.37
744.529	84.58
744.71	83.78
744.891	83.01
745.073	83.23
745.254	82.32
745.435	82.22
745.616	82.28
745.797	82.54
745.978	82.68
746.159	83.16
746.34	82.77
746.521	84.17
746.702	83.11
746.883	84.07
747.064	83.42
747.245	83.71
747.426	81.79
747.606	82.67
747.787	82.44
747.968	83.36
748.149	83.22
748.33	84.21
748.51	84.69
748.691	84.27
748.872	85.05
749.053	86.16
749.233	84.79
749.414	84.21
749.595	84.68
749.775	82.36
749.956	80.66
750.137	81.56
750.317	82.31
750.498	82.73
750.678	84.08
750.859	85.41
751.04	85.64
751.22	84.04
751.4	83.81
751.581	82.37
751.761	82.29
751.942	81.85
752.122	82.85
752.303	80.88
752.483	82.56
752.663	81.26
752.844	80.04
753.024	82.37
753.204	85.02
753.385	83.66
753.565	84.53
753.745	85.97
753.925	82.96
754.106	81.91
754.286	81.76
754.466	81.89
754.646	82.2
754.826	82.02
755.006	81.56
755.187	83.02
755.367	82.89
755.547	82.8
755.727	84.55
755.907	85.1
756.087	85.66
756.267	83.92
756.447	83.48
756.627	79.83
756.807	80.17
756.987	79.12
757.167	80.63
757.346	81.21
757.526	82.72
757.706	82.64
757.886	82.43
758.066	82.59
758.246	83.24
758.425	83.46
758.605	82.42
758.785	82.51
758.965	82.88
759.144	81.36
759.324	82.85
759.504	84.27
759.683	84.29
759.863	83.28
760.043	83.83
760.222	82.11
760.402	81.33
760.581	81.14
760.761	82.3
760.94	81.08
761.12	83.44
761.299	84.17
761.479	83.61
761.658	81.19
761.838	81.75
762.017	80.21
762.197	79.74
762.376	79.29
762.555	81.53
762.735	82.95
762.914	81.57
763.093	81.99
763.273	81.63
763.452	81.17
763.631	79.69
763.81	79.56
763.99	79.1
764.169	79.92
764.348	77.18
764.527	75.94
764.706	79.03
764.885	78.98
765.064	77.67
765.243	79.1
765.423	81.04
765.602	79.86
765.781	77.18
765.96	76.52
766.139	76.66
766.318	77.24
766.497	75.56
766.676	77.36
766.854	79.4
767.033	79.92
767.212	79.43
767.391	79.44
767.57	79.83
767.749	79.87
767.928	79.66
768.106	77.57
768.285	75.96
768.464	76.17
768.643	76.32
768.821	76.03
769	78.46
769.179	79.04
769.357	77.71
769.536	75.73
769.715	75.66
769.893	75.49
770.072	76.51
770.25	77.54
770.429	79.66
770.607	79.45
770.786	78.26
770.964	78.82
771.143	78.33
771.321	78.95
771.5	81.27
771.678	79.55
771.857	78.47
772.035	78.74
772.213	76.75
772.392	73.88
772.57	74.73
772.748	75.66
772.927	73.53
773.105	73.48
773.283	74.2
773.461	75.64
773.64	77.03
773.818	78.85
773.996	79.63
774.174	79.67
774.352	76.4
774.531	73.19
774.709	74.7
774.887	75
775.065	74.28
775.243	75.99
775.421	77
775.599	76.48
775.777	73.03
775.955	70.98
776.133	69.63
776.311	70.23
776.489	67.49
776.667	70.1
776.844	72.58
777.022	72.25
777.2	70.88
777.378	71.93
777.556	72.29
777.734	74.86
777.911	78.86
778.089	80.64
778.267	80.1
778.445	77.06
778.622	73.23
778.8	70.21
778.978	73.39
779.155	72.23
779.333	76.01
779.511	75.36
779.688	76.28
779.866	69.24
780.043	67.82
780.221	65.2
780.398	65.18
780.576	66.87
780.753	70.61
780.931	73.56
781.108	73.1
781.286	76.66
781.463	71.44
781.64	65.54
781.818	67.68
781.995	68.02
782.172	64.65
782.35	65.35
782.527	71.02
782.704	65.86
782.882	66.71
783.059	66.67
783.236	69.47
783.413	68.92
783.59	70.53
783.768	68.84
783.945	71.99
784.122	73.72
784.299	73.65
784.476	71.96
784.653	71.29
784.83	66.22
785.007	59.92
785.184	60.74
785.361	61.29
785.538	68.17
785.715	75.18
785.892	81.02
786.069	81.64
786.246	81.85
786.423	78.23
786.6	73.69
786.776	74.74
786.953	72.22
787.13	74.27
787.307	74.1
787.484	74.22
787.66	68.53
787.837	69.74
788.014	68.82
788.191	65.95
788.367	63.09
788.544	67.25
788.721	64.45
788.897	64.54
789.074	65
789.25	64.14
789.427	63.53
789.603	65.68
789.78	67.58
789.956	68.83
790.133	68.1
790.309	66.37
790.486	70.8
790.662	66.45
790.839	61.81
791.015	66.85
791.192	66.24
791.368	66.4
791.544	65.58
791.721	67.16
791.897	64.56
792.073	61.17
792.249	50.81
792.426	56.38
792.602	64.82
792.778	64.66
792.954	65.67
793.13	69.97
793.307	61.82
793.483	48.7
793.659	51.12
793.835	56.93
794.011	55.43
794.187	57.14
794.363	60.54
794.539	64.55
794.715	57.15
794.891	58.26
795.067	59.32
795.243	65.31
795.419	59.83
795.595	60.72
795.771	60.05
795.947	62.96
796.122	59.96
796.298	61.24
796.474	64.45
796.65	63.36
796.826	60.76
797.001	61.19
797.177	58.07
797.353	62.5
797.529	66.85
797.704	66.36
797.88	60.93
798.056	61.05
798.231	57.2
798.407	59.29
798.582	60.08
798.758	69.56
798.934	76.16
799.109	71.93
799.285	66.71
799.46	70.18
799.636	64.81
799.811	61.57
799.986	65.68
800.162	68.24
800.337	63.42
800.513	58.92
800.688	58.68
800.863	63.23
801.039	56.7
801.214	57.22
801.389	63.13
801.565	58.23
801.74	49.07
801.915	60
802.09	61.46
802.265	63.31
802.441	64.41
802.616	63.47
802.791	57.46
802.966	60.17
803.141	58.78
803.316	55.75
803.491	60.45
803.666	65.33
803.841	61.4
804.016	58.41
804.191	57.87
804.366	55.09
804.541	47.78
804.716	46.24
804.891	40.15
805.066	51.01
805.241	47.86
805.416	48.98
805.591	48.02
805.765	52.15
805.94	47.73
806.115	53.31
806.29	51.17
806.464	49.32
806.639	47.98
806.814	40.08
806.989	29.38
807.163	37.38
807.338	47.07
807.512	41.78
807.687	39.81
807.862	61.25
808.036	63.27
808.211	60.32
808.385	73.51
808.56	86.08
808.734	76.52
808.909	66.71
809.083	61.6
809.258	67.37
809.432	63.8
809.606	54.69
809.781	59.93
809.955	61.21
810.13	53.43
810.304	41.18
810.478	39.82
810.652	44.38
810.827	43.28
811.001	37.98
811.175	47.1
811.349	48.23
811.524	36.7
811.698	31.77
811.872	37.12
812.046	45.14
812.22	55.59
812.394	54.03
812.568	58.68
812.742	58.86
812.916	43.96
813.09	33.6
813.264	34.08
813.438	42.37
813.612	35.88
813.786	38.92
813.96	51.6
814.134	55.22
814.308	62.09
814.482	72.07
814.656	69.39
814.83	64.86
815.003	72.51
815.177	55.92
815.351	48.53
815.525	49.29
815.698	46.4
815.872	34.74
816.046	30.86
816.219	38.73
816.393	50.64
816.567	55.1
816.74	58.27
816.914	66.08
817.088	58.39
817.261	41.2
817.435	25.15
817.608	35.87
817.782	28.23
817.955	42.18
818.129	48.63
818.302	53.68
818.475	51.33
818.649	54.22
818.822	43.8
818.996	57.19
819.169	54.82
819.342	43.66
819.516	56.28
819.689	61.39
819.862	47.73
820.035	46.23
820.209	48.74
820.382	39.39
820.555	39.44
820.728	25.75
820.901	23.07
821.075	27.18
821.248	29.09
821.421	22.1
821.594	36.83
821.767	57.34
821.94	71.68
822.113	49.14
822.286	45.33
822.459	57.36
822.632	57.93
822.805	44.88
822.978	43.58
823.151	52.26
823.324	29.27
823.496	-4.52
823.669	-16.44
823.842	5.69
824.015	-16.3
824.188	8.06
824.361	26.63
824.533	31.26
824.706	38.49
824.879	40.98
825.051	38.57
825.224	40.91
825.397	38.3
825.569	17.26
825.742	40.26
825.915	43.11
826.087	51.64
826.26	43.47
826.432	50.39
826.605	53.41
826.777	34.15
826.95	33.25
827.122	21.34
827.295	25.77
827.467	27.3
827.64	6.54
827.812	1.63
827.984	16.37
828.157	-3.71
828.329	-48.32
828.501	-20.92
828.674	-4.6
828.846	-17.32
829.018	22.06
829.19	17.21
829.363	39.8
829.535	45.49
829.707	61.07
829.879	31.91
830.051	37.07
830.223	14.38
830.395	-31.86
830.568	-50.33
830.74	-52.06
830.912	-18.39
831.084	-15.68
831.256	6.31
831.428	13.51
831.6	-1.52
831.772	-46.39
831.943	-59.74
832.115	-31.94
832.287	0.48
832.459	15.69
832.631	27.01
832.803	44.74
832.975	46.57
833.146	17.86
833.318	15.88
833.49	25.65
833.662	13.2
833.833	-2.29
834.005	10.79
834.177	26.11
834.348	27.65
834.52	23.31
834.692	39.98
834.863	2.58
835.035	-17.44
835.206	-67.54
835.378	-42.38
835.549	-48.48
835.721	-27.99
835.892	-32.78
836.064	-12.57
836.235	-12.61
836.407	18.74
836.578	-9.89
836.749	24.32
836.921	-5.27
837.092	-33.18
837.264	-51.48
837.435	-31.54
837.606	-5.59
837.777	21.92
837.949	35.4
838.12	24.84
838.291	21.54
838.462	16.22
838.633	-3.2
838.805	2.23
838.976	18.41
839.147	-19.07
839.318	-47.02
839.489	-74.89
839.66	-75.76
839.831	-25.98
840.002	-7.39
840.173	-24.11
840.344	47.39
840.515	24.83
840.686	-157.85
840.857	-103.33
841.028	-94.19
841.199	-107.08
841.369	-98.64
841.54	-65.36
841.711	-28.59
841.882	4.25
842.053	-14.61
842.223	-11.19
842.394	8.34
842.565	-2.74
842.736	2.99
842.906	2.45
843.077	18.92
843.248	23.15
843.418	16.01
843.589	-26.53
843.759	37.55
843.93	31.77
844.101	7.96
844.271	20.8
844.442	39.03
844.612	37.33
844.783	1.88
844.953	-21.37
845.123	-21.34
845.294	-61.22
845.464	-263.66
845.635	-114.93
845.805	14.84
845.975	3.2
846.146	-18.11
846.316	-14.74
846.486	3.69
846.656	13.83
846.827	8.45
846.997	6.12
847.167	41.39
847.337	34.93
847.507	-23.06
847.677	-14.61
847.848	35.75
848.018	23.61
848.188	24.49
848.358	14.41
848.528	-4.93
848.698	-42.26
848.868	-129.28
849.038	-222.11
849.208	-40.13
849.378	36.42
849.548	24.91
849.718	39.26
849.887	62.13
850.057	30.84
850.227	-20.87
850.397	-54.53
850.567	-161.15
850.737	-440.11
850.906	-1449.06
851.076	-912.7
851.246	-343.06
851.415	-53.8
851.585	-50.62
851.755	-76.12
851.924	-26.72
852.094	-77.01
852.264	-187.44
852.433	-1178.13
852.603	-231.99
852.772	-246.16
852.942	-112.52
853.111	-94.26
853.281	-55.65
853.45	-15.44
853.62	-85
853.789	-82.13
853.959	-43.18
854.128	-49.56
854.297	-104.91
854.467	-109.25
854.636	-142.25
854.805	-62.26
854.975	-81.36
855.144	-124.45
855.313	22.2
855.482	-222.08
855.652	-220.16
855.821	-220.13
855.99	-21.37
856.159	-4.48
856.328	4.12
856.497	-12.85
856.667	21.43
856.836	21.72
857.005	-10.86
857.174	-17.35
857.343	-15.56
857.512	-6.89
857.681	-81.97
857.85	-120.54
858.019	-63.82
858.188	-39.93
858.356	-74.85
858.525	-119.02
858.694	-98.45
858.863	-243.27
859.032	-272.71
859.201	-360.62
859.369	-291.14
859.538	-263.24
859.707	-211.12
859.876	-185.73
860.044	-154.96
860.213	-38.5
860.382	-22.62
860.55	11.71
860.719	36.86
860.888	35.34
861.056	17.52
861.225	-6.99
861.393	35.41
861.562	56.73
861.73	12.06
861.899	-24.21
862.067	-1380.17
862.236	-114.04
862.404	-301.22
862.572	-206.65
862.741	-64.26
862.909	-38.51
863.078	-131.21
863.246	-73.49
863.414	-39.89
863.582	-52.41
863.751	-84.45
863.919	-92.44
864.087	-67.58
864.255	-81.97
864.424	-513.25
864.592	-94.52
864.76	-163.37
864.928	-469
865.096	-221.1
865.264	-101.42
865.432	-1359.66
865.6	-38.12
865.768	-116.65
865.936	-145.1
866.104	-151.28
866.272	-187.89
866.44	-351.28
866.608	484.92
866.776	216.14
866.944	2493.6
867.112	-497.56
867.28	-204.74
867.448	-78.48
867.615	-18.8
867.783	8.44
867.951	-13.6
868.119	30.57
868.286	0.27
868.454	-117.64
868.622	-185.74
868.789	-206.86
868.957	-5216.07
869.125	-3374.34
869.292	-263.45
869.46	-290.08
869.627	-26.19
869.795	-38.03
869.963	3.76
870.13	28.93
870.298	86.29
870.465	-20.53
870.632	-46.44
870.8	-13.15
870.967	-55.37
871.135	-210.01
871.302	-148.92
871.469	-158.9
871.637	-255.6
871.804	-161.21
871.971	-195.9
872.139	-593.6
872.306	-105.3
872.473	-116.79
872.64	-350.75
872.807	-141.64
872.975	24.05
873.142	-141.18
873.309	1430.41
873.476	62.45
873.643	164.58
873.81	83.99
873.977	98.65
874.144	66.82
874.311	-90.65
874.478	-178.18
874.645	-218.73
874.812	-185.02
874.979	-116.73
875.146	-105.84
875.313	-97.45
875.48	2.77
875.647	-8.72
875.813	-22.78
875.98	-17.77
876.147	-42.09
876.314	-120.9
876.481	915.91
876.647	-1144.1
876.814	426.55
876.981	36.44
877.147	23.54
877.314	16.4
877.481	40.45
877.647	34.93
877.814	-10.02
877.98	-36.1
878.147	14.91
878.314	51.64
878.48	21.89
878.647	18.22
878.813	54.96
878.979	32.41
879.146	8.87
879.312	7.74
879.479	-3.2
879.645	-89.63
879.811	-253.08
879.978	-820.8
880.144	-219.45
880.31	-129.37
880.477	-349.62
880.643	-363.82
880.809	-106.82
880.975	-87.69
881.142	-772.95
881.308	-99.27
881.474	-37.94
881.64	-59.08
881.806	-88.69
881.972	-15.64
882.138	-19.11
882.304	35.95
882.47	-99.01
882.636	-475.61
882.802	-116.96
882.968	21.23
883.134	-5.59
883.3	8.96
883.466	38.59
883.632	62.2
883.798	24.8
883.964	12.7
884.129	-10.7
884.295	-10.47
884.461	-35.92
884.627	-80.75
884.793	-90.58
884.958	-26.43
885.124	-113.16
885.29	-257.84
885.455	-424.39
885.621	-92.11
885.787	-142.22
885.952	-45.94
886.118	-43.22
886.283	-27.89
886.449	-111.57
886.614	-110.04
886.78	-284.33
886.945	1064.34
887.111	-616.33
887.276	-604.12
887.442	-1132.95
887.607	-449.17
887.773	-325.24
887.938	-261.16
888.103	-256.73
888.269	-177.48
888.434	-376.89
888.599	-123.99
888.764	-16.65
888.93	2.91
889.095	-16.71
889.26	-32.71
889.425	2.21
889.59	52.33
889.756	-3.97
889.921	-15.72
890.086	20.6
890.251	8.6
890.416	-184.95
890.581	-1250.4
890.746	138.66
890.911	254.94
891.076	120.91
891.241	-159.89
891.406	83.81
891.571	104.21
891.736	-83.14
891.901	-147.12
892.065	34.34
892.23	114.09
892.395	233.32
892.56	344.58
892.725	-542.38
892.889	-1971.34
893.054	-287.15
893.219	-118.42
893.384	-35.58
893.548	-89.4
893.713	-104.12
893.878	-66
