Data from Ofra_PS_T2_2A_6GT17_Reflection_3.txt Node
Date: Wed Jul 21 17:18:06 EDT 2021
User: Adam
Spectrometer: FLMT01687
Trigger mode: 0
Integration Time (sec): 1.100000E0
Scans to average: 2
Electric dark correction enabled: true
Nonlinearity correction enabled: false
Boxcar width: 2
XAxis mode: Wavelengths
Number of Pixels in Spectrum: 3648
>>>>>Begin Spectral Data<<<<<
179.494	559.2
179.716	590.82
179.937	594.56
180.158	534
180.38	783.75
180.601	208.84
180.823	98.21
181.044	-173.46
181.265	88.24
181.486	42.63
181.708	109.47
181.929	661.22
182.15	-477.46
182.372	73.99
182.593	-48.08
182.814	16.01
183.035	58.96
183.257	34.4
183.478	-45.32
183.699	62.8
183.92	28.3
184.141	55.11
184.363	8.23
184.584	86.32
184.805	40.97
185.026	66.64
185.247	29.18
185.468	26.76
185.689	4.58
185.91	19.37
186.132	9.38
186.353	40.87
186.574	95.35
186.795	78.62
187.016	45.5
187.237	21.03
187.458	-35.82
187.679	-15.62
187.9	7.68
188.121	-6.95
188.342	9.73
188.563	65.43
188.784	69.43
189.005	54.71
189.226	134.51
189.447	130.35
189.667	100.49
189.888	-211.33
190.109	-1012.99
190.33	-692.9
190.551	-1245.13
190.772	-266.59
190.993	-145.35
191.214	-122.49
191.434	-83.23
191.655	13.99
191.876	-23.98
192.097	-68.71
192.318	-102.05
192.538	-126.69
192.759	-140.13
192.98	-33.98
193.201	-10.21
193.421	5.22
193.642	19.98
193.863	28.3
194.083	5.27
194.304	-6.61
194.525	-6.51
194.745	-27.3
194.966	-54.11
195.187	-69.93
195.407	-79.08
195.628	-120.97
195.848	-113.2
196.069	-97.16
196.29	-47.86
196.51	-87.76
196.731	-87.78
196.951	-93.91
197.172	-111.49
197.392	-156.76
197.613	-163.98
197.833	-174.21
198.054	-169.9
198.274	-108.94
198.495	-130.35
198.715	-75.8
198.936	-101.75
199.156	-67.53
199.377	-162.71
199.597	-106.22
199.817	-130.49
200.038	-44.77
200.258	-116.03
200.479	-41.42
200.699	-37.1
200.919	51.8
201.14	2.77
201.36	4.83
201.58	41.86
201.801	57.72
202.021	19.94
202.241	24.26
202.461	31.43
202.682	-55.03
202.902	-107.31
203.122	-59.94
203.342	-57.41
203.563	-45.3
203.783	-13.56
204.003	-62.6
204.223	-51.81
204.443	20.39
204.663	32.28
204.884	51.57
205.104	93.89
205.324	121.58
205.544	76.98
205.764	75.44
205.984	72.41
206.204	64.71
206.424	45.64
206.644	32.65
206.864	44.63
207.084	14.69
207.304	84.64
207.525	93.75
207.745	81.05
207.964	56.37
208.184	3.12
208.404	-77.63
208.624	-82.38
208.844	-88.63
209.064	-391.94
209.284	-435.23
209.504	-187.99
209.724	-42.9
209.944	-21.36
210.164	15.43
210.384	45.9
210.604	36.45
210.823	-21.43
211.043	-38.26
211.263	-25.99
211.483	-40.16
211.703	-102.91
211.922	-77.82
212.142	-8.61
212.362	-12.36
212.582	-19.51
212.801	-5.05
213.021	-4.28
213.241	-20.28
213.461	-49.54
213.68	-64.45
213.9	-46.76
214.12	-21.36
214.339	-68.27
214.559	-63.49
214.779	-7.34
214.998	2.24
215.218	-49.01
215.438	-31.1
215.657	-8.87
215.877	-21.25
216.096	1.54
216.316	14.48
216.535	22.03
216.755	3.87
216.974	-73.15
217.194	-111.72
217.413	-106.7
217.633	-130.26
217.852	-228.6
218.072	-99.8
218.291	-55.04
218.511	-9.53
218.73	-45.25
218.95	-35.63
219.169	-40.21
219.389	-94.57
219.608	-81.14
219.827	-65.26
220.047	-39.77
220.266	-20.01
220.485	3.55
220.705	19.93
220.924	11.03
221.143	29.12
221.363	1
221.582	8.17
221.801	-2.3
222.021	6.69
222.24	-86.73
222.459	13.43
222.678	-27.03
222.897	-79.27
223.117	-131.86
223.336	-73.58
223.555	-65.31
223.774	-14.25
223.993	17.48
224.213	83.42
224.432	41.25
224.651	59.36
224.87	33.71
225.089	44.87
225.308	37.15
225.527	63.78
225.746	58.71
225.965	33.1
226.184	-2.21
226.404	-0.17
226.623	-41.33
226.842	-19.94
227.061	23.41
227.28	29.7
227.499	31.39
227.718	42.2
227.936	21.05
228.155	20.13
228.374	4.59
228.593	6.77
228.812	14.61
229.031	15.25
229.25	-24.4
229.469	-22.12
229.688	-10.52
229.907	12.57
230.125	31.82
230.344	40.4
230.563	53.72
230.782	56.99
231.001	-14.11
231.22	-24.49
231.438	-2
231.657	-0.56
231.876	-9.14
232.095	38.37
232.313	45.96
232.532	44.02
232.751	36.26
232.969	33.66
233.188	-1.5
233.407	51.63
233.625	24.23
233.844	5.81
234.063	3.81
234.281	23.71
234.5	11.3
234.719	4.35
234.937	12.79
235.156	19.84
235.374	15.85
235.593	-7.59
235.811	-3.14
236.03	10.03
236.249	-15.5
236.467	-20.02
236.686	5.89
236.904	18.78
237.123	-16.05
237.341	-16.55
237.559	-10.95
237.778	-30.07
237.996	-68.54
238.215	-3.63
238.433	3.57
238.652	3.13
238.87	-23.41
239.088	-3.99
239.307	-13.04
239.525	-17.33
239.743	-54.49
239.962	-30.52
240.18	-62.58
240.398	-111.12
240.617	-110.15
240.835	-47.28
241.053	-12.3
241.271	51.26
241.49	58.09
241.708	65.28
241.926	20.41
242.144	-2.41
242.363	-71.7
242.581	-98.04
242.799	-58.16
243.017	0.6
243.235	-13.82
243.453	4.38
243.672	-0.53
243.89	-5.49
244.108	-32.41
244.326	-22.75
244.544	-10.28
244.762	-2.18
244.98	11.55
245.198	13.7
245.416	-2.02
245.634	0.21
245.852	-22.56
246.07	-26.51
246.288	1.53
246.506	-31.6
246.724	-28.37
246.942	1.49
247.16	16.35
247.378	7.78
247.596	42.74
247.814	28.43
248.032	-7.61
248.25	-11.72
248.468	-3.44
248.685	5.01
248.903	28.68
249.121	46.55
249.339	23.76
249.557	12.16
249.775	15.3
249.992	-34.8
250.21	-47.19
250.428	-22.97
250.646	-51.37
250.863	-84.63
251.081	-60
251.299	-36.32
251.517	-47.8
251.734	-14.66
251.952	-2.77
252.17	-10.01
252.387	-4.24
252.605	-13.82
252.823	-14.13
253.04	7.34
253.258	33.3
253.475	20.9
253.693	51.86
253.911	60.78
254.128	56.47
254.346	50.96
254.563	36.9
254.781	4.17
254.998	-34.26
255.216	-52.93
255.433	-35.81
255.651	9.79
255.868	45.6
256.086	88.78
256.303	76.84
256.521	58.58
256.738	18.87
256.956	-16.99
257.173	-53.94
257.39	-60.82
257.608	-104.22
257.825	-2.5
258.043	39.36
258.26	56.33
258.477	95.36
258.695	105.92
258.912	35.28
259.129	24.21
259.346	-21.64
259.564	-78.84
259.781	-108.75
259.998	-35.57
260.216	-0.23
260.433	35.35
260.65	38.46
260.867	53.72
261.084	16.36
261.302	-5.6
261.519	-9.8
261.736	-41.95
261.953	-71.05
262.17	-31.19
262.387	-77.14
262.604	-120.78
262.822	-107.66
263.039	-62.42
263.256	-99.48
263.473	-72.97
263.69	-27.65
263.907	5.56
264.124	13.15
264.341	4.63
264.558	17.06
264.775	32.1
264.992	32.14
265.209	20.28
265.426	54.03
265.643	55.46
265.86	49.1
266.077	60.2
266.294	53.39
266.51	2.35
266.727	-19.58
266.944	9.77
267.161	-26.67
267.378	2.08
267.595	15.64
267.812	-12.01
268.028	-53.39
268.245	-4.91
268.462	-48.9
268.679	-45.76
268.896	21.26
269.112	22.88
269.329	5.26
269.546	19.51
269.763	8.73
269.979	-27.89
270.196	-10.91
270.413	-36.84
270.629	-62.07
270.846	-75.05
271.063	-41.83
271.279	-69.2
271.496	-48.97
271.712	-8.58
271.929	21.59
272.146	-6.92
272.362	-1.91
272.579	17.97
272.795	13.1
273.012	6.71
273.228	7.92
273.445	-16.25
273.661	-58.78
273.878	-92.35
274.094	-74.06
274.311	-92.02
274.527	-7.71
274.744	4.19
274.96	15.12
275.177	14.69
275.393	34.63
275.609	11.18
275.826	31.6
276.042	25.53
276.259	1.37
276.475	14.38
276.691	15.45
276.908	-13.91
277.124	7.77
277.34	16.59
277.557	-14.87
277.773	-11.7
277.989	-13.33
278.205	-22.87
278.422	8.51
278.638	27.19
278.854	50.2
279.07	65.34
279.286	60
279.503	12.59
279.719	-11.6
279.935	-53.48
280.151	-82.71
280.367	-41.45
280.583	-39.56
280.799	-32.86
281.016	-44.79
281.232	-0.47
281.448	-10.3
281.664	5.16
281.88	-16.8
282.096	8.39
282.312	19.65
282.528	23.91
282.744	38.95
282.96	38.49
283.176	23.63
283.392	11.03
283.608	3.49
283.824	-6.37
284.04	0.44
284.256	9.19
284.471	6.31
284.687	-0.18
284.903	29.56
285.119	62.18
285.335	41.32
285.551	47.97
285.767	38.58
285.982	16.81
286.198	-33.85
286.414	30.53
286.63	30.3
286.846	51.55
287.061	21.89
287.277	52.43
287.493	7.8
287.709	23.78
287.924	-7.02
288.14	29.31
288.356	9
288.571	35.52
288.787	8.95
289.003	19.5
289.218	3.26
289.434	-29.47
289.65	-11.04
289.865	-0.61
290.081	11.45
290.296	25.55
290.512	29.63
290.727	-24.97
290.943	-32.14
291.159	-35.38
291.374	-38.24
291.59	-57.91
291.805	-43.67
292.021	-40.72
292.236	-34.56
292.451	-13.85
292.667	7.09
292.882	29.79
293.098	29.1
293.313	-3.95
293.529	-47.12
293.744	-58.26
293.959	-81.37
294.175	-59.07
294.39	-22.77
294.605	0.59
294.821	30.01
295.036	43.51
295.251	40.05
295.467	39.96
295.682	34.72
295.897	-13.04
296.112	-23.59
296.328	-6.66
296.543	-29.55
296.758	-28.83
296.973	9.58
297.188	48.01
297.404	17.34
297.619	9.81
297.834	-3.97
298.049	-22.35
298.264	-71.72
298.479	-0.75
298.694	11.07
298.909	28.53
299.125	28.94
299.34	43.39
299.555	5.43
299.77	13.55
299.985	-33.17
300.2	-82.27
300.415	-84.57
300.63	-37.26
300.845	-47.4
301.06	-29.4
301.275	-1.44
301.49	7.74
301.704	-9.57
301.919	-29.35
302.134	-41.47
302.349	-31.76
302.564	-98.19
302.779	-126.53
302.994	-94.51
303.209	-49.14
303.423	-18.99
303.638	32.57
303.853	-1.74
304.068	-15.19
304.283	-10.92
304.497	-19.22
304.712	-26.12
304.927	1.02
305.142	5.37
305.356	19.67
305.571	14.09
305.786	-2.99
306	-25.4
306.215	-13.98
306.43	-49.22
306.644	-34.06
306.859	42.68
307.074	39.04
307.288	-4.41
307.503	4.09
307.717	-10.63
307.932	-27.32
308.147	-35.05
308.361	-6.32
308.576	-14.2
308.79	-57.33
309.005	-46.13
309.219	-26.87
309.434	-28.42
309.648	-33.66
309.863	13.69
310.077	1.94
310.292	-3.25
310.506	-7.78
310.72	2.64
310.935	3.21
311.149	12.82
311.364	36.72
311.578	43.85
311.792	47.61
312.007	35.18
312.221	9.01
312.435	9.15
312.649	-5.17
312.864	13.08
313.078	36.37
313.292	97.89
313.507	73.07
313.721	112.75
313.935	57.69
314.149	46.96
314.363	40.3
314.578	24.78
314.792	17.65
315.006	2.45
315.22	11.77
315.434	10.09
315.648	22.69
315.862	30.01
316.077	30.65
316.291	20.42
316.505	18.9
316.719	15.93
316.933	-8.6
317.147	-18.5
317.361	-65.24
317.575	-82.78
317.789	-89.44
318.003	-153.63
318.217	-91.16
318.431	-8.57
318.645	30.83
318.859	17.63
319.073	51.41
319.287	28.1
319.5	8.39
319.714	-30.98
319.928	-41.49
320.142	-65.74
320.356	1.33
320.57	40.81
320.784	38.24
320.997	6.13
321.211	-8.22
321.425	-73.85
321.639	-124.26
321.853	-50.97
322.066	-23.44
322.28	-22.31
322.494	-11.04
322.707	11.49
322.921	-2.1
323.135	11.48
323.349	31.76
323.562	11.46
323.776	3.22
323.989	-13.21
324.203	-40.82
324.417	-53.59
324.63	-54.94
324.844	-68.85
325.057	-45.01
325.271	-9.89
325.485	7.6
325.698	23.09
325.912	40.76
326.125	7.33
326.339	7.42
326.552	-26.8
326.766	-13.09
326.979	-7.16
327.193	40.6
327.406	11.25
327.619	18.06
327.833	17.72
328.046	-8.96
328.26	-47.57
328.473	-14.84
328.686	-51.55
328.9	-30.84
329.113	-6
329.326	-25.08
329.54	-20.61
329.753	-25.57
329.966	-73.11
330.179	-69.36
330.393	-35.5
330.606	-34.1
330.819	-0.14
331.032	14.05
331.246	22.12
331.459	48.99
331.672	47.06
331.885	28.62
332.098	9.43
332.311	-5.14
332.525	-51.98
332.738	-17.54
332.951	19.4
333.164	41.25
333.377	47.17
333.59	60.08
333.803	36.04
334.016	25.35
334.229	21.21
334.442	27.78
334.655	45.12
334.868	51.99
335.081	51.17
335.294	31.05
335.507	16.42
335.72	0.36
335.933	1.02
336.146	-6.47
336.359	3.6
336.572	-22.17
336.785	-55.9
336.997	-46.47
337.21	-23.95
337.423	-23.18
337.636	-10.2
337.849	12.03
338.062	-4.15
338.274	-0.88
338.487	-27.03
338.7	-13.09
338.913	-58.43
339.125	-107.84
339.338	-178.43
339.551	-128.37
339.763	-100.32
339.976	-56.33
340.189	9.39
340.402	18.42
340.614	0.17
340.827	-5.75
341.039	-25.63
341.252	-30.54
341.465	-3.29
341.677	7.76
341.89	-21.4
342.102	17.37
342.315	-3.18
342.527	-36.59
342.74	-44.72
342.952	-7.17
343.165	-18.93
343.377	4.81
343.59	7.94
343.802	27.17
344.015	26.13
344.227	34.59
344.44	25.76
344.652	21.85
344.864	4.75
345.077	21.39
345.289	21.2
345.502	28.36
345.714	31.21
345.926	36.4
346.139	21.93
346.351	28.64
346.563	26.81
346.775	25.01
346.988	16.05
347.2	9.64
347.412	-44.24
347.624	-67.53
347.837	-97.6
348.049	-65.61
348.261	-23.17
348.473	-8.94
348.685	-3.28
348.897	10.65
349.11	-18.5
349.322	-53.27
349.534	-22.04
349.746	-21.24
349.958	-17.79
350.17	-1.37
350.382	18
350.594	-0.87
350.806	8.79
351.018	2.74
351.23	-15.94
351.442	-71.9
351.654	-58.92
351.866	-57.12
352.078	-24.31
352.29	2.58
352.502	23.74
352.714	26.26
352.926	11.03
353.138	-0.62
353.35	-7.91
353.561	-13.22
353.773	-28.62
353.985	-8.03
354.197	-13.2
354.409	-13.29
354.621	-10.24
354.832	1.23
355.044	-13.35
355.256	-15.87
355.468	-3.44
355.679	-10.12
355.891	-3.76
356.103	-16.39
356.314	-0.76
356.526	-4.17
356.738	3.61
356.949	-6.07
357.161	31.28
357.373	10.15
357.584	-1.72
357.796	-0.69
358.008	-7.71
358.219	-3.38
358.431	-2.56
358.642	-8.35
358.854	0.99
359.065	-5.54
359.277	-44.49
359.488	-36.7
359.7	-37.05
359.911	-66.33
360.123	-43.26
360.334	-39.73
360.546	-72.32
360.757	-65.83
360.969	-34.73
361.18	-22.73
361.391	-2.31
361.603	3.23
361.814	9.73
362.025	-13.56
362.237	-30.34
362.448	-29.25
362.659	-3.02
362.871	-6.31
363.082	3.71
363.293	9.47
363.504	5.22
363.716	-15.85
363.927	-12.06
364.138	-47.94
364.349	-63.09
364.56	-52.57
364.772	-50.16
364.983	-25.31
365.194	-12.95
365.405	8.98
365.616	17.26
365.827	18.99
366.038	-5.32
366.25	-11.23
366.461	-51.87
366.672	-34.32
366.883	-4.49
367.094	-5.7
367.305	-12.1
367.516	-3.24
367.727	-31.89
367.938	-58.9
368.149	-46.56
368.36	-20.61
368.571	-16.76
368.781	-20.66
368.992	-25.67
369.203	-39.69
369.414	-73.42
369.625	-79.62
369.836	-73.95
370.047	-103.43
370.258	-87.3
370.468	-76.97
370.679	-87.91
370.89	-75.77
371.101	-36.58
371.312	-40.9
371.522	-33.77
371.733	-15.9
371.944	0.94
372.155	-2.93
372.365	-13.85
372.576	-13.15
372.787	-24.3
372.997	-69.12
373.208	-64.52
373.419	-31.85
373.629	-60.79
373.84	-66.7
374.05	-58.85
374.261	-52.23
374.472	-79.94
374.682	-19.09
374.893	2.17
375.103	43.09
375.314	39.23
375.524	49.71
375.735	45.68
375.945	47.25
376.156	6.91
376.366	0.69
376.577	-0.46
376.787	-8.25
376.997	-14.22
377.208	-8.89
377.418	-11.83
377.629	3.55
377.839	-8.04
378.049	-6.79
378.26	13.65
378.47	19.28
378.68	0.62
378.89	6.53
379.101	-5.54
379.311	-45.66
379.521	-77.11
379.732	-78.59
379.942	-76.97
380.152	-86.85
380.362	-44.41
380.572	-41.79
380.783	-24.05
380.993	-15.38
381.203	2.18
381.413	14.4
381.623	45.53
381.833	38.58
382.043	32.89
382.253	21.59
382.463	10.71
382.674	-8.64
382.884	-25.41
383.094	-24.09
383.304	-18.77
383.514	-13.46
383.724	-3.77
383.934	-11.31
384.144	-19.65
384.353	-26.12
384.563	-29.35
384.773	-21.25
384.983	-20.11
385.193	-1.06
385.403	6.53
385.613	6.15
385.823	-3.38
386.033	9.5
386.242	-1.55
386.452	-5.4
386.662	-13.97
386.872	-2.59
387.082	-13.08
387.291	-21.33
387.501	-23.11
387.711	-11.99
387.921	-21.64
388.13	-19.75
388.34	-1.85
388.55	-6.99
388.759	-10.46
388.969	-0.25
389.179	-1.19
389.388	-6.22
389.598	-2.15
389.807	-8.53
390.017	-15.53
390.227	-13.64
390.436	-12.46
390.646	-9.8
390.855	-5.16
391.065	-6.88
391.274	-8.16
391.484	-14.18
391.693	-9.24
391.903	-6.46
392.112	0.95
392.322	3.35
392.531	7.86
392.74	5.7
392.95	0.35
393.159	-4.12
393.369	-5.46
393.578	-5.69
393.787	-7.43
393.997	-5.18
394.206	-5.51
394.415	-4.49
394.625	-4.57
394.834	-5.81
395.043	-3.44
395.252	-0.37
395.462	1.67
395.671	2.86
395.88	4.8
396.089	4.74
396.298	3.54
396.508	2.5
396.717	1.11
396.926	1.73
397.135	1.25
397.344	0.11
397.553	0.94
397.762	2.44
397.971	1.99
398.181	1.86
398.39	2.2
398.599	2.01
398.808	1.73
399.017	2.64
399.226	4.16
399.435	5.43
399.644	5.57
399.853	4.46
400.062	3.64
400.27	2.83
400.479	2.11
400.688	1.44
400.897	1.78
401.106	1.9
401.315	1.7
401.524	1.54
401.733	2.06
401.941	2.72
402.15	2.86
402.359	2.75
402.568	3.07
402.777	2.93
402.985	2.66
403.194	2.33
403.403	2.19
403.612	1.56
403.82	1.3
404.029	1.53
404.238	1.53
404.446	2.02
404.655	2.02
404.864	2.11
405.072	1.68
405.281	1.91
405.489	1.41
405.698	1.66
405.906	1.65
406.115	1.82
406.324	1.81
406.532	2.17
406.741	2.3
406.949	2.2
407.158	2.15
407.366	2.02
407.574	1.8
407.783	1.72
407.991	1.71
408.2	1.83
408.408	1.84
408.617	1.78
408.825	1.66
409.033	1.79
409.242	1.77
409.45	2
409.658	2.06
409.867	2.22
410.075	2.04
410.283	1.97
410.491	1.72
410.7	1.75
410.908	1.64
411.116	2
411.324	1.94
411.533	1.87
411.741	1.99
411.949	2.02
412.157	1.67
412.365	1.7
412.573	1.84
412.781	1.88
412.99	1.78
413.198	1.99
413.406	2.01
413.614	2.01
413.822	1.82
414.03	1.86
414.238	1.72
414.446	1.78
414.654	1.65
414.862	1.77
415.07	1.84
415.278	1.99
415.486	1.84
415.694	1.86
415.902	1.72
416.109	1.63
416.317	1.64
416.525	1.5
416.733	1.52
416.941	1.62
417.149	1.61
417.357	1.61
417.564	1.88
417.772	2.13
417.98	2.03
418.188	2.07
418.395	2.1
418.603	2.19
418.811	1.75
419.019	1.74
419.226	1.83
419.434	2
419.642	1.65
419.849	1.96
420.057	1.95
420.265	1.92
420.472	1.44
420.68	1.59
420.887	1.37
421.095	1.54
421.302	1.44
421.51	1.75
421.717	1.83
421.925	2.08
422.132	1.77
422.34	1.57
422.547	1.6
422.755	1.46
422.962	1.29
423.17	1.44
423.377	1.64
423.585	1.54
423.792	1.53
423.999	1.53
424.207	1.49
424.414	1.57
424.621	1.59
424.829	1.63
425.036	1.7
425.243	1.85
425.451	1.7
425.658	1.51
425.865	1.78
426.072	1.68
426.28	1.86
426.487	1.82
426.694	1.95
426.901	1.66
427.108	1.65
427.315	1.37
427.523	1.69
427.73	1.72
427.937	1.61
428.144	1.51
428.351	1.47
428.558	1.6
428.765	1.57
428.972	1.61
429.179	1.73
429.386	2.04
429.593	1.63
429.8	1.46
430.007	1.53
430.214	1.69
430.421	1.4
430.628	1.26
430.835	1.25
431.042	1.45
431.249	1.45
431.456	1.49
431.662	1.7
431.869	1.81
432.076	1.72
432.283	1.71
432.49	1.72
432.697	1.75
432.903	1.47
433.11	1.44
433.317	1.52
433.524	1.8
433.73	1.68
433.937	2.06
434.144	1.9
434.35	1.82
434.557	1.52
434.764	1.6
434.97	1.45
435.177	1.68
435.384	1.54
435.59	1.66
435.797	1.89
436.003	2.02
436.21	1.95
436.416	2.22
436.623	2.14
436.829	2.02
437.036	2.09
437.242	2.08
437.449	1.92
437.655	1.9
437.862	1.85
438.068	1.77
438.275	1.91
438.481	2.12
438.687	2.17
438.894	2.14
439.1	2.15
439.307	2.31
439.513	2.15
439.719	2.13
439.926	2.28
440.132	2.27
440.338	2.02
440.544	2.18
440.751	2.17
440.957	2.2
441.163	2.12
441.369	2.21
441.575	1.91
441.782	1.83
441.988	1.74
442.194	1.78
442.4	1.75
442.606	2.04
442.812	2.18
443.018	2.24
443.224	2.31
443.431	2.4
443.637	2.2
443.843	2.16
444.049	2.11
444.255	1.97
444.461	1.99
444.667	1.98
444.873	2.08
445.079	2.09
445.284	2.24
445.49	1.96
445.696	1.86
445.902	1.74
446.108	1.72
446.314	1.71
446.52	1.85
446.726	2.12
446.931	2.17
447.137	2.26
447.343	2.23
447.549	2.13
447.755	1.98
447.96	1.97
448.166	1.86
448.372	1.82
448.578	1.89
448.783	1.82
448.989	1.9
449.195	2.08
449.4	2.14
449.606	2.11
449.812	2.13
450.017	2.12
450.223	1.92
450.428	1.83
450.634	2.11
450.84	2.29
451.045	2.22
451.251	2.19
451.456	2.44
451.662	2.38
451.867	2.3
452.073	2.28
452.278	2.43
452.483	2.42
452.689	2.27
452.894	2.3
453.1	2.37
453.305	2.29
453.51	2.22
453.716	2.18
453.921	2.19
454.127	2.1
454.332	2.08
454.537	2.01
454.742	2.09
454.948	2.02
455.153	2.13
455.358	2.13
455.563	2.31
455.769	2.45
455.974	2.49
456.179	2.37
456.384	2.44
456.589	2.32
456.795	2.05
457	1.95
457.205	2.22
457.41	2.14
457.615	2.06
457.82	2.15
458.025	2.24
458.23	2
458.435	2.04
458.64	2.04
458.845	2.22
459.05	2.27
459.255	2.35
459.46	2.36
459.665	2.37
459.87	2.27
460.075	2.13
460.28	2.1
460.485	2.12
460.69	2.1
460.895	1.97
461.099	1.96
461.304	2.11
461.509	2.13
461.714	2.07
461.919	2.34
462.123	2.23
462.328	2.21
462.533	2.12
462.738	2.28
462.942	2.08
463.147	2.24
463.352	2.23
463.556	2.24
463.761	2.21
463.966	2.25
464.17	2.28
464.375	2.15
464.58	2.22
464.784	2.18
464.989	2.13
465.193	2.05
465.398	2.06
465.602	2.2
465.807	2.12
466.011	2.26
466.216	2.34
466.42	2.45
466.625	2.36
466.829	2.52
467.034	2.57
467.238	2.68
467.443	2.57
467.647	2.43
467.851	2.47
468.056	2.42
468.26	2.34
468.464	2.42
468.669	2.57
468.873	2.65
469.077	2.65
469.282	2.7
469.486	2.7
469.69	2.79
469.894	2.6
470.099	2.65
470.303	2.66
470.507	2.61
470.711	2.44
470.915	2.48
471.119	2.43
471.324	2.39
471.528	2.39
471.732	2.47
471.936	2.47
472.14	2.53
472.344	2.58
472.548	2.64
472.752	2.81
472.956	2.95
473.16	2.91
473.364	2.85
473.568	2.79
473.772	2.71
473.976	2.65
474.18	2.57
474.384	2.63
474.588	2.71
474.792	2.66
474.995	2.74
475.199	2.87
475.403	2.89
475.607	2.88
475.811	2.78
476.015	2.81
476.218	2.85
476.422	2.71
476.626	2.76
476.83	2.93
477.033	2.82
477.237	2.73
477.441	2.83
477.644	2.8
477.848	2.74
478.052	2.75
478.255	2.77
478.459	2.79
478.663	2.95
478.866	2.99
479.07	3.01
479.273	3.16
479.477	3.2
479.681	3.09
479.884	3.09
480.088	3.07
480.291	2.94
480.495	2.96
480.698	3.02
480.901	3.03
481.105	3.17
481.308	3.18
481.512	3.18
481.715	3.14
481.919	3.18
482.122	3.09
482.325	3.07
482.529	3.07
482.732	3.07
482.935	2.96
483.138	2.87
483.342	3.04
483.545	3.09
483.748	3.17
483.952	3.28
484.155	3.48
484.358	3.39
484.561	3.32
484.764	3.27
484.967	3.35
485.171	3.44
485.374	3.41
485.577	3.52
485.78	3.54
485.983	3.51
486.186	3.32
486.389	3.35
486.592	3.33
486.795	3.4
486.998	3.31
487.201	3.39
487.404	3.47
487.607	3.52
487.81	3.46
488.013	3.56
488.216	3.53
488.419	3.45
488.622	3.33
488.825	3.26
489.028	3.19
489.231	3.16
489.433	3.16
489.636	3.13
489.839	3.14
490.042	3.12
490.245	3.13
490.447	3.19
490.65	3.21
490.853	3.26
491.056	3.32
491.258	3.36
491.461	3.37
491.664	3.47
491.866	3.42
492.069	3.46
492.272	3.38
492.474	3.41
492.677	3.34
492.879	3.44
493.082	3.47
493.285	3.64
493.487	3.53
493.69	3.5
493.892	3.41
494.095	3.34
494.297	3.24
494.5	3.33
494.702	3.38
494.905	3.43
495.107	3.44
495.309	3.47
495.512	3.49
495.714	3.54
495.917	3.57
496.119	3.58
496.321	3.59
496.524	3.6
496.726	3.57
496.928	3.58
497.13	3.54
497.333	3.52
497.535	3.58
497.737	3.59
497.939	3.59
498.142	3.69
498.344	3.69
498.546	3.51
498.748	3.52
498.95	3.59
499.152	3.58
499.355	3.66
499.557	3.79
499.759	3.86
499.961	3.81
500.163	3.83
500.365	3.77
500.567	3.85
500.769	3.76
500.971	3.77
501.173	3.7
501.375	3.78
501.577	3.65
501.779	3.65
501.981	3.67
502.183	3.68
502.385	3.61
502.587	3.63
502.788	3.69
502.99	3.74
503.192	3.84
503.394	3.85
503.596	3.91
503.798	4
503.999	4
504.201	3.99
504.403	4.03
504.605	4.06
504.806	3.99
505.008	4
505.21	4.07
505.411	4.08
505.613	4.05
505.815	4.08
506.016	4.13
506.218	4.2
506.42	4.18
506.621	4.24
506.823	4.23
507.024	4.14
507.226	4.01
507.427	4.01
507.629	4.03
507.83	4.08
508.032	4.08
508.233	4.19
508.435	4.28
508.636	4.35
508.838	4.31
509.039	4.41
509.24	4.4
509.442	4.4
509.643	4.29
509.845	4.3
510.046	4.32
510.247	4.33
510.448	4.32
510.65	4.39
510.851	4.51
511.052	4.53
511.254	4.5
511.455	4.6
511.656	4.58
511.857	4.61
512.058	4.56
512.26	4.6
512.461	4.53
512.662	4.62
512.863	4.48
513.064	4.5
513.265	4.48
513.466	4.54
513.667	4.53
513.868	4.57
514.069	4.63
514.27	4.7
514.471	4.65
514.672	4.66
514.873	4.7
515.074	4.72
515.275	4.62
515.476	4.61
515.677	4.61
515.878	4.73
516.079	4.7
516.28	4.78
516.481	4.93
516.682	4.93
516.882	4.77
517.083	4.76
517.284	4.66
517.485	4.52
517.686	4.47
517.886	4.5
518.087	4.56
518.288	4.64
518.488	4.66
518.689	4.71
518.89	4.75
519.091	4.74
519.291	4.72
519.492	4.75
519.692	4.8
519.893	4.89
520.094	4.94
520.294	4.95
520.495	4.96
520.695	5
520.896	4.91
521.096	4.9
521.297	4.9
521.497	4.9
521.698	4.82
521.898	4.84
522.099	4.86
522.299	4.93
522.499	4.98
522.7	5.07
522.9	5.03
523.101	5.06
523.301	5.12
523.501	5.09
523.702	5.06
523.902	5.19
524.102	5.26
524.302	5.18
524.503	5.23
524.703	5.24
524.903	5.19
525.103	5.1
525.304	5.16
525.504	5.24
525.704	5.27
525.904	5.25
526.104	5.24
526.304	5.23
526.504	5.23
526.705	5.23
526.905	5.32
527.105	5.33
527.305	5.37
527.505	5.27
527.705	5.25
527.905	5.21
528.105	5.25
528.305	5.17
528.505	5.29
528.705	5.4
528.905	5.41
529.105	5.41
529.304	5.51
529.504	5.54
529.704	5.47
529.904	5.46
530.104	5.49
530.304	5.53
530.503	5.52
530.703	5.45
530.903	5.49
531.103	5.5
531.303	5.45
531.502	5.44
531.702	5.59
531.902	5.6
532.101	5.58
532.301	5.61
532.501	5.64
532.7	5.57
532.9	5.58
533.1	5.61
533.299	5.65
533.499	5.66
533.698	5.68
533.898	5.69
534.097	5.68
534.297	5.72
534.496	5.69
534.696	5.77
534.895	5.87
535.095	5.97
535.294	5.92
535.494	5.89
535.693	5.9
535.892	5.89
536.092	5.78
536.291	5.75
536.491	5.85
536.69	5.86
536.889	5.79
537.088	5.85
537.288	5.96
537.487	6.03
537.686	6.04
537.886	6.11
538.085	6.13
538.284	6.28
538.483	6.22
538.682	6.28
538.882	6.32
539.081	6.42
539.28	6.26
539.479	6.24
539.678	6.18
539.877	6.3
540.076	6.22
540.275	6.25
540.474	6.38
540.673	6.46
540.872	6.33
541.071	6.44
541.27	6.47
541.469	6.47
541.668	6.5
541.867	6.55
542.066	6.61
542.265	6.71
542.464	6.67
542.663	6.69
542.862	6.79
543.06	6.8
543.259	6.78
543.458	6.84
543.657	6.91
543.856	6.92
544.054	6.87
544.253	6.92
544.452	6.94
544.651	6.96
544.849	6.94
545.048	7.03
545.247	7.07
545.445	7.16
545.644	7.2
545.843	7.26
546.041	7.31
546.24	7.41
546.438	7.47
546.637	7.51
546.836	7.63
547.034	7.69
547.233	7.68
547.431	7.64
547.63	7.67
547.828	7.67
548.027	7.7
548.225	7.74
548.423	7.75
548.622	7.85
548.82	7.85
549.019	7.88
549.217	7.99
549.415	8.09
549.614	8.15
549.812	8.19
550.01	8.23
550.209	8.28
550.407	8.36
550.605	8.32
550.803	8.47
551.002	8.55
551.2	8.61
551.398	8.69
551.596	8.87
551.794	8.94
551.993	8.99
552.191	9.06
552.389	9.15
552.587	9.21
552.785	9.2
552.983	9.28
553.181	9.33
553.379	9.41
553.577	9.39
553.775	9.56
553.973	9.63
554.171	9.77
554.369	9.79
554.567	9.9
554.765	9.91
554.963	10.03
555.161	9.99
555.359	10.07
555.557	10.22
555.755	10.39
555.952	10.52
556.15	10.65
556.348	10.79
556.546	10.86
556.744	10.88
556.941	10.85
557.139	10.95
557.337	10.95
557.535	10.96
557.732	11.1
557.93	11.23
558.128	11.29
558.325	11.45
558.523	11.53
558.721	11.59
558.918	11.68
559.116	11.76
559.313	11.72
559.511	11.88
559.708	11.94
559.906	12.02
560.104	12.13
560.301	12.3
560.498	12.35
560.696	12.46
560.893	12.58
561.091	12.68
561.288	12.83
561.486	12.92
561.683	13
561.88	13.11
562.078	13.2
562.275	13.2
562.473	13.33
562.67	13.48
562.867	13.64
563.064	13.73
563.262	13.86
563.459	13.94
563.656	14.06
563.853	14.11
564.051	14.23
564.248	14.39
564.445	14.48
564.642	14.56
564.839	14.66
565.036	14.8
565.234	15.03
565.431	15.18
565.628	15.24
565.825	15.38
566.022	15.5
566.219	15.52
566.416	15.6
566.613	15.71
566.81	15.69
567.007	15.69
567.204	15.7
567.401	15.73
567.598	15.78
567.795	15.95
567.991	16.04
568.188	16.17
568.385	16.36
568.582	16.5
568.779	16.58
568.976	16.6
569.172	16.77
569.369	16.76
569.566	16.82
569.763	16.94
569.96	17.09
570.156	17.02
570.353	17.07
570.55	17.21
570.746	17.14
570.943	17.19
571.14	17.25
571.336	17.33
571.533	17.31
571.729	17.41
571.926	17.53
572.123	17.57
572.319	17.62
572.516	17.66
572.712	17.73
572.909	17.67
573.105	17.8
573.302	17.83
573.498	17.96
573.695	17.91
573.891	18
574.087	17.98
574.284	17.97
574.48	17.94
574.677	18.05
574.873	18.07
575.069	18.17
575.266	18.32
575.462	18.19
575.658	18.32
575.854	18.35
576.051	18.36
576.247	18.31
576.443	18.46
576.639	18.31
576.835	18.29
577.032	18.22
577.228	18.41
577.424	18.47
577.62	18.54
577.816	18.6
578.012	18.6
578.208	18.47
578.404	18.5
578.6	18.54
578.796	18.51
578.993	18.64
579.189	18.68
579.384	18.49
579.58	18.37
579.776	18.37
579.972	18.18
580.168	18.11
580.364	18.21
580.56	18.21
580.756	18.24
580.952	18.35
581.148	18.36
581.343	18.43
581.539	18.5
581.735	18.5
581.931	18.55
582.127	18.58
582.322	18.46
582.518	18.5
582.714	18.48
582.909	18.41
583.105	18.29
583.301	18.37
583.496	18.31
583.692	18.2
583.888	18.18
584.083	18.28
584.279	18.25
584.474	18.21
584.67	18.24
584.866	18.17
585.061	18.05
585.257	18.08
585.452	18.04
585.648	18.03
585.843	18.13
586.039	18.09
586.234	18.11
586.429	18.11
586.625	18.25
586.82	18.2
587.015	18.28
587.211	18.16
587.406	18.26
587.601	18.17
587.797	18.19
587.992	18.17
588.187	18.25
588.383	18.24
588.578	18.2
588.773	18.31
588.968	18.45
589.163	18.49
589.359	18.52
589.554	18.49
589.749	18.41
589.944	18.38
590.139	18.38
590.334	18.39
590.529	18.54
590.724	18.6
590.919	18.7
591.114	18.72
591.309	18.77
591.504	18.77
591.699	18.76
591.894	18.78
592.089	18.86
592.284	18.87
592.479	19
592.674	19.04
592.869	19.09
593.064	19.18
593.259	19.29
593.454	19.34
593.648	19.37
593.843	19.33
594.038	19.26
594.233	19.23
594.428	19.21
594.622	19.27
594.817	19.47
595.012	19.63
595.206	19.74
595.401	19.8
595.596	19.95
595.79	20.02
595.985	20.06
596.18	20.09
596.374	20.21
596.569	20.25
596.763	20.18
596.958	20.25
597.153	20.42
597.347	20.43
597.542	20.6
597.736	20.79
597.931	20.86
598.125	20.9
598.319	21.04
598.514	21.03
598.708	21.03
598.903	21.1
599.097	21.18
599.291	21.14
599.486	21.14
599.68	21.2
599.874	21.38
600.069	21.39
600.263	21.47
600.457	21.56
600.651	21.65
600.846	21.66
601.04	21.74
601.234	21.8
601.428	21.87
601.622	21.87
601.817	21.85
602.011	21.89
602.205	21.94
602.399	21.88
602.593	21.85
602.787	21.87
602.981	21.79
603.175	21.87
603.369	21.85
603.563	22
603.757	22.08
603.951	22.14
604.145	22.11
604.339	22.21
604.533	22.11
604.727	22
604.921	21.98
605.115	22.02
605.309	22.08
605.502	21.99
605.696	21.95
605.89	21.96
606.084	21.88
606.278	21.7
606.471	21.66
606.665	21.62
606.859	21.47
607.053	21.35
607.246	21.32
607.44	21.38
607.634	21.27
607.827	21.34
608.021	21.22
608.214	21.19
608.408	20.98
608.602	21.1
608.795	20.95
608.989	20.94
609.182	20.86
609.376	20.94
609.569	20.78
609.763	20.66
609.956	20.61
610.15	20.49
610.343	20.34
610.537	20.26
610.73	20.29
610.923	20.25
611.117	20.17
611.31	20.1
611.504	19.99
611.697	19.85
611.89	19.73
612.083	19.71
612.277	19.66
612.47	19.59
612.663	19.58
612.856	19.52
613.05	19.46
613.243	19.39
613.436	19.29
613.629	19.12
613.822	19.1
614.015	18.98
614.209	18.87
614.402	18.94
614.595	18.91
614.788	18.82
614.981	18.71
615.174	18.6
615.367	18.41
615.56	18.33
615.753	18.23
615.946	18.15
616.139	18.21
616.332	18.29
616.525	18.29
616.718	18.28
616.911	18.33
617.103	18.26
617.296	18.23
617.489	18.07
617.682	17.96
617.875	17.85
618.067	17.72
618.26	17.52
618.453	17.63
618.646	17.67
618.838	17.7
619.031	17.87
619.224	17.86
619.417	17.79
619.609	17.8
619.802	17.68
619.994	17.49
620.187	17.44
620.38	17.37
620.572	17.25
620.765	17.33
620.957	17.27
621.15	17.22
621.342	17.22
621.535	17.25
621.727	17.1
621.92	17.1
622.112	17.09
622.305	17.13
622.497	17.05
622.69	17.13
622.882	17.11
623.074	17.17
623.267	17.05
623.459	16.93
623.651	16.8
623.844	16.78
624.036	16.79
624.228	16.74
624.42	16.76
624.613	16.81
624.805	16.76
624.997	16.62
625.189	16.59
625.381	16.62
625.574	16.61
625.766	16.58
625.958	16.61
626.15	16.7
626.342	16.64
626.534	16.62
626.726	16.59
626.918	16.62
627.11	16.51
627.302	16.51
627.494	16.41
627.686	16.37
627.878	16.19
628.07	16.16
628.262	16.11
628.454	16.14
628.646	16.19
628.838	16.3
629.029	16.23
629.221	16.27
629.413	16.21
629.605	16.06
629.797	15.96
629.989	15.95
630.18	15.87
630.372	15.78
630.564	15.76
630.755	15.79
630.947	15.92
631.139	15.73
631.33	15.73
631.522	15.84
631.714	15.74
631.905	15.58
632.097	15.59
632.289	15.58
632.48	15.49
632.672	15.48
632.863	15.41
633.055	15.41
633.246	15.4
633.438	15.32
633.629	15.23
633.821	15.25
634.012	15.24
634.203	15.14
634.395	15.2
634.586	15.22
634.777	15.15
634.969	15.19
635.16	15.25
635.351	15.2
635.543	15.22
635.734	15.3
635.925	15.31
636.117	15.36
636.308	15.35
636.499	15.26
636.69	15.1
636.881	15.09
637.073	15.07
637.264	15.01
637.455	15.12
637.646	15.33
637.837	15.29
638.028	15.23
638.219	15.34
638.41	15.25
638.601	15.11
638.792	15.11
638.983	15.12
639.174	15.01
639.365	15.04
639.556	15.08
639.747	15.07
639.938	15.11
640.129	15.13
640.32	15.04
640.511	15.03
640.701	15.13
640.892	14.95
641.083	14.97
641.274	15.08
641.465	15.07
641.655	14.85
641.846	14.86
642.037	14.78
642.228	14.61
642.418	14.63
642.609	14.72
642.8	14.82
642.99	14.76
643.181	14.89
643.372	14.87
643.562	14.84
643.753	14.72
643.943	14.7
644.134	14.52
644.324	14.42
644.515	14.41
644.705	14.49
644.896	14.5
645.086	14.61
645.277	14.62
645.467	14.58
645.658	14.44
645.848	14.53
646.038	14.47
646.229	14.4
646.419	14.35
646.61	14.44
646.8	14.33
646.99	14.29
647.18	14.31
647.371	14.26
647.561	14.14
647.751	14.14
647.941	14.08
648.132	14.08
648.322	14.09
648.512	14.2
648.702	14.17
648.892	14.21
649.082	14.17
649.272	14.06
649.462	13.87
649.653	13.85
649.843	13.77
650.033	13.75
650.223	13.71
650.413	13.67
650.603	13.68
650.793	13.75
650.983	13.64
651.172	13.7
651.362	13.69
651.552	13.62
651.742	13.48
651.932	13.52
652.122	13.51
652.312	13.59
652.502	13.54
652.691	13.51
652.881	13.47
653.071	13.4
653.261	13.19
653.45	13.01
653.64	12.97
653.83	12.8
654.019	12.64
654.209	12.6
654.399	12.58
654.588	12.5
654.778	12.38
654.968	12.29
655.157	12.27
655.347	12.15
655.536	11.92
655.726	11.83
655.915	11.64
656.105	11.47
656.294	11.37
656.484	11.2
656.673	11.02
656.863	11.04
657.052	10.82
657.241	10.65
657.431	10.49
657.62	10.33
657.809	9.95
657.999	9.86
658.188	9.62
658.377	9.55
658.567	9.45
658.756	9.38
658.945	9.3
659.134	9.17
659.324	9.03
659.513	8.86
659.702	8.7
659.891	8.52
660.08	8.4
660.269	8.35
660.458	8.21
660.648	8.19
660.837	7.97
661.026	7.9
661.215	7.68
661.404	7.51
661.593	7.29
661.782	7.04
661.971	6.92
662.16	6.78
662.349	6.73
662.538	6.74
662.726	6.84
662.915	6.64
663.104	6.54
663.293	6.53
663.482	6.42
663.671	6.28
663.86	6.17
664.048	6.13
664.237	6.05
664.426	5.81
664.615	5.82
664.803	5.82
664.992	5.79
665.181	5.69
665.369	5.69
665.558	5.54
665.747	5.5
665.935	5.46
666.124	5.48
666.312	5.52
666.501	5.5
666.69	5.46
666.878	5.41
667.067	5.26
667.255	5.28
667.444	5.48
667.632	5.48
667.82	5.48
668.009	5.49
668.197	5.39
668.386	5.18
668.574	5.3
668.762	5.28
668.951	5.23
669.139	5.26
669.327	5.18
669.516	5.13
669.704	5.08
669.892	5.27
670.08	5.28
670.269	5.32
670.457	5.19
670.645	5.07
670.833	5.12
671.021	5.13
671.21	5.21
671.398	5.47
671.586	5.54
671.774	5.41
671.962	5.37
672.15	5.37
672.338	5.17
672.526	5.23
672.714	5.13
672.902	5.21
673.09	5.39
673.278	5.69
673.466	5.77
673.654	6.11
673.842	6.07
674.03	5.97
674.218	5.72
674.405	5.74
674.593	5.56
674.781	5.71
674.969	5.72
675.157	6.01
675.344	6.18
675.532	6.23
675.72	6.35
675.908	6.48
676.095	6.42
676.283	6.4
676.471	6.69
676.658	6.64
676.846	6.7
677.033	6.75
677.221	6.8
677.409	6.56
677.596	6.66
677.784	6.65
677.971	6.67
678.159	6.75
678.346	6.98
678.534	7.02
678.721	7.16
678.909	7.2
679.096	7.26
679.283	7.33
679.471	7.45
679.658	7.49
679.846	7.79
680.033	8.08
680.22	8.19
680.408	8.29
680.595	8.4
680.782	8.25
680.969	8.18
681.157	8.25
681.344	8.27
681.531	8.35
681.718	8.47
681.905	8.58
682.093	8.69
682.28	8.98
682.467	9.26
682.654	9.37
682.841	9.64
683.028	9.85
683.215	9.99
683.402	9.9
683.589	10.19
683.776	10.26
683.963	10.18
684.15	10.45
684.337	10.79
684.524	10.94
684.711	11.14
684.898	11.39
685.085	11.39
685.271	11.65
685.458	11.91
685.645	12.05
685.832	12.43
686.019	12.84
686.205	13.06
686.392	13.35
686.579	13.71
686.766	14.04
686.952	14.25
687.139	14.73
687.326	14.92
687.512	15.3
687.699	15.61
687.886	15.75
688.072	15.88
688.259	16.33
688.445	16.68
688.632	17.01
688.818	17.88
689.005	18.45
689.191	18.95
689.378	19.61
689.564	20.2
689.751	20.48
689.937	20.88
690.124	21.28
690.31	21.51
690.496	21.85
690.683	22.54
690.869	23
691.055	23.59
691.242	24.4
691.428	25.34
691.614	25.91
691.8	26.87
691.987	27.47
692.173	27.99
692.359	28.66
692.545	29.11
692.731	29.4
692.918	30.22
693.104	30.76
693.29	31.37
693.476	32.25
693.662	33.09
693.848	33.55
694.034	34.24
694.22	34.59
694.406	35.07
694.592	35.78
694.778	36.39
694.964	37.12
695.15	37.76
695.336	38.38
695.522	39.3
695.708	39.83
695.894	40.38
696.08	41.15
696.265	41.65
696.451	41.95
696.637	42.99
696.823	43.62
697.009	43.89
697.194	44.46
697.38	45.09
697.566	45.4
697.751	46.18
697.937	47.09
698.123	47.89
698.308	48.55
698.494	49.24
698.68	49.6
698.865	50.1
699.051	50.7
699.236	51.04
699.422	51.41
699.607	51.83
699.793	52.34
699.978	52.55
700.164	53
700.349	53.67
700.535	54.18
700.72	54.43
700.906	55.29
701.091	55.71
701.276	55.8
701.462	56.78
701.647	57.68
701.832	57.82
702.018	58.27
702.203	58.9
702.388	58.6
702.573	58.61
702.759	59.19
702.944	59.4
703.129	59.68
703.314	60.21
703.499	60.65
703.684	60.74
703.87	61.85
704.055	62.66
704.24	63.05
704.425	63.68
704.61	64.33
704.795	64.05
704.98	63.83
705.165	63.76
705.35	63.65
705.535	63.49
705.72	63.73
705.905	64.39
706.09	64.91
706.275	65.15
706.459	65.3
706.644	65.73
706.829	65.69
707.014	65.88
707.199	66.52
707.384	67.25
707.568	67.12
707.753	67.76
707.938	68.3
708.123	68.16
708.307	68.01
708.492	68.48
708.677	68.19
708.861	68.06
709.046	67.96
709.231	68.44
709.415	68.7
709.6	68.9
709.784	69.13
709.969	69.46
710.153	69.32
710.338	69.32
710.522	69.58
710.707	69.95
710.891	70.19
711.076	70.68
711.26	70.71
711.445	71.08
711.629	71.01
711.813	71.19
711.998	71.24
712.182	71.15
712.366	71.42
712.551	71.77
712.735	71.93
712.919	72.06
713.103	72.67
713.288	72.05
713.472	71.71
713.656	72.26
713.84	72.08
714.024	71.86
714.208	72.29
714.393	72.98
714.577	73.16
714.761	73.66
714.945	74
715.129	74.27
715.313	74.12
715.497	73.59
715.681	73.87
715.865	73.81
716.049	73.77
716.233	73.64
716.417	74.07
716.601	73.71
716.785	73.71
716.968	73.83
717.152	74.05
717.336	73.95
717.52	73.95
717.704	73.94
717.888	74.1
718.071	74.28
718.255	74.75
718.439	74.94
718.622	75.48
718.806	75.57
718.99	75.02
719.174	74.56
719.357	75.04
719.541	74.6
719.724	74.26
719.908	75.43
720.092	76.03
720.275	76.1
720.459	76.34
720.642	76.66
720.826	76.02
721.009	75.31
721.193	74.59
721.376	74.68
721.559	75.14
721.743	75.47
721.926	76.04
722.11	76.27
722.293	76.27
722.476	75.47
722.66	75.29
722.843	74.95
723.026	74.49
723.21	74.76
723.393	75.97
723.576	76.53
723.759	76.32
723.942	76.77
724.126	76.36
724.309	75.77
724.492	75.58
724.675	75.79
724.858	76.38
725.041	77.1
725.224	76.93
725.407	76.62
725.59	77.05
725.774	76.48
725.957	75.68
726.14	75.55
726.322	75.69
726.505	75.56
726.688	76.27
726.871	76.29
727.054	77.35
727.237	77.74
727.42	78.69
727.603	78.39
727.786	78.96
727.968	78.8
728.151	78.66
728.334	78.07
728.517	78.42
728.699	78.44
728.882	77.94
729.065	78.18
729.248	78.45
729.43	78.25
729.613	78.94
729.796	79.69
729.978	78.94
730.161	78.45
730.343	78.33
730.526	78.95
730.708	78.26
730.891	78.89
731.073	79.2
731.256	79.04
731.438	77.87
731.621	78.82
731.803	78.75
731.986	78.81
732.168	78.41
732.35	79.06
732.533	78.82
732.715	79.01
732.898	79.75
733.08	80.2
733.262	80.1
733.444	79.57
733.627	79.62
733.809	79.56
733.991	80.63
734.173	80.42
734.355	80.56
734.538	80.71
734.72	79.86
734.902	79.49
735.084	79.35
735.266	79.59
735.448	79.71
735.63	79.48
735.812	79.48
735.994	80.53
736.176	80.95
736.358	81.07
736.54	82.18
736.722	81.57
736.904	81.29
737.086	80.63
737.268	80.9
737.45	80.43
737.632	80.91
737.814	79.85
737.995	80.21
738.177	80.09
738.359	79.62
738.541	79.34
738.723	80.52
738.904	80.96
739.086	81.05
739.268	81.94
739.449	82.69
739.631	81.9
739.813	82.27
739.994	81.64
740.176	81.3
740.358	81.11
740.539	82.31
740.721	82.23
740.902	82.96
741.084	82.42
741.265	82.74
741.447	82.6
741.628	83.42
741.81	82.55
741.991	84.29
742.172	85.37
742.354	84.81
742.535	83.45
742.717	84.79
742.898	84.65
743.079	84.06
743.261	84.11
743.442	83.68
743.623	84.12
743.804	83.52
743.986	83.16
744.167	82.2
744.348	81.44
744.529	80.87
744.71	79.71
744.891	79.54
745.073	80.05
745.254	81.38
745.435	80.76
745.616	80.95
745.797	80.25
745.978	80.25
746.159	80.57
746.34	79.37
746.521	81.34
746.702	80.96
746.883	80.48
747.064	79.32
747.245	80.4
747.426	78.81
747.606	79.57
747.787	80.25
747.968	80.09
748.149	79.98
748.33	80.48
748.51	80.51
748.691	80.41
748.872	81.12
749.053	81.6
749.233	81.03
749.414	80.51
749.595	78.63
749.775	78.42
749.956	77.96
750.137	77.66
750.317	78.75
750.498	81.96
750.678	82.42
750.859	82.34
751.04	82.9
751.22	80.87
751.4	79.27
751.581	77.44
751.761	77.58
751.942	78.34
752.122	79.42
752.303	79.17
752.483	80.43
752.663	80.44
752.844	79.27
753.024	80.53
753.204	81.6
753.385	81.07
753.565	79.95
753.745	80.47
753.925	78
754.106	77.36
754.286	77.4
754.466	78.29
754.646	78.39
754.826	78.59
755.006	77.79
755.187	78.89
755.367	78.85
755.547	79.23
755.727	81.23
755.907	81.76
756.087	82.31
756.267	80.71
756.447	79.06
756.627	77.09
756.807	77.47
756.987	76.25
757.167	77.89
757.346	78.79
757.526	78.15
757.706	78.51
757.886	78.6
758.066	78.54
758.246	80.05
758.425	81.46
758.605	79.23
758.785	79.28
758.965	80.09
759.144	77.47
759.324	78.41
759.504	80.02
759.683	79.54
759.863	76.59
760.043	75.78
760.222	74.84
760.402	73.9
760.581	74.04
760.761	76.73
760.94	77.02
761.12	78.42
761.299	79.26
761.479	79.9
761.658	77.54
761.838	77.89
762.017	76.67
762.197	77.39
762.376	76.28
762.555	78.99
762.735	79.08
762.914	76.45
763.093	76.28
763.273	75.31
763.452	74.73
763.631	74.82
763.81	75.66
763.99	74.82
764.169	76.45
764.348	74.69
764.527	72.49
764.706	75.53
764.885	77.49
765.064	76.03
765.243	76.63
765.423	79.1
765.602	77.67
765.781	75.54
765.96	74.06
766.139	73.03
766.318	73.69
766.497	72.59
766.676	72.21
766.854	76.08
767.033	78.01
767.212	76.6
767.391	77.14
767.57	77.9
767.749	75.61
767.928	74.57
768.106	74.4
768.285	72.61
768.464	72.46
768.643	72.37
768.821	72.04
769	74.25
769.179	74.01
769.357	71.72
769.536	71.18
769.715	72.62
769.893	72.51
770.072	73.29
770.25	75.41
770.429	76.37
770.607	74.76
770.786	73.85
770.964	74.75
771.143	73.45
771.321	75.04
771.5	74.58
771.678	73.48
771.857	72.16
772.035	72.37
772.213	71.36
772.392	69.67
772.57	70.36
772.748	71.54
772.927	71.82
773.105	70.3
773.283	73.31
773.461	74.44
773.64	75.02
773.818	75.29
773.996	76.57
774.174	75.92
774.352	72.08
774.531	69.13
774.709	70.17
774.887	67.96
775.065	67.95
775.243	69.12
775.421	71.19
775.599	71.01
775.777	70.04
775.955	67.1
776.133	65.96
776.311	64.87
776.489	62.31
776.667	65.06
776.844	68.15
777.022	67.08
777.2	67.04
777.378	68.74
777.556	68.44
777.734	68.67
777.911	72.48
778.089	73.24
778.267	72.36
778.445	70.86
778.622	67.69
778.8	66.56
778.978	68.93
779.155	69.24
779.333	70.61
779.511	72.69
779.688	74.39
779.866	66.78
780.043	62.59
780.221	61.54
780.398	59.09
780.576	59.76
780.753	66.7
780.931	67.51
781.108	66.88
781.286	68.1
781.463	62.16
781.64	56.01
781.818	59.07
781.995	62.46
782.172	62.06
782.35	67.3
782.527	72.28
782.704	70.82
782.882	71.1
783.059	72.86
783.236	69.58
783.413	69.65
783.59	71.01
783.768	66.13
783.945	68.11
784.122	69.16
784.299	69.53
784.476	67.1
784.653	69
784.83	63.81
785.007	59.9
785.184	61.28
785.361	59.11
785.538	64.18
785.715	69.96
785.892	74.44
786.069	75.04
786.246	81.25
786.423	75.86
786.6	70.48
786.776	71.69
786.953	68.79
787.13	69.6
787.307	70.73
787.484	73.23
787.66	69
787.837	67.92
788.014	63.16
788.191	60.95
788.367	58.26
788.544	61.62
788.721	61.17
788.897	63.86
789.074	65.07
789.25	63.52
789.427	62.96
789.603	62.81
789.78	62.37
789.956	62.55
790.133	61.91
790.309	61.5
790.486	66.71
790.662	67.05
790.839	65.34
791.015	68.9
791.192	67.11
791.368	65.81
791.544	64.41
791.721	64.47
791.897	63.48
792.073	62.28
792.249	54.99
792.426	56.62
792.602	58.71
792.778	57.21
792.954	59.54
793.13	61.76
793.307	54.06
793.483	48.55
793.659	50.44
793.835	54.68
794.011	55.59
794.187	60.41
794.363	59.06
794.539	65.92
794.715	57.21
794.891	56.78
795.067	54.16
795.243	62.18
795.419	55.57
795.595	57.32
795.771	57.28
795.947	63.11
796.122	60.64
796.298	61.47
796.474	64.22
796.65	65.68
796.826	60.59
797.001	57.85
797.177	56.67
797.353	60.98
797.529	59.38
797.704	57.46
797.88	58.88
798.056	56.81
798.231	50.09
798.407	55.34
798.582	58.74
798.758	65.79
798.934	72.32
799.109	71.95
799.285	62.18
799.46	66.02
799.636	61.05
799.811	55.69
799.986	60.36
800.162	67.74
800.337	67.99
800.513	59.49
800.688	62.05
800.863	68.83
801.039	63.82
801.214	57.3
801.389	64.35
801.565	60.93
801.74	45.51
801.915	54.37
802.09	52.18
802.265	58.34
802.441	57.25
802.616	62.29
802.791	55.49
802.966	58.25
803.141	55.93
803.316	50.95
803.491	58.39
803.666	65.96
803.841	69.09
804.016	63.69
804.191	67.02
804.366	57.01
804.541	51.14
804.716	49.98
804.891	45.27
805.066	57.51
805.241	54.81
805.416	54.28
805.591	50.73
805.765	55.96
805.94	49.63
806.115	53.78
806.29	49.91
806.464	57.06
806.639	51.1
806.814	41.75
806.989	28.12
807.163	40.19
807.338	40.25
807.512	44.85
807.687	37.9
807.862	59.15
808.036	59.85
808.211	58.05
808.385	66.24
808.56	82.99
808.734	85
808.909	73.1
809.083	65.38
809.258	69.12
809.432	69.69
809.606	54.81
809.781	58.36
809.955	62.94
810.13	53.92
810.304	46.84
810.478	44.89
810.652	55.7
810.827	60.11
811.001	59.36
811.175	57.04
811.349	56.65
811.524	41.66
811.698	27.2
811.872	32.43
812.046	42.61
812.22	50.47
812.394	52
812.568	56.02
812.742	54.72
812.916	46.64
813.09	42.6
813.264	40.74
813.438	51.08
813.612	48.39
813.786	45.23
813.96	54.96
814.134	52.38
814.308	55.38
814.482	54.29
814.656	57.87
814.83	55.13
815.003	65.02
815.177	54.67
815.351	50.63
815.525	49.89
815.698	38.94
815.872	31.59
816.046	26.67
816.219	36.25
816.393	47.36
816.567	59.43
816.74	48.79
816.914	54.63
817.088	58.33
817.261	43.43
817.435	34.84
817.608	51.34
817.782	48.92
817.955	34.25
818.129	36.56
818.302	40.15
818.475	50.02
818.649	50.64
818.822	49.97
818.996	69.45
819.169	68.4
819.342	57.64
819.516	64.88
819.689	71.03
819.862	55.12
820.035	54.65
820.209	44.88
820.382	42.72
820.555	44.44
820.728	32.13
820.901	29.49
821.075	39.33
821.248	49.25
821.421	31.07
821.594	37.95
821.767	54.78
821.94	66.41
822.113	38.4
822.286	40.34
822.459	50.6
822.632	30.32
822.805	12.29
822.978	16.7
823.151	16.98
823.324	5.57
823.496	-11.55
823.669	-21.14
823.842	-23.61
824.015	-34.02
824.188	-46.32
824.361	-21.85
824.533	-15.36
824.706	9.92
824.879	14.55
825.051	25.88
825.224	22.19
825.397	11.15
825.569	-9.05
825.742	21.65
825.915	26.33
826.087	47.03
826.26	41.25
826.432	43.63
826.605	48.12
826.777	38.3
826.95	29.98
827.122	27.1
827.295	38.74
827.467	27.78
827.64	2.14
827.812	-14.32
827.984	-3.46
828.157	-35.84
828.329	-94.72
828.501	-61.42
828.674	-20.92
828.846	-36.12
829.018	9.18
829.19	12.22
829.363	32.42
829.535	29.87
829.707	41
829.879	4.96
830.051	16.99
830.223	-5.14
830.395	-34.8
830.568	-59.55
830.74	-44.61
830.912	-3.51
831.084	-8.37
831.256	9.57
831.428	18.31
831.6	-1.44
831.772	-55.48
831.943	-59.2
832.115	-42.8
832.287	-19.42
832.459	3.65
832.631	20.7
832.803	55.25
832.975	82.67
833.146	93.05
833.318	91.86
833.49	106.07
833.662	78.44
833.833	15.11
834.005	8.02
834.177	10.48
834.348	-0.19
834.52	-11.81
834.692	-1.53
834.863	-13.62
835.035	-32.84
835.206	-83.26
835.378	-62
835.549	-48.63
835.721	-48.52
835.892	-27.5
836.064	-17.44
836.235	-6.95
836.407	21.63
836.578	11.65
836.749	20.02
836.921	0
837.092	-54.98
837.264	-55.2
837.435	-75.88
837.606	-34.9
837.777	2.42
837.949	26.02
838.12	17.14
838.291	43.73
838.462	33.9
838.633	12.68
838.805	-5.32
838.976	3.9
839.147	-35.23
839.318	-64.63
839.489	-120.34
839.66	-82.26
839.831	-28.96
840.002	-30.42
840.173	-35.64
840.344	43.33
840.515	41.91
840.686	-110.05
840.857	-89.19
841.028	-58.86
841.199	-72.21
841.369	-81.56
841.54	-61.06
841.711	-18.47
841.882	1.91
842.053	-6.53
842.223	-6.14
842.394	12.97
842.565	9.6
842.736	11.21
842.906	19.51
843.077	43.75
843.248	75
843.418	78.96
843.589	59.24
843.759	141.24
843.93	60.31
844.101	16.13
844.271	15.67
844.442	36.42
844.612	32.31
844.783	19.23
844.953	-0.78
845.123	4.24
845.294	5.12
845.464	-162.99
845.635	-70.02
845.805	9.34
845.975	15.42
846.146	-56.04
846.316	-47.71
846.486	-11.31
846.656	13.58
846.827	-7.5
846.997	3.3
847.167	31.21
847.337	1.59
847.507	-38.43
847.677	-11.43
847.848	52.41
848.018	51.43
848.188	51.79
848.358	40.92
848.528	22.1
848.698	-25.88
848.868	-151.45
849.038	-246.43
849.208	-111.28
849.378	-48.14
849.548	-35.03
849.718	-8.67
849.887	13.71
850.057	-15.69
850.227	-66.81
850.397	-105.66
850.567	-242.24
850.737	-585.65
850.906	-1710
851.076	-1258.59
851.246	-612.57
851.415	-45.61
851.585	-40.75
851.755	-85.21
851.924	-21.73
852.094	-28.49
852.264	-184.51
852.433	-1142.31
852.603	-144.8
852.772	-45.05
852.942	-78.5
853.111	-69.64
853.281	-35.13
853.45	4.37
853.62	-94.78
853.789	-87.79
853.959	-91.6
854.128	-107.28
854.297	-154.04
854.467	-155.84
854.636	-153.58
854.805	-50.86
854.975	-71.91
855.144	-124.11
855.313	-56.64
855.482	-345.99
855.652	-271.48
855.821	-141.28
855.99	8.93
856.159	38.96
856.328	33.51
856.497	33.8
856.667	21.09
856.836	8.51
857.005	-41.2
857.174	-64.68
857.343	-126.06
857.512	-78.08
857.681	-127.72
857.85	-173.85
858.019	-73.55
858.188	-39.24
858.356	-66.64
858.525	-108.25
858.694	-60.29
858.863	-185.39
859.032	-180.1
859.201	-303.77
859.369	-209.69
859.538	-143.62
859.707	-82.15
859.876	-39.08
860.044	17.25
860.213	50.04
860.382	21.18
860.55	16.77
860.719	38.56
860.888	43.38
861.056	-17.09
861.225	-40.15
861.393	-14.35
861.562	-45.44
861.73	-146.48
861.899	-373.82
862.067	-2058.62
862.236	-96.68
862.404	-267.15
862.572	-185.4
862.741	-63.75
862.909	-60.13
863.078	-211.64
863.246	-145.07
863.414	-130.38
863.582	-66.09
863.751	-120.88
863.919	-76.18
864.087	-15.37
864.255	-8.27
864.424	-313.15
864.592	-29.51
864.76	-56.33
864.928	-259.2
865.096	-133.76
865.264	-108.36
865.432	-1636.36
865.6	-159
865.768	-114.8
865.936	-141.98
866.104	-159.69
866.272	-195
866.44	-364.96
866.608	565.76
866.776	268.94
866.944	2700
867.112	-461.44
867.28	-209.22
867.448	-94.58
867.615	-11.38
867.783	22.24
867.951	-0.54
868.119	26.02
868.286	-3.25
868.454	-154.46
868.622	-209.07
868.789	-207.52
868.957	-4242.86
869.125	-2826.32
869.292	-213.76
869.46	-279.38
869.627	-58.96
869.795	-62.21
869.963	-12.72
870.13	13.5
870.298	31.13
870.465	-58.59
870.632	-68.18
870.8	-62.07
870.967	-150.23
871.135	-220.8
871.302	-201.38
871.469	-243.58
871.637	-256.23
871.804	-104.13
871.971	-116.8
872.139	-466.05
872.306	-10.86
872.473	-85.99
872.64	-422.32
872.807	-179.22
872.975	12.8
873.142	-224.73
873.309	940.54
873.476	74.44
873.643	145.85
873.81	116.15
873.977	107.61
874.144	72.66
874.311	-6.35
874.478	-136.27
874.645	-161.42
874.812	-75.14
874.979	-33.67
875.146	-29.68
875.313	-36.38
875.48	30.68
875.647	-12.08
875.813	-62.55
875.98	-50.15
876.147	-88.79
876.314	-194.04
876.481	1452.89
876.647	-1695.51
876.814	665.28
876.981	-101.54
877.147	-52.15
877.314	-14.69
877.481	11.84
877.647	6.9
877.814	-16
877.98	-52.91
878.147	33.94
878.314	96.66
878.48	117.84
878.647	85.01
878.813	115.22
878.979	91.12
879.146	13.49
879.312	16.03
879.479	-4.49
879.645	-108.51
879.811	-249.84
879.978	-595.42
880.144	-253.65
880.31	-105.3
880.477	-279.03
880.643	-424.65
880.809	-163.64
880.975	-107.72
881.142	-968.18
881.308	-137.7
881.474	-37.26
881.64	-85.63
881.806	-110.67
881.972	-64.72
882.138	-77.8
882.304	-99.42
882.47	-208.49
882.636	-890.16
882.802	-239.81
882.968	-47.05
883.134	-42.77
883.3	-42.81
883.466	19.57
883.632	57.35
883.798	14.26
883.964	20.86
884.129	0.75
884.295	-9.39
884.461	-74.91
884.627	-113.95
884.793	-135.16
884.958	-32.7
885.124	-94.58
885.29	-165.98
885.455	-113.59
885.621	53.27
885.787	-53.21
885.952	-31.08
886.118	-42.33
886.283	-37.67
886.449	-156.61
886.614	-128.04
886.78	-312.69
886.945	885.25
887.111	-610.4
887.276	-436.36
887.442	-916.36
887.607	-367.92
887.773	-281.85
887.938	-231.85
888.103	-286.07
888.269	-184.34
888.434	-149.19
888.599	-38.39
888.764	-0.59
888.93	5.75
889.095	-18.23
889.26	-59.93
889.425	-39.18
889.59	40.51
889.756	29.46
889.921	54.65
890.086	92.24
890.251	66.24
890.416	-58.35
890.581	-561.29
890.746	86.79
890.911	315.29
891.076	179.32
891.241	-335.82
891.406	-6.12
891.571	-86.73
891.736	-269.72
891.901	-517.7
892.065	632.97
892.23	159.53
892.395	234.25
892.56	373.7
892.725	-471.09
892.889	-1156.1
893.054	-211.99
893.219	-83.22
893.384	-46.4
893.548	-106.19
893.713	-162.14
893.878	-114.95
