Data from Ofra_PS_T2_2A_1GT37_Reflection_1.txt Node
Date: Wed Jul 21 16:54:21 EDT 2021
User: Adam
Spectrometer: FLMT01687
Trigger mode: 0
Integration Time (sec): 1.100000E0
Scans to average: 2
Electric dark correction enabled: true
Nonlinearity correction enabled: false
Boxcar width: 2
XAxis mode: Wavelengths
Number of Pixels in Spectrum: 3648
>>>>>Begin Spectral Data<<<<<
179.494	483.6
179.716	520.94
179.937	485.99
180.158	439.12
180.38	621.56
180.601	252.76
180.823	45.65
181.044	-84.6
181.265	-3.31
181.486	30.16
181.708	28.06
181.929	119.39
182.15	-120.42
182.372	75.51
182.593	-32.93
182.814	-29.69
183.035	5.48
183.257	58.56
183.478	62.23
183.699	93.17
183.92	100.8
184.141	82.08
184.363	12.58
184.584	30.12
184.805	57.75
185.026	58.55
185.247	54.38
185.468	48.98
185.689	51.57
185.91	35.64
186.132	42.05
186.353	19.6
186.574	66.23
186.795	47.46
187.016	21.29
187.237	3.22
187.458	19.74
187.679	-22.19
187.9	-1.12
188.121	4.03
188.342	32.23
188.563	39.79
188.784	49.51
189.005	32.94
189.226	86.78
189.447	62.06
189.667	-57.52
189.888	-108.62
190.109	-656.49
190.33	-399.68
190.551	-776.55
190.772	-128.93
190.993	-108.47
191.214	-49.45
191.434	-8.46
191.655	49.88
191.876	25.31
192.097	-14.95
192.318	-45.8
192.538	-57.62
192.759	-34.91
192.98	14.8
193.201	42.67
193.421	49.21
193.642	34.75
193.863	41.54
194.083	45.16
194.304	36.63
194.525	40.37
194.745	24.86
194.966	-1.05
195.187	-30.3
195.407	-69.11
195.628	-133.16
195.848	-110.77
196.069	-126.35
196.29	-71.78
196.51	-52.22
196.731	-43.44
196.951	-75.82
197.172	-81.97
197.392	-119.31
197.613	-129.03
197.833	-143.95
198.054	-74.7
198.274	-42.02
198.495	-40.15
198.715	20.04
198.936	37.09
199.156	39.37
199.377	-7.77
199.597	-18.5
199.817	-77.85
200.038	-44.63
200.258	-107.48
200.479	-41.22
200.699	-48.5
200.919	11.02
201.14	-3.98
201.36	-19.85
201.58	17.24
201.801	49.71
202.021	20.03
202.241	13.74
202.461	23.62
202.682	-34.97
202.902	-91.95
203.122	-19.3
203.342	16.38
203.563	35.93
203.783	62.16
204.003	78.18
204.223	69.24
204.443	92.55
204.663	100.27
204.884	85.54
205.104	101.08
205.324	121.74
205.544	83.47
205.764	90.42
205.984	77.59
206.204	81.68
206.424	71.53
206.644	68.38
206.864	44.76
207.084	51.85
207.304	2.75
207.525	-136.41
207.745	-84.71
207.964	-13.91
208.184	-53.17
208.404	-71.06
208.624	-61.72
208.844	-65.52
209.064	-321.08
209.284	-263.08
209.504	-107.22
209.724	-16.09
209.944	12.84
210.164	43.75
210.384	34.48
210.604	14.99
210.823	-13.46
211.043	-29.52
211.263	-12.67
211.483	-7.97
211.703	-26.3
211.922	7.29
212.142	50.39
212.362	41.46
212.582	22.68
212.801	14.31
213.021	-11.65
213.241	-35.9
213.461	-62.12
213.68	-52.04
213.9	-51
214.12	-9.39
214.339	-62.05
214.559	-28.42
214.779	-12.34
214.998	15.15
215.218	-28.66
215.438	12.67
215.657	-0.42
215.877	8.53
216.096	19.07
216.316	34.69
216.535	12.77
216.755	31.73
216.974	-16.33
217.194	-67.17
217.413	-81.38
217.633	-78.36
217.852	-172.46
218.072	-70.75
218.291	-26.5
218.511	7.15
218.73	2.23
218.95	-6.44
219.169	-2.15
219.389	-21.09
219.608	-16.24
219.827	-3.53
220.047	24.14
220.266	21.86
220.485	25.16
220.705	31.86
220.924	19.45
221.143	36.3
221.363	19.46
221.582	29.18
221.801	25.17
222.021	30.19
222.24	-16.55
222.459	43.12
222.678	-1.55
222.897	-29.67
223.117	-74.36
223.336	-43.43
223.555	-44.32
223.774	-15.5
223.993	-0.6
224.213	57.09
224.432	40.19
224.651	61.77
224.87	48.33
225.089	64.21
225.308	43.02
225.527	47.5
225.746	47.35
225.965	34.71
226.184	-5.03
226.404	24.63
226.623	-9.09
226.842	-2.28
227.061	28.55
227.28	37.22
227.499	27.49
227.718	48.62
227.936	44.08
228.155	47.21
228.374	40.09
228.593	35.98
228.812	39.79
229.031	31.02
229.25	-17.06
229.469	-19.83
229.688	-35.32
229.907	13.59
230.125	28.02
230.344	37.63
230.563	40.24
230.782	49.57
231.001	-20.78
231.22	-20.65
231.438	3
231.657	-6.11
231.876	-14.05
232.095	23.24
232.313	17.88
232.532	-2.1
232.751	-9.76
232.969	-4.02
233.188	-67.86
233.407	3.31
233.625	1.02
233.844	10.43
234.063	-2.26
234.281	24.36
234.5	8.98
234.719	19.58
234.937	23.42
235.156	23.18
235.374	17.7
235.593	-4.61
235.811	-12.18
236.03	-21.45
236.249	-34.39
236.467	-10.59
236.686	13.71
236.904	16.32
237.123	7.12
237.341	19.41
237.559	15.16
237.778	4.39
237.996	7.08
238.215	25.49
238.433	25.74
238.652	17.44
238.87	10.83
239.088	1.54
239.307	-6.8
239.525	-15.83
239.743	-23.55
239.962	-22.89
240.18	-25.45
240.398	-60.2
240.617	-58.68
240.835	-44.8
241.053	-28.46
241.271	-4.07
241.49	17.3
241.708	-16.94
241.926	-38.32
242.144	-11.61
242.363	-40.87
242.581	-37.46
242.799	-3.65
243.017	18.95
243.235	13.91
243.453	17.79
243.672	15.56
243.89	15.94
244.108	0.75
244.326	14.93
244.544	38.13
244.762	30.29
244.98	35.6
245.198	50.97
245.416	13.38
245.634	8.65
245.852	16.92
246.07	19.81
246.288	13.93
246.506	6.1
246.724	-6.85
246.942	6.7
247.16	14.69
247.378	27.91
247.596	45.76
247.814	49.27
248.032	17.35
248.25	26.03
248.468	6.28
248.685	-14.94
248.903	11.65
249.121	21.09
249.339	3.38
249.557	-4.68
249.775	17.28
249.992	-36.2
250.21	-42.79
250.428	-36.5
250.646	-57.64
250.863	-66.96
251.081	-39.76
251.299	-30.44
251.517	-16.17
251.734	16.37
251.952	20.38
252.17	11.59
252.387	18.86
252.605	15.53
252.823	16.67
253.04	29.43
253.258	37.02
253.475	38.14
253.693	53.58
253.911	48.07
254.128	52.88
254.346	65.37
254.563	42.32
254.781	1.15
254.998	-6
255.216	-23.71
255.433	-12.92
255.651	33.13
255.868	51.48
256.086	40.7
256.303	29.79
256.521	27.93
256.738	9.85
256.956	-1.23
257.173	0.56
257.39	-7.66
257.608	-21.34
257.825	-9.21
258.043	18.36
258.26	17.23
258.477	41.1
258.695	29.55
258.912	0.58
259.129	3.86
259.346	-20.95
259.564	-54.56
259.781	-66.2
259.998	-12.04
260.216	-4.48
260.433	11.88
260.65	18.46
260.867	39.94
261.084	10.52
261.302	3.69
261.519	28.2
261.736	5.13
261.953	-16.83
262.17	22.64
262.387	13.48
262.604	-33.75
262.822	-36.87
263.039	-16.9
263.256	-44.86
263.473	-5.17
263.69	23.01
263.907	44.39
264.124	51.81
264.341	52.08
264.558	28.55
264.775	33.65
264.992	32.24
265.209	26.62
265.426	28.43
265.643	34.76
265.86	30.22
266.077	31.99
266.294	11.85
266.51	-19.42
266.727	-39.77
266.944	-12.75
267.161	-43.31
267.378	-19.34
267.595	21.76
267.812	25.39
268.028	2.11
268.245	40.73
268.462	10.58
268.679	-2.89
268.896	24.97
269.112	24.09
269.329	26.68
269.546	28.27
269.763	27.82
269.979	17.05
270.196	10.31
270.413	-24.52
270.629	-35.57
270.846	-41.93
271.063	-32.71
271.279	-29.41
271.496	-10.8
271.712	21.14
271.929	28.82
272.146	14.24
272.362	35.05
272.579	43.05
272.795	37.16
273.012	29.35
273.228	45.62
273.445	10.95
273.661	3.35
273.878	-26.41
274.094	-5.98
274.311	-47.27
274.527	16.48
274.744	19.5
274.96	7.26
275.177	20.06
275.393	37.92
275.609	14.07
275.826	27.55
276.042	36.07
276.259	11.87
276.475	22.3
276.691	26.85
276.908	8.21
277.124	20.33
277.34	15.54
277.557	2.57
277.773	-1.98
277.989	-1.77
278.205	-6.5
278.422	9.93
278.638	18.83
278.854	45.66
279.07	58.42
279.286	59.52
279.503	42.22
279.719	28.77
279.935	6.77
280.151	6.24
280.367	4.5
280.583	-13.22
280.799	-3.06
281.016	-30.11
281.232	-12.27
281.448	-11.68
281.664	10.74
281.88	-20.82
282.096	18.32
282.312	25.19
282.528	45.97
282.744	64.62
282.96	60.64
283.176	30.42
283.392	26.23
283.608	4.44
283.824	-5.05
284.04	-7.32
284.256	-15.87
284.471	-30.28
284.687	-27.7
284.903	-26.25
285.119	11.54
285.335	3.25
285.551	23.99
285.767	16.2
285.982	22.38
286.198	-20.58
286.414	14.45
286.63	12.07
286.846	19.09
287.061	-3.31
287.277	32.74
287.493	11.77
287.709	18.61
287.924	28.65
288.14	64.6
288.356	45.44
288.571	60.1
288.787	45.26
289.003	33.94
289.218	13.69
289.434	-12.8
289.65	5.7
289.865	7.44
290.081	36.98
290.296	44.99
290.512	57.95
290.727	11.41
290.943	14.43
291.159	1.96
291.374	-1.17
291.59	-6.87
291.805	22.24
292.021	23.12
292.236	27.59
292.451	41
292.667	44.71
292.882	37.2
293.098	23.19
293.313	14.28
293.529	-12.01
293.744	-32.07
293.959	-32.76
294.175	-22.81
294.39	-3.13
294.605	2.91
294.821	18.44
295.036	14.84
295.251	27.51
295.467	24.49
295.682	20.88
295.897	-0.34
296.112	-12.67
296.328	-36.72
296.543	-73.51
296.758	-46.29
296.973	-12.02
297.188	15.51
297.404	2.92
297.619	-6.77
297.834	-22.31
298.049	-51.29
298.264	-59.77
298.479	-14.37
298.694	-1.73
298.909	14.79
299.125	28
299.34	28.49
299.555	6.92
299.77	4.55
299.985	-40.04
300.2	-89.49
300.415	-88.98
300.63	-53.44
300.845	-48.63
301.06	-23.07
301.275	14.28
301.49	41.45
301.704	41.76
301.919	39.56
302.134	20.74
302.349	8.78
302.564	-54.06
302.779	-94.8
302.994	-116.38
303.209	-62.62
303.423	-54.03
303.638	12.96
303.853	-11.47
304.068	-0.09
304.283	-4.55
304.497	10.41
304.712	-1.78
304.927	8.52
305.142	3.23
305.356	26.72
305.571	13.03
305.786	16.54
306	15.22
306.215	26.07
306.43	-9.73
306.644	27.69
306.859	46.52
307.074	45.59
307.288	13.12
307.503	37.4
307.717	19.27
307.932	-3.99
308.147	-11.83
308.361	7.68
308.576	-24.68
308.79	-74.11
309.005	-51.24
309.219	-20.48
309.434	-22.31
309.648	-3.59
309.863	16.44
310.077	18.58
310.292	4.06
310.506	3.89
310.72	19.73
310.935	15.98
311.149	10.12
311.364	22.28
311.578	33.61
311.792	18.78
312.007	29.22
312.221	24.75
312.435	11.85
312.649	0.88
312.864	26.27
313.078	22.93
313.292	68.06
313.507	63.89
313.721	75.1
313.935	36.5
314.149	41.5
314.363	29.56
314.578	31.91
314.792	39.12
315.006	34.62
315.22	32.37
315.434	38.3
315.648	45.06
315.862	34.73
316.077	32.37
316.291	35.02
316.505	46.41
316.719	64.84
316.933	43.67
317.147	35.77
317.361	-7.21
317.575	-34.72
317.789	-58.18
318.003	-86.56
318.217	-44.25
318.431	32.65
318.645	52.84
318.859	54.2
319.073	65.96
319.287	40.39
319.5	11.22
319.714	-17.41
319.928	-50.27
320.142	-64.15
320.356	-23.09
320.57	1.43
320.784	3.26
320.997	-5.96
321.211	8.67
321.425	-16.64
321.639	-27.19
321.853	-0.73
322.066	17.76
322.28	18.12
322.494	31.39
322.707	41.28
322.921	40.77
323.135	47.43
323.349	40.4
323.562	10.77
323.776	-0.73
323.989	-14.78
324.203	-41.71
324.417	-52.27
324.63	-45.65
324.844	-31.72
325.057	-20.2
325.271	-14.25
325.485	12.97
325.698	22.26
325.912	21.88
326.125	-0.88
326.339	9.46
326.552	-1.09
326.766	8.89
326.979	26.42
327.193	59.22
327.406	45.79
327.619	41
327.833	47.12
328.046	18.61
328.26	-13.43
328.473	5.51
328.686	-16.93
328.9	-14.4
329.113	11.51
329.326	-2.61
329.54	-1.72
329.753	-0.61
329.966	-26.26
330.179	-24.61
330.393	1.66
330.606	-2.86
330.819	24.58
331.032	42.57
331.246	37.23
331.459	61.66
331.672	54.84
331.885	42.19
332.098	20.6
332.311	25.4
332.525	-25.31
332.738	-12.04
332.951	-1.2
333.164	21.15
333.377	17.39
333.59	27.18
333.803	43.59
334.016	30.49
334.229	4.79
334.442	29.63
334.655	43.73
334.868	33.18
335.081	44.8
335.294	53.12
335.507	33.91
335.72	13.51
335.933	20.92
336.146	6.75
336.359	-10.11
336.572	-19.42
336.785	-27.11
336.997	-43.61
337.21	-27.38
337.423	-15.08
337.636	-12.4
337.849	9.27
338.062	5.57
338.274	-0.61
338.487	-2.72
338.7	-9.77
338.913	-42.65
339.125	-58.77
339.338	-107.21
339.551	-95.43
339.763	-56.9
339.976	-25.5
340.189	-0.7
340.402	23.64
340.614	18.75
340.827	14.46
341.039	0.09
341.252	7.59
341.465	22.82
341.677	28.72
341.89	-14.16
342.102	12.07
342.315	-5.52
342.527	-41.66
342.74	-34.62
342.952	23.7
343.165	12.93
343.377	33.58
343.59	39.61
343.802	42.34
344.015	33.77
344.227	37.71
344.44	26.78
344.652	26.59
344.864	17.85
345.077	25.97
345.289	21.56
345.502	21.13
345.714	16.28
345.926	17.26
346.139	10.18
346.351	18.33
346.563	20.47
346.775	22.89
346.988	21.38
347.2	11.62
347.412	-7.93
347.624	-9.52
347.837	-35.73
348.049	-10.34
348.261	8.71
348.473	14.25
348.685	4.15
348.897	13.36
349.11	-11.56
349.322	-44.39
349.534	-46.02
349.746	-37.34
349.958	-31.91
350.17	-22.73
350.382	2.68
350.594	4.6
350.806	12.22
351.018	17.87
351.23	13.42
351.442	-13.72
351.654	-19.24
351.866	-17.31
352.078	-17.75
352.29	-1.2
352.502	22.7
352.714	33.5
352.926	26.07
353.138	24.05
353.35	16
353.561	14.6
353.773	2.98
353.985	13.05
354.197	8.92
354.409	4.41
354.621	-8.15
354.832	-9.67
355.044	-20.29
355.256	-7.38
355.468	11.72
355.679	12.84
355.891	23.82
356.103	16.78
356.314	19.75
356.526	23.11
356.738	22.13
356.949	23.76
357.161	45.41
357.373	30.05
357.584	15.74
357.796	30.06
358.008	15.21
358.219	22.92
358.431	19.89
358.642	21.56
358.854	3.59
359.065	-1.03
359.277	-28.04
359.488	-31.09
359.7	-47.84
359.911	-39.29
360.123	-20.46
360.334	-30.82
360.546	-34.74
360.757	-24.92
360.969	-15.79
361.18	8.39
361.391	34.42
361.603	23.62
361.814	21.39
362.025	25.14
362.237	4.01
362.448	4.87
362.659	13.3
362.871	16.13
363.082	9.76
363.293	8.41
363.504	-3.99
363.716	-11.14
363.927	-17.3
364.138	-29.87
364.349	-37.43
364.56	-35.18
364.772	-34.39
364.983	-9.45
365.194	-3.76
365.405	11.4
365.616	22.76
365.827	29.93
366.038	7.12
366.25	-2.85
366.461	-18.89
366.672	-4.35
366.883	5.47
367.094	12.76
367.305	13.13
367.516	19.74
367.727	10.74
367.938	1.7
368.149	3.17
368.36	11.06
368.571	13.19
368.781	-10.53
368.992	-18.1
369.203	-30.33
369.414	-48.45
369.625	-66.62
369.836	-47.05
370.047	-62.19
370.258	-44.64
370.468	-40.42
370.679	-38.41
370.89	-40.12
371.101	-19.31
371.312	-23.56
371.522	-6.77
371.733	7.61
371.944	18.82
372.155	21.14
372.365	16.89
372.576	9.66
372.787	-4.39
372.997	-27.14
373.208	-30.38
373.419	-10.64
373.629	-22.66
373.84	-22.85
374.05	-12.13
374.261	-0.93
374.472	-18.47
374.682	11.63
374.893	12.83
375.103	23.33
375.314	21.88
375.524	24.05
375.735	12.9
375.945	29.16
376.156	17.45
376.366	9.8
376.577	8.39
376.787	6.1
376.997	-7.11
377.208	-7.22
377.418	-5.6
377.629	-5.14
377.839	-2.39
378.049	0.15
378.26	15.98
378.47	23.73
378.68	25.23
378.89	15.98
379.101	14.44
379.311	-9.39
379.521	-29.74
379.732	-37.8
379.942	-36.66
380.152	-47.02
380.362	-15.28
380.572	-9.28
380.783	3.33
380.993	13.45
381.203	17.93
381.413	21.1
381.623	21.36
381.833	21.27
382.043	15.61
382.253	4.33
382.463	1.89
382.674	-9.39
382.884	-29.88
383.094	-16.74
383.304	-5.33
383.514	-11
383.724	-6.73
383.934	-1.6
384.144	-14.35
384.353	-17.43
384.563	-14.63
384.773	-6.96
384.983	-11
385.193	4.54
385.403	13.41
385.613	21.29
385.823	12.77
386.033	14.82
386.242	7.57
386.452	1.88
386.662	-4.69
386.872	-0.03
387.082	-5.83
387.291	-13.56
387.501	-18.72
387.711	-14.29
387.921	-10.33
388.13	-6.26
388.34	3.44
388.55	2.83
388.759	-0.9
388.969	3.82
389.179	2.15
389.388	3.06
389.598	9.16
389.807	7.25
390.017	0.84
390.227	3.46
390.436	1.39
390.646	-0.45
390.855	0.58
391.065	1.98
391.274	-2.33
391.484	-4.16
391.693	-4.19
391.903	-0.05
392.112	6.08
392.322	10.55
392.531	13.44
392.74	13.49
392.95	9.61
393.159	5.25
393.369	4.52
393.578	2.15
393.787	2.07
393.997	3.3
394.206	1.2
394.415	1.03
394.625	1.25
394.834	0.3
395.043	1.25
395.252	4.22
395.462	6.68
395.671	7.26
395.88	7.99
396.089	7.86
396.298	6.11
396.508	4.46
396.717	4.24
396.926	4.5
397.135	4.19
397.344	4.06
397.553	4.89
397.762	5.58
397.971	5.32
398.181	5.15
398.39	5.07
398.599	4.41
398.808	4.65
399.017	5.42
399.226	6.4
399.435	7.54
399.644	7.93
399.853	6.9
400.062	6.13
400.27	5.88
400.479	5.27
400.688	4.2
400.897	4.77
401.106	4.96
401.315	4.53
401.524	4.59
401.733	5.04
401.941	5.24
402.15	5.28
402.359	5.17
402.568	5.27
402.777	5.39
402.985	5.17
403.194	5.01
403.403	5.11
403.612	5.01
403.82	4.9
404.029	4.73
404.238	4.71
404.446	4.81
404.655	4.48
404.864	4.48
405.072	4.48
405.281	4.54
405.489	4.35
405.698	4.51
405.906	4.56
406.115	4.38
406.324	4.31
406.532	4.49
406.741	4.62
406.949	4.64
407.158	4.71
407.366	4.83
407.574	4.79
407.783	4.72
407.991	4.55
408.2	4.72
408.408	4.64
408.617	4.48
408.825	4.49
409.033	4.63
409.242	4.59
409.45	4.68
409.658	4.62
409.867	4.64
410.075	4.44
410.283	4.3
410.491	4.19
410.7	4.33
410.908	4.26
411.116	4.59
411.324	4.65
411.533	4.59
411.741	4.66
411.949	4.64
412.157	4.32
412.365	4.28
412.573	4.15
412.781	4.1
412.99	4.1
413.198	4.26
413.406	4.33
413.614	4.34
413.822	4.19
414.03	4.1
414.238	3.94
414.446	3.87
414.654	3.82
414.862	3.88
415.07	3.96
415.278	4.09
415.486	3.99
415.694	4.1
415.902	4.02
416.109	3.85
416.317	3.74
416.525	3.59
416.733	3.49
416.941	3.6
417.149	3.71
417.357	3.79
417.564	4.02
417.772	4.22
417.98	4.14
418.188	4.04
418.395	3.95
418.603	4.09
418.811	3.89
419.019	3.91
419.226	4.07
419.434	4.23
419.642	4.06
419.849	4.18
420.057	4.15
420.265	4.08
420.472	3.82
420.68	3.77
420.887	3.66
421.095	3.6
421.302	3.55
421.51	3.8
421.717	3.88
421.925	3.93
422.132	3.91
422.34	3.71
422.547	3.59
422.755	3.48
422.962	3.48
423.17	3.35
423.377	3.48
423.585	3.52
423.792	3.5
423.999	3.48
424.207	3.54
424.414	3.62
424.621	3.57
424.829	3.57
425.036	3.63
425.243	3.72
425.451	3.57
425.658	3.45
425.865	3.68
426.072	3.63
426.28	3.86
426.487	3.99
426.694	4.05
426.901	3.83
427.108	3.72
427.315	3.5
427.523	3.65
427.73	3.52
427.937	3.47
428.144	3.45
428.351	3.4
428.558	3.38
428.765	3.55
428.972	3.56
429.179	3.61
429.386	3.86
429.593	3.69
429.8	3.55
430.007	3.61
430.214	3.75
430.421	3.5
430.628	3.35
430.835	3.31
431.042	3.52
431.249	3.54
431.456	3.64
431.662	3.84
431.869	3.98
432.076	3.94
432.283	3.99
432.49	3.99
432.697	4.05
432.903	3.96
433.11	3.9
433.317	3.99
433.524	4.07
433.73	4.01
433.937	4.24
434.144	4.08
434.35	3.94
434.557	3.87
434.764	3.9
434.97	3.85
435.177	4.04
435.384	4.02
435.59	4.04
435.797	4.22
436.003	4.17
436.21	4.09
436.416	4.11
436.623	4.18
436.829	4.14
437.036	4.26
437.242	4.44
437.449	4.49
437.655	4.52
437.862	4.58
438.068	4.48
438.275	4.58
438.481	4.71
438.687	4.71
438.894	4.73
439.1	4.88
439.307	4.87
439.513	4.73
439.719	4.68
439.926	4.73
440.132	4.72
440.338	4.61
440.544	4.76
440.751	4.83
440.957	4.84
441.163	4.8
441.369	4.91
441.575	4.73
441.782	4.85
441.988	4.77
442.194	4.81
442.4	4.82
442.606	5.15
442.812	5.13
443.018	5.16
443.224	5.19
443.431	5.25
443.637	5.01
443.843	4.95
444.049	4.92
444.255	4.83
444.461	4.89
444.667	4.91
444.873	5.03
445.079	5.05
445.284	5.2
445.49	5.01
445.696	4.95
445.902	4.89
446.108	4.89
446.314	4.94
446.52	5.02
446.726	5.26
446.931	5.22
447.137	5.24
447.343	5.22
447.549	5.2
447.755	5.09
447.96	5.21
448.166	5.14
448.372	4.99
448.578	5.08
448.783	5.06
448.989	5.09
449.195	5.25
449.4	5.43
449.606	5.36
449.812	5.36
450.017	5.38
450.223	5.33
450.428	5.24
450.634	5.26
450.84	5.4
451.045	5.3
451.251	5.28
451.456	5.47
451.662	5.55
451.867	5.56
452.073	5.61
452.278	5.65
452.483	5.65
452.689	5.64
452.894	5.62
453.1	5.64
453.305	5.63
453.51	5.58
453.716	5.51
453.921	5.53
454.127	5.44
454.332	5.43
454.537	5.36
454.742	5.39
454.948	5.37
455.153	5.5
455.358	5.59
455.563	5.69
455.769	5.81
455.974	5.82
456.179	5.73
456.384	5.67
456.589	5.69
456.795	5.55
457	5.56
457.205	5.72
457.41	5.73
457.615	5.72
457.82	5.84
458.025	5.8
458.23	5.69
458.435	5.62
458.64	5.51
458.845	5.6
459.05	5.73
459.255	5.81
459.46	5.86
459.665	5.88
459.87	5.72
460.075	5.63
460.28	5.65
460.485	5.84
460.69	5.88
460.895	5.88
461.099	5.91
461.304	5.93
461.509	5.88
461.714	5.85
461.919	5.98
462.123	5.92
462.328	5.97
462.533	5.9
462.738	6.03
462.942	6.02
463.147	6.07
463.352	6.08
463.556	6.09
463.761	6.11
463.966	6.04
464.17	6.08
464.375	6.03
464.58	6.04
464.784	5.98
464.989	5.99
465.193	6.1
465.398	6.16
465.602	6.25
465.807	6.25
466.011	6.38
466.216	6.32
466.42	6.4
466.625	6.44
466.829	6.53
467.034	6.56
467.238	6.69
467.443	6.63
467.647	6.6
467.851	6.6
468.056	6.63
468.26	6.55
468.464	6.61
468.669	6.77
468.873	6.91
469.077	6.88
469.282	7.07
469.486	7.09
469.69	7.01
469.894	6.88
470.099	7
470.303	6.98
470.507	6.98
470.711	6.95
470.915	7.02
471.119	6.94
471.324	6.82
471.528	6.8
471.732	6.88
471.936	6.89
472.14	7.02
472.344	7.19
472.548	7.33
472.752	7.48
472.956	7.71
473.16	7.67
473.364	7.59
473.568	7.56
473.772	7.58
473.976	7.42
474.18	7.45
474.384	7.52
474.588	7.57
474.792	7.49
474.995	7.63
475.199	7.71
475.403	7.85
475.607	7.91
475.811	7.95
476.015	7.96
476.218	8.05
476.422	7.96
476.626	8.03
476.83	8.11
477.033	8.14
477.237	8.04
477.441	8.14
477.644	8.11
477.848	8.15
478.052	8.12
478.255	8.14
478.459	8.15
478.663	8.27
478.866	8.32
479.07	8.4
479.273	8.59
479.477	8.58
479.681	8.59
479.884	8.55
480.088	8.51
480.291	8.47
480.495	8.51
480.698	8.47
480.901	8.52
481.105	8.68
481.308	8.66
481.512	8.66
481.715	8.7
481.919	8.71
482.122	8.75
482.325	8.81
482.529	8.88
482.732	8.87
482.935	8.86
483.138	8.75
483.342	8.83
483.545	8.91
483.748	9.06
483.952	9.11
484.155	9.3
484.358	9.26
484.561	9.2
484.764	9.12
484.967	9.23
485.171	9.28
485.374	9.27
485.577	9.35
485.78	9.45
485.983	9.47
486.186	9.31
486.389	9.32
486.592	9.32
486.795	9.31
486.998	9.25
487.201	9.27
487.404	9.31
487.607	9.41
487.81	9.33
488.013	9.35
488.216	9.36
488.419	9.34
488.622	9.23
488.825	9.29
489.028	9.25
489.231	9.26
489.433	9.2
489.636	9.16
489.839	9.2
490.042	9.3
490.245	9.3
490.447	9.43
490.65	9.47
490.853	9.39
491.056	9.4
491.258	9.45
491.461	9.39
491.664	9.45
491.866	9.45
492.069	9.46
492.272	9.34
492.474	9.43
492.677	9.51
492.879	9.5
493.082	9.54
493.285	9.74
493.487	9.71
493.69	9.64
493.892	9.7
494.095	9.67
494.297	9.6
494.5	9.65
494.702	9.69
494.905	9.68
495.107	9.64
495.309	9.7
495.512	9.67
495.714	9.72
495.917	9.76
496.119	9.81
496.321	9.83
496.524	9.94
496.726	9.87
496.928	9.96
497.13	9.95
497.333	9.94
497.535	9.91
497.737	10.02
497.939	10
498.142	10.09
498.344	10.13
498.546	10.12
498.748	10.12
498.95	10.17
499.152	10.19
499.355	10.19
499.557	10.23
499.759	10.31
499.961	10.32
500.163	10.36
500.365	10.37
500.567	10.47
500.769	10.44
500.971	10.44
501.173	10.41
501.375	10.5
501.577	10.44
501.779	10.43
501.981	10.46
502.183	10.46
502.385	10.44
502.587	10.49
502.788	10.58
502.99	10.64
503.192	10.77
503.394	10.88
503.596	10.85
503.798	10.89
503.999	10.93
504.201	10.91
504.403	10.88
504.605	10.99
504.806	10.99
505.008	10.99
505.21	11.1
505.411	11.13
505.613	11.13
505.815	11.11
506.016	11.17
506.218	11.21
506.42	11.21
506.621	11.21
506.823	11.37
507.024	11.39
507.226	11.37
507.427	11.41
507.629	11.49
507.83	11.53
508.032	11.58
508.233	11.68
508.435	11.75
508.636	11.82
508.838	11.79
509.039	11.74
509.24	11.74
509.442	11.73
509.643	11.69
509.845	11.74
510.046	11.9
510.247	11.9
510.448	11.99
510.65	12.1
510.851	12.23
511.052	12.24
511.254	12.27
511.455	12.29
511.656	12.27
511.857	12.27
512.058	12.22
512.26	12.23
512.461	12.25
512.662	12.3
512.863	12.28
513.064	12.36
513.265	12.37
513.466	12.44
513.667	12.47
513.868	12.46
514.069	12.55
514.27	12.67
514.471	12.67
514.672	12.72
514.873	12.74
515.074	12.71
515.275	12.66
515.476	12.63
515.677	12.61
515.878	12.74
516.079	12.77
516.28	12.81
516.481	12.89
516.682	12.96
516.882	12.89
517.083	12.86
517.284	12.87
517.485	12.84
517.686	12.82
517.886	12.85
518.087	12.93
518.288	12.96
518.488	12.96
518.689	12.96
518.89	12.96
519.091	13
519.291	13.04
519.492	13.12
519.692	13.17
519.893	13.27
520.094	13.24
520.294	13.26
520.495	13.24
520.695	13.25
520.896	13.18
521.096	13.23
521.297	13.19
521.497	13.24
521.698	13.28
521.898	13.34
522.099	13.33
522.299	13.41
522.499	13.43
522.7	13.47
522.9	13.5
523.101	13.54
523.301	13.53
523.501	13.54
523.702	13.57
523.902	13.65
524.102	13.7
524.302	13.74
524.503	13.75
524.703	13.72
524.903	13.65
525.103	13.63
525.304	13.72
525.504	13.79
525.704	13.92
525.904	13.94
526.104	13.92
526.304	13.91
526.504	13.87
526.705	13.79
526.905	13.89
527.105	13.94
527.305	13.93
527.505	13.93
527.705	13.94
527.905	13.85
528.105	13.84
528.305	13.82
528.505	13.93
528.705	14.04
528.905	14.07
529.105	14.14
529.304	14.23
529.504	14.24
529.704	14.13
529.904	14.16
530.104	14.11
530.304	14.12
530.503	14.16
530.703	14.17
530.903	14.2
531.103	14.3
531.303	14.33
531.502	14.34
531.702	14.47
531.902	14.52
532.101	14.52
532.301	14.5
532.501	14.52
532.7	14.49
532.9	14.49
533.1	14.5
533.299	14.6
533.499	14.61
533.698	14.59
533.898	14.58
534.097	14.65
534.297	14.62
534.496	14.59
534.696	14.65
534.895	14.75
535.095	14.82
535.294	14.85
535.494	14.88
535.693	14.95
535.892	14.97
536.092	14.92
536.291	14.94
536.491	15.05
536.69	15.1
536.889	15.09
537.088	15.13
537.288	15.14
537.487	15.18
537.686	15.13
537.886	15.19
538.085	15.23
538.284	15.35
538.483	15.33
538.682	15.46
538.882	15.48
539.081	15.53
539.28	15.47
539.479	15.51
539.678	15.49
539.877	15.57
540.076	15.62
540.275	15.64
540.474	15.65
540.673	15.73
540.872	15.74
541.071	15.72
541.27	15.83
541.469	15.96
541.668	15.94
541.867	16.03
542.066	16.15
542.265	16.22
542.464	16.25
542.663	16.31
542.862	16.42
543.06	16.46
543.259	16.48
543.458	16.47
543.657	16.53
543.856	16.51
544.054	16.54
544.253	16.53
544.452	16.65
544.651	16.76
544.849	16.73
545.048	16.84
545.247	16.96
545.445	16.98
545.644	17.04
545.843	17.13
546.041	17.17
546.24	17.29
546.438	17.41
546.637	17.4
546.836	17.57
547.034	17.68
547.233	17.7
547.431	17.73
547.63	17.8
547.828	17.79
548.027	17.79
548.225	17.81
548.423	17.87
548.622	17.97
548.82	18.02
549.019	18.11
549.217	18.23
549.415	18.38
549.614	18.48
549.812	18.58
550.01	18.64
550.209	18.75
550.407	18.81
550.605	18.91
550.803	19.08
551.002	19.2
551.2	19.32
551.398	19.39
551.596	19.5
551.794	19.52
551.993	19.58
552.191	19.62
552.389	19.8
552.587	19.83
552.785	19.89
552.983	20.11
553.181	20.17
553.379	20.24
553.577	20.33
553.775	20.49
553.973	20.55
554.171	20.72
554.369	20.82
554.567	20.98
554.765	21.08
554.963	21.14
555.161	21.13
555.359	21.16
555.557	21.25
555.755	21.34
555.952	21.52
556.15	21.73
556.348	21.88
556.546	22.02
556.744	22.04
556.941	22.11
557.139	22.14
557.337	22.21
557.535	22.28
557.732	22.46
557.93	22.56
558.128	22.71
558.325	22.92
558.523	23.04
558.721	23.1
558.918	23.25
559.116	23.37
559.313	23.37
559.511	23.49
559.708	23.66
559.906	23.71
560.104	23.77
560.301	23.91
560.498	24.02
560.696	24.14
560.893	24.29
561.091	24.44
561.288	24.58
561.486	24.81
561.683	24.86
561.88	24.96
562.078	25.19
562.275	25.26
562.473	25.26
562.67	25.55
562.867	25.62
563.064	25.68
563.262	25.79
563.459	25.94
563.656	26.03
563.853	26.21
564.051	26.29
564.248	26.48
564.445	26.65
564.642	26.77
564.839	26.88
565.036	27.18
565.234	27.39
565.431	27.59
565.628	27.65
565.825	27.82
566.022	27.93
566.219	28.02
566.416	28.07
566.613	28.25
566.81	28.31
567.007	28.28
567.204	28.35
567.401	28.42
567.598	28.43
567.795	28.59
567.991	28.74
568.188	28.86
568.385	28.99
568.582	29.14
568.779	29.17
568.976	29.21
569.172	29.31
569.369	29.36
569.566	29.43
569.763	29.59
569.96	29.62
570.156	29.64
570.353	29.67
570.55	29.79
570.746	29.79
570.943	29.93
571.14	29.95
571.336	30.11
571.533	30.2
571.729	30.29
571.926	30.36
572.123	30.5
572.319	30.46
572.516	30.47
572.712	30.57
572.909	30.61
573.105	30.75
573.302	30.87
573.498	30.9
573.695	30.82
573.891	30.9
574.087	30.83
574.284	30.86
574.48	30.91
574.677	30.91
574.873	30.91
575.069	31.03
575.266	31.02
575.462	31.02
575.658	31.21
575.854	31.24
576.051	31.23
576.247	31.27
576.443	31.29
576.639	31.19
576.835	31.2
577.032	31.15
577.228	31.18
577.424	31.22
577.62	31.19
577.816	31.22
578.012	31.29
578.208	31.28
578.404	31.32
578.6	31.43
578.796	31.42
578.993	31.42
579.189	31.35
579.384	31.24
579.58	31.22
579.776	31.22
579.972	31.08
580.168	31.12
580.364	31.18
580.56	31.12
580.756	31.1
580.952	31.15
581.148	31.21
581.343	31.25
581.539	31.27
581.735	31.25
581.931	31.33
582.127	31.29
582.322	31.24
582.518	31.25
582.714	31.31
582.909	31.27
583.105	31.27
583.301	31.18
583.496	31.12
583.692	31.05
583.888	30.93
584.083	30.92
584.279	30.99
584.474	31.07
584.67	31.09
584.866	31.27
585.061	31.1
585.257	31.21
585.452	31.28
585.648	31.32
585.843	31.24
586.039	31.33
586.234	31.32
586.429	31.14
586.625	31.15
586.82	31.2
587.015	31.23
587.211	31.08
587.406	31.2
587.601	31.23
587.797	31.13
587.992	31.11
588.187	31.27
588.383	31.16
588.578	31.13
588.773	31.28
588.968	31.31
589.163	31.35
589.359	31.4
589.554	31.43
589.749	31.47
589.944	31.54
590.139	31.48
590.334	31.55
590.529	31.54
590.724	31.57
590.919	31.71
591.114	31.83
591.309	31.89
591.504	31.98
591.699	31.98
591.894	31.94
592.089	31.97
592.284	32.02
592.479	32.08
592.674	32.13
592.869	32.22
593.064	32.27
593.259	32.38
593.454	32.46
593.648	32.5
593.843	32.5
594.038	32.6
594.233	32.59
594.428	32.69
594.622	32.76
594.817	33.01
595.012	33.01
595.206	33.12
595.401	33.1
595.596	33.17
595.79	33.17
595.985	33.37
596.18	33.51
596.374	33.77
596.569	33.86
596.763	33.9
596.958	33.98
597.153	34.03
597.347	33.98
597.542	34.05
597.736	34.1
597.931	34.03
598.125	34.13
598.319	34.35
598.514	34.35
598.708	34.59
598.903	34.73
599.097	34.76
599.291	34.75
599.486	34.85
599.68	34.83
599.874	35.02
600.069	35.09
600.263	35.11
600.457	35.26
600.651	35.27
600.846	35.31
601.04	35.34
601.234	35.37
601.428	35.47
601.622	35.52
601.817	35.41
602.011	35.57
602.205	35.65
602.399	35.67
602.593	35.72
602.787	35.83
602.981	35.68
603.175	35.72
603.369	35.65
603.563	35.67
603.757	35.7
603.951	35.77
604.145	35.8
604.339	35.84
604.533	35.72
604.727	35.61
604.921	35.59
605.115	35.6
605.309	35.64
605.502	35.66
605.696	35.7
605.89	35.73
606.084	35.65
606.278	35.56
606.471	35.58
606.665	35.52
606.859	35.36
607.053	35.31
607.246	35.29
607.44	35.24
607.634	35.16
607.827	35.13
608.021	35.01
608.214	34.98
608.408	34.86
608.602	34.89
608.795	34.9
608.989	34.85
609.182	34.71
609.376	34.67
609.569	34.49
609.763	34.35
609.956	34.28
610.15	34.23
610.343	34.21
610.537	34.19
610.73	34.06
610.923	34.01
611.117	34.02
611.31	33.99
611.504	33.87
611.697	33.85
611.89	33.68
612.083	33.62
612.277	33.4
612.47	33.38
612.663	33.32
612.856	33.35
613.05	33.17
613.243	33.1
613.436	32.92
613.629	32.77
613.822	32.62
614.015	32.58
614.209	32.54
614.402	32.58
614.595	32.56
614.788	32.52
614.981	32.32
615.174	32.12
615.367	32.09
615.56	31.94
615.753	31.8
615.946	31.76
616.139	31.79
616.332	31.71
616.525	31.75
616.718	31.81
616.911	31.83
617.103	31.8
617.296	31.79
617.489	31.7
617.682	31.68
617.875	31.72
618.067	31.66
618.26	31.54
618.453	31.58
618.646	31.51
618.838	31.46
619.031	31.51
619.224	31.52
619.417	31.43
619.609	31.37
619.802	31.12
619.994	30.88
620.187	30.76
620.38	30.7
620.572	30.65
620.765	30.83
620.957	30.82
621.15	30.76
621.342	30.68
621.535	30.63
621.727	30.45
621.92	30.48
622.112	30.49
622.305	30.48
622.497	30.45
622.69	30.46
622.882	30.49
623.074	30.57
623.267	30.57
623.459	30.46
623.651	30.51
623.844	30.51
624.036	30.42
624.228	30.32
624.42	30.39
624.613	30.33
624.805	30.22
624.997	30.17
625.189	30.18
625.381	30.1
625.574	29.94
625.766	29.82
625.958	29.87
626.15	29.91
626.342	29.98
626.534	30.07
626.726	30.14
626.918	30.05
627.11	29.95
627.302	29.86
627.494	29.8
627.686	29.78
627.878	29.73
628.07	29.73
628.262	29.72
628.454	29.77
628.646	29.71
628.838	29.72
629.029	29.6
629.221	29.58
629.413	29.44
629.605	29.35
629.797	29.26
629.989	29.23
630.18	29.18
630.372	29.14
630.564	29.1
630.755	29.05
630.947	29.05
631.139	28.95
631.33	28.83
631.522	28.89
631.714	28.85
631.905	28.9
632.097	28.81
632.289	28.78
632.48	28.67
632.672	28.63
632.863	28.46
633.055	28.47
633.246	28.59
633.438	28.52
633.629	28.54
633.821	28.48
634.012	28.44
634.203	28.35
634.395	28.34
634.586	28.24
634.777	28.28
634.969	28.33
635.16	28.28
635.351	28.23
635.543	28.28
635.734	28.25
635.925	28.2
636.117	28.37
636.308	28.41
636.499	28.3
636.69	28.3
636.881	28.38
637.073	28.19
637.264	28.17
637.455	28.25
637.646	28.31
637.837	28.28
638.028	28.31
638.219	28.28
638.41	28.22
638.601	28.12
638.792	28.03
638.983	27.93
639.174	27.94
639.365	27.98
639.556	27.88
639.747	27.81
639.938	27.85
640.129	27.76
640.32	27.67
640.511	27.72
640.701	27.77
640.892	27.64
641.083	27.69
641.274	27.75
641.465	27.78
641.655	27.67
641.846	27.66
642.037	27.64
642.228	27.54
642.418	27.46
642.609	27.51
642.8	27.57
642.99	27.49
643.181	27.44
643.372	27.47
643.562	27.43
643.753	27.37
643.943	27.33
644.134	27.29
644.324	27.24
644.515	27.18
644.705	27.11
644.896	27.07
645.086	27.04
645.277	26.98
645.467	27.04
645.658	27.13
645.848	27.13
646.038	27.12
646.229	27.03
646.419	26.88
646.61	26.77
646.8	26.66
646.99	26.65
647.18	26.63
647.371	26.63
647.561	26.59
647.751	26.72
647.941	26.71
648.132	26.78
648.322	26.71
648.512	26.73
648.702	26.68
648.892	26.66
649.082	26.66
649.272	26.62
649.462	26.51
649.653	26.34
649.843	26.25
650.033	26.12
650.223	26.12
650.413	26.06
650.603	26.15
650.793	26.11
650.983	26.11
651.172	26
651.362	26.01
651.552	25.85
651.742	25.77
651.932	25.74
652.122	25.8
652.312	25.76
652.502	25.73
652.691	25.8
652.881	25.63
653.071	25.49
653.261	25.37
653.45	25.33
653.64	25.19
653.83	25.13
654.019	25.06
654.209	24.93
654.399	24.69
654.588	24.52
654.778	24.36
654.968	24.14
655.157	24.05
655.347	24.06
655.536	23.88
655.726	23.69
655.915	23.52
656.105	23.27
656.294	23.05
656.484	22.89
656.673	22.78
656.863	22.72
657.052	22.52
657.241	22.19
657.431	22.02
657.62	21.76
657.809	21.36
657.999	21.19
658.188	21.02
658.377	20.71
658.567	20.51
658.756	20.37
658.945	20.12
659.134	19.91
659.324	19.78
659.513	19.6
659.702	19.43
659.891	19.28
660.08	19.09
660.269	18.95
660.458	18.67
660.648	18.42
660.837	18.13
661.026	17.91
661.215	17.72
661.404	17.58
661.593	17.47
661.782	17.27
661.971	17.15
662.16	16.9
662.349	16.75
662.538	16.54
662.726	16.44
662.915	16.13
663.104	15.88
663.293	15.76
663.482	15.68
663.671	15.54
663.86	15.35
664.048	15.18
664.237	15.04
664.426	14.79
664.615	14.61
664.803	14.58
664.992	14.51
665.181	14.29
665.369	14.09
665.558	13.98
665.747	13.85
665.935	13.87
666.124	13.89
666.312	13.88
666.501	13.7
666.69	13.6
666.878	13.42
667.067	13.2
667.255	13.11
667.444	13.25
667.632	13.32
667.82	13.33
668.009	13.21
668.197	13.14
668.386	13.05
668.574	12.9
668.762	12.74
668.951	12.71
669.139	12.64
669.327	12.43
669.516	12.45
669.704	12.53
669.892	12.69
670.08	12.76
670.269	12.77
670.457	12.73
670.645	12.52
670.833	12.47
671.021	12.42
671.21	12.53
671.398	12.68
671.586	12.8
671.774	12.71
671.962	12.61
672.15	12.65
672.338	12.43
672.526	12.46
672.714	12.5
672.902	12.68
673.09	12.7
673.278	12.89
673.466	12.91
673.654	13.01
673.842	13.06
674.03	13.12
674.218	13.06
674.405	13.14
674.593	13.22
674.781	13.27
674.969	13.37
675.157	13.59
675.344	13.76
675.532	13.85
675.72	13.95
675.908	14.04
676.095	14.09
676.283	14.1
676.471	14.24
676.658	14.27
676.846	14.36
677.033	14.5
677.221	14.56
677.409	14.69
677.596	14.88
677.784	15.03
677.971	15.16
678.159	15.3
678.346	15.3
678.534	15.5
678.721	15.78
678.909	15.88
679.096	16
679.283	16.26
679.471	16.34
679.658	16.39
679.846	16.67
680.033	17.05
680.22	17.18
680.408	17.36
680.595	17.41
680.782	17.49
680.969	17.49
681.157	17.64
681.344	17.86
681.531	17.97
681.718	18.07
681.905	18.3
682.093	18.55
682.28	18.74
682.467	19.14
682.654	19.42
682.841	19.66
683.028	19.93
683.215	20.21
683.402	20.41
683.589	20.7
683.776	21.07
683.963	21.3
684.15	21.61
684.337	21.99
684.524	22.28
684.711	22.56
684.898	22.84
685.085	23.14
685.271	23.53
685.458	23.83
685.645	24.25
685.832	24.61
686.019	25.17
686.205	25.4
686.392	25.84
686.579	26.21
686.766	26.74
686.952	27.11
687.139	27.83
687.326	28.28
687.512	28.69
687.699	29.13
687.886	29.51
688.072	29.77
688.259	30.3
688.445	31.06
688.632	31.59
688.818	32.35
689.005	33.07
689.191	33.62
689.378	34.24
689.564	34.92
689.751	35.62
689.937	35.88
690.124	36.46
690.31	36.7
690.496	37.2
690.683	37.59
690.869	38.49
691.055	39.02
691.242	39.98
691.428	40.43
691.614	41.07
691.8	41.8
691.987	42.62
692.173	43.23
692.359	44.2
692.545	44.76
692.731	45.2
692.918	45.81
693.104	46.24
693.29	46.8
693.476	47.46
693.662	48.04
693.848	48.51
694.034	49.13
694.22	49.56
694.406	50.09
694.592	50.88
694.778	51.63
694.964	52.23
695.15	52.8
695.336	53.33
695.522	53.88
695.708	54.31
695.894	54.95
696.08	55.65
696.265	56.29
696.451	56.76
696.637	57.44
696.823	57.84
697.009	58.12
697.194	58.56
697.38	58.82
697.566	59.19
697.751	59.82
697.937	60.89
698.123	61.62
698.308	62.2
698.494	62.95
698.68	63.18
698.865	63.34
699.051	63.74
699.236	64.13
699.422	64.31
699.607	64.64
699.793	64.97
699.978	65.3
700.164	65.7
700.349	66.12
700.535	66.67
700.72	66.76
700.906	67.07
701.091	67.27
701.276	67.71
701.462	68.26
701.647	68.98
701.832	69.48
702.018	70.26
702.203	70.4
702.388	70.28
702.573	70.4
702.759	70.67
702.944	70.82
703.129	71.02
703.314	71.38
703.499	71.75
703.684	71.6
703.87	72.14
704.055	72.98
704.24	73.24
704.425	73.79
704.61	74.47
704.795	74.43
704.98	74.25
705.165	74.38
705.35	74.27
705.535	74.46
705.72	74.67
705.905	75.05
706.09	75.54
706.275	75.82
706.459	75.46
706.644	75.64
706.829	75.65
707.014	75.53
707.199	75.62
707.384	76.38
707.568	76.6
707.753	76.76
707.938	77.11
708.123	77.07
708.307	76.66
708.492	76.71
708.677	76.78
708.861	76.85
709.046	77.05
709.231	77.88
709.415	78.05
709.6	78.15
709.784	78.36
709.969	78.52
710.153	78.31
710.338	78.18
710.522	78.61
710.707	78.64
710.891	78.91
711.076	79.06
711.26	79.22
711.445	79.31
711.629	79.51
711.813	79.99
711.998	80.19
712.182	80.34
712.366	80.87
712.551	81.17
712.735	80.8
712.919	80.93
713.103	81.12
713.288	80.18
713.472	80.26
713.656	80.44
713.84	79.89
714.024	80.15
714.208	80.44
714.393	80.71
714.577	81.03
714.761	81.63
714.945	81.52
715.129	81.69
715.313	81.47
715.497	81.24
715.681	81.46
715.865	81.36
716.049	81.42
716.233	81.45
716.417	81.64
716.601	81.33
716.785	81.49
716.968	81.64
717.152	81.81
717.336	82.01
717.52	82.46
717.704	82.56
717.888	83.07
718.071	82.97
718.255	83.45
718.439	83.1
718.622	83.39
718.806	83.72
718.99	83.83
719.174	83.26
719.357	83.69
719.541	84.01
719.724	83.41
719.908	84.08
720.092	84.12
720.275	84.26
720.459	83.65
720.642	83.51
720.826	82.69
721.009	82.66
721.193	82.41
721.376	82.83
721.559	83.21
721.743	83.95
721.926	84.27
722.11	84.56
722.293	84.17
722.476	84
722.66	83.72
722.843	83.47
723.026	82.91
723.21	83.22
723.393	83.8
723.576	83.81
723.759	83.81
723.942	84
724.126	83.7
724.309	83.23
724.492	83.14
724.675	83.13
724.858	83.43
725.041	83.94
725.224	84.2
725.407	84.05
725.59	84.58
725.774	84.77
725.957	84.38
726.14	84.93
726.322	85.52
726.505	85.34
726.688	85.96
726.871	86.93
727.054	86.72
727.237	86.29
727.42	86.59
727.603	86.01
727.786	85.23
727.968	85.21
728.151	85.32
728.334	85.2
728.517	85
728.699	85.73
728.882	85.74
729.065	86.38
729.248	86.69
729.43	87.51
729.613	87.98
729.796	88.59
729.978	88.26
730.161	88.1
730.343	87.5
730.526	87.88
730.708	86.66
730.891	87.04
731.073	86.92
731.256	87.19
731.438	86.51
731.621	87.62
731.803	87.48
731.986	87.89
732.168	87.9
732.35	88.29
732.533	88.49
732.715	88.85
732.898	88.82
733.08	89.04
733.262	89.39
733.444	88.69
733.627	88.56
733.809	88.93
733.991	88.81
734.173	88.3
734.355	88.77
734.538	89.22
734.72	89.11
734.902	89.61
735.084	89.9
735.266	89.46
735.448	89.46
735.63	89.5
735.812	89.69
735.994	90.57
736.176	91.21
736.358	91.28
736.54	91.6
736.722	91.55
736.904	90.28
737.086	89.89
737.268	90.72
737.45	90.82
737.632	90.38
737.814	89.82
737.995	90.65
738.177	89.86
738.359	89.28
738.541	89.64
738.723	90.82
738.904	91.17
739.086	91.29
739.268	91.89
739.449	92.7
739.631	92.14
739.813	91.79
739.994	91.7
740.176	91.84
740.358	91.78
740.539	92.55
740.721	92.9
740.902	93.35
741.084	92.49
741.265	92.14
741.447	92.16
741.628	91.77
741.81	91.26
741.991	92.83
742.172	92.74
742.354	92.76
742.535	93.28
742.717	93.65
742.898	93.11
743.079	93.93
743.261	93.65
743.442	92.97
743.623	93.39
743.804	93.55
743.986	93.15
744.167	92.46
744.348	92.5
744.529	93.08
744.71	92.12
744.891	92.01
745.073	92.57
745.254	92.19
745.435	91
745.616	90.93
745.797	90.7
745.978	91.14
746.159	91.7
746.34	91.37
746.521	93.29
746.702	92.5
746.883	91.4
747.064	91
747.245	91.73
747.426	90.12
747.606	90.83
747.787	92.41
747.968	92.97
748.149	93.35
748.33	93.77
748.51	93.53
748.691	93.02
748.872	92.56
749.053	92.18
749.233	91.18
749.414	91.34
749.595	90.1
749.775	90.13
749.956	89.46
750.137	90.2
750.317	90.5
750.498	92.51
750.678	93.34
750.859	93.98
751.04	93.45
751.22	92.2
751.4	91.24
751.581	88.59
751.761	89.04
751.942	89.07
752.122	89.92
752.303	89.29
752.483	90.48
752.663	90.46
752.844	89.82
753.024	89.87
753.204	90.68
753.385	90.29
753.565	89.6
753.745	90.1
753.925	89.79
754.106	88.89
754.286	88.86
754.466	87.47
754.646	88.13
754.826	87.83
755.006	86.79
755.187	88.4
755.367	89.78
755.547	89.08
755.727	90.35
755.907	91.84
756.087	91.52
756.267	90.92
756.447	91.42
756.627	90.46
756.807	90.48
756.987	89.88
757.167	90.64
757.346	91.44
757.526	90.33
757.706	91.34
757.886	92.31
758.066	92.27
758.246	91.32
758.425	91.45
758.605	89.96
758.785	89.54
758.965	89.86
759.144	88.55
759.324	89.65
759.504	90.3
759.683	90.54
759.863	89.29
760.043	90.13
760.222	89.32
760.402	88.25
760.581	86.95
760.761	86.99
760.94	85.46
761.12	87.84
761.299	88.1
761.479	87.99
761.658	87.95
761.838	90.27
762.017	89.03
762.197	89.32
762.376	90.35
762.555	91.26
762.735	91.3
762.914	89.78
763.093	90.13
763.273	88.03
763.452	86.7
763.631	85.57
763.81	85.59
763.99	85.29
764.169	87.83
764.348	87.6
764.527	87.02
764.706	88.5
764.885	89.2
765.064	86.57
765.243	86.43
765.423	88.72
765.602	88.24
765.781	86.87
765.96	86.99
766.139	87.5
766.318	86.24
766.497	85.62
766.676	85.55
766.854	87.83
767.033	87.77
767.212	87.33
767.391	87.26
767.57	87.65
767.749	85.55
767.928	87.55
768.106	86.42
768.285	84.89
768.464	84.43
768.643	85.63
768.821	84.57
769	87.11
769.179	87.01
769.357	86.62
769.536	86.17
769.715	85.28
769.893	84.97
770.072	85.93
770.25	86.75
770.429	86.48
770.607	85.38
770.786	84.35
770.964	86.6
771.143	85.53
771.321	87.39
771.5	88.4
771.678	86.79
771.857	82.93
772.035	83.15
772.213	81.94
772.392	79.8
772.57	81.98
772.748	84.6
772.927	84.73
773.105	84.69
773.283	85.94
773.461	84.6
773.64	84.41
773.818	84.05
773.996	84.17
774.174	83.82
774.352	84.96
774.531	82.5
774.709	84.03
774.887	82.1
775.065	83.07
775.243	81.13
775.421	81.57
775.599	82.58
775.777	80.83
775.955	80.2
776.133	80
776.311	80.97
776.489	76.86
776.667	80.24
776.844	82.03
777.022	81.56
777.2	81.5
777.378	84.06
777.556	83.9
777.734	83.59
777.911	86.7
778.089	85.11
778.267	85.62
778.445	84.61
778.622	83.8
778.8	80.92
778.978	82.93
779.155	81.2
779.333	82.42
779.511	82.52
779.688	85.47
779.866	82.58
780.043	79.79
780.221	77.77
780.398	74.93
780.576	75.15
780.753	75.39
780.931	76.27
781.108	77.52
781.286	80.53
781.463	78.7
781.64	78.92
781.818	81.52
781.995	80.71
782.172	78.82
782.35	79.22
782.527	80.96
782.704	80.59
782.882	82.6
783.059	84.32
783.236	84.95
783.413	86.01
783.59	87.2
783.768	85.97
783.945	88.48
784.122	86.83
784.299	87.41
784.476	83.64
784.653	81.28
784.83	76.2
785.007	74.26
785.184	72.52
785.361	73.26
785.538	77.99
785.715	80.41
785.892	80.74
786.069	82.98
786.246	83.11
786.423	80.93
786.6	79.7
786.776	83.45
786.953	80.82
787.13	83.14
787.307	81.14
787.484	79.61
787.66	74.51
787.837	74.98
788.014	72.49
788.191	72.5
788.367	70.8
788.544	74.92
788.721	73.79
788.897	77.74
789.074	78.72
789.25	80.92
789.427	81.19
789.603	82.99
789.78	80.6
789.956	79.16
790.133	78.72
790.309	78.56
790.486	81.93
790.662	78.54
790.839	78.81
791.015	81.57
791.192	78.83
791.368	77.15
791.544	77.82
791.721	77.62
791.897	75.75
792.073	76.17
792.249	70.75
792.426	75.06
792.602	77.51
792.778	81.14
792.954	80.85
793.13	80.64
793.307	73.77
793.483	71.26
793.659	70.78
793.835	74.94
794.011	73.62
794.187	80.54
794.363	78.55
794.539	76.54
794.715	69.56
794.891	74.75
795.067	72.93
795.243	77.9
795.419	75.5
795.595	79.13
795.771	76.49
795.947	74.78
796.122	71.03
796.298	73.62
796.474	74.85
796.65	76.78
796.826	79.24
797.001	80.77
797.177	79.65
797.353	78.24
797.529	80.25
797.704	77.34
797.88	74.22
798.056	73.1
798.231	71.36
798.407	71.77
798.582	71.52
798.758	79.45
798.934	78.95
799.109	81.37
799.285	75.99
799.46	80.03
799.636	73.56
799.811	75.8
799.986	75.68
800.162	76.11
800.337	77.55
800.513	72.43
800.688	73.06
800.863	79.08
801.039	77.74
801.214	75.48
801.389	83.32
801.565	82.27
801.74	72.86
801.915	77.32
802.09	72.77
802.265	74.63
802.441	73.08
802.616	75.54
802.791	78.49
802.966	77.78
803.141	76.95
803.316	77.7
803.491	79.34
803.666	76.94
803.841	81.92
804.016	76.35
804.191	76.24
804.366	71.29
804.541	75.61
804.716	70.28
804.891	67.71
805.066	67.19
805.241	67.91
805.416	63.43
805.591	59.04
805.765	67.24
805.94	65.98
806.115	66.8
806.29	64.96
806.464	74.25
806.639	68.45
806.814	66.1
806.989	63.35
807.163	71.49
807.338	71.95
807.512	74.24
807.687	65.75
807.862	71.56
808.036	64.17
808.211	69.7
808.385	71.42
808.56	82.64
808.734	88.82
808.909	82.84
809.083	74.3
809.258	80.5
809.432	80.63
809.606	61.81
809.781	70.44
809.955	74.5
810.13	77.13
810.304	72.56
810.478	75.18
810.652	75.55
810.827	71.94
811.001	60.93
811.175	62.76
811.349	64.05
811.524	59.51
811.698	49.45
811.872	53.1
812.046	64.74
812.22	73.54
812.394	72.65
812.568	82.84
812.742	83.55
812.916	71.63
813.09	68.48
813.264	69.41
813.438	72.54
813.612	73.07
813.786	68.44
813.96	72.82
814.134	72.02
814.308	79.3
814.482	81.8
814.656	79.85
814.83	75.58
815.003	73.01
815.177	58.72
815.351	49.77
815.525	55.75
815.698	45.46
815.872	46.87
816.046	46.65
816.219	54.92
816.393	56.04
816.567	70.51
816.74	70.44
816.914	71.95
817.088	75.62
817.261	76.63
817.435	61.97
817.608	67.4
817.782	65.72
817.955	58.26
818.129	53.59
818.302	66.86
818.475	68.27
818.649	76.27
818.822	72.42
818.996	87.66
819.169	88.07
819.342	76.04
819.516	75.84
819.689	76.16
819.862	59.97
820.035	49.28
820.209	49.49
820.382	44.9
820.555	42.48
820.728	39.05
820.901	48.27
821.075	51.68
821.248	51.5
821.421	53.44
821.594	66.28
821.767	65.93
821.94	71.19
822.113	52.92
822.286	47.72
822.459	38.76
822.632	26.9
822.805	26.21
822.978	30.1
823.151	28.18
823.324	19.04
823.496	13.98
823.669	9.16
823.842	17.04
824.015	13.38
824.188	27.49
824.361	27.14
824.533	29.12
824.706	34.93
824.879	39.18
825.051	47.41
825.224	51.4
825.397	47.58
825.569	41.74
825.742	59.28
825.915	61.7
826.087	75.98
826.26	57.87
826.432	66.3
826.605	58.18
826.777	58.6
826.95	55.57
827.122	63.71
827.295	53.15
827.467	50.72
827.64	24.03
827.812	18.15
827.984	18.78
828.157	15.2
828.329	-4.5
828.501	7.19
828.674	25.32
828.846	18.37
829.018	33.74
829.19	26.28
829.363	45.37
829.535	44.63
829.707	49.77
829.879	35.32
830.051	41.16
830.223	25.78
830.395	3.57
830.568	1.34
830.74	2.97
830.912	36.16
831.084	26.16
831.256	32.15
831.428	31.43
831.6	27.17
831.772	-2.24
831.943	4.75
832.115	15.93
832.287	46.95
832.459	64.13
832.631	71.19
832.803	78.6
832.975	85.03
833.146	52.51
833.318	37.61
833.49	43.6
833.662	41.59
833.833	26.63
834.005	30.44
834.177	34.05
834.348	23.76
834.52	22.62
834.692	24.89
834.863	-2.21
835.035	18.49
835.206	-8.76
835.378	-3.48
835.549	23.8
835.721	43.95
835.892	27.84
836.064	27.84
836.235	25.37
836.407	37.85
836.578	25.66
836.749	25.03
836.921	18.46
837.092	19.54
837.264	-25.69
837.435	-30.24
837.606	9.53
837.777	28.37
837.949	22.38
838.12	32.01
838.291	45.91
838.462	25.92
838.633	14.85
838.805	19.6
838.976	41.03
839.147	-12.42
839.318	-18.45
839.489	-40.29
839.66	-30.63
839.831	6.89
840.002	33.41
840.173	47.79
840.344	62.6
840.515	90.2
840.686	-63.69
840.857	-90.06
841.028	-103.01
841.199	-64.83
841.369	-81.72
841.54	-53.95
841.711	-10.83
841.882	0.41
842.053	-5.44
842.223	-11.45
842.394	9.4
842.565	8.28
842.736	25.06
842.906	29.53
843.077	42.99
843.248	43.51
843.418	29.05
843.589	-13.18
843.759	41.88
843.93	42.74
844.101	33.66
844.271	44.39
844.442	51.47
844.612	40.27
844.783	28.74
844.953	1.69
845.123	-16.75
845.294	-42.62
845.464	-195.67
845.635	-90.96
845.805	-44.9
845.975	3.48
846.146	-3.45
846.316	2.55
846.486	29.11
846.656	48.9
846.827	42.87
846.997	55.75
847.167	102.31
847.337	50.61
847.507	44.84
847.677	50.6
847.848	62.61
848.018	51.64
848.188	58.35
848.358	44.58
848.528	28.11
848.698	9
848.868	-75.52
849.038	-116.91
849.208	-34.75
849.378	18.29
849.548	9.88
849.718	26.76
849.887	34.7
850.057	39.23
850.227	14.77
850.397	2.94
850.567	-82.22
850.737	-274.57
850.906	-1006.88
851.076	-765.23
851.246	-230.1
851.415	50.08
851.585	41.49
851.755	25.74
851.924	37.32
852.094	8.85
852.264	-23.56
852.433	-451.44
852.603	-58.29
852.772	43.52
852.942	19.62
853.111	7.72
853.281	30.74
853.45	31.13
853.62	-32.68
853.789	-48.07
853.959	-85.02
854.128	-78.09
854.297	-64.51
854.467	-67.6
854.636	-52.02
854.805	-36.21
854.975	-82.72
855.144	-140.14
855.313	-105.94
855.482	-447.81
855.652	-102.99
855.821	28.34
855.99	46.34
856.159	46.63
856.328	74.45
856.497	58.88
856.667	42.72
856.836	32.75
857.005	-4.79
857.174	-30.79
857.343	-49.85
857.512	-41.87
857.681	-31.93
857.85	-34.19
858.019	-13.79
858.188	7.82
858.356	0.63
858.525	-13.62
858.694	8.95
858.863	-25.99
859.032	-19.46
859.201	-60.68
859.369	7.27
859.538	3.51
859.707	-20.54
859.876	-14.59
860.044	-13.64
860.213	8.05
860.382	-17.08
860.55	3.99
860.719	28.81
860.888	49.93
861.056	38.38
861.225	38.91
861.393	62.77
861.562	43.9
861.73	-34.28
861.899	-69.9
862.067	-791.38
862.236	-23.82
862.404	-137.03
862.572	-39.3
862.741	-6.66
862.909	14.55
863.078	-42.38
863.246	-11.24
863.414	-11.5
863.582	8.91
863.751	-24.49
863.919	0.59
864.087	39.62
864.255	63.17
864.424	-69.92
864.592	67.73
864.76	48.14
864.928	-61.2
865.096	-148.57
865.264	-73.99
865.432	-1442.05
865.6	-159.75
865.768	-48.47
865.936	-29.42
866.104	-18.37
866.272	-24.84
866.44	-173.03
866.608	374.18
866.776	196.59
866.944	2480.23
867.112	-526.91
867.28	-179.74
867.448	-74.82
867.615	-21.16
867.783	2.42
867.951	2.02
868.119	29.82
868.286	-3.94
868.454	-118.44
868.622	-83.41
868.789	-59.21
868.957	-1425
869.125	-722.37
869.292	67.44
869.46	11.72
869.627	47.47
869.795	3.63
869.963	15.9
870.13	17.95
870.298	33.41
870.465	-18.07
870.632	-41.09
870.8	-25.53
870.967	-116.62
871.135	-133.48
871.302	-75.13
871.469	-28.21
871.637	-35.77
871.804	14.35
871.971	-57.21
872.139	-380.23
872.306	-66.37
872.473	-56.35
872.64	-253
872.807	-45.29
872.975	50.53
873.142	-85.64
873.309	1333.78
873.476	39.46
873.643	98.12
873.81	17.34
873.977	21.74
874.144	17.24
874.311	-158.47
874.478	-163.98
874.645	-101.47
874.812	-42.02
874.979	4.1
875.146	2.97
875.313	-36.99
875.48	10.17
875.647	-8.52
875.813	-51.22
875.98	-26.4
876.147	-30.81
876.314	-122.28
876.481	772.31
876.647	-658.99
876.814	272.8
876.981	-68.65
877.147	0.26
877.314	25.26
877.481	14.37
877.647	11.55
877.814	-8
877.98	-50.79
878.147	-49.23
878.314	30.9
878.48	-15.96
878.647	-1.43
878.813	47.06
878.979	36.42
879.146	-10.64
879.312	0.45
879.479	-30.65
879.645	-110.11
879.811	-214.35
879.978	-518.7
880.144	-119.24
880.31	-59.2
880.477	-253.04
880.643	-242.43
880.809	-110.04
880.975	-78.47
881.142	-527.73
881.308	-19.04
881.474	11.85
881.64	39.9
881.806	28.89
881.972	60.04
882.138	23.28
882.304	17.72
882.47	-134.88
882.636	-618.44
882.802	-238.38
882.968	-27.72
883.134	3.49
883.3	21.4
883.466	38.79
883.632	83.1
883.798	60.8
883.964	43.16
884.129	50.25
884.295	75.34
884.461	-14.49
884.627	-22.92
884.793	-63.59
884.958	-48.71
885.124	-130.74
885.29	-205.02
885.455	-363.35
885.621	-28.39
885.787	-31.23
885.952	-21.8
886.118	-21.53
886.283	-21.31
886.449	-112.63
886.614	-80.09
886.78	-51.35
886.945	631.97
887.111	-339.02
887.276	-230.97
887.442	-724.09
887.607	-437.97
887.773	-249.84
887.938	-218.15
888.103	-228.95
888.269	-117.92
888.434	-171.08
888.599	-55.09
888.764	-20.8
888.93	-28.96
889.095	-43.92
889.26	-60.45
889.425	-34.23
889.59	20.53
889.756	12.05
889.921	35.31
890.086	59.63
890.251	47.02
890.416	-83.41
890.581	-912.1
890.746	254.46
890.911	379.3
891.076	163.82
891.241	-330.22
891.406	18.09
891.571	45.14
891.736	-69.5
891.901	-75.66
892.065	-110.44
892.23	46.4
892.395	110.67
892.56	188.58
892.725	-277.73
892.889	-1481.71
893.054	-235.17
893.219	-84.54
893.384	-20.56
893.548	-39.37
893.713	-40.76
893.878	-2.1
