Data from Ofra_1a_PS_1GT37_Reflection_3.txt Node
Date: Tue Jul 20 10:44:53 EDT 2021
User: Adam
Spectrometer: FLMT01687
Trigger mode: 0
Integration Time (sec): 1.004000E0
Scans to average: 2
Electric dark correction enabled: true
Nonlinearity correction enabled: false
Boxcar width: 2
XAxis mode: Wavelengths
Number of Pixels in Spectrum: 3648
>>>>>Begin Spectral Data<<<<<
179.494	60.41
179.716	-35.11
179.937	182.27
180.158	-33.76
180.38	71.08
180.601	63.44
180.823	-33.99
181.044	-40.39
181.265	-7.4
181.486	68.55
181.708	29.86
181.929	5390.91
182.15	-95.49
182.372	339.41
182.593	145.13
182.814	-33.45
183.035	5.35
183.257	8.72
183.478	4.96
183.699	-50.4
183.92	-100.8
184.141	-130.14
184.363	-91.74
184.584	-157.57
184.805	-49.7
185.026	-7.15
185.247	1.21
185.468	-24.16
185.689	7.27
185.91	-17.35
186.132	21.57
186.353	24.55
186.574	42.75
186.795	35.57
187.016	28.41
187.237	-0.4
187.458	-3.48
187.679	-24.81
187.9	5.12
188.121	22.3
188.342	29.22
188.563	46.69
188.784	57.81
189.005	26.59
189.226	10.18
189.447	2.5
189.667	-31.63
189.888	-39.47
190.109	-45.81
190.33	-13.98
190.551	-19.91
190.772	-16.17
190.993	-21.8
191.214	-49.24
191.434	-92.52
191.655	-149.87
191.876	-18.97
192.097	-21.96
192.318	28.95
192.538	-16.69
192.759	-5.21
192.98	-12.2
193.201	-18.2
193.421	-28.54
193.642	3.15
193.863	17.39
194.083	26.58
194.304	31.5
194.525	27.48
194.745	16.84
194.966	4.64
195.187	-11.14
195.407	-16.19
195.628	-10.81
195.848	4.52
196.069	-2.06
196.29	9.01
196.51	16.64
196.731	3.56
196.951	-30.69
197.172	-17.09
197.392	-20.21
197.613	-7.7
197.833	1.17
198.054	3.5
198.274	9.06
198.495	2.31
198.715	-16.47
198.936	-2.88
199.156	-8.25
199.377	-20.46
199.597	-8.03
199.817	-3.95
200.038	-36.68
200.258	7.35
200.479	25.38
200.699	35.96
200.919	31.88
201.14	37.97
201.36	20.46
201.58	-8.87
201.801	-18.31
202.021	-13.59
202.241	-16.74
202.461	-14.86
202.682	2.74
202.902	-6.17
203.122	-2.23
203.342	-7.58
203.563	-8.58
203.783	-46.05
204.003	-50.67
204.223	-26.35
204.443	-20.91
204.663	-39.79
204.884	34.07
205.104	33.19
205.324	16.82
205.544	-48.42
205.764	4.97
205.984	0.15
206.204	0.43
206.424	-16.64
206.644	10.27
206.864	-24.79
207.084	-28.04
207.304	-41.66
207.525	-35.46
207.745	-3.15
207.964	-1.51
208.184	18.55
208.404	18.12
208.624	26.38
208.844	6.14
209.064	-6.42
209.284	-27.73
209.504	-39.06
209.724	-28.62
209.944	-39.24
210.164	-26.31
210.384	-35.48
210.604	-73.97
210.823	-110.98
211.043	-61.96
211.263	-145.88
211.483	-82.56
211.703	-15.96
211.922	-14.47
212.142	-26.96
212.362	11.91
212.582	8.93
212.801	-7.29
213.021	-10.62
213.241	-25.69
213.461	-24.39
213.68	-9.22
213.9	-17.16
214.12	-10.15
214.339	-0.86
214.559	-6.89
214.779	-16.19
214.998	-11.6
215.218	-3.5
215.438	11.4
215.657	4.22
215.877	-1.53
216.096	19.93
216.316	21.66
216.535	1.88
216.755	13.03
216.974	16.36
217.194	-5.09
217.413	-15.27
217.633	-28.78
217.852	-19.81
218.072	-9.73
218.291	-23.77
218.511	-27.19
218.73	-6.28
218.95	-30.11
219.169	-37.73
219.389	4.89
219.608	12.98
219.827	6.19
220.047	8.79
220.266	-9.95
220.485	-34.47
220.705	-22.64
220.924	-7.8
221.143	10.14
221.363	24.63
221.582	19.99
221.801	28.17
222.021	9.92
222.24	2.35
222.459	3.25
222.678	4.42
222.897	-17.82
223.117	3.44
223.336	31.52
223.555	33.7
223.774	42.98
223.993	46.31
224.213	49.02
224.432	15.7
224.651	21.77
224.87	25.56
225.089	35.63
225.308	17.97
225.527	12.22
225.746	2.49
225.965	-9.08
226.184	-22.45
226.404	-16.24
226.623	5.01
226.842	-0.96
227.061	5.38
227.28	5.61
227.499	8.76
227.718	-11.95
227.936	-5.12
228.155	-6.91
228.374	4.83
228.593	-0.56
228.812	14.57
229.031	14.33
229.25	10.95
229.469	-6.51
229.688	-1.47
229.907	1.11
230.125	-6.41
230.344	-1.32
230.563	6.05
230.782	17.9
231.001	20.4
231.22	28.67
231.438	39.1
231.657	43.85
231.876	34.46
232.095	34.4
232.313	24.6
232.532	12.96
232.751	-10.85
232.969	-9.83
233.188	-27.4
233.407	-4.26
233.625	-6.03
233.844	-4.44
234.063	-5.28
234.281	21.19
234.5	20.39
234.719	22.57
234.937	24.96
235.156	12.71
235.374	-1.74
235.593	-12
235.811	4.15
236.03	11.26
236.249	28.9
236.467	29.07
236.686	26.21
236.904	22.35
237.123	19.16
237.341	18.69
237.559	6.43
237.778	10.44
237.996	-28.69
238.215	-70.11
238.433	-147.31
238.652	-64.48
238.87	-68.67
239.088	-48.46
239.307	-3.52
239.525	-4.29
239.743	-9.21
239.962	-17.96
240.18	-10.87
240.398	-22.97
240.617	-20.7
240.835	-44.65
241.053	-22.3
241.271	-4.41
241.49	2.53
241.708	0.6
241.926	19.32
242.144	54.35
242.363	26.73
242.581	27.83
242.799	24.28
243.017	-3.77
243.235	-18.76
243.453	-26.72
243.672	-11.45
243.89	-5.8
244.108	8.04
244.326	20.79
244.544	29.3
244.762	17.79
244.98	6.61
245.198	7.84
245.416	-8.21
245.634	-12.01
245.852	-11.14
246.07	24.38
246.288	14.07
246.506	2.82
246.724	9.74
246.942	19.72
247.16	10.18
247.378	21.02
247.596	41.07
247.814	30.8
248.032	5.94
248.25	16.77
248.468	10.29
248.685	14.39
248.903	12.21
249.121	17.35
249.339	10.51
249.557	10.1
249.775	8.18
249.992	9.22
250.21	8.92
250.428	16.01
250.646	15.83
250.863	7.13
251.081	12.2
251.299	13.6
251.517	13.3
251.734	18.95
251.952	29.57
252.17	25.36
252.387	13.43
252.605	-10.96
252.823	-33.96
253.04	-34.19
253.258	-4.9
253.475	2.13
253.693	11.98
253.911	6.31
254.128	-3.11
254.346	-8.61
254.563	9.52
254.781	15.82
254.998	4.35
255.216	-17.03
255.433	-45.53
255.651	-50.72
255.868	-54.63
256.086	-21.42
256.303	5.08
256.521	16.9
256.738	15.74
256.956	16.68
257.173	-4.04
257.39	-10.43
257.608	-25.53
257.825	-32.95
258.043	-29.97
258.26	-10.34
258.477	-15.66
258.695	-3.61
258.912	-15.48
259.129	-16.99
259.346	-48.95
259.564	-52.81
259.781	-66.2
259.998	-18.55
260.216	-3.97
260.433	7.07
260.65	16.34
260.867	20.9
261.084	4.84
261.302	8.49
261.519	12.91
261.736	-9.12
261.953	6.25
262.17	22.63
262.387	9.34
262.604	-4.74
262.822	19.08
263.039	20.2
263.256	9.95
263.473	10.56
263.69	13.84
263.907	4.5
264.124	-4.41
264.341	9.15
264.558	6.05
264.775	7.63
264.992	11.35
265.209	-1.61
265.426	-17.47
265.643	3.62
265.86	-5.43
266.077	-35.58
266.294	-14.62
266.51	12.06
266.727	-4.56
266.944	15.16
267.161	23.52
267.378	34.3
267.595	6.78
267.812	-3.23
268.028	-19.04
268.245	-5.61
268.462	-28.96
268.679	-16.32
268.896	17.03
269.112	16.82
269.329	-19.11
269.546	5.07
269.763	3.93
269.979	-27.14
270.196	-19.33
270.413	-7.85
270.629	-28.94
270.846	-29.52
271.063	-12.76
271.279	-1.57
271.496	0.94
271.712	5.99
271.929	6.93
272.146	2.9
272.362	-14.66
272.579	-14.95
272.795	-17.68
273.012	-8.66
273.228	8.23
273.445	13.65
273.661	20.91
273.878	14.19
274.094	9.73
274.311	6.22
274.527	-10.08
274.744	-0.33
274.96	18.03
275.177	21.56
275.393	11.72
275.609	26.48
275.826	27.29
276.042	11.11
276.259	11.03
276.475	14.14
276.691	-12.57
276.908	-25.83
277.124	-21.15
277.34	-42.31
277.557	-54.55
277.773	-45.68
277.989	-32.83
278.205	-22.42
278.422	-20.37
278.638	-17.43
278.854	-36.61
279.07	-29.48
279.286	-42.94
279.503	-35.22
279.719	-30.39
279.935	-10.67
280.151	-27.52
280.367	-11.09
280.583	-17.18
280.799	-16.58
281.016	-64.13
281.232	-38.81
281.448	-55.7
281.664	-26.27
281.88	-6.6
282.096	15.67
282.312	6.65
282.528	10.61
282.744	17.32
282.96	-12.82
283.176	-15.53
283.392	-13.45
283.608	23.78
283.824	-17.31
284.04	-16.57
284.256	-9.38
284.471	3.31
284.687	-2.18
284.903	4.18
285.119	18.58
285.335	24.98
285.551	10.01
285.767	-1.38
285.982	-13.38
286.198	-25.75
286.414	-45.04
286.63	-4.83
286.846	10.7
287.061	29.27
287.277	26.77
287.493	18.16
287.709	10.45
287.924	10.7
288.14	13.18
288.356	22.24
288.571	29.9
288.787	14.81
289.003	11.84
289.218	-12.05
289.434	-25.27
289.65	-6.15
289.865	0.96
290.081	8.58
290.296	26.63
290.512	24.37
290.727	9.39
290.943	15.27
291.159	10.53
291.374	-7.96
291.59	0.39
291.805	-10.1
292.021	-14.31
292.236	-22.3
292.451	-7.39
292.667	-7.99
292.882	13
293.098	5.39
293.313	6.76
293.529	-7.71
293.744	-5.5
293.959	-8.42
294.175	-5.25
294.39	0.5
294.605	27.09
294.821	12.68
295.036	4.97
295.251	17.43
295.467	7.21
295.682	0.91
295.897	2.85
296.112	-6.54
296.328	-12.14
296.543	-29.08
296.758	-32.48
296.973	-23.49
297.188	-14.77
297.404	-36.01
297.619	-33.89
297.834	-80.97
298.049	-83.34
298.264	-72.05
298.479	-69.43
298.694	-18.74
298.909	4.3
299.125	5.06
299.34	-4.84
299.555	6.14
299.77	18.87
299.985	16.84
300.2	29.71
300.415	36.36
300.63	35.17
300.845	26.4
301.06	8.87
301.275	-4.57
301.49	0.89
301.704	-2.86
301.919	-15.28
302.134	-6.41
302.349	-6.21
302.564	-4.57
302.779	-22.04
302.994	7.82
303.209	10.92
303.423	19.79
303.638	20.34
303.853	23.49
304.068	-17.14
304.283	-0.92
304.497	-24.04
304.712	-7.3
304.927	1.05
305.142	19.17
305.356	10.22
305.571	22.75
305.786	12.06
306	23.88
306.215	6.56
306.43	7.57
306.644	-10.94
306.859	-19.19
307.074	-21.86
307.288	-0.81
307.503	3.66
307.717	4.36
307.932	14.96
308.147	14.32
308.361	11.44
308.576	-8.54
308.79	-8.17
309.005	-19.56
309.219	-9.55
309.434	-6.16
309.648	-1.41
309.863	-1.23
310.077	-11.21
310.292	-13.48
310.506	-40.24
310.72	-36.37
310.935	-18.35
311.149	-9.67
311.364	-17.04
311.578	12.58
311.792	14.08
312.007	-7.59
312.221	-17.54
312.435	-2.78
312.649	-0.75
312.864	13.78
313.078	19.07
313.292	9.72
313.507	17.04
313.721	-0.79
313.935	-20.85
314.149	-16.82
314.363	-1.02
314.578	-15.26
314.792	-17.64
315.006	-35.32
315.22	-17.55
315.434	-7.92
315.648	-32.8
315.862	-32.27
316.077	-21.9
316.291	-21.37
316.505	-49.32
316.719	-0.93
316.933	11.47
317.147	13.29
317.361	19.06
317.575	25.21
317.789	4.85
318.003	-11.92
318.217	-9.53
318.431	-15.34
318.645	-16.21
318.859	13.34
319.073	24.91
319.287	25.42
319.5	16.24
319.714	23.03
319.928	6.29
320.142	-1.64
320.356	-4.56
320.57	-7.46
320.784	-0.74
320.997	-9.16
321.211	15.81
321.425	12.21
321.639	18.62
321.853	13.15
322.066	26.04
322.28	6.41
322.494	12.97
322.707	14.21
322.921	1.01
323.135	9.54
323.349	19.54
323.562	16.9
323.776	17.88
323.989	36.18
324.203	17.14
324.417	8
324.63	1.89
324.844	-19.39
325.057	-72.18
325.271	-57.79
325.485	-49.1
325.698	-16.76
325.912	10.09
326.125	18.3
326.339	14.41
326.552	10.53
326.766	-3.17
326.979	-21.07
327.193	-22.66
327.406	-30.32
327.619	-22.47
327.833	-32.63
328.046	-14.16
328.26	-12.15
328.473	2.53
328.686	-2.44
328.9	8.25
329.113	-8.51
329.326	-4.31
329.54	-11.42
329.753	2.11
329.966	0.67
330.179	5.52
330.393	-4.22
330.606	-12.18
330.819	-31.55
331.032	-30.95
331.246	-18.54
331.459	2.7
331.672	8.35
331.885	5.6
332.098	7.77
332.311	-6.11
332.525	-9.42
332.738	-4.14
332.951	-6.72
333.164	1.45
333.377	13.74
333.59	15.47
333.803	25.18
334.016	34.71
334.229	22.67
334.442	10.83
334.655	8.07
334.868	-3.04
335.081	-8.09
335.294	-3.98
335.507	0.27
335.72	4.03
335.933	-0.87
336.146	-4
336.359	-7.1
336.572	-2.17
336.785	-19.38
336.997	-16.84
337.21	-2.27
337.423	-13.32
337.636	-25.87
337.849	-13.68
338.062	-13.09
338.274	-12.97
338.487	-19.85
338.7	-25.83
338.913	-21.57
339.125	-32.58
339.338	-20.45
339.551	-15.15
339.763	-5.27
339.976	-12.06
340.189	-12.93
340.402	-4.91
340.614	7.62
340.827	10.1
341.039	14.21
341.252	22.15
341.465	4.73
341.677	7.52
341.89	0.75
342.102	17.43
342.315	11.51
342.527	-0.22
342.74	-27.53
342.952	-30.89
343.165	-35.11
343.377	-32.33
343.59	-14.53
343.802	6.79
344.015	13.75
344.227	12.81
344.44	9.5
344.652	-1.92
344.864	0.21
345.077	10.3
345.289	11.93
345.502	30.1
345.714	41.44
345.926	42.14
346.139	4.3
346.351	-4.03
346.563	-15.93
346.775	-18.69
346.988	-10.11
347.2	4.42
347.412	15.48
347.624	22.06
347.837	24.87
348.049	15.43
348.261	10.13
348.473	-6.21
348.685	-20.39
348.897	-50.61
349.11	-29.68
349.322	-23.33
349.534	-24.54
349.746	-24.71
349.958	-18.41
350.17	-41.25
350.382	-45.37
350.594	-18.91
350.806	6.69
351.018	17.47
351.23	32.56
351.442	33.36
351.654	23.55
351.866	17.35
352.078	26.48
352.29	19.69
352.502	35.86
352.714	35.02
352.926	20.78
353.138	6.57
353.35	-12.89
353.561	-16.33
353.773	-4.63
353.985	4.48
354.197	1.53
354.409	12.28
354.621	-4.69
354.832	-4.46
355.044	-27.68
355.256	-18.97
355.468	-27.04
355.679	2.98
355.891	-1.32
356.103	3.39
356.314	-0.05
356.526	-17.84
356.738	-23.73
356.949	-28.77
357.161	-1.33
357.373	2.2
357.584	21.13
357.796	17.76
358.008	20.7
358.219	17.1
358.431	10.7
358.642	3.17
358.854	17.29
359.065	12.41
359.277	-0.49
359.488	-4.06
359.7	-0.3
359.911	-21.36
360.123	-7.48
360.334	1.71
360.546	2.19
360.757	8.55
360.969	16.93
361.18	11.73
361.391	-0.21
361.603	-0.98
361.814	-3.68
362.025	6.86
362.237	10.44
362.448	22.86
362.659	22.2
362.871	7.53
363.082	-7.45
363.293	-20.11
363.504	-44.2
363.716	-58.03
363.927	-18.75
364.138	-39.28
364.349	-27.83
364.56	-37.87
364.772	-9.52
364.983	-10.16
365.194	9.57
365.405	7.52
365.616	19.02
365.827	-3.86
366.038	-8.93
366.25	-1.53
366.461	0.2
366.672	-2.69
366.883	10.44
367.094	6.91
367.305	-17.64
367.516	-21.85
367.727	-22.44
367.938	-27.34
368.149	-26.15
368.36	-24.58
368.571	-32.11
368.781	-44.41
368.992	-32.37
369.203	-24.53
369.414	-14.8
369.625	-2.76
369.836	19.48
370.047	25.43
370.258	36.71
370.468	31.02
370.679	22.36
370.89	11.5
371.101	-1.6
371.312	-14.85
371.522	-23.43
371.733	-14.12
371.944	-33.78
372.155	-27.75
372.365	-30.86
372.576	-27.63
372.787	-27.26
372.997	-9.2
373.208	-10.09
373.419	-1.22
373.629	0.77
373.84	-5.72
374.05	-21.52
374.261	-46.03
374.472	-50.29
374.682	-38.39
374.893	-47.85
375.103	-23.13
375.314	0.75
375.524	3.2
375.735	4.42
375.945	17.62
376.156	9.61
376.366	15.29
376.577	12.78
376.787	10.94
376.997	13.98
377.208	20.44
377.418	16.25
377.629	16.03
377.839	18.49
378.049	16.26
378.26	-2.94
378.47	-13.88
378.68	-8.39
378.89	-13.86
379.101	-19.42
379.311	-3.67
379.521	-10.32
379.732	-15.19
379.942	-6.12
380.152	-11.62
380.362	-13.69
380.572	7.69
380.783	20.68
380.993	17.76
381.203	19.52
381.413	29.09
381.623	27.59
381.833	18.68
382.043	8.86
382.253	9.19
382.463	11.09
382.674	5.3
382.884	6.39
383.094	5.65
383.304	9.95
383.514	5.81
383.724	1.87
383.934	-2.42
384.144	2.88
384.353	1.79
384.563	-2.61
384.773	-0.33
384.983	0.56
385.193	1.96
385.403	1.37
385.613	3.94
385.823	6.75
386.033	8.93
386.242	6.03
386.452	1.78
386.662	-0.17
386.872	-2.51
387.082	-7.97
387.291	-9.81
387.501	-4.02
387.711	-3.56
387.921	-5.26
388.13	1.44
388.34	5.33
388.55	2.99
388.759	-3.7
388.969	-3.6
389.179	-8.58
389.388	-11.51
389.598	-14.12
389.807	-12.08
390.017	-13.24
390.227	-12.09
390.436	-9.46
390.646	-6.01
390.855	-1.13
391.065	0.16
391.274	-0.67
391.484	-1.07
391.693	-4.1
391.903	-6.54
392.112	-6.4
392.322	-3.65
392.531	-4.03
392.74	-2.41
392.95	-0.61
393.159	-0.35
393.369	-2.36
393.578	-2.25
393.787	-2.11
393.997	-2.73
394.206	-2.57
394.415	-0.73
394.625	-1.12
394.834	-1.65
395.043	-1.57
395.252	1.22
395.462	1.24
395.671	1.72
395.88	3.12
396.089	2.48
396.298	0.97
396.508	0.9
396.717	1.5
396.926	1.15
397.135	2.11
397.344	1.4
397.553	0.83
397.762	1.32
397.971	0.86
398.181	0.76
398.39	0.86
398.599	1.16
398.808	0.47
399.017	1.14
399.226	0.73
399.435	1.04
399.644	1.58
399.853	2.03
400.062	1.89
400.27	1.81
400.479	1.77
400.688	1.62
400.897	1.51
401.106	1.36
401.315	1.55
401.524	1.66
401.733	1.29
401.941	1.1
402.15	1.27
402.359	1.15
402.568	1.16
402.777	1.47
402.985	1.53
403.194	1.37
403.403	1.86
403.612	1.8
403.82	1.61
404.029	1.8
404.238	1.81
404.446	1.7
404.655	1.86
404.864	1.93
405.072	1.72
405.281	1.71
405.489	1.48
405.698	1.41
405.906	1.49
406.115	1.58
406.324	1.63
406.532	1.9
406.741	1.93
406.949	1.97
407.158	2.07
407.366	1.98
407.574	1.86
407.783	1.87
407.991	1.82
408.2	1.74
408.408	1.86
408.617	1.75
408.825	1.6
409.033	1.52
409.242	1.61
409.45	1.57
409.658	1.59
409.867	1.67
410.075	1.78
410.283	1.62
410.491	1.47
410.7	1.46
410.908	1.51
411.116	1.52
411.324	1.68
411.533	1.77
411.741	1.78
411.949	1.69
412.157	1.53
412.365	1.57
412.573	1.69
412.781	1.65
412.99	1.6
413.198	1.76
413.406	1.7
413.614	1.61
413.822	1.82
414.03	1.92
414.238	1.99
414.446	2.02
414.654	2.02
414.862	1.85
415.07	1.74
415.278	1.64
415.486	1.44
415.694	1.4
415.902	1.36
416.109	1.39
416.317	1.38
416.525	1.45
416.733	1.36
416.941	1.37
417.149	1.31
417.357	1.2
417.564	1.16
417.772	1.38
417.98	1.42
418.188	1.51
418.395	1.3
418.603	1.19
418.811	0.95
419.019	0.91
419.226	1.01
419.434	1.17
419.642	1.23
419.849	1.28
420.057	1.32
420.265	1.19
420.472	1.29
420.68	1.36
420.887	1.45
421.095	1.56
421.302	1.6
421.51	1.4
421.717	1.44
421.925	1.42
422.132	1.29
422.34	1.15
422.547	1.22
422.755	1.23
422.962	1.12
423.17	0.94
423.377	0.96
423.585	1.08
423.792	0.98
423.999	1.14
424.207	1.21
424.414	1.23
424.621	1.24
424.829	1.27
425.036	1.22
425.243	1.32
425.451	1.44
425.658	1.38
425.865	1.32
426.072	1.29
426.28	1.37
426.487	1.23
426.694	1.04
426.901	1.14
427.108	1.05
427.315	0.94
427.523	0.88
427.73	1.18
427.937	0.98
428.144	1.13
428.351	1.2
428.558	1.27
428.765	1.18
428.972	1.41
429.179	1.2
429.386	1.08
429.593	1.01
429.8	1.05
430.007	0.98
430.214	1.15
430.421	1.29
430.628	1.33
430.835	1.26
431.042	1.09
431.249	1.04
431.456	0.95
431.662	1.08
431.869	1.18
432.076	1.24
432.283	1.36
432.49	1.33
432.697	1.35
432.903	1.28
433.11	1.41
433.317	1.31
433.524	1.44
433.73	1.33
433.937	1.33
434.144	1.17
434.35	1.14
434.557	1.09
434.764	1.13
434.97	1.08
435.177	1.27
435.384	1.41
435.59	1.5
435.797	1.48
436.003	1.5
436.21	1.44
436.416	1.39
436.623	1.25
436.829	1.32
437.036	1.41
437.242	1.46
437.449	1.32
437.655	1.42
437.862	1.4
438.068	1.35
438.275	1.34
438.481	1.48
438.687	1.47
438.894	1.61
439.1	1.58
439.307	1.74
439.513	1.71
439.719	1.69
439.926	1.61
440.132	1.74
440.338	1.62
440.544	1.56
440.751	1.5
440.957	1.5
441.163	1.3
441.369	1.32
441.575	1.33
441.782	1.46
441.988	1.43
442.194	1.56
442.4	1.5
442.606	1.63
442.812	1.68
443.018	1.73
443.224	1.84
443.431	1.83
443.637	1.82
443.843	1.82
444.049	1.85
444.255	1.71
444.461	1.68
444.667	1.61
444.873	1.56
445.079	1.53
445.284	1.55
445.49	1.61
445.696	1.62
445.902	1.6
446.108	1.65
446.314	1.66
446.52	1.8
446.726	1.84
446.931	1.83
447.137	1.77
447.343	1.89
447.549	1.84
447.755	1.82
447.96	1.88
448.166	1.94
448.372	1.79
448.578	1.72
448.783	1.71
448.989	1.76
449.195	1.66
449.4	1.76
449.606	1.81
449.812	1.75
450.017	1.74
450.223	1.76
450.428	1.71
450.634	1.62
450.84	1.66
451.045	1.62
451.251	1.65
451.456	1.67
451.662	1.76
451.867	1.83
452.073	1.89
452.278	1.88
452.483	1.93
452.689	1.92
452.894	1.98
453.1	1.98
453.305	1.99
453.51	2.04
453.716	1.97
453.921	1.91
454.127	1.8
454.332	1.77
454.537	1.64
454.742	1.73
454.948	1.7
455.153	1.79
455.358	1.82
455.563	1.9
455.769	1.87
455.974	1.9
456.179	1.81
456.384	1.74
456.589	1.66
456.795	1.62
457	1.66
457.205	1.68
457.41	1.75
457.615	1.77
457.82	1.92
458.025	1.85
458.23	1.89
458.435	1.86
458.64	1.91
458.845	1.83
459.05	1.81
459.255	1.8
459.46	1.8
459.665	1.83
459.87	1.79
460.075	1.86
460.28	1.91
460.485	1.97
460.69	1.81
460.895	1.89
461.099	1.79
461.304	1.72
461.509	1.75
461.714	1.95
461.919	1.88
462.123	1.96
462.328	1.92
462.533	1.79
462.738	1.7
462.942	1.67
463.147	1.66
463.352	1.81
463.556	1.96
463.761	1.99
463.966	1.98
464.17	2.07
464.375	2.08
464.58	2.02
464.784	2
464.989	2.12
465.193	2.02
465.398	1.95
465.602	2.11
465.807	2.17
466.011	2.1
466.216	2.12
466.42	2.19
466.625	2.11
466.829	2.09
467.034	2.27
467.238	2.36
467.443	2.33
467.647	2.26
467.851	2.31
468.056	2.27
468.26	2.23
468.464	2.26
468.669	2.27
468.873	2.31
469.077	2.25
469.282	2.23
469.486	2.16
469.69	2.26
469.894	2.17
470.099	2.2
470.303	2.2
470.507	2.25
470.711	2.18
470.915	2.23
471.119	2.23
471.324	2.32
471.528	2.4
471.732	2.45
471.936	2.48
472.14	2.45
472.344	2.53
472.548	2.51
472.752	2.49
472.956	2.53
473.16	2.52
473.364	2.49
473.568	2.42
473.772	2.4
473.976	2.44
474.18	2.5
474.384	2.41
474.588	2.6
474.792	2.6
474.995	2.58
475.199	2.57
475.403	2.62
475.607	2.57
475.811	2.63
476.015	2.54
476.218	2.53
476.422	2.55
476.626	2.54
476.83	2.62
477.033	2.76
477.237	2.86
477.441	2.85
477.644	2.81
477.848	2.85
478.052	2.86
478.255	2.89
478.459	2.9
478.663	3
478.866	2.96
479.07	2.9
479.273	2.89
479.477	2.92
479.681	2.91
479.884	2.92
480.088	2.92
480.291	2.85
480.495	2.85
480.698	2.78
480.901	2.75
481.105	2.77
481.308	2.83
481.512	2.9
481.715	3
481.919	3.13
482.122	3.09
482.325	3.14
482.529	3.13
482.732	3.03
482.935	2.92
483.138	2.9
483.342	2.89
483.545	2.95
483.748	3.08
483.952	3.21
484.155	3.34
484.358	3.32
484.561	3.28
484.764	3.16
484.967	3.12
485.171	3.12
485.374	3.09
485.577	3.12
485.78	3.14
485.983	3.05
486.186	3.02
486.389	3.09
486.592	3.12
486.795	3.22
486.998	3.25
487.201	3.25
487.404	3.32
487.607	3.34
487.81	3.23
488.013	3.27
488.216	3.28
488.419	3.19
488.622	3.2
488.825	3.29
489.028	3.3
489.231	3.33
489.433	3.33
489.636	3.29
489.839	3.29
490.042	3.27
490.245	3.22
490.447	3.22
490.65	3.21
490.853	3.22
491.056	3.23
491.258	3.26
491.461	3.29
491.664	3.36
491.866	3.3
492.069	3.33
492.272	3.36
492.474	3.38
492.677	3.34
492.879	3.35
493.082	3.37
493.285	3.38
493.487	3.37
493.69	3.35
493.892	3.37
494.095	3.36
494.297	3.39
494.5	3.38
494.702	3.37
494.905	3.45
495.107	3.39
495.309	3.41
495.512	3.42
495.714	3.45
495.917	3.49
496.119	3.63
496.321	3.62
496.524	3.63
496.726	3.62
496.928	3.54
497.13	3.46
497.333	3.41
497.535	3.45
497.737	3.46
497.939	3.5
498.142	3.52
498.344	3.55
498.546	3.5
498.748	3.59
498.95	3.62
499.152	3.67
499.355	3.69
499.557	3.77
499.759	3.77
499.961	3.79
500.163	3.79
500.365	3.83
500.567	3.81
500.769	3.82
500.971	3.87
501.173	3.85
501.375	3.92
501.577	3.93
501.779	3.9
501.981	3.86
502.183	3.88
502.385	3.83
502.587	3.83
502.788	3.87
502.99	3.87
503.192	3.94
503.394	3.98
503.596	3.99
503.798	4
503.999	4.06
504.201	4.05
504.403	4.03
504.605	4.09
504.806	4.14
505.008	4.16
505.21	4.19
505.411	4.26
505.613	4.27
505.815	4.29
506.016	4.35
506.218	4.39
506.42	4.4
506.621	4.52
506.823	4.51
507.024	4.5
507.226	4.5
507.427	4.51
507.629	4.48
507.83	4.52
508.032	4.56
508.233	4.62
508.435	4.66
508.636	4.71
508.838	4.72
509.039	4.71
509.24	4.69
509.442	4.76
509.643	4.71
509.845	4.74
510.046	4.77
510.247	4.8
510.448	4.76
510.65	4.79
510.851	4.8
511.052	4.8
511.254	4.86
511.455	4.87
511.656	4.85
511.857	4.9
512.058	4.95
512.26	4.95
512.461	4.96
512.662	5.04
512.863	4.96
513.064	4.91
513.265	4.91
513.466	4.96
513.667	4.98
513.868	5.04
514.069	5.05
514.27	5.08
514.471	5.08
514.672	5.08
514.873	5.07
515.074	5.16
515.275	5.13
515.476	5.14
515.677	5.2
515.878	5.3
516.079	5.3
516.28	5.39
516.481	5.4
516.682	5.37
516.882	5.29
517.083	5.26
517.284	5.31
517.485	5.34
517.686	5.39
517.886	5.44
518.087	5.44
518.288	5.4
518.488	5.36
518.689	5.35
518.89	5.36
519.091	5.47
519.291	5.39
519.492	5.48
519.692	5.49
519.893	5.54
520.094	5.45
520.294	5.59
520.495	5.54
520.695	5.6
520.896	5.55
521.096	5.59
521.297	5.59
521.497	5.62
521.698	5.62
521.898	5.68
522.099	5.72
522.299	5.71
522.499	5.73
522.7	5.73
522.9	5.75
523.101	5.74
523.301	5.75
523.501	5.8
523.702	5.86
523.902	5.9
524.102	5.95
524.302	5.96
524.503	5.97
524.703	5.93
524.903	5.88
525.103	5.87
525.304	5.96
525.504	5.96
525.704	5.98
525.904	5.99
526.104	6.04
526.304	6.04
526.504	6.08
526.705	6.13
526.905	6.18
527.105	6.17
527.305	6.14
527.505	6.11
527.705	6.11
527.905	6.17
528.105	6.19
528.305	6.22
528.505	6.25
528.705	6.28
528.905	6.25
529.105	6.24
529.304	6.31
529.504	6.36
529.704	6.34
529.904	6.33
530.104	6.37
530.304	6.37
530.503	6.37
530.703	6.35
530.903	6.36
531.103	6.37
531.303	6.36
531.502	6.39
531.702	6.48
531.902	6.56
532.101	6.62
532.301	6.64
532.501	6.74
532.7	6.74
532.9	6.79
533.1	6.8
533.299	6.81
533.499	6.71
533.698	6.73
533.898	6.74
534.097	6.74
534.297	6.73
534.496	6.77
534.696	6.82
534.895	6.79
535.095	6.81
535.294	6.9
535.494	6.91
535.693	6.95
535.892	6.96
536.092	6.96
536.291	6.95
536.491	6.98
536.69	6.93
536.889	7
537.088	7.03
537.288	6.98
537.487	7.05
537.686	7.09
537.886	7.06
538.085	7.06
538.284	7.19
538.483	7.14
538.682	7.19
538.882	7.24
539.081	7.3
539.28	7.25
539.479	7.28
539.678	7.3
539.877	7.39
540.076	7.36
540.275	7.41
540.474	7.47
540.673	7.54
540.872	7.44
541.071	7.53
541.27	7.56
541.469	7.55
541.668	7.51
541.867	7.63
542.066	7.64
542.265	7.74
542.464	7.82
542.663	7.96
542.862	8.04
543.06	8.11
543.259	8.12
543.458	8.18
543.657	8.21
543.856	8.24
544.054	8.25
544.253	8.26
544.452	8.29
544.651	8.26
544.849	8.23
545.048	8.3
545.247	8.41
545.445	8.42
545.644	8.51
545.843	8.54
546.041	8.58
546.24	8.6
546.438	8.66
546.637	8.66
546.836	8.75
547.034	8.8
547.233	8.86
547.431	8.91
547.63	9.02
547.828	9.05
548.027	9.05
548.225	9.05
548.423	9.1
548.622	9.15
548.82	9.19
549.019	9.28
549.217	9.37
549.415	9.42
549.614	9.56
549.812	9.58
550.01	9.63
550.209	9.75
550.407	9.84
550.605	9.73
550.803	9.83
551.002	9.96
551.2	9.97
551.398	10.08
551.596	10.21
551.794	10.32
551.993	10.32
552.191	10.4
552.389	10.51
552.587	10.63
552.785	10.66
552.983	10.83
553.181	10.89
553.379	10.94
553.577	10.94
553.775	11.04
553.973	11.08
554.171	11.17
554.369	11.26
554.567	11.42
554.765	11.5
554.963	11.54
555.161	11.59
555.359	11.62
555.557	11.7
555.755	11.79
555.952	11.91
556.15	12.05
556.348	12.13
556.546	12.23
556.744	12.32
556.941	12.37
557.139	12.44
557.337	12.58
557.535	12.59
557.732	12.64
557.93	12.75
558.128	12.8
558.325	12.92
558.523	13.09
558.721	13.23
558.918	13.38
559.116	13.5
559.313	13.54
559.511	13.69
559.708	13.76
559.906	13.9
560.104	13.99
560.301	14.08
560.498	14.13
560.696	14.28
560.893	14.27
561.091	14.39
561.288	14.56
561.486	14.58
561.683	14.67
561.88	14.88
562.078	14.95
562.275	15.01
562.473	15.16
562.67	15.24
562.867	15.28
563.064	15.44
563.262	15.48
563.459	15.65
563.656	15.75
563.853	15.83
564.051	15.98
564.248	16.11
564.445	16.18
564.642	16.32
564.839	16.45
565.036	16.5
565.234	16.63
565.431	16.7
565.628	16.74
565.825	16.77
566.022	16.87
566.219	16.95
566.416	17.11
566.613	17.23
566.81	17.36
567.007	17.39
567.204	17.44
567.401	17.45
567.598	17.49
567.795	17.58
567.991	17.67
568.188	17.82
568.385	17.85
568.582	17.91
568.779	17.98
568.976	18.02
569.172	17.98
569.369	18.08
569.566	18.26
569.763	18.21
569.96	18.35
570.156	18.47
570.353	18.51
570.55	18.48
570.746	18.66
570.943	18.64
571.14	18.74
571.336	18.82
571.533	18.86
571.729	18.81
571.926	18.94
572.123	19.01
572.319	18.99
572.516	19.05
572.712	19.15
572.909	19.11
573.105	19.11
573.302	19.21
573.498	19.24
573.695	19.19
573.891	19.21
574.087	19.1
574.284	19.13
574.48	19.2
574.677	19.26
574.873	19.3
575.069	19.47
575.266	19.49
575.462	19.49
575.658	19.59
575.854	19.6
576.051	19.64
576.247	19.65
576.443	19.53
576.639	19.44
576.835	19.44
577.032	19.34
577.228	19.31
577.424	19.46
577.62	19.46
577.816	19.46
578.012	19.48
578.208	19.51
578.404	19.41
578.6	19.48
578.796	19.5
578.993	19.47
579.189	19.46
579.384	19.48
579.58	19.39
579.776	19.32
579.972	19.34
580.168	19.33
580.364	19.44
580.56	19.43
580.756	19.46
580.952	19.48
581.148	19.54
581.343	19.48
581.539	19.57
581.735	19.63
581.931	19.5
582.127	19.38
582.322	19.29
582.518	19.17
582.714	19.04
582.909	19.11
583.105	19.13
583.301	19.19
583.496	19.24
583.692	19.33
583.888	19.36
584.083	19.41
584.279	19.3
584.474	19.23
584.67	19.18
584.866	19.09
585.061	19.11
585.257	19.21
585.452	19.21
585.648	19.11
585.843	19.12
586.039	19.03
586.234	18.99
586.429	18.99
586.625	19.07
586.82	19.08
587.015	19.13
587.211	19.13
587.406	19.22
587.601	19.28
587.797	19.28
587.992	19.18
588.187	19.11
588.383	19.05
588.578	19.09
588.773	19.11
588.968	19.27
589.163	19.48
589.359	19.46
589.554	19.36
589.749	19.33
589.944	19.24
590.139	19.16
590.334	19.26
590.529	19.26
590.724	19.33
590.919	19.47
591.114	19.6
591.309	19.64
591.504	19.72
591.699	19.71
591.894	19.65
592.089	19.55
592.284	19.55
592.479	19.63
592.674	19.71
592.869	19.72
593.064	19.86
593.259	19.95
593.454	19.94
593.648	19.91
593.843	20.03
594.038	19.99
594.233	20.05
594.428	20.11
594.622	20.26
594.817	20.34
595.012	20.39
595.206	20.41
595.401	20.5
595.596	20.46
595.79	20.49
595.985	20.61
596.18	20.71
596.374	20.87
596.569	21.05
596.763	21.11
596.958	21.16
597.153	21.24
597.347	21.18
597.542	21.19
597.736	21.25
597.931	21.3
598.125	21.43
598.319	21.55
598.514	21.6
598.708	21.67
598.903	21.72
599.097	21.75
599.291	21.75
599.486	21.82
599.68	21.88
599.874	21.95
600.069	21.97
600.263	22.01
600.457	22.1
600.651	22.11
600.846	22.11
601.04	22.04
601.234	22.09
601.428	22.09
601.622	22.15
601.817	22.25
602.011	22.28
602.205	22.27
602.399	22.19
602.593	22.34
602.787	22.28
602.981	22.36
603.175	22.48
603.369	22.49
603.563	22.39
603.757	22.39
603.951	22.39
604.145	22.32
604.339	22.44
604.533	22.35
604.727	22.34
604.921	22.32
605.115	22.26
605.309	22.17
605.502	22.32
605.696	22.32
605.89	22.3
606.084	22.34
606.278	22.37
606.471	22.2
606.665	22.14
606.859	22.09
607.053	21.92
607.246	21.83
607.44	21.73
607.634	21.73
607.827	21.68
608.021	21.67
608.214	21.6
608.408	21.56
608.602	21.42
608.795	21.45
608.989	21.48
609.182	21.45
609.376	21.49
609.569	21.5
609.763	21.36
609.956	21.28
610.15	21.19
610.343	21.09
610.537	21.01
610.73	20.93
610.923	20.9
611.117	20.91
611.31	20.84
611.504	20.77
611.697	20.72
611.89	20.57
612.083	20.43
612.277	20.32
612.47	20.24
612.663	20.2
612.856	20.17
613.05	20.18
613.243	20.07
613.436	20.01
613.629	19.88
613.822	19.8
614.015	19.64
614.209	19.65
614.402	19.55
614.595	19.6
614.788	19.5
614.981	19.44
615.174	19.28
615.367	19.15
615.56	19.01
615.753	19.05
615.946	19.03
616.139	19.05
616.332	19.09
616.525	18.97
616.718	18.83
616.911	18.76
617.103	18.74
617.296	18.63
617.489	18.64
617.682	18.64
617.875	18.66
618.067	18.61
618.26	18.59
618.453	18.53
618.646	18.46
618.838	18.36
619.031	18.31
619.224	18.31
619.417	18.35
619.609	18.35
619.802	18.31
619.994	18.24
620.187	18.13
620.38	18.05
620.572	17.93
620.765	17.88
620.957	17.81
621.15	17.8
621.342	17.76
621.535	17.78
621.727	17.7
621.92	17.72
622.112	17.75
622.305	17.73
622.497	17.62
622.69	17.74
622.882	17.74
623.074	17.69
623.267	17.63
623.459	17.66
623.651	17.52
623.844	17.5
624.036	17.48
624.228	17.46
624.42	17.43
624.613	17.45
624.805	17.38
624.997	17.37
625.189	17.38
625.381	17.3
625.574	17.25
625.766	17.25
625.958	17.22
626.15	17.17
626.342	17.23
626.534	17.19
626.726	17.11
626.918	17.06
627.11	17.02
627.302	16.94
627.494	16.98
627.686	17
627.878	16.96
628.07	16.94
628.262	16.96
628.454	16.81
628.646	16.75
628.838	16.76
629.029	16.66
629.221	16.6
629.413	16.55
629.605	16.47
629.797	16.38
629.989	16.33
630.18	16.36
630.372	16.44
630.564	16.46
630.755	16.37
630.947	16.39
631.139	16.3
631.33	16.2
631.522	16.15
631.714	16.13
631.905	16.04
632.097	15.98
632.289	15.96
632.48	15.97
632.672	15.99
632.863	15.93
633.055	15.99
633.246	15.97
633.438	15.91
633.629	15.88
633.821	15.89
634.012	15.75
634.203	15.69
634.395	15.69
634.586	15.75
634.777	15.69
634.969	15.75
635.16	15.74
635.351	15.75
635.543	15.65
635.734	15.7
635.925	15.7
636.117	15.7
636.308	15.67
636.499	15.63
636.69	15.6
636.881	15.51
637.073	15.51
637.264	15.41
637.455	15.4
637.646	15.39
637.837	15.37
638.028	15.21
638.219	15.22
638.41	15.24
638.601	15.24
638.792	15.23
638.983	15.28
639.174	15.16
639.365	15.09
639.556	15.01
639.747	14.92
639.938	14.96
640.129	14.99
640.32	14.99
640.511	15.01
640.701	15.04
640.892	14.95
641.083	14.85
641.274	14.77
641.465	14.73
641.655	14.76
641.846	14.75
642.037	14.77
642.228	14.67
642.418	14.53
642.609	14.42
642.8	14.31
642.99	14.21
643.181	14.23
643.372	14.29
643.562	14.28
643.753	14.28
643.943	14.23
644.134	14.13
644.324	14.1
644.515	14.06
644.705	14.1
644.896	14.24
645.086	14.31
645.277	14.32
645.467	14.25
645.658	14.09
645.848	13.9
646.038	13.85
646.229	13.79
646.419	13.71
646.61	13.8
646.8	13.91
646.99	13.91
647.18	13.85
647.371	13.87
647.561	13.78
647.751	13.67
647.941	13.56
648.132	13.52
648.322	13.45
648.512	13.5
648.702	13.58
648.892	13.62
649.082	13.61
649.272	13.65
649.462	13.62
649.653	13.55
649.843	13.46
650.033	13.46
650.223	13.43
650.413	13.43
650.603	13.42
650.793	13.52
650.983	13.42
651.172	13.41
651.362	13.25
651.552	13.17
651.742	13.07
651.932	13.07
652.122	13.14
652.312	13.19
652.502	13.12
652.691	13.08
652.881	13.07
653.071	12.86
653.261	12.77
653.45	12.71
653.64	12.64
653.83	12.52
654.019	12.46
654.209	12.42
654.399	12.36
654.588	12.31
654.778	12.3
654.968	12.18
655.157	12.04
655.347	11.93
655.536	11.75
655.726	11.55
655.915	11.41
656.105	11.3
656.294	11.13
656.484	11.11
656.673	11.08
656.863	11.05
657.052	10.86
657.241	10.85
657.431	10.67
657.62	10.47
657.809	10.18
657.999	10.2
658.188	10.04
658.377	9.87
658.567	9.75
658.756	9.72
658.945	9.51
659.134	9.41
659.324	9.32
659.513	9.25
659.702	9.08
659.891	9
660.08	8.81
660.269	8.64
660.458	8.45
660.648	8.35
660.837	8.23
661.026	8.07
661.215	7.91
661.404	7.72
661.593	7.65
661.782	7.49
661.971	7.34
662.16	7.27
662.349	7.12
662.538	6.96
662.726	6.78
662.915	6.78
663.104	6.64
663.293	6.71
663.482	6.61
663.671	6.56
663.86	6.47
664.048	6.5
664.237	6.38
664.426	6.32
664.615	6.19
664.803	6.01
664.992	5.94
665.181	5.94
665.369	5.82
665.558	5.86
665.747	5.87
665.935	5.79
666.124	5.71
666.312	5.69
666.501	5.68
666.69	5.57
666.878	5.5
667.067	5.41
667.255	5.35
667.444	5.27
667.632	5.41
667.82	5.33
668.009	5.37
668.197	5.46
668.386	5.43
668.574	5.28
668.762	5.24
668.951	5.17
669.139	5.12
669.327	5.1
669.516	5.26
669.704	5.3
669.892	5.28
670.08	5.2
670.269	5.24
670.457	5.14
670.645	5.24
670.833	5.36
671.021	5.58
671.21	5.57
671.398	5.65
671.586	5.59
671.774	5.6
671.962	5.45
672.15	5.46
672.338	5.5
672.526	5.58
672.714	5.63
672.902	5.81
673.09	5.98
673.278	6.04
673.466	6.21
673.654	6.31
673.842	6.33
674.03	6.33
674.218	6.3
674.405	6.26
674.593	6.33
674.781	6.4
674.969	6.55
675.157	6.67
675.344	6.72
675.532	6.68
675.72	6.67
675.908	6.54
676.095	6.61
676.283	6.63
676.471	6.61
676.658	6.72
676.846	6.82
677.033	6.78
677.221	6.89
677.409	7.09
677.596	7.11
677.784	7.21
677.971	7.27
678.159	7.43
678.346	7.42
678.534	7.45
678.721	7.55
678.909	7.78
679.096	7.72
679.283	7.87
679.471	8.11
679.658	8.29
679.846	8.37
680.033	8.6
680.22	8.68
680.408	8.6
680.595	8.65
680.782	8.73
680.969	8.9
681.157	9.06
681.344	9.17
681.531	9.24
681.718	9.26
681.905	9.25
682.093	9.46
682.28	9.66
682.467	9.86
682.654	10.12
682.841	10.28
683.028	10.1
683.215	10.42
683.402	10.49
683.589	10.68
683.776	10.72
683.963	11.08
684.15	11.22
684.337	11.51
684.524	11.69
684.711	11.97
684.898	12.17
685.085	12.29
685.271	12.49
685.458	12.64
685.645	12.8
685.832	12.95
686.019	13.2
686.205	13.51
686.392	13.84
686.579	14.27
686.766	14.67
686.952	14.95
687.139	15.27
687.326	15.69
687.512	15.87
687.699	16.44
687.886	16.83
688.072	17.05
688.259	17.26
688.445	17.87
688.632	18.06
688.818	18.43
689.005	18.82
689.191	19.42
689.378	19.93
689.564	20.59
689.751	21.23
689.937	22.13
690.124	22.68
690.31	23.05
690.496	23.57
690.683	23.98
690.869	24.16
691.055	24.62
691.242	25.15
691.428	25.61
691.614	26.21
691.8	27.1
691.987	27.76
692.173	28.59
692.359	29.22
692.545	30.11
692.731	30.77
692.918	31.21
693.104	31.73
693.29	32.25
693.476	32.75
693.662	33.24
693.848	34.13
694.034	34.8
694.22	35.6
694.406	36.12
694.592	36.7
694.778	37.35
694.964	37.82
695.15	38.5
695.336	39.17
695.522	39.78
695.708	40.46
695.894	41.22
696.08	41.77
696.265	42.65
696.451	43.44
696.637	44.16
696.823	44.86
697.009	45.53
697.194	46.09
697.38	46.69
697.566	47
697.751	47.65
697.937	48.33
698.123	48.85
698.308	49.27
698.494	50.12
698.68	50.78
698.865	51.37
699.051	52.13
699.236	52.79
699.422	53.24
699.607	53.82
699.793	54.48
699.978	54.56
700.164	55.11
700.349	55.87
700.535	55.99
700.72	56.14
700.906	56.98
701.091	57.41
701.276	57.5
701.462	58.15
701.647	58.86
701.832	59.36
702.018	60.17
702.203	60.72
702.388	61.13
702.573	61.48
702.759	61.87
702.944	61.75
703.129	62.3
703.314	62.59
703.499	62.91
703.684	63.33
703.87	64.18
704.055	64.63
704.24	65.27
704.425	65.6
704.61	66.09
704.795	66.32
704.98	66.35
705.165	66.73
705.35	67.34
705.535	67.57
705.72	67.79
705.905	68.5
706.09	68.85
706.275	69.06
706.459	69.41
706.644	69.72
706.829	69.99
707.014	70.32
707.199	70.51
707.384	70.86
707.568	71.18
707.753	71.58
707.938	71.97
708.123	72.35
708.307	72.55
708.492	73.23
708.677	73.05
708.861	73.05
709.046	72.87
709.231	72.77
709.415	72.89
709.6	72.93
709.784	73.06
709.969	73.88
710.153	74.19
710.338	74.34
710.522	75.28
710.707	75.95
710.891	75.93
711.076	76.15
711.26	76.14
711.445	75.91
711.629	75.76
711.813	76.14
711.998	76.4
712.182	76.6
712.366	77.14
712.551	77.46
712.735	77.56
712.919	78.22
713.103	78.72
713.288	78.74
713.472	79.08
713.656	79.23
713.84	78.79
714.024	78.82
714.208	78.57
714.393	78.81
714.577	78.9
714.761	79.4
714.945	79.46
715.129	80.05
715.313	80.05
715.497	80.3
715.681	80.1
715.865	80.13
716.049	80.37
716.233	80.27
716.417	80.35
716.601	80.73
716.785	81.25
716.968	81.03
717.152	81.49
717.336	81.76
717.52	81.96
717.704	82.35
717.888	82.83
718.071	83.03
718.255	83.43
718.439	83.44
718.622	83.39
718.806	82.95
718.99	82.59
719.174	82.55
719.357	82.47
719.541	82.38
719.724	82.78
719.908	82.94
720.092	82.46
720.275	83.3
720.459	83.88
720.642	84.11
720.826	84.45
721.009	84.83
721.193	84.04
721.376	83.86
721.559	83.97
721.743	84.29
721.926	84.8
722.11	85.29
722.293	85.57
722.476	85.24
722.66	85.64
722.843	85.61
723.026	86.21
723.21	86.04
723.393	86.68
723.576	86.4
723.759	86.39
723.942	86.44
724.126	86.13
724.309	86.05
724.492	85.93
724.675	85.92
724.858	85.96
725.041	86.68
725.224	87.17
725.407	87.46
725.59	87.57
725.774	87.63
725.957	87.5
726.14	87.69
726.322	87.68
726.505	87.63
726.688	87.49
726.871	87.26
727.054	86.98
727.237	86.75
727.42	86.92
727.603	87.35
727.786	87.14
727.968	86.88
728.151	87.37
728.334	87.57
728.517	87.04
728.699	87.52
728.882	87.48
729.065	86.8
729.248	86.92
729.43	87.27
729.613	87.66
729.796	87.9
729.978	88.37
730.161	88.73
730.343	88.55
730.526	88.34
730.708	88.51
730.891	89.26
731.073	89.35
731.256	89.56
731.438	90.26
731.621	90.47
731.803	90.02
731.986	89.79
732.168	90.02
732.35	89.54
732.533	89.95
732.715	90.32
732.898	90.14
733.08	90.44
733.262	90.49
733.444	91.25
733.627	91.64
733.809	92.73
733.991	92.76
734.173	92.51
734.355	91.79
734.538	91.96
734.72	91.39
734.902	91.5
735.084	92.06
735.266	92.17
735.448	91.93
735.63	92.06
735.812	92.4
735.994	92.35
736.176	92.53
736.358	92.4
736.54	93.16
736.722	92.42
736.904	92.26
737.086	91.95
737.268	92.32
737.45	92.27
737.632	92.79
737.814	94.15
737.995	94.25
738.177	94.38
738.359	94.22
738.541	94.14
738.723	93.13
738.904	94.3
739.086	94.52
739.268	94.4
739.449	93.57
739.631	94.38
739.813	92.54
739.994	91.53
740.176	91.56
740.358	92.76
740.539	92.16
740.721	92.86
740.902	93.36
741.084	93.32
741.265	93.79
741.447	94.4
741.628	95.05
741.81	95.4
741.991	95.47
742.172	94.71
742.354	94.21
742.535	94.49
742.717	93.75
742.898	94.21
743.079	95.13
743.261	96.03
743.442	94.78
743.623	95.34
743.804	95.01
743.986	94.47
744.167	93.67
744.348	93.59
744.529	93.24
744.71	92.99
744.891	93.02
745.073	92.6
745.254	93.23
745.435	93.97
745.616	94.33
745.797	93.44
745.978	94.1
746.159	94.69
746.34	94.53
746.521	93.99
746.702	95.38
746.883	95.15
747.064	94.35
747.245	94.44
747.426	94.21
747.606	93.74
747.787	92.66
747.968	91.47
748.149	90.2
748.33	89.54
748.51	89.02
748.691	90.55
748.872	93.28
749.053	93.81
749.233	94.52
749.414	95.69
749.595	95.2
749.775	93.13
749.956	93.09
750.137	93.58
750.317	91.51
750.498	91.5
750.678	91.67
750.859	92.54
751.04	92.68
751.22	92.57
751.4	92.81
751.581	93.51
751.761	93.81
751.942	93.59
752.122	93.69
752.303	93.75
752.483	92.81
752.663	92.07
752.844	91.93
753.024	94.38
753.204	94.01
753.385	94.64
753.565	93.93
753.745	93.27
753.925	90.78
754.106	90.19
754.286	89.82
754.466	89.8
754.646	89.67
754.826	91.65
755.006	91.99
755.187	92.52
755.367	92.19
755.547	92.76
755.727	91.92
755.907	92.01
756.087	90.54
756.267	89.94
756.447	89.57
756.627	89.14
756.807	90.27
756.987	91.24
757.167	92.08
757.346	91.72
757.526	92.29
757.706	91.58
757.886	92.57
758.066	93.97
758.246	93.2
758.425	93.07
758.605	92.25
758.785	91.8
758.965	91.94
759.144	91.48
759.324	91.43
759.504	91.44
759.683	90.17
759.863	88.93
760.043	89.51
760.222	89.28
760.402	88.18
760.581	90.56
760.761	91.01
760.94	91.43
761.12	90.73
761.299	93.49
761.479	92.27
761.658	92.28
761.838	92.94
762.017	94.54
762.197	92.62
762.376	91.67
762.555	91.67
762.735	91.69
762.914	91.45
763.093	92.25
763.273	92.34
763.452	91.07
763.631	90.22
763.81	88.72
763.99	87.07
764.169	85.99
764.348	86.74
764.527	86.25
764.706	86.7
764.885	88.67
765.064	91.48
765.243	91
765.423	92.21
765.602	93.02
765.781	90.74
765.96	89.9
766.139	90.13
766.318	91.52
766.497	90.78
766.676	90.03
766.854	89.63
767.033	90.69
767.212	90.41
767.391	91.15
767.57	94.13
767.749	93.43
767.928	91.87
768.106	89.9
768.285	88.22
768.464	86.36
768.643	86.38
768.821	86.45
769	87.83
769.179	88.93
769.357	90.49
769.536	88.6
769.715	86.8
769.893	85.83
770.072	83.79
770.25	82.55
770.429	85.99
770.607	88.68
770.786	87.37
770.964	89.04
771.143	89.83
771.321	86.74
771.5	85.65
771.678	86.07
771.857	84.43
772.035	83.83
772.213	85.05
772.392	82.75
772.57	83.52
772.748	84.42
772.927	85.37
773.105	85.32
773.283	87.86
773.461	88.48
773.64	87.59
773.818	87.59
773.996	89.28
774.174	89.99
774.352	88.27
774.531	88.23
774.709	86.92
774.887	84.59
775.065	84.16
775.243	84.69
775.421	85.07
775.599	84.74
775.777	84.65
775.955	83.51
776.133	84.55
776.311	85.07
776.489	85.93
776.667	86.94
776.844	88.11
777.022	87.15
777.2	86.56
777.378	84.09
777.556	84.82
777.734	87.22
777.911	89.16
778.089	90.78
778.267	93.04
778.445	93.51
778.622	89.7
778.8	85.6
778.978	84.59
779.155	85.13
779.333	84.49
779.511	84.02
779.688	84.81
779.866	85.13
780.043	83.84
780.221	81.35
780.398	80.32
780.576	82.4
780.753	80.43
780.931	81.25
781.108	83.12
781.286	85.35
781.463	84.76
781.64	87
781.818	87.31
781.995	85.64
782.172	81.77
782.35	81.62
782.527	81.65
782.704	79.43
782.882	78.79
783.059	82.04
783.236	80.47
783.413	79.86
783.59	80.25
783.768	80.83
783.945	80.08
784.122	81.03
784.299	81.22
784.476	79.74
784.653	79.69
784.83	77.63
785.007	76.82
785.184	75.67
785.361	77.26
785.538	75.54
785.715	78.07
785.892	76.87
786.069	76.65
786.246	78.55
786.423	79.57
786.6	81.56
786.776	83.55
786.953	83.15
787.13	82.71
787.307	83.81
787.484	80.01
787.66	81.31
787.837	80.23
788.014	80.87
788.191	78.53
788.367	77.54
788.544	75.49
788.721	77.29
788.897	75.29
789.074	77.94
789.25	80.92
789.427	80.6
789.603	77.05
789.78	75.53
789.956	73.1
790.133	71.04
790.309	71.64
790.486	73.33
790.662	72.97
790.839	72.93
791.015	74.51
791.192	72.69
791.368	75.15
791.544	73.87
791.721	75.9
791.897	74.11
792.073	73.27
792.249	71.01
792.426	75.76
792.602	77.25
792.778	77.45
792.954	80.45
793.13	81.08
793.307	81.22
793.483	78.76
793.659	78.13
793.835	78.02
794.011	81.13
794.187	81.88
794.363	80.62
794.539	84.72
794.715	81.91
794.891	80.71
795.067	76.96
795.243	76.73
795.419	74.95
795.595	80.61
795.771	75.63
795.947	74.72
796.122	75.02
796.298	72.57
796.474	71
796.65	76.43
796.826	78.54
797.001	80.15
797.177	78.44
797.353	77.81
797.529	75.62
797.704	74.66
797.88	72.85
798.056	73.96
798.231	73.86
798.407	75.33
798.582	76.42
798.758	76.99
798.934	78.91
799.109	80.03
799.285	78.78
799.46	75.72
799.636	73.24
799.811	74.66
799.986	68.91
800.162	65.97
800.337	69.15
800.513	71.07
800.688	67.47
800.863	77.1
801.039	81.45
801.214	75.55
801.389	79.32
801.565	78.29
801.74	70.72
801.915	68.11
802.09	71.72
802.265	68.79
802.441	71.13
802.616	72.98
802.791	73.9
802.966	73.14
803.141	74.44
803.316	77.94
803.491	79.29
803.666	77.42
803.841	76.72
804.016	68.57
804.191	63.41
804.366	61.09
804.541	61.77
804.716	59.97
804.891	66.91
805.066	71.33
805.241	72.21
805.416	78.24
805.591	81.52
805.765	91
805.94	82.61
806.115	77.22
806.29	72.62
806.464	71.46
806.639	65.59
806.814	67.12
806.989	69.84
807.163	71.66
807.338	70.55
807.512	67.74
807.687	71.15
807.862	69.21
808.036	70.28
808.211	70.58
808.385	76.95
808.56	72.27
808.734	61.95
808.909	57.44
809.083	61.16
809.258	67.77
809.432	72.57
809.606	87.02
809.781	84.71
809.955	84.27
810.13	68.33
810.304	65.03
810.478	66.74
810.652	71.18
810.827	73.18
811.001	72.14
811.175	71.92
811.349	72.02
811.524	70.3
811.698	60.44
811.872	69.44
812.046	70.08
812.22	74.14
812.394	71.13
812.568	78.09
812.742	70.29
812.916	80.19
813.09	77.83
813.264	75.82
813.438	76.12
813.612	76.57
813.786	65.12
813.96	68.75
814.134	71.31
814.308	69.83
814.482	69.45
814.656	62.79
814.83	56.6
815.003	58.98
815.177	59.22
815.351	63.05
815.525	71.26
815.698	60.54
815.872	50.45
816.046	44.97
816.219	48.23
816.393	46.51
816.567	54.12
816.74	67.29
816.914	72.75
817.088	73.13
817.261	67.81
817.435	65.18
817.608	51.79
817.782	45.49
817.955	44.32
818.129	55.9
818.302	62.44
818.475	71.28
818.649	74.57
818.822	73.46
818.996	76.52
819.169	73.1
819.342	69.81
819.516	75.03
819.689	69.4
819.862	61.68
820.035	65.9
820.209	64.88
820.382	52.7
820.555	52.95
820.728	56.32
820.901	47.8
821.075	56.28
821.248	56.16
821.421	55.08
821.594	49.83
821.767	49.69
821.94	44.63
822.113	52.02
822.286	61.98
822.459	69.88
822.632	81.22
822.805	79.86
822.978	81.38
823.151	75.36
823.324	57.6
823.496	44.32
823.669	54.6
823.842	46.17
824.015	37.21
824.188	40.91
824.361	54.96
824.533	36.39
824.706	46.61
824.879	51.06
825.051	65.79
825.224	48.3
825.397	56.78
825.569	46.59
825.742	50.41
825.915	43.92
826.087	48.91
826.26	46.52
826.432	51.78
826.605	50.87
826.777	44
826.95	49.87
827.122	44.88
827.295	48.09
827.467	62.46
827.64	69.17
827.812	62.91
827.984	75.12
828.157	56.58
828.329	48.66
828.501	49.92
828.674	59.54
828.846	56.08
829.018	59.14
829.19	54
829.363	38.98
829.535	37.71
829.707	46.75
829.879	49.18
830.051	52.12
830.223	69.38
830.395	60.45
830.568	59.21
830.74	61.63
830.912	61.28
831.084	61.19
831.256	57.16
831.428	61.89
831.6	58.04
831.772	61.35
831.943	64.84
832.115	70.7
832.287	46.96
832.459	47.55
832.631	42.39
832.803	42.34
832.975	43.74
833.146	47.16
833.318	50.57
833.49	61.62
833.662	75.47
833.833	76.18
834.005	76.48
834.177	79.54
834.348	73.5
834.52	54.43
834.692	57.05
834.863	53.71
835.035	53.7
835.206	45.69
835.378	59.21
835.549	61.96
835.721	54.41
835.892	55.04
836.064	58.67
836.235	51.37
836.407	42.82
836.578	53.06
836.749	31.38
836.921	8.95
837.092	-4.09
837.264	2.91
837.435	-12.17
837.606	16.6
837.777	33.1
837.949	57.46
838.12	53.73
838.291	64.79
838.462	62.47
838.633	56.81
838.805	49.43
838.976	50.9
839.147	44.07
839.318	54.76
839.489	48.77
839.66	55.4
839.831	57.76
840.002	54.9
840.173	47.81
840.344	52.38
840.515	36.96
840.686	40.95
840.857	39.89
841.028	43.67
841.199	37.33
841.369	39.37
841.54	33.76
841.711	67.53
841.882	71.91
842.053	72.94
842.223	86.9
842.394	75.23
842.565	48.45
842.736	39
842.906	53.37
843.077	47.25
843.248	47.99
843.418	50.72
843.589	51.86
843.759	52.73
843.93	60.2
844.101	56.08
844.271	75.75
844.442	79.98
844.612	54.93
844.783	30.79
844.953	27.72
845.123	16.65
845.294	6.99
845.464	13.49
845.635	34.59
845.805	37.32
845.975	60.91
846.146	57.04
846.316	37.36
846.486	28.25
846.656	26.8
846.827	18.78
846.997	14.32
847.167	10.03
847.337	5.79
847.507	3.18
847.677	-0.37
847.848	14.01
848.018	26.54
848.188	46.97
848.358	62.64
848.528	75.87
848.698	47.79
848.868	49.36
849.038	36.17
849.208	39
849.378	33.44
849.548	36.16
849.718	41.79
849.887	51.38
850.057	28.62
850.227	45.96
850.397	51.59
850.567	28.4
850.737	43.8
850.906	36.06
851.076	14.84
851.246	11.7
851.415	50.21
851.585	45.38
851.755	53.28
851.924	69.4
852.094	79.45
852.264	43.5
852.433	33.21
852.603	14.29
852.772	1.2
852.942	27.7
853.111	7.4
853.281	24.3
853.45	39.1
853.62	18.08
853.789	-17.37
853.959	-2.99
854.128	-21.73
854.297	-1.46
854.467	14.5
854.636	30.54
854.805	33.64
854.975	42.14
855.144	14.53
855.313	21.59
855.482	10.67
855.652	6.85
855.821	-3.99
855.99	23.04
856.159	24.02
856.328	46.85
856.497	54.52
856.667	66.14
856.836	58.74
857.005	51.4
857.174	36.81
857.343	33.59
857.512	25.7
857.681	-14.56
857.85	6.55
858.019	-17.52
858.188	-24.74
858.356	7.61
858.525	34.57
858.694	36.78
858.863	40.19
859.032	40.98
859.201	3.91
859.369	-11.55
859.538	4.98
859.707	-19.05
859.876	-7.99
860.044	24.3
860.213	58.43
860.382	59.6
860.55	72.7
860.719	86.77
860.888	70.52
861.056	27.65
861.225	4.94
861.393	-9.61
861.562	-30.24
861.73	4.02
861.899	5.64
862.067	1.79
862.236	-6.71
862.404	16.34
862.572	-4.18
862.741	-34.92
862.909	-3.07
863.078	32.64
863.246	32.17
863.414	54.78
863.582	71.96
863.751	88.84
863.919	79.35
864.087	61.88
864.255	63.1
864.424	61.54
864.592	48.43
864.76	11.61
864.928	28.39
865.096	12.33
865.264	20.51
865.432	7.49
865.6	58.38
865.768	39.33
865.936	43.85
866.104	33.84
866.272	25.57
866.44	11.38
866.608	15.44
866.776	46.02
866.944	48.3
867.112	33.56
867.28	44.35
867.448	42.18
867.615	21.2
867.783	10.21
867.951	26.7
868.119	47.95
868.286	63.95
868.454	58.06
868.622	48.33
868.789	40.5
868.957	8.63
869.125	18.59
869.292	-23.69
869.46	-5.04
869.627	-8.56
869.795	-17.87
869.963	-36.64
870.13	-7.88
870.298	-11.69
870.465	-16.63
870.632	-6.84
870.8	10.97
870.967	6.29
871.135	24.73
871.302	24.11
871.469	23.06
871.637	12.48
871.804	39.7
871.971	5.11
872.139	-14.47
872.306	-29.01
872.473	-39.66
872.64	-168.18
872.807	-134.05
872.975	-186.96
873.142	1.3
873.309	45.23
873.476	97.5
873.643	146.48
873.81	118.32
873.977	98.87
874.144	80.5
874.311	27.98
874.478	4.14
874.645	-15.75
874.812	43.11
874.979	41.77
875.146	-27.24
875.313	-23.6
875.48	18.22
875.647	10.07
875.813	-59.47
875.98	-5.57
876.147	-19.13
876.314	-27.69
876.481	-21.83
876.647	46.64
876.814	16.73
876.981	22.85
877.147	36
877.314	27.25
877.481	39.06
877.647	69.44
877.814	106.72
877.98	106.08
878.147	124.58
878.314	132.7
878.48	159.36
878.647	98.97
878.813	74.45
878.979	54.51
879.146	3.27
879.312	0.25
879.479	-18.02
879.645	10.93
879.811	3.65
879.978	38.63
880.144	41.37
880.31	54.65
880.477	53.12
880.643	47.51
880.809	32.53
880.975	-2.12
881.142	-62.8
881.308	381.83
881.474	604.93
881.64	-124.06
881.806	-140.64
881.972	-5.5
882.138	25.76
882.304	26.97
882.47	15.88
882.636	-29.77
882.802	-59.6
882.968	-83.16
883.134	-39.64
883.3	-55.94
883.466	9.11
883.632	47.81
883.798	58.14
883.964	62.66
884.129	-28.38
884.295	-15.13
884.461	-49.06
884.627	-14.81
884.793	-21.66
884.958	24.73
885.124	17.91
885.29	0.25
885.455	21.37
885.621	47.97
885.787	84.35
885.952	55.65
886.118	54.87
886.283	56.3
886.449	62.09
886.614	35.51
886.78	46.37
886.945	69.12
887.111	26.86
887.276	-1.48
887.442	-29.36
887.607	-0.23
887.773	3.88
887.938	14.33
888.103	2.03
888.269	44.82
888.434	34.39
888.599	27.34
888.764	30.45
888.93	63
889.095	35.27
889.26	41.81
889.425	46.91
889.59	65.31
889.756	36.18
889.921	22.62
890.086	-52.08
890.251	-61.8
890.416	-18.62
890.581	-66.88
890.746	-8.56
890.911	-2.3
891.076	4.99
891.241	-3.97
891.406	-17.58
891.571	-80.22
891.736	-87.33
891.901	-20.19
892.065	0.89
892.23	62.98
892.395	36.45
892.56	31.2
892.725	37.54
892.889	81.91
893.054	10.06
893.219	15.35
893.384	21.37
893.548	-3.54
893.713	-26.56
893.878	-143.12
