Data from Ofra_1a_PS_4HS15.2_Reflection_3.txt Node
Date: Tue Jul 20 10:58:28 EDT 2021
User: Adam
Spectrometer: FLMT01687
Trigger mode: 0
Integration Time (sec): 1.004000E0
Scans to average: 2
Electric dark correction enabled: true
Nonlinearity correction enabled: false
Boxcar width: 2
XAxis mode: Wavelengths
Number of Pixels in Spectrum: 3648
>>>>>Begin Spectral Data<<<<<
179.494	-24.37
179.716	-199.24
179.937	561.87
180.158	-397.45
180.38	138.64
180.601	147.02
180.823	78.57
181.044	78.69
181.265	383.77
181.486	38.23
181.708	136.25
181.929	-6981.82
182.15	155.71
182.372	-419.7
182.593	40.11
182.814	-57.05
183.035	70.92
183.257	34.31
183.478	10.78
183.699	-6.17
183.92	-78.4
184.141	-122.58
184.363	-69.83
184.584	-59.68
184.805	-18.86
185.026	37.83
185.247	30.88
185.468	9.46
185.689	15.23
185.91	1.54
186.132	-27.32
186.353	-20
186.574	-40.43
186.795	-54.26
187.016	-47.58
187.237	-53.09
187.458	-42.57
187.679	-33.54
187.9	15.42
188.121	26.86
188.342	37.6
188.563	45.31
188.784	60.25
189.005	27.98
189.226	37.77
189.447	31.8
189.667	13.12
189.888	-5.31
190.109	-24.67
190.33	-27.52
190.551	-41.01
190.772	-34.71
190.993	-50.14
191.214	-67.6
191.434	-117.3
191.655	-111.41
191.876	-25.2
192.097	1.82
192.318	30.99
192.538	0.29
192.759	-2.33
192.98	-0.2
193.201	10.71
193.421	1.08
193.642	24.31
193.863	33.27
194.083	14.66
194.304	5.67
194.525	-4.56
194.745	-9.97
194.966	-3.63
195.187	-1.32
195.407	1.26
195.628	20.93
195.848	21.8
196.069	13.2
196.29	4.43
196.51	-22.57
196.731	-32.28
196.951	-50.95
197.172	-33.74
197.392	-37.11
197.613	-3.81
197.833	-18.62
198.054	-24.7
198.274	-30.5
198.495	-20.91
198.715	-40.55
198.936	-14.41
199.156	-23.26
199.377	-35
199.597	-22.26
199.817	-17
200.038	-37.13
200.258	8.97
200.479	19.85
200.699	5.57
200.919	-7.05
201.14	-9.68
201.36	-20.09
201.58	-33.24
201.801	-31.03
202.021	-30.76
202.241	-19.48
202.461	-15.03
202.682	-6.73
202.902	-3.14
203.122	-10.04
203.342	0.21
203.563	-14.17
203.783	-33.85
204.003	-47.54
204.223	-12.55
204.443	-27.98
204.663	-41.68
204.884	-1.66
205.104	12.09
205.324	6.79
205.544	14.17
205.764	32.88
205.984	19.53
206.204	27.37
206.424	-6.44
206.644	-39.32
206.864	-83.78
207.084	-40.85
207.304	-49.59
207.525	-30.24
207.745	-3.26
207.964	20.61
208.184	20
208.404	24.95
208.624	36.13
208.844	36.3
209.064	38.39
209.284	12.5
209.504	-16.66
209.724	-17.54
209.944	-34.06
210.164	-44.87
210.384	-25.53
210.604	-61.7
210.823	-98.42
211.043	-68.4
211.263	-137.63
211.483	-84.56
211.703	-36.57
211.922	-74.98
212.142	-48.23
212.362	-7.84
212.582	-16.02
212.801	-41.78
213.021	-18.59
213.241	-47.25
213.461	-34.34
213.68	-27.81
213.9	-16.41
214.12	-2.2
214.339	-3.1
214.559	-28.24
214.779	-35.64
214.998	-31.49
215.218	-34.75
215.438	-26.66
215.657	-28.23
215.877	-53.08
216.096	-25.88
216.316	-17.32
216.535	-25.34
216.755	-13.46
216.974	-5.84
217.194	-26.84
217.413	-27.98
217.633	-23.26
217.852	-19.92
218.072	-9.35
218.291	-10.59
218.511	-9.04
218.73	-18.8
218.95	-63.13
219.169	-51.93
219.389	-41.49
219.608	-52.87
219.827	-20.08
220.047	2.64
220.266	-19.68
220.485	-23.61
220.705	-27.92
220.924	-47.37
221.143	-16.24
221.363	8.09
221.582	10.73
221.801	31.47
222.021	44.14
222.24	45.77
222.459	58.32
222.678	46.51
222.897	31.57
223.117	22.7
223.336	27.09
223.555	16.19
223.774	19.57
223.993	43.01
224.213	41.47
224.432	10.61
224.651	-7.01
224.87	-5.17
225.089	-22.34
225.308	-13.17
225.527	-15.01
225.746	-3.01
225.965	2.86
226.184	-10.12
226.404	-15.33
226.623	7.64
226.842	-1.35
227.061	-4.75
227.28	8.08
227.499	10.47
227.718	-0.28
227.936	0
228.155	7.13
228.374	13.11
228.593	7.84
228.812	5.89
229.031	8.44
229.25	-7.62
229.469	-24.81
229.688	-13.24
229.907	1.89
230.125	-3.17
230.344	5.2
230.563	17.37
230.782	17.82
231.001	18.46
231.22	21.43
231.438	13.74
231.657	11.48
231.876	3.73
232.095	-7.97
232.313	-24.49
232.532	-17.09
232.751	-24.03
232.969	-20.27
233.188	-20.73
233.407	-6.7
233.625	-0.18
233.844	-2.69
234.063	-0.17
234.281	23.24
234.5	25.69
234.719	17.67
234.937	7.87
235.156	11.06
235.374	-19.06
235.593	-13.61
235.811	-10.48
236.03	14
236.249	6.84
236.467	9.24
236.686	-2.48
236.904	8.41
237.123	-6.73
237.341	-4.54
237.559	-14.45
237.778	19.63
237.996	-24.48
238.215	-18.45
238.433	-62.71
238.652	1.37
238.87	-35.13
239.088	-21.92
239.307	-25.65
239.525	-13
239.743	-30.93
239.962	-33.26
240.18	-11.79
240.398	2.74
240.617	9.13
240.835	28.73
241.053	24.07
241.271	18.52
241.49	21.18
241.708	15.43
241.926	4.1
242.144	19.27
242.363	7.94
242.581	-7.94
242.799	-25.31
243.017	-26.12
243.235	-29.46
243.453	-29.1
243.672	-26.28
243.89	-8.28
244.108	3.69
244.326	21.02
244.544	17.56
244.762	12.53
244.98	1.6
245.198	-1.66
245.416	-17.08
245.634	-6.13
245.852	-14.58
246.07	11.3
246.288	13.81
246.506	1.99
246.724	-12.59
246.942	3.79
247.16	7.01
247.378	5.41
247.596	44.02
247.814	75.42
248.032	53.7
248.25	42.96
248.468	34.85
248.685	31.69
248.903	21.16
249.121	27.99
249.339	29.9
249.557	37.83
249.775	40.12
249.992	45.65
250.21	33.75
250.428	29.91
250.646	31.34
250.863	11.02
251.081	11.16
251.299	24.15
251.517	12.04
251.734	-6.63
251.952	0.31
252.17	1.23
252.387	-18.09
252.605	-12.78
252.823	-6.77
253.04	16.05
253.258	15.91
253.475	19.11
253.693	11.65
253.911	7.62
254.128	0.89
254.346	13.17
254.563	37.39
254.781	34.75
254.998	28.42
255.216	-5.99
255.433	-34.98
255.651	-42.1
255.868	-25.54
256.086	-0.2
256.303	19.76
256.521	26.72
256.738	30.54
256.956	23.06
257.173	-0.86
257.39	2.07
257.608	-4.22
257.825	-6.43
258.043	-4.71
258.26	3.43
258.477	0.28
258.695	2.27
258.912	-21.44
259.129	-31.52
259.346	-54.98
259.564	-36.17
259.781	-33.61
259.998	4.18
260.216	16.31
260.433	20.65
260.65	4.22
260.867	-1.56
261.084	-5.65
261.302	-9.05
261.519	0.22
261.736	-4.72
261.953	-2.61
262.17	12.52
262.387	9.25
262.604	9.5
262.822	33.84
263.039	35.81
263.256	13.25
263.473	10.24
263.69	10.75
263.907	-0.74
264.124	7.41
264.341	21.84
264.558	28.43
264.775	31.89
264.992	28.64
265.209	3.06
265.426	-10.47
265.643	-8.19
265.86	-49.28
266.077	-58.18
266.294	-14.24
266.51	27.89
266.727	30.93
266.944	44.5
267.161	54.4
267.378	52.21
267.595	24.2
267.812	7.89
268.028	-7.71
268.245	-11.26
268.462	-13.16
268.679	7.33
268.896	32.98
269.112	32.41
269.329	16.8
269.546	40.61
269.763	41.89
269.979	23.92
270.196	32.74
270.413	26.16
270.629	13.05
270.846	-9.26
271.063	3.92
271.279	-2.24
271.496	-12.88
271.712	-8.09
271.929	14.98
272.146	5.17
272.362	10.68
272.579	11.16
272.795	-9.28
273.012	-5.93
273.228	0.81
273.445	-1.43
273.661	13.2
273.878	12.53
274.094	-8.18
274.311	-22.04
274.527	-35.9
274.744	-21.89
274.96	-6.15
275.177	1.33
275.393	8.69
275.609	18.97
275.826	1.65
276.042	-9.29
276.259	-16.36
276.475	-17.56
276.691	-34.24
276.908	-19.83
277.124	0
277.34	-0.21
277.557	-16.26
277.773	-8.58
277.989	-7.69
278.205	-25.75
278.422	-19.46
278.638	-24.82
278.854	-13.29
279.07	0
279.286	4.27
279.503	14.33
279.719	29.22
279.935	15.08
280.151	-0.73
280.367	6.93
280.583	-17.27
280.799	-19.69
281.016	-54.41
281.232	-37.29
281.448	-35.17
281.664	-15.25
281.88	-11.89
282.096	14.82
282.312	16.25
282.528	16.77
282.744	1.93
282.96	-5.02
283.176	-25.7
283.392	-69.6
283.608	-48.43
283.824	-45.44
284.04	-112.94
284.256	-79.57
284.471	-48.47
284.687	-46.58
284.903	-12.71
285.119	21.54
285.335	45.45
285.551	51.7
285.767	46.55
285.982	21.67
286.198	-20.84
286.414	-60.64
286.63	-78.18
286.846	-81.67
287.061	-67.13
287.277	-62.8
287.493	-56.53
287.709	-53.51
287.924	-33.81
288.14	5.65
288.356	28.79
288.571	34.77
288.787	18.51
289.003	13.99
289.218	-21.09
289.434	-31.2
289.65	-17.44
289.865	-1.31
290.081	5.49
290.296	17.5
290.512	19.28
290.727	0.27
290.943	5.34
291.159	7.93
291.374	-7.43
291.59	6.76
291.805	12.5
292.021	-2.57
292.236	-8.15
292.451	-2.66
292.667	-15.31
292.882	3.62
293.098	10.38
293.313	5.08
293.529	-1.36
293.744	-6.62
293.959	-26.67
294.175	-18.13
294.39	-33.97
294.605	-6.94
294.821	-6.88
295.036	1.12
295.251	7.88
295.467	12.11
295.682	7.45
295.897	2.11
296.112	-4.21
296.328	0.84
296.543	-5.08
296.758	-1.29
296.973	9.47
297.188	7.64
297.404	-37.03
297.619	-41.47
297.834	-99.31
298.049	-89.33
298.264	-55.81
298.479	-47.19
298.694	-5.23
298.909	15.21
299.125	5.42
299.34	0.3
299.555	7.72
299.77	19.07
299.985	15.52
300.2	19.17
300.415	21.68
300.63	22.14
300.845	7.22
301.06	10.54
301.275	7
301.49	19.3
301.704	10.15
301.919	8.08
302.134	0.53
302.349	9.52
302.564	-6.27
302.779	-12.91
302.994	-11.91
303.209	-7.39
303.423	-4.75
303.638	-1.14
303.853	-6.3
304.068	-18.86
304.283	-10.16
304.497	-36.65
304.712	-26.29
304.927	-9.86
305.142	-2.14
305.356	-9.72
305.571	-11.62
305.786	-21.51
306	-16.33
306.215	-10.35
306.43	-9.65
306.644	-7.92
306.859	-21.95
307.074	-18.39
307.288	-15.78
307.503	-0.93
307.717	-5.79
307.932	5.57
308.147	-4.97
308.361	-10.38
308.576	-35.76
308.79	-17.66
309.005	-30.32
309.219	-19.3
309.434	3.23
309.648	7.69
309.863	12.45
310.077	24.45
310.292	21.39
310.506	-3.18
310.72	-8.28
310.935	12.85
311.149	17.12
311.364	17.7
311.578	12.48
311.792	18.38
312.007	5.07
312.221	-29.74
312.435	-23.31
312.649	2.39
312.864	-14.69
313.078	-18.7
313.292	-5.59
313.507	3.08
313.721	-8.88
313.935	14.1
314.149	12.31
314.363	26.5
314.578	23.69
314.792	0.79
315.006	-17.49
315.22	-25.04
315.434	-21.64
315.648	-46.76
315.862	-15.42
316.077	-6.07
316.291	-4.75
316.505	-44.41
316.719	-7.59
316.933	-14.34
317.147	-21.49
317.361	-29.51
317.575	-7.79
317.789	-9.36
318.003	-8.74
318.217	27.87
318.431	36.83
318.645	23.06
318.859	24.09
319.073	19.06
319.287	0.12
319.5	2.08
319.714	-13.31
319.928	-17.07
320.142	-8.08
320.356	-6.39
320.57	-15.8
320.784	12.5
320.997	-3.16
321.211	2.44
321.425	-10.51
321.639	13.03
321.853	5.1
322.066	8.7
322.28	-1.66
322.494	9.45
322.707	-1.8
322.921	-1.85
323.135	0.98
323.349	-12.78
323.562	-23.45
323.776	-24.72
323.989	-7.11
324.203	-16.56
324.417	-1.81
324.63	-5.72
324.844	-12.78
325.057	-37.8
325.271	-25.25
325.485	-32.38
325.698	-12.43
325.912	-6.87
326.125	-3.64
326.339	11.72
326.552	18.87
326.766	1.38
326.979	12.52
327.193	13.84
327.406	-10.96
327.619	-10.21
327.833	4.3
328.046	5.67
328.26	-0.7
328.473	4.76
328.686	4.61
328.9	15.83
329.113	14.78
329.326	21.24
329.54	22.3
329.753	33.63
329.966	26.66
330.179	20.82
330.393	18.46
330.606	15.64
330.819	-18.8
331.032	-23.54
331.246	-6.93
331.459	11.32
331.672	19.02
331.885	22.68
332.098	26.91
332.311	5.03
332.525	-7.12
332.738	-9.94
332.951	-11.6
333.164	-2.12
333.377	5.78
333.59	-3.85
333.803	6.95
334.016	1.09
334.229	-11.37
334.442	-14.63
334.655	-7.68
334.868	-7.18
335.081	3.89
335.294	-7.37
335.507	-8.49
335.72	-5.46
335.933	-22.9
336.146	-33.86
336.359	-10.43
336.572	-14.67
336.785	-26.47
336.997	-9.53
337.21	-0.87
337.423	-19.94
337.636	-8.67
337.849	-1.72
338.062	-7.79
338.274	-6.21
338.487	-14.2
338.7	-11.51
338.913	-0.59
339.125	-13.57
339.338	-23.62
339.551	-15.74
339.763	-29.02
339.976	-41.21
340.189	-32.99
340.402	12.18
340.614	12.76
340.827	27.11
341.039	29.11
341.252	12.24
341.465	-17
341.677	-15.18
341.89	-36.45
342.102	-31.71
342.315	-19.93
342.527	-18.51
342.74	-31.25
342.952	-24.22
343.165	-16.24
343.377	-6.74
343.59	0
343.802	5.02
344.015	19.66
344.227	16.97
344.44	11.08
344.652	13.43
344.864	26.83
345.077	33.53
345.289	33.38
345.502	49.01
345.714	41.35
345.926	32.73
346.139	11.43
346.351	19.02
346.563	14.92
346.775	14.11
346.988	26.76
347.2	22.32
347.412	6.57
347.624	6.73
347.837	15.53
348.049	2.94
348.261	-5.84
348.473	-9.29
348.685	-18.19
348.897	-35.14
349.11	-25.47
349.322	-3.09
349.534	-6
349.746	-13.8
349.958	-24.31
350.17	-37.64
350.382	-47.49
350.594	-22.41
350.806	-2.85
351.018	5.98
351.23	20.58
351.442	25.92
351.654	26.04
351.866	11.31
352.078	22.03
352.29	12.29
352.502	3.58
352.714	-3.6
352.926	11.72
353.138	6.33
353.35	2.65
353.561	2.2
353.773	-3.29
353.985	5.01
354.197	3.04
354.409	6.43
354.621	4.63
354.832	-0.76
355.044	-27.45
355.256	-30.27
355.468	-30.24
355.679	-6.46
355.891	10.48
356.103	16.82
356.314	12.09
356.526	-10.79
356.738	-21.39
356.949	-26.21
357.161	-12.66
357.373	-3.06
357.584	18.4
357.796	18.75
358.008	16.78
358.219	13.4
358.431	13.47
358.642	10.89
358.854	18.39
359.065	7.72
359.277	6.9
359.488	-1.94
359.7	-7.1
359.911	-15.46
360.123	-0.77
360.334	-15.76
360.546	-11.62
360.757	-9.24
360.969	-11.68
361.18	-11.64
361.391	-1.02
361.603	12.35
361.814	18.07
362.025	18.91
362.237	12.74
362.448	24.41
362.659	7.68
362.871	-5.73
363.082	-3.23
363.293	-4.51
363.504	-35.25
363.716	-30.33
363.927	-6.38
364.138	-34.52
364.349	-46.27
364.56	-62.2
364.772	-44.2
364.983	-36.48
365.194	-22.62
365.405	-24.8
365.616	-2.44
365.827	-15.32
366.038	-22.7
366.25	-18.95
366.461	-6.17
366.672	-12.14
366.883	-8.09
367.094	-10.83
367.305	-9.49
367.516	-12.25
367.727	-21.27
367.938	-29.49
368.149	-31.22
368.36	-33.11
368.571	-55.55
368.781	-44.7
368.992	-37.09
369.203	-41.33
369.414	-43.88
369.625	-33.58
369.836	-7.66
370.047	-4.93
370.258	8.12
370.468	9.67
370.679	4.32
370.89	-12.89
371.101	14.82
371.312	-3.37
371.522	5.01
371.733	17.27
371.944	6.66
372.155	-8.38
372.365	7.14
372.576	-1.07
372.787	1.42
372.997	1.18
373.208	-6.88
373.419	-9.84
373.629	-18.29
373.84	-24.7
374.05	-13.71
374.261	-22.42
374.472	-20.7
374.682	1.36
374.893	0.79
375.103	-4.25
375.314	4.56
375.524	6.9
375.735	-3.23
375.945	3.85
376.156	5.86
376.366	10.96
376.577	9.4
376.787	15.76
376.997	23.66
377.208	17.77
377.418	17.19
377.629	19.4
377.839	17.71
378.049	8.1
378.26	9.41
378.47	4.2
378.68	4.56
378.89	2.21
379.101	6.03
379.311	7.25
379.521	-0.6
379.732	10.69
379.942	9.79
380.152	3.71
380.362	3.41
380.572	11.59
380.783	4.09
380.993	6.6
381.203	9.78
381.413	15.8
381.623	13.33
381.833	15.19
382.043	10.13
382.253	2.03
382.463	5.08
382.674	12.94
382.884	10.21
383.094	12.75
383.304	16.77
383.514	9.42
383.724	1.59
383.934	-1.9
384.144	1.49
384.353	1.67
384.563	2.27
384.773	2.08
384.983	-2.07
385.193	-6.61
385.403	-3.24
385.613	-1.42
385.823	1.25
386.033	2.77
386.242	4.67
386.452	-1.95
386.662	1.28
386.872	1.59
387.082	3.57
387.291	-2.13
387.501	5.13
387.711	6.41
387.921	4.16
388.13	4.05
388.34	10.14
388.55	5.71
388.759	-3.83
388.969	-0.53
389.179	1.94
389.388	-4.35
389.598	-4.63
389.807	-4.11
390.017	-6.85
390.227	-10.2
390.436	-4.11
390.646	-2.56
390.855	-0.4
391.065	1.06
391.274	2.65
391.484	0.96
391.693	2.55
391.903	3.38
392.112	2.82
392.322	4.07
392.531	5.78
392.74	1.99
392.95	2.9
393.159	2.27
393.369	2.78
393.578	1.69
393.787	4.28
393.997	2.68
394.206	2.56
394.415	1.59
394.625	0.51
394.834	-0.09
395.043	1.03
395.252	3.2
395.462	3.81
395.671	4.63
395.88	4.97
396.089	4.91
396.298	4.61
396.508	4.75
396.717	4.47
396.926	3.82
397.135	3.84
397.344	2.86
397.553	3.03
397.762	3.83
397.971	4.4
398.181	5.14
398.39	5.46
398.599	5.17
398.808	5.1
399.017	5.5
399.226	4.81
399.435	4.83
399.644	5.21
399.853	5.15
400.062	5.13
400.27	4.98
400.479	5.08
400.688	4.76
400.897	4.46
401.106	4.16
401.315	4.25
401.524	4.1
401.733	4.11
401.941	4.7
402.15	4.62
402.359	4.76
402.568	4.77
402.777	4.61
402.985	4.16
403.194	4.11
403.403	4.19
403.612	4.13
403.82	3.91
404.029	4.02
404.238	4.04
404.446	4.02
404.655	4.09
404.864	4.21
405.072	4.14
405.281	4.17
405.489	4.05
405.698	4.08
405.906	4.18
406.115	4.12
406.324	4.16
406.532	4.37
406.741	4.34
406.949	4.39
407.158	4.53
407.366	4.48
407.574	4.46
407.783	4.43
407.991	4.35
408.2	4.46
408.408	4.33
408.617	4.16
408.825	4.11
409.033	4.13
409.242	4.03
409.45	4.14
409.658	4.16
409.867	4.14
410.075	4.13
410.283	3.86
410.491	3.79
410.7	3.81
410.908	3.91
411.116	4.03
411.324	4.13
411.533	4.04
411.741	3.96
411.949	4.02
412.157	3.89
412.365	4.02
412.573	3.97
412.781	3.99
412.99	3.84
413.198	3.83
413.406	3.86
413.614	4.11
413.822	4.01
414.03	4.09
414.238	4.13
414.446	4.06
414.654	3.91
414.862	3.94
415.07	3.8
415.278	3.86
415.486	3.72
415.694	3.77
415.902	3.72
416.109	3.75
416.317	3.73
416.525	3.72
416.733	3.6
416.941	3.74
417.149	3.66
417.357	3.59
417.564	3.71
417.772	3.82
417.98	3.72
418.188	3.75
418.395	3.58
418.603	3.34
418.811	3.31
419.019	3.29
419.226	3.4
419.434	3.51
419.642	3.52
419.849	3.57
420.057	3.52
420.265	3.46
420.472	3.44
420.68	3.51
420.887	3.29
421.095	3.41
421.302	3.51
421.51	3.4
421.717	3.57
421.925	3.65
422.132	3.56
422.34	3.22
422.547	3.2
422.755	3.16
422.962	3.24
423.17	3.27
423.377	3.49
423.585	3.78
423.792	3.67
423.999	3.64
424.207	3.59
424.414	3.57
424.621	3.35
424.829	3.51
425.036	3.56
425.243	3.66
425.451	3.62
425.658	3.66
425.865	3.53
426.072	3.54
426.28	3.55
426.487	3.43
426.694	3.44
426.901	3.46
427.108	3.38
427.315	3.33
427.523	3.35
427.73	3.3
427.937	3.1
428.144	3.16
428.351	3.08
428.558	3.41
428.765	3.49
428.972	3.65
429.179	3.52
429.386	3.69
429.593	3.33
429.8	3.29
430.007	3.2
430.214	3.25
430.421	3.22
430.628	3.36
430.835	3.32
431.042	3.32
431.249	3.44
431.456	3.43
431.662	3.41
431.869	3.7
432.076	3.74
432.283	3.83
432.49	3.81
432.697	3.89
432.903	3.65
433.11	3.81
433.317	3.81
433.524	3.94
433.73	3.86
433.937	4.03
434.144	3.87
434.35	3.66
434.557	3.58
434.764	3.64
434.97	3.5
435.177	3.63
435.384	3.78
435.59	3.85
435.797	3.99
436.003	4.06
436.21	3.97
436.416	3.98
436.623	3.95
436.829	3.82
437.036	3.76
437.242	3.88
437.449	3.79
437.655	3.84
437.862	3.86
438.068	3.95
438.275	4.04
438.481	4.16
438.687	4.14
438.894	4.39
439.1	4.27
439.307	4.28
439.513	4.32
439.719	4.37
439.926	4.18
440.132	4.31
440.338	4.19
440.544	4.18
440.751	4.05
440.957	4.12
441.163	4.01
441.369	4.05
441.575	3.97
441.782	4.04
441.988	4.04
442.194	4.09
442.4	4.04
442.606	4.26
442.812	4.29
443.018	4.32
443.224	4.44
443.431	4.56
443.637	4.42
443.843	4.44
444.049	4.45
444.255	4.47
444.461	4.44
444.667	4.51
444.873	4.5
445.079	4.47
445.284	4.43
445.49	4.29
445.696	4.26
445.902	4.28
446.108	4.43
446.314	4.41
446.52	4.63
446.726	4.67
446.931	4.73
447.137	4.65
447.343	4.81
447.549	4.78
447.755	4.7
447.96	4.72
448.166	4.69
448.372	4.59
448.578	4.59
448.783	4.62
448.989	4.61
449.195	4.62
449.4	4.6
449.606	4.62
449.812	4.63
450.017	4.66
450.223	4.63
450.428	4.69
450.634	4.71
450.84	4.7
451.045	4.73
451.251	4.86
451.456	4.9
451.662	4.87
451.867	4.88
452.073	4.84
452.278	4.77
452.483	4.68
452.689	4.62
452.894	4.73
453.1	4.68
453.305	4.75
453.51	4.94
453.716	5.04
453.921	5.05
454.127	5.15
454.332	5.09
454.537	4.95
454.742	4.89
454.948	4.84
455.153	4.76
455.358	4.8
455.563	4.96
455.769	5.01
455.974	5.04
456.179	5.04
456.384	5.02
456.589	4.88
456.795	4.82
457	4.8
457.205	4.84
457.41	4.87
457.615	4.89
457.82	5.05
458.025	5.06
458.23	5.03
458.435	5.05
458.64	5.12
458.845	5.04
459.05	5.16
459.255	5.15
459.46	5.15
459.665	5.1
459.87	5.11
460.075	5.04
460.28	5.18
460.485	5.33
460.69	5.3
460.895	5.35
461.099	5.27
461.304	5.11
461.509	5
461.714	5.11
461.919	5.07
462.123	5.15
462.328	5.19
462.533	5.18
462.738	5.06
462.942	5.05
463.147	5.03
463.352	5.16
463.556	5.24
463.761	5.28
463.966	5.31
464.17	5.42
464.375	5.48
464.58	5.42
464.784	5.48
464.989	5.47
465.193	5.41
465.398	5.32
465.602	5.48
465.807	5.52
466.011	5.64
466.216	5.57
466.42	5.69
466.625	5.74
466.829	5.71
467.034	5.69
467.238	5.9
467.443	5.9
467.647	5.78
467.851	5.82
468.056	5.81
468.26	5.74
468.464	5.67
468.669	5.76
468.873	5.83
469.077	5.84
469.282	5.88
469.486	5.93
469.69	5.92
469.894	5.87
470.099	5.87
470.303	5.76
470.507	5.77
470.711	5.8
470.915	5.85
471.119	5.84
471.324	5.93
471.528	5.96
471.732	5.95
471.936	5.95
472.14	6.06
472.344	6.24
472.548	6.21
472.752	6.16
472.956	6.29
473.16	6.17
473.364	5.99
473.568	5.98
473.772	6.06
473.976	6.04
474.18	6.16
474.384	6.22
474.588	6.25
474.792	6.19
474.995	6.14
475.199	6.11
475.403	6.24
475.607	6.27
475.811	6.28
476.015	6.2
476.218	6.12
476.422	6.01
476.626	6.06
476.83	6.14
477.033	6.28
477.237	6.38
477.441	6.38
477.644	6.35
477.848	6.41
478.052	6.33
478.255	6.27
478.459	6.3
478.663	6.34
478.866	6.28
479.07	6.28
479.273	6.39
479.477	6.34
479.681	6.42
479.884	6.4
480.088	6.42
480.291	6.35
480.495	6.45
480.698	6.34
480.901	6.33
481.105	6.34
481.308	6.4
481.512	6.37
481.715	6.49
481.919	6.57
482.122	6.6
482.325	6.64
482.529	6.66
482.732	6.54
482.935	6.46
483.138	6.38
483.342	6.41
483.545	6.49
483.748	6.55
483.952	6.6
484.155	6.74
484.358	6.65
484.561	6.56
484.764	6.47
484.967	6.5
485.171	6.45
485.374	6.48
485.577	6.52
485.78	6.62
485.983	6.56
486.186	6.56
486.389	6.62
486.592	6.53
486.795	6.48
486.998	6.48
487.201	6.49
487.404	6.52
487.607	6.66
487.81	6.67
488.013	6.73
488.216	6.67
488.419	6.58
488.622	6.47
488.825	6.52
489.028	6.45
489.231	6.44
489.433	6.45
489.636	6.4
489.839	6.43
490.042	6.46
490.245	6.49
490.447	6.5
490.65	6.54
490.853	6.51
491.056	6.54
491.258	6.59
491.461	6.52
491.664	6.51
491.866	6.46
492.069	6.5
492.272	6.41
492.474	6.48
492.677	6.55
492.879	6.52
493.082	6.48
493.285	6.56
493.487	6.51
493.69	6.48
493.892	6.5
494.095	6.47
494.297	6.47
494.5	6.45
494.702	6.47
494.905	6.51
495.107	6.54
495.309	6.53
495.512	6.55
495.714	6.54
495.917	6.58
496.119	6.58
496.321	6.54
496.524	6.49
496.726	6.48
496.928	6.41
497.13	6.44
497.333	6.4
497.535	6.53
497.737	6.5
497.939	6.51
498.142	6.45
498.344	6.51
498.546	6.46
498.748	6.6
498.95	6.66
499.152	6.69
499.355	6.68
499.557	6.71
499.759	6.67
499.961	6.56
500.163	6.58
500.365	6.6
500.567	6.6
500.769	6.61
500.971	6.65
501.173	6.59
501.375	6.62
501.577	6.55
501.779	6.48
501.981	6.54
502.183	6.61
502.385	6.63
502.587	6.73
502.788	6.82
502.99	6.82
503.192	6.87
503.394	6.86
503.596	6.84
503.798	6.77
503.999	6.78
504.201	6.75
504.403	6.72
504.605	6.69
504.806	6.77
505.008	6.75
505.21	6.72
505.411	6.76
505.613	6.77
505.815	6.74
506.016	6.81
506.218	6.84
506.42	6.81
506.621	6.88
506.823	6.88
507.024	6.84
507.226	6.91
507.427	6.93
507.629	6.96
507.83	6.97
508.032	6.94
508.233	6.91
508.435	6.92
508.636	6.94
508.838	6.93
509.039	6.93
509.24	6.96
509.442	7.05
509.643	7
509.845	7
510.046	7.06
510.247	7.09
510.448	7.06
510.65	7.06
510.851	7.12
511.052	7.11
511.254	7.15
511.455	7.13
511.656	7.1
511.857	7.1
512.058	7.09
512.26	7.03
512.461	7.04
512.662	7.07
512.863	6.98
513.064	6.99
513.265	7.01
513.466	7.05
513.667	7.07
513.868	7.1
514.069	7.09
514.27	7.14
514.471	7.11
514.672	7.17
514.873	7.19
515.074	7.25
515.275	7.17
515.476	7.19
515.677	7.21
515.878	7.27
516.079	7.27
516.28	7.33
516.481	7.42
516.682	7.32
516.882	7.3
517.083	7.21
517.284	7.23
517.485	7.17
517.686	7.24
517.886	7.27
518.087	7.35
518.288	7.33
518.488	7.24
518.689	7.18
518.89	7.13
519.091	7.2
519.291	7.22
519.492	7.28
519.692	7.32
519.893	7.35
520.094	7.27
520.294	7.27
520.495	7.29
520.695	7.33
520.896	7.33
521.096	7.39
521.297	7.36
521.497	7.37
521.698	7.36
521.898	7.39
522.099	7.37
522.299	7.42
522.499	7.38
522.7	7.4
522.9	7.4
523.101	7.39
523.301	7.4
523.501	7.43
523.702	7.41
523.902	7.41
524.102	7.49
524.302	7.51
524.503	7.51
524.703	7.52
524.903	7.52
525.103	7.47
525.304	7.46
525.504	7.51
525.704	7.53
525.904	7.57
526.104	7.56
526.304	7.58
526.504	7.59
526.705	7.59
526.905	7.6
527.105	7.6
527.305	7.57
527.505	7.52
527.705	7.48
527.905	7.47
528.105	7.48
528.305	7.47
528.505	7.5
528.705	7.57
528.905	7.62
529.105	7.64
529.304	7.72
529.504	7.73
529.704	7.71
529.904	7.66
530.104	7.67
530.304	7.66
530.503	7.67
530.703	7.64
530.903	7.62
531.103	7.65
531.303	7.66
531.502	7.66
531.702	7.71
531.902	7.83
532.101	7.82
532.301	7.83
532.501	7.95
532.7	7.96
532.9	7.98
533.1	8.02
533.299	8
533.499	7.91
533.698	7.93
533.898	7.92
534.097	7.91
534.297	7.91
534.496	7.92
534.696	7.92
534.895	7.92
535.095	7.9
535.294	7.95
535.494	7.94
535.693	7.96
535.892	7.97
536.092	8.02
536.291	8.02
536.491	8.04
536.69	8.02
536.889	7.98
537.088	7.98
537.288	7.94
537.487	7.99
537.686	8
537.886	8.08
538.085	8.13
538.284	8.21
538.483	8.16
538.682	8.18
538.882	8.18
539.081	8.18
539.28	8.22
539.479	8.24
539.678	8.24
539.877	8.29
540.076	8.27
540.275	8.26
540.474	8.28
540.673	8.32
540.872	8.3
541.071	8.37
541.27	8.4
541.469	8.45
541.668	8.47
541.867	8.54
542.066	8.52
542.265	8.55
542.464	8.55
542.663	8.62
542.862	8.65
543.06	8.76
543.259	8.83
543.458	8.89
543.657	8.89
543.856	8.89
544.054	8.89
544.253	8.84
544.452	8.88
544.651	8.93
544.849	8.89
545.048	8.92
545.247	9.02
545.445	9.05
545.644	9.07
545.843	9.17
546.041	9.16
546.24	9.15
546.438	9.17
546.637	9.21
546.836	9.32
547.034	9.39
547.233	9.45
547.431	9.49
547.63	9.56
547.828	9.5
548.027	9.5
548.225	9.51
548.423	9.58
548.622	9.58
548.82	9.66
549.019	9.69
549.217	9.74
549.415	9.73
549.614	9.86
549.812	9.85
550.01	9.87
550.209	9.94
550.407	10
550.605	9.93
550.803	10.01
551.002	10.12
551.2	10.17
551.398	10.31
551.596	10.34
551.794	10.43
551.993	10.5
552.191	10.61
552.389	10.56
552.587	10.74
552.785	10.74
552.983	10.78
553.181	10.76
553.379	10.84
553.577	10.81
553.775	10.95
553.973	11.05
554.171	11.13
554.369	11.21
554.567	11.33
554.765	11.35
554.963	11.35
555.161	11.4
555.359	11.42
555.557	11.46
555.755	11.55
555.952	11.63
556.15	11.7
556.348	11.8
556.546	11.89
556.744	11.86
556.941	11.89
557.139	11.99
557.337	12.05
557.535	12.09
557.732	12.2
557.93	12.35
558.128	12.43
558.325	12.48
558.523	12.54
558.721	12.62
558.918	12.73
559.116	12.79
559.313	12.94
559.511	13.03
559.708	13.09
559.906	13.1
560.104	13.18
560.301	13.24
560.498	13.28
560.696	13.43
560.893	13.49
561.091	13.57
561.288	13.66
561.486	13.75
561.683	13.82
561.88	13.95
562.078	14.03
562.275	14.07
562.473	14.15
562.67	14.19
562.867	14.2
563.064	14.31
563.262	14.35
563.459	14.46
563.656	14.53
563.853	14.62
564.051	14.7
564.248	14.87
564.445	14.85
564.642	14.98
564.839	15.05
565.036	15.14
565.234	15.2
565.431	15.37
565.628	15.41
565.825	15.48
566.022	15.48
566.219	15.45
566.416	15.48
566.613	15.56
566.81	15.66
567.007	15.67
567.204	15.72
567.401	15.83
567.598	15.93
567.795	15.97
567.991	16.06
568.188	16.11
568.385	16.14
568.582	16.13
568.779	16.18
568.976	16.28
569.172	16.37
569.369	16.47
569.566	16.54
569.763	16.6
569.96	16.61
570.156	16.69
570.353	16.64
570.55	16.68
570.746	16.69
570.943	16.75
571.14	16.76
571.336	16.84
571.533	16.8
571.729	16.84
571.926	16.89
572.123	16.96
572.319	16.94
572.516	17.05
572.712	17.07
572.909	16.98
573.105	17.03
573.302	17.04
573.498	17
573.695	17.02
573.891	17.11
574.087	17.02
574.284	17.07
574.48	17.1
574.677	17.1
574.873	17.07
575.069	17.15
575.266	17.14
575.462	17.17
575.658	17.32
575.854	17.39
576.051	17.44
576.247	17.38
576.443	17.34
576.639	17.24
576.835	17.15
577.032	17.14
577.228	17.26
577.424	17.27
577.62	17.28
577.816	17.27
578.012	17.19
578.208	17.2
578.404	17.18
578.6	17.21
578.796	17.29
578.993	17.29
579.189	17.23
579.384	17.32
579.58	17.21
579.776	17.2
579.972	17.16
580.168	17.13
580.364	17.08
580.56	17.05
580.756	16.97
580.952	16.91
581.148	16.91
581.343	16.86
581.539	16.91
581.735	16.93
581.931	16.94
582.127	16.9
582.322	16.83
582.518	16.76
582.714	16.72
582.909	16.68
583.105	16.62
583.301	16.66
583.496	16.63
583.692	16.63
583.888	16.66
584.083	16.75
584.279	16.63
584.474	16.68
584.67	16.68
584.866	16.65
585.061	16.63
585.257	16.69
585.452	16.63
585.648	16.58
585.843	16.61
586.039	16.58
586.234	16.61
586.429	16.62
586.625	16.62
586.82	16.66
587.015	16.69
587.211	16.66
587.406	16.68
587.601	16.76
587.797	16.68
587.992	16.66
588.187	16.57
588.383	16.55
588.578	16.55
588.773	16.56
588.968	16.67
589.163	16.78
589.359	16.77
589.554	16.72
589.749	16.75
589.944	16.7
590.139	16.65
590.334	16.73
590.529	16.74
590.724	16.84
590.919	16.79
591.114	16.85
591.309	16.87
591.504	16.85
591.699	16.75
591.894	16.73
592.089	16.71
592.284	16.78
592.479	16.86
592.674	16.95
592.869	17.07
593.064	17.17
593.259	17.18
593.454	17.21
593.648	17.18
593.843	17.17
594.038	17.18
594.233	17.18
594.428	17.29
594.622	17.39
594.817	17.5
595.012	17.54
595.206	17.57
595.401	17.58
595.596	17.65
595.79	17.57
595.985	17.67
596.18	17.69
596.374	17.75
596.569	17.73
596.763	17.84
596.958	17.85
597.153	17.91
597.347	17.88
597.542	17.96
597.736	18.1
597.931	18.11
598.125	18.23
598.319	18.29
598.514	18.37
598.708	18.42
598.903	18.49
599.097	18.5
599.291	18.53
599.486	18.58
599.68	18.54
599.874	18.57
600.069	18.67
600.263	18.8
600.457	18.82
600.651	18.84
600.846	18.92
601.04	18.78
601.234	18.68
601.428	18.67
601.622	18.68
601.817	18.7
602.011	18.8
602.205	18.88
602.399	18.92
602.593	19.09
602.787	19.07
602.981	19.08
603.175	19.14
603.369	19.12
603.563	19.02
603.757	19.06
603.951	19.11
604.145	19.03
604.339	19.06
604.533	19.03
604.727	19.05
604.921	18.93
605.115	18.91
605.309	18.8
605.502	18.79
605.696	18.67
605.89	18.76
606.084	18.75
606.278	18.76
606.471	18.71
606.665	18.68
606.859	18.64
607.053	18.52
607.246	18.48
607.44	18.37
607.634	18.35
607.827	18.21
608.021	18.26
608.214	18.23
608.408	18.18
608.602	18.12
608.795	18.08
608.989	17.95
609.182	17.89
609.376	17.86
609.569	17.89
609.763	17.87
609.956	17.92
610.15	17.8
610.343	17.76
610.537	17.62
610.73	17.42
610.923	17.33
611.117	17.28
611.31	17.18
611.504	17.17
611.697	17.23
611.89	17.13
612.083	17.11
612.277	17.07
612.47	16.87
612.663	16.88
612.856	16.81
613.05	16.68
613.243	16.55
613.436	16.57
613.629	16.44
613.822	16.39
614.015	16.36
614.209	16.36
614.402	16.31
614.595	16.24
614.788	16.17
614.981	16.15
615.174	16.06
615.367	16
615.56	15.9
615.753	15.97
615.946	15.91
616.139	15.87
616.332	15.84
616.525	15.81
616.718	15.71
616.911	15.69
617.103	15.72
617.296	15.63
617.489	15.57
617.682	15.52
617.875	15.47
618.067	15.43
618.26	15.36
618.453	15.41
618.646	15.36
618.838	15.28
619.031	15.23
619.224	15.28
619.417	15.2
619.609	15.19
619.802	15.19
619.994	15.12
620.187	15.05
620.38	14.95
620.572	14.92
620.765	14.88
620.957	14.88
621.15	14.83
621.342	14.91
621.535	14.86
621.727	14.86
621.92	14.82
622.112	14.78
622.305	14.73
622.497	14.67
622.69	14.62
622.882	14.64
623.074	14.74
623.267	14.68
623.459	14.62
623.651	14.56
623.844	14.53
624.036	14.5
624.228	14.5
624.42	14.52
624.613	14.55
624.805	14.52
624.997	14.47
625.189	14.48
625.381	14.48
625.574	14.45
625.766	14.38
625.958	14.4
626.15	14.35
626.342	14.32
626.534	14.26
626.726	14.26
626.918	14.17
627.11	14.15
627.302	14.17
627.494	14.17
627.686	14.13
627.878	14.11
628.07	14.12
628.262	14.11
628.454	14.02
628.646	13.99
628.838	14.02
629.029	13.92
629.221	13.81
629.413	13.85
629.605	13.8
629.797	13.68
629.989	13.66
630.18	13.74
630.372	13.72
630.564	13.76
630.755	13.78
630.947	13.77
631.139	13.68
631.33	13.66
631.522	13.61
631.714	13.54
631.905	13.57
632.097	13.5
632.289	13.44
632.48	13.42
632.672	13.46
632.863	13.36
633.055	13.38
633.246	13.51
633.438	13.53
633.629	13.52
633.821	13.54
634.012	13.54
634.203	13.39
634.395	13.28
634.586	13.3
634.777	13.25
634.969	13.24
635.16	13.18
635.351	13.17
635.543	13.06
635.734	12.95
635.925	12.95
636.117	13.01
636.308	13.08
636.499	13.1
636.69	13.15
636.881	13.05
637.073	13.05
637.264	13.04
637.455	13.01
637.646	13.08
637.837	13.13
638.028	13.05
638.219	13
638.41	13.03
638.601	12.96
638.792	12.9
638.983	12.9
639.174	12.8
639.365	12.8
639.556	12.66
639.747	12.65
639.938	12.72
640.129	12.75
640.32	12.53
640.511	12.63
640.701	12.65
640.892	12.55
641.083	12.48
641.274	12.59
641.465	12.55
641.655	12.55
641.846	12.57
642.037	12.52
642.228	12.39
642.418	12.37
642.609	12.36
642.8	12.27
642.99	12.31
643.181	12.39
643.372	12.34
643.562	12.31
643.753	12.24
643.943	12.16
644.134	12
644.324	12.03
644.515	11.97
644.705	11.99
644.896	12.08
645.086	12.22
645.277	12.19
645.467	12.18
645.658	12.14
645.848	12.05
646.038	12.08
646.229	12.11
646.419	12.05
646.61	12.14
646.8	12.15
646.99	12.06
647.18	11.9
647.371	11.91
647.561	11.81
647.751	11.73
647.941	11.77
648.132	11.79
648.322	11.77
648.512	11.85
648.702	11.91
648.892	11.89
649.082	11.97
649.272	11.92
649.462	11.79
649.653	11.75
649.843	11.63
650.033	11.61
650.223	11.61
650.413	11.61
650.603	11.58
650.793	11.64
650.983	11.62
651.172	11.56
651.362	11.49
651.552	11.46
651.742	11.37
651.932	11.32
652.122	11.35
652.312	11.37
652.502	11.28
652.691	11.26
652.881	11.16
653.071	11.03
653.261	10.97
653.45	11.05
653.64	10.99
653.83	10.97
654.019	10.87
654.209	10.88
654.399	10.68
654.588	10.59
654.778	10.53
654.968	10.56
655.157	10.47
655.347	10.44
655.536	10.37
655.726	10.17
655.915	10.08
656.105	9.97
656.294	9.88
656.484	9.77
656.673	9.76
656.863	9.77
657.052	9.68
657.241	9.55
657.431	9.47
657.62	9.44
657.809	9.16
657.999	9.03
658.188	8.96
658.377	8.9
658.567	8.74
658.756	8.76
658.945	8.73
659.134	8.61
659.324	8.53
659.513	8.48
659.702	8.29
659.891	8.17
660.08	8.13
660.269	8
660.458	7.9
660.648	7.79
660.837	7.63
661.026	7.49
661.215	7.48
661.404	7.33
661.593	7.37
661.782	7.3
661.971	7.1
662.16	7
662.349	6.92
662.538	6.8
662.726	6.73
662.915	6.85
663.104	6.66
663.293	6.71
663.482	6.59
663.671	6.57
663.86	6.45
664.048	6.61
664.237	6.52
664.426	6.54
664.615	6.53
664.803	6.48
664.992	6.21
665.181	6.2
665.369	6.11
665.558	6.02
665.747	6.09
665.935	6.23
666.124	6.21
666.312	6.22
666.501	6.3
666.69	6.28
666.878	6.25
667.067	6.24
667.255	6.21
667.444	6.16
667.632	6.2
667.82	6.19
668.009	6.2
668.197	6.27
668.386	6.21
668.574	6.24
668.762	6.22
668.951	6.24
669.139	6.18
669.327	6.29
669.516	6.01
669.704	6.1
669.892	6.07
670.08	6.04
670.269	5.99
670.457	6.19
670.645	6.04
670.833	6.04
671.021	6.14
671.21	6.11
671.398	6.05
671.586	6.13
671.774	6.27
671.962	6.34
672.15	6.5
672.338	6.58
672.526	6.65
672.714	6.58
672.902	6.53
673.09	6.47
673.278	6.64
673.466	6.68
673.654	6.74
673.842	6.86
674.03	6.94
674.218	6.91
674.405	6.95
674.593	7.07
674.781	7.09
674.969	7.22
675.157	7.31
675.344	7.3
675.532	7.15
675.72	7.09
675.908	6.95
676.095	6.85
676.283	7.01
676.471	7.14
676.658	7.2
676.846	7.28
677.033	7.28
677.221	7.24
677.409	7.27
677.596	7.37
677.784	7.48
677.971	7.55
678.159	7.64
678.346	7.6
678.534	7.74
678.721	7.7
678.909	7.87
679.096	7.85
679.283	7.9
679.471	7.86
679.658	7.98
679.846	7.97
680.033	8.23
680.22	8.56
680.408	8.55
680.595	8.6
680.782	8.67
680.969	8.7
681.157	8.6
681.344	8.65
681.531	8.81
681.718	8.97
681.905	8.97
682.093	9.16
682.28	9.46
682.467	9.49
682.654	9.51
682.841	9.7
683.028	9.68
683.215	9.83
683.402	9.76
683.589	9.82
683.776	9.78
683.963	9.99
684.15	10.09
684.337	10.36
684.524	10.56
684.711	10.81
684.898	10.72
685.085	10.86
685.271	11.03
685.458	11.11
685.645	11.26
685.832	11.56
686.019	11.61
686.205	11.85
686.392	12.17
686.579	12.26
686.766	12.52
686.952	12.72
687.139	12.83
687.326	13.09
687.512	13.26
687.699	13.52
687.886	13.79
688.072	14.06
688.259	14.3
688.445	14.73
688.632	14.86
688.818	15.26
689.005	15.66
689.191	16.05
689.378	16.3
689.564	16.8
689.751	17.18
689.937	17.63
690.124	17.88
690.31	18.21
690.496	18.75
690.683	19.25
690.869	19.56
691.055	20.04
691.242	20.59
691.428	20.96
691.614	21.55
691.8	22.14
691.987	22.86
692.173	23.57
692.359	24.33
692.545	24.89
692.731	25.48
692.918	25.76
693.104	26.19
693.29	26.55
693.476	27.02
693.662	27.47
693.848	28.13
694.034	28.86
694.22	29.66
694.406	30.32
694.592	31.08
694.778	31.72
694.964	32.32
695.15	32.78
695.336	33.25
695.522	33.95
695.708	34.93
695.894	35.76
696.08	36.46
696.265	37.26
696.451	37.81
696.637	38.41
696.823	38.87
697.009	39.54
697.194	40.16
697.38	40.93
697.566	41.38
697.751	42.17
697.937	42.98
698.123	43.75
698.308	44.25
698.494	45.11
698.68	45.83
698.865	46.28
699.051	46.88
699.236	47.44
699.422	47.85
699.607	48.32
699.793	49.13
699.978	49.64
700.164	50.35
700.349	51.24
700.535	51.87
700.72	52.37
700.906	52.99
701.091	53.73
701.276	54.04
701.462	54.55
701.647	55.24
701.832	56.09
702.018	56.78
702.203	57.32
702.388	57.97
702.573	58.64
702.759	58.88
702.944	59.09
703.129	59.52
703.314	59.87
703.499	59.99
703.684	60.4
703.87	61.08
704.055	61.69
704.24	62.25
704.425	62.99
704.61	63.67
704.795	64.11
704.98	64.3
705.165	64.61
705.35	64.56
705.535	64.84
705.72	65.06
705.905	65.99
706.09	66.69
706.275	67.35
706.459	67.68
706.644	68.06
706.829	68.3
707.014	68.81
707.199	69.08
707.384	69.74
707.568	70.3
707.753	70.82
707.938	70.82
708.123	71.49
708.307	71.72
708.492	72.39
708.677	72.61
708.861	72.84
709.046	72.9
709.231	72.96
709.415	73.23
709.6	73.7
709.784	74.16
709.969	74.64
710.153	74.93
710.338	75.01
710.522	75.21
710.707	75.45
710.891	75.42
711.076	75.92
711.26	76.02
711.445	76.22
711.629	76.46
711.813	77.29
711.998	77.62
712.182	77.86
712.366	78.5
712.551	79.09
712.735	78.83
712.919	79.26
713.103	79.78
713.288	79.21
713.472	79.14
713.656	79.55
713.84	79.47
714.024	79.73
714.208	80.13
714.393	80.61
714.577	80.76
714.761	81.14
714.945	81.14
715.129	81.57
715.313	81.49
715.497	81.52
715.681	81.21
715.865	81.84
716.049	81.73
716.233	81.98
716.417	82.17
716.601	82.8
716.785	82.36
716.968	82.73
717.152	83.02
717.336	83.3
717.52	83.61
717.704	84.21
717.888	84.76
718.071	84.64
718.255	85.37
718.439	85.49
718.622	85.73
718.806	85.1
718.99	84.78
719.174	84.62
719.357	84.66
719.541	84.8
719.724	85.24
719.908	85.83
720.092	85.6
720.275	85.64
720.459	85.37
720.642	85.64
720.826	85.76
721.009	85.83
721.193	85.51
721.376	85.51
721.559	85.87
721.743	86.23
721.926	86.48
722.11	87.07
722.293	87.94
722.476	87.45
722.66	87.62
722.843	87.86
723.026	88.34
723.21	87.99
723.393	88.91
723.576	88.71
723.759	88.82
723.942	88.86
724.126	88.79
724.309	88.38
724.492	88.98
724.675	88.67
724.858	88.69
725.041	89.01
725.224	89.77
725.407	89.61
725.59	90
725.774	89.73
725.957	90.16
726.14	89.15
726.322	89.17
726.505	89.6
726.688	90
726.871	89.79
727.054	90.72
727.237	90.55
727.42	90.18
727.603	90.14
727.786	90.28
727.968	89.77
728.151	90.03
728.334	90.59
728.517	90.57
728.699	90.28
728.882	90.61
729.065	90.5
729.248	90.4
729.43	90.61
729.613	90.84
729.796	91.37
729.978	91.89
730.161	92.09
730.343	92.04
730.526	92.22
730.708	91.79
730.891	91.85
731.073	91.74
731.256	92.25
731.438	92.62
731.621	92.54
731.803	92.55
731.986	92.81
732.168	93.09
732.35	93.26
732.533	93.78
732.715	94.2
732.898	94.06
733.08	93.62
733.262	93.28
733.444	93.27
733.627	93.19
733.809	93.73
733.991	94.26
734.173	94.41
734.355	94.25
734.538	93.62
734.72	93.09
734.902	93.71
735.084	94.07
735.266	95.42
735.448	96.14
735.63	96.67
735.812	95.7
735.994	95.27
736.176	94.37
736.358	94.92
736.54	95.3
736.722	95.22
736.904	95.8
737.086	95.41
737.268	95.7
737.45	95.74
737.632	95.99
737.814	95.75
737.995	96.1
738.177	95.52
738.359	94.95
738.541	94.9
738.723	94.39
738.904	94.33
739.086	94.7
739.268	94.37
739.449	94.15
739.631	94.79
739.813	94.94
739.994	94.24
740.176	95.26
740.358	96.19
740.539	95.59
740.721	95.57
740.902	95.58
741.084	95.8
741.265	95.68
741.447	96.52
741.628	97.18
741.81	97.84
741.991	97.53
742.172	96.55
742.354	96.55
742.535	96.26
742.717	95.63
742.898	96.07
743.079	97.63
743.261	96.83
743.442	95.41
743.623	96.03
743.804	95.68
743.986	95.08
744.167	94.78
744.348	94.95
744.529	94.37
744.71	94.28
744.891	93.76
745.073	94.69
745.254	95.57
745.435	95.94
745.616	95.67
745.797	95.39
745.978	95.95
746.159	95.87
746.34	96.73
746.521	97.53
746.702	98.78
746.883	98.09
747.064	98.89
747.245	98.21
747.426	97.32
747.606	97.24
747.787	97.83
747.968	96.75
748.149	96.27
748.33	94.92
748.51	93.14
748.691	92.71
748.872	94.11
749.053	93.33
749.233	94.16
749.414	96.44
749.595	96.17
749.775	94.58
749.956	94.72
750.137	95.12
750.317	93.72
750.498	94.11
750.678	94.21
750.859	96.56
751.04	96.49
751.22	96.23
751.4	96.39
751.581	97.03
751.761	95.82
751.942	95.9
752.122	95.19
752.303	94.02
752.483	93.98
752.663	94.59
752.844	95.16
753.024	97.29
753.204	98.88
753.385	99.1
753.565	97.48
753.745	96.5
753.925	94.52
754.106	94.4
754.286	94.26
754.466	95.42
754.646	95.54
754.826	97.42
755.006	95.42
755.187	96.2
755.367	95.68
755.547	96.08
755.727	95.29
755.907	96
756.087	94.78
756.267	94.16
756.447	94.61
756.627	94.87
756.807	96.25
756.987	95.88
757.167	95.64
757.346	94.67
757.526	94.21
757.706	93.36
757.886	93.17
758.066	94
758.246	93.79
758.425	93.79
758.605	91.91
758.785	93.08
758.965	93.53
759.144	92.07
759.324	92.11
759.504	93.76
759.683	92.95
759.863	93.12
760.043	94.36
760.222	94.54
760.402	94.07
760.581	94.01
760.761	93.34
760.94	93.98
761.12	93.15
761.299	94.3
761.479	94.76
761.658	94.28
761.838	94.22
762.017	95.26
762.197	93.29
762.376	92.97
762.555	93.46
762.735	93.69
762.914	92.82
763.093	93.87
763.273	93.71
763.452	93.38
763.631	92.37
763.81	93.62
763.99	93.34
764.169	94.02
764.348	93.9
764.527	95.21
764.706	94.18
764.885	95.9
765.064	95.12
765.243	94.73
765.423	94.79
765.602	95.63
765.781	91.97
765.96	92.38
766.139	90.88
766.318	91.68
766.497	90.33
766.676	92.2
766.854	92.19
767.033	95.42
767.212	93.31
767.391	94.27
767.57	94.96
767.749	94.57
767.928	93.36
768.106	93.54
768.285	92.41
768.464	92.4
768.643	90.77
768.821	90.38
769	89.88
769.179	90.16
769.357	90.65
769.536	90.92
769.715	89.43
769.893	90.24
770.072	88.47
770.25	86.7
770.429	87.49
770.607	88.09
770.786	87.08
770.964	88.68
771.143	89.71
771.321	87.07
771.5	88.24
771.678	89.73
771.857	88.3
772.035	90.05
772.213	91.97
772.392	89.62
772.57	88.86
772.748	89.07
772.927	86.28
773.105	88.26
773.283	88.55
773.461	89.19
773.64	89.3
773.818	88.54
773.996	87.65
774.174	89.63
774.352	87.42
774.531	88.47
774.709	90.23
774.887	88.1
775.065	88.7
775.243	88.56
775.421	88.39
775.599	87.99
775.777	88.37
775.955	85.65
776.133	86.38
776.311	86.11
776.489	84.17
776.667	85.76
776.844	89.08
777.022	89.17
777.2	88.75
777.378	89.73
777.556	89.94
777.734	88.52
777.911	88.87
778.089	91.57
778.267	92.2
778.445	92.5
778.622	91.31
778.8	89.78
778.978	86.01
779.155	86.72
779.333	86.39
779.511	85.37
779.688	86.76
779.866	87.58
780.043	86.49
780.221	86.32
780.398	86.7
780.576	86.1
780.753	84.36
780.931	83.29
781.108	84.77
781.286	86.68
781.463	85.89
781.64	89.01
781.818	90.31
781.995	89.96
782.172	88.14
782.35	89.75
782.527	88.18
782.704	88.03
782.882	82.88
783.059	83.45
783.236	83.5
783.413	83.39
783.59	82.96
783.768	85.85
783.945	84.6
784.122	84.5
784.299	84.15
784.476	83.68
784.653	81.44
784.83	82.17
785.007	81.06
785.184	81.25
785.361	82.18
785.538	82.56
785.715	81.71
785.892	80.8
786.069	82.41
786.246	82.42
786.423	83.57
786.6	86.28
786.776	87.61
786.953	86.48
787.13	86.41
787.307	85.64
787.484	82.28
787.66	82.23
787.837	79.42
788.014	77.86
788.191	76.66
788.367	74.77
788.544	73.99
788.721	75.91
788.897	78.29
789.074	78.44
789.25	81.4
789.427	80.04
789.603	77.44
789.78	76.21
789.956	75.11
790.133	74.63
790.309	75.07
790.486	76.94
790.662	75.34
790.839	78.4
791.015	77.53
791.192	77
791.368	74.35
791.544	76.36
791.721	76.2
791.897	75.96
792.073	72.32
792.249	76.98
792.426	76.13
792.602	76.88
792.778	79.34
792.954	84.46
793.13	80.78
793.307	80.5
793.483	77.44
793.659	75.18
793.835	76.19
794.011	77.91
794.187	77.17
794.363	76.18
794.539	79.24
794.715	78
794.891	77.77
795.067	75.61
795.243	76.15
795.419	72.9
795.595	72.73
795.771	69.88
795.947	67.95
796.122	63.47
796.298	65.99
796.474	69.54
796.65	75.97
796.826	78.56
797.001	85.74
797.177	78.04
797.353	72.08
797.529	68.54
797.704	67.16
797.88	62.02
798.056	67.21
798.231	64.04
798.407	66.62
798.582	66.59
798.758	67.26
798.934	68.5
799.109	72.21
799.285	66.2
799.46	69.05
799.636	74.08
799.811	74.64
799.986	74.45
800.162	71.09
800.337	71.76
800.513	65.58
800.688	59.03
800.863	65.19
801.039	75.18
801.214	75.02
801.389	76.01
801.565	79.08
801.74	72.92
801.915	71.77
802.09	67.39
802.265	68.71
802.441	69.22
802.616	68.31
802.791	64.66
802.966	65.43
803.141	66.49
803.316	66.27
803.491	69.36
803.666	70.83
803.841	70.6
804.016	67.45
804.191	66.35
804.366	61.87
804.541	62.97
804.716	63.6
804.891	67.33
805.066	71.92
805.241	75.51
805.416	78.73
805.591	81.9
805.765	88.88
805.94	88.56
806.115	88.26
806.29	81.25
806.464	79.26
806.639	74.38
806.814	69.5
806.989	70.47
807.163	73.58
807.338	68.62
807.512	67.41
807.687	66.33
807.862	62.71
808.036	61.68
808.211	65.11
808.385	68.59
808.56	69.71
808.734	67.32
808.909	66.66
809.083	70.64
809.258	74.29
809.432	75.74
809.606	77.12
809.781	75.37
809.955	75.18
810.13	60.29
810.304	61.25
810.478	61.73
810.652	58.37
810.827	62.06
811.001	67.03
811.175	65.9
811.349	72.04
811.524	80.28
811.698	72.84
811.872	75.87
812.046	71.7
812.22	68.75
812.394	60.89
812.568	60.35
812.742	61.16
812.916	72.59
813.09	71.71
813.264	74.49
813.438	79.96
813.612	76.6
813.786	61.93
813.96	61.31
814.134	55.64
814.308	49.18
814.482	49.21
814.656	56.91
814.83	60.33
815.003	67.65
815.177	74.07
815.351	79.41
815.525	88.99
815.698	81.64
815.872	75.6
816.046	64.35
816.219	67.08
816.393	60.43
816.567	59.37
816.74	61.16
816.914	69.69
817.088	69.76
817.261	67.38
817.435	73.52
817.608	68.62
817.782	57.28
817.955	51.35
818.129	52.89
818.302	54.09
818.475	64.03
818.649	66.27
818.822	59.53
818.996	66.89
819.169	73.52
819.342	73.7
819.516	81.54
819.689	85.53
819.862	78.54
820.035	77.86
820.209	70.13
820.382	55.81
820.555	53.32
820.728	44.73
820.901	27.62
821.075	27.75
821.248	46.78
821.421	34.08
821.594	47.94
821.767	54.65
821.94	42.97
822.113	41.35
822.286	52.29
822.459	58.72
822.632	59.77
822.805	71.37
822.978	69.48
823.151	59.18
823.324	38.18
823.496	24.52
823.669	34.97
823.842	35.97
824.015	44.03
824.188	34.25
824.361	55.97
824.533	38.81
824.706	38.72
824.879	47.14
825.051	67.48
825.224	59.43
825.397	58.41
825.569	58.74
825.742	57.24
825.915	57.35
826.087	49.79
826.26	49.11
826.432	51.71
826.605	44.4
826.777	44.06
826.95	45.36
827.122	39.16
827.295	37.04
827.467	56.17
827.64	52.69
827.812	64.14
827.984	100.46
828.157	73.91
828.329	58.24
828.501	36.02
828.674	39.46
828.846	24.28
829.018	36.84
829.19	28.96
829.363	46.6
829.535	53.01
829.707	47.75
829.879	33.08
830.051	44.42
830.223	52.54
830.395	38.49
830.568	44.38
830.74	44.52
830.912	55.4
831.084	41.88
831.256	39.27
831.428	38.04
831.6	33.7
831.772	11.94
831.943	17.97
832.115	38.39
832.287	54.6
832.459	55.2
832.631	60.27
832.803	61.59
832.975	51.11
833.146	34.24
833.318	39.5
833.49	33.79
833.662	38.24
833.833	40.57
834.005	38.19
834.177	43.41
834.348	44.19
834.52	34.72
834.692	25.76
834.863	39.73
835.035	30.01
835.206	33.06
835.378	38.39
835.549	47.56
835.721	42.41
835.892	43.37
836.064	41.16
836.235	34.2
836.407	35.41
836.578	29.78
836.749	24.95
836.921	30.52
837.092	25.87
837.264	22.84
837.435	20.15
837.606	33.48
837.777	37.79
837.949	51.95
838.12	49.35
838.291	49.48
838.462	52.48
838.633	46.5
838.805	19.2
838.976	26.22
839.147	36.39
839.318	33.87
839.489	36.86
839.66	61.59
839.831	54.42
840.002	48.16
840.173	37.2
840.344	30.33
840.515	14.65
840.686	16.17
840.857	10.85
841.028	25.88
841.199	31.22
841.369	41.99
841.54	24.51
841.711	65.29
841.882	76.93
842.053	39.19
842.223	12.75
842.394	28.13
842.565	6.73
842.736	-9.97
842.906	-1.27
843.077	17.68
843.248	39.99
843.418	42.72
843.589	46.02
843.759	64.84
843.93	77.51
844.101	63.76
844.271	81.28
844.442	88.43
844.612	62.64
844.783	58.84
844.953	65.03
845.123	40.46
845.294	27.7
845.464	28.53
845.635	-6.53
845.805	-22.98
845.975	21.78
846.146	11.76
846.316	0.91
846.486	26.99
846.656	26.2
846.827	28.09
846.997	50.54
847.167	63.29
847.337	56.9
847.507	50.35
847.677	56.04
847.848	51.94
848.018	44.46
848.188	48.47
848.358	46.37
848.528	47.65
848.698	35.55
848.868	49.44
849.038	32.24
849.208	51.04
849.378	53.84
849.548	43.2
849.718	8.71
849.887	4.52
850.057	-37.87
850.227	-43.57
850.397	-8.83
850.567	5.1
850.737	17.46
850.906	-9.43
851.076	-37.12
851.246	-9.54
851.415	-17.96
851.585	3.8
851.755	38.06
851.924	60.93
852.094	73.16
852.264	56.64
852.433	33.05
852.603	5.15
852.772	30.53
852.942	30.13
853.111	37.87
853.281	34.2
853.45	35.63
853.62	5.98
853.789	-24.33
853.959	2.28
854.128	22.94
854.297	40.43
854.467	46.02
854.636	50.84
854.805	41.51
854.975	29.68
855.144	13.64
855.313	34.18
855.482	17.89
855.652	12.7
855.821	2.98
855.99	33.22
856.159	9.28
856.328	55.32
856.497	46.75
856.667	44.33
856.836	38.35
857.005	35.85
857.174	23.49
857.343	-5.38
857.512	11.78
857.681	-23.93
857.85	-24.16
858.019	-64.85
858.188	-72.34
858.356	-33.03
858.525	11.11
858.694	48.92
858.863	41.71
859.032	58.72
859.201	56.07
859.369	54.03
859.538	34.62
859.707	22.48
859.876	43.29
860.044	66.66
860.213	67.95
860.382	79.94
860.55	69.5
860.719	55.33
860.888	37.31
861.056	9.49
861.225	-22.71
861.393	4.57
861.562	7.61
861.73	-2.2
861.899	0
862.067	-6.41
862.236	-15.86
862.404	-12.94
862.572	3.3
862.741	11.71
862.909	-4.74
863.078	-4.26
863.246	-17.84
863.414	0.47
863.582	10.81
863.751	17.1
863.919	26.05
864.087	20.17
864.255	-48.81
864.424	-97.23
864.592	-33.49
864.76	-33.13
864.928	0.31
865.096	37.98
865.264	46.5
865.432	46.86
865.6	62.13
865.768	26.97
865.936	28.39
866.104	38.99
866.272	18.87
866.44	-39.34
866.608	-10.48
866.776	-2.78
866.944	16.15
867.112	24.74
867.28	32.46
867.448	37.76
867.615	33.93
867.783	7.67
867.951	-1.4
868.119	-2.25
868.286	-18.9
868.454	-14.86
868.622	-21.28
868.789	8.36
868.957	28.85
869.125	34.28
869.292	22.61
869.46	35.55
869.627	6.73
869.795	-29.12
869.963	-2.55
870.13	-25.47
870.298	30.03
870.465	52.67
870.632	54.26
870.8	32.02
870.967	67.57
871.135	22.95
871.302	-4.24
871.469	3.91
871.637	-3.62
871.804	2.45
871.971	8.14
872.139	31.32
872.306	19.76
872.473	-23.1
872.64	-96.03
872.807	-136.68
872.975	-307.08
873.142	-84.31
873.309	-51.76
873.476	-6.05
873.643	15.08
873.81	14.2
873.977	-28.5
874.144	-3.59
874.311	-31.75
874.478	-52.98
874.645	-116.04
874.812	-7.09
874.979	1
875.146	-41.7
875.313	-0.45
875.48	62.85
875.647	21.71
875.813	-21.64
875.98	6.22
876.147	-18.11
876.314	8.24
876.481	39.19
876.647	59.47
876.814	35.32
876.981	27.04
877.147	-0.31
877.314	24.61
877.481	33.32
877.647	36.98
877.814	41.02
877.98	42.09
878.147	41.66
878.314	29.96
878.48	24.62
878.647	50.13
878.813	61.57
878.979	61.13
879.146	96.95
879.312	110.93
879.479	45.23
879.645	39.65
879.811	-6.89
879.978	-21.95
880.144	-37.49
880.31	-20.86
880.477	-21
880.643	-3.9
880.809	-55.53
880.975	-32.28
881.142	-78.28
881.308	476.45
881.474	737.47
881.64	-161.8
881.806	-155.84
881.972	-115.15
882.138	-5.06
882.304	5.57
882.47	-22.31
882.636	-36.66
882.802	-27.79
882.968	-104.74
883.134	-56.57
883.3	-46.05
883.466	-63.71
883.632	-11.39
883.798	-9.9
883.964	-37.86
884.129	-41.92
884.295	2.61
884.461	-102.45
884.627	-20.49
884.793	-45.84
884.958	15.49
885.124	2.43
885.29	16.52
885.455	48.22
885.621	78.78
885.787	5.14
885.952	-4.05
886.118	27.04
886.283	19.99
886.449	-4.42
886.614	-0.35
886.78	8.51
886.945	-1.41
887.111	-40.91
887.276	-49.77
887.442	-112.6
887.607	-52.22
887.773	-27.1
887.938	-14.48
888.103	4.81
888.269	31.64
888.434	7.64
888.599	-6.57
888.764	21.55
888.93	31.86
889.095	24
889.26	14.39
889.425	25.16
889.59	-31.83
889.756	-58.95
889.921	-58.31
890.086	0
890.251	31.17
890.416	33.17
890.581	30.94
890.746	65.56
890.911	47.26
891.076	19.08
891.241	12.46
891.406	3.69
891.571	-68.71
891.736	-244.34
891.901	-81.36
892.065	-67.22
892.23	-53.12
892.395	-44.78
892.56	-39.59
892.725	-41.1
892.889	-36.19
893.054	-53.56
893.219	-104.41
893.384	-136.35
893.548	-181.6
893.713	-224.06
893.878	-316.73
