Data from Ofra_PS_T2_1A_2HS17_Reflection_1.txt Node
Date: Wed Jul 21 18:01:22 EDT 2021
User: Adam
Spectrometer: FLMT01687
Trigger mode: 0
Integration Time (sec): 1.100000E0
Scans to average: 2
Electric dark correction enabled: true
Nonlinearity correction enabled: false
Boxcar width: 2
XAxis mode: Wavelengths
Number of Pixels in Spectrum: 3648
>>>>>Begin Spectral Data<<<<<
179.494	484.8
179.716	552
179.937	523.19
180.158	485.25
180.38	793.12
180.601	293.37
180.823	82.1
181.044	-34.12
181.265	44.12
181.486	47.45
181.708	107.39
181.929	734.69
182.15	-342.25
182.372	19.26
182.593	21.95
182.814	11.36
183.035	90.26
183.257	84.03
183.478	-0.64
183.699	16.61
183.92	28.3
184.141	-6.21
184.363	-71.34
184.584	-11.89
184.805	4.31
185.026	27.15
185.247	36.9
185.468	36.66
185.689	53.99
185.91	68.54
186.132	60.66
186.353	38.09
186.574	87.17
186.795	69.05
187.016	-4.23
187.237	-17.66
187.458	-26.87
187.679	-58.22
187.9	-35.5
188.121	-9.73
188.342	20.27
188.563	70.98
188.784	128.99
189.005	104.96
189.226	152.33
189.447	182.59
189.667	103.4
189.888	-147.78
190.109	-923.38
190.33	-509.03
190.551	-1226.55
190.772	-305.08
190.993	-272.79
191.214	-172.93
191.434	-118.45
191.655	-25.77
191.876	-28.24
192.097	-66.08
192.318	-104.51
192.538	-214.66
192.759	-138.2
192.98	-66.5
193.201	-13.89
193.421	-8.54
193.642	23.73
193.863	18.81
194.083	1.17
194.304	-13.41
194.525	-7.73
194.745	-22.75
194.966	-31.56
195.187	-14.53
195.407	-29.38
195.628	-81.54
195.848	-83.31
196.069	-96.73
196.29	-61.13
196.51	-52.06
196.731	-34.27
196.951	-63.58
197.172	-48.04
197.392	-72.35
197.613	-71.03
197.833	-102.32
198.054	-107.52
198.274	-68
198.495	-89.34
198.715	-54.27
198.936	-68.11
199.156	-28.02
199.377	-91.02
199.597	-71.61
199.817	-96.32
200.038	-41.63
200.258	-96.95
200.479	-49.06
200.699	-74.73
200.919	1.93
201.14	-5.2
201.36	0.69
201.58	40.27
201.801	68.34
202.021	41.39
202.241	27.07
202.461	19.09
202.682	-69.94
202.902	-159.97
203.122	-103.24
203.342	-60.72
203.563	-20.87
203.783	14.79
204.003	-7.86
204.223	1.28
204.443	33.59
204.663	-14.02
204.884	-16.91
205.104	50.19
205.324	61.89
205.544	45.62
205.764	78.11
205.984	72.62
206.204	49.24
206.424	39.69
206.644	1.87
206.864	15.05
207.084	-10.68
207.304	23.54
207.525	-120
207.745	-35.46
207.964	-6.3
208.184	-37.42
208.404	-97.47
208.624	-74.79
208.844	-66.63
209.064	-339.4
209.284	-355.96
209.504	-172.23
209.724	-61.11
209.944	-36.48
210.164	-0.88
210.384	9.22
210.604	7.12
210.823	-25.35
211.043	-38.77
211.263	-17.11
211.483	-6.73
211.703	-46.71
211.922	-14.57
212.142	26.3
212.362	22.31
212.582	-10.64
212.801	1.68
213.021	-15.61
213.241	-24.02
213.461	-40.83
213.68	-46.2
213.9	-6.56
214.12	9.52
214.339	-50.92
214.559	-47.13
214.779	9.56
214.998	-6.06
215.218	-51.98
215.438	-11.04
215.657	-23.84
215.877	-38.02
216.096	-5.07
216.316	25.07
216.535	-0.94
216.755	0.68
216.974	-46.15
217.194	-62.12
217.413	-105.15
217.633	-60.65
217.852	-108.25
218.072	-56.31
218.291	-40.94
218.511	16.16
218.73	-1.91
218.95	-6.68
219.169	-12.29
219.389	-36.07
219.608	-27.64
219.827	-22.11
220.047	0.44
220.266	13.99
220.485	11.05
220.705	14.45
220.924	-4.65
221.143	24.11
221.363	3.51
221.582	33.18
221.801	22.35
222.021	55.15
222.24	12.57
222.459	101.2
222.678	1.77
222.897	-18.04
223.117	-134.92
223.336	-72.63
223.555	-59.93
223.774	8.19
223.993	15.1
224.213	95.2
224.432	56.42
224.651	76.84
224.87	38.83
225.089	41.26
225.308	28.56
225.527	42.96
225.746	18.28
225.965	14
226.184	-7.36
226.404	17.27
226.623	-10.91
226.842	5.75
227.061	24.16
227.28	28.58
227.499	4.34
227.718	26.71
227.936	17.08
228.155	16.51
228.374	6.55
228.593	26.75
228.812	33.58
229.031	17.76
229.25	-18.52
229.469	7.82
229.688	-4.21
229.907	4.34
230.125	21.68
230.344	26.25
230.563	31.8
230.782	56.08
231.001	-4.18
231.22	5.6
231.438	37.36
231.657	19.37
231.876	-5.71
232.095	37.18
232.313	42.75
232.532	35.89
232.751	-8.06
232.969	-20.85
233.188	-69.12
233.407	-22.33
233.625	-15.62
233.844	1.58
234.063	8.82
234.281	25.39
234.5	16.54
234.719	23.08
234.937	30.07
235.156	31.98
235.374	28.54
235.593	4.72
235.811	-13.75
236.03	-22.32
236.249	-45.53
236.467	-53.38
236.686	4.71
236.904	14.43
237.123	-1.97
237.341	-4.39
237.559	3.61
237.778	-20.23
237.996	-32.53
238.215	2.86
238.433	20.79
238.652	39.48
238.87	11.7
239.088	20.3
239.307	19.19
239.525	11.56
239.743	-35.82
239.962	-8.79
240.18	-33.85
240.398	-81.24
240.617	-92.61
240.835	-51.95
241.053	-14.59
241.271	48.24
241.49	60.48
241.708	64.35
241.926	43.52
242.144	3.32
242.363	-73.14
242.581	-99.42
242.799	-48.15
243.017	-28.68
243.235	-35.92
243.453	-21.88
243.672	-17.94
243.89	-12.05
244.108	-11.14
244.326	5
244.544	15.5
244.762	17.47
244.98	13.68
245.198	6.64
245.416	-34.18
245.634	-33.77
245.852	-32.16
246.07	-41.11
246.288	-24.18
246.506	-14.08
246.724	25.5
246.942	7.15
247.16	37.78
247.378	40.92
247.596	56.29
247.814	39.02
248.032	33.81
248.25	30.65
248.468	26.82
248.685	41.78
248.903	54.92
249.121	54.31
249.339	23.58
249.557	8.77
249.775	-0.69
249.992	-62.46
250.21	-66.78
250.428	-44.07
250.646	-48.7
250.863	-52.68
251.081	-12.74
251.299	9.41
251.517	13.21
251.734	0.92
251.952	-16
252.17	-12.17
252.387	-3.82
252.605	-16.29
252.823	6.12
253.04	33.7
253.258	36.44
253.475	39.58
253.693	80.22
253.911	63.45
254.128	55.73
254.346	66.87
254.563	49.76
254.781	7.92
254.998	-23
255.216	-9.96
255.433	-10.67
255.651	6.43
255.868	51.63
256.086	76.56
256.303	43.94
256.521	39.84
256.738	23.58
256.956	5.1
257.173	-2.67
257.39	-4.53
257.608	-24.31
257.825	16.6
258.043	39.84
258.26	27.44
258.477	57.93
258.695	58.91
258.912	-5.53
259.129	-12.73
259.346	-31.57
259.564	-63.95
259.781	-71.25
259.998	18.56
260.216	44.53
260.433	75.1
260.65	54.91
260.867	65.65
261.084	35.91
261.302	13.88
261.519	-27.8
261.736	-37.16
261.953	-75.23
262.17	-42.89
262.387	-86.48
262.604	-109.14
262.822	-102.62
263.039	-61.91
263.256	-123.4
263.473	-55.08
263.69	-11.55
263.907	14.82
264.124	23.46
264.341	32.23
264.558	13.55
264.775	27.51
264.992	27.05
265.209	10.82
265.426	39.19
265.643	47.15
265.86	51.7
266.077	51.03
266.294	75.66
266.51	31.54
266.727	16.68
266.944	-14.77
267.161	-14.47
267.378	-34.52
267.595	-5.01
267.812	-18.75
268.028	-19.62
268.245	-11.38
268.462	-23.22
268.679	-23.73
268.896	26.27
269.112	33.19
269.329	36.8
269.546	46
269.763	29.77
269.979	9.42
270.196	8.69
270.413	-38.8
270.629	-50.04
270.846	-44.91
271.063	-35.68
271.279	-41.02
271.496	-14.97
271.712	15.32
271.929	22.57
272.146	16.77
272.362	22.36
272.579	25.46
272.795	33.21
273.012	28.59
273.228	24.68
273.445	-3.06
273.661	-1.45
273.878	-64.7
274.094	-53.91
274.311	-85.71
274.527	-21.21
274.744	-18.07
274.96	-10.15
275.177	14.03
275.393	40.14
275.609	45.65
275.826	57.81
276.042	61.68
276.259	44.34
276.475	45.71
276.691	40.31
276.908	9.07
277.124	21.93
277.34	27.82
277.557	22.68
277.773	23.23
277.989	32.73
278.205	26.17
278.422	41.21
278.638	36.94
278.854	45.57
279.07	53.84
279.286	48.97
279.503	15.63
279.719	16.38
279.935	-11.98
280.151	-19.58
280.367	-9.84
280.583	-32.88
280.799	-38.8
281.016	-59.57
281.232	-36.89
281.448	-36.79
281.664	9.11
281.88	-2.19
282.096	25.99
282.312	60.09
282.528	79.38
282.744	71.71
282.96	57.63
283.176	38.55
283.392	18.75
283.608	-2.33
283.824	-11.76
284.04	-7.39
284.256	-16.13
284.471	-22.07
284.687	-18.29
284.903	-4.74
285.119	27.83
285.335	13.89
285.551	29.84
285.767	20.63
285.982	21.07
286.198	-31.17
286.414	31.54
286.63	35.13
286.846	56.92
287.061	23.21
287.277	60.66
287.493	30.03
287.709	37.98
287.924	4.84
288.14	47.49
288.356	36
288.571	55.1
288.787	33.74
289.003	44.97
289.218	19.39
289.434	-23.11
289.65	-25.15
289.865	-23.23
290.081	2.75
290.296	3.44
290.512	39.17
290.727	11.7
290.943	15.73
291.159	-12.03
291.374	6.56
291.59	-28.41
291.805	-12.55
292.021	-12.31
292.236	1.55
292.451	0.47
292.667	11.9
292.882	20.55
293.098	17.83
293.313	-12.54
293.529	-14.7
293.744	-13.86
293.959	-23.79
294.175	-20.49
294.39	16.38
294.605	23.02
294.821	38.39
295.036	41.63
295.251	57.51
295.467	24.12
295.682	1.86
295.897	-39.36
296.112	-39.02
296.328	-48.06
296.543	-39.79
296.758	-9.61
296.973	38.89
297.188	59.97
297.404	32.52
297.619	24.53
297.834	3.79
298.049	-20.26
298.264	-62.83
298.479	-0.15
298.694	5.67
298.909	25.79
299.125	32.18
299.34	42.61
299.555	12.44
299.77	24.19
299.985	-20.15
300.2	-77.52
300.415	-89.67
300.63	-57.5
300.845	-57.24
301.06	-58.01
301.275	-19.22
301.49	4.2
301.704	-6.65
301.919	-28.32
302.134	-24.88
302.349	-29.63
302.564	-106.7
302.779	-143.4
302.994	-103.92
303.209	-76.48
303.423	-58.34
303.638	14.57
303.853	-6.94
304.068	-19.46
304.283	-18.19
304.497	-5.24
304.712	-16.79
304.927	5.83
305.142	3.72
305.356	12.08
305.571	2.91
305.786	-7.31
306	-40.34
306.215	-24.19
306.43	-47.34
306.644	-34.65
306.859	-19.34
307.074	11.12
307.288	-31.96
307.503	-21.19
307.717	-21.84
307.932	-11.18
308.147	-23.66
308.361	5.78
308.576	-8.92
308.79	-55.25
309.005	-46.68
309.219	-26.13
309.434	-18.21
309.648	-8.28
309.863	21.71
310.077	17.62
310.292	14.6
310.506	1.38
310.72	4.25
310.935	11.56
311.149	11.8
311.364	25.54
311.578	34.86
311.792	32.88
312.007	28.76
312.221	22.59
312.435	24.53
312.649	8.56
312.864	8.07
313.078	21.23
313.292	48.4
313.507	6.12
313.721	23.61
313.935	34.72
314.149	20.51
314.363	15.21
314.578	18.5
314.792	14.17
315.006	13.96
315.22	28.42
315.434	39.22
315.648	43.58
315.862	49.59
316.077	48.07
316.291	30.22
316.505	46.04
316.719	65.66
316.933	23.57
317.147	8.16
317.361	-29.61
317.575	-57.08
317.789	-85.79
318.003	-111.59
318.217	-66.63
318.431	21.93
318.645	45.18
318.859	33.87
319.073	52.03
319.287	31.63
319.5	-11.62
319.714	-61.06
319.928	-92.55
320.142	-114.55
320.356	-42.17
320.57	9.36
320.784	15.23
320.997	46.65
321.211	47.16
321.425	-37.06
321.639	-84.59
321.853	-13.58
322.066	-2.45
322.28	-4.76
322.494	1.27
322.707	26.87
322.921	9.95
323.135	1.26
323.349	21.72
323.562	12.68
323.776	2.58
323.989	7.1
324.203	9.51
324.417	-21.11
324.63	-17.97
324.844	-13.21
325.057	-10.89
325.271	1.36
325.485	27.66
325.698	39.24
325.912	50.45
326.125	23.74
326.339	27.85
326.552	12.11
326.766	16.03
326.979	20.13
327.193	60.06
327.406	51.07
327.619	43.54
327.833	46.18
328.046	25.48
328.26	-22.29
328.473	-14.84
328.686	-56.07
328.9	-46.56
329.113	-45.83
329.326	-66.06
329.54	-48.32
329.753	-29.46
329.966	-59.19
330.179	-23.39
330.393	8.78
330.606	11.77
330.819	20.9
331.032	36.7
331.246	39.37
331.459	62.18
331.672	49.76
331.885	48.93
332.098	28.89
332.311	23.97
332.525	-43.51
332.738	-23.15
332.951	-9.37
333.164	14.04
333.377	12.07
333.59	41.36
333.803	41.72
334.016	38.02
334.229	26.66
334.442	37.5
334.655	38.7
334.868	55.89
335.081	43.94
335.294	39.41
335.507	16.42
335.72	7.34
335.933	-16.56
336.146	-29.68
336.359	-35.02
336.572	-45.56
336.785	-67.62
336.997	-61.7
337.21	-27.1
337.423	-27.89
337.636	-13.36
337.849	5.51
338.062	15.86
338.274	28.74
338.487	25.53
338.7	8.05
338.913	-30.22
339.125	-68.8
339.338	-134.91
339.551	-104.9
339.763	-52.76
339.976	-16.43
340.189	3.4
340.402	7.78
340.614	-0.86
340.827	-7.51
341.039	-30.72
341.252	-24.73
341.465	-5.02
341.677	-5.87
341.89	-46.78
342.102	-2.78
342.315	-17.02
342.527	-53.82
342.74	-50.03
342.952	-6.82
343.165	-15.89
343.377	12.56
343.59	16.44
343.802	30.19
344.015	36.81
344.227	47.08
344.44	33.77
344.652	28.48
344.864	9.35
345.077	25.91
345.289	28.1
345.502	26.46
345.714	20.62
345.926	32.43
346.139	9.19
346.351	14.39
346.563	26.16
346.775	24.24
346.988	1.66
347.2	3.48
347.412	-52.64
347.624	-67.33
347.837	-60.18
348.049	-9.75
348.261	9.02
348.473	32.61
348.685	13.11
348.897	-4.54
349.11	-25.36
349.322	-65.95
349.534	-38.79
349.746	-32.63
349.958	-18.9
350.17	-17.59
350.382	16.45
350.594	2.43
350.806	8.09
351.018	14.37
351.23	5.85
351.442	-31.09
351.654	-49.78
351.866	-40.69
352.078	-33.84
352.29	-7.75
352.502	3.31
352.714	19.73
352.926	11.43
353.138	9.07
353.35	-1.7
353.561	3.04
353.773	-28.09
353.985	-8.15
354.197	-11.43
354.409	-6.16
354.621	-4.61
354.832	15.4
355.044	5.95
355.256	9.38
355.468	12.77
355.679	1.26
355.891	6.66
356.103	-5.2
356.314	-2.72
356.526	-0.18
356.738	-0.18
356.949	-10.05
357.161	0.36
357.373	-1.45
357.584	-13
357.796	-4.15
358.008	-5.98
358.219	19.2
358.431	9.17
358.642	16.42
358.854	25.93
359.065	11.87
359.277	-17.73
359.488	-13.74
359.7	-20.62
359.911	-45.41
360.123	-26.14
360.334	-43.49
360.546	-54.49
360.757	-74.86
360.969	-52.78
361.18	-42.07
361.391	-15.23
361.603	-27.49
361.814	2.57
362.025	-6.69
362.237	-10.91
362.448	-3.25
362.659	23.72
362.871	16.19
363.082	7.55
363.293	9.33
363.504	-17.54
363.716	-50.85
363.927	-54.46
364.138	-62.29
364.349	-69.53
364.56	-49.87
364.772	-42.66
364.983	-25.78
365.194	-20.11
365.405	-7.97
365.616	8.75
365.827	11.83
366.038	-7.83
366.25	-7.65
366.461	-41.05
366.672	-19.98
366.883	5.39
367.094	11.66
367.305	4.48
367.516	11.93
367.727	-22.31
367.938	-44.1
368.149	-45.97
368.36	-28.03
368.571	-22.09
368.781	-19.75
368.992	-32.78
369.203	-45.92
369.414	-76.93
369.625	-87.51
369.836	-75
370.047	-70.89
370.258	-56.99
370.468	-57.77
370.679	-55.06
370.89	-60.28
371.101	-38.76
371.312	-34.81
371.522	-9.34
371.733	-14.25
371.944	-9.78
372.155	-1.07
372.365	-13.46
372.576	-12.88
372.787	-5.4
372.997	-17.32
373.208	-35.23
373.419	-0.56
373.629	-35.78
373.84	-39.28
374.05	-38.16
374.261	-28.06
374.472	-47.34
374.682	7.93
374.893	6.23
375.103	33.43
375.314	30.29
375.524	15.46
375.735	7.68
375.945	10.72
376.156	-7.5
376.366	-3.32
376.577	16.67
376.787	1.51
376.997	7.17
377.208	0.23
377.418	-14.22
377.629	-15.73
377.839	-17.24
378.049	-11.41
378.26	9.39
378.47	17.7
378.68	6.34
378.89	14.11
379.101	12.35
379.311	-9.57
379.521	-27.52
379.732	-19.73
379.942	-31.24
380.152	-54.75
380.362	-35.05
380.572	-24.01
380.783	-10.6
380.993	7.64
381.203	22
381.413	29.67
381.623	31.17
381.833	24.85
382.043	6.16
382.253	2.19
382.463	-0.09
382.674	-13.36
382.884	-24.01
383.094	-17.97
383.304	-19.39
383.514	-13.38
383.724	-2.49
383.934	-7.05
384.144	-16.85
384.353	-23.03
384.563	-26.29
384.773	-19.58
384.983	-25.41
385.193	-8.91
385.403	-1.31
385.613	1.29
385.823	-7.78
386.033	6.16
386.242	-0.77
386.452	-1.14
386.662	-9.97
386.872	-0.34
387.082	-5.36
387.291	-8.84
387.501	-3.95
387.711	0.73
387.921	-9.87
388.13	-14.41
388.34	2.31
388.55	-5.97
388.759	-4.92
388.969	1.87
389.179	1.53
389.388	-5.92
389.598	1.2
389.807	-5.3
390.017	-8.44
390.227	-4.89
390.436	-6.47
390.646	-7.23
390.855	-1.23
391.065	-0.8
391.274	-3.12
391.484	-5.31
391.693	-2.83
391.903	-2.87
392.112	4.31
392.322	8.02
392.531	12.3
392.74	12.19
392.95	7.88
393.159	2.57
393.369	1.53
393.578	-0.7
393.787	-0.95
393.997	0.45
394.206	-0.06
394.415	0.43
394.625	0.57
394.834	-1.98
395.043	-0.76
395.252	1.07
395.462	1.82
395.671	2.87
395.88	3.95
396.089	4.45
396.298	2.69
396.508	3.11
396.717	3.02
396.926	3.3
397.135	3.22
397.344	3.82
397.553	3.47
397.762	4.8
397.971	4.77
398.181	4.76
398.39	4
398.599	4.38
398.808	4.13
399.017	4.6
399.226	5.87
399.435	7.47
399.644	6.72
399.853	5.6
400.062	5.17
400.27	4.11
400.479	3.31
400.688	3.08
400.897	3.42
401.106	3.7
401.315	3.67
401.524	3.78
401.733	4.24
401.941	4.78
402.15	4.83
402.359	4.76
402.568	4.94
402.777	5.31
402.985	4.97
403.194	4.75
403.403	4.81
403.612	4.51
403.82	4.11
404.029	4.02
404.238	3.91
404.446	4.1
404.655	3.99
404.864	3.93
405.072	3.75
405.281	4.03
405.489	3.76
405.698	3.82
405.906	3.87
406.115	3.9
406.324	3.82
406.532	3.96
406.741	4.21
406.949	4.12
407.158	4.19
407.366	4.17
407.574	4.09
407.783	3.98
407.991	3.96
408.2	4.11
408.408	4.11
408.617	4.05
408.825	3.91
409.033	3.94
409.242	3.97
409.45	3.93
409.658	3.86
409.867	3.98
410.075	3.89
410.283	3.66
410.491	3.64
410.7	3.6
410.908	3.64
411.116	3.96
411.324	4.04
411.533	3.94
411.741	4.25
411.949	4.2
412.157	3.87
412.365	3.9
412.573	4
412.781	3.96
412.99	3.82
413.198	4.01
413.406	3.93
413.614	3.96
413.822	3.77
414.03	3.78
414.238	3.55
414.446	3.65
414.654	3.35
414.862	3.45
415.07	3.51
415.278	3.68
415.486	3.45
415.694	3.71
415.902	3.51
416.109	3.29
416.317	3.24
416.525	3.17
416.733	3.05
416.941	3.25
417.149	3.3
417.357	3.3
417.564	3.58
417.772	3.9
417.98	3.81
418.188	3.82
418.395	3.89
418.603	4
418.811	3.57
419.019	3.47
419.226	3.82
419.434	3.76
419.642	3.39
419.849	3.5
420.057	3.5
420.265	3.34
420.472	3.23
420.68	3.35
420.887	3.29
421.095	3.46
421.302	3.32
421.51	3.46
421.717	3.53
421.925	3.68
422.132	3.36
422.34	3.16
422.547	3.16
422.755	2.98
422.962	2.91
423.17	2.97
423.377	3.15
423.585	3.09
423.792	3.12
423.999	3.2
424.207	3.24
424.414	3.47
424.621	3.45
424.829	3.4
425.036	3.4
425.243	3.49
425.451	3.24
425.658	3.05
425.865	3.24
426.072	3.14
426.28	3.34
426.487	3.35
426.694	3.56
426.901	3.4
427.108	3.42
427.315	3.23
427.523	3.51
427.73	3.47
427.937	3.4
428.144	3.27
428.351	3.16
428.558	3.17
428.765	3.15
428.972	3.09
429.179	3.26
429.386	3.47
429.593	3.11
429.8	2.98
430.007	3.28
430.214	3.35
430.421	3.22
430.628	3.18
430.835	3.08
431.042	3.01
431.249	2.97
431.456	2.93
431.662	3.06
431.869	3.26
432.076	3.21
432.283	3.22
432.49	3.22
432.697	3.19
432.903	2.98
433.11	3
433.317	3.05
433.524	3.27
433.73	3.28
433.937	3.5
434.144	3.5
434.35	3.34
434.557	3.17
434.764	3.11
434.97	3.04
435.177	3.18
435.384	3.22
435.59	3.26
435.797	3.45
436.003	3.47
436.21	3.35
436.416	3.5
436.623	3.46
436.829	3.42
437.036	3.58
437.242	3.55
437.449	3.42
437.655	3.43
437.862	3.41
438.068	3.31
438.275	3.39
438.481	3.63
438.687	3.64
438.894	3.55
439.1	3.47
439.307	3.58
439.513	3.41
439.719	3.35
439.926	3.48
440.132	3.59
440.338	3.39
440.544	3.5
440.751	3.49
440.957	3.53
441.163	3.38
441.369	3.42
441.575	3.15
441.782	3.18
441.988	2.99
442.194	3.06
442.4	3.08
442.606	3.39
442.812	3.54
443.018	3.8
443.224	3.73
443.431	3.76
443.637	3.49
443.843	3.33
444.049	3.18
444.255	3.15
444.461	3.23
444.667	3.2
444.873	3.34
445.079	3.29
445.284	3.46
445.49	3.21
445.696	3.2
445.902	3.12
446.108	3.11
446.314	3.02
446.52	3.18
446.726	3.34
446.931	3.29
447.137	3.35
447.343	3.36
447.549	3.3
447.755	3.16
447.96	3.29
448.166	3.24
448.372	3.18
448.578	3.27
448.783	3.3
448.989	3.27
449.195	3.5
449.4	3.52
449.606	3.43
449.812	3.34
450.017	3.34
450.223	3.16
450.428	3.14
450.634	3.3
450.84	3.52
451.045	3.47
451.251	3.43
451.456	3.72
451.662	3.71
451.867	3.66
452.073	3.6
452.278	3.74
452.483	3.74
452.689	3.6
452.894	3.57
453.1	3.69
453.305	3.56
453.51	3.36
453.716	3.32
453.921	3.32
454.127	3.19
454.332	3.04
454.537	2.98
454.742	3.04
454.948	3.07
455.153	3.15
455.358	3.36
455.563	3.56
455.769	3.73
455.974	3.59
456.179	3.48
456.384	3.46
456.589	3.35
456.795	3.07
457	3.14
457.205	3.31
457.41	3.21
457.615	3.17
457.82	3.28
458.025	3.32
458.23	3.18
458.435	3.27
458.64	3.18
458.845	3.26
459.05	3.27
459.255	3.34
459.46	3.32
459.665	3.37
459.87	3.4
460.075	3.37
460.28	3.47
460.485	3.62
460.69	3.67
460.895	3.4
461.099	3.3
461.304	3.41
461.509	3.33
461.714	3.26
461.919	3.51
462.123	3.49
462.328	3.42
462.533	3.3
462.738	3.37
462.942	3.26
463.147	3.34
463.352	3.33
463.556	3.41
463.761	3.46
463.966	3.47
464.17	3.52
464.375	3.41
464.58	3.39
464.784	3.32
464.989	3.23
465.193	3.2
465.398	3.22
465.602	3.3
465.807	3.3
466.011	3.36
466.216	3.44
466.42	3.4
466.625	3.36
466.829	3.49
467.034	3.56
467.238	3.67
467.443	3.72
467.647	3.67
467.851	3.65
468.056	3.69
468.26	3.58
468.464	3.61
468.669	3.78
468.873	3.9
469.077	3.89
469.282	3.92
469.486	3.97
469.69	3.91
469.894	3.76
470.099	3.76
470.303	3.82
470.507	3.74
470.711	3.58
470.915	3.54
471.119	3.46
471.324	3.34
471.528	3.37
471.732	3.57
471.936	3.59
472.14	3.69
472.344	3.76
472.548	3.8
472.752	3.92
472.956	4.15
473.16	4.17
473.364	4.06
473.568	4.05
473.772	3.95
473.976	3.78
474.18	3.74
474.384	3.84
474.588	3.86
474.792	3.78
474.995	3.86
475.199	3.92
475.403	3.97
475.607	3.98
475.811	3.96
476.015	3.99
476.218	4.05
476.422	4.01
476.626	4.08
476.83	4.18
477.033	4.18
477.237	4.02
477.441	4.05
477.644	4
477.848	3.97
478.052	3.9
478.255	3.97
478.459	4.02
478.663	4.11
478.866	4.16
479.07	4.19
479.273	4.34
479.477	4.36
479.681	4.38
479.884	4.3
480.088	4.3
480.291	4.22
480.495	4.21
480.698	4.14
480.901	4.22
481.105	4.31
481.308	4.25
481.512	4.2
481.715	4.31
481.919	4.25
482.122	4.23
482.325	4.27
482.529	4.27
482.732	4.27
482.935	4.3
483.138	4.28
483.342	4.36
483.545	4.46
483.748	4.42
483.952	4.49
484.155	4.61
484.358	4.6
484.561	4.6
484.764	4.57
484.967	4.6
485.171	4.58
485.374	4.55
485.577	4.56
485.78	4.61
485.983	4.6
486.186	4.5
486.389	4.46
486.592	4.41
486.795	4.47
486.998	4.4
487.201	4.5
487.404	4.6
487.607	4.68
487.81	4.61
488.013	4.73
488.216	4.68
488.419	4.61
488.622	4.51
488.825	4.53
489.028	4.47
489.231	4.46
489.433	4.42
489.636	4.4
489.839	4.36
490.042	4.28
490.245	4.27
490.447	4.33
490.65	4.35
490.853	4.37
491.056	4.43
491.258	4.46
491.461	4.45
491.664	4.58
491.866	4.52
492.069	4.59
492.272	4.55
492.474	4.6
492.677	4.59
492.879	4.67
493.082	4.71
493.285	4.84
493.487	4.79
493.69	4.75
493.892	4.69
494.095	4.64
494.297	4.61
494.5	4.66
494.702	4.68
494.905	4.68
495.107	4.68
495.309	4.66
495.512	4.7
495.714	4.78
495.917	4.87
496.119	4.87
496.321	4.89
496.524	4.93
496.726	4.86
496.928	4.84
497.13	4.87
497.333	4.82
497.535	4.84
497.737	4.84
497.939	4.88
498.142	4.9
498.344	4.93
498.546	4.79
498.748	4.81
498.95	4.89
499.152	4.83
499.355	4.92
499.557	5.04
499.759	5.17
499.961	5.09
500.163	5.2
500.365	5.21
500.567	5.26
500.769	5.14
500.971	5.17
501.173	5.1
501.375	5.12
501.577	4.99
501.779	5.02
501.981	5.04
502.183	5.04
502.385	4.99
502.587	5.01
502.788	5.1
502.99	5.11
503.192	5.15
503.394	5.17
503.596	5.26
503.798	5.27
503.999	5.31
504.201	5.3
504.403	5.37
504.605	5.34
504.806	5.28
505.008	5.3
505.21	5.41
505.411	5.4
505.613	5.45
505.815	5.51
506.016	5.57
506.218	5.58
506.42	5.56
506.621	5.59
506.823	5.62
507.024	5.51
507.226	5.55
507.427	5.56
507.629	5.59
507.83	5.62
508.032	5.73
508.233	5.79
508.435	5.92
508.636	5.97
508.838	5.94
509.039	5.92
509.24	5.91
509.442	5.89
509.643	5.81
509.845	5.89
510.046	5.97
510.247	5.95
510.448	5.9
510.65	5.97
510.851	6.04
511.052	6
511.254	6.02
511.455	6.13
511.656	6.17
511.857	6.25
512.058	6.24
512.26	6.25
512.461	6.21
512.662	6.24
512.863	6.05
513.064	6.12
513.265	6.12
513.466	6.2
513.667	6.21
513.868	6.31
514.069	6.36
514.27	6.44
514.471	6.39
514.672	6.34
514.873	6.29
515.074	6.27
515.275	6.16
515.476	6.13
515.677	6.22
515.878	6.39
516.079	6.37
516.28	6.45
516.481	6.61
516.682	6.59
516.882	6.47
517.083	6.5
517.284	6.46
517.485	6.35
517.686	6.35
517.886	6.4
518.087	6.47
518.288	6.55
518.488	6.56
518.689	6.59
518.89	6.54
519.091	6.53
519.291	6.54
519.492	6.63
519.692	6.67
519.893	6.78
520.094	6.76
520.294	6.77
520.495	6.75
520.695	6.74
520.896	6.74
521.096	6.78
521.297	6.8
521.497	6.82
521.698	6.8
521.898	6.76
522.099	6.78
522.299	6.88
522.499	6.84
522.7	6.87
522.9	6.88
523.101	6.91
523.301	6.87
523.501	6.92
523.702	7
523.902	7.06
524.102	7.12
524.302	7.07
524.503	7.14
524.703	7.12
524.903	7.11
525.103	7.06
525.304	7.18
525.504	7.23
525.704	7.24
525.904	7.25
526.104	7.24
526.304	7.23
526.504	7.2
526.705	7.2
526.905	7.3
527.105	7.3
527.305	7.26
527.505	7.17
527.705	7.16
527.905	7.11
528.105	7.16
528.305	7.16
528.505	7.26
528.705	7.41
528.905	7.4
529.105	7.41
529.304	7.46
529.504	7.53
529.704	7.47
529.904	7.54
530.104	7.55
530.304	7.64
530.503	7.58
530.703	7.51
530.903	7.47
531.103	7.55
531.303	7.46
531.502	7.47
531.702	7.58
531.902	7.64
532.101	7.54
532.301	7.6
532.501	7.64
532.7	7.64
532.9	7.67
533.1	7.76
533.299	7.79
533.499	7.83
533.698	7.81
533.898	7.81
534.097	7.81
534.297	7.81
534.496	7.84
534.696	7.88
534.895	7.94
535.095	8
535.294	8.05
535.494	8
535.693	8.03
535.892	8.06
536.092	8.01
536.291	7.96
536.491	8.07
536.69	8.15
536.889	8.02
537.088	8.04
537.288	8.13
537.487	8.16
537.686	8.13
537.886	8.26
538.085	8.29
538.284	8.41
538.483	8.4
538.682	8.51
538.882	8.52
539.081	8.64
539.28	8.53
539.479	8.6
539.678	8.55
539.877	8.6
540.076	8.56
540.275	8.61
540.474	8.67
540.673	8.73
540.872	8.76
541.071	8.84
541.27	8.92
541.469	8.96
541.668	9
541.867	8.99
542.066	9
542.265	9.05
542.464	9.07
542.663	9.07
542.862	9.23
543.06	9.34
543.259	9.37
543.458	9.41
543.657	9.47
543.856	9.48
544.054	9.4
544.253	9.39
544.452	9.38
544.651	9.47
544.849	9.44
545.048	9.51
545.247	9.6
545.445	9.7
545.644	9.68
545.843	9.72
546.041	9.77
546.24	9.83
546.438	9.87
546.637	9.91
546.836	10.09
547.034	10.17
547.233	10.18
547.431	10.18
547.63	10.23
547.828	10.16
548.027	10.2
548.225	10.22
548.423	10.29
548.622	10.34
548.82	10.42
549.019	10.47
549.217	10.59
549.415	10.66
549.614	10.73
549.812	10.73
550.01	10.79
550.209	10.83
550.407	10.9
550.605	10.92
550.803	11.08
551.002	11.13
551.2	11.19
551.398	11.32
551.596	11.44
551.794	11.48
551.993	11.53
552.191	11.58
552.389	11.64
552.587	11.7
552.785	11.79
552.983	11.89
553.181	12
553.379	12.05
553.577	12.09
553.775	12.09
553.973	12.14
554.171	12.2
554.369	12.19
554.567	12.19
554.765	12.23
554.963	12.35
555.161	12.33
555.359	12.44
555.557	12.68
555.755	12.79
555.952	12.87
556.15	13.02
556.348	13.12
556.546	13.13
556.744	13.21
556.941	13.29
557.139	13.34
557.337	13.44
557.535	13.48
557.732	13.62
557.93	13.73
558.128	13.9
558.325	14.03
558.523	14.14
558.721	14.23
558.918	14.24
559.116	14.32
559.313	14.24
559.511	14.39
559.708	14.44
559.906	14.53
560.104	14.59
560.301	14.77
560.498	14.76
560.696	14.85
560.893	14.98
561.091	15.07
561.288	15.19
561.486	15.37
561.683	15.44
561.88	15.49
562.078	15.6
562.275	15.62
562.473	15.67
562.67	15.79
562.867	15.91
563.064	15.95
563.262	15.98
563.459	16.02
563.656	16.1
563.853	16.13
564.051	16.23
564.248	16.37
564.445	16.49
564.642	16.52
564.839	16.7
565.036	16.82
565.234	17.03
565.431	17.12
565.628	17.24
565.825	17.28
566.022	17.41
566.219	17.37
566.416	17.42
566.613	17.53
566.81	17.61
567.007	17.56
567.204	17.66
567.401	17.71
567.598	17.72
567.795	17.72
567.991	17.82
568.188	17.91
568.385	18.03
568.582	18.15
568.779	18.29
568.976	18.38
569.172	18.53
569.369	18.5
569.566	18.56
569.763	18.53
569.96	18.51
570.156	18.5
570.353	18.52
570.55	18.55
570.746	18.56
570.943	18.62
571.14	18.57
571.336	18.66
571.533	18.64
571.729	18.7
571.926	18.79
572.123	18.98
572.319	19.04
572.516	19.05
572.712	19.15
572.909	19.1
573.105	19.15
573.302	19.1
573.498	19.27
573.695	19.21
573.891	19.25
574.087	19.18
574.284	19.2
574.48	19.07
574.677	19.19
574.873	19.27
575.069	19.32
575.266	19.44
575.462	19.43
575.658	19.42
575.854	19.52
576.051	19.51
576.247	19.48
576.443	19.6
576.639	19.5
576.835	19.4
577.032	19.33
577.228	19.45
577.424	19.4
577.62	19.43
577.816	19.44
578.012	19.4
578.208	19.26
578.404	19.27
578.6	19.34
578.796	19.3
578.993	19.33
579.189	19.25
579.384	19.14
579.58	19.03
579.776	19.1
579.972	19.12
580.168	19.16
580.364	19.27
580.56	19.3
580.756	19.18
580.952	19.12
581.148	19.11
581.343	19.11
581.539	19.09
581.735	19.17
581.931	19.2
582.127	19.16
582.322	19.08
582.518	19.1
582.714	18.95
582.909	18.97
583.105	18.96
583.301	18.92
583.496	18.86
583.692	18.88
583.888	18.76
584.083	18.73
584.279	18.77
584.474	18.72
584.67	18.64
584.866	18.65
585.061	18.59
585.257	18.62
585.452	18.67
585.648	18.71
585.843	18.78
586.039	18.81
586.234	18.71
586.429	18.63
586.625	18.72
586.82	18.61
587.015	18.5
587.211	18.46
587.406	18.47
587.601	18.38
587.797	18.44
587.992	18.57
588.187	18.63
588.383	18.63
588.578	18.58
588.773	18.52
588.968	18.49
589.163	18.56
589.359	18.52
589.554	18.53
589.749	18.49
589.944	18.54
590.139	18.47
590.334	18.56
590.529	18.61
590.724	18.7
590.919	18.74
591.114	18.71
591.309	18.65
591.504	18.71
591.699	18.62
591.894	18.62
592.089	18.64
592.284	18.67
592.479	18.71
592.674	18.79
592.869	18.83
593.064	18.9
593.259	19.07
593.454	19.1
593.648	19.2
593.843	19.21
594.038	19.21
594.233	19.19
594.428	19.15
594.622	19.07
594.817	19.2
595.012	19.3
595.206	19.3
595.401	19.39
595.596	19.52
595.79	19.61
595.985	19.69
596.18	19.83
596.374	19.9
596.569	19.92
596.763	19.86
596.958	19.89
597.153	19.93
597.347	19.94
597.542	20.08
597.736	20.06
597.931	20.08
598.125	20.15
598.319	20.36
598.514	20.36
598.708	20.47
598.903	20.56
599.097	20.6
599.291	20.51
599.486	20.52
599.68	20.56
599.874	20.69
600.069	20.7
600.263	20.74
600.457	20.85
600.651	20.86
600.846	20.79
601.04	20.86
601.234	20.86
601.428	20.89
601.622	20.93
601.817	20.93
602.011	20.98
602.205	21.06
602.399	21.13
602.593	21.17
602.787	21.27
602.981	21.22
603.175	21.28
603.369	21.17
603.563	21.19
603.757	21.2
603.951	21.17
604.145	21.09
604.339	21.22
604.533	21.04
604.727	20.97
604.921	20.92
605.115	20.95
605.309	20.89
605.502	20.96
605.696	20.91
605.89	20.92
606.084	20.91
606.278	20.79
606.471	20.71
606.665	20.64
606.859	20.51
607.053	20.4
607.246	20.35
607.44	20.42
607.634	20.34
607.827	20.36
608.021	20.27
608.214	20.24
608.408	20.11
608.602	20.06
608.795	20.11
608.989	20.04
609.182	19.96
609.376	19.89
609.569	19.85
609.763	19.64
609.956	19.58
610.15	19.43
610.343	19.35
610.537	19.29
610.73	19.26
610.923	19.24
611.117	19.27
611.31	19.24
611.504	19.15
611.697	19.02
611.89	18.84
612.083	18.86
612.277	18.76
612.47	18.66
612.663	18.69
612.856	18.62
613.05	18.43
613.243	18.42
613.436	18.32
613.629	18.21
613.822	18.15
614.015	18.1
614.209	17.97
614.402	18.06
614.595	17.97
614.788	17.96
614.981	17.81
615.174	17.76
615.367	17.62
615.56	17.44
615.753	17.41
615.946	17.38
616.139	17.38
616.332	17.35
616.525	17.48
616.718	17.48
616.911	17.49
617.103	17.45
617.296	17.38
617.489	17.27
617.682	17.09
617.875	17.05
618.067	16.92
618.26	16.81
618.453	16.85
618.646	16.89
618.838	16.84
619.031	16.96
619.224	16.98
619.417	16.9
619.609	16.83
619.802	16.81
619.994	16.67
620.187	16.66
620.38	16.64
620.572	16.63
620.765	16.6
620.957	16.54
621.15	16.5
621.342	16.41
621.535	16.4
621.727	16.4
621.92	16.44
622.112	16.38
622.305	16.48
622.497	16.41
622.69	16.37
622.882	16.33
623.074	16.3
623.267	16.18
623.459	16.17
623.651	16.09
623.844	16.1
624.036	16.15
624.228	16.07
624.42	16.05
624.613	16.14
624.805	16.07
624.997	16
625.189	16.01
625.381	16
625.574	15.87
625.766	15.75
625.958	15.71
626.15	15.75
626.342	15.67
626.534	15.7
626.726	15.71
626.918	15.76
627.11	15.67
627.302	15.75
627.494	15.65
627.686	15.7
627.878	15.61
628.07	15.61
628.262	15.57
628.454	15.58
628.646	15.54
628.838	15.55
629.029	15.42
629.221	15.38
629.413	15.26
629.605	15.16
629.797	15.16
629.989	15.26
630.18	15.25
630.372	15.25
630.564	15.24
630.755	15.15
630.947	15.18
631.139	14.96
631.33	14.9
631.522	15.02
631.714	14.97
631.905	14.85
632.097	14.96
632.289	15.04
632.48	14.86
632.672	14.76
632.863	14.65
633.055	14.58
633.246	14.57
633.438	14.5
633.629	14.6
633.821	14.65
634.012	14.65
634.203	14.54
634.395	14.61
634.586	14.61
634.777	14.55
634.969	14.59
635.16	14.62
635.351	14.62
635.543	14.55
635.734	14.6
635.925	14.55
636.117	14.6
636.308	14.55
636.499	14.56
636.69	14.51
636.881	14.35
637.073	14.38
637.264	14.29
637.455	14.24
637.646	14.31
637.837	14.49
638.028	14.36
638.219	14.42
638.41	14.38
638.601	14.29
638.792	14.18
638.983	14.19
639.174	14.16
639.365	14.17
639.556	14.12
639.747	14.13
639.938	14.21
640.129	14.16
640.32	14.04
640.511	14.1
640.701	14.16
640.892	14.06
641.083	14.17
641.274	14.35
641.465	14.32
641.655	14.16
641.846	14.14
642.037	13.99
642.228	13.89
642.418	13.89
642.609	13.93
642.8	13.91
642.99	13.88
643.181	13.92
643.372	14.03
643.562	14.02
643.753	13.96
643.943	13.92
644.134	13.75
644.324	13.53
644.515	13.45
644.705	13.53
644.896	13.61
645.086	13.65
645.277	13.68
645.467	13.8
645.658	13.68
645.848	13.57
646.038	13.58
646.229	13.51
646.419	13.39
646.61	13.44
646.8	13.47
646.99	13.41
647.18	13.39
647.371	13.34
647.561	13.25
647.751	13.26
647.941	13.25
648.132	13.29
648.322	13.24
648.512	13.33
648.702	13.31
648.892	13.29
649.082	13.26
649.272	13.11
649.462	12.95
649.653	12.83
649.843	12.71
650.033	12.67
650.223	12.74
650.413	12.74
650.603	12.73
650.793	12.75
650.983	12.66
651.172	12.64
651.362	12.65
651.552	12.59
651.742	12.6
651.932	12.63
652.122	12.7
652.312	12.72
652.502	12.77
652.691	12.67
652.881	12.61
653.071	12.44
653.261	12.22
653.45	12.04
653.64	12.19
653.83	12.04
654.019	11.96
654.209	11.99
654.399	11.87
654.588	11.58
654.778	11.52
654.968	11.47
655.157	11.32
655.347	11.29
655.536	11.3
655.726	11.23
655.915	11.11
656.105	11.01
656.294	10.9
656.484	10.71
656.673	10.64
656.863	10.66
657.052	10.49
657.241	10.37
657.431	10.21
657.62	10.04
657.809	9.71
657.999	9.67
658.188	9.48
658.377	9.33
658.567	9.23
658.756	9.1
658.945	8.98
659.134	8.85
659.324	8.74
659.513	8.61
659.702	8.47
659.891	8.33
660.08	8.28
660.269	8.34
660.458	8.17
660.648	8.17
660.837	8.06
661.026	8.06
661.215	7.81
661.404	7.72
661.593	7.7
661.782	7.47
661.971	7.36
662.16	7.27
662.349	7.12
662.538	6.85
662.726	6.95
662.915	6.75
663.104	6.61
663.293	6.62
663.482	6.7
663.671	6.49
663.86	6.46
664.048	6.43
664.237	6.42
664.426	6.23
664.615	6.26
664.803	6.16
664.992	6.06
665.181	5.87
665.369	5.84
665.558	5.76
665.747	5.69
665.935	5.73
666.124	5.8
666.312	5.82
666.501	5.79
666.69	5.72
666.878	5.61
667.067	5.47
667.255	5.48
667.444	5.67
667.632	5.75
667.82	5.9
668.009	5.85
668.197	5.74
668.386	5.55
668.574	5.63
668.762	5.52
668.951	5.46
669.139	5.42
669.327	5.38
669.516	5.38
669.704	5.25
669.892	5.49
670.08	5.5
670.269	5.29
670.457	5.15
670.645	5.1
670.833	5.06
671.021	5.06
671.21	5.24
671.398	5.44
671.586	5.59
671.774	5.45
671.962	5.5
672.15	5.5
672.338	5.36
672.526	5.4
672.714	5.39
672.902	5.45
673.09	5.69
673.278	5.9
673.466	5.94
673.654	6.17
673.842	6.12
674.03	6.04
674.218	5.89
674.405	5.79
674.593	5.59
674.781	5.72
674.969	5.69
675.157	5.91
675.344	6.07
675.532	6.2
675.72	6.25
675.908	6.32
676.095	6.17
676.283	6.29
676.471	6.52
676.658	6.51
676.846	6.47
677.033	6.62
677.221	6.54
677.409	6.36
677.596	6.53
677.784	6.61
677.971	6.61
678.159	6.69
678.346	6.9
678.534	6.79
678.721	7.03
678.909	7.11
679.096	7.2
679.283	7.3
679.471	7.54
679.658	7.57
679.846	7.71
680.033	8.02
680.22	8.06
680.408	8.04
680.595	8.06
680.782	7.98
680.969	7.92
681.157	7.96
681.344	7.97
681.531	7.96
681.718	8.04
681.905	8.16
682.093	8.39
682.28	8.74
682.467	9.1
682.654	9.34
682.841	9.42
683.028	9.49
683.215	9.6
683.402	9.45
683.589	9.6
683.776	9.8
683.963	9.81
684.15	9.85
684.337	10.12
684.524	10.19
684.711	10.41
684.898	10.5
685.085	10.73
685.271	11.07
685.458	11.3
685.645	11.41
685.832	11.76
686.019	12.12
686.205	12.13
686.392	12.45
686.579	12.68
686.766	13.14
686.952	13.2
687.139	13.83
687.326	13.89
687.512	14.14
687.699	14.31
687.886	14.62
688.072	14.54
688.259	15
688.445	15.46
688.632	15.57
688.818	16.22
689.005	16.72
689.191	17.05
689.378	17.56
689.564	18.15
689.751	18.26
689.937	18.65
690.124	19.21
690.31	19.36
690.496	19.76
690.683	20.32
690.869	20.74
691.055	21.15
691.242	21.9
691.428	22.54
691.614	23.01
691.8	23.69
691.987	24.23
692.173	24.69
692.359	25.23
692.545	25.85
692.731	26.17
692.918	26.91
693.104	27.3
693.29	27.87
693.476	28.57
693.662	29.45
693.848	29.84
694.034	30.46
694.22	31.11
694.406	31.68
694.592	32.27
694.778	32.91
694.964	33.63
695.15	34.17
695.336	34.65
695.522	35.46
695.708	35.96
695.894	36.58
696.08	37.23
696.265	37.79
696.451	38.26
696.637	39.23
696.823	39.77
697.009	40.12
697.194	40.68
697.38	41.06
697.566	41.42
697.751	42.17
697.937	43.16
698.123	43.84
698.308	44.63
698.494	45.47
698.68	45.84
698.865	46.14
699.051	46.99
699.236	47.37
699.422	47.58
699.607	48.21
699.793	48.97
699.978	49.13
700.164	49.89
700.349	50.71
700.535	51.17
700.72	51.51
700.906	52.25
701.091	52.5
701.276	52.9
701.462	53.8
701.647	54.59
701.832	54.91
702.018	55.44
702.203	55.5
702.388	55.51
702.573	55.6
702.759	56.36
702.944	56.71
703.129	57.31
703.314	57.83
703.499	58.38
703.684	58.62
703.87	59.66
704.055	60.73
704.24	61.15
704.425	61.69
704.61	62.11
704.795	61.95
704.98	61.88
705.165	61.89
705.35	62.22
705.535	62.58
705.72	62.96
705.905	63.41
706.09	64.2
706.275	64.24
706.459	64.28
706.644	64.38
706.829	64.46
707.014	64.25
707.199	64.85
707.384	65.28
707.568	65.63
707.753	66.29
707.938	66.96
708.123	66.85
708.307	66.77
708.492	67.1
708.677	67.13
708.861	67.1
709.046	67.5
709.231	68.61
709.415	69.06
709.6	68.78
709.784	68.89
709.969	69.27
710.153	68.91
710.338	68.92
710.522	69.47
710.707	70.13
710.891	69.95
711.076	70.3
711.26	70.3
711.445	70.52
711.629	70.72
711.813	71.2
711.998	71.11
712.182	71.47
712.366	72.1
712.551	72.44
712.735	72.58
712.919	72.36
713.103	72.46
713.288	71.76
713.472	71.29
713.656	71.7
713.84	72.49
714.024	72.91
714.208	73.25
714.393	73.68
714.577	73.46
714.761	73.6
714.945	73.54
715.129	73.81
715.313	74.26
715.497	74.47
715.681	74.64
715.865	74.39
716.049	74.29
716.233	74
716.417	74.35
716.601	74.13
716.785	74.36
716.968	74.92
717.152	75.2
717.336	75.11
717.52	75.09
717.704	75.42
717.888	75.62
718.071	75.86
718.255	75.85
718.439	75.94
718.622	75.78
718.806	75.92
718.99	75.5
719.174	75.73
719.357	76.08
719.541	76.37
719.724	76.16
719.908	77.08
720.092	77.38
720.275	77.72
720.459	78.18
720.642	77.92
720.826	77.32
721.009	77.25
721.193	76.87
721.376	76.59
721.559	77.23
721.743	77.63
721.926	77.7
722.11	78.23
722.293	78.07
722.476	77.24
722.66	77.24
722.843	76.59
723.026	76.04
723.21	76.37
723.393	77.78
723.576	77.42
723.759	77.49
723.942	78.2
724.126	78.43
724.309	77.57
724.492	78.02
724.675	78.43
724.858	78.54
725.041	78.81
725.224	79.35
725.407	79.47
725.59	80.11
725.774	79.89
725.957	79.22
726.14	78.51
726.322	78.44
726.505	78.1
726.688	78.66
726.871	78.62
727.054	79.32
727.237	79.49
727.42	79.56
727.603	79.25
727.786	79.55
727.968	79.73
728.151	79.76
728.334	79.66
728.517	79.59
728.699	79.98
728.882	79.4
729.065	79.92
729.248	80.29
729.43	80.67
729.613	81.34
729.796	82.48
729.978	81.66
730.161	81.62
730.343	81.26
730.526	81.52
730.708	80.64
730.891	81.38
731.073	81.4
731.256	81.15
731.438	80.72
731.621	81.73
731.803	81.52
731.986	81.58
732.168	80.87
732.35	80.99
732.533	80.41
732.715	80.4
732.898	80.92
733.08	82.02
733.262	81.97
733.444	82.29
733.627	82.63
733.809	82.65
733.991	82.89
734.173	82.78
734.355	82.34
734.538	82.75
734.72	82.12
734.902	81.76
735.084	81.51
735.266	81.98
735.448	81.69
735.63	82.05
735.812	82.22
735.994	83.53
736.176	83.32
736.358	82.91
736.54	83.58
736.722	83.6
736.904	82.22
737.086	82.22
737.268	83.11
737.45	82.91
737.632	82.99
737.814	82.91
737.995	83.2
738.177	82.61
738.359	82.01
738.541	82.64
738.723	83.28
738.904	83.55
739.086	84.03
739.268	84.61
739.449	84.68
739.631	84.12
739.813	84.31
739.994	84.51
740.176	85.06
740.358	85.13
740.539	86.5
740.721	87.21
740.902	87.43
741.084	86.27
741.265	85.53
741.447	85.09
741.628	84.47
741.81	83.53
741.991	84.33
742.172	85.79
742.354	85.78
742.535	84.94
742.717	84.72
742.898	85.1
743.079	85.17
743.261	85.44
743.442	85.18
743.623	86.87
743.804	86.46
743.986	86.31
744.167	84.52
744.348	84.54
744.529	84.04
744.71	82.78
744.891	81.44
745.073	81.18
745.254	81.91
745.435	81.57
745.616	81.73
745.797	82.39
745.978	83.61
746.159	83.75
746.34	82.86
746.521	83.97
746.702	82.65
746.883	82.31
747.064	81.98
747.245	82.23
747.426	82.85
747.606	83.54
747.787	83.64
747.968	83.06
748.149	83.79
748.33	83.07
748.51	83.2
748.691	83.34
748.872	84.52
749.053	84.35
749.233	83.8
749.414	83.38
749.595	82.45
749.775	80.46
749.956	79.2
750.137	79.85
750.317	81.3
750.498	82.85
750.678	83.93
750.859	84.8
751.04	83.96
751.22	81.86
751.4	80.63
751.581	80.31
751.761	80.89
751.942	81.78
752.122	82.67
752.303	82.83
752.483	83.58
752.663	82.39
752.844	80.73
753.024	81.74
753.204	82.92
753.385	82.05
753.565	83.05
753.745	83.43
753.925	82.52
754.106	81.4
754.286	81.35
754.466	80.14
754.646	81.14
754.826	79.81
755.006	78.59
755.187	79.42
755.367	80.54
755.547	80.35
755.727	82.38
755.907	83.42
756.087	83.75
756.267	82.61
756.447	82.04
756.627	78.98
756.807	80.55
756.987	80.32
757.167	81.61
757.346	82.19
757.526	82
757.706	82.66
757.886	82.49
758.066	83.51
758.246	83.34
758.425	84.51
758.605	81.85
758.785	81.79
758.965	81.2
759.144	80.85
759.324	82.57
759.504	83.75
759.683	82.91
759.863	80.54
760.043	79.51
760.222	78.28
760.402	77.93
760.581	77.75
760.761	79.9
760.94	79.15
761.12	80.44
761.299	79.94
761.479	80.21
761.658	78.25
761.838	78.78
762.017	78.02
762.197	79.43
762.376	79.13
762.555	81.25
762.735	82.78
762.914	81.86
763.093	80.55
763.273	80.28
763.452	77.59
763.631	76.86
763.81	77.63
763.99	77.32
764.169	77.57
764.348	76.84
764.527	76.2
764.706	76.31
764.885	76.95
765.064	75.93
765.243	76.7
765.423	78.73
765.602	78.11
765.781	77.17
765.96	76.63
766.139	76.26
766.318	76.04
766.497	74.4
766.676	74.11
766.854	76.59
767.033	78.57
767.212	77.32
767.391	77.87
767.57	79.98
767.749	79.59
767.928	79.95
768.106	78.48
768.285	77.43
768.464	76.61
768.643	74.26
768.821	73.34
769	76.27
769.179	77.82
769.357	76.91
769.536	77.42
769.715	76.67
769.893	76.23
770.072	75.89
770.25	75.23
770.429	76.84
770.607	77.3
770.786	75.67
770.964	76.68
771.143	75.5
771.321	76.62
771.5	77.1
771.678	75.79
771.857	73.6
772.035	74.51
772.213	72.55
772.392	70.56
772.57	73.72
772.748	76.16
772.927	76.68
773.105	76.19
773.283	78.07
773.461	76.91
773.64	76.56
773.818	77.33
773.996	78.75
774.174	77.12
774.352	74.79
774.531	70.9
774.709	72.52
774.887	71.53
775.065	72.08
775.243	73.47
775.421	75.74
775.599	74.27
775.777	72.39
775.955	70.4
776.133	69.84
776.311	69.89
776.489	67.73
776.667	68.1
776.844	70.64
777.022	70.75
777.2	73.05
777.378	72.61
777.556	74.11
777.734	76.39
777.911	79
778.089	77.04
778.267	78.06
778.445	76.47
778.622	71.39
778.8	68.81
778.978	70.16
779.155	69.61
779.333	70.29
779.511	72.82
779.688	74
779.866	68.79
780.043	64.98
780.221	66.78
780.398	64.98
780.576	66.31
780.753	68.86
780.931	70.84
781.108	69.9
781.286	71.45
781.463	67.66
781.64	66.19
781.818	69.29
781.995	68.25
782.172	66.19
782.35	70.22
782.527	74.79
782.704	71.62
782.882	74.33
783.059	74.28
783.236	71.7
783.413	70.85
783.59	72.9
783.768	68.1
783.945	71.57
784.122	71.46
784.299	72
784.476	72.37
784.653	71.38
784.83	67.62
785.007	64.79
785.184	63.99
785.361	60.61
785.538	64.46
785.715	68.03
785.892	69.3
786.069	70.44
786.246	74.8
786.423	76.64
786.6	74.06
786.776	76.61
786.953	75.86
787.13	75.32
787.307	72.85
787.484	75.47
787.66	71.86
787.837	68.3
788.014	67.47
788.191	64.25
788.367	58.94
788.544	61.87
788.721	63.37
788.897	63.07
789.074	64.05
789.25	65.88
789.427	66.93
789.603	67.46
789.78	69.17
789.956	68.22
790.133	67.79
790.309	66.85
790.486	71.24
790.662	67.66
790.839	67.95
791.015	70.44
791.192	68.98
791.368	67.05
791.544	64.84
791.721	64.54
791.897	61.84
792.073	60.25
792.249	53.17
792.426	59.34
792.602	64.5
792.778	65.25
792.954	65.73
793.13	70.07
793.307	61.96
793.483	52.47
793.659	50.88
793.835	52.85
794.011	45.8
794.187	47.21
794.363	50.52
794.539	57.93
794.715	52.09
794.891	55.11
795.067	57.87
795.243	61.77
795.419	56.01
795.595	56.12
795.771	62.73
795.947	63.24
796.122	61.29
796.298	66.31
796.474	70.79
796.65	67.62
796.826	65.13
797.001	65.57
797.177	60.61
797.353	58.53
797.529	58.09
797.704	59.27
797.88	60.06
798.056	53.98
798.231	57.32
798.407	62.55
798.582	62.76
798.758	64.45
798.934	71.08
799.109	64.7
799.285	54.05
799.46	57.48
799.636	54.57
799.811	55.58
799.986	61.72
800.162	69.37
800.337	74.42
800.513	73
800.688	73.46
800.863	79.69
801.039	74.08
801.214	62.44
801.389	69.39
801.565	65.42
801.74	51.68
801.915	53.68
802.09	58.15
802.265	62.16
802.441	59.76
802.616	64.29
802.791	65.98
802.966	66.89
803.141	57.34
803.316	57.33
803.491	62.6
803.666	60.15
803.841	57.35
804.016	59.14
804.191	60.37
804.366	54.08
804.541	52.53
804.716	49.63
804.891	46.86
805.066	47.49
805.241	45.82
805.416	45.39
805.591	46.31
805.765	51.46
805.94	52.96
806.115	55.43
806.29	50.05
806.464	53.27
806.639	41.21
806.814	38.25
806.989	31.62
807.163	46.83
807.338	41.19
807.512	46
807.687	36.51
807.862	53.18
808.036	58.72
808.211	71.66
808.385	82.35
808.56	101.12
808.734	98.45
808.909	83.98
809.083	66.97
809.258	67.06
809.432	62.46
809.606	49.15
809.781	54.19
809.955	63.24
810.13	61.37
810.304	56.59
810.478	53.56
810.652	56.18
810.827	56.1
811.001	49.29
811.175	41.53
811.349	46.66
811.524	39.97
811.698	30.22
811.872	37.3
812.046	52.95
812.22	61.11
812.394	59.63
812.568	59.36
812.742	51.61
812.916	40.32
813.09	34.08
813.264	29.55
813.438	44.79
813.612	49.82
813.786	49.12
813.96	55.52
814.134	62.52
814.308	67.23
814.482	63.38
814.656	64.73
814.83	70.34
815.003	70.69
815.177	53.71
815.351	54.02
815.525	54.02
815.698	42.69
815.872	37.88
816.046	29.65
816.219	32.38
816.393	47.64
816.567	49.28
816.74	56.15
816.914	69.28
817.088	67.21
817.261	52.38
817.435	46.72
817.608	51.92
817.782	42.82
817.955	47.12
818.129	41.73
818.302	53.63
818.475	53.86
818.649	58.92
818.822	51.5
818.996	67.65
819.169	66.77
819.342	48.23
819.516	57.82
819.689	60.11
819.862	53.39
820.035	42.81
820.209	46.88
820.382	43.96
820.555	49.3
820.728	37.95
820.901	36.17
821.075	41.55
821.248	49.58
821.421	36.09
821.594	38.21
821.767	66.91
821.94	73.67
822.113	42.2
822.286	42.97
822.459	55.1
822.632	30.18
822.805	16.96
822.978	21.05
823.151	19.2
823.324	13.4
823.496	2.1
823.669	1.64
823.842	13.58
824.015	-5.1
824.188	-22.27
824.361	-3.82
824.533	1.06
824.706	11.34
824.879	25.53
825.051	47.07
825.224	40.04
825.397	28.9
825.569	2.45
825.742	20.78
825.915	14.92
826.087	16.3
826.26	16.13
826.432	32.54
826.605	31.8
826.777	23.31
826.95	29.24
827.122	25.57
827.295	19.44
827.467	24.42
827.64	0
827.812	-2.05
827.984	-3.12
828.157	-8.26
828.329	-48.94
828.501	-24.7
828.674	-7.18
828.846	-3.94
829.018	20.16
829.19	18.16
829.363	38.93
829.535	35.26
829.707	39.78
829.879	12.14
830.051	13.63
830.223	-3.23
830.395	-30.26
830.568	-39.28
830.74	-38.27
830.912	-5.73
831.084	-12.56
831.256	-9.4
831.428	-7.36
831.6	-8.61
831.772	-54.41
831.943	-62.74
832.115	-27.75
832.287	-5.6
832.459	5.14
832.631	29.1
832.803	53.19
832.975	68.35
833.146	56.33
833.318	56.8
833.49	73.67
833.662	54.32
833.833	20.09
834.005	16.2
834.177	22.76
834.348	11.64
834.52	7.36
834.692	14.81
834.863	0.34
835.035	-18.1
835.206	-76.32
835.378	-49.77
835.549	-40.65
835.721	0.94
835.892	10.59
836.064	14.66
836.235	4.17
836.407	29.94
836.578	-1.57
836.749	-13.35
836.921	9.76
837.092	-9.85
837.264	-44.2
837.435	-51.25
837.606	14.6
837.777	34.59
837.949	37.17
838.12	42.77
838.291	48.9
838.462	22.22
838.633	-3.13
838.805	-7.1
838.976	-14.61
839.147	-64.15
839.318	-78.07
839.489	-119.31
839.66	-94.17
839.831	-45.27
840.002	-39.25
840.173	-61.56
840.344	3.59
840.515	0.51
840.686	-152.26
840.857	-99.03
841.028	-38.21
841.199	-57.85
841.369	-75.48
841.54	-64.13
841.711	-54.26
841.882	-54.27
842.053	-49.8
842.223	-57.59
842.394	-14.05
842.565	0.96
842.736	6.8
842.906	4.7
843.077	38.33
843.248	59.84
843.418	57.55
843.589	36.31
843.759	100.73
843.93	36.71
844.101	-2.52
844.271	3.55
844.442	23.58
844.612	25.59
844.783	-4.71
844.953	-37.86
845.123	-62.39
845.294	-83.39
845.464	-279.4
845.635	-113.96
845.805	-29.58
845.975	9.98
846.146	-50.65
846.316	-43.27
846.486	-8.48
846.656	32.65
846.827	21.65
846.997	43.44
847.167	78.31
847.337	35.03
847.507	-30.39
847.677	-21.75
847.848	34.69
848.018	36.36
848.188	46.28
848.358	45.28
848.528	33.05
848.698	-15.78
848.868	-84
849.038	-200.42
849.208	-90.4
849.378	-48.91
849.548	-27.66
849.718	-25.81
849.887	5.66
850.057	7.96
850.227	-24.22
850.397	-48.5
850.567	-125.54
850.737	-247.83
850.906	-1106.25
851.076	-712.5
851.246	-268.59
851.415	36.21
851.585	5.02
851.755	-19.53
851.924	20.31
852.094	-0.86
852.264	-138.72
852.433	-1052.88
852.603	-140.35
852.772	-121.84
852.942	-42.41
853.111	-16.94
853.281	18.97
853.45	40.05
853.62	-7.64
853.789	-32.29
853.959	-16.03
854.128	-19.46
854.297	-44.29
854.467	-70.91
854.636	-16.51
854.805	31.55
854.975	45.88
855.144	61.64
855.313	453.15
855.482	-137.96
855.652	-53.87
855.821	-78.49
855.99	17.49
856.159	25.08
856.328	38.61
856.497	0.26
856.667	11.19
856.836	17.3
857.005	-28.43
857.174	-34.75
857.343	-45.68
857.512	-50.34
857.681	-115.31
857.85	-159.01
858.019	-73.89
858.188	-55.45
858.356	-69.93
858.525	-104.72
858.694	-82.22
858.863	-186.64
859.032	-171.8
859.201	-244.22
859.369	-185.97
859.538	-100.21
859.707	-76.15
859.876	-57.8
860.044	-8.35
860.213	31.46
860.382	-0.53
860.55	-7.15
860.719	7.35
860.888	28.35
861.056	-16.27
861.225	-18.97
861.393	27.07
861.562	44.56
861.73	-64.45
861.899	-221.47
862.067	-1044.83
862.236	-59.72
862.404	-249.86
862.572	-105
862.741	-23.05
862.909	-29.42
863.078	-120.21
863.246	-64.26
863.414	-58.65
863.582	-18.6
863.751	-42.79
863.919	-38.87
864.087	9.46
864.255	2.76
864.424	-294.02
864.592	-19.23
864.76	-28.17
864.928	57.6
865.096	-63.06
865.264	-29.11
865.432	-1213.64
865.6	1.5
865.768	-82.85
865.936	-102.59
866.104	-83.52
866.272	-89.06
866.44	-322.44
866.608	642.39
866.776	264.85
866.944	2511.63
867.112	-504.66
867.28	-241.04
867.448	-81.65
867.615	-34.44
867.783	-7.98
867.951	-10.79
868.119	49.16
868.286	36.17
868.454	-103.96
868.622	-126.73
868.789	-155.64
868.957	-4114.29
869.125	-2786.84
869.292	-113.51
869.46	-193.13
869.627	-22.54
869.795	-8.53
869.963	20.18
870.13	24.19
870.298	32.74
870.465	-43.21
870.632	-73.21
870.8	-48.72
870.967	-98.76
871.135	-125.87
871.302	-66.09
871.469	-93.58
871.637	-123.84
871.804	-75.98
871.971	-148.81
872.139	-648.84
872.306	-108.55
872.473	-132.33
872.64	-408.15
872.807	-84.74
872.975	66.31
873.142	5.45
873.309	-308.11
873.476	117.54
873.643	160.08
873.81	120
873.977	74.67
874.144	40.18
874.311	-115.76
874.478	-156.1
874.645	-188.93
874.812	-97.4
874.979	-23.74
875.146	-32.85
875.313	-70.71
875.48	21.96
875.647	-3.67
875.813	-51.61
875.98	-22.53
876.147	-33.63
876.314	-103.28
876.481	971.9
876.647	-1135.96
876.814	380.83
876.981	-4.62
877.147	-42.34
877.314	-6.12
877.481	37.54
877.647	59.73
877.814	16
877.98	-6.14
878.147	43.58
878.314	49.37
878.48	-73.65
878.647	-11.85
878.813	40.29
878.979	15.81
879.146	-27.57
879.312	-2.12
879.479	-38.87
879.645	-141.06
879.811	-224.29
879.978	-609.16
880.144	-164.33
880.31	-108.11
880.477	-294.53
880.643	-413.03
880.809	-100.21
880.975	-70.66
881.142	-540
881.308	-90.23
881.474	-42.58
881.64	-131.07
881.806	-257.54
881.972	-103.8
882.138	-69.55
882.304	-6.92
882.47	-135.28
882.636	-403.28
882.802	-192.99
882.968	-32.61
883.134	-44.29
883.3	-22.92
883.466	24.06
883.632	54.2
883.798	8.94
883.964	19.57
884.129	37.64
884.295	20.12
884.461	-21.08
884.627	-37.39
884.793	-73.56
884.958	-46.85
885.124	-85.16
885.29	-158.61
885.455	-216.99
885.621	-32.24
885.787	-63.24
885.952	-71.22
886.118	-80.98
886.283	-82.93
886.449	-210
886.614	-251.25
886.78	-488.08
886.945	2011.48
887.111	-870.52
887.276	-698.86
887.442	-1369.09
887.607	-646.7
887.773	-405.1
887.938	-309.4
888.103	-362.23
888.269	-152.71
888.434	-265.95
888.599	-93.84
888.764	-9.37
888.93	12.66
889.095	-34.81
889.26	-85.91
889.425	-55.8
889.59	-79.38
889.756	-125.89
889.921	-94.15
890.086	12.88
890.251	-12.18
890.416	-147.6
890.581	-1204.84
890.746	-0
890.911	129.94
891.076	92.48
891.241	-165.67
891.406	78.48
891.571	-12.8
891.736	-286.24
891.901	-530.97
892.065	474.73
892.23	149
892.395	243.05
892.56	322.54
892.725	-417.19
892.889	-1178.05
893.054	-203.47
893.219	-68.37
893.384	-22.8
893.548	-76.31
893.713	-98.02
893.878	-57.48
