Data from Ofra_1a_PS_OCX4_Reflection_3.txt Node
Date: Tue Jul 20 10:39:26 EDT 2021
User: Adam
Spectrometer: FLMT01687
Trigger mode: 0
Integration Time (sec): 1.004000E0
Scans to average: 2
Electric dark correction enabled: true
Nonlinearity correction enabled: false
Boxcar width: 2
XAxis mode: Wavelengths
Number of Pixels in Spectrum: 3648
>>>>>Begin Spectral Data<<<<<
179.494	-40.61
179.716	-3.82
179.937	218.06
180.158	-285.35
180.38	114.15
180.601	56.45
180.823	42.33
181.044	-104.92
181.265	-302.63
181.486	245.02
181.708	128.85
181.929	-8145.45
182.15	-63.19
182.372	658.13
182.593	385.52
182.814	-383.7
183.035	-101.26
183.257	-27.25
183.478	-31.53
183.699	-67.43
183.92	-87.76
184.141	-97.62
184.363	-97.39
184.584	-82.93
184.805	-20.03
185.026	25.29
185.247	12.88
185.468	8.83
185.689	4.09
185.91	-36.71
186.132	-24.6
186.353	-0.54
186.574	6.46
186.795	-3.85
187.016	33.69
187.237	43.68
187.458	50.88
187.679	48.3
187.9	64.08
188.121	71.64
188.342	18.99
188.563	16.81
188.784	29.84
189.005	-2.46
189.226	-0.91
189.447	-0.43
189.667	-9.57
189.888	-15.17
190.109	-17.23
190.33	3.45
190.551	10.75
190.772	10.02
190.993	-10.63
191.214	-0.47
191.434	-60.35
191.655	-119.89
191.876	-57.39
192.097	-29.93
192.318	10.33
192.538	-8.38
192.759	5.27
192.98	-10.37
193.201	-9.38
193.421	-20.6
193.642	8.36
193.863	22.98
194.083	45.82
194.304	40.44
194.525	17.38
194.745	-6.8
194.966	-12.4
195.187	-20.71
195.407	-25.38
195.628	6.56
195.848	8.13
196.069	15.56
196.29	13.46
196.51	3.8
196.731	-26.59
196.951	-29.29
197.172	-18.06
197.392	-4.98
197.613	12.1
197.833	11.23
198.054	6.87
198.274	-20.33
198.495	-18.81
198.715	-17.21
198.936	16.05
199.156	22.99
199.377	42.25
199.597	44.86
199.817	23.05
200.038	-16.09
200.258	-11.01
200.479	-16.5
200.699	-25.02
200.919	-26.02
201.14	-17.7
201.36	-17.13
201.58	-61.67
201.801	-125.15
202.021	-110.65
202.241	-118.92
202.461	-102.67
202.682	-58.36
202.902	-9.29
203.122	7.62
203.342	14.49
203.563	14.3
203.783	12.03
204.003	-0.31
204.223	4.84
204.443	15.95
204.663	4.97
204.884	31.44
205.104	26.68
205.324	10.06
205.544	-40.73
205.764	-4.1
205.984	-11.14
206.204	-13.37
206.424	-23.62
206.644	-13.85
206.864	-55.03
207.084	-24.8
207.304	-10.27
207.525	9.19
207.745	19.52
207.964	36.46
208.184	36.97
208.404	26.01
208.624	25.12
208.844	10.1
209.064	4.99
209.284	-18.05
209.504	-33.41
209.724	-31.35
209.944	-31.71
210.164	-41.86
210.384	-20.03
210.604	-98.15
210.823	-114.82
211.043	-87.26
211.263	-170.45
211.483	-124.1
211.703	-49.95
211.922	-63.76
212.142	-46.42
212.362	-4.49
212.582	-1.89
212.801	-45.16
213.021	-52.64
213.241	-54.64
213.461	-55.91
213.68	-46.91
213.9	-18.84
214.12	-17.82
214.339	-37.07
214.559	-39.24
214.779	-52.55
214.998	-53.57
215.218	-44.63
215.438	-25.24
215.657	-35.41
215.877	-44.92
216.096	-19.21
216.316	-15.33
216.535	-21.67
216.755	-22.32
216.974	-24.09
217.194	-45.44
217.413	-38.24
217.633	-44.85
217.852	-32.65
218.072	-14.47
218.291	-24.83
218.511	-34.1
218.73	-25.28
218.95	-43.51
219.169	-63.07
219.389	-27.83
219.608	-21.29
219.827	-33.75
220.047	-22.89
220.266	-26.15
220.485	-60.21
220.705	-68.25
220.924	-45.9
221.143	-9.78
221.363	-4.89
221.582	-6.92
221.801	18.13
222.021	24.65
222.24	31.92
222.459	53.05
222.678	55.09
222.897	35.8
223.117	42.59
223.336	53.68
223.555	29.49
223.774	43.92
223.993	71.11
224.213	37.11
224.432	19.96
224.651	18.07
224.87	13.59
225.089	0.12
225.308	9.51
225.527	-5.12
225.746	-25.44
225.965	-30.33
226.184	-43.31
226.404	-40.55
226.623	-33.69
226.842	-5.6
227.061	-6.75
227.28	24.91
227.499	25.98
227.718	28.44
227.936	18.38
228.155	18.21
228.374	-1.32
228.593	-10.18
228.812	-16.49
229.031	-8.17
229.25	-3.46
229.469	-0.06
229.688	6.04
229.907	11.9
230.125	7.12
230.344	-2.3
230.563	8.77
230.782	6.28
231.001	8.53
231.22	13.49
231.438	22.76
231.657	11.26
231.876	8.35
232.095	3.36
232.313	-0.43
232.532	-1.07
232.751	-11.02
232.969	-15.07
233.188	-22.15
233.407	-24.01
233.625	-22.82
233.844	-14.68
234.063	-3.25
234.281	-3.72
234.5	6.41
234.719	-9.82
234.937	-32.98
235.156	-54.08
235.374	-39.84
235.593	-23.47
235.811	11.02
236.03	11.69
236.249	20.06
236.467	4.01
236.686	-15.59
236.904	-15.09
237.123	-7.74
237.341	-14.69
237.559	-4.74
237.778	10.25
237.996	-31.58
238.215	-133.14
238.433	-160
238.652	-52.41
238.87	-68.65
239.088	-46.33
239.307	-11.58
239.525	-9.18
239.743	-31.16
239.962	-38.11
240.18	-23.97
240.398	-27.26
240.617	-46.44
240.835	-73.64
241.053	-33.81
241.271	-14.47
241.49	2.89
241.708	13.7
241.926	13.18
242.144	0.88
242.363	-46.66
242.581	-103.39
242.799	-103.97
243.017	-51.21
243.235	-41.14
243.453	-46.59
243.672	-16.55
243.89	-14.86
244.108	4.37
244.326	14.28
244.544	24.22
244.762	10.59
244.98	11.15
245.198	8.54
245.416	7
245.634	7.49
245.852	-0.59
246.07	18.49
246.288	12.28
246.506	13.34
246.724	11.97
246.942	18.01
247.16	11.22
247.378	-5.24
247.596	3.88
247.814	-15.77
248.032	-13.96
248.25	8.86
248.468	25.82
248.685	27.3
248.903	30.01
249.121	35.01
249.339	31.38
249.557	20.94
249.775	-0.7
249.992	6.99
250.21	-0.21
250.428	-1.24
250.646	0.66
250.863	-10
251.081	-16.25
251.299	-7.34
251.517	-9.05
251.734	-14.37
251.952	0.57
252.17	-0.94
252.387	-38.83
252.605	-32.12
252.823	-46.17
253.04	-43.75
253.258	-48.56
253.475	-13.34
253.693	-26.65
253.911	-11.4
254.128	-10.24
254.346	11.15
254.563	21.08
254.781	29.32
254.998	25.13
255.216	-3.21
255.433	-52.29
255.651	-76.76
255.868	-84.69
256.086	-65.5
256.303	-27.63
256.521	-6.61
256.738	-4.24
256.956	9.31
257.173	4.6
257.39	-9.3
257.608	-23.17
257.825	-11.74
258.043	-1.15
258.26	-16.64
258.477	-10.21
258.695	0.52
258.912	-11.28
259.129	-35.76
259.346	-33.84
259.564	-26.3
259.781	-47.21
259.998	-15.46
260.216	-7.68
260.433	11.09
260.65	1.98
260.867	3.75
261.084	-8.44
261.302	-5.64
261.519	-13.75
261.736	-0.89
261.953	16.7
262.17	30.49
262.387	31.67
262.604	32.26
262.822	29.61
263.039	25.66
263.256	13.33
263.473	8.01
263.69	6.48
263.907	6.14
264.124	3.92
264.341	6.9
264.558	0.44
264.775	-17.26
264.992	-21.67
265.209	-29.7
265.426	-40.58
265.643	-32.58
265.86	-52.57
266.077	-54.61
266.294	-51.53
266.51	-1.51
266.727	-11.35
266.944	8.73
267.161	16.02
267.378	28.81
267.595	-9.13
267.812	-14.97
268.028	-7.15
268.245	4.52
268.462	-14.01
268.679	12.01
268.896	24.98
269.112	-10.57
269.329	-38.32
269.546	-23.16
269.763	-21.92
269.979	-21.31
270.196	3
270.413	4
270.629	-13.1
270.846	-22.65
271.063	-23.19
271.279	-33.08
271.496	-38.3
271.712	-28.92
271.929	-13.73
272.146	-26.11
272.362	-13
272.579	-6.36
272.795	1.68
273.012	-8.64
273.228	6.83
273.445	3.33
273.661	-1.67
273.878	-17.65
274.094	-13.15
274.311	-30.77
274.527	-44.71
274.744	-16.89
274.96	7.42
275.177	8.6
275.393	28
275.609	29.37
275.826	17.68
276.042	-2.81
276.259	-4.74
276.475	-21.96
276.691	-27.62
276.908	-20.39
277.124	-4.13
277.34	-22.55
277.557	-24.05
277.773	-26.55
277.989	-43.8
278.205	-48.16
278.422	-38.15
278.638	-27.14
278.854	-23.94
279.07	-14.07
279.286	-9.07
279.503	11.96
279.719	17.82
279.935	16.57
280.151	25.65
280.367	20.88
280.583	9.77
280.799	-12.02
281.016	-45.44
281.232	-54.77
281.448	-48.32
281.664	-28.08
281.88	-7.93
282.096	8.98
282.312	15.59
282.528	11.4
282.744	-5.53
282.96	-39.44
283.176	-59.97
283.392	-110.32
283.608	-87.35
283.824	-89.99
284.04	-90.56
284.256	-47.86
284.471	-28.94
284.687	-25.38
284.903	-18.12
285.119	-6.51
285.335	3.25
285.551	-4.2
285.767	-2.3
285.982	-5.44
286.198	-16.71
286.414	-42.39
286.63	-50.7
286.846	-76.02
287.061	-55.7
287.277	-48.57
287.493	-37.11
287.709	-0.08
287.924	2.21
288.14	9.3
288.356	16.24
288.571	8.28
288.787	-7.33
289.003	4.95
289.218	-26.84
289.434	-24.67
289.65	-9.01
289.865	-4.98
290.081	2.29
290.296	16.85
290.512	13.97
290.727	6.34
290.943	4.12
291.159	-1.18
291.374	-22.49
291.59	-9.81
291.805	-24.06
292.021	-22.18
292.236	-43.02
292.451	-13.86
292.667	-23.65
292.882	-3.36
293.098	6.16
293.313	18.2
293.529	9.96
293.744	-1.41
293.959	-11.31
294.175	-16.46
294.39	-41.95
294.605	-17.02
294.821	-12.64
295.036	-8.15
295.251	-10.06
295.467	-10.41
295.682	-10.67
295.897	-19.86
296.112	-14.78
296.328	6.13
296.543	5.03
296.758	0.31
296.973	6.75
297.188	2.95
297.404	-54.5
297.619	-20.36
297.834	-59.5
298.049	-22.36
298.264	-23.89
298.479	-29.03
298.694	-0.8
298.909	5.67
299.125	-12.2
299.34	-3.04
299.555	13.53
299.77	15.7
299.985	32.62
300.2	41.02
300.415	42.95
300.63	35.41
300.845	17.09
301.06	13.57
301.275	7.11
301.49	4.57
301.704	2.16
301.919	11.04
302.134	-4.81
302.349	-4.97
302.564	-5.68
302.779	-15.09
302.994	-13.1
303.209	-8.13
303.423	6.05
303.638	1.08
303.853	19.03
304.068	10.15
304.283	8.44
304.497	-20.53
304.712	-7.65
304.927	-0.05
305.142	16.51
305.356	19.67
305.571	21.61
305.786	15.71
306	5.38
306.215	-18.23
306.43	-25.56
306.644	-18.29
306.859	-32.53
307.074	-15.08
307.288	2.32
307.503	7.23
307.717	4.67
307.932	24.65
308.147	19.85
308.361	18.6
308.576	8.97
308.79	-0.22
309.005	-41.63
309.219	-27.38
309.434	-25.91
309.648	-8.58
309.863	17.17
310.077	37.34
310.292	42.55
310.506	24.98
310.72	27.94
310.935	12.46
311.149	7.95
311.364	-1.7
311.578	14.47
311.792	-0.61
312.007	-23.26
312.221	-46.49
312.435	-39.36
312.649	-26.89
312.864	-48.4
313.078	-34.58
313.292	-30.63
313.507	-27.01
313.721	-27.7
313.935	6.06
314.149	-4.67
314.363	-12.09
314.578	-21.03
314.792	-67.35
315.006	-71.93
315.22	-44.33
315.434	-30.25
315.648	-36.57
315.862	-25.48
316.077	-31.08
316.291	-21.36
316.505	-42.73
316.719	-28.97
316.933	-16.45
317.147	-6.99
317.361	-22.42
317.575	1.85
317.789	11.69
318.003	18.04
318.217	31.7
318.431	23.22
318.645	7.19
318.859	6.27
319.073	5.32
319.287	-0.87
319.5	1.06
319.714	-2.16
319.928	-13.94
320.142	-20.7
320.356	-3.1
320.57	-13.84
320.784	-6.05
320.997	-19.05
321.211	3.96
321.425	-47.05
321.639	-11.2
321.853	-4.55
322.066	-0.62
322.28	-23.64
322.494	-5.53
322.707	-15.7
322.921	-19.77
323.135	-7.55
323.349	-8.29
323.562	-11.85
323.776	-12.02
323.989	-8.77
324.203	-21.53
324.417	-14.21
324.63	-9.69
324.844	-21.46
325.057	-44.9
325.271	-28.92
325.485	-35.08
325.698	-12.83
325.912	4.79
326.125	13.91
326.339	18.33
326.552	15.19
326.766	-7.99
326.979	-23.45
327.193	-33.02
327.406	-49.77
327.619	-36.62
327.833	-35.59
328.046	-17.63
328.26	-18.89
328.473	-11.74
328.686	-19.51
328.9	-4.64
329.113	-10.31
329.326	9.66
329.54	16.78
329.753	22.8
329.966	13.35
330.179	14.08
330.393	2.74
330.606	-9.04
330.819	-24.52
331.032	-27.26
331.246	-12.11
331.459	-9.05
331.672	-6.45
331.885	-6.93
332.098	10.22
332.311	0.78
332.525	2.07
332.738	4.64
332.951	2.62
333.164	-2.17
333.377	-12.66
333.59	-30.82
333.803	-28.87
334.016	-21.32
334.229	-30.27
334.442	-31.43
334.655	-25.2
334.868	-31.48
335.081	-41.67
335.294	-57.72
335.507	-43.51
335.72	-20.99
335.933	-18.28
336.146	-0.42
336.359	26.24
336.572	25.06
336.785	19.24
336.997	17.83
337.21	29.18
337.423	5.35
337.636	-6.07
337.849	-6.38
338.062	11
338.274	2.89
338.487	-5.94
338.7	-14.8
338.913	-4.5
339.125	-27.78
339.338	-23.03
339.551	-14.15
339.763	-4.47
339.976	-5.97
340.189	-13.25
340.402	7.65
340.614	9.91
340.827	16.21
341.039	21.27
341.252	24.26
341.465	0.72
341.677	3.08
341.89	2.24
342.102	-2.55
342.315	7.98
342.527	14.34
342.74	-3.51
342.952	-18.47
343.165	-25.6
343.377	-26.21
343.59	-25.77
343.802	-6.75
344.015	3.5
344.227	19.32
344.44	9.51
344.652	1.24
344.864	0.49
345.077	-0.2
345.289	-8.14
345.502	11.71
345.714	17.54
345.926	8.53
346.139	11.17
346.351	7.28
346.563	-5.84
346.775	-3.54
346.988	4.58
347.2	-16.38
347.412	-13.67
347.624	-7.33
347.837	-2.63
348.049	-5.12
348.261	-10.51
348.473	-25.53
348.685	-40.38
348.897	-55.49
349.11	-36.19
349.322	-23.02
349.534	-23.39
349.746	-19.58
349.958	-30.17
350.17	-69.07
350.382	-62.58
350.594	-39.78
350.806	-1.4
351.018	8.11
351.23	17.65
351.442	24.04
351.654	25.91
351.866	2.75
352.078	6.22
352.29	7.96
352.502	3.06
352.714	3.92
352.926	7.76
353.138	12.17
353.35	8.04
353.561	2.67
353.773	-4.86
353.985	-5.05
354.197	-4.09
354.409	-3.42
354.621	-18.71
354.832	-22.2
355.044	-38.94
355.256	-35.1
355.468	-41.01
355.679	-9.53
355.891	4.38
356.103	9.79
356.314	-2.64
356.526	-16.52
356.738	-29.49
356.949	-42.79
357.161	-14.61
357.373	-3.9
357.584	6.21
357.796	11.4
358.008	17.99
358.219	-0.4
358.431	-8.07
358.642	3.18
358.854	6.92
359.065	-10.61
359.277	-2.82
359.488	-3.2
359.7	-7.64
359.911	-17.59
360.123	13.91
360.334	7.9
360.546	-0.04
360.757	10.84
360.969	8.38
361.18	-15.46
361.391	-12.79
361.603	-8.59
361.814	-21.58
362.025	-7.19
362.237	-2.97
362.448	7.81
362.659	-3.25
362.871	-25.12
363.082	-29.43
363.293	-27.67
363.504	-52.43
363.716	-25.17
363.927	4.25
364.138	-19.01
364.349	-32.61
364.56	-23.12
364.772	-15.21
364.983	-16.5
365.194	7.83
365.405	12.74
365.616	1.67
365.827	-29.18
366.038	-23.84
366.25	-19.94
366.461	-7.98
366.672	0.44
366.883	8.55
367.094	-7.17
367.305	-23.22
367.516	-20.17
367.727	-30.84
367.938	-30.28
368.149	-23.43
368.36	-23.27
368.571	-52.65
368.781	-45.49
368.992	-27.92
369.203	-29.23
369.414	-29.2
369.625	-24.93
369.836	-6.56
370.047	-10.75
370.258	8.66
370.468	6.31
370.679	21.12
370.89	9.2
371.101	14.64
371.312	-3.12
371.522	5.11
371.733	-8.82
371.944	-16.11
372.155	-11.29
372.365	4.39
372.576	4.54
372.787	6.5
372.997	13.96
373.208	8.69
373.419	-12.78
373.629	-14.07
373.84	-33.68
374.05	-32.87
374.261	-49.24
374.472	-29.73
374.682	-24.29
374.893	-19.77
375.103	-21.44
375.314	-10.77
375.524	-11.89
375.735	-9.61
375.945	3.47
376.156	1.8
376.366	1.18
376.577	-2.69
376.787	4.07
376.997	1.57
377.208	4.34
377.418	7.95
377.629	14.93
377.839	9.51
378.049	9.77
378.26	-3.03
378.47	-17.2
378.68	-25.51
378.89	-24.23
379.101	-22.32
379.311	-10.38
379.521	-17.98
379.732	-8.5
379.942	-0.86
380.152	2.37
380.362	1.67
380.572	17.84
380.783	20.3
380.993	15.84
381.203	8.69
381.413	12.11
381.623	14
381.833	11.45
382.043	2.01
382.253	6.86
382.463	13.99
382.674	14
382.884	13.3
383.094	16.87
383.304	17.99
383.514	6.05
383.724	0.45
383.934	-6.29
384.144	-1.89
384.353	2.32
384.563	11.94
384.773	17.68
384.983	13.14
385.193	4.51
385.403	-2.31
385.613	-5.2
385.823	-8.14
386.033	-3.58
386.242	-7.13
386.452	-8.13
386.662	-9.5
386.872	-9.34
387.082	-12.4
387.291	-5.48
387.501	1.41
387.711	2.38
387.921	1.22
388.13	4.84
388.34	8.22
388.55	2.99
388.759	-3.64
388.969	-3.55
389.179	-6.08
389.388	-11.21
389.598	-9.53
389.807	-8.34
390.017	-8.76
390.227	-9.75
390.436	-5.9
390.646	-5.71
390.855	-2.14
391.065	-2.33
391.274	-0.11
391.484	-1.06
391.693	-1.58
391.903	-2.17
392.112	-2.88
392.322	-4.79
392.531	-5.81
392.74	-4.67
392.95	-3.75
393.159	-2.55
393.369	0.13
393.578	1.15
393.787	0.21
393.997	0.28
394.206	0.1
394.415	0.67
394.625	-0.26
394.834	-1.07
395.043	-1.75
395.252	0.65
395.462	0.1
395.671	-0.14
395.88	1.53
396.089	2.23
396.298	1.86
396.508	1.89
396.717	2.67
396.926	1.77
397.135	2.3
397.344	1.61
397.553	1.52
397.762	2.17
397.971	2.79
398.181	2.11
398.39	1.88
398.599	2.2
398.808	2.3
399.017	2.37
399.226	2.37
399.435	2.04
399.644	2.51
399.853	2.4
400.062	2.49
400.27	2.27
400.479	2.43
400.688	2.27
400.897	2.14
401.106	2.02
401.315	2.44
401.524	2.71
401.733	2.1
401.941	2.49
402.15	2.38
402.359	2.38
402.568	2.33
402.777	2.41
402.985	1.92
403.194	1.7
403.403	1.65
403.612	1.51
403.82	1.59
404.029	1.74
404.238	1.94
404.446	2.01
404.655	2.15
404.864	2.28
405.072	2.3
405.281	2.31
405.489	2.23
405.698	2.33
405.906	2.43
406.115	2.36
406.324	2.38
406.532	2.53
406.741	2.36
406.949	2.37
407.158	2.49
407.366	2.51
407.574	2.56
407.783	2.59
407.991	2.47
408.2	2.53
408.408	2.45
408.617	2.32
408.825	2.23
409.033	2.3
409.242	2.23
409.45	2.29
409.658	2.27
409.867	2.4
410.075	2.41
410.283	2.34
410.491	2.2
410.7	2.12
410.908	2.13
411.116	2.08
411.324	2.03
411.533	2.06
411.741	2.17
411.949	2.07
412.157	1.98
412.365	1.93
412.573	2.09
412.781	1.94
412.99	1.96
413.198	2.05
413.406	2.39
413.614	2.35
413.822	2.51
414.03	2.6
414.238	2.6
414.446	2.4
414.654	2.28
414.862	2.1
415.07	1.96
415.278	1.98
415.486	1.91
415.694	2
415.902	2.11
416.109	2.14
416.317	2.14
416.525	2.12
416.733	1.99
416.941	1.9
417.149	1.94
417.357	1.9
417.564	1.93
417.772	2.11
417.98	2.17
418.188	2.09
418.395	1.89
418.603	1.85
418.811	1.67
419.019	1.71
419.226	1.73
419.434	1.82
419.642	1.64
419.849	1.66
420.057	1.64
420.265	1.65
420.472	1.68
420.68	1.86
420.887	1.78
421.095	1.9
421.302	1.91
421.51	1.82
421.717	1.87
421.925	2.05
422.132	1.94
422.34	1.77
422.547	1.91
422.755	1.91
422.962	1.91
423.17	1.79
423.377	1.97
423.585	2.04
423.792	1.99
423.999	1.99
424.207	1.96
424.414	1.99
424.621	1.87
424.829	1.95
425.036	1.97
425.243	2.23
425.451	2.12
425.658	2.18
425.865	2.14
426.072	2.03
426.28	1.87
426.487	1.87
426.694	1.65
426.901	1.61
427.108	1.64
427.315	1.54
427.523	1.55
427.73	1.71
427.937	1.62
428.144	1.64
428.351	1.71
428.558	1.79
428.765	1.7
428.972	1.85
429.179	1.72
429.386	1.85
429.593	1.73
429.8	1.84
430.007	1.82
430.214	1.88
430.421	1.79
430.628	1.85
430.835	1.81
431.042	1.75
431.249	1.81
431.456	1.83
431.662	1.81
431.869	1.9
432.076	2.01
432.283	2.12
432.49	2.1
432.697	2.1
432.903	1.98
433.11	1.99
433.317	1.9
433.524	1.92
433.73	1.86
433.937	2.09
434.144	1.98
434.35	1.9
434.557	2.01
434.764	2.09
434.97	1.84
435.177	2
435.384	2.13
435.59	2.12
435.797	2.13
436.003	2.31
436.21	2.17
436.416	2.04
436.623	2.08
436.829	2.18
437.036	2.05
437.242	2.12
437.449	2.3
437.655	2.29
437.862	2.17
438.068	2.22
438.275	2.28
438.481	2.16
438.687	2.04
438.894	2.17
439.1	2.11
439.307	2.15
439.513	2.26
439.719	2.34
439.926	2.24
440.132	2.46
440.338	2.42
440.544	2.34
440.751	2.25
440.957	2.37
441.163	2.17
441.369	2.15
441.575	2.09
441.782	2.18
441.988	2.18
442.194	2.15
442.4	2.11
442.606	2.14
442.812	2.17
443.018	2.07
443.224	2.21
443.431	2.26
443.637	2.35
443.843	2.28
444.049	2.39
444.255	2.38
444.461	2.25
444.667	2.22
444.873	2.23
445.079	2.17
445.284	2.24
445.49	2.37
445.696	2.35
445.902	2.31
446.108	2.37
446.314	2.35
446.52	2.4
446.726	2.42
446.931	2.44
447.137	2.41
447.343	2.43
447.549	2.38
447.755	2.41
447.96	2.45
448.166	2.5
448.372	2.48
448.578	2.42
448.783	2.43
448.989	2.5
449.195	2.44
449.4	2.56
449.606	2.68
449.812	2.58
450.017	2.59
450.223	2.57
450.428	2.48
450.634	2.4
450.84	2.43
451.045	2.37
451.251	2.41
451.456	2.39
451.662	2.46
451.867	2.58
452.073	2.6
452.278	2.64
452.483	2.66
452.689	2.64
452.894	2.62
453.1	2.58
453.305	2.66
453.51	2.65
453.716	2.6
453.921	2.61
454.127	2.62
454.332	2.56
454.537	2.53
454.742	2.56
454.948	2.52
455.153	2.49
455.358	2.45
455.563	2.55
455.769	2.48
455.974	2.5
456.179	2.48
456.384	2.46
456.589	2.38
456.795	2.43
457	2.39
457.205	2.35
457.41	2.38
457.615	2.34
457.82	2.39
458.025	2.48
458.23	2.58
458.435	2.58
458.64	2.62
458.845	2.53
459.05	2.44
459.255	2.38
459.46	2.4
459.665	2.35
459.87	2.4
460.075	2.45
460.28	2.51
460.485	2.57
460.69	2.59
460.895	2.66
461.099	2.58
461.304	2.48
461.509	2.43
461.714	2.57
461.919	2.51
462.123	2.65
462.328	2.63
462.533	2.6
462.738	2.4
462.942	2.36
463.147	2.26
463.352	2.3
463.556	2.39
463.761	2.52
463.966	2.54
464.17	2.64
464.375	2.74
464.58	2.65
464.784	2.58
464.989	2.62
465.193	2.56
465.398	2.51
465.602	2.62
465.807	2.72
466.011	2.7
466.216	2.68
466.42	2.75
466.625	2.78
466.829	2.62
467.034	2.8
467.238	2.93
467.443	2.9
467.647	2.84
467.851	2.99
468.056	2.9
468.26	2.84
468.464	2.91
468.669	2.94
468.873	2.93
469.077	2.86
469.282	2.89
469.486	2.82
469.69	2.84
469.894	2.92
470.099	2.92
470.303	2.95
470.507	3.07
470.711	3.04
470.915	3.06
471.119	3.19
471.324	3.21
471.528	3.18
471.732	3.19
471.936	3.11
472.14	3.06
472.344	3.11
472.548	3.07
472.752	3.1
472.956	3.2
473.16	3.23
473.364	3.2
473.568	3.2
473.772	3.15
473.976	3.15
474.18	3.18
474.384	3.19
474.588	3.28
474.792	3.32
474.995	3.33
475.199	3.21
475.403	3.26
475.607	3.22
475.811	3.25
476.015	3.12
476.218	3.18
476.422	3.09
476.626	3.13
476.83	3.16
477.033	3.25
477.237	3.24
477.441	3.25
477.644	3.27
477.848	3.23
478.052	3.28
478.255	3.34
478.459	3.32
478.663	3.37
478.866	3.46
479.07	3.45
479.273	3.51
479.477	3.54
479.681	3.6
479.884	3.52
480.088	3.59
480.291	3.55
480.495	3.53
480.698	3.49
480.901	3.53
481.105	3.54
481.308	3.53
481.512	3.66
481.715	3.69
481.919	3.77
482.122	3.79
482.325	3.86
482.529	3.81
482.732	3.76
482.935	3.74
483.138	3.67
483.342	3.65
483.545	3.74
483.748	3.77
483.952	3.82
484.155	3.97
484.358	4.05
484.561	3.99
484.764	3.99
484.967	3.92
485.171	3.92
485.374	3.85
485.577	3.87
485.78	3.87
485.983	3.87
486.186	3.84
486.389	3.9
486.592	3.93
486.795	3.99
486.998	3.99
487.201	3.99
487.404	4.13
487.607	4.2
487.81	4.18
488.013	4.27
488.216	4.3
488.419	4.14
488.622	4.15
488.825	4.23
489.028	4.25
489.231	4.28
489.433	4.39
489.636	4.42
489.839	4.45
490.042	4.51
490.245	4.55
490.447	4.58
490.65	4.59
490.853	4.64
491.056	4.7
491.258	4.78
491.461	4.82
491.664	4.86
491.866	4.89
492.069	5.01
492.272	4.99
492.474	5.12
492.677	5.19
492.879	5.26
493.082	5.29
493.285	5.41
493.487	5.41
493.69	5.49
493.892	5.52
494.095	5.57
494.297	5.7
494.5	5.66
494.702	5.74
494.905	5.86
495.107	5.92
495.309	5.98
495.512	6.15
495.714	6.23
495.917	6.32
496.119	6.4
496.321	6.47
496.524	6.5
496.726	6.59
496.928	6.64
497.13	6.65
497.333	6.63
497.535	6.76
497.737	6.82
497.939	6.9
498.142	6.95
498.344	7.1
498.546	7.17
498.748	7.27
498.95	7.36
499.152	7.43
499.355	7.41
499.557	7.48
499.759	7.55
499.961	7.57
500.163	7.68
500.365	7.84
500.567	7.84
500.769	7.86
500.971	7.95
501.173	7.98
501.375	8.02
501.577	8.03
501.779	8.04
501.981	8.04
502.183	8.06
502.385	8
502.587	8.11
502.788	8.17
502.99	8.18
503.192	8.26
503.394	8.3
503.596	8.31
503.798	8.24
503.999	8.26
504.201	8.21
504.403	8.15
504.605	8.1
504.806	8.18
505.008	8.18
505.21	8.17
505.411	8.25
505.613	8.25
505.815	8.21
506.016	8.19
506.218	8.23
506.42	8.19
506.621	8.23
506.823	8.2
507.024	8.14
507.226	8.07
507.427	8.09
507.629	7.99
507.83	7.93
508.032	7.9
508.233	7.95
508.435	7.88
508.636	7.91
508.838	7.95
509.039	7.95
509.24	7.92
509.442	7.85
509.643	7.77
509.845	7.72
510.046	7.74
510.247	7.7
510.448	7.73
510.65	7.76
510.851	7.73
511.052	7.75
511.254	7.79
511.455	7.77
511.656	7.67
511.857	7.68
512.058	7.62
512.26	7.49
512.461	7.54
512.662	7.66
512.863	7.55
513.064	7.53
513.265	7.52
513.466	7.45
513.667	7.39
513.868	7.43
514.069	7.34
514.27	7.34
514.471	7.28
514.672	7.29
514.873	7.23
515.074	7.32
515.275	7.27
515.476	7.34
515.677	7.33
515.878	7.46
516.079	7.47
516.28	7.56
516.481	7.5
516.682	7.46
516.882	7.38
517.083	7.35
517.284	7.36
517.485	7.38
517.686	7.39
517.886	7.37
518.087	7.29
518.288	7.24
518.488	7.25
518.689	7.25
518.89	7.28
519.091	7.36
519.291	7.35
519.492	7.36
519.692	7.35
519.893	7.36
520.094	7.3
520.294	7.31
520.495	7.29
520.695	7.3
520.896	7.27
521.096	7.3
521.297	7.33
521.497	7.34
521.698	7.32
521.898	7.3
522.099	7.3
522.299	7.28
522.499	7.27
522.7	7.28
522.9	7.33
523.101	7.27
523.301	7.27
523.501	7.3
523.702	7.29
523.902	7.3
524.102	7.48
524.302	7.51
524.503	7.48
524.703	7.44
524.903	7.46
525.103	7.34
525.304	7.29
525.504	7.34
525.704	7.36
525.904	7.27
526.104	7.25
526.304	7.26
526.504	7.22
526.705	7.27
526.905	7.35
527.105	7.39
527.305	7.43
527.505	7.43
527.705	7.43
527.905	7.53
528.105	7.53
528.305	7.53
528.505	7.58
528.705	7.6
528.905	7.57
529.105	7.65
529.304	7.67
529.504	7.74
529.704	7.77
529.904	7.78
530.104	7.71
530.304	7.67
530.503	7.64
530.703	7.6
530.903	7.6
531.103	7.72
531.303	7.77
531.502	7.83
531.702	7.91
531.902	7.98
532.101	7.93
532.301	7.98
532.501	7.96
532.7	7.96
532.9	7.93
533.1	7.95
533.299	7.96
533.499	7.97
533.698	7.99
533.898	8.05
534.097	8.11
534.297	8.12
534.496	8.14
534.696	8.16
534.895	8.21
535.095	8.23
535.294	8.28
535.494	8.31
535.693	8.34
535.892	8.3
536.092	8.31
536.291	8.33
536.491	8.38
536.69	8.41
536.889	8.42
537.088	8.44
537.288	8.44
537.487	8.45
537.686	8.45
537.886	8.53
538.085	8.53
538.284	8.58
538.483	8.59
538.682	8.58
538.882	8.56
539.081	8.6
539.28	8.59
539.479	8.62
539.678	8.67
539.877	8.66
540.076	8.71
540.275	8.73
540.474	8.74
540.673	8.76
540.872	8.87
541.071	8.9
541.27	8.98
541.469	9.02
541.668	9.08
541.867	9.11
542.066	9.07
542.265	9.12
542.464	9.14
542.663	9.19
542.862	9.25
543.06	9.39
543.259	9.39
543.458	9.46
543.657	9.47
543.856	9.46
544.054	9.4
544.253	9.44
544.452	9.48
544.651	9.57
544.849	9.59
545.048	9.64
545.247	9.72
545.445	9.72
545.644	9.77
545.843	9.81
546.041	9.84
546.24	9.84
546.438	9.92
546.637	9.94
546.836	10.01
547.034	10.12
547.233	10.13
547.431	10.2
547.63	10.24
547.828	10.27
548.027	10.3
548.225	10.4
548.423	10.43
548.622	10.43
548.82	10.5
549.019	10.51
549.217	10.59
549.415	10.59
549.614	10.77
549.812	10.88
550.01	10.94
550.209	11
550.407	11.08
550.605	11.09
550.803	11.16
551.002	11.24
551.2	11.22
551.398	11.35
551.596	11.38
551.794	11.46
551.993	11.55
552.191	11.69
552.389	11.76
552.587	11.86
552.785	11.81
552.983	11.93
553.181	11.99
553.379	12.05
553.577	12.11
553.775	12.24
553.973	12.3
554.171	12.38
554.369	12.51
554.567	12.61
554.765	12.65
554.963	12.71
555.161	12.86
555.359	12.91
555.557	13.01
555.755	13.19
555.952	13.31
556.15	13.36
556.348	13.38
556.546	13.56
556.744	13.61
556.941	13.66
557.139	13.74
557.337	13.92
557.535	13.92
557.732	14.04
557.93	14.17
558.128	14.24
558.325	14.3
558.523	14.43
558.721	14.53
558.918	14.63
559.116	14.74
559.313	14.9
559.511	15
559.708	15.14
559.906	15.29
560.104	15.39
560.301	15.43
560.498	15.47
560.696	15.46
560.893	15.52
561.091	15.64
561.288	15.79
561.486	15.88
561.683	16.03
561.88	16.17
562.078	16.23
562.275	16.34
562.473	16.5
562.67	16.58
562.867	16.67
563.064	16.86
563.262	16.88
563.459	16.97
563.656	17.15
563.853	17.08
564.051	17.2
564.248	17.37
564.445	17.54
564.642	17.61
564.839	17.86
565.036	17.9
565.234	18.03
565.431	18.14
565.628	18.31
565.825	18.39
566.022	18.59
566.219	18.61
566.416	18.69
566.613	18.78
566.81	18.96
567.007	18.96
567.204	19.1
567.401	19.22
567.598	19.22
567.795	19.33
567.991	19.42
568.188	19.63
568.385	19.64
568.582	19.85
568.779	19.89
568.976	19.98
569.172	19.97
569.369	20.14
569.566	20.15
569.763	20.1
569.96	20.22
570.156	20.33
570.353	20.27
570.55	20.37
570.746	20.57
570.943	20.58
571.14	20.55
571.336	20.61
571.533	20.7
571.729	20.79
571.926	20.94
572.123	21.1
572.319	21.22
572.516	21.32
572.712	21.27
572.909	21.2
573.105	21.32
573.302	21.38
573.498	21.34
573.695	21.49
573.891	21.58
574.087	21.44
574.284	21.43
574.48	21.53
574.677	21.44
574.873	21.55
575.069	21.69
575.266	21.74
575.462	21.69
575.658	21.84
575.854	21.96
576.051	21.99
576.247	22
576.443	22.04
576.639	22.02
576.835	21.84
577.032	21.82
577.228	21.9
577.424	21.9
577.62	22
577.816	22.04
578.012	22.06
578.208	22.11
578.404	22.1
578.6	22.13
578.796	22.21
578.993	22.33
579.189	22.3
579.384	22.46
579.58	22.44
579.776	22.46
579.972	22.46
580.168	22.49
580.364	22.52
580.56	22.45
580.756	22.42
580.952	22.38
581.148	22.43
581.343	22.41
581.539	22.45
581.735	22.43
581.931	22.41
582.127	22.31
582.322	22.24
582.518	22.28
582.714	22.23
582.909	22.25
583.105	22.21
583.301	22.16
583.496	22.05
583.692	22.04
583.888	22.07
584.083	22.12
584.279	22.06
584.474	22.05
584.67	22.07
584.866	21.98
585.061	21.91
585.257	21.96
585.452	22.02
585.648	22.05
585.843	22
586.039	22.13
586.234	22.23
586.429	22.14
586.625	22.17
586.82	22.27
587.015	22.13
587.211	22.04
587.406	22.12
587.601	22.09
587.797	22.08
587.992	22.09
588.187	22.1
588.383	22.11
588.578	22.14
588.773	22.16
588.968	22.24
589.163	22.35
589.359	22.29
589.554	22.25
589.749	22.27
589.944	22.27
590.139	22.2
590.334	22.32
590.529	22.35
590.724	22.41
590.919	22.49
591.114	22.55
591.309	22.56
591.504	22.66
591.699	22.66
591.894	22.65
592.089	22.67
592.284	22.64
592.479	22.57
592.674	22.61
592.869	22.64
593.064	22.68
593.259	22.79
593.454	22.87
593.648	22.96
593.843	22.98
594.038	23.06
594.233	23.19
594.428	23.3
594.622	23.39
594.817	23.6
595.012	23.68
595.206	23.68
595.401	23.75
595.596	23.81
595.79	23.81
595.985	23.82
596.18	23.89
596.374	23.99
596.569	24.02
596.763	24.07
596.958	24.26
597.153	24.31
597.347	24.36
597.542	24.46
597.736	24.62
597.931	24.63
598.125	24.77
598.319	24.81
598.514	24.87
598.708	24.92
598.903	25.01
599.097	25.1
599.291	25.2
599.486	25.24
599.68	25.24
599.874	25.3
600.069	25.29
600.263	25.33
600.457	25.42
600.651	25.47
600.846	25.44
601.04	25.54
601.234	25.6
601.428	25.67
601.622	25.81
601.817	25.82
602.011	25.8
602.205	25.85
602.399	25.78
602.593	25.72
602.787	25.83
602.981	25.82
603.175	25.87
603.369	25.85
603.563	25.96
603.757	25.96
603.951	26.06
604.145	26.03
604.339	26.18
604.533	26.11
604.727	26.03
604.921	25.97
605.115	25.98
605.309	25.85
605.502	25.84
605.696	25.86
605.89	25.9
606.084	25.8
606.278	25.86
606.471	25.83
606.665	25.74
606.859	25.55
607.053	25.52
607.246	25.38
607.44	25.22
607.634	25.28
607.827	25.24
608.021	25.16
608.214	25.08
608.408	25.01
608.602	24.86
608.795	24.86
608.989	24.81
609.182	24.82
609.376	24.83
609.569	24.84
609.763	24.83
609.956	24.68
610.15	24.49
610.343	24.38
610.537	24.25
610.73	24
610.923	24.05
611.117	24.15
611.31	24.14
611.504	24.1
611.697	24.12
611.89	23.98
612.083	23.72
612.277	23.71
612.47	23.67
612.663	23.57
612.856	23.48
613.05	23.53
613.243	23.27
613.436	23.12
613.629	23.04
613.822	22.97
614.015	22.86
614.209	22.85
614.402	22.79
614.595	22.73
614.788	22.67
614.981	22.53
615.174	22.42
615.367	22.38
615.56	22.29
615.753	22.28
615.946	22.27
616.139	22.15
616.332	22.09
616.525	22.05
616.718	22.02
616.911	21.92
617.103	22.01
617.296	21.94
617.489	21.89
617.682	21.83
617.875	21.8
618.067	21.73
618.26	21.69
618.453	21.58
618.646	21.53
618.838	21.43
619.031	21.34
619.224	21.22
619.417	21.26
619.609	21.21
619.802	21.23
619.994	21.26
620.187	21.25
620.38	21.14
620.572	21.13
620.765	21.05
620.957	20.91
621.15	20.87
621.342	20.89
621.535	20.84
621.727	20.93
621.92	20.96
622.112	20.9
622.305	20.8
622.497	20.77
622.69	20.72
622.882	20.75
623.074	20.82
623.267	20.79
623.459	20.68
623.651	20.62
623.844	20.56
624.036	20.51
624.228	20.58
624.42	20.56
624.613	20.53
624.805	20.46
624.997	20.41
625.189	20.38
625.381	20.41
625.574	20.34
625.766	20.26
625.958	20.25
626.15	20.2
626.342	20.12
626.534	20.15
626.726	20.17
626.918	20.19
627.11	20.11
627.302	20.15
627.494	20.15
627.686	20.11
627.878	19.96
628.07	19.98
628.262	19.94
628.454	19.9
628.646	19.94
628.838	20.04
629.029	19.98
629.221	19.96
629.413	19.92
629.605	19.86
629.797	19.85
629.989	19.85
630.18	19.86
630.372	19.83
630.564	19.79
630.755	19.73
630.947	19.65
631.139	19.53
631.33	19.43
631.522	19.42
631.714	19.36
631.905	19.41
632.097	19.36
632.289	19.4
632.48	19.36
632.672	19.3
632.863	19.16
633.055	19.26
633.246	19.26
633.438	19.21
633.629	19.16
633.821	19.24
634.012	19.12
634.203	19.06
634.395	19.05
634.586	19.06
634.777	19.05
634.969	19.07
635.16	19.07
635.351	19.06
635.543	19.01
635.734	18.91
635.925	18.91
636.117	18.9
636.308	18.9
636.499	18.89
636.69	18.9
636.881	18.86
637.073	18.89
637.264	18.82
637.455	18.84
637.646	18.88
637.837	18.87
638.028	18.83
638.219	18.88
638.41	18.93
638.601	18.85
638.792	18.84
638.983	18.8
639.174	18.72
639.365	18.64
639.556	18.59
639.747	18.61
639.938	18.63
640.129	18.62
640.32	18.63
640.511	18.63
640.701	18.55
640.892	18.44
641.083	18.45
641.274	18.34
641.465	18.28
641.655	18.27
641.846	18.31
642.037	18.32
642.228	18.36
642.418	18.37
642.609	18.34
642.8	18.28
642.99	18.25
643.181	18.26
643.372	18.25
643.562	18.19
643.753	18.18
643.943	18.1
644.134	17.93
644.324	17.93
644.515	17.95
644.705	17.95
644.896	17.92
645.086	18
645.277	17.92
645.467	17.92
645.658	17.8
645.848	17.81
646.038	17.67
646.229	17.65
646.419	17.48
646.61	17.63
646.8	17.56
646.99	17.65
647.18	17.64
647.371	17.63
647.561	17.39
647.751	17.36
647.941	17.3
648.132	17.23
648.322	17.26
648.512	17.4
648.702	17.47
648.892	17.54
649.082	17.57
649.272	17.63
649.462	17.55
649.653	17.41
649.843	17.33
650.033	17.33
650.223	17.26
650.413	17.28
650.603	17.37
650.793	17.37
650.983	17.22
651.172	17.15
651.362	17
651.552	16.91
651.742	16.87
651.932	16.9
652.122	16.89
652.312	16.87
652.502	16.73
652.691	16.59
652.881	16.52
653.071	16.44
653.261	16.39
653.45	16.36
653.64	16.27
653.83	16.14
654.019	15.91
654.209	15.78
654.399	15.62
654.588	15.44
654.778	15.27
654.968	15.27
655.157	15.06
655.347	14.8
655.536	14.65
655.726	14.44
655.915	14.19
656.105	14.04
656.294	13.94
656.484	13.79
656.673	13.77
656.863	13.67
657.052	13.59
657.241	13.46
657.431	13.29
657.62	13.12
657.809	12.84
657.999	12.71
658.188	12.61
658.377	12.36
658.567	12.25
658.756	12.14
658.945	11.87
659.134	11.6
659.324	11.52
659.513	11.21
659.702	11.01
659.891	10.82
660.08	10.63
660.269	10.44
660.458	10.32
660.648	10.19
660.837	10.08
661.026	9.85
661.215	9.66
661.404	9.43
661.593	9.27
661.782	9.05
661.971	8.9
662.16	8.76
662.349	8.58
662.538	8.42
662.726	8.21
662.915	8.11
663.104	7.99
663.293	7.95
663.482	7.81
663.671	7.71
663.86	7.57
664.048	7.46
664.237	7.37
664.426	7.23
664.615	7.1
664.803	7.02
664.992	6.87
665.181	6.68
665.369	6.54
665.558	6.51
665.747	6.5
665.935	6.39
666.124	6.39
666.312	6.36
666.501	6.4
666.69	6.29
666.878	6.22
667.067	6.04
667.255	5.98
667.444	5.9
667.632	5.87
667.82	5.88
668.009	5.94
668.197	5.88
668.386	5.77
668.574	5.71
668.762	5.6
668.951	5.55
669.139	5.51
669.327	5.4
669.516	5.33
669.704	5.33
669.892	5.3
670.08	5.25
670.269	5.36
670.457	5.33
670.645	5.34
670.833	5.37
671.021	5.45
671.21	5.37
671.398	5.46
671.586	5.5
671.774	5.52
671.962	5.5
672.15	5.55
672.338	5.53
672.526	5.51
672.714	5.51
672.902	5.54
673.09	5.63
673.278	5.65
673.466	5.68
673.654	5.64
673.842	5.67
674.03	5.56
674.218	5.59
674.405	5.58
674.593	5.6
674.781	5.61
674.969	5.74
675.157	5.81
675.344	5.85
675.532	5.88
675.72	5.87
675.908	5.82
676.095	5.76
676.283	5.9
676.471	6.02
676.658	6.12
676.846	6.16
677.033	6.23
677.221	6.23
677.409	6.26
677.596	6.28
677.784	6.35
677.971	6.29
678.159	6.34
678.346	6.47
678.534	6.53
678.721	6.67
678.909	6.83
679.096	6.87
679.283	6.89
679.471	7.04
679.658	7.08
679.846	7.15
680.033	7.47
680.22	7.59
680.408	7.62
680.595	7.77
680.782	8.02
680.969	8.15
681.157	8.2
681.344	8.3
681.531	8.46
681.718	8.47
681.905	8.45
682.093	8.68
682.28	8.85
682.467	9.05
682.654	9.28
682.841	9.5
683.028	9.64
683.215	9.85
683.402	9.88
683.589	10.06
683.776	10.24
683.963	10.4
684.15	10.73
684.337	11.11
684.524	11.47
684.711	11.69
684.898	11.95
685.085	12
685.271	12.29
685.458	12.42
685.645	12.64
685.832	12.97
686.019	13.53
686.205	13.85
686.392	14.33
686.579	14.84
686.766	15.1
686.952	15.37
687.139	15.71
687.326	16.11
687.512	16.45
687.699	17.11
687.886	17.47
688.072	17.95
688.259	18.51
688.445	19.07
688.632	19.47
688.818	20.18
689.005	20.82
689.191	21.24
689.378	21.71
689.564	22.52
689.751	23.17
689.937	23.77
690.124	24.5
690.31	25.17
690.496	25.65
690.683	26.27
690.869	26.82
691.055	27.42
691.242	28.05
691.428	28.65
691.614	29.33
691.8	30.06
691.987	30.89
692.173	31.65
692.359	32.59
692.545	33.39
692.731	34.12
692.918	34.88
693.104	35.77
693.29	36.35
693.476	37.17
693.662	38.03
693.848	38.53
694.034	39.31
694.22	40.39
694.406	40.97
694.592	41.69
694.778	42.54
694.964	43.26
695.15	43.91
695.336	44.71
695.522	45.33
695.708	46.26
695.894	47
696.08	47.73
696.265	48.56
696.451	49.27
696.637	49.94
696.823	50.67
697.009	51.37
697.194	51.95
697.38	52.64
697.566	53.25
697.751	53.67
697.937	54.38
698.123	55.13
698.308	55.71
698.494	56.47
698.68	57.25
698.865	57.8
699.051	58.49
699.236	59.4
699.422	59.95
699.607	60.6
699.793	61.31
699.978	61.72
700.164	62.1
700.349	62.7
700.535	62.99
700.72	63.31
700.906	63.88
701.091	64.54
701.276	64.82
701.462	65.7
701.647	66.48
701.832	67.22
702.018	67.82
702.203	68.42
702.388	68.69
702.573	68.91
702.759	69.19
702.944	69.44
703.129	69.7
703.314	70.09
703.499	70.56
703.684	71.03
703.87	71.44
704.055	71.89
704.24	72.11
704.425	72.15
704.61	72.47
704.795	72.87
704.98	73.02
705.165	73.46
705.35	74.04
705.535	74.12
705.72	74.3
705.905	75.08
706.09	75.61
706.275	75.85
706.459	76.44
706.644	76.96
706.829	77.23
707.014	77.6
707.199	77.92
707.384	77.63
707.568	77.7
707.753	77.78
707.938	77.66
708.123	77.81
708.307	78.65
708.492	78.94
708.677	78.86
708.861	79.26
709.046	79.61
709.231	79.24
709.415	79.44
709.6	79.73
709.784	80.03
709.969	80.29
710.153	80.54
710.338	81.12
710.522	81.45
710.707	81.28
710.891	81.42
711.076	81.42
711.26	81.08
711.445	81.38
711.629	81.71
711.813	81.9
711.998	82.1
712.182	81.97
712.366	82.63
712.551	82.85
712.735	82.54
712.919	82.8
713.103	83.68
713.288	83.31
713.472	83.31
713.656	83.47
713.84	83.88
714.024	83.64
714.208	83.4
714.393	83.69
714.577	83.83
714.761	83.91
714.945	83.94
715.129	84
715.313	84.08
715.497	84.42
715.681	84.29
715.865	84.3
716.049	84.74
716.233	84.57
716.417	84.76
716.601	85.1
716.785	85.72
716.968	85.61
717.152	85.85
717.336	85.99
717.52	86.24
717.704	86.12
717.888	86.28
718.071	86.4
718.255	86.44
718.439	86.03
718.622	86.01
718.806	85.69
718.99	85.39
719.174	85.29
719.357	85.65
719.541	85.7
719.724	86.18
719.908	86.49
720.092	86.26
720.275	86.7
720.459	86.64
720.642	86.94
720.826	86.68
721.009	86.76
721.193	85.98
721.376	86.23
721.559	86.13
721.743	87.17
721.926	87.79
722.11	88.72
722.293	89.48
722.476	89.33
722.66	89.12
722.843	89.08
723.026	89.14
723.21	88.42
723.393	88.9
723.576	88.39
723.759	89.03
723.942	88.44
724.126	88.36
724.309	88.07
724.492	88.28
724.675	87.93
724.858	88.06
725.041	88.08
725.224	88.71
725.407	88.83
725.59	88.21
725.774	87.96
725.957	88.46
726.14	87.82
726.322	88.26
726.505	88.49
726.688	88.97
726.871	88.4
727.054	88.79
727.237	88.39
727.42	88.03
727.603	88.12
727.786	88.31
727.968	88.33
728.151	88.38
728.334	88.9
728.517	88.91
728.699	89.07
728.882	88.95
729.065	88.69
729.248	89.03
729.43	88.92
729.613	89.14
729.796	89.71
729.978	90.12
730.161	90.27
730.343	90.44
730.526	90.2
730.708	89.64
730.891	90.04
731.073	89.75
731.256	89.93
731.438	90.95
731.621	91.42
731.803	90.77
731.986	91.07
732.168	91.51
732.35	90.8
732.533	90.37
732.715	91.14
732.898	90.63
733.08	89.82
733.262	89.98
733.444	90.58
733.627	90.33
733.809	90.98
733.991	91.92
734.173	91.85
734.355	91.41
734.538	91.39
734.72	91.56
734.902	91.5
735.084	90.89
735.266	91.39
735.448	91.62
735.63	91.82
735.812	91.6
735.994	91.98
736.176	92.18
736.358	92.56
736.54	92.48
736.722	92.04
736.904	92.54
737.086	91.93
737.268	92.45
737.45	92.65
737.632	92.8
737.814	93.29
737.995	93.19
738.177	92.46
738.359	92.16
738.541	92.67
738.723	92.08
738.904	92.58
739.086	92.83
739.268	93.11
739.449	92.58
739.631	92.52
739.813	92.49
739.994	91.96
740.176	91.95
740.358	93.22
740.539	92.68
740.721	93.14
740.902	92.9
741.084	92.72
741.265	92.26
741.447	93.67
741.628	93.23
741.81	94.38
741.991	94.49
742.172	94.2
742.354	93.6
742.535	93.55
742.717	92.38
742.898	92.28
743.079	93
743.261	92.79
743.442	92.15
743.623	92.01
743.804	92.3
743.986	91.65
744.167	91.53
744.348	91.61
744.529	92.19
744.71	91.29
744.891	90.65
745.073	91.04
745.254	91.91
745.435	92.02
745.616	92.16
745.797	92.29
745.978	92.55
746.159	91.28
746.34	91.87
746.521	92.19
746.702	92.89
746.883	92.7
747.064	94.37
747.245	94.69
747.426	94.59
747.606	94.19
747.787	94
747.968	92.13
748.149	89.95
748.33	89.47
748.51	87.86
748.691	87.47
748.872	89.05
749.053	89.43
749.233	90.05
749.414	91.99
749.595	91.72
749.775	91.17
749.956	91.75
750.137	91.64
750.317	89.89
750.498	89.34
750.678	88.86
750.859	89.21
751.04	88.72
751.22	89.52
751.4	91.66
751.581	92.15
751.761	92.78
751.942	94.89
752.122	94.75
752.303	94.27
752.483	93.48
752.663	92.68
752.844	90.12
753.024	90.98
753.204	90.92
753.385	92.25
753.565	91.49
753.745	91.65
753.925	91.03
754.106	90.98
754.286	88.84
754.466	89.82
754.646	90.11
754.826	91.78
755.006	90.3
755.187	92.57
755.367	91.4
755.547	92.35
755.727	91.9
755.907	92.56
756.087	91.56
756.267	90.38
756.447	90.82
756.627	90.7
756.807	91.71
756.987	92.17
757.167	94.64
757.346	92.54
757.526	92.49
757.706	92.52
757.886	91.92
758.066	91.19
758.246	91.05
758.425	89.67
758.605	89.44
758.785	89.85
758.965	90.7
759.144	91.81
759.324	94.12
759.504	92.79
759.683	91.3
759.863	90.98
760.043	89.66
760.222	87.69
760.402	86.88
760.581	88.23
760.761	87.81
760.94	89.05
761.12	88.78
761.299	90.32
761.479	90.35
761.658	91.15
761.838	92
762.017	91.22
762.197	89.59
762.376	89.66
762.555	88.65
762.735	87.8
762.914	88.67
763.093	89.75
763.273	90.01
763.452	88.94
763.631	88.33
763.81	88.99
763.99	89.07
764.169	89.09
764.348	89.66
764.527	88.79
764.706	88.23
764.885	89.29
765.064	88.31
765.243	87.47
765.423	88.15
765.602	88.98
765.781	88.05
765.96	88.44
766.139	89.33
766.318	90.68
766.497	88.8
766.676	87.9
766.854	88.76
767.033	90.6
767.212	90.23
767.391	92.58
767.57	95.05
767.749	93.69
767.928	93.49
768.106	92.31
768.285	90.53
768.464	89.98
768.643	89.78
768.821	87.63
769	87.46
769.179	88.24
769.357	88.27
769.536	86.44
769.715	86.05
769.893	87.33
770.072	85.5
770.25	83.81
770.429	86.52
770.607	88.15
770.786	87.31
770.964	89.07
771.143	90.57
771.321	88.4
771.5	86.99
771.678	86.04
771.857	84.63
772.035	84.67
772.213	86.04
772.392	85.9
772.57	86.1
772.748	87.07
772.927	86.71
773.105	88.58
773.283	88.99
773.461	91.29
773.64	91.43
773.818	90.85
773.996	89.93
774.174	91.24
774.352	89.17
774.531	88.23
774.709	87.31
774.887	84.1
775.065	83.35
775.243	83.82
775.421	81.79
775.599	83.2
775.777	85
775.955	83.9
776.133	84.1
776.311	87.61
776.489	85.6
776.667	85.31
776.844	84.66
777.022	84.78
777.2	83.5
777.378	83.43
777.556	85.3
777.734	86.73
777.911	87.89
778.089	89.07
778.267	92.02
778.445	94.25
778.622	94.65
778.8	90.09
778.978	89.71
779.155	89.28
779.333	85.17
779.511	83.3
779.688	87.67
779.866	87.17
780.043	85.71
780.221	86.64
780.398	87.3
780.576	86.3
780.753	84.36
780.931	85.27
781.108	85.35
781.286	85.33
781.463	82.25
781.64	83.21
781.818	81.43
781.995	79.46
782.172	79.46
782.35	82.4
782.527	84.12
782.704	85.62
782.882	86.19
783.059	85.58
783.236	84.68
783.413	80.92
783.59	79.91
783.768	80.02
783.945	82.58
784.122	81.44
784.299	84.46
784.476	82.47
784.653	81.37
784.83	79.69
785.007	81.38
785.184	79.05
785.361	81.12
785.538	80.67
785.715	82.52
785.892	79.54
786.069	82.31
786.246	81.87
786.423	83.29
786.6	82.76
786.776	80.48
786.953	77.84
787.13	76.96
787.307	77.1
787.484	72.14
787.66	75.7
787.837	76.41
788.014	78.2
788.191	77.41
788.367	82.11
788.544	84.74
788.721	83.89
788.897	83.82
789.074	84.45
789.25	84.7
789.427	81.47
789.603	80.68
789.78	79.09
789.956	75.81
790.133	72.43
790.309	72.27
790.486	74.45
790.662	74.42
790.839	75.17
791.015	79.53
791.192	80.46
791.368	79.51
791.544	81.44
791.721	82.89
791.897	78.46
792.073	79.51
792.249	79.86
792.426	79.29
792.602	79.65
792.778	81.03
792.954	76.74
793.13	73.02
793.307	70.82
793.483	69.55
793.659	70.53
793.835	73.07
794.011	79.49
794.187	79.52
794.363	82.33
794.539	84.44
794.715	84.33
794.891	80.47
795.067	80.03
795.243	79.75
795.419	76.28
795.595	79.98
795.771	78.54
795.947	75.46
796.122	71.53
796.298	71.04
796.474	69.44
796.65	76.15
796.826	80.04
797.001	81.78
797.177	79.93
797.353	77.59
797.529	73.63
797.704	73.64
797.88	73.74
798.056	74.29
798.231	73.91
798.407	74.85
798.582	75.07
798.758	73.76
798.934	78.47
799.109	78.81
799.285	76.78
799.46	72.33
799.636	71.18
799.811	71.68
799.986	70.09
800.162	61.76
800.337	65.83
800.513	67.45
800.688	60.46
800.863	66.16
801.039	76.49
801.214	72.83
801.389	73.24
801.565	78.51
801.74	73.32
801.915	75.34
802.09	75.01
802.265	74.73
802.441	71.85
802.616	72.06
802.791	70.76
802.966	72.65
803.141	75.26
803.316	78.64
803.491	77.39
803.666	76.51
803.841	72.51
804.016	69.18
804.191	65.53
804.366	66.03
804.541	64.61
804.716	68.41
804.891	66.34
805.066	70.96
805.241	69.61
805.416	79.44
805.591	82.31
805.765	88.86
805.94	78.45
806.115	78.25
806.29	67.63
806.464	63.83
806.639	59.77
806.814	66.79
806.989	71.19
807.163	74.4
807.338	77.22
807.512	78.95
807.687	80.4
807.862	82.96
808.036	86.71
808.211	84.93
808.385	81.24
808.56	75.48
808.734	63.01
808.909	63.12
809.083	62.94
809.258	69.45
809.432	67.32
809.606	75.35
809.781	73.94
809.955	77.73
810.13	69.18
810.304	76.1
810.478	78.06
810.652	69.62
810.827	69.15
811.001	72.72
811.175	70.22
811.349	68.24
811.524	76.62
811.698	75.49
811.872	82.81
812.046	79.42
812.22	80.32
812.394	75.51
812.568	74.52
812.742	59.39
812.916	64.87
813.09	61.57
813.264	58.95
813.438	56.09
813.612	56.46
813.786	53.93
813.96	56.89
814.134	57.06
814.308	57.36
814.482	60.57
814.656	58.59
814.83	57.57
815.003	64.83
815.177	67.13
815.351	77.69
815.525	88.39
815.698	76.55
815.872	63.63
816.046	61.72
816.219	58.28
816.393	46.97
816.567	60.86
816.74	69.47
816.914	79.73
817.088	73.52
817.261	75.78
817.435	72.33
817.608	66.28
817.782	50.47
817.955	55.25
818.129	57.74
818.302	67.09
818.475	73.29
818.649	75.76
818.822	79.44
818.996	82.48
819.169	80.32
819.342	79.39
819.516	91.36
819.689	81.97
819.862	81.42
820.035	78.96
820.209	74.03
820.382	58.94
820.555	59.83
820.728	55.96
820.901	48.05
821.075	54.48
821.248	69.3
821.421	73.89
821.594	70.73
821.767	70.23
821.94	66.34
822.113	67.45
822.286	72.15
822.459	83.15
822.632	80.92
822.805	71.9
822.978	62.39
823.151	54.25
823.324	35.36
823.496	31.78
823.669	45.55
823.842	57.22
824.015	61.09
824.188	63.86
824.361	66.52
824.533	62.71
824.706	56.88
824.879	66.45
825.051	66.62
825.224	62.93
825.397	60.41
825.569	51.77
825.742	41.08
825.915	39.92
826.087	34.74
826.26	39.04
826.432	46.71
826.605	48.75
826.777	52.75
826.95	62.77
827.122	53.99
827.295	68.98
827.467	74.27
827.64	72.98
827.812	85.98
827.984	82.29
828.157	65.22
828.329	61.22
828.501	69.29
828.674	64.48
828.846	67.16
829.018	61.05
829.19	48.88
829.363	39.77
829.535	31.05
829.707	34.98
829.879	33.48
830.051	36.09
830.223	51.66
830.395	58.83
830.568	56.38
830.74	52.83
830.912	58.26
831.084	56.36
831.256	47.21
831.428	56.81
831.6	54.11
831.772	50.62
831.943	43.39
832.115	44.13
832.287	40.89
832.459	49.8
832.631	56.41
832.803	55.22
832.975	61.91
833.146	56.38
833.318	52.45
833.49	50.83
833.662	77.52
833.833	73.67
834.005	66.87
834.177	64.16
834.348	68.22
834.52	45.08
834.692	43.82
834.863	53.33
835.035	67.51
835.206	52.31
835.378	53.65
835.549	59.08
835.721	47.61
835.892	48.04
836.064	54.43
836.235	52.48
836.407	49.88
836.578	66.71
836.749	47.8
836.921	57.15
837.092	60.42
837.264	57.93
837.435	40.43
837.606	55.5
837.777	49.29
837.949	52.5
838.12	45.01
838.291	57.29
838.462	52.81
838.633	50.99
838.805	41.66
838.976	37.89
839.147	40.61
839.318	44.92
839.489	43.14
839.66	47.82
839.831	46.62
840.002	40.9
840.173	32.35
840.344	27.08
840.515	16.41
840.686	28.03
840.857	26.41
841.028	28.29
841.199	38.29
841.369	40.66
841.54	16.98
841.711	43.07
841.882	60.12
842.053	51.59
842.223	59.59
842.394	64.36
842.565	29.99
842.736	21.65
842.906	11.39
843.077	11.91
843.248	19.02
843.418	30.64
843.589	28.77
843.759	56.32
843.93	62.52
844.101	75.4
844.271	100.43
844.442	100.14
844.612	58.76
844.783	46.86
844.953	20.74
845.123	-2.22
845.294	3.86
845.464	-5.69
845.635	-5.14
845.805	-3.36
845.975	38.38
846.146	8.39
846.316	2.95
846.486	6.24
846.656	11.88
846.827	11.46
846.997	24.09
847.167	16.43
847.337	18.32
847.507	27.03
847.677	26.53
847.848	32.58
848.018	51.01
848.188	57.18
848.358	57.27
848.528	51.04
848.698	36.9
848.868	29.9
849.038	23.25
849.208	23.84
849.378	27.35
849.548	14.31
849.718	19.89
849.887	3.92
850.057	-0.88
850.227	37.45
850.397	44.68
850.567	47.64
850.737	61.27
850.906	34.2
851.076	-12.07
851.246	-2.41
851.415	-5.21
851.585	-26.71
851.755	35.98
851.924	58.62
852.094	45.08
852.264	40.86
852.433	49.9
852.603	4.01
852.772	2.91
852.942	38.47
853.111	20.52
853.281	33.88
853.45	49.36
853.62	45.37
853.789	14.51
853.959	24.82
854.128	4.91
854.297	24.19
854.467	26.1
854.636	30.72
854.805	14.55
854.975	19.25
855.144	5.38
855.313	5.96
855.482	2.75
855.652	-4.87
855.821	-14.38
855.99	-0.41
856.159	6.54
856.328	31.55
856.497	43.2
856.667	70.35
856.836	63.38
857.005	56.72
857.174	40.41
857.343	46.92
857.512	30.49
857.681	4.48
857.85	5.74
858.019	-4.68
858.188	-21.19
858.356	-11.41
858.525	18.59
858.694	29.05
858.863	40.62
859.032	54.69
859.201	46.83
859.369	20.83
859.538	24.37
859.707	9.66
859.876	21.93
860.044	57.85
860.213	72.52
860.382	73.9
860.55	66.36
860.719	67.38
860.888	52.6
861.056	50.72
861.225	43.6
861.393	50.53
861.562	52.12
861.73	31.58
861.899	18.34
862.067	9.19
862.236	-6.39
862.404	-11.57
862.572	-25.39
862.741	-46.21
862.909	-43.17
863.078	-32.23
863.246	-45.13
863.414	-14.49
863.582	2.85
863.751	-8.79
863.919	15.44
864.087	31.05
864.255	35.01
864.424	6.9
864.592	34.38
864.76	14.85
864.928	3.34
865.096	-11.65
865.264	12.4
865.432	15.16
865.6	29.74
865.768	41.69
865.936	61.57
866.104	48.39
866.272	29.12
866.44	35.48
866.608	33.13
866.776	56.47
866.944	83.37
867.112	69.8
867.28	56.34
867.448	51.21
867.615	26.64
867.783	-6.79
867.951	-16.39
868.119	-46.35
868.286	-74.26
868.454	-29.51
868.622	4.11
868.789	13.16
868.957	26.77
869.125	53.32
869.292	46.06
869.46	33.74
869.627	23.45
869.795	12.46
869.963	14.47
870.13	39.63
870.298	26.19
870.465	50.4
870.632	40.01
870.8	11.98
870.967	-6.83
871.135	-39.81
871.302	-12.52
871.469	-1
871.637	-35.88
871.804	-2.21
871.971	23.44
872.139	2.22
872.306	-38.06
872.473	-45.08
872.64	-179.05
872.807	-161.91
872.975	-362.73
873.142	-78.42
873.309	-44.43
873.476	27.54
873.643	57.76
873.81	54.15
873.977	83.08
874.144	88.16
874.311	8.62
874.478	-47.7
874.645	-114.5
874.812	-50.85
874.979	-69.14
875.146	-33.93
875.313	-9.61
875.48	52.43
875.647	47.39
875.813	17.17
875.98	-0.14
876.147	-16.17
876.314	-5.68
876.481	-22.43
876.647	20.95
876.814	31.42
876.981	12.41
877.147	-0.1
877.314	9.13
877.481	12.24
877.647	10.86
877.814	20.57
877.98	24.88
878.147	51.28
878.314	56.95
878.48	64.93
878.647	68.21
878.813	92.57
878.979	52.74
879.146	54.58
879.312	65.24
879.479	49.67
879.645	16.05
879.811	3.33
879.978	10.75
880.144	4.17
880.31	-0.68
880.477	33.03
880.643	24.14
880.809	-30.17
880.975	-49.87
881.142	-101.04
881.308	464.06
881.474	699.79
881.64	-144.61
881.806	-165.32
881.972	-68
882.138	-31.94
882.304	-15.73
882.47	1.64
882.636	-17.16
882.802	8.36
882.968	22.68
883.134	24.07
883.3	11.86
883.466	35.46
883.632	1.69
883.798	-31.81
883.964	-103.42
884.129	-892.58
884.295	-72.41
884.461	-90.97
884.627	-17.71
884.793	-7.96
884.958	38.2
885.124	8.91
885.29	-24.05
885.455	-66.63
885.621	-9.6
885.787	1.25
885.952	7.05
886.118	51.56
886.283	37.62
886.449	14.17
886.614	6.52
886.78	-3.14
886.945	-69.94
887.111	-66.52
887.276	-102.7
887.442	-233.63
887.607	-151.24
887.773	-63.47
887.938	-23.56
888.103	-5.97
888.269	29.87
888.434	22.84
888.599	-7.1
888.764	-7.65
888.93	-3.21
889.095	-18.59
889.26	-39.47
889.425	-29.51
889.59	-69.6
889.756	-44.25
889.921	-36.97
890.086	-105.48
890.251	-76.39
890.416	-28.25
890.581	-20.43
890.746	27.28
890.911	37.88
891.076	26.52
891.241	37.26
891.406	29.41
891.571	7.91
891.736	-7.96
891.901	69.12
892.065	36.08
892.23	4.46
892.395	-20.96
892.56	-15.03
892.725	-173.54
892.889	-246.56
893.054	-92.21
893.219	-84.52
893.384	-102.52
893.548	-70.11
893.713	-127.19
893.878	-181.41
