Data from Ofra_PS_T2_2A_2GT38_Reflection_3.txt Node
Date: Wed Jul 21 17:04:21 EDT 2021
User: Adam
Spectrometer: FLMT01687
Trigger mode: 0
Integration Time (sec): 1.100000E0
Scans to average: 2
Electric dark correction enabled: true
Nonlinearity correction enabled: false
Boxcar width: 2
XAxis mode: Wavelengths
Number of Pixels in Spectrum: 3648
>>>>>Begin Spectral Data<<<<<
179.494	595.4
179.716	653.88
179.937	637.15
180.158	608.56
180.38	987.03
180.601	507.87
180.823	122.31
181.044	-13.63
181.265	137.68
181.486	32.51
181.708	15.53
181.929	351.53
182.15	-335.56
182.372	44.17
182.593	10.02
182.814	1.85
183.035	44.13
183.257	56.42
183.478	8.03
183.699	6.01
183.92	15.06
184.141	17.3
184.363	-12.08
184.584	55.08
184.805	48.23
185.026	53.91
185.247	43.31
185.468	33.2
185.689	3.97
185.91	10.08
186.132	10.64
186.353	15.45
186.574	41.74
186.795	45.93
187.016	26.52
187.237	12.5
187.458	13.67
187.679	12.63
187.9	6.26
188.121	-4.29
188.342	10.37
188.563	8.2
188.784	48.81
189.005	72.43
189.226	98.69
189.447	92.77
189.667	161.04
189.888	-192.73
190.109	-971.75
190.33	-387.9
190.551	-956.86
190.772	-208.05
190.993	-157.82
191.214	-130.62
191.434	-100.34
191.655	-10.46
191.876	-70.03
192.097	-132.91
192.318	-191.44
192.538	-310.92
192.759	-219.78
192.98	-94.43
193.201	-16.28
193.421	11.52
193.642	29.64
193.863	39.36
194.083	5.38
194.304	-17.76
194.525	-19.81
194.745	-59.94
194.966	-79.48
195.187	-53.31
195.407	-54.93
195.628	-105.65
195.848	-119.33
196.069	-106.71
196.29	-56.47
196.51	-71.22
196.731	-47.92
196.951	-37.79
197.172	-50.76
197.392	-82.37
197.613	-79.5
197.833	-129.98
198.054	-100.22
198.274	-65.22
198.495	-84.32
198.715	-51.39
198.936	-66.29
199.156	-61.5
199.377	-148.83
199.597	-134.19
199.817	-146.52
200.038	-60.58
200.258	-120.96
200.479	-49.63
200.699	-54.28
200.919	-10.99
201.14	-33.75
201.36	-30.87
201.58	1.51
201.801	29.43
202.021	4.1
202.241	4.93
202.461	-3.94
202.682	-98.49
202.902	-154.55
203.122	-91.45
203.342	-71.67
203.563	-42.31
203.783	12.45
204.003	-43.67
204.223	-42.03
204.443	11.95
204.663	12.58
204.884	5.71
205.104	46.69
205.324	76.92
205.544	51.5
205.764	56.49
205.984	52.9
206.204	49.87
206.424	20.6
206.644	-19.92
206.864	-5.92
207.084	-60.72
207.304	-44.78
207.525	-139.14
207.745	-77.35
207.964	-23.15
208.184	-71.86
208.404	-95.26
208.624	-80.81
208.844	-47.64
209.064	-240.84
209.284	-155.76
209.504	-52.02
209.724	20.99
209.944	4.46
210.164	34.74
210.384	32.76
210.604	37.01
210.823	-5.86
211.043	-33.55
211.263	-48.39
211.483	-35.99
211.703	-75.81
211.922	-51.81
212.142	15.26
212.362	50.23
212.582	36.89
212.801	22.03
213.021	-2.87
213.241	-22.53
213.461	-67.82
213.68	-95.94
213.9	-65.47
214.12	-47.96
214.339	-102.53
214.559	-91.06
214.779	-32.56
214.998	-27.24
215.218	-47.35
215.438	-5.62
215.657	-8.16
215.877	-14.1
216.096	17.54
216.316	25.2
216.535	21.46
216.755	25.38
216.974	-24.13
217.194	-86.4
217.413	-97.97
217.633	-120.25
217.852	-194.29
218.072	-88.6
218.291	-49.91
218.511	-1.33
218.73	-23.03
218.95	-17.4
219.169	-22.89
219.389	-62.86
219.608	-61.65
219.827	-45.39
220.047	-42.48
220.266	-2.22
220.485	15.12
220.705	34.07
220.924	11.73
221.143	34.08
221.363	-0.9
221.582	4.52
221.801	15.58
222.021	30
222.24	-14.42
222.459	35.41
222.678	13.55
222.897	-73.77
223.117	-121.34
223.336	-108.43
223.555	-76.23
223.774	-40.41
223.993	-30.36
224.213	17.2
224.432	17.16
224.651	42.24
224.87	22.74
225.089	41.36
225.308	45.84
225.527	50.33
225.746	57.34
225.965	54.97
226.184	31.3
226.404	16.69
226.623	-6.39
226.842	-1.08
227.061	4.71
227.28	12.75
227.499	1.32
227.718	22.37
227.936	1.83
228.155	26.09
228.374	21.76
228.593	31.59
228.812	31.09
229.031	26.24
229.25	-20.2
229.469	-35.45
229.688	-40.71
229.907	-6.72
230.125	0.13
230.344	13.65
230.563	21.83
230.782	38.04
231.001	-33.56
231.22	-11.99
231.438	10.8
231.657	18.17
231.876	-2.84
232.095	40.32
232.313	31.51
232.532	-9.93
232.751	-33.29
232.969	-24.26
233.188	-65.82
233.407	-8.87
233.625	7.6
233.844	9.13
234.063	12.53
234.281	17.66
234.5	11.21
234.719	22.43
234.937	32.24
235.156	32.94
235.374	36.04
235.593	20.01
235.811	3.76
236.03	3.16
236.249	-29.2
236.467	-16.37
236.686	6.99
236.904	17.18
237.123	-8.42
237.341	11.07
237.559	10.23
237.778	2.97
237.996	1.63
238.215	33.72
238.433	19.1
238.652	13.91
238.87	-7.3
239.088	-12.04
239.307	-14.61
239.525	-34.53
239.743	-63.26
239.962	-63.73
240.18	-72.42
240.398	-120.82
240.617	-104.32
240.835	-75.71
241.053	-43.3
241.271	10.43
241.49	35.59
241.708	14.17
241.926	-9.4
242.144	-25.75
242.363	-57.77
242.581	-79.2
242.799	-16.88
243.017	-4.7
243.235	-12.71
243.453	-13.97
243.672	-23.81
243.89	-24.01
244.108	-26
244.326	-10.23
244.544	-11.97
244.762	-12.63
244.98	-12.28
245.198	-16.28
245.416	-45.3
245.634	-49.91
245.852	-50.98
246.07	-71.03
246.288	-25.23
246.506	-23.28
246.724	-7.78
246.942	-25.15
247.16	28.63
247.378	7.47
247.596	32.02
247.814	46.86
248.032	46.03
248.25	16.59
248.468	17.98
248.685	24.98
248.903	49.14
249.121	57.31
249.339	34.26
249.557	36.2
249.775	34.83
249.992	-35.75
250.21	-36.7
250.428	-20.66
250.646	-47.14
250.863	-77.1
251.081	-28.85
251.299	-29.64
251.517	-4.33
251.734	20.29
251.952	13.78
252.17	-1.9
252.387	15.34
252.605	-0.6
252.823	5.04
253.04	25.55
253.258	42.17
253.475	29.04
253.693	56.84
253.911	48.09
254.128	52.71
254.346	58.7
254.563	46.37
254.781	16.17
254.998	-6.95
255.216	-3.52
255.433	-15.99
255.651	6.03
255.868	15.94
256.086	51.79
256.303	31.19
256.521	19.57
256.738	0.1
256.956	-24.81
257.173	-65.4
257.39	-58.75
257.608	-62.95
257.825	32.88
258.043	75.74
258.26	81.83
258.477	97.16
258.695	94.13
258.912	5.67
259.129	4.05
259.346	-19.74
259.564	-53.8
259.781	-55.5
259.998	-2.52
260.216	31.58
260.433	51.65
260.65	50.05
260.867	52.41
261.084	36.24
261.302	-3.45
261.519	-24.74
261.736	-52.53
261.953	-47.47
262.17	-20.45
262.387	-28.67
262.604	-35.02
262.822	-35.72
263.039	-44.73
263.256	-69.7
263.473	-37.58
263.69	-9.78
263.907	21.09
264.124	40.27
264.341	30.91
264.558	15.77
264.775	14.83
264.992	10.69
265.209	-2.1
265.426	31.7
265.643	44.69
265.86	49.58
266.077	55.33
266.294	46.11
266.51	-5.84
266.727	-26.21
266.944	-25.83
267.161	-54.67
267.378	-53.38
267.595	-19.74
267.812	-40.75
268.028	-57.97
268.245	-16.14
268.462	-13.44
268.679	-22.97
268.896	31.03
269.112	35.38
269.329	17.87
269.546	10.93
269.763	1.18
269.979	-30.42
270.196	-27.34
270.413	-50.9
270.629	-69.33
270.846	-65.5
271.063	-59.14
271.279	-74.92
271.496	-42.21
271.712	8.08
271.929	21.24
272.146	11.34
272.362	26.34
272.579	39.33
272.795	36.05
273.012	38.68
273.228	46.32
273.445	34.52
273.661	23.45
273.878	-11.73
274.094	-7.6
274.311	-21.79
274.527	6.67
274.744	5.63
274.96	6.28
275.177	10.66
275.393	19.55
275.609	26.01
275.826	34.4
276.042	30.25
276.259	10.32
276.475	26.31
276.691	16.5
276.908	-4.6
277.124	3.59
277.34	8.72
277.557	7.16
277.773	4.83
277.989	12.75
278.205	18.03
278.422	36.22
278.638	24.95
278.854	44.47
279.07	45.17
279.286	25.47
279.503	-11.16
279.719	-13.97
279.935	-46.47
280.151	-53.69
280.367	-22.91
280.583	-37.03
280.799	-27.18
281.016	-50.66
281.232	1.99
281.448	-3.02
281.664	14.89
281.88	-8.87
282.096	20.99
282.312	6.23
282.528	15.67
282.744	33.17
282.96	41.31
283.176	34.62
283.392	13.01
283.608	16.37
283.824	2.43
284.04	15.46
284.256	4.78
284.471	6.24
284.687	-8.68
284.903	13.38
285.119	12.43
285.335	-6.23
285.551	-9.28
285.767	-31.45
285.982	-43.64
286.198	-61.22
286.414	15.28
286.63	26.23
286.846	58.89
287.061	42.84
287.277	54.85
287.493	23.76
287.709	29.58
287.924	11.62
288.14	44.96
288.356	26.57
288.571	48.08
288.787	30.01
289.003	25.56
289.218	-9.09
289.434	-22.4
289.65	-33.37
289.865	-41.25
290.081	-26.2
290.296	4.63
290.512	-3.33
290.727	-29.54
290.943	-33.94
291.159	-34.71
291.374	-45.33
291.59	-52.86
291.805	-33.15
292.021	-25.32
292.236	-34.8
292.451	-15.47
292.667	-7.14
292.882	9.01
293.098	23.95
293.313	5.24
293.529	-22.26
293.744	-22.18
293.959	-37.46
294.175	-53.86
294.39	-17.84
294.605	3.99
294.821	16.35
295.036	22.64
295.251	37.64
295.467	31.61
295.682	22.76
295.897	-22.58
296.112	-37.56
296.328	-38.99
296.543	-57.53
296.758	-44.86
296.973	7.15
297.188	36.26
297.404	22.78
297.619	17.58
297.834	-0.8
298.049	-14.29
298.264	-54.04
298.479	-4.43
298.694	-3.66
298.909	13.23
299.125	15.91
299.34	28.5
299.555	-6.38
299.77	9.02
299.985	-36.1
300.2	-71.67
300.415	-85.43
300.63	-36.4
300.845	-48.13
301.06	-24.42
301.275	-5.82
301.49	11.36
301.704	-8.01
301.919	-21.52
302.134	-32.72
302.349	-29.52
302.564	-102.31
302.779	-124.85
302.994	-75.43
303.209	-45.23
303.423	-71.61
303.638	13.2
303.853	-10.11
304.068	-24.91
304.283	-24.71
304.497	-1.23
304.712	-9.91
304.927	-8.65
305.142	-16.71
305.356	-8.27
305.571	-19.17
305.786	-38.46
306	-49.92
306.215	-20.06
306.43	-29.39
306.644	-20.26
306.859	45.93
307.074	40.42
307.288	-2.3
307.503	-21.04
307.717	-21.16
307.932	-42.47
308.147	-47.04
308.361	-18.32
308.576	-15.42
308.79	-60.96
309.005	-42.85
309.219	-16.57
309.434	-25.1
309.648	-19.39
309.863	19.76
310.077	28.46
310.292	17.95
310.506	4.25
310.72	9.18
310.935	9.73
311.149	-3.99
311.364	16.18
311.578	28.34
311.792	26.58
312.007	26.83
312.221	13.66
312.435	17.4
312.649	13.81
312.864	45.04
313.078	53.9
313.292	122.25
313.507	89.67
313.721	95.9
313.935	26.99
314.149	12.57
314.363	8.09
314.578	15.93
314.792	19.67
315.006	13.47
315.22	34.51
315.434	31.21
315.648	33.72
315.862	29.08
316.077	35.69
316.291	4.61
316.505	9.59
316.719	-27.44
316.933	-23.13
317.147	-21.06
317.361	-48.84
317.575	-64.6
317.789	-63.48
318.003	-106.4
318.217	-63.45
318.431	-7.67
318.645	21.83
318.859	18.49
319.073	38.26
319.287	9.94
319.5	-8.62
319.714	-54.21
319.928	-74.18
320.142	-112.69
320.356	-55.89
320.57	-25.58
320.784	-20.34
320.997	-25.34
321.211	4.13
321.425	-47.45
321.639	-77.61
321.853	-27.66
322.066	-7.94
322.28	-10.73
322.494	4.63
322.707	23.44
322.921	16.52
323.135	8.59
323.349	25.27
323.562	0.55
323.776	-13.92
323.989	-25.5
324.203	-35.35
324.417	-52.25
324.63	-58.58
324.844	-54.32
325.057	-40.07
325.271	-22.58
325.485	1.23
325.698	21.06
325.912	33.72
326.125	17.3
326.339	15.68
326.552	8.06
326.766	-0.28
326.979	9.02
327.193	39.01
327.406	25.72
327.619	4.75
327.833	22.88
328.046	-1.92
328.26	-33.07
328.473	-18.9
328.686	-26.62
328.9	-37.05
329.113	-10.89
329.326	-8.3
329.54	-3.76
329.753	-12.52
329.966	-12.02
330.179	-14.53
330.393	-5.93
330.606	4.08
330.819	24.59
331.032	25.99
331.246	23.46
331.459	39.07
331.672	26.69
331.885	12.07
332.098	-8.43
332.311	-3.31
332.525	-40.86
332.738	-27.69
332.951	-8.81
333.164	0.1
333.377	-5.78
333.59	10.84
333.803	15.94
334.016	21.26
334.229	35.97
334.442	47.33
334.655	61.71
334.868	64.85
335.081	47.1
335.294	31.52
335.507	31.38
335.72	18.9
335.933	6.42
336.146	2.39
336.359	3.52
336.572	-28.36
336.785	-54.31
336.997	-52.29
337.21	-29.78
337.423	-27.61
337.636	-16.25
337.849	-3.41
338.062	-18.01
338.274	-20.58
338.487	-24.3
338.7	-23.84
338.913	-58.08
339.125	-63.93
339.338	-107.76
339.551	-85.79
339.763	-62.32
339.976	-21.85
340.189	6.31
340.402	22.9
340.614	21.53
340.827	15.12
341.039	-0.27
341.252	-4.58
341.465	1.03
341.677	0.1
341.89	-29.04
342.102	-2.85
342.315	-9.24
342.527	-33.38
342.74	-34.39
342.952	-10.57
343.165	-17.65
343.377	-4.41
343.59	-0.2
343.802	5.98
344.015	11.81
344.227	9.55
344.44	-2.89
344.652	-2.17
344.864	-8.64
345.077	18.63
345.289	27.76
345.502	38.96
345.714	33.41
345.926	40.54
346.139	25.81
346.351	23.05
346.563	28.85
346.775	40.99
346.988	30.8
347.2	17.95
347.412	-9.97
347.624	-26.69
347.837	-38.41
348.049	-17.93
348.261	19.6
348.473	25.82
348.685	6.28
348.897	0.45
349.11	-4.35
349.322	-14.16
349.534	-2.39
349.746	19.62
349.958	16.14
350.17	6.99
350.382	20.53
350.594	21.26
350.806	38.61
351.018	43.2
351.23	40.27
351.442	-16.13
351.654	-3.07
351.866	-28.92
352.078	-9.15
352.29	11
352.502	34.86
352.714	35.17
352.926	33.02
353.138	20.33
353.35	2.99
353.561	3.91
353.773	-20.86
353.985	-4.42
354.197	-0.06
354.409	7.5
354.621	-8.28
354.832	-0.3
355.044	-7.19
355.256	-2.96
355.468	7.56
355.679	9.69
355.891	23.4
356.103	5.45
356.314	-5.97
356.526	-8.23
356.738	-6.4
356.949	-10.14
357.161	8.1
357.373	10.89
357.584	-5.08
357.796	2.98
358.008	-1.25
358.219	7.51
358.431	10.73
358.642	17.05
358.854	1.77
359.065	-8.61
359.277	-31.61
359.488	-41.13
359.7	-64.82
359.911	-53.03
360.123	-30.72
360.334	-34.07
360.546	-41.41
360.757	-23.03
360.969	-9.7
361.18	-15.81
361.391	-4.9
361.603	-17.32
361.814	-24.68
362.025	-38.17
362.237	-38.76
362.448	-21.79
362.659	8.56
362.871	10.24
363.082	14.33
363.293	17.89
363.504	6.9
363.716	-18.73
363.927	-21.19
364.138	-29.31
364.349	-35.02
364.56	-39.61
364.772	-31.04
364.983	-4.8
365.194	3.65
365.405	13.2
365.616	29.99
365.827	32.28
366.038	2.13
366.25	-3
366.461	-30.92
366.672	-21.59
366.883	0.54
367.094	10.05
367.305	-2.11
367.516	4.7
367.727	-28.93
367.938	-47.42
368.149	-53.11
368.36	-24.66
368.571	-16.55
368.781	-13.66
368.992	-22.7
369.203	-26.67
369.414	-57.02
369.625	-71.62
369.836	-59.65
370.047	-74.52
370.258	-60.2
370.468	-49.79
370.679	-49.05
370.89	-44.29
371.101	-22.3
371.312	-25.67
371.522	-29.16
371.733	-25
371.944	-7.29
372.155	-2.19
372.365	-13.25
372.576	-11.36
372.787	-11.94
372.997	-41.97
373.208	-46.17
373.419	-14.57
373.629	-39.78
373.84	-45.44
374.05	-47.22
374.261	-38.94
374.472	-52.1
374.682	2.1
374.893	14.29
375.103	43.55
375.314	45.5
375.524	47.81
375.735	37.95
375.945	37.54
376.156	4.12
376.366	1.1
376.577	5.43
376.787	-1.68
376.997	-3.2
377.208	-0.63
377.418	-7.73
377.629	-4.54
377.839	-4.36
378.049	3.45
378.26	18.54
378.47	21.62
378.68	7.71
378.89	4.09
379.101	-7.23
379.311	-37.96
379.521	-57.39
379.732	-41.41
379.942	-32
380.152	-39.51
380.362	-8.28
380.572	-2.49
380.783	-0.81
380.993	0.51
381.203	7.29
381.413	12.47
381.623	2
381.833	8.9
382.043	1.63
382.253	1.83
382.463	3.01
382.674	7.59
382.884	-11.14
383.094	-14.06
383.304	-13.52
383.514	-5.56
383.724	-0.46
383.934	-1.18
384.144	-3.37
384.353	-6.14
384.563	-20.3
384.773	-13.4
384.983	-15.21
385.193	1.27
385.403	6.5
385.613	10.59
385.823	-1.84
386.033	0.98
386.242	-8.62
386.452	-16.17
386.662	-23.09
386.872	-10.34
387.082	-11.04
387.291	-16.01
387.501	-15.17
387.711	-8.8
387.921	-13.28
388.13	-8.2
388.34	7.6
388.55	1.92
388.759	2.29
388.969	3.78
389.179	1.07
389.388	-6.65
389.598	0.51
389.807	-5.51
390.017	-8.1
390.227	-3.93
390.436	-4.09
390.646	-4.84
390.855	-0.42
391.065	1.99
391.274	-1.98
391.484	-2.96
391.693	-3.24
391.903	-0.99
392.112	2.18
392.322	3.74
392.531	7.96
392.74	10.45
392.95	5.91
393.159	2.44
393.369	2.88
393.578	1.74
393.787	1.63
393.997	4.76
394.206	5.41
394.415	5.92
394.625	5.32
394.834	4.06
395.043	4.44
395.252	6.05
395.462	7.2
395.671	7.55
395.88	7.86
396.089	8.63
396.298	6.89
396.508	6.35
396.717	6.05
396.926	6.58
397.135	5.5
397.344	5.46
397.553	5.66
397.762	7.09
397.971	6.77
398.181	7.14
398.39	7.2
398.599	6.93
398.808	6.76
399.017	7.88
399.226	9.06
399.435	9.6
399.644	10.16
399.853	9.24
400.062	8.19
400.27	7.6
400.479	7.32
400.688	6.58
400.897	6.77
401.106	7.3
401.315	6.93
401.524	7.14
401.733	7.6
401.941	7.98
402.15	7.77
402.359	7.87
402.568	8.23
402.777	8.3
402.985	8.15
403.194	7.9
403.403	7.75
403.612	7.18
403.82	7.16
404.029	7.3
404.238	7.33
404.446	7.58
404.655	7.5
404.864	7.31
405.072	7.15
405.281	7.36
405.489	7.18
405.698	7.18
405.906	7.13
406.115	6.98
406.324	6.91
406.532	6.97
406.741	7.42
406.949	7.41
407.158	7.56
407.366	7.59
407.574	7.6
407.783	7.42
407.991	7.3
408.2	7.32
408.408	7.39
408.617	7.26
408.825	7.07
409.033	7.19
409.242	7.15
409.45	7.08
409.658	7.01
409.867	7
410.075	6.83
410.283	6.68
410.491	6.43
410.7	6.35
410.908	6.36
411.116	6.63
411.324	6.69
411.533	6.61
411.741	6.83
411.949	6.82
412.157	6.53
412.365	6.5
412.573	6.73
412.781	6.66
412.99	6.56
413.198	6.67
413.406	6.61
413.614	6.61
413.822	6.4
414.03	6.42
414.238	6.2
414.446	6.3
414.654	5.95
414.862	6.12
415.07	6.16
415.278	6.41
415.486	6.22
415.694	6.49
415.902	6.32
416.109	6.25
416.317	6.2
416.525	6.1
416.733	5.96
416.941	6.14
417.149	6.23
417.357	6.11
417.564	6.33
417.772	6.52
417.98	6.36
418.188	6.23
418.395	6.36
418.603	6.34
418.811	5.93
419.019	5.97
419.226	6.2
419.434	6.26
419.642	6.09
419.849	6.32
420.057	6.2
420.265	6
420.472	5.68
420.68	5.67
420.887	5.61
421.095	5.68
421.302	5.7
421.51	5.94
421.717	6.03
421.925	6.23
422.132	6.15
422.34	5.9
422.547	5.83
422.755	5.79
422.962	5.53
423.17	5.43
423.377	5.53
423.585	5.63
423.792	5.57
423.999	5.63
424.207	5.65
424.414	5.85
424.621	5.86
424.829	5.77
425.036	5.7
425.243	5.85
425.451	5.64
425.658	5.32
425.865	5.48
426.072	5.62
426.28	5.81
426.487	5.68
426.694	5.79
426.901	5.67
427.108	5.61
427.315	5.48
427.523	5.83
427.73	5.87
427.937	5.93
428.144	5.8
428.351	5.7
428.558	5.83
428.765	5.74
428.972	5.63
429.179	5.8
429.386	6.12
429.593	5.94
429.8	5.9
430.007	6.11
430.214	6.22
430.421	5.97
430.628	5.8
430.835	5.8
431.042	5.82
431.249	5.88
431.456	5.95
431.662	6.16
431.869	6.37
432.076	6.42
432.283	6.46
432.49	6.36
432.697	6.24
432.903	6
433.11	5.96
433.317	5.92
433.524	6.26
433.73	6.36
433.937	6.71
434.144	6.68
434.35	6.7
434.557	6.42
434.764	6.43
434.97	6.24
435.177	6.45
435.384	6.4
435.59	6.44
435.797	6.66
436.003	6.74
436.21	6.51
436.416	6.58
436.623	6.64
436.829	6.62
437.036	6.75
437.242	6.81
437.449	6.77
437.655	6.76
437.862	6.74
438.068	6.7
438.275	6.87
438.481	7.1
438.687	7.12
438.894	7.15
439.1	7.21
439.307	7.28
439.513	7.14
439.719	7.2
439.926	7.15
440.132	7.11
440.338	6.99
440.544	7.08
440.751	6.99
440.957	7.12
441.163	7.07
441.369	7.21
441.575	7.06
441.782	7.09
441.988	7.05
442.194	7.07
442.4	6.99
442.606	7.26
442.812	7.39
443.018	7.47
443.224	7.54
443.431	7.67
443.637	7.49
443.843	7.47
444.049	7.45
444.255	7.41
444.461	7.46
444.667	7.55
444.873	7.71
445.079	7.74
445.284	7.87
445.49	7.64
445.696	7.48
445.902	7.33
446.108	7.25
446.314	7.17
446.52	7.27
446.726	7.45
446.931	7.41
447.137	7.45
447.343	7.54
447.549	7.49
447.755	7.38
447.96	7.48
448.166	7.39
448.372	7.34
448.578	7.48
448.783	7.55
448.989	7.61
449.195	7.82
449.4	7.81
449.606	7.65
449.812	7.6
450.017	7.52
450.223	7.45
450.428	7.46
450.634	7.71
450.84	7.88
451.045	7.9
451.251	7.78
451.456	8.01
451.662	8.02
451.867	8
452.073	8.05
452.278	8.25
452.483	8.32
452.689	8.18
452.894	8.21
453.1	8.22
453.305	8.16
453.51	7.97
453.716	7.98
453.921	7.98
454.127	7.96
454.332	7.84
454.537	7.79
454.742	7.79
454.948	7.81
455.153	7.84
455.358	8
455.563	8.16
455.769	8.27
455.974	8.2
456.179	8.05
456.384	7.99
456.589	7.89
456.795	7.68
457	7.66
457.205	7.97
457.41	7.99
457.615	8.02
457.82	8.11
458.025	8.11
458.23	7.86
458.435	7.93
458.64	7.81
458.845	8.06
459.05	8.02
459.255	8.06
459.46	8.04
459.665	8.19
459.87	8.09
460.075	8.05
460.28	8.15
460.485	8.25
460.69	8.22
460.895	8.05
461.099	8.13
461.304	8.16
461.509	8.13
461.714	8.07
461.919	8.34
462.123	8.3
462.328	8.4
462.533	8.34
462.738	8.46
462.942	8.35
463.147	8.45
463.352	8.38
463.556	8.5
463.761	8.48
463.966	8.44
464.17	8.46
464.375	8.43
464.58	8.33
464.784	8.32
464.989	8.28
465.193	8.29
465.398	8.3
465.602	8.44
465.807	8.43
466.011	8.68
466.216	8.74
466.42	8.87
466.625	8.9
466.829	9.02
467.034	8.92
467.238	9.15
467.443	9.07
467.647	8.99
467.851	9.12
468.056	9.17
468.26	9
468.464	8.93
468.669	9.05
468.873	9.04
469.077	9.14
469.282	9.35
469.486	9.42
469.69	9.42
469.894	9.31
470.099	9.32
470.303	9.21
470.507	9.27
470.711	9.25
470.915	9.31
471.119	9.2
471.324	9.23
471.528	9.3
471.732	9.44
471.936	9.45
472.14	9.48
472.344	9.54
472.548	9.55
472.752	9.66
472.956	9.95
473.16	10.07
473.364	10.05
473.568	10.05
473.772	9.97
473.976	9.75
474.18	9.67
474.384	9.72
474.588	9.71
474.792	9.66
474.995	9.78
475.199	9.92
475.403	10.01
475.607	10.07
475.811	10.04
476.015	10.05
476.218	10.04
476.422	9.9
476.626	10.01
476.83	10.18
477.033	10.14
477.237	10.13
477.441	10.23
477.644	10.18
477.848	10.13
478.052	10.1
478.255	10.1
478.459	10.05
478.663	10.26
478.866	10.3
479.07	10.41
479.273	10.65
479.477	10.81
479.681	10.69
479.884	10.66
480.088	10.64
480.291	10.53
480.495	10.46
480.698	10.51
480.901	10.58
481.105	10.68
481.308	10.72
481.512	10.67
481.715	10.77
481.919	10.81
482.122	10.78
482.325	10.79
482.529	10.87
482.732	10.82
482.935	10.76
483.138	10.66
483.342	10.7
483.545	10.73
483.748	10.86
483.952	11.04
484.155	11.23
484.358	11.25
484.561	11.23
484.764	11.06
484.967	11.14
485.171	11.19
485.374	11.1
485.577	11.16
485.78	11.26
485.983	11.16
486.186	10.99
486.389	11.06
486.592	11.08
486.795	11.1
486.998	11.03
487.201	11.15
487.404	11.24
487.607	11.29
487.81	11.21
488.013	11.3
488.216	11.27
488.419	11.21
488.622	11.13
488.825	11.12
489.028	11.07
489.231	11.06
489.433	11
489.636	10.99
489.839	11.02
490.042	10.98
490.245	10.95
490.447	11.09
490.65	11.15
490.853	11.14
491.056	11.18
491.258	11.25
491.461	11.2
491.664	11.24
491.866	11.21
492.069	11.26
492.272	11.16
492.474	11.22
492.677	11.26
492.879	11.33
493.082	11.4
493.285	11.6
493.487	11.54
493.69	11.37
493.892	11.31
494.095	11.33
494.297	11.23
494.5	11.25
494.702	11.36
494.905	11.44
495.107	11.35
495.309	11.4
495.512	11.5
495.714	11.49
495.917	11.53
496.119	11.61
496.321	11.59
496.524	11.55
496.726	11.57
496.928	11.64
497.13	11.61
497.333	11.67
497.535	11.71
497.737	11.75
497.939	11.74
498.142	11.8
498.344	11.83
498.546	11.76
498.748	11.79
498.95	11.83
499.152	11.7
499.355	11.69
499.557	11.84
499.759	11.92
499.961	11.87
500.163	12.01
500.365	12
500.567	12.05
500.769	12
500.971	12.04
501.173	11.96
501.375	12.06
501.577	11.99
501.779	11.94
501.981	12
502.183	11.99
502.385	11.93
502.587	11.85
502.788	11.96
502.99	11.96
503.192	12.12
503.394	12.15
503.596	12.29
503.798	12.37
503.999	12.44
504.201	12.43
504.403	12.44
504.605	12.43
504.806	12.34
505.008	12.26
505.21	12.33
505.411	12.37
505.613	12.47
505.815	12.48
506.016	12.56
506.218	12.66
506.42	12.64
506.621	12.63
506.823	12.71
507.024	12.66
507.226	12.57
507.427	12.61
507.629	12.6
507.83	12.62
508.032	12.7
508.233	12.78
508.435	12.84
508.636	12.92
508.838	12.91
509.039	12.91
509.24	13.01
509.442	13.06
509.643	13.03
509.845	13.13
510.046	13.2
510.247	13.22
510.448	13.19
510.65	13.29
510.851	13.39
511.052	13.39
511.254	13.38
511.455	13.5
511.656	13.46
511.857	13.47
512.058	13.46
512.26	13.42
512.461	13.44
512.662	13.47
512.863	13.39
513.064	13.4
513.265	13.48
513.466	13.51
513.667	13.54
513.868	13.57
514.069	13.73
514.27	13.8
514.471	13.73
514.672	13.74
514.873	13.79
515.074	13.74
515.275	13.64
515.476	13.63
515.677	13.65
515.878	13.74
516.079	13.68
516.28	13.77
516.481	13.95
516.682	14.02
516.882	13.97
517.083	14.04
517.284	13.96
517.485	13.96
517.686	13.91
517.886	13.91
518.087	13.99
518.288	14.07
518.488	14.03
518.689	14.09
518.89	14.07
519.091	14.06
519.291	14.1
519.492	14.13
519.692	14.16
519.893	14.23
520.094	14.25
520.294	14.27
520.495	14.23
520.695	14.24
520.896	14.31
521.096	14.35
521.297	14.36
521.497	14.4
521.698	14.38
521.898	14.28
522.099	14.27
522.299	14.29
522.499	14.36
522.7	14.41
522.9	14.46
523.101	14.55
523.301	14.59
523.501	14.55
523.702	14.58
523.902	14.69
524.102	14.69
524.302	14.63
524.503	14.77
524.703	14.8
524.903	14.79
525.103	14.71
525.304	14.82
525.504	14.81
525.704	14.87
525.904	14.82
526.104	14.84
526.304	14.88
526.504	14.87
526.705	14.84
526.905	14.91
527.105	14.97
527.305	14.97
527.505	14.93
527.705	14.95
527.905	15.02
528.105	14.99
528.305	15.01
528.505	15.06
528.705	15.11
528.905	15.06
529.105	15.17
529.304	15.16
529.504	15.27
529.704	15.23
529.904	15.28
530.104	15.25
530.304	15.37
530.503	15.28
530.703	15.21
530.903	15.21
531.103	15.26
531.303	15.15
531.502	15.2
531.702	15.35
531.902	15.39
532.101	15.34
532.301	15.38
532.501	15.41
532.7	15.42
532.9	15.38
533.1	15.48
533.299	15.53
533.499	15.57
533.698	15.56
533.898	15.61
534.097	15.64
534.297	15.73
534.496	15.72
534.696	15.83
534.895	15.97
535.095	16.05
535.294	15.97
535.494	15.96
535.693	16
535.892	16.01
536.092	15.94
536.291	15.95
536.491	16.01
536.69	16.04
536.889	15.98
537.088	15.97
537.288	16.05
537.487	16.12
537.686	16.11
537.886	16.2
538.085	16.29
538.284	16.43
538.483	16.4
538.682	16.47
538.882	16.43
539.081	16.48
539.28	16.37
539.479	16.4
539.678	16.4
539.877	16.55
540.076	16.55
540.275	16.62
540.474	16.75
540.673	16.74
540.872	16.67
541.071	16.83
541.27	16.86
541.469	16.89
541.668	16.95
541.867	17
542.066	17.02
542.265	17.11
542.464	17.16
542.663	17.22
542.862	17.42
543.06	17.46
543.259	17.49
543.458	17.56
543.657	17.69
543.856	17.61
544.054	17.59
544.253	17.59
544.452	17.58
544.651	17.64
544.849	17.71
545.048	17.82
545.247	18.01
545.445	18.08
545.644	18.07
545.843	18.09
546.041	18.14
546.24	18.1
546.438	18.21
546.637	18.26
546.836	18.4
547.034	18.52
547.233	18.58
547.431	18.6
547.63	18.69
547.828	18.73
548.027	18.72
548.225	18.72
548.423	18.8
548.622	18.82
548.82	18.83
549.019	18.91
549.217	19.11
549.415	19.13
549.614	19.26
549.812	19.37
550.01	19.36
550.209	19.43
550.407	19.55
550.605	19.57
550.803	19.71
551.002	19.94
551.2	19.92
551.398	20.01
551.596	20.23
551.794	20.21
551.993	20.24
552.191	20.39
552.389	20.56
552.587	20.59
552.785	20.71
552.983	20.82
553.181	20.95
553.379	20.99
553.577	21.09
553.775	21.21
553.973	21.3
554.171	21.43
554.369	21.47
554.567	21.5
554.765	21.57
554.963	21.67
555.161	21.67
555.359	21.84
555.557	22.08
555.755	22.2
555.952	22.32
556.15	22.43
556.348	22.49
556.546	22.53
556.744	22.54
556.941	22.52
557.139	22.62
557.337	22.73
557.535	22.81
557.732	23.02
557.93	23.27
558.128	23.35
558.325	23.44
558.523	23.51
558.721	23.57
558.918	23.58
559.116	23.73
559.313	23.81
559.511	23.99
559.708	24.07
559.906	24.23
560.104	24.27
560.301	24.4
560.498	24.45
560.696	24.6
560.893	24.64
561.091	24.88
561.288	24.99
561.486	25.17
561.683	25.31
561.88	25.45
562.078	25.6
562.275	25.65
562.473	25.72
562.67	25.94
562.867	26.17
563.064	26.3
563.262	26.49
563.459	26.68
563.656	26.71
563.853	26.73
564.051	26.78
564.248	26.95
564.445	27.02
564.642	27.16
564.839	27.28
565.036	27.44
565.234	27.53
565.431	27.66
565.628	27.73
565.825	27.94
566.022	27.98
566.219	28.08
566.416	28.23
566.613	28.35
566.81	28.42
567.007	28.52
567.204	28.49
567.401	28.53
567.598	28.63
567.795	28.73
567.991	28.84
568.188	29.08
568.385	29.26
568.582	29.4
568.779	29.51
568.976	29.57
569.172	29.73
569.369	29.72
569.566	29.78
569.763	29.81
569.96	29.92
570.156	29.91
570.353	29.89
570.55	29.94
570.746	30.04
570.943	30.13
571.14	30.2
571.336	30.36
571.533	30.41
571.729	30.41
571.926	30.42
572.123	30.56
572.319	30.63
572.516	30.63
572.712	30.67
572.909	30.76
573.105	30.76
573.302	30.83
573.498	31.01
573.695	31.07
573.891	31.16
574.087	31.15
574.284	31.15
574.48	31.06
574.677	31.13
574.873	31.1
575.069	31.21
575.266	31.21
575.462	31.22
575.658	31.29
575.854	31.33
576.051	31.29
576.247	31.34
576.443	31.43
576.639	31.36
576.835	31.32
577.032	31.33
577.228	31.38
577.424	31.41
577.62	31.41
577.816	31.49
578.012	31.54
578.208	31.43
578.404	31.4
578.6	31.41
578.796	31.39
578.993	31.39
579.189	31.5
579.384	31.4
579.58	31.36
579.776	31.35
579.972	31.24
580.168	31.13
580.364	31.24
580.56	31.22
580.756	31.21
580.952	31.29
581.148	31.38
581.343	31.35
581.539	31.4
581.735	31.28
581.931	31.24
582.127	31.16
582.322	31.13
582.518	31.09
582.714	31.16
582.909	31.14
583.105	31.17
583.301	31.23
583.496	31.21
583.692	31.14
583.888	31.09
584.083	31.12
584.279	31.01
584.474	31.07
584.67	31.13
584.866	31.12
585.061	30.91
585.257	31
585.452	30.91
585.648	30.8
585.843	30.91
586.039	30.99
586.234	30.96
586.429	30.92
586.625	31.02
586.82	30.93
587.015	30.92
587.211	30.84
587.406	30.91
587.601	30.92
587.797	31.01
587.992	30.92
588.187	31.02
588.383	30.97
588.578	30.95
588.773	30.83
588.968	30.94
589.163	31
589.359	31.01
589.554	31.14
589.749	31.25
589.944	31.26
590.139	31.19
590.334	31.23
590.529	31.19
590.724	31.24
590.919	31.4
591.114	31.45
591.309	31.56
591.504	31.54
591.699	31.55
591.894	31.62
592.089	31.68
592.284	31.65
592.479	31.81
592.674	31.83
592.869	31.85
593.064	31.95
593.259	32.07
593.454	32.09
593.648	32.16
593.843	32.15
594.038	32.13
594.233	32.13
594.428	32.23
594.622	32.28
594.817	32.51
595.012	32.66
595.206	32.7
595.401	32.66
595.596	32.66
595.79	32.67
595.985	32.82
596.18	32.94
596.374	33.11
596.569	33.24
596.763	33.28
596.958	33.23
597.153	33.35
597.347	33.37
597.542	33.53
597.736	33.56
597.931	33.65
598.125	33.73
598.319	33.85
598.514	33.88
598.708	33.97
598.903	34.04
599.097	34.1
599.291	34.15
599.486	34
599.68	34
599.874	34.11
600.069	34.09
600.263	34.14
600.457	34.39
600.651	34.52
600.846	34.62
601.04	34.65
601.234	34.74
601.428	34.76
601.622	34.81
601.817	34.7
602.011	34.79
602.205	34.71
602.399	34.75
602.593	34.84
602.787	35.04
602.981	34.95
603.175	35.07
603.369	34.98
603.563	34.91
603.757	34.88
603.951	34.98
604.145	34.86
604.339	34.99
604.533	34.87
604.727	34.83
604.921	34.88
605.115	34.99
605.309	35.06
605.502	35.15
605.696	35.05
605.89	34.87
606.084	34.84
606.278	34.74
606.471	34.63
606.665	34.51
606.859	34.42
607.053	34.29
607.246	34.13
607.44	34.16
607.634	34.12
607.827	34.26
608.021	34.22
608.214	34.13
608.408	33.93
608.602	33.91
608.795	33.74
608.989	33.62
609.182	33.58
609.376	33.58
609.569	33.44
609.763	33.24
609.956	33.22
610.15	33.11
610.343	33.06
610.537	33.06
610.73	33.17
610.923	33.11
611.117	33.11
611.31	33.06
611.504	32.92
611.697	32.72
611.89	32.59
612.083	32.52
612.277	32.5
612.47	32.41
612.663	32.33
612.856	32.29
613.05	32.07
613.243	31.97
613.436	31.93
613.629	31.86
613.822	31.61
614.015	31.62
614.209	31.39
614.402	31.38
614.595	31.28
614.788	31.35
614.981	31.2
615.174	31.15
615.367	31.01
615.56	30.93
615.753	30.89
615.946	30.85
616.139	30.8
616.332	30.8
616.525	30.75
616.718	30.69
616.911	30.6
617.103	30.55
617.296	30.47
617.489	30.54
617.682	30.44
617.875	30.48
618.067	30.52
618.26	30.42
618.453	30.32
618.646	30.26
618.838	30.2
619.031	30.16
619.224	30.08
619.417	29.99
619.609	29.94
619.802	29.88
619.994	29.85
620.187	29.8
620.38	29.75
620.572	29.71
620.765	29.76
620.957	29.49
621.15	29.5
621.342	29.45
621.535	29.47
621.727	29.33
621.92	29.47
622.112	29.34
622.305	29.39
622.497	29.33
622.69	29.37
622.882	29.32
623.074	29.42
623.267	29.36
623.459	29.28
623.651	29.17
623.844	29.2
624.036	29.19
624.228	29.15
624.42	29.12
624.613	29.23
624.805	29.12
624.997	29.03
625.189	28.99
625.381	28.99
625.574	28.79
625.766	28.7
625.958	28.74
626.15	28.73
626.342	28.71
626.534	28.76
626.726	28.7
626.918	28.65
627.11	28.67
627.302	28.72
627.494	28.7
627.686	28.82
627.878	28.75
628.07	28.69
628.262	28.49
628.454	28.47
628.646	28.43
628.838	28.39
629.029	28.27
629.221	28.35
629.413	28.28
629.605	28.04
629.797	28
629.989	27.99
630.18	27.93
630.372	27.81
630.564	27.9
630.755	27.88
630.947	27.89
631.139	27.75
631.33	27.7
631.522	27.75
631.714	27.73
631.905	27.66
632.097	27.7
632.289	27.71
632.48	27.69
632.672	27.57
632.863	27.47
633.055	27.4
633.246	27.38
633.438	27.26
633.629	27.24
633.821	27.35
634.012	27.37
634.203	27.25
634.395	27.26
634.586	27.21
634.777	27.04
634.969	27.04
635.16	27.2
635.351	27.1
635.543	27.15
635.734	27.26
635.925	27.22
636.117	27.16
636.308	27.18
636.499	27.14
636.69	27.02
636.881	26.9
637.073	26.97
637.264	26.95
637.455	26.92
637.646	27.01
637.837	27.21
638.028	27.01
638.219	26.97
638.41	26.99
638.601	26.86
638.792	26.78
638.983	26.87
639.174	26.88
639.365	26.93
639.556	26.87
639.747	26.8
639.938	26.73
640.129	26.7
640.32	26.58
640.511	26.67
640.701	26.74
640.892	26.7
641.083	26.78
641.274	26.75
641.465	26.71
641.655	26.52
641.846	26.57
642.037	26.47
642.228	26.34
642.418	26.39
642.609	26.44
642.8	26.4
642.99	26.29
643.181	26.41
643.372	26.35
643.562	26.29
643.753	26.17
643.943	26.18
644.134	26.08
644.324	25.95
644.515	25.86
644.705	25.83
644.896	25.8
645.086	25.75
645.277	25.64
645.467	25.67
645.658	25.67
645.848	25.65
646.038	25.6
646.229	25.66
646.419	25.63
646.61	25.56
646.8	25.52
646.99	25.61
647.18	25.53
647.371	25.54
647.561	25.56
647.751	25.53
647.941	25.4
648.132	25.48
648.322	25.38
648.512	25.37
648.702	25.45
648.892	25.48
649.082	25.29
649.272	25.19
649.462	25.02
649.653	24.94
649.843	24.82
650.033	24.9
650.223	24.92
650.413	24.91
650.603	24.78
650.793	24.78
650.983	24.72
651.172	24.62
651.362	24.66
651.552	24.65
651.742	24.57
651.932	24.44
652.122	24.43
652.312	24.38
652.502	24.26
652.691	24.31
652.881	24.29
653.071	24.29
653.261	24.1
653.45	23.96
653.64	23.83
653.83	23.69
654.019	23.56
654.209	23.55
654.399	23.47
654.588	23.31
654.778	23.17
654.968	22.95
655.157	22.83
655.347	22.72
655.536	22.56
655.726	22.37
655.915	22.23
656.105	22.04
656.294	21.93
656.484	21.73
656.673	21.68
656.863	21.59
657.052	21.39
657.241	21.04
657.431	20.83
657.62	20.6
657.809	20.35
657.999	20.13
658.188	20.02
658.377	19.93
658.567	19.72
658.756	19.56
658.945	19.42
659.134	19.28
659.324	19.04
659.513	18.88
659.702	18.63
659.891	18.51
660.08	18.33
660.269	18.18
660.458	18.04
660.648	17.95
660.837	17.7
661.026	17.52
661.215	17.32
661.404	16.98
661.593	16.73
661.782	16.53
661.971	16.42
662.16	16.26
662.349	16.29
662.538	16.13
662.726	15.99
662.915	15.74
663.104	15.63
663.293	15.55
663.482	15.5
663.671	15.36
663.86	15.2
664.048	15.01
664.237	14.83
664.426	14.56
664.615	14.45
664.803	14.4
664.992	14.2
665.181	14.02
665.369	14.03
665.558	13.85
665.747	13.74
665.935	13.72
666.124	13.72
666.312	13.58
666.501	13.59
666.69	13.4
666.878	13.29
667.067	13.13
667.255	13.17
667.444	13.36
667.632	13.46
667.82	13.49
668.009	13.38
668.197	13.23
668.386	12.89
668.574	12.93
668.762	12.85
668.951	12.86
669.139	12.91
669.327	12.87
669.516	12.85
669.704	12.81
669.892	12.88
670.08	12.75
670.269	12.64
670.457	12.46
670.645	12.3
670.833	12.29
671.021	12.35
671.21	12.44
671.398	12.67
671.586	12.83
671.774	12.73
671.962	12.71
672.15	12.78
672.338	12.59
672.526	12.51
672.714	12.45
672.902	12.47
673.09	12.57
673.278	12.77
673.466	12.9
673.654	13.19
673.842	13.25
674.03	13.23
674.218	13.19
674.405	13.25
674.593	13.21
674.781	13.4
674.969	13.42
675.157	13.48
675.344	13.57
675.532	13.73
675.72	13.78
675.908	13.81
676.095	13.78
676.283	13.87
676.471	13.96
676.658	13.96
676.846	14.16
677.033	14.33
677.221	14.36
677.409	14.35
677.596	14.42
677.784	14.49
677.971	14.66
678.159	14.8
678.346	14.85
678.534	14.96
678.721	15.3
678.909	15.37
679.096	15.53
679.283	15.77
679.471	16.04
679.658	15.97
679.846	16.17
680.033	16.26
680.22	16.32
680.408	16.38
680.595	16.43
680.782	16.46
680.969	16.63
681.157	16.81
681.344	16.93
681.531	17.08
681.718	17.15
681.905	17.37
682.093	17.6
682.28	17.9
682.467	18.31
682.654	18.57
682.841	18.83
683.028	18.99
683.215	19.17
683.402	19.13
683.589	19.46
683.776	19.62
683.963	19.84
684.15	20.16
684.337	20.45
684.524	20.63
684.711	20.96
684.898	21.05
685.085	21.09
685.271	21.6
685.458	22.01
685.645	22.27
685.832	23
686.019	23.66
686.205	23.99
686.392	24.47
686.579	24.84
686.766	25.16
686.952	25.49
687.139	26.1
687.326	26.35
687.512	26.75
687.699	27.18
687.886	27.49
688.072	27.67
688.259	28.31
688.445	29.04
688.632	29.39
688.818	30.28
689.005	30.88
689.191	31.28
689.378	31.88
689.564	32.77
689.751	33.22
689.937	33.76
690.124	34.57
690.31	34.91
690.496	35.28
690.683	35.82
690.869	36.49
691.055	37.1
691.242	38.05
691.428	38.77
691.614	39.49
691.8	40.31
691.987	41.05
692.173	41.69
692.359	42.51
692.545	43.31
692.731	43.84
692.918	44.41
693.104	44.98
693.29	45.64
693.476	46.36
693.662	47.16
693.848	47.9
694.034	48.6
694.22	48.99
694.406	49.62
694.592	50.6
694.778	51.31
694.964	51.96
695.15	52.87
695.336	53.34
695.522	54.13
695.708	54.67
695.894	55.37
696.08	56.27
696.265	57.35
696.451	57.88
696.637	58.65
696.823	59.51
697.009	59.91
697.194	60.38
697.38	60.77
697.566	61.27
697.751	61.69
697.937	62.61
698.123	63.13
698.308	63.99
698.494	64.74
698.68	65.35
698.865	65.76
699.051	66.35
699.236	66.73
699.422	67.29
699.607	67.66
699.793	68.06
699.978	68.52
700.164	69.04
700.349	69.82
700.535	70.55
700.72	70.84
700.906	71.47
701.091	71.7
701.276	72.12
701.462	72.77
701.647	73.67
701.832	73.93
702.018	74.65
702.203	74.63
702.388	74.76
702.573	75.22
702.759	76.04
702.944	76.22
703.129	76.74
703.314	77.27
703.499	77.23
703.684	77.25
703.87	78.45
704.055	78.97
704.24	79.13
704.425	79.98
704.61	80.56
704.795	80.39
704.98	80.69
705.165	80.93
705.35	80.98
705.535	81.22
705.72	81.42
705.905	81.93
706.09	82.87
706.275	83.03
706.459	83.21
706.644	83.3
706.829	83.39
707.014	82.93
707.199	83.42
707.384	83.78
707.568	84.03
707.753	84.64
707.938	85.04
708.123	85.01
708.307	85.13
708.492	85.2
708.677	84.94
708.861	85.38
709.046	85.46
709.231	86.06
709.415	86.38
709.6	86.41
709.784	86.17
709.969	86.55
710.153	86.37
710.338	86.25
710.522	86.57
710.707	86.96
710.891	87.03
711.076	87.29
711.26	87.43
711.445	87.75
711.629	88.02
711.813	88.55
711.998	88.89
712.182	88.89
712.366	89.44
712.551	89.81
712.735	89.61
712.919	89.42
713.103	90.39
713.288	90.07
713.472	89.88
713.656	90.62
713.84	90.8
714.024	90.89
714.208	90.75
714.393	91.23
714.577	90.99
714.761	91.25
714.945	90.72
715.129	91.05
715.313	91.3
715.497	91.18
715.681	91.65
715.865	91.99
716.049	91.93
716.233	91.55
716.417	91.99
716.601	91.32
716.785	91.45
716.968	91.25
717.152	91.69
717.336	91.76
717.52	91.9
717.704	92.06
717.888	92.85
718.071	92.66
718.255	92.96
718.439	92.74
718.622	92.97
718.806	93.13
718.99	92.56
719.174	92.14
719.357	92.57
719.541	92.81
719.724	92.86
719.908	93.93
720.092	94.85
720.275	95.18
720.459	94.86
720.642	94.5
720.826	93.9
721.009	92.95
721.193	92.48
721.376	92.29
721.559	92.6
721.743	93
721.926	93.39
722.11	94
722.293	94.05
722.476	93.69
722.66	93.66
722.843	93.67
723.026	93.24
723.21	93.7
723.393	94.31
723.576	94.2
723.759	93.68
723.942	93.99
724.126	93.48
724.309	93.08
724.492	93.3
724.675	93.76
724.858	93.89
725.041	95.13
725.224	95.46
725.407	95.7
725.59	96.13
725.774	96.08
725.957	95.15
726.14	95.06
726.322	95.01
726.505	94.87
726.688	95.28
726.871	95.19
727.054	95.06
727.237	95.05
727.42	95.2
727.603	94.78
727.786	95.26
727.968	96.07
728.151	96.13
728.334	96.06
728.517	96.19
728.699	96.22
728.882	95.94
729.065	96
729.248	96.73
729.43	97.27
729.613	97.74
729.796	98.38
729.978	98.28
730.161	97.67
730.343	96.88
730.526	97.49
730.708	96.22
730.891	96.41
731.073	96.19
731.256	96.35
731.438	95.99
731.621	96.91
731.803	97.15
731.986	97.58
732.168	96.91
732.35	97.25
732.533	97.07
732.715	97.05
732.898	96.73
733.08	97.37
733.262	97.14
733.444	97.17
733.627	97.14
733.809	97.66
733.991	98.81
734.173	97.84
734.355	98.03
734.538	98.95
734.72	98.51
734.902	98.37
735.084	99.08
735.266	98.62
735.448	98.28
735.63	98.36
735.812	97.91
735.994	98.73
736.176	99.33
736.358	98.83
736.54	100.09
736.722	99.62
736.904	98.93
737.086	98.99
737.268	99.2
737.45	98.83
737.632	99.23
737.814	98.55
737.995	98.43
738.177	98.69
738.359	97.18
738.541	98.08
738.723	98.72
738.904	99.01
739.086	99.02
739.268	100.06
739.449	99.81
739.631	99.53
739.813	99.42
739.994	99.7
740.176	99.86
740.358	99.08
740.539	99.74
740.721	99.78
740.902	99.97
741.084	99.59
741.265	99.74
741.447	100.3
741.628	100.55
741.81	99.5
741.991	99.88
742.172	100.86
742.354	100.26
742.535	100.33
742.717	101.12
742.898	102.1
743.079	102.56
743.261	103.02
743.442	101.89
743.623	101.97
743.804	101.92
743.986	101.26
744.167	99.14
744.348	99.65
744.529	99.48
744.71	98.13
744.891	97.79
745.073	98.47
745.254	97.9
745.435	97.79
745.616	97.9
745.797	97.77
745.978	98.3
746.159	99.88
746.34	98.93
746.521	100.08
746.702	98.59
746.883	99.11
747.064	98.26
747.245	98.92
747.426	98.1
747.606	99.7
747.787	99.25
747.968	98.21
748.149	98.46
748.33	98.8
748.51	97.94
748.691	97.43
748.872	98.83
749.053	98.22
749.233	96.9
749.414	97.04
749.595	96.15
749.775	95.12
749.956	95.19
750.137	96.06
750.317	96.9
750.498	98.86
750.678	99.03
750.859	100.59
751.04	100.59
751.22	99.56
751.4	98.89
751.581	99.09
751.761	98.29
751.942	98.76
752.122	99.75
752.303	99.57
752.483	99.96
752.663	99.21
752.844	96.83
753.024	96.92
753.204	97.16
753.385	95.77
753.565	95.31
753.745	96.27
753.925	94.97
754.106	94.43
754.286	95.17
754.466	96.12
754.646	98.37
754.826	98.46
755.006	97.97
755.187	98.17
755.367	98.48
755.547	96.85
755.727	98.12
755.907	98.51
756.087	99.5
756.267	98.19
756.447	98.75
756.627	97.59
756.807	97.01
756.987	94.98
757.167	95.49
757.346	94.11
757.526	92.87
757.706	94.21
757.886	94.92
758.066	95.44
758.246	98.9
758.425	99.68
758.605	98.26
758.785	98.77
758.965	98.77
759.144	95.2
759.324	96.17
759.504	97.62
759.683	97.95
759.863	96.21
760.043	95.42
760.222	94.35
760.402	92.73
760.581	91.24
760.761	92.98
760.94	92.73
761.12	94.89
761.299	96.28
761.479	96.2
761.658	94.74
761.838	96.02
762.017	94.45
762.197	94.05
762.376	94.87
762.555	96.17
762.735	97.11
762.914	95.74
763.093	95.01
763.273	93.86
763.452	92.89
763.631	92.3
763.81	92.19
763.99	92
764.169	93.7
764.348	91.9
764.527	90.82
764.706	93.78
764.885	94.68
765.064	92.2
765.243	93.54
765.423	95.54
765.602	93.21
765.781	91.56
765.96	90.83
766.139	90.39
766.318	90.24
766.497	89.76
766.676	91.14
766.854	93.21
767.033	93.9
767.212	92.38
767.391	93.04
767.57	92.05
767.749	92.17
767.928	93.63
768.106	93.45
768.285	92.38
768.464	93.77
768.643	92.73
768.821	91.56
769	92.67
769.179	92.76
769.357	90.07
769.536	90.49
769.715	91.56
769.893	92.43
770.072	92.69
770.25	95.38
770.429	96.42
770.607	95.73
770.786	95.14
770.964	97.01
771.143	95.42
771.321	95.74
771.5	97.45
771.678	97.34
771.857	95.92
772.035	95.02
772.213	92.78
772.392	88.88
772.57	89.45
772.748	89.38
772.927	89.88
773.105	91.21
773.283	93.49
773.461	92.22
773.64	93.6
773.818	94.21
773.996	92.77
774.174	90.41
774.352	88.33
774.531	84.66
774.709	86.62
774.887	86.03
775.065	86.61
775.243	88.08
775.421	90.11
775.599	88.53
775.777	87.9
775.955	86.16
776.133	86.01
776.311	86.67
776.489	84.96
776.667	86.99
776.844	89.64
777.022	88.75
777.2	88.43
777.378	88.94
777.556	89.48
777.734	90.46
777.911	93.05
778.089	93.05
778.267	93.83
778.445	90.98
778.622	89.62
778.8	86.46
778.978	86.46
779.155	85.29
779.333	87.52
779.511	84.63
779.688	86.87
779.866	82.89
780.043	80.88
780.221	79.99
780.398	79.59
780.576	78.57
780.753	80.76
780.931	81.18
781.108	80.68
781.286	82.76
781.463	82.49
781.64	80.84
781.818	85.24
781.995	85.35
782.172	86.81
782.35	85.87
782.527	90
782.704	85.67
782.882	88.96
783.059	86.83
783.236	89.8
783.413	89.08
783.59	92.9
783.768	86.33
783.945	88.68
784.122	85.77
784.299	85.09
784.476	81.69
784.653	80.33
784.83	78.92
785.007	77.25
785.184	77.76
785.361	77.5
785.538	84.13
785.715	85.06
785.892	85.79
786.069	86.89
786.246	89.33
786.423	88.37
786.6	86.76
786.776	90.5
786.953	86.61
787.13	87.07
787.307	85.42
787.484	84.41
787.66	81.47
787.837	84.06
788.014	79.62
788.191	79.67
788.367	78.35
788.544	80.41
788.721	78.15
788.897	80.71
789.074	80.08
789.25	82.68
789.427	82.85
789.603	82.19
789.78	83.43
789.956	83.3
790.133	80.64
790.309	81.4
790.486	82.11
790.662	78.83
790.839	80.32
791.015	81.57
791.192	75.28
791.368	77.29
791.544	76.53
791.721	74.66
791.897	73.93
792.073	75.45
792.249	69.24
792.426	72.38
792.602	75.09
792.778	77.47
792.954	77.22
793.13	82.85
793.307	78.98
793.483	70.82
793.659	70.57
793.835	72.5
794.011	68.85
794.187	69.99
794.363	74.5
794.539	76.02
794.715	72.98
794.891	73.26
795.067	76.87
795.243	80.83
795.419	77.09
795.595	75.77
795.771	75.68
795.947	71.65
796.122	69.16
796.298	75.62
796.474	81.59
796.65	83.05
796.826	85.45
797.001	86.06
797.177	76.71
797.353	75.27
797.529	76.77
797.704	75.63
797.88	73.14
798.056	71.62
798.231	71.31
798.407	71.62
798.582	69.3
798.758	75.12
798.934	84.57
799.109	81.94
799.285	74.84
799.46	81.79
799.636	79.94
799.811	79.1
799.986	81.97
800.162	90.7
800.337	86.36
800.513	81.64
800.688	77.16
800.863	83.91
801.039	76.36
801.214	77.94
801.389	83.95
801.565	83.12
801.74	72.11
801.915	76.01
802.09	77.8
802.265	76.93
802.441	70.97
802.616	70.51
802.791	75.56
802.966	72.28
803.141	73.06
803.316	76.04
803.491	80
803.666	76.39
803.841	74.71
804.016	66.8
804.191	71.43
804.366	63.16
804.541	60.12
804.716	60.15
804.891	54.28
805.066	60.1
805.241	62.62
805.416	61.95
805.591	59.04
805.765	72.75
805.94	73.7
806.115	75.73
806.29	74.84
806.464	76.78
806.639	68.1
806.814	57.02
806.989	53.48
807.163	63.02
807.338	64.55
807.512	61.46
807.687	52.18
807.862	63.53
808.036	63.42
808.211	68.01
808.385	76.87
808.56	95.15
808.734	92.35
808.909	85.39
809.083	80.19
809.258	83.94
809.432	81.94
809.606	76.07
809.781	76.55
809.955	78.13
810.13	74.45
810.304	62.82
810.478	61.79
810.652	69.63
810.827	71.94
811.001	71.16
811.175	73.28
811.349	72.65
811.524	63.27
811.698	48.47
811.872	48.23
812.046	56.39
812.22	61.91
812.394	61.82
812.568	71.41
812.742	73.87
812.916	69.33
813.09	59.08
813.264	60.09
813.438	63.43
813.612	58.11
813.786	50.58
813.96	63.4
814.134	65.52
814.308	70.05
814.482	75.44
814.656	73.45
814.83	69.75
815.003	69.81
815.177	60.34
815.351	48.29
815.525	54.63
815.698	44.95
815.872	40.85
816.046	41.94
816.219	48.45
816.393	63.55
816.567	73.54
816.74	75.06
816.914	79.91
817.088	91.84
817.261	81.48
817.435	67.52
817.608	64.53
817.782	49.64
817.955	46.04
818.129	41.59
818.302	60.04
818.475	63.28
818.649	66.34
818.822	52.13
818.996	63.35
819.169	50.85
819.342	48.18
819.516	56.28
819.689	73.96
819.862	62.73
820.035	56.98
820.209	54.73
820.382	45.44
820.555	44.68
820.728	34.38
820.901	33.93
821.075	35.66
821.248	41.4
821.421	23.91
821.594	33.65
821.767	57.99
821.94	65.03
822.113	47.36
822.286	50.25
822.459	54.01
822.632	42.7
822.805	32.87
822.978	41.2
823.151	39.32
823.324	30.86
823.496	13.07
823.669	16.17
823.842	6.43
824.015	-1.92
824.188	2.93
824.361	3.74
824.533	4.8
824.706	24.74
824.879	31.23
825.051	39.24
825.224	42.48
825.397	41.68
825.569	31.01
825.742	42.36
825.915	40.83
826.087	58.76
826.26	38.33
826.432	33.34
826.605	33.99
826.777	26.21
826.95	15.24
827.122	4.25
827.295	22.22
827.467	28.99
827.64	8.14
827.812	15.78
827.984	36.11
828.157	27.9
828.329	-25.67
828.501	-14.48
828.674	-6.44
828.846	-9.22
829.018	20.08
829.19	12.5
829.363	41.04
829.535	47.85
829.707	49.78
829.879	24.56
830.051	34.83
830.223	22.18
830.395	1.42
830.568	-5.67
830.74	-14
830.912	26.19
831.084	24.84
831.256	22.09
831.428	25.98
831.6	22.27
831.772	-22.49
831.943	-32.35
832.115	-12
832.287	5.71
832.459	20.67
832.631	51.59
832.803	75.29
832.975	93.23
833.146	93.17
833.318	85.78
833.49	61.59
833.662	21.99
833.833	1.77
834.005	6.7
834.177	25.93
834.348	25.71
834.52	32.89
834.692	51.98
834.863	56.04
835.035	22.39
835.206	6.8
835.378	27.97
835.549	14.3
835.721	2.48
835.892	10.5
836.064	17.55
836.235	7.32
836.407	24.28
836.578	11.2
836.749	-6.83
836.921	-58.31
837.092	-78.95
837.264	-67.63
837.435	-74.65
837.606	-16.81
837.777	13.83
837.949	33.54
838.12	33.04
838.291	50.3
838.462	32.02
838.633	21.99
838.805	21.22
838.976	49.57
839.147	35.07
839.318	-8.7
839.489	-50.54
839.66	-56.51
839.831	-16.42
840.002	-2.71
840.173	-19.57
840.344	46.49
840.515	121.93
840.686	32.85
840.857	-15.88
841.028	33.86
841.199	9.81
841.369	-49.71
841.54	-25.77
841.711	-7.62
841.882	7.8
842.053	5.94
842.223	11
842.394	11.58
842.565	21.74
842.736	24.39
842.906	23.95
843.077	44.19
843.248	68.36
843.418	83.57
843.589	61.37
843.759	95.03
843.93	67.96
844.101	51.07
844.271	33.76
844.442	50.34
844.612	55.37
844.783	23.07
844.953	-36.41
845.123	-45.99
845.294	-74.26
845.464	-228.73
845.635	-43.54
845.805	45.46
845.975	3.81
846.146	-18.71
846.316	-25.61
846.486	-11.76
846.656	17.39
846.827	15.44
846.997	20.67
847.167	30.79
847.337	9.69
847.507	-41.53
847.677	-15.17
847.848	30.23
848.018	36.44
848.188	51.31
848.358	36.66
848.528	32.8
848.698	8.28
848.868	-78.79
849.038	-194.38
849.208	-42.65
849.378	-5.94
849.548	-8.01
849.718	31.44
849.887	45.16
850.057	23.56
850.227	-20.87
850.397	-46.22
850.567	-167.04
850.737	-399.67
850.906	-1306.56
851.076	-818.95
851.246	-391.75
851.415	-45.34
851.585	-30.54
851.755	-54.47
851.924	-18.71
852.094	-42.48
852.264	-132.36
852.433	-932.93
852.603	-177.78
852.772	-147.87
852.942	-91.77
853.111	-70.92
853.281	-16.66
853.45	13.68
853.62	-46.02
853.789	-36.79
853.959	-25.43
854.128	-50.51
854.297	-89.51
854.467	-69.9
854.636	-96.01
854.805	-14.62
854.975	-41.65
855.144	-71.85
855.313	-187.59
855.482	-314.05
855.652	-256.07
855.821	-199.2
855.99	-16.9
856.159	-0.83
856.328	8.34
856.497	-7.39
856.667	7.01
856.836	-8.62
857.005	-20.43
857.174	-53.12
857.343	-109.55
857.512	-60.32
857.681	-112.75
857.85	-148.1
858.019	-51.9
858.188	-12.06
858.356	-65.22
858.525	-101.33
858.694	-106.12
858.863	-260.8
859.032	-236.38
859.201	-279.21
859.369	-174.81
859.538	-122.82
859.707	-92.04
859.876	-91.61
860.044	-100.97
860.213	-17.94
860.382	-9.91
860.55	19.41
860.719	45.12
860.888	38.14
861.056	6.94
861.225	-13.31
861.393	20.08
861.562	18.79
861.73	-17.82
861.899	-63.48
862.067	-925
862.236	-141.77
862.404	-341.86
862.572	-225.85
862.741	-99.55
862.909	-82.97
863.078	-189.77
863.246	-135.78
863.414	-115.68
863.582	-90.01
863.751	-126.36
863.919	-95.98
864.087	-64.82
864.255	-60.38
864.424	-380.58
864.592	-42.21
864.76	-103.77
864.928	-63.4
865.096	-148.49
865.264	-123.25
865.432	-1741.48
865.6	-113.12
865.768	-109.07
865.936	-90.64
866.104	-57.74
866.272	-97.89
866.44	-300.49
866.608	615.35
866.776	273.37
866.944	2884.3
867.112	-506.46
867.28	-252.22
867.448	-117.27
867.615	-57.03
867.783	-33.77
867.951	-40.04
868.119	0.93
868.286	-8.08
868.454	-148.82
868.622	-172.85
868.789	-212.5
868.957	-2644.64
869.125	-1866.45
869.292	-113.08
869.46	-159.77
869.627	-21.86
869.795	-46.24
869.963	-29.98
870.13	6.77
870.298	17.6
870.465	-35.49
870.632	-43.93
870.8	-21.5
870.967	-77.16
871.135	-133.96
871.302	-128.27
871.469	-139.66
871.637	-77.31
871.804	-49.2
871.971	-99.85
872.139	-367.56
872.306	-34.25
872.473	-103.83
872.64	-440.88
872.807	-146.51
872.975	12.61
873.142	-203.36
873.309	1697.97
873.476	45.66
873.643	69.12
873.81	-31.06
873.977	9.92
874.144	18.61
874.311	-195.12
874.478	-217.33
874.645	-193.3
874.812	-156.08
874.979	-89.53
875.146	-55.97
875.313	-44.31
875.48	19.89
875.647	-2.46
875.813	-45.98
875.98	-34.78
876.147	-72.49
876.314	-172.76
876.481	1166.32
876.647	-1211.52
876.814	446.76
876.981	34.13
877.147	17.86
877.314	26.81
877.481	35.03
877.647	19.54
877.814	-0.82
877.98	-38.46
878.147	-22.38
878.314	15.39
878.48	-20.34
878.647	-26.74
878.813	34.5
878.979	25.59
879.146	-30.69
879.312	-25.83
879.479	-79.44
879.645	-196.86
879.811	-347.71
879.978	-813.93
880.144	-258.22
880.31	-163.53
880.477	-425.3
880.643	-502.2
880.809	-160.73
880.975	-146.19
881.142	-854.77
881.308	-132.67
881.474	-51.98
881.64	-77.14
881.806	-78.25
881.972	-13.2
882.138	36.89
882.304	50.65
882.47	-127.65
882.636	-662.5
882.802	-204.86
882.968	-16.96
883.134	-10.14
883.3	4.24
883.466	29.82
883.632	52.75
883.798	-13.4
883.964	-60.13
884.129	-73.18
884.295	-42.21
884.461	-81.84
884.627	-70.96
884.793	-71.53
884.958	-31.15
885.124	-129.42
885.29	-201.9
885.455	-438.96
885.621	-116.65
885.787	-222.43
885.952	-101.19
886.118	-115.37
886.283	-79.76
886.449	-153.77
886.614	-117.54
886.78	-262.4
886.945	906.97
887.111	-500.14
887.276	-459.23
887.442	-892.95
887.607	-344.46
887.773	-227.79
887.938	-186.75
888.103	-209.37
888.269	-117.85
888.434	-308.78
888.599	-108.35
888.764	-34.23
888.93	-18.57
889.095	-45.22
889.26	-69.77
889.425	-56.76
889.59	-57.16
889.756	-104.15
889.921	-36.07
890.086	9.38
890.251	10.88
890.416	-130.03
890.581	-839.11
890.746	109.73
890.911	258.76
891.076	160.39
891.241	-247.2
891.406	30.94
891.571	-41.53
891.736	-224.89
891.901	-465.71
892.065	690.38
892.23	162.75
892.395	219.23
892.56	315.1
892.725	-317.38
892.889	-1012.8
893.054	-214.27
893.219	-95.1
893.384	-43.32
893.548	-93.03
893.713	-105.04
893.878	-57.59
