Data from Ofra_1a_PS_2CX8_Reflection_3.txt Node
Date: Tue Jul 20 10:47:56 EDT 2021
User: Adam
Spectrometer: FLMT01687
Trigger mode: 0
Integration Time (sec): 1.004000E0
Scans to average: 2
Electric dark correction enabled: true
Nonlinearity correction enabled: false
Boxcar width: 2
XAxis mode: Wavelengths
Number of Pixels in Spectrum: 3648
>>>>>Begin Spectral Data<<<<<
179.494	-143.65
179.716	-312.21
179.937	1075.25
180.158	-1581.53
180.38	234.97
180.601	208.53
180.823	138.74
181.044	40.98
181.265	48.45
181.486	91.37
181.708	139.36
181.929	-8190.91
182.15	33.99
182.372	312.81
182.593	130.08
182.814	-242.28
183.035	-61.94
183.257	27.14
183.478	30.26
183.699	5.02
183.92	-1.68
184.141	-4.92
184.363	-8.33
184.584	-33.91
184.805	-11.83
185.026	23.09
185.247	17.51
185.468	4.08
185.689	28.76
185.91	11.1
186.132	26.21
186.353	35.83
186.574	25.2
186.795	9.32
187.016	25.23
187.237	-7.88
187.458	-22.66
187.679	-25.92
187.9	-1.72
188.121	-4.73
188.342	14.55
188.563	29.32
188.784	31.64
189.005	30.82
189.226	21.55
189.447	16.01
189.667	2.49
189.888	-7.33
190.109	-53.73
190.33	-18.8
190.551	-13.11
190.772	-12.41
190.993	3.43
191.214	32.05
191.434	-15.77
191.655	-55.33
191.876	-8.51
192.097	-31.6
192.318	15.76
192.538	0.02
192.759	0.48
192.98	12.94
193.201	22.12
193.421	5.96
193.642	16.37
193.863	34.21
194.083	27.9
194.304	42.72
194.525	45.07
194.745	49.89
194.966	36.49
195.187	24.47
195.407	16.75
195.628	25.41
195.848	26.81
196.069	8.82
196.29	36.96
196.51	31.81
196.731	3.43
196.951	-13.47
197.172	-10.08
197.392	-23.43
197.613	0.38
197.833	8.38
198.054	2.66
198.274	12.65
198.495	-6.52
198.715	-16.85
198.936	-0.84
199.156	13.48
199.377	-2.96
199.597	16.32
199.817	10.9
200.038	-7.12
200.258	12.71
200.479	39.23
200.699	31.05
200.919	21.43
201.14	32.92
201.36	40.67
201.58	21.15
201.801	11.94
202.021	19.57
202.241	1.62
202.461	-19.62
202.682	17.12
202.902	36.7
203.122	44.24
203.342	52.47
203.563	46.77
203.783	36.56
204.003	37.54
204.223	44.13
204.443	39.01
204.663	61.37
204.884	65.46
205.104	55.89
205.324	47.94
205.544	25.69
205.764	23.01
205.984	27.26
206.204	46.08
206.424	11.79
206.644	20.81
206.864	2.85
207.084	-5.14
207.304	-28.12
207.525	8.31
207.745	29.2
207.964	31.85
208.184	69.34
208.404	52.35
208.624	42.89
208.844	36.73
209.064	39.88
209.284	12.32
209.504	0.72
209.724	-1.88
209.944	-30.29
210.164	-16.99
210.384	-10.88
210.604	-46.05
210.823	-33.29
211.043	17.79
211.263	-72.79
211.483	-58.38
211.703	-23.25
211.922	-41.63
212.142	-26.8
212.362	-3.17
212.582	-9.28
212.801	-23.85
213.021	-20.19
213.241	-62.37
213.461	-32.68
213.68	-9.89
213.9	-2.52
214.12	-13.35
214.339	13.77
214.559	20.43
214.779	18.58
214.998	43.26
215.218	60.77
215.438	50.75
215.657	45.27
215.877	24.29
216.096	25.22
216.316	25.48
216.535	15.34
216.755	12.76
216.974	35.08
217.194	17.83
217.413	29.95
217.633	23.27
217.852	20.68
218.072	25.16
218.291	38.97
218.511	14.24
218.73	29.71
218.95	24.02
219.169	-1.77
219.389	-12.23
219.608	4.99
219.827	3.57
220.047	28.88
220.266	8.53
220.485	-3.65
220.705	15.04
220.924	10.87
221.143	34.49
221.363	57.56
221.582	68.96
221.801	69.6
222.021	67.55
222.24	53.79
222.459	66.67
222.678	64.62
222.897	59.07
223.117	66.35
223.336	62.37
223.555	49.31
223.774	56.28
223.993	76.07
224.213	89.49
224.432	78.31
224.651	65.57
224.87	40.78
225.089	29.68
225.308	31.06
225.527	26.05
225.746	20.23
225.965	38.05
226.184	20.69
226.404	-5.71
226.623	10.74
226.842	8.71
227.061	8.64
227.28	30.36
227.499	42.43
227.718	33.76
227.936	42.2
228.155	39.95
228.374	22.76
228.593	10.8
228.812	18.58
229.031	29.48
229.25	11.52
229.469	21.34
229.688	28.76
229.907	26.69
230.125	16.21
230.344	32.64
230.563	30.54
230.782	33.73
231.001	38.58
231.22	40.85
231.438	37.59
231.657	33.12
231.876	32.36
232.095	35.46
232.313	20.45
232.532	22.35
232.751	14.82
232.969	8.79
233.188	-4.05
233.407	0.85
233.625	-12.77
233.844	-5.2
234.063	-12.76
234.281	-13.29
234.5	-13.83
234.719	-11.92
234.937	-28.96
235.156	-10.83
235.374	-13.86
235.593	-3.6
235.811	23.8
236.03	27.02
236.249	17.97
236.467	24.52
236.686	33.73
236.904	31.42
237.123	28.7
237.341	36.97
237.559	37.31
237.778	47.58
237.996	0.02
238.215	-19.27
238.433	-57.01
238.652	-4.63
238.87	-37.68
239.088	0.93
239.307	0.02
239.525	21.63
239.743	13.37
239.962	16.44
240.18	13.13
240.398	11.76
240.617	-5.83
240.835	-22.67
241.053	-22.2
241.271	-15.21
241.49	4.18
241.708	-4.01
241.926	-6.14
242.144	23.15
242.363	4.41
242.581	3.31
242.799	-6.83
243.017	16.31
243.235	-9.73
243.453	1.51
243.672	7.59
243.89	28.61
244.108	31.38
244.326	40.93
244.544	42.63
244.762	32.67
244.98	24.01
245.198	24.8
245.416	20.23
245.634	9.29
245.852	-6.14
246.07	10.47
246.288	2.97
246.506	-1.98
246.724	20.75
246.942	29.1
247.16	30.27
247.378	21.41
247.596	32.69
247.814	3.94
248.032	9.15
248.25	22.27
248.468	32.73
248.685	42.5
248.903	43
249.121	47.17
249.339	45.07
249.557	48.84
249.775	38.2
249.992	26.36
250.21	23.98
250.428	28.58
250.646	27.67
250.863	23.29
251.081	36.17
251.299	49.92
251.517	47.24
251.734	44.34
251.952	33.86
252.17	14.05
252.387	-5.35
252.605	-7.81
252.823	-22.11
253.04	7.06
253.258	44.2
253.475	44.88
253.693	32.12
253.911	24.83
254.128	7.87
254.346	6.95
254.563	11.56
254.781	20.16
254.998	12.51
255.216	-5.97
255.433	-17.73
255.651	-27.79
255.868	-39.59
256.086	-3.44
256.303	11.31
256.521	17.66
256.738	28.19
256.956	37.85
257.173	12.08
257.39	24.09
257.608	23.76
257.825	25.59
258.043	35.6
258.26	40.2
258.477	26.33
258.695	17.62
258.912	-0.99
259.129	-19.81
259.346	-43.96
259.564	-24.47
259.781	-33.88
259.998	1.56
260.216	4.27
260.433	14.28
260.65	10.48
260.867	8.68
261.084	2.93
261.302	9.99
261.519	30.73
261.736	21.16
261.953	38
262.17	37.24
262.387	30.99
262.604	15.51
262.822	16.61
263.039	19.14
263.256	10.01
263.473	10.74
263.69	20.54
263.907	32.26
264.124	45.76
264.341	60.04
264.558	60.17
264.775	65.24
264.992	69.78
265.209	43.03
265.426	48.22
265.643	43.93
265.86	34.17
266.077	33.13
266.294	49.09
266.51	56.53
266.727	63.04
266.944	70.43
267.161	62.31
267.378	76.11
267.595	69.59
267.812	67.02
268.028	49.18
268.245	42.31
268.462	24.96
268.679	37.44
268.896	43.75
269.112	30.7
269.329	17.42
269.546	33.83
269.763	21.69
269.979	9.98
270.196	21.2
270.413	35.06
270.629	6.7
270.846	-1.65
271.063	5.24
271.279	4.87
271.496	-2.44
271.712	15.09
271.929	16.62
272.146	21.88
272.362	28.55
272.579	19.1
272.795	12.01
273.012	31.66
273.228	17.86
273.445	26.04
273.661	36.61
273.878	21.55
274.094	8.6
274.311	13.6
274.527	-17.93
274.744	-13.57
274.96	-3.14
275.177	-2.48
275.393	12.63
275.609	29.06
275.826	29.12
276.042	30.2
276.259	36.99
276.475	27.6
276.691	18.68
276.908	15.44
277.124	25.89
277.34	9.05
277.557	-11.16
277.773	-17.62
277.989	-19.98
278.205	-1.31
278.422	7
278.638	23.45
278.854	26.75
279.07	37.66
279.286	34.03
279.503	38.79
279.719	38.93
279.935	28.5
280.151	16.75
280.367	9.63
280.583	-2.21
280.799	-12.56
281.016	-20.26
281.232	-7.36
281.448	-13.07
281.664	-12.26
281.88	5.04
282.096	13.28
282.312	12.29
282.528	23.81
282.744	32.7
282.96	12.56
283.176	1.31
283.392	-22.83
283.608	-65.49
283.824	-103.65
284.04	-125.5
284.256	-55.65
284.471	-28.87
284.687	-8.43
284.903	6.93
285.119	35.49
285.335	29.92
285.551	36.45
285.767	40.98
285.982	30.55
286.198	-20.25
286.414	-4.56
286.63	-3.47
286.846	-24.37
287.061	9.82
287.277	18.61
287.493	-2.2
287.709	1.28
287.924	11.01
288.14	24.57
288.356	33.39
288.571	37.83
288.787	27.28
289.003	45.6
289.218	17.86
289.434	3.5
289.65	22.09
289.865	13.36
290.081	1.93
290.296	6.62
290.512	10.16
290.727	-2.78
290.943	3.45
291.159	-2.13
291.374	-13.14
291.59	-2.24
291.805	-17.91
292.021	-19.88
292.236	-15.17
292.451	-8.3
292.667	-14.77
292.882	8.04
293.098	12.28
293.313	4.77
293.529	15.12
293.744	7.14
293.959	-7.79
294.175	2.78
294.39	0.98
294.605	15.6
294.821	24.75
295.036	40.93
295.251	36.86
295.467	40.11
295.682	34.77
295.897	29.39
296.112	10.53
296.328	16.44
296.543	18.86
296.758	29.85
296.973	22.6
297.188	28.18
297.404	-6.53
297.619	-22.48
297.834	-66.62
298.049	-27.39
298.264	-34.63
298.479	-14.58
298.694	10.47
298.909	21.4
299.125	0.3
299.34	18.99
299.555	24.17
299.77	40.61
299.985	29.29
300.2	38.83
300.415	29
300.63	36.05
300.845	16.85
301.06	23.14
301.275	33.84
301.49	37.01
301.704	22.95
301.919	15.54
302.134	20.79
302.349	4.77
302.564	-4.65
302.779	-6.73
302.994	19.01
303.209	15.3
303.423	30.91
303.638	51.53
303.853	38.43
304.068	23.65
304.283	23.46
304.497	3.51
304.712	3.35
304.927	19.87
305.142	26.71
305.356	35.15
305.571	46.92
305.786	53.19
306	56.99
306.215	44.34
306.43	25.33
306.644	18.8
306.859	6.46
307.074	12.28
307.288	27.9
307.503	26.06
307.717	19.22
307.932	24.1
308.147	13.72
308.361	18.38
308.576	19.44
308.79	18
309.005	11.26
309.219	25.15
309.434	19.97
309.648	13.22
309.863	19.36
310.077	15.34
310.292	26.67
310.506	17.91
310.72	33.94
310.935	50.58
311.149	48.17
311.364	41.43
311.578	52.14
311.792	43.76
312.007	32.62
312.221	31.81
312.435	32.57
312.649	25.99
312.864	20.69
313.078	14.4
313.292	20.82
313.507	15.42
313.721	15.15
313.935	32.66
314.149	28.9
314.363	40.23
314.578	31.84
314.792	-0.5
315.006	-35.67
315.22	-12.41
315.434	-29.48
315.648	-17.43
315.862	-4.39
316.077	1.98
316.291	5.47
316.505	-9.17
316.719	-20.44
316.933	-15.25
317.147	-12.51
317.361	-18.59
317.575	0.65
317.789	3.82
318.003	7.5
318.217	24.33
318.431	3.64
318.645	2.32
318.859	11.76
319.073	26.45
319.287	11.32
319.5	16.4
319.714	11.08
319.928	-5.72
320.142	-23.83
320.356	-12.32
320.57	-26.03
320.784	-19.98
320.997	-17.07
321.211	12.75
321.425	-11.16
321.639	8.59
321.853	16.08
322.066	10
322.28	-12.78
322.494	1.93
322.707	5.69
322.921	0.48
323.135	14.34
323.349	20.04
323.562	29.65
323.776	21.27
323.989	35.18
324.203	29.46
324.417	34.73
324.63	25.99
324.844	19.02
325.057	-7.01
325.271	-0.18
325.485	-29.95
325.698	-2.2
325.912	8.29
326.125	5.32
326.339	7.83
326.552	14.09
326.766	6.74
326.979	18.06
327.193	29.7
327.406	28.37
327.619	32.46
327.833	9.27
328.046	15.85
328.26	2.12
328.473	4.36
328.686	17.25
328.9	33.6
329.113	25.05
329.326	34.61
329.54	37.74
329.753	36.94
329.966	38
330.179	37.8
330.393	29.84
330.606	27.26
330.819	3.15
331.032	1.24
331.246	4.76
331.459	31.79
331.672	27.45
331.885	39.01
332.098	51.6
332.311	32.56
332.525	13.99
332.738	13.81
332.951	8.94
333.164	1.64
333.377	14.46
333.59	14.63
333.803	19.5
334.016	19.11
334.229	24.46
334.442	8.14
334.655	5.43
334.868	-4.19
335.081	-5.7
335.294	-17.38
335.507	-8.3
335.72	-1.66
335.933	6.95
336.146	21.94
336.359	33.88
336.572	42.74
336.785	40.82
336.997	52.57
337.21	24.03
337.423	-14.74
337.636	-29.75
337.849	-15.69
338.062	-15.14
338.274	3.12
338.487	10.13
338.7	6.17
338.913	12.03
339.125	14.16
339.338	-2.58
339.551	1.16
339.763	5.53
339.976	-1.67
340.189	-10.31
340.402	7.18
340.614	4.38
340.827	14.08
341.039	30.03
341.252	41.39
341.465	37.41
341.677	44.4
341.89	24.97
342.102	20.64
342.315	15.93
342.527	9.03
342.74	4.78
342.952	27.53
343.165	29.21
343.377	32.11
343.59	32.32
343.802	29.54
344.015	33.1
344.227	30.38
344.44	37.64
344.652	37.01
344.864	30.58
345.077	27.45
345.289	28.33
345.502	25.8
345.714	26.93
345.926	33.1
346.139	21.73
346.351	22.61
346.563	13.45
346.775	13.72
346.988	16.93
347.2	15.77
347.412	12.83
347.624	8.25
347.837	12.54
348.049	10.42
348.261	9.25
348.473	-1.04
348.685	11.16
348.897	-10.67
349.11	-5.24
349.322	1.63
349.534	13.79
349.746	4.82
349.958	3.38
350.17	-0.96
350.382	-3.99
350.594	-7.79
350.806	8.72
351.018	25.82
351.23	31.29
351.442	37.97
351.654	34.94
351.866	26.06
352.078	26.79
352.29	22.94
352.502	14.16
352.714	14.62
352.926	26.56
353.138	26.56
353.35	22.18
353.561	28.69
353.773	25.98
353.985	27.18
354.197	24.87
354.409	21.93
354.621	3.2
354.832	5.32
355.044	-13.06
355.256	-28.42
355.468	-23.85
355.679	13.84
355.891	20.84
356.103	21.45
356.314	18.34
356.526	8.47
356.738	-2.57
356.949	-7.63
357.161	4.28
357.373	11.45
357.584	18.53
357.796	18.64
358.008	15.99
358.219	19.33
358.431	19.7
358.642	25.28
358.854	14.99
359.065	18.84
359.277	9.25
359.488	15.42
359.7	8.23
359.911	-0.55
360.123	9.23
360.334	6.79
360.546	-5.93
360.757	-9.1
360.969	-9.63
361.18	-11.13
361.391	0.16
361.603	14.19
361.814	27.72
362.025	40.49
362.237	33.15
362.448	38.72
362.659	28.68
362.871	12.76
363.082	3.86
363.293	-19.48
363.504	-44.72
363.716	-41.4
363.927	1.79
364.138	-21.74
364.349	-14.2
364.56	-23.24
364.772	-11.75
364.983	-10.9
365.194	18.4
365.405	33.97
365.616	40.75
365.827	37.34
366.038	28.31
366.25	28.37
366.461	19.03
366.672	15.39
366.883	20.24
367.094	17.96
367.305	3.28
367.516	14.84
367.727	11.44
367.938	4.29
368.149	-7.38
368.36	-14.27
368.571	-28.31
368.781	-31
368.992	-34
369.203	-24.45
369.414	-10.49
369.625	-8.98
369.836	16.23
370.047	24.52
370.258	30.44
370.468	15.62
370.679	11.43
370.89	-12.88
371.101	1.69
371.312	-1.89
371.522	-0.59
371.733	-3.47
371.944	-3.46
372.155	-4.26
372.365	9.54
372.576	8.13
372.787	21.95
372.997	24.05
373.208	21.07
373.419	-6.93
373.629	-2.46
373.84	-19.18
374.05	-31.56
374.261	-48.04
374.472	-21.45
374.682	-14.53
374.893	-17.49
375.103	-0.75
375.314	5.77
375.524	12.38
375.735	13.43
375.945	20.39
376.156	19.43
376.366	15.6
376.577	16.16
376.787	19.1
376.997	24.63
377.208	25.05
377.418	19.58
377.629	10.6
377.839	10.27
378.049	9.71
378.26	4.35
378.47	7.54
378.68	14.8
378.89	10.73
379.101	10.23
379.311	16.32
379.521	14.72
379.732	17.49
379.942	16.09
380.152	7.54
380.362	2.57
380.572	13.92
380.783	13.92
380.993	16.06
381.203	16.48
381.413	20.83
381.623	15.8
381.833	11.67
382.043	6.25
382.253	9.24
382.463	18.59
382.674	13.4
382.884	15.73
383.094	17.63
383.304	19.43
383.514	14.02
383.724	15.81
383.934	9.49
384.144	8.95
384.353	8.88
384.563	6.27
384.773	12.36
384.983	11.25
385.193	12.68
385.403	4.8
385.613	4.4
385.823	-0.29
386.033	2.14
386.242	2.03
386.452	9.78
386.662	12.11
386.872	8.91
387.082	6.23
387.291	2.14
387.501	0.42
387.711	1.08
387.921	2.26
388.13	6.49
388.34	11.59
388.55	9.34
388.759	4.68
388.969	7.54
389.179	5.71
389.388	1.88
389.598	0.6
389.807	-0.46
390.017	-5.09
390.227	-4.63
390.436	-1.66
390.646	-0.61
390.855	1.3
391.065	4.58
391.274	5.6
391.484	3.29
391.693	4.61
391.903	4.35
392.112	1.76
392.322	0.96
392.531	2.13
392.74	1.47
392.95	0.94
393.159	2.02
393.369	2.46
393.578	2.11
393.787	2.82
393.997	3.62
394.206	3.09
394.415	3.78
394.625	4.12
394.834	2.53
395.043	2.3
395.252	3.97
395.462	3.67
395.671	3.24
395.88	4.78
396.089	4.58
396.298	4.11
396.508	4.03
396.717	3.85
396.926	3.4
397.135	3.9
397.344	3.2
397.553	2.71
397.762	3.77
397.971	3.24
398.181	2.68
398.39	2.54
398.599	3.01
398.808	2.52
399.017	3.52
399.226	3.61
399.435	4.07
399.644	4.24
399.853	4.58
400.062	4.22
400.27	3.83
400.479	3.66
400.688	3.71
400.897	3.22
401.106	3.36
401.315	3.71
401.524	3.64
401.733	3.09
401.941	3.58
402.15	3.4
402.359	3.57
402.568	3.84
402.777	4.29
402.985	3.66
403.194	3.54
403.403	3.57
403.612	3.39
403.82	2.76
404.029	3.09
404.238	3.25
404.446	3.34
404.655	3.47
404.864	3.83
405.072	3.77
405.281	3.73
405.489	3.32
405.698	3.26
405.906	3.4
406.115	3.42
406.324	3.36
406.532	3.58
406.741	3.56
406.949	3.41
407.158	3.52
407.366	3.45
407.574	3.53
407.783	3.5
407.991	3.48
408.2	3.42
408.408	3.45
408.617	3.31
408.825	3.24
409.033	3.21
409.242	3.24
409.45	3.19
409.658	3.2
409.867	3.26
410.075	3.39
410.283	3.25
410.491	3.19
410.7	3.13
410.908	3.24
411.116	3.26
411.324	3.29
411.533	3.37
411.741	3.48
411.949	3.35
412.157	3.26
412.365	3.35
412.573	3.41
412.781	3.34
412.99	3.43
413.198	3.44
413.406	3.46
413.614	3.4
413.822	3.52
414.03	3.38
414.238	3.32
414.446	3.38
414.654	3.37
414.862	3.17
415.07	3.13
415.278	3.22
415.486	2.84
415.694	2.92
415.902	2.89
416.109	2.89
416.317	2.89
416.525	3.08
416.733	2.98
416.941	3.17
417.149	3.18
417.357	3.21
417.564	3.07
417.772	3.21
417.98	3.1
418.188	3.03
418.395	2.79
418.603	2.79
418.811	2.6
419.019	2.54
419.226	2.58
419.434	2.73
419.642	2.7
419.849	2.73
420.057	2.77
420.265	2.81
420.472	2.73
420.68	2.96
420.887	3.05
421.095	3.06
421.302	3.07
421.51	2.99
421.717	2.85
421.925	2.69
422.132	2.67
422.34	2.52
422.547	2.62
422.755	2.66
422.962	2.77
423.17	2.6
423.377	2.66
423.585	2.75
423.792	2.59
423.999	2.52
424.207	2.59
424.414	2.6
424.621	2.59
424.829	2.82
425.036	2.84
425.243	2.98
425.451	3.08
425.658	2.96
425.865	2.82
426.072	2.83
426.28	2.92
426.487	2.85
426.694	2.83
426.901	2.88
427.108	2.85
427.315	2.62
427.523	2.53
427.73	2.54
427.937	2.38
428.144	2.34
428.351	2.5
428.558	2.63
428.765	2.6
428.972	2.72
429.179	2.56
429.386	2.47
429.593	2.44
429.8	2.47
430.007	2.52
430.214	2.72
430.421	2.85
430.628	2.73
430.835	2.59
431.042	2.55
431.249	2.58
431.456	2.54
431.662	2.68
431.869	3.01
432.076	2.96
432.283	3.06
432.49	3
432.697	2.92
432.903	2.73
433.11	2.91
433.317	2.78
433.524	2.89
433.73	2.86
433.937	2.93
434.144	2.78
434.35	2.75
434.557	2.72
434.764	2.78
434.97	2.7
435.177	2.84
435.384	2.92
435.59	2.89
435.797	3
436.003	3.06
436.21	2.92
436.416	2.93
436.623	3
436.829	2.84
437.036	2.8
437.242	2.89
437.449	2.83
437.655	2.76
437.862	2.94
438.068	2.87
438.275	2.9
438.481	2.97
438.687	2.93
438.894	2.97
439.1	3
439.307	3.07
439.513	3.1
439.719	3.12
439.926	3.06
440.132	3.16
440.338	3.1
440.544	3.11
440.751	3.12
440.957	3.13
441.163	3.02
441.369	2.97
441.575	2.95
441.782	3.06
441.988	3.04
442.194	3.06
442.4	3.05
442.606	3.19
442.812	3.16
443.018	3.18
443.224	3.3
443.431	3.33
443.637	3.14
443.843	3.19
444.049	3.24
444.255	3.24
444.461	3.15
444.667	3.17
444.873	3.12
445.079	2.99
445.284	2.95
445.49	3.02
445.696	2.98
445.902	3.02
446.108	3.11
446.314	3.12
446.52	3.23
446.726	3.42
446.931	3.35
447.137	3.38
447.343	3.36
447.549	3.32
447.755	3.24
447.96	3.3
448.166	3.25
448.372	3.27
448.578	3.22
448.783	3.24
448.989	3.24
449.195	3.2
449.4	3.32
449.606	3.42
449.812	3.33
450.017	3.33
450.223	3.43
450.428	3.36
450.634	3.3
450.84	3.38
451.045	3.4
451.251	3.46
451.456	3.51
451.662	3.57
451.867	3.61
452.073	3.7
452.278	3.6
452.483	3.6
452.689	3.5
452.894	3.56
453.1	3.43
453.305	3.43
453.51	3.42
453.716	3.51
453.921	3.51
454.127	3.58
454.332	3.58
454.537	3.52
454.742	3.41
454.948	3.44
455.153	3.48
455.358	3.55
455.563	3.69
455.769	3.77
455.974	3.68
456.179	3.59
456.384	3.49
456.589	3.43
456.795	3.47
457	3.45
457.205	3.45
457.41	3.51
457.615	3.46
457.82	3.43
458.025	3.56
458.23	3.57
458.435	3.7
458.64	3.8
458.845	3.93
459.05	3.94
459.255	3.95
459.46	3.9
459.665	3.89
459.87	3.85
460.075	3.84
460.28	3.96
460.485	3.99
460.69	3.96
460.895	4.03
461.099	3.98
461.304	3.82
461.509	3.87
461.714	3.98
461.919	3.9
462.123	4.04
462.328	4.02
462.533	3.91
462.738	3.84
462.942	3.85
463.147	3.84
463.352	4.12
463.556	4.31
463.761	4.34
463.966	4.35
464.17	4.39
464.375	4.44
464.58	4.37
464.784	4.4
464.989	4.52
465.193	4.5
465.398	4.49
465.602	4.58
465.807	4.66
466.011	4.68
466.216	4.66
466.42	4.69
466.625	4.8
466.829	4.81
467.034	4.91
467.238	5.12
467.443	5.1
467.647	5.06
467.851	5.03
468.056	5
468.26	4.96
468.464	5.01
468.669	5.01
468.873	5.1
469.077	5.11
469.282	5.07
469.486	5.05
469.69	5.21
469.894	5.22
470.099	5.23
470.303	5.27
470.507	5.35
470.711	5.19
470.915	5.22
471.119	5.32
471.324	5.41
471.528	5.44
471.732	5.56
471.936	5.57
472.14	5.61
472.344	5.73
472.548	5.81
472.752	5.76
472.956	5.81
473.16	5.78
473.364	5.65
473.568	5.54
473.772	5.63
473.976	5.72
474.18	5.74
474.384	5.79
474.588	5.83
474.792	5.81
474.995	5.88
475.199	5.87
475.403	5.79
475.607	5.89
475.811	5.95
476.015	5.86
476.218	5.93
476.422	6.02
476.626	6.03
476.83	6.1
477.033	6.13
477.237	6.09
477.441	6.1
477.644	6.09
477.848	6.04
478.052	6.02
478.255	6.11
478.459	6.09
478.663	6.15
478.866	6.2
479.07	6.18
479.273	6.24
479.477	6.3
479.681	6.3
479.884	6.3
480.088	6.3
480.291	6.21
480.495	6.14
480.698	6.09
480.901	6.07
481.105	6.11
481.308	6.13
481.512	6.28
481.715	6.37
481.919	6.41
482.122	6.43
482.325	6.48
482.529	6.45
482.732	6.41
482.935	6.34
483.138	6.41
483.342	6.41
483.545	6.46
483.748	6.48
483.952	6.64
484.155	6.64
484.358	6.61
484.561	6.51
484.764	6.47
484.967	6.34
485.171	6.29
485.374	6.3
485.577	6.3
485.78	6.32
485.983	6.29
486.186	6.27
486.389	6.26
486.592	6.28
486.795	6.3
486.998	6.32
487.201	6.4
487.404	6.52
487.607	6.6
487.81	6.54
488.013	6.53
488.216	6.54
488.419	6.45
488.622	6.37
488.825	6.38
489.028	6.47
489.231	6.44
489.433	6.39
489.636	6.44
489.839	6.5
490.042	6.42
490.245	6.36
490.447	6.37
490.65	6.36
490.853	6.35
491.056	6.35
491.258	6.39
491.461	6.35
491.664	6.3
491.866	6.26
492.069	6.34
492.272	6.31
492.474	6.37
492.677	6.34
492.879	6.33
493.082	6.29
493.285	6.32
493.487	6.31
493.69	6.35
493.892	6.36
494.095	6.33
494.297	6.37
494.5	6.26
494.702	6.33
494.905	6.37
495.107	6.39
495.309	6.39
495.512	6.51
495.714	6.47
495.917	6.52
496.119	6.55
496.321	6.52
496.524	6.45
496.726	6.43
496.928	6.37
497.13	6.29
497.333	6.28
497.535	6.34
497.737	6.38
497.939	6.39
498.142	6.4
498.344	6.44
498.546	6.39
498.748	6.45
498.95	6.44
499.152	6.46
499.355	6.47
499.557	6.54
499.759	6.57
499.961	6.59
500.163	6.62
500.365	6.64
500.567	6.61
500.769	6.54
500.971	6.56
501.173	6.59
501.375	6.62
501.577	6.64
501.779	6.62
501.981	6.63
502.183	6.63
502.385	6.68
502.587	6.7
502.788	6.74
502.99	6.78
503.192	6.78
503.394	6.69
503.596	6.66
503.798	6.62
503.999	6.6
504.201	6.65
504.403	6.78
504.605	6.89
504.806	7
505.008	7.05
505.21	7.09
505.411	7.12
505.613	7.15
505.815	7.1
506.016	7.12
506.218	7.09
506.42	7.08
506.621	7.09
506.823	7.12
507.024	7.11
507.226	7.16
507.427	7.12
507.629	7.09
507.83	7.15
508.032	7.14
508.233	7.09
508.435	7.09
508.636	7.17
508.838	7.15
509.039	7.16
509.24	7.2
509.442	7.22
509.643	7.21
509.845	7.24
510.046	7.36
510.247	7.37
510.448	7.38
510.65	7.42
510.851	7.43
511.052	7.38
511.254	7.44
511.455	7.5
511.656	7.49
511.857	7.45
512.058	7.5
512.26	7.46
512.461	7.44
512.662	7.43
512.863	7.44
513.064	7.44
513.265	7.47
513.466	7.54
513.667	7.61
513.868	7.66
514.069	7.63
514.27	7.58
514.471	7.52
514.672	7.49
514.873	7.49
515.074	7.52
515.275	7.58
515.476	7.66
515.677	7.67
515.878	7.71
516.079	7.66
516.28	7.63
516.481	7.62
516.682	7.6
516.882	7.56
517.083	7.61
517.284	7.63
517.485	7.63
517.686	7.67
517.886	7.68
518.087	7.65
518.288	7.66
518.488	7.64
518.689	7.61
518.89	7.62
519.091	7.71
519.291	7.68
519.492	7.73
519.692	7.76
519.893	7.79
520.094	7.72
520.294	7.82
520.495	7.76
520.695	7.81
520.896	7.81
521.096	7.92
521.297	7.88
521.497	7.95
521.698	7.89
521.898	7.85
522.099	7.81
522.299	7.83
522.499	7.82
522.7	7.88
522.9	7.9
523.101	7.9
523.301	7.92
523.501	7.95
523.702	7.91
523.902	7.95
524.102	7.97
524.302	7.98
524.503	7.91
524.703	7.93
524.903	7.93
525.103	7.92
525.304	7.9
525.504	8.03
525.704	8.04
525.904	8
526.104	8.03
526.304	8.03
526.504	8.02
526.705	8.04
526.905	8.08
527.105	8.06
527.305	8.09
527.505	8.04
527.705	8.08
527.905	8.18
528.105	8.21
528.305	8.27
528.505	8.25
528.705	8.26
528.905	8.22
529.105	8.25
529.304	8.24
529.504	8.38
529.704	8.41
529.904	8.42
530.104	8.45
530.304	8.45
530.503	8.45
530.703	8.47
530.903	8.5
531.103	8.59
531.303	8.6
531.502	8.62
531.702	8.58
531.902	8.63
532.101	8.54
532.301	8.55
532.501	8.59
532.7	8.69
532.9	8.7
533.1	8.75
533.299	8.81
533.499	8.74
533.698	8.71
533.898	8.74
534.097	8.78
534.297	8.74
534.496	8.8
534.696	8.84
534.895	8.87
535.095	8.89
535.294	8.99
535.494	9.01
535.693	9.03
535.892	9.04
536.092	9.11
536.291	9.14
536.491	9.16
536.69	9.18
536.889	9.17
537.088	9.15
537.288	9.07
537.487	9.15
537.686	9.18
537.886	9.27
538.085	9.3
538.284	9.44
538.483	9.41
538.682	9.46
538.882	9.48
539.081	9.48
539.28	9.52
539.479	9.53
539.678	9.53
539.877	9.53
540.076	9.56
540.275	9.58
540.474	9.64
540.673	9.71
540.872	9.73
541.071	9.81
541.27	9.87
541.469	9.86
541.668	9.92
541.867	10.07
542.066	10.13
542.265	10.15
542.464	10.26
542.663	10.34
542.862	10.36
543.06	10.43
543.259	10.56
543.458	10.67
543.657	10.7
543.856	10.76
544.054	10.77
544.253	10.77
544.452	10.83
544.651	10.93
544.849	10.91
545.048	10.97
545.247	11.01
545.445	11.04
545.644	10.99
545.843	11.04
546.041	11.11
546.24	11.17
546.438	11.17
546.637	11.28
546.836	11.44
547.034	11.52
547.233	11.58
547.431	11.67
547.63	11.74
547.828	11.73
548.027	11.75
548.225	11.78
548.423	11.89
548.622	11.94
548.82	11.98
549.019	12.08
549.217	12.18
549.415	12.26
549.614	12.46
549.812	12.56
550.01	12.61
550.209	12.75
550.407	12.8
550.605	12.76
550.803	12.86
551.002	13
551.2	13.03
551.398	13.19
551.596	13.33
551.794	13.41
551.993	13.44
552.191	13.53
552.389	13.58
552.587	13.65
552.785	13.7
552.983	13.85
553.181	13.95
553.379	13.99
553.577	14.11
553.775	14.35
553.973	14.45
554.171	14.58
554.369	14.71
554.567	14.83
554.765	14.82
554.963	14.85
555.161	14.93
555.359	15.04
555.557	15.06
555.755	15.2
555.952	15.39
556.15	15.48
556.348	15.55
556.546	15.78
556.744	15.9
556.941	15.92
557.139	16.1
557.337	16.31
557.535	16.32
557.732	16.35
557.93	16.61
558.128	16.7
558.325	16.78
558.523	16.96
558.721	17.24
558.918	17.32
559.116	17.53
559.313	17.64
559.511	17.78
559.708	17.84
559.906	18.02
560.104	18.04
560.301	18.24
560.498	18.33
560.696	18.45
560.893	18.56
561.091	18.74
561.288	18.83
561.486	18.99
561.683	19.13
561.88	19.27
562.078	19.35
562.275	19.48
562.473	19.6
562.67	19.72
562.867	19.75
563.064	19.9
563.262	19.96
563.459	20.22
563.656	20.38
563.853	20.61
564.051	20.76
564.248	20.95
564.445	20.99
564.642	21.12
564.839	21.26
565.036	21.44
565.234	21.6
565.431	21.69
565.628	21.79
565.825	21.87
566.022	21.98
566.219	22.06
566.416	22.23
566.613	22.46
566.81	22.62
567.007	22.7
567.204	22.77
567.401	22.85
567.598	22.86
567.795	22.84
567.991	22.87
568.188	22.97
568.385	23.03
568.582	23.21
568.779	23.31
568.976	23.48
569.172	23.69
569.369	23.84
569.566	23.9
569.763	23.95
569.96	24.12
570.156	24.13
570.353	24.16
570.55	24.18
570.746	24.33
570.943	24.34
571.14	24.35
571.336	24.36
571.533	24.42
571.729	24.37
571.926	24.44
572.123	24.53
572.319	24.62
572.516	24.68
572.712	24.78
572.909	24.75
573.105	24.8
573.302	24.78
573.498	24.83
573.695	24.87
573.891	24.88
574.087	24.79
574.284	24.93
574.48	24.91
574.677	24.92
574.873	24.94
575.069	25.06
575.266	25.03
575.462	25.05
575.658	25.21
575.854	25.23
576.051	25.25
576.247	25.19
576.443	25.22
576.639	25.14
576.835	25.15
577.032	25.15
577.228	25.26
577.424	25.23
577.62	25.18
577.816	25.21
578.012	25.28
578.208	25.29
578.404	25.3
578.6	25.42
578.796	25.39
578.993	25.38
579.189	25.42
579.384	25.4
579.58	25.33
579.776	25.28
579.972	25.27
580.168	25.22
580.364	25.26
580.56	25.15
580.756	25.14
580.952	25.01
581.148	25.06
581.343	25.04
581.539	25.17
581.735	25.23
581.931	25.24
582.127	25.14
582.322	25.07
582.518	24.94
582.714	24.84
582.909	24.83
583.105	24.85
583.301	24.87
583.496	24.83
583.692	24.79
583.888	24.7
584.083	24.6
584.279	24.48
584.474	24.5
584.67	24.48
584.866	24.57
585.061	24.59
585.257	24.61
585.452	24.58
585.648	24.59
585.843	24.55
586.039	24.51
586.234	24.53
586.429	24.53
586.625	24.53
586.82	24.5
587.015	24.5
587.211	24.5
587.406	24.46
587.601	24.47
587.797	24.49
587.992	24.4
588.187	24.36
588.383	24.39
588.578	24.41
588.773	24.4
588.968	24.54
589.163	24.68
589.359	24.67
589.554	24.52
589.749	24.6
589.944	24.61
590.139	24.55
590.334	24.74
590.529	24.87
590.724	25.04
590.919	25.05
591.114	25.11
591.309	24.98
591.504	25.05
591.699	24.94
591.894	24.95
592.089	24.95
592.284	25.03
592.479	25.01
592.674	25.08
592.869	25.22
593.064	25.29
593.259	25.33
593.454	25.5
593.648	25.55
593.843	25.5
594.038	25.64
594.233	25.71
594.428	25.8
594.622	25.86
594.817	26.13
595.012	26.15
595.206	26.26
595.401	26.31
595.596	26.39
595.79	26.35
595.985	26.39
596.18	26.48
596.374	26.57
596.569	26.67
596.763	26.72
596.958	26.92
597.153	27
597.347	27.02
597.542	27.12
597.736	27.33
597.931	27.39
598.125	27.58
598.319	27.77
598.514	27.8
598.708	27.78
598.903	27.83
599.097	27.82
599.291	27.78
599.486	27.9
599.68	27.98
599.874	28.1
600.069	28.19
600.263	28.26
600.457	28.36
600.651	28.37
600.846	28.43
601.04	28.43
601.234	28.45
601.428	28.53
601.622	28.56
601.817	28.53
602.011	28.6
602.205	28.66
602.399	28.6
602.593	28.72
602.787	28.71
602.981	28.71
603.175	28.85
603.369	28.89
603.563	28.94
603.757	28.97
603.951	28.96
604.145	28.84
604.339	28.81
604.533	28.65
604.727	28.65
604.921	28.65
605.115	28.63
605.309	28.53
605.502	28.63
605.696	28.58
605.89	28.57
606.084	28.55
606.278	28.56
606.471	28.39
606.665	28.33
606.859	28.17
607.053	28.07
607.246	28.06
607.44	28.01
607.634	28
607.827	28.06
608.021	27.98
608.214	27.88
608.408	27.81
608.602	27.67
608.795	27.56
608.989	27.48
609.182	27.37
609.376	27.31
609.569	27.2
609.763	27.08
609.956	27.11
610.15	26.96
610.343	26.88
610.537	26.81
610.73	26.58
610.923	26.38
611.117	26.36
611.31	26.19
611.504	26.08
611.697	26.09
611.89	25.99
612.083	25.77
612.277	25.67
612.47	25.56
612.663	25.5
612.856	25.41
613.05	25.39
613.243	25.38
613.436	25.31
613.629	25.17
613.822	25.12
614.015	25.09
614.209	24.84
614.402	24.69
614.595	24.63
614.788	24.53
614.981	24.28
615.174	24.13
615.367	24.07
615.56	23.84
615.753	23.77
615.946	23.78
616.139	23.9
616.332	23.89
616.525	23.94
616.718	23.84
616.911	23.75
617.103	23.68
617.296	23.58
617.489	23.47
617.682	23.44
617.875	23.36
618.067	23.28
618.26	23.22
618.453	23.19
618.646	23.12
618.838	22.99
619.031	22.92
619.224	22.83
619.417	22.77
619.609	22.7
619.802	22.77
619.994	22.77
620.187	22.66
620.38	22.63
620.572	22.58
620.765	22.5
620.957	22.35
621.15	22.39
621.342	22.32
621.535	22.32
621.727	22.31
621.92	22.38
622.112	22.36
622.305	22.38
622.497	22.27
622.69	22.21
622.882	22.22
623.074	22.21
623.267	22.13
623.459	22.02
623.651	21.95
623.844	21.89
624.036	21.89
624.228	21.87
624.42	21.94
624.613	21.86
624.805	21.84
624.997	21.74
625.189	21.67
625.381	21.62
625.574	21.58
625.766	21.38
625.958	21.35
626.15	21.33
626.342	21.37
626.534	21.41
626.726	21.45
626.918	21.4
627.11	21.36
627.302	21.24
627.494	21.18
627.686	21.15
627.878	21.1
628.07	21.1
628.262	21.11
628.454	21.09
628.646	21.05
628.838	21.07
629.029	20.92
629.221	20.88
629.413	20.82
629.605	20.74
629.797	20.67
629.989	20.69
630.18	20.65
630.372	20.59
630.564	20.57
630.755	20.42
630.947	20.38
631.139	20.28
631.33	20.28
631.522	20.2
631.714	20.24
631.905	20.24
632.097	20.17
632.289	20.06
632.48	20.05
632.672	20.05
632.863	19.96
633.055	20.03
633.246	20.09
633.438	20.07
633.629	20.03
633.821	20
634.012	19.93
634.203	19.85
634.395	19.86
634.586	19.8
634.777	19.8
634.969	19.85
635.16	19.85
635.351	19.8
635.543	19.74
635.734	19.7
635.925	19.65
636.117	19.7
636.308	19.69
636.499	19.72
636.69	19.78
636.881	19.69
637.073	19.68
637.264	19.74
637.455	19.69
637.646	19.59
637.837	19.59
638.028	19.58
638.219	19.57
638.41	19.62
638.601	19.59
638.792	19.59
638.983	19.56
639.174	19.42
639.365	19.51
639.556	19.48
639.747	19.47
639.938	19.49
640.129	19.55
640.32	19.44
640.511	19.47
640.701	19.47
640.892	19.29
641.083	19.19
641.274	19.07
641.465	19
641.655	18.93
641.846	18.99
642.037	18.94
642.228	18.89
642.418	18.82
642.609	18.86
642.8	18.79
642.99	18.71
643.181	18.79
643.372	18.8
643.562	18.63
643.753	18.56
643.943	18.51
644.134	18.37
644.324	18.43
644.515	18.46
644.705	18.46
644.896	18.55
645.086	18.61
645.277	18.51
645.467	18.46
645.658	18.47
645.848	18.4
646.038	18.33
646.229	18.33
646.419	18.27
646.61	18.3
646.8	18.35
646.99	18.36
647.18	18.32
647.371	18.34
647.561	18.17
647.751	18.06
647.941	18.01
648.132	17.93
648.322	17.84
648.512	17.94
648.702	18
648.892	17.97
649.082	18.01
649.272	18.03
649.462	17.94
649.653	17.84
649.843	17.79
650.033	17.74
650.223	17.76
650.413	17.7
650.603	17.74
650.793	17.81
650.983	17.7
651.172	17.62
651.362	17.56
651.552	17.47
651.742	17.28
651.932	17.29
652.122	17.26
652.312	17.17
652.502	17.02
652.691	17.02
652.881	16.96
653.071	16.9
653.261	16.84
653.45	16.9
653.64	16.71
653.83	16.58
654.019	16.31
654.209	16.18
654.399	15.85
654.588	15.7
654.778	15.46
654.968	15.45
655.157	15.34
655.347	15.29
655.536	15.19
655.726	15.07
655.915	14.84
656.105	14.66
656.294	14.44
656.484	14.21
656.673	14.05
656.863	13.96
657.052	13.74
657.241	13.71
657.431	13.61
657.62	13.49
657.809	13.24
657.999	13.06
658.188	12.84
658.377	12.61
658.567	12.41
658.756	12.24
658.945	12.06
659.134	11.83
659.324	11.65
659.513	11.51
659.702	11.26
659.891	11.17
660.08	11.04
660.269	10.86
660.458	10.61
660.648	10.47
660.837	10.23
661.026	9.84
661.215	9.65
661.404	9.51
661.593	9.37
661.782	9.26
661.971	9.25
662.16	9.11
662.349	8.95
662.538	8.8
662.726	8.62
662.915	8.48
663.104	8.33
663.293	8.18
663.482	8.12
663.671	7.97
663.86	7.93
664.048	7.98
664.237	7.95
664.426	7.86
664.615	7.78
664.803	7.67
664.992	7.55
665.181	7.44
665.369	7.29
665.558	7.21
665.747	7.2
665.935	7.1
666.124	7.07
666.312	6.99
666.501	6.96
666.69	6.95
666.878	6.9
667.067	6.86
667.255	6.89
667.444	6.95
667.632	6.83
667.82	6.85
668.009	6.74
668.197	6.67
668.386	6.6
668.574	6.55
668.762	6.57
668.951	6.69
669.139	6.77
669.327	6.74
669.516	6.77
669.704	6.67
669.892	6.57
670.08	6.5
670.269	6.47
670.457	6.41
670.645	6.42
670.833	6.56
671.021	6.74
671.21	6.81
671.398	6.95
671.586	7.03
671.774	7.02
671.962	6.92
672.15	7
672.338	7.09
672.526	7.25
672.714	7.31
672.902	7.41
673.09	7.49
673.278	7.57
673.466	7.5
673.654	7.52
673.842	7.54
674.03	7.63
674.218	7.66
674.405	7.78
674.593	7.84
674.781	7.96
674.969	8.03
675.157	8.04
675.344	8.11
675.532	8.14
675.72	8.18
675.908	8.22
676.095	8.34
676.283	8.45
676.471	8.65
676.658	8.78
676.846	8.86
677.033	8.91
677.221	8.92
677.409	8.89
677.596	8.98
677.784	9.1
677.971	9.18
678.159	9.27
678.346	9.4
678.534	9.5
678.721	9.73
678.909	9.78
679.096	9.84
679.283	9.97
679.471	10.1
679.658	10.06
679.846	10.15
680.033	10.45
680.22	10.57
680.408	10.55
680.595	10.65
680.782	10.93
680.969	11.09
681.157	11.18
681.344	11.29
681.531	11.54
681.718	11.57
681.905	11.64
682.093	11.84
682.28	12.08
682.467	12.11
682.654	12.32
682.841	12.51
683.028	12.68
683.215	13
683.402	13.16
683.589	13.36
683.776	13.61
683.963	13.89
684.15	14.13
684.337	14.38
684.524	14.64
684.711	14.88
684.898	15.06
685.085	15.25
685.271	15.71
685.458	16.07
685.645	16.32
685.832	16.76
686.019	16.93
686.205	17.16
686.392	17.57
686.579	17.97
686.766	18.32
686.952	18.96
687.139	19.51
687.326	19.84
687.512	20.28
687.699	20.82
687.886	21.25
688.072	21.82
688.259	22.4
688.445	23.02
688.632	23.57
688.818	24.29
689.005	24.77
689.191	25.45
689.378	26.07
689.564	26.75
689.751	27.27
689.937	27.91
690.124	28.53
690.31	28.92
690.496	29.59
690.683	30.41
690.869	31.16
691.055	32
691.242	32.92
691.428	33.6
691.614	34.33
691.8	35.14
691.987	36.03
692.173	37.05
692.359	37.91
692.545	38.78
692.731	39.67
692.918	40.2
693.104	40.92
693.29	41.47
693.476	42.3
693.662	42.95
693.848	43.85
694.034	44.74
694.22	45.88
694.406	46.62
694.592	47.61
694.778	48.13
694.964	48.93
695.15	49.62
695.336	50.54
695.522	51.36
695.708	52.42
695.894	53.26
696.08	54.14
696.265	54.85
696.451	55.42
696.637	56.57
696.823	57.22
697.009	57.88
697.194	58.51
697.38	59.32
697.566	59.38
697.751	59.98
697.937	61.06
698.123	61.76
698.308	62.35
698.494	63.41
698.68	64.11
698.865	64.42
699.051	65.16
699.236	65.79
699.422	66.31
699.607	67.05
699.793	67.77
699.978	68.14
700.164	68.77
700.349	69.43
700.535	69.77
700.72	70.21
700.906	70.74
701.091	71.37
701.276	71.74
701.462	72.37
701.647	72.95
701.832	73.67
702.018	74.36
702.203	74.94
702.388	75.28
702.573	75.78
702.759	76.37
702.944	76.33
703.129	76.56
703.314	76.99
703.499	77.37
703.684	77.58
703.87	78.14
704.055	78.57
704.24	78.93
704.425	79.47
704.61	79.99
704.795	80.5
704.98	80.65
705.165	81.28
705.35	81.13
705.535	81.42
705.72	81.2
705.905	82
706.09	81.92
706.275	82.37
706.459	82.66
706.644	82.97
706.829	83
707.014	83.39
707.199	83.82
707.384	83.84
707.568	84.6
707.753	84.94
707.938	85.2
708.123	85.25
708.307	85.83
708.492	85.85
708.677	85.84
708.861	86.16
709.046	85.84
709.231	85.48
709.415	85.39
709.6	85.65
709.784	85.51
709.969	86.25
710.153	86.56
710.338	87.39
710.522	87.87
710.707	87.94
710.891	88.05
711.076	87.96
711.26	87.82
711.445	87.9
711.629	88.12
711.813	88.23
711.998	88.91
712.182	88.53
712.366	88.92
712.551	89.56
712.735	89.75
712.919	90.01
713.103	90.71
713.288	90.53
713.472	90.76
713.656	90.77
713.84	90.6
714.024	90.63
714.208	90.64
714.393	90.54
714.577	90.9
714.761	90.94
714.945	90.75
715.129	90.84
715.313	91.13
715.497	91.05
715.681	91.13
715.865	91.44
716.049	91.96
716.233	91.53
716.417	91.37
716.601	91.6
716.785	91.44
716.968	91.14
717.152	91.65
717.336	91.94
717.52	92
717.704	92.81
717.888	93.13
718.071	92.93
718.255	92.93
718.439	93.11
718.622	92.76
718.806	92.4
718.99	92.3
719.174	92.71
719.357	92.66
719.541	92.67
719.724	93.09
719.908	93.14
720.092	93
720.275	92.75
720.459	93.29
720.642	93.48
720.826	93.48
721.009	93.32
721.193	93.17
721.376	92.83
721.559	92.23
721.743	92.78
721.926	93.23
722.11	94.16
722.293	94.76
722.476	95.03
722.66	95.64
722.843	95.03
723.026	94.9
723.21	94.59
723.393	95.19
723.576	94.61
723.759	95.56
723.942	95.69
724.126	95.3
724.309	95.01
724.492	95.1
724.675	94.64
724.858	94.39
725.041	94.92
725.224	95.39
725.407	95.11
725.59	95.24
725.774	95.42
725.957	95.18
726.14	94.63
726.322	95.37
726.505	95.77
726.688	95.92
726.871	96.18
727.054	96.82
727.237	96.23
727.42	95.88
727.603	95.65
727.786	95.96
727.968	95.46
728.151	95.48
728.334	95.9
728.517	96.4
728.699	96.25
728.882	96.86
729.065	96.67
729.248	96.33
729.43	96.25
729.613	95.93
729.796	96.21
729.978	96.86
730.161	97.47
730.343	97.5
730.526	97.6
730.708	96.79
730.891	97.43
731.073	97.17
731.256	97.47
731.438	98.12
731.621	98.4
731.803	97.65
731.986	97.53
732.168	97.89
732.35	98.08
732.533	98.35
732.715	99.2
732.898	99.32
733.08	98.42
733.262	97.91
733.444	98.76
733.627	98.34
733.809	98.46
733.991	98.53
734.173	98.74
734.355	97.58
734.538	97.66
734.72	97.71
734.902	99.09
735.084	99.13
735.266	99.7
735.448	100.07
735.63	100.73
735.812	99.96
735.994	99.68
736.176	100.06
736.358	99.58
736.54	99.75
736.722	99.64
736.904	99.98
737.086	98.94
737.268	99.83
737.45	99.94
737.632	100.42
737.814	101.07
737.995	101.88
738.177	101.5
738.359	100.9
738.541	99.91
738.723	99.48
738.904	99.44
739.086	99.69
739.268	99.85
739.449	99.35
739.631	99.4
739.813	99.56
739.994	98.5
740.176	98.13
740.358	100.04
740.539	100.12
740.721	100.11
740.902	100.45
741.084	101.27
741.265	100.2
741.447	100.19
741.628	100.22
741.81	100.23
741.991	99.41
742.172	99.66
742.354	99.69
742.535	99.4
742.717	98.85
742.898	99.24
743.079	99.71
743.261	99.92
743.442	99.01
743.623	100
743.804	99.6
743.986	99.35
744.167	98.04
744.348	98.52
744.529	97.96
744.71	98.44
744.891	98.37
745.073	99.65
745.254	100.13
745.435	99.46
745.616	98.97
745.797	98.61
745.978	97.44
746.159	97.19
746.34	98.23
746.521	98.55
746.702	99.51
746.883	100.9
747.064	101.52
747.245	101.84
747.426	101.12
747.606	100.92
747.787	100.75
747.968	99.63
748.149	98.81
748.33	98.89
748.51	97.78
748.691	97.21
748.872	97.89
749.053	97.42
749.233	97.74
749.414	98.13
749.595	98.45
749.775	98.27
749.956	99.2
750.137	98.55
750.317	98.09
750.498	98.31
750.678	97.94
750.859	98.59
751.04	99.68
751.22	99.54
751.4	99.17
751.581	99.7
751.761	98.58
751.942	98.08
752.122	97.14
752.303	97.06
752.483	96.1
752.663	96.55
752.844	97.04
753.024	98.7
753.204	98.49
753.385	99.01
753.565	98.93
753.745	97.48
753.925	95.91
754.106	95.66
754.286	96.2
754.466	95.18
754.646	96.25
754.826	98.69
755.006	98.42
755.187	98.55
755.367	99.22
755.547	98.64
755.727	98.34
755.907	98.16
756.087	97.48
756.267	96.15
756.447	97.37
756.627	96.39
756.807	97.22
756.987	97.69
757.167	98.2
757.346	96.86
757.526	98.1
757.706	97.29
757.886	96.34
758.066	97.84
758.246	98.42
758.425	96.19
758.605	96.01
758.785	96.6
758.965	96.81
759.144	94.66
759.324	96.52
759.504	96.39
759.683	95.06
759.863	95.58
760.043	97.15
760.222	96.48
760.402	96.13
760.581	96.79
760.761	95.85
760.94	95.45
761.12	94.48
761.299	95.65
761.479	96.05
761.658	95.78
761.838	96.88
762.017	96.87
762.197	95.19
762.376	94.64
762.555	93.99
762.735	92.94
762.914	92.43
763.093	93.04
763.273	92.78
763.452	92.48
763.631	92.89
763.81	94.74
763.99	94.67
764.169	95.3
764.348	95.29
764.527	94.26
764.706	92.89
764.885	93.15
765.064	93.55
765.243	94.18
765.423	95.15
765.602	94.61
765.781	93.59
765.96	93.14
766.139	92.91
766.318	93.05
766.497	93.16
766.676	92.81
766.854	92.62
767.033	92.07
767.212	92.61
767.391	94.37
767.57	96.56
767.749	95.83
767.928	96.24
768.106	95.12
768.285	94.82
768.464	94.37
768.643	93.81
768.821	93.19
769	92.28
769.179	91.07
769.357	90.94
769.536	91.65
769.715	90.59
769.893	90.82
770.072	89.22
770.25	88.22
770.429	87.87
770.607	88.68
770.786	89.07
770.964	90.86
771.143	91.18
771.321	88.96
771.5	89.47
771.678	90.78
771.857	89.17
772.035	89.53
772.213	92.5
772.392	90.5
772.57	88.75
772.748	89.01
772.927	88.53
773.105	88.97
773.283	90.31
773.461	90.62
773.64	90.78
773.818	92.72
773.996	92.44
774.174	93.83
774.352	93.23
774.531	92.75
774.709	89.99
774.887	87.56
775.065	86.8
775.243	86.62
775.421	87.43
775.599	88.31
775.777	89.28
775.955	88.12
776.133	88.6
776.311	87.21
776.489	87.18
776.667	87.55
776.844	87.42
777.022	86.4
777.2	88.02
777.378	86.89
777.556	88.49
777.734	91
777.911	92.45
778.089	93.56
778.267	94.34
778.445	94.37
778.622	92.81
778.8	89.78
778.978	90.61
779.155	93.67
779.333	91.71
779.511	90.5
779.688	93.34
779.866	91.22
780.043	89.17
780.221	90.39
780.398	90.13
780.576	90.03
780.753	89.78
780.931	90.27
781.108	91.75
781.286	94.1
781.463	92.24
781.64	91.91
781.818	91.71
781.995	90.23
782.172	88.64
782.35	90.2
782.527	89.31
782.704	87.36
782.882	82.24
783.059	82.02
783.236	81.87
783.413	82.56
783.59	83.66
783.768	86.61
783.945	84.85
784.122	83.08
784.299	84.82
784.476	83.26
784.653	82.79
784.83	82.28
785.007	84.94
785.184	80.69
785.361	81.61
785.538	79.18
785.715	83.32
785.892	82.05
786.069	85.88
786.246	83.85
786.423	88.4
786.6	86.93
786.776	86.4
786.953	85.79
787.13	86.15
787.307	86.86
787.484	85.12
787.66	85.94
787.837	85.07
788.014	87.06
788.191	84.64
788.367	83.58
788.544	84.6
788.721	82.92
788.897	80.44
789.074	83.17
789.25	83.99
789.427	81.35
789.603	81.92
789.78	82.41
789.956	79.41
790.133	76.36
790.309	77.41
790.486	77.05
790.662	78.78
790.839	77.81
791.015	85.51
791.192	82.58
791.368	81.1
791.544	81.71
791.721	82.84
791.897	78.33
792.073	79.21
792.249	79.24
792.426	78.41
792.602	79.98
792.778	78.19
792.954	81.71
793.13	84.61
793.307	82.59
793.483	81.1
793.659	82.94
793.835	84.48
794.011	87.49
794.187	90.42
794.363	89.66
794.539	91.26
794.715	89
794.891	86.07
795.067	87.1
795.243	87.48
795.419	85.87
795.595	88.25
795.771	84.76
795.947	79.64
796.122	79.99
796.298	77.7
796.474	83.68
796.65	86.91
796.826	87
797.001	89.18
797.177	89.72
797.353	80.35
797.529	76.37
797.704	75.97
797.88	75.32
798.056	78.68
798.231	79.59
798.407	87.37
798.582	90.01
798.758	87.16
798.934	85.38
799.109	86.62
799.285	83.36
799.46	83.29
799.636	83.04
799.811	84.82
799.986	82.72
800.162	75.59
800.337	74.77
800.513	73.41
800.688	70.89
800.863	73.17
801.039	81.07
801.214	79.33
801.389	81.28
801.565	81.33
801.74	78.86
801.915	76.46
802.09	74.93
802.265	76.72
802.441	74.17
802.616	77.18
802.791	77.44
802.966	81.33
803.141	82.64
803.316	86.76
803.491	80.2
803.666	84.37
803.841	79.69
804.016	77.36
804.191	74.99
804.366	78.15
804.541	80
804.716	84.56
804.891	84.4
805.066	84.8
805.241	84.75
805.416	89.37
805.591	92.53
805.765	100.15
805.94	97.58
806.115	98.18
806.29	87.17
806.464	84.72
806.639	80.67
806.814	80.11
806.989	81.17
807.163	83.44
807.338	81.45
807.512	78.61
807.687	82.13
807.862	81.93
808.036	85.58
808.211	89.46
808.385	89.67
808.56	83.14
808.734	76.88
808.909	75.07
809.083	72.27
809.258	72.76
809.432	78.02
809.606	84.85
809.781	83.44
809.955	82.74
810.13	80.57
810.304	77.07
810.478	70.46
810.652	70.07
810.827	70.14
811.001	67.72
811.175	70.25
811.349	80.26
811.524	84.94
811.698	85.35
811.872	88.42
812.046	84.15
812.22	81.03
812.394	77.53
812.568	77.81
812.742	74.04
812.916	78.81
813.09	74.68
813.264	69.8
813.438	70.34
813.612	72.9
813.786	71.38
813.96	78
814.134	77.21
814.308	75.7
814.482	76.48
814.656	71.76
814.83	65.97
815.003	70.62
815.177	72.1
815.351	79.95
815.525	90.88
815.698	84.08
815.872	70.08
816.046	63.23
816.219	65.23
816.393	56.67
816.567	56.94
816.74	67.88
816.914	74.16
817.088	66.26
817.261	69.73
817.435	85.61
817.608	79.23
817.782	73.56
817.955	80.41
818.129	80.88
818.302	77.59
818.475	87.91
818.649	95.83
818.822	87.96
818.996	96.19
819.169	92.22
819.342	88.46
819.516	86.86
819.689	84
819.862	77.09
820.035	77.01
820.209	68.47
820.382	59.94
820.555	58.89
820.728	61.77
820.901	60.36
821.075	80.48
821.248	97.13
821.421	93.61
821.594	83.33
821.767	91.44
821.94	72.66
822.113	67.39
822.286	69.41
822.459	78.34
822.632	77.38
822.805	82.38
822.978	81.22
823.151	85.8
823.324	66.21
823.496	53.59
823.669	72.28
823.842	76.63
824.015	77.32
824.188	88.38
824.361	90.63
824.533	72.37
824.706	63.15
824.879	68.74
825.051	74.09
825.224	74.88
825.397	72.09
825.569	72.94
825.742	75.35
825.915	82.76
826.087	72.04
826.26	74.5
826.432	70.27
826.605	57.34
826.777	58.39
826.95	78.93
827.122	67.34
827.295	89.57
827.467	100.37
827.64	69.87
827.812	55.72
827.984	76.43
828.157	63.54
828.329	70.61
828.501	83.5
828.674	75.74
828.846	75.57
829.018	63.6
829.19	51.79
829.363	45.83
829.535	46.83
829.707	41.25
829.879	39.53
830.051	41.39
830.223	46.81
830.395	33.12
830.568	35.73
830.74	49.55
830.912	52.64
831.084	52.14
831.256	60.45
831.428	73.98
831.6	63.31
831.772	63.15
831.943	57.77
832.115	66.21
832.287	54.62
832.459	55.51
832.631	57.83
832.803	67.92
832.975	68.65
833.146	63.94
833.318	69.38
833.49	77.64
833.662	87.46
833.833	87.38
834.005	93.79
834.177	99.86
834.348	84.58
834.52	71.78
834.692	57.72
834.863	56.83
835.035	43.82
835.206	49.26
835.378	54.87
835.549	62.03
835.721	58.82
835.892	61.12
836.064	59.62
836.235	54.04
836.407	54.69
836.578	50.01
836.749	30.44
836.921	34.55
837.092	34.97
837.264	46.93
837.435	40.89
837.606	56
837.777	53.98
837.949	67.34
838.12	58.68
838.291	73.15
838.462	74.2
838.633	73.32
838.805	61.43
838.976	71.18
839.147	54.91
839.318	65.78
839.489	63.32
839.66	72.27
839.831	58.78
840.002	63.54
840.173	63.74
840.344	60.54
840.515	43.45
840.686	49.68
840.857	52.92
841.028	54.77
841.199	64.03
841.369	69.1
841.54	81.27
841.711	124.82
841.882	107.78
842.053	82.63
842.223	90.21
842.394	76.05
842.565	36.8
842.736	23.8
842.906	11.29
843.077	11.61
843.248	24.42
843.418	35.45
843.589	33.65
843.759	50.2
843.93	29.63
844.101	18.24
844.271	41.75
844.442	40.55
844.612	55.83
844.783	64.45
844.953	66.96
845.123	50.19
845.294	49.91
845.464	29.88
845.635	26.43
845.805	2.05
845.975	1.59
846.146	15.06
846.316	34.47
846.486	47.12
846.656	59.78
846.827	66.46
846.997	72.73
847.167	43.09
847.337	41.63
847.507	41.33
847.677	44.12
847.848	53.75
848.018	74.71
848.188	86.76
848.358	65.22
848.528	73.73
848.698	63.64
848.868	57.36
849.038	50.28
849.208	72.87
849.378	63.32
849.548	61.5
849.718	42.27
849.887	35.32
850.057	22.37
850.227	2.6
850.397	3.5
850.567	-1.48
850.737	25.94
850.906	18.14
851.076	27.56
851.246	48.04
851.415	68.76
851.585	54.87
851.755	75.57
851.924	64.27
852.094	51.62
852.264	39.64
852.433	28.7
852.603	-7.53
852.772	26.53
852.942	44.87
853.111	60.18
853.281	64.36
853.45	52.57
853.62	51.21
853.789	34.08
853.959	43.58
854.128	48.49
854.297	66.47
854.467	53.15
854.636	73.81
854.805	78.37
854.975	73.91
855.144	78.66
855.313	106.39
855.482	74.72
855.652	53.03
855.821	25.02
855.99	34.77
856.159	32.38
856.328	54.01
856.497	58.57
856.667	80.79
856.836	69.28
857.005	66.93
857.174	53.92
857.343	22.4
857.512	25.58
857.681	15.43
857.85	13.08
858.019	-34.66
858.188	1.79
858.356	-1.46
858.525	9.79
858.694	20.07
858.863	25.78
859.032	30.96
859.201	63.86
859.369	61.41
859.538	49.89
859.707	67.46
859.876	81.34
860.044	79.07
860.213	102.96
860.382	119.19
860.55	113.59
860.719	109.95
860.888	82.06
861.056	59.33
861.225	23.75
861.393	48.05
861.562	38.43
861.73	22.33
861.899	9.24
862.067	9.32
862.236	-10.45
862.404	-2.33
862.572	20.54
862.741	15.26
862.909	12.07
863.078	4.62
863.246	-10.46
863.414	-2.77
863.582	5.87
863.751	9.3
863.919	26.07
864.087	21.98
864.255	42.21
864.424	29.71
864.592	38.36
864.76	18.79
864.928	36.38
865.096	27.37
865.264	39.84
865.432	36.13
865.6	72.52
865.768	73.03
865.936	44.87
866.104	13.72
866.272	-33.49
866.44	-11.53
866.608	4.22
866.776	53.14
866.944	78.7
867.112	85.72
867.28	80.83
867.448	64.81
867.615	27.32
867.783	6.01
867.951	-1.61
868.119	0.78
868.286	-20.35
868.454	5.29
868.622	21.03
868.789	35.46
868.957	21.04
869.125	54.73
869.292	49.38
869.46	56.55
869.627	64.66
869.795	49.62
869.963	32.14
870.13	49.82
870.298	46.93
870.465	37.29
870.632	52.43
870.8	46.09
870.967	43.13
871.135	47.49
871.302	41.53
871.469	43.09
871.637	19.04
871.804	31.84
871.971	6.71
872.139	-16.97
872.306	-60.03
872.473	-56.67
872.64	-124.85
872.807	-81.51
872.975	-81.86
873.142	22.25
873.309	58.88
873.476	84.21
873.643	136.83
873.81	101.7
873.977	141.61
874.144	120.62
874.311	86.48
874.478	31.73
874.645	36.81
874.812	47.03
874.979	85.51
875.146	107.36
875.313	100.45
875.48	94.49
875.647	115.98
875.813	74.47
875.98	65.57
876.147	16.72
876.314	52.77
876.481	28.8
876.647	30.83
876.814	29.09
876.981	45.93
877.147	31.79
877.314	50.17
877.481	76.24
877.647	77.75
877.814	100.69
877.98	109.87
878.147	73.89
878.314	65.71
878.48	70.6
878.647	48.69
878.813	71.75
878.979	86.34
879.146	100.43
879.312	103.37
879.479	126.23
879.645	73.09
879.811	72.77
879.978	57.73
880.144	53.47
880.31	43.78
880.477	53.86
880.643	50.43
880.809	42.25
880.975	54.06
881.142	-4.93
881.308	172.68
881.474	200.21
881.64	36.55
881.806	4.66
881.972	64.93
882.138	56.86
882.304	68.04
882.47	55.82
882.636	25.58
882.802	-1.51
882.968	-25.48
883.134	26.71
883.3	18
883.466	96.49
883.632	140.48
883.798	199.92
883.964	200.96
884.129	985.59
884.295	171.25
884.461	38.7
884.627	32.66
884.793	3.94
884.958	19.32
885.124	-4.14
885.29	11.77
885.455	4.95
885.621	4.75
885.787	14.05
885.952	-5.82
886.118	11.88
886.283	9.38
886.449	25.87
886.614	34.28
886.78	81.16
886.945	119.33
887.111	81.86
887.276	77.93
887.442	77.86
887.607	43.28
887.773	27.49
887.938	32.43
888.103	16.06
888.269	23.93
888.434	17.15
888.599	20.2
888.764	45.32
888.93	48.23
889.095	44.22
889.26	21.48
889.425	7.21
889.59	-66.79
889.756	-38.91
889.921	-21.89
890.086	78.96
890.251	163.25
890.416	79.73
890.581	92.86
890.746	98.14
890.911	57.93
891.076	55.66
891.241	56.88
891.406	62.43
891.571	148.72
891.736	180.36
891.901	112.09
892.065	101.03
892.23	102.93
892.395	39.39
892.56	34.14
892.725	51.65
892.889	157.9
893.054	96.8
893.219	23.93
893.384	-12.33
893.548	-102.5
893.713	-217.81
893.878	-328.25
