Data from Ofra_PS_T2_2A_0GT03_Reflection_2.txt Node
Date: Wed Jul 21 16:51:42 EDT 2021
User: Adam
Spectrometer: FLMT01687
Trigger mode: 0
Integration Time (sec): 1.100000E0
Scans to average: 2
Electric dark correction enabled: true
Nonlinearity correction enabled: false
Boxcar width: 2
XAxis mode: Wavelengths
Number of Pixels in Spectrum: 3648
>>>>>Begin Spectral Data<<<<<
179.494	277.6
179.716	333.65
179.937	359.48
180.158	380.5
180.38	615.62
180.601	315.47
180.823	102.3
181.044	-86.26
181.265	-127.21
181.486	-16.62
181.708	41.11
181.929	430.61
182.15	-339.44
182.372	22.97
182.593	-57.84
182.814	-13.6
183.035	6.61
183.257	-4.93
183.478	-72.98
183.699	-10.03
183.92	22.5
184.141	9.57
184.363	-23.02
184.584	-18.93
184.805	-16.74
185.026	-20.38
185.247	2.33
185.468	19.73
185.689	27.93
185.91	26.24
186.132	7.35
186.353	18.54
186.574	-3.18
186.795	15.17
187.016	-29.36
187.237	-19.44
187.458	-48.17
187.679	-25.33
187.9	-10.66
188.121	16.31
188.342	15.68
188.563	38.45
188.784	43.73
189.005	23.7
189.226	31.26
189.447	48.72
189.667	-149.03
189.888	-197.04
190.109	-616.88
190.33	-238.71
190.551	-481.42
190.772	-56.17
190.993	-15.99
191.214	1.09
191.434	-25.76
191.655	20.86
191.876	17.94
192.097	-56.29
192.318	-88.73
192.538	-93.55
192.759	-95.02
192.98	-54.93
193.201	4.16
193.421	22.45
193.642	23.85
193.863	22.58
194.083	13.98
194.304	-9.97
194.525	-29.56
194.745	-71.61
194.966	-51.5
195.187	-29.16
195.407	-1.93
195.628	-12.56
195.848	-9.84
196.069	5.82
196.29	7.91
196.51	-41.49
196.731	-35.87
196.951	-46.16
197.172	-73.47
197.392	-96.95
197.613	-82.12
197.833	-119.32
198.054	-97.52
198.274	-52.04
198.495	-59.4
198.715	-26.18
198.936	-19.94
199.156	-18.77
199.377	-67.64
199.597	-60.18
199.817	-95.74
200.038	-56.56
200.258	-78.81
200.479	-68.5
200.699	-92.93
200.919	-4.77
201.14	-1.85
201.36	-12.2
201.58	33.82
201.801	50.21
202.021	19.49
202.241	9.76
202.461	4.18
202.682	-52.66
202.902	-92.69
203.122	-39.96
203.342	-23.85
203.563	23.87
203.783	31.99
204.003	24.09
204.223	34.12
204.443	66.18
204.663	27.28
204.884	9.61
205.104	25.28
205.324	12.53
205.544	1.8
205.764	25.44
205.984	40.46
206.204	32.83
206.424	16.65
206.644	-23.91
206.864	-14.61
207.084	-61.57
207.304	-69.28
207.525	-62.19
207.745	-26.08
207.964	3.58
208.184	-10.08
208.404	-17.61
208.624	-23.15
208.844	-20.51
209.064	-187.56
209.284	-232.64
209.504	-135.83
209.724	-54.39
209.944	-40.64
210.164	-7.35
210.384	19.14
210.604	15.46
210.823	-7.14
211.043	-8.19
211.263	-24.55
211.483	-31.94
211.703	-77.84
211.922	-71.59
212.142	-24.28
212.362	-9.15
212.582	-19.09
212.801	-7.06
213.021	-21.24
213.241	-56.94
213.461	-66.56
213.68	-85.36
213.9	-78.3
214.12	-55.15
214.339	-79.94
214.559	-70.79
214.779	-24.76
214.998	-2.54
215.218	-39.31
215.438	-21.15
215.657	-30.87
215.877	-40.07
216.096	-18.59
216.316	7.71
216.535	14.45
216.755	28.58
216.974	-26.71
217.194	-69.5
217.413	-83.63
217.633	-63.64
217.852	-159.12
218.072	-43.89
218.291	-7.13
218.511	18.78
218.73	-24.29
218.95	-15.01
219.169	-22.71
219.389	-65.69
219.608	-57.92
219.827	-46.1
220.047	-47.71
220.266	-17.55
220.485	-5
220.705	5.18
220.924	0.13
221.143	38.41
221.363	12.64
221.582	22.23
221.801	26.25
222.021	33.98
222.24	-24.02
222.459	25.65
222.678	2.95
222.897	-16.3
223.117	-33.9
223.336	-57.12
223.555	-55.38
223.774	-16.51
223.993	-32.72
224.213	-6.32
224.432	-11.32
224.651	25
224.87	4.41
225.089	22.46
225.308	22.02
225.527	25.67
225.746	21.35
225.965	13.93
226.184	-2.78
226.404	17.72
226.623	19.64
226.842	20.23
227.061	23.96
227.28	19.72
227.499	-3.01
227.718	5.56
227.936	-21.97
228.155	-18.19
228.374	-13.4
228.593	6.55
228.812	-11.19
229.031	-6.34
229.25	-26.28
229.469	-30.85
229.688	-51.5
229.907	-21.78
230.125	-11.15
230.344	-12.58
230.563	-21.4
230.782	3.42
231.001	-45.3
231.22	-49.53
231.438	-15.64
231.657	12.35
231.876	-7.62
232.095	16
232.313	22.64
232.532	4.39
232.751	-18.39
232.969	-14.4
233.188	-29.22
233.407	13.49
233.625	1.74
233.844	-7.48
234.063	-6.27
234.281	5.54
234.5	0.34
234.719	12.8
234.937	21.54
235.156	17.56
235.374	15.8
235.593	9.36
235.811	18.97
236.03	15.72
236.249	5.06
236.467	19.63
236.686	19.11
236.904	12
237.123	-3.82
237.341	-8.54
237.559	5.16
237.778	-9.19
237.996	-31.13
238.215	-7.51
238.433	12.13
238.652	-10.31
238.87	-8.26
239.088	9.91
239.307	19.13
239.525	10.79
239.743	-13.53
239.962	-18.71
240.18	-42.69
240.398	-77.85
240.617	-48.32
240.835	-28.7
241.053	-14.11
241.271	2.91
241.49	12.11
241.708	-30.26
241.926	-51.73
242.144	-51.06
242.363	-51.15
242.581	-76.41
242.799	-42.29
243.017	-19.52
243.235	-16.45
243.453	-24.6
243.672	-21.86
243.89	-24.3
244.108	-16.51
244.326	-7.48
244.544	10.4
244.762	23.23
244.98	20.67
245.198	22.98
245.416	7.12
245.634	-7.99
245.852	-24.56
246.07	-16.19
246.288	-54.9
246.506	-66.11
246.724	-52.07
246.942	-55.51
247.16	-15.1
247.378	2.59
247.596	17.44
247.814	1.69
248.032	-10.15
248.25	-21.71
248.468	-15.87
248.685	-33.7
248.903	-6.08
249.121	7.87
249.339	-0.06
249.557	-6.05
249.775	2.01
249.992	-36.38
250.21	-40.6
250.428	-32.73
250.646	-63.36
250.863	-59.52
251.081	-20.21
251.299	-16.81
251.517	1.03
251.734	20.08
251.952	15.29
252.17	-0.06
252.387	13.94
252.605	1.46
252.823	6.65
253.04	18.37
253.258	36.89
253.475	26.83
253.693	39.23
253.911	42.24
254.128	40.04
254.346	38.2
254.563	19.4
254.781	-2.36
254.998	-31.4
255.216	-50.13
255.433	-35.42
255.651	-3.17
255.868	21.99
256.086	43.5
256.303	40.41
256.521	17.22
256.738	4.15
256.956	-29.33
257.173	-49.55
257.39	-60.03
257.608	-67.07
257.825	-47.61
258.043	-24.8
258.26	-9.56
258.477	40.56
258.695	22.17
258.912	-7.92
259.129	-7.05
259.346	-28.86
259.564	-99.67
259.781	-99.04
259.998	-47.79
260.216	-22.8
260.433	3.93
260.65	17.35
260.867	24.34
261.084	8
261.302	-10.6
261.519	-21.01
261.736	-37.46
261.953	-52.55
262.17	-22.6
262.387	-43.59
262.604	-70.43
262.822	-47.2
263.039	-29.49
263.256	-61.8
263.473	-43.71
263.69	-16.78
263.907	3.35
264.124	-2.9
264.341	-12.7
264.558	-7.21
264.775	1.58
264.992	-23.66
265.209	-22.7
265.426	6.78
265.643	19.29
265.86	27.65
266.077	30.83
266.294	41.34
266.51	18.94
266.727	5.72
266.944	-18.19
267.161	-8.34
267.378	-10.5
267.595	16.98
267.812	-10.6
268.028	-24.17
268.245	5.34
268.462	-3.77
268.679	-25.52
268.896	21.2
269.112	24.6
269.329	3.66
269.546	5.37
269.763	1.19
269.979	-13.25
270.196	-10.45
270.413	-28.43
270.629	-36.38
270.846	-34.93
271.063	-37.18
271.279	-38.62
271.496	-26.59
271.712	-6.19
271.929	14.15
272.146	6.3
272.362	8.09
272.579	12.65
272.795	15.96
273.012	-7.22
273.228	7.85
273.445	-6.44
273.661	-14.94
273.878	-34.38
274.094	-18.83
274.311	-55.29
274.527	-7.01
274.744	2.79
274.96	5.7
275.177	21.57
275.393	32.89
275.609	21.18
275.826	25.99
276.042	15.36
276.259	-5.36
276.475	5.38
276.691	15.24
276.908	3.23
277.124	7.41
277.34	9.06
277.557	1.46
277.773	-4.16
277.989	-12.71
278.205	-6.8
278.422	9.06
278.638	-3.25
278.854	-3.48
279.07	-8.45
279.286	-11.87
279.503	-48.26
279.719	-35.33
279.935	-46.23
280.151	-50.73
280.367	-29.8
280.583	-40.59
280.799	-28.65
281.016	-48.07
281.232	-18.26
281.448	-27.47
281.664	1.49
281.88	-38.56
282.096	-8.46
282.312	9.41
282.528	32.95
282.744	22.61
282.96	33.63
283.176	23.74
283.392	13.81
283.608	-1.79
283.824	-0.18
284.04	8.52
284.256	8.44
284.471	-2.54
284.687	-9.38
284.903	6.38
285.119	10.51
285.335	-7.62
285.551	-26.7
285.767	-15.13
285.982	-42.61
286.198	-67.29
286.414	-29.18
286.63	-5.05
286.846	4.16
287.061	-4.46
287.277	10.89
287.493	-3.51
287.709	13.07
287.924	5.12
288.14	21.4
288.356	29.06
288.571	37.94
288.787	9.19
289.003	14.18
289.218	10.16
289.434	-15.41
289.65	-17.79
289.865	-1.29
290.081	-2.82
290.296	-5.01
290.512	9.68
290.727	-4.75
290.943	-9.22
291.159	-7.88
291.374	-9.89
291.59	-33.41
291.805	-16.84
292.021	-15.2
292.236	-25.5
292.451	-12.5
292.667	-3.87
292.882	-5.15
293.098	-0.25
293.313	-6.11
293.529	-13.84
293.744	6.03
293.959	-9.13
294.175	-7.9
294.39	9.3
294.605	14.44
294.821	19.04
295.036	18.49
295.251	11.83
295.467	6.91
295.682	-7.3
295.897	-39.43
296.112	-34.46
296.328	-39.6
296.543	-68.71
296.758	-40.39
296.973	-10.81
297.188	13.31
297.404	-0.06
297.619	-4.19
297.834	-28.6
298.049	-45.61
298.264	-54.23
298.479	-14.19
298.694	-13.75
298.909	4.26
299.125	13.68
299.34	12.28
299.555	-0.76
299.77	11.94
299.985	-16.11
300.2	-61.37
300.415	-59.32
300.63	-33.17
300.845	-21.38
301.06	-12.13
301.275	28.32
301.49	23.99
301.704	10
301.919	1.14
302.134	-2
302.349	-18.69
302.564	-59.94
302.779	-62.1
302.994	-74.45
303.209	-33.74
303.423	-17.38
303.638	16.21
303.853	0.9
304.068	-2.1
304.283	-8.99
304.497	5.05
304.712	7.74
304.927	11.75
305.142	6.7
305.356	19.46
305.571	5.29
305.786	-4.21
306	-22.95
306.215	4.81
306.43	-33.13
306.644	-36.23
306.859	10.03
307.074	29.57
307.288	-8.23
307.503	-1.36
307.717	-15.25
307.932	-39.27
308.147	-39.66
308.361	-13.25
308.576	-6.16
308.79	-12.16
309.005	6.82
309.219	-2.84
309.434	-8.47
309.648	-21.03
309.863	-5.24
310.077	-17.5
310.292	-12.86
310.506	-7.14
310.72	6.85
310.935	-3.91
311.149	-15.63
311.364	-5.5
311.578	-6.99
311.792	-21.59
312.007	-9.94
312.221	-2.26
312.435	-2.4
312.649	-9.42
312.864	15.19
313.078	44.65
313.292	83.78
313.507	65.24
313.721	45.86
313.935	15.43
314.149	-5.62
314.363	-10.72
314.578	4.81
314.792	15.79
315.006	1.1
315.22	8.1
315.434	9.76
315.648	11.3
315.862	8.22
316.077	28.94
316.291	14.02
316.505	8.64
316.719	-0.76
316.933	20.43
317.147	-4.44
317.361	-22.62
317.575	-21.83
317.789	-38.22
318.003	-109.04
318.217	-82.98
318.431	-19.24
318.645	0.9
318.859	5.67
319.073	30.43
319.287	30.41
319.5	11.57
319.714	-8.99
319.928	-32.22
320.142	-47.67
320.356	-8.9
320.57	3.81
320.784	-8.5
320.997	-4.2
321.211	-16.53
321.425	-79.62
321.639	-78.9
321.853	-40.39
322.066	-22.62
322.28	-19.25
322.494	-6.03
322.707	-5.01
322.921	-1.98
323.135	-8.39
323.349	-1.54
323.562	-19.6
323.776	-37.27
323.989	-46.78
324.203	-46.83
324.417	-49.19
324.63	-50
324.844	-19.88
325.057	-30.84
325.271	-17.32
325.485	1.96
325.698	19.57
325.912	10.5
326.125	14.6
326.339	9.49
326.552	-8.8
326.766	-1.24
326.979	28.58
327.193	46.93
327.406	31.45
327.619	19.61
327.833	7.07
328.046	-14.26
328.26	-52.37
328.473	-22.87
328.686	-28.76
328.9	-17.02
329.113	-3.27
329.326	-13.74
329.54	-11.53
329.753	-14.2
329.966	-7.35
330.179	-9.34
330.393	10.47
330.606	16.56
330.819	21.72
331.032	36.54
331.246	40.37
331.459	47.11
331.672	44.96
331.885	46.02
332.098	21.39
332.311	2.98
332.525	-17.25
332.738	-21.36
332.951	-17.51
333.164	5.73
333.377	10.43
333.59	16.16
333.803	23.58
334.016	15.9
334.229	8.95
334.442	13.73
334.655	34.35
334.868	34.66
335.081	49.21
335.294	34.44
335.507	30.42
335.72	37.35
335.933	8.48
336.146	1.65
336.359	-2.27
336.572	-2.92
336.785	-43.82
336.997	-33.09
337.21	-20.48
337.423	-24.29
337.636	-25.56
337.849	-6.57
338.062	1.83
338.274	-2.34
338.487	2.94
338.7	-13.76
338.913	-26.27
339.125	-60.46
339.338	-119.92
339.551	-93.97
339.763	-59.46
339.976	-62.38
340.189	-38.42
340.402	-8.99
340.614	-23.39
340.827	-12.2
341.039	-16.08
341.252	-1.37
341.465	-2.09
341.677	4.26
341.89	-25.87
342.102	0.81
342.315	-18.58
342.527	-40.68
342.74	-26.21
342.952	-12.13
343.165	-9.18
343.377	11.58
343.59	8.31
343.802	11.62
344.015	14.5
344.227	17.49
344.44	1.2
344.652	14.41
344.864	-1.74
345.077	20.45
345.289	18.03
345.502	24.74
345.714	26.44
345.926	34.71
346.139	17.29
346.351	12.82
346.563	6.63
346.775	3.68
346.988	-7.1
347.2	-9.54
347.412	-35.53
347.624	-43.25
347.837	-62.06
348.049	-32.41
348.261	-16.68
348.473	-1.55
348.685	-6.23
348.897	8.32
349.11	-13.76
349.322	-8.61
349.534	-2.37
349.746	17.88
349.958	13.49
350.17	21.17
350.382	12.23
350.594	15.55
350.806	22.45
351.018	20.64
351.23	2.56
351.442	-18.06
351.654	-38.03
351.866	-30.41
352.078	-23.91
352.29	11.57
352.502	24.52
352.714	30.32
352.926	19.42
353.138	21.83
353.35	15.66
353.561	15.02
353.773	6.45
353.985	11.3
354.197	7.17
354.409	-1.59
354.621	-4.52
354.832	-0.29
355.044	-5.59
355.256	-2.53
355.468	10.52
355.679	3.63
355.891	18.48
356.103	17.75
356.314	12.51
356.526	19.88
356.738	30.1
356.949	3.07
357.161	13.63
357.373	13.48
357.584	-9.92
357.796	-2.4
358.008	5.4
358.219	5.63
358.431	4.81
358.642	17.2
358.854	16.86
359.065	6.12
359.277	-9.6
359.488	-10.45
359.7	-27.56
359.911	-45.29
360.123	-31.02
360.334	-37.33
360.546	-54.56
360.757	-38.06
360.969	-16.74
361.18	-22.38
361.391	-9.51
361.603	-21.44
361.814	-33.48
362.025	-46.4
362.237	-38.75
362.448	-29.99
362.659	-0.62
362.871	3.25
363.082	3.94
363.293	-2.03
363.504	-6.57
363.716	-28.45
363.927	-32.88
364.138	-35.47
364.349	-26.92
364.56	-23.4
364.772	-12
364.983	10.53
365.194	6.62
365.405	9.84
365.616	10.37
365.827	2.57
366.038	-23.85
366.25	-21.69
366.461	-37.64
366.672	-1.42
366.883	15.38
367.094	24.58
367.305	19.19
367.516	21.27
367.727	-7.44
367.938	-25.95
368.149	-28.93
368.36	-4.58
368.571	-9.66
368.781	-5.67
368.992	-9.65
369.203	-21.79
369.414	-43.87
369.625	-31.98
369.836	-32.3
370.047	-39.9
370.258	-18.28
370.468	-28.34
370.679	-39.57
370.89	-27.12
371.101	-7.69
371.312	-19.15
371.522	-12.34
371.733	-10.05
371.944	-15.85
372.155	-21.39
372.365	-20.1
372.576	-11.22
372.787	-1.53
372.997	-13.35
373.208	-4.11
373.419	7.56
373.629	-22.94
373.84	-36.61
374.05	-41.44
374.261	-58.54
374.472	-55.9
374.682	-9.73
374.893	-1.93
375.103	18.39
375.314	27.5
375.524	26.05
375.735	18.71
375.945	22.47
376.156	18.3
376.366	22.88
376.577	11.15
376.787	6.7
376.997	1.59
377.208	-0.5
377.418	-17.66
377.629	-0.75
377.839	8.58
378.049	11.48
378.26	16.09
378.47	29.12
378.68	14.32
378.89	4
379.101	-9.07
379.311	-34.32
379.521	-62.54
379.732	-50.55
379.942	-47.05
380.152	-46.4
380.362	-14.14
380.572	-3.48
380.783	3.24
380.993	11.03
381.203	17.61
381.413	20.37
381.623	15.86
381.833	8.39
382.043	4.66
382.253	6.02
382.463	3.94
382.674	-4.75
382.884	-13.5
383.094	-4.38
383.304	-0.91
383.514	-3.39
383.724	4.34
383.934	3.99
384.144	-10.65
384.353	-21.87
384.563	-24.16
384.773	-16.9
384.983	-23.38
385.193	-5.92
385.403	0.59
385.613	3.47
385.823	-7.73
386.033	5.63
386.242	-1.78
386.452	-4.72
386.662	-8.39
386.872	8.24
387.082	-2.96
387.291	-6.34
387.501	-4.7
387.711	-5.73
387.921	-14.26
388.13	-9.27
388.34	0.33
388.55	-1.14
388.759	-0.48
388.969	0.89
389.179	-0.31
389.388	-1.84
389.598	-0.06
389.807	-3.82
390.017	-5.6
390.227	-2.78
390.436	-5.07
390.646	-3.77
390.855	1.47
391.065	2.72
391.274	0.55
391.484	0.57
391.693	0.12
391.903	1.66
392.112	3.92
392.322	5.83
392.531	7.64
392.74	9.76
392.95	5.61
393.159	5.35
393.369	4.12
393.578	3.33
393.787	3.37
393.997	4.22
394.206	3.75
394.415	4.65
394.625	3.35
394.834	1.08
395.043	2.43
395.252	3.46
395.462	4.3
395.671	5.22
395.88	6.21
396.089	6.53
396.298	4.89
396.508	3.78
396.717	3.88
396.926	3.59
397.135	2.67
397.344	2.72
397.553	4.1
397.762	4.57
397.971	5.26
398.181	5.66
398.39	6.11
398.599	5.73
398.808	6.13
399.017	6.4
399.226	7.25
399.435	7.49
399.644	7.36
399.853	6.63
400.062	6.17
400.27	5.66
400.479	5.4
400.688	5.03
400.897	5.35
401.106	5.47
401.315	5.67
401.524	5.89
401.733	6.35
401.941	6.18
402.15	6.24
402.359	6.06
402.568	6.31
402.777	6.46
402.985	6.5
403.194	6.47
403.403	6.22
403.612	6.02
403.82	5.84
404.029	6.13
404.238	6.04
404.446	6.44
404.655	6.35
404.864	6.19
405.072	5.85
405.281	5.82
405.489	5.6
405.698	5.62
405.906	5.71
406.115	5.79
406.324	5.73
406.532	5.87
406.741	6.02
406.949	6.03
407.158	6.03
407.366	6.09
407.574	6.05
407.783	5.94
407.991	5.68
408.2	5.71
408.408	5.82
408.617	5.67
408.825	5.53
409.033	5.71
409.242	5.7
409.45	5.65
409.658	5.67
409.867	5.75
410.075	5.62
410.283	5.56
410.491	5.39
410.7	5.3
410.908	5.24
411.116	5.4
411.324	5.36
411.533	5.28
411.741	5.44
411.949	5.26
412.157	5.11
412.365	5.17
412.573	5.22
412.781	5.21
412.99	5.35
413.198	5.51
413.406	5.42
413.614	5.44
413.822	5.3
414.03	5.24
414.238	4.97
414.446	5.05
414.654	4.93
414.862	5.02
415.07	5.08
415.278	5.23
415.486	5.04
415.694	5.18
415.902	5.05
416.109	4.92
416.317	4.96
416.525	4.88
416.733	4.69
416.941	4.89
417.149	5.1
417.357	4.94
417.564	5.08
417.772	5.3
417.98	5.19
418.188	5.01
418.395	5.15
418.603	5.34
418.811	5.12
419.019	5.01
419.226	5.18
419.434	5.26
419.642	4.98
419.849	5.14
420.057	5.17
420.265	5.07
420.472	4.85
420.68	5.03
420.887	4.92
421.095	4.93
421.302	4.96
421.51	5.11
421.717	5.12
421.925	5.13
422.132	4.92
422.34	4.68
422.547	4.56
422.755	4.31
422.962	4.32
423.17	4.35
423.377	4.55
423.585	4.52
423.792	4.6
423.999	4.47
424.207	4.44
424.414	4.36
424.621	4.34
424.829	4.29
425.036	4.37
425.243	4.6
425.451	4.53
425.658	4.45
425.865	4.64
426.072	4.6
426.28	4.64
426.487	4.69
426.694	4.68
426.901	4.42
427.108	4.45
427.315	4.36
427.523	4.52
427.73	4.7
427.937	4.8
428.144	4.74
428.351	4.66
428.558	4.64
428.765	4.55
428.972	4.45
429.179	4.55
429.386	4.78
429.593	4.62
429.8	4.59
430.007	4.78
430.214	4.91
430.421	4.74
430.628	4.61
430.835	4.61
431.042	4.7
431.249	4.81
431.456	4.95
431.662	5.11
431.869	5.27
432.076	5.26
432.283	5.22
432.49	5.17
432.697	5.22
432.903	5.05
433.11	4.98
433.317	4.93
433.524	5.03
433.73	4.94
433.937	5.12
434.144	5.25
434.35	5.19
434.557	5.04
434.764	5.12
434.97	5.04
435.177	5.01
435.384	5.08
435.59	5.18
435.797	5.45
436.003	5.52
436.21	5.45
436.416	5.56
436.623	5.62
436.829	5.49
437.036	5.59
437.242	5.7
437.449	5.59
437.655	5.66
437.862	5.69
438.068	5.55
438.275	5.66
438.481	5.85
438.687	5.71
438.894	5.71
439.1	5.77
439.307	5.83
439.513	5.65
439.719	5.76
439.926	5.86
440.132	5.95
440.338	5.87
440.544	6.06
440.751	6
440.957	5.98
441.163	5.94
441.369	6.01
441.575	5.89
441.782	5.97
441.988	5.91
442.194	5.92
442.4	5.94
442.606	6.07
442.812	6.22
443.018	6.25
443.224	6.33
443.431	6.35
443.637	6.22
443.843	6.09
444.049	6.17
444.255	6.11
444.461	6.08
444.667	6.09
444.873	6.21
445.079	6.18
445.284	6.26
445.49	6.19
445.696	6.14
445.902	6.01
446.108	5.93
446.314	5.91
446.52	5.86
446.726	6.06
446.931	6.12
447.137	6.2
447.343	6.24
447.549	6.33
447.755	6.2
447.96	6.26
448.166	6.26
448.372	6.12
448.578	6.21
448.783	6.33
448.989	6.32
449.195	6.45
449.4	6.59
449.606	6.48
449.812	6.39
450.017	6.41
450.223	6.26
450.428	6.19
450.634	6.31
450.84	6.44
451.045	6.42
451.251	6.46
451.456	6.67
451.662	6.65
451.867	6.66
452.073	6.57
452.278	6.59
452.483	6.56
452.689	6.5
452.894	6.52
453.1	6.56
453.305	6.48
453.51	6.42
453.716	6.37
453.921	6.33
454.127	6.32
454.332	6.34
454.537	6.21
454.742	6.24
454.948	6.27
455.153	6.33
455.358	6.41
455.563	6.57
455.769	6.6
455.974	6.55
456.179	6.46
456.384	6.37
456.589	6.36
456.795	6.28
457	6.21
457.205	6.34
457.41	6.47
457.615	6.47
457.82	6.54
458.025	6.61
458.23	6.59
458.435	6.5
458.64	6.39
458.845	6.5
459.05	6.44
459.255	6.45
459.46	6.48
459.665	6.59
459.87	6.51
460.075	6.53
460.28	6.62
460.485	6.74
460.69	6.72
460.895	6.71
461.099	6.8
461.304	6.83
461.509	6.76
461.714	6.72
461.919	6.79
462.123	6.66
462.328	6.6
462.533	6.55
462.738	6.63
462.942	6.59
463.147	6.64
463.352	6.65
463.556	6.73
463.761	6.79
463.966	6.84
464.17	6.83
464.375	6.71
464.58	6.7
464.784	6.62
464.989	6.51
465.193	6.59
465.398	6.69
465.602	6.69
465.807	6.64
466.011	6.69
466.216	6.7
466.42	6.78
466.625	6.95
466.829	7.12
467.034	7.25
467.238	7.41
467.443	7.34
467.647	7.13
467.851	7.1
468.056	7.01
468.26	6.88
468.464	6.91
468.669	7.03
468.873	7.14
469.077	7.2
469.282	7.28
469.486	7.25
469.69	7.27
469.894	7.1
470.099	7.11
470.303	7.11
470.507	7.11
470.711	7.03
470.915	7.07
471.119	7.07
471.324	7.06
471.528	7.13
471.732	7.23
471.936	7.26
472.14	7.28
472.344	7.34
472.548	7.33
472.752	7.48
472.956	7.53
473.16	7.5
473.364	7.38
473.568	7.38
473.772	7.38
473.976	7.31
474.18	7.27
474.384	7.37
474.588	7.3
474.792	7.09
474.995	7.26
475.199	7.38
475.403	7.37
475.607	7.46
475.811	7.51
476.015	7.44
476.218	7.47
476.422	7.44
476.626	7.52
476.83	7.68
477.033	7.71
477.237	7.61
477.441	7.71
477.644	7.66
477.848	7.6
478.052	7.57
478.255	7.62
478.459	7.57
478.663	7.55
478.866	7.5
479.07	7.5
479.273	7.58
479.477	7.55
479.681	7.56
479.884	7.52
480.088	7.52
480.291	7.43
480.495	7.52
480.698	7.55
480.901	7.56
481.105	7.6
481.308	7.6
481.512	7.58
481.715	7.57
481.919	7.67
482.122	7.68
482.325	7.75
482.529	7.73
482.732	7.76
482.935	7.71
483.138	7.72
483.342	7.75
483.545	7.85
483.748	7.95
483.952	8
484.155	8.14
484.358	8.18
484.561	8.1
484.764	7.99
484.967	8.06
485.171	8.06
485.374	8.01
485.577	8.09
485.78	8.18
485.983	8.19
486.186	8.12
486.389	8.19
486.592	8.26
486.795	8.3
486.998	8.29
487.201	8.36
487.404	8.41
487.607	8.46
487.81	8.5
488.013	8.62
488.216	8.67
488.419	8.69
488.622	8.75
488.825	8.82
489.028	8.87
489.231	8.95
489.433	9
489.636	9.02
489.839	9.1
490.042	9.12
490.245	9.22
490.447	9.36
490.65	9.53
490.853	9.66
491.056	9.89
491.258	10.09
491.461	10.22
491.664	10.4
491.866	10.55
492.069	10.71
492.272	10.78
492.474	10.99
492.677	11.17
492.879	11.36
493.082	11.58
493.285	11.83
493.487	12
493.69	12.12
493.892	12.26
494.095	12.39
494.297	12.57
494.5	12.84
494.702	13.08
494.905	13.36
495.107	13.59
495.309	13.78
495.512	13.99
495.714	14.25
495.917	14.41
496.119	14.66
496.321	14.88
496.524	15.19
496.726	15.48
496.928	15.79
497.13	16.09
497.333	16.42
497.535	16.61
497.737	16.91
497.939	17.16
498.142	17.35
498.344	17.62
498.546	17.86
498.748	18
498.95	18.32
499.152	18.54
499.355	18.75
499.557	18.9
499.759	19.22
499.961	19.35
500.163	19.68
500.365	19.9
500.567	20.24
500.769	20.34
500.971	20.54
501.173	20.55
501.375	20.75
501.577	20.76
501.779	20.94
501.981	21.05
502.183	21.22
502.385	21.22
502.587	21.33
502.788	21.43
502.99	21.5
503.192	21.6
503.394	21.62
503.596	21.65
503.798	21.68
503.999	21.78
504.201	21.75
504.403	21.81
504.605	21.94
504.806	21.85
505.008	21.88
505.21	21.98
505.411	21.99
505.613	21.91
505.815	21.91
506.016	21.97
506.218	21.97
506.42	21.88
506.621	21.85
506.823	21.82
507.024	21.58
507.226	21.43
507.427	21.3
507.629	21.32
507.83	21.24
508.032	21.17
508.233	21.18
508.435	21.26
508.636	21.15
508.838	21.03
509.039	20.99
509.24	20.81
509.442	20.7
509.643	20.41
509.845	20.34
510.046	20.25
510.247	20.11
510.448	19.85
510.65	19.85
510.851	19.75
511.052	19.66
511.254	19.57
511.455	19.57
511.656	19.45
511.857	19.38
512.058	19.19
512.26	19.1
512.461	19
512.662	18.89
512.863	18.68
513.064	18.57
513.265	18.44
513.466	18.31
513.667	18.22
513.868	18.19
514.069	18.19
514.27	18.2
514.471	18.11
514.672	18.01
514.873	17.95
515.074	17.83
515.275	17.66
515.476	17.6
515.677	17.55
515.878	17.57
516.079	17.54
516.28	17.46
516.481	17.48
516.682	17.47
516.882	17.25
517.083	17.13
517.284	17.05
517.485	16.93
517.686	16.84
517.886	16.8
518.087	16.74
518.288	16.71
518.488	16.68
518.689	16.59
518.89	16.56
519.091	16.6
519.291	16.51
519.492	16.44
519.692	16.47
519.893	16.49
520.094	16.38
520.294	16.36
520.495	16.33
520.695	16.28
520.896	16.21
521.096	16.21
521.297	16.22
521.497	16.13
521.698	16.07
521.898	15.96
522.099	15.94
522.299	15.91
522.499	15.93
522.7	15.87
522.9	15.85
523.101	15.87
523.301	15.84
523.501	15.73
523.702	15.73
523.902	15.81
524.102	15.73
524.302	15.67
524.503	15.69
524.703	15.64
524.903	15.56
525.103	15.52
525.304	15.55
525.504	15.55
525.704	15.58
525.904	15.56
526.104	15.48
526.304	15.42
526.504	15.43
526.705	15.36
526.905	15.38
527.105	15.39
527.305	15.35
527.505	15.28
527.705	15.32
527.905	15.22
528.105	15.21
528.305	15.25
528.505	15.31
528.705	15.29
528.905	15.29
529.105	15.3
529.304	15.25
529.504	15.31
529.704	15.26
529.904	15.27
530.104	15.23
530.304	15.28
530.503	15.19
530.703	15.13
530.903	15.16
531.103	15.26
531.303	15.21
531.502	15.26
531.702	15.29
531.902	15.3
532.101	15.28
532.301	15.32
532.501	15.25
532.7	15.29
532.9	15.23
533.1	15.17
533.299	15.2
533.499	15.22
533.698	15.18
533.898	15.18
534.097	15.2
534.297	15.19
534.496	15.1
534.696	15.16
534.895	15.18
535.095	15.24
535.294	15.18
535.494	15.2
535.693	15.18
535.892	15.2
536.092	15.1
536.291	15.14
536.491	15.25
536.69	15.25
536.889	15.22
537.088	15.23
537.288	15.24
537.487	15.19
537.686	15.17
537.886	15.21
538.085	15.31
538.284	15.34
538.483	15.32
538.682	15.38
538.882	15.43
539.081	15.4
539.28	15.3
539.479	15.3
539.678	15.25
539.877	15.24
540.076	15.24
540.275	15.27
540.474	15.34
540.673	15.36
540.872	15.29
541.071	15.27
541.27	15.28
541.469	15.27
541.668	15.28
541.867	15.37
542.066	15.42
542.265	15.44
542.464	15.42
542.663	15.4
542.862	15.42
543.06	15.39
543.259	15.41
543.458	15.44
543.657	15.46
543.856	15.41
544.054	15.4
544.253	15.35
544.452	15.35
544.651	15.36
544.849	15.32
545.048	15.34
545.247	15.34
545.445	15.34
545.644	15.29
545.843	15.32
546.041	15.31
546.24	15.42
546.438	15.45
546.637	15.5
546.836	15.54
547.034	15.55
547.233	15.49
547.431	15.43
547.63	15.39
547.828	15.36
548.027	15.43
548.225	15.44
548.423	15.43
548.622	15.47
548.82	15.4
549.019	15.36
549.217	15.4
549.415	15.5
549.614	15.57
549.812	15.67
550.01	15.69
550.209	15.68
550.407	15.67
550.605	15.66
550.803	15.7
551.002	15.77
551.2	15.81
551.398	15.88
551.596	15.94
551.794	15.95
551.993	15.96
552.191	15.99
552.389	16.02
552.587	16.08
552.785	16.09
552.983	16.11
553.181	16.13
553.379	16.2
553.577	16.17
553.775	16.21
553.973	16.32
554.171	16.36
554.369	16.33
554.567	16.38
554.765	16.43
554.963	16.48
555.161	16.46
555.359	16.55
555.557	16.62
555.755	16.69
555.952	16.68
556.15	16.77
556.348	16.78
556.546	16.84
556.744	16.84
556.941	16.88
557.139	16.91
557.337	16.92
557.535	16.89
557.732	16.97
557.93	16.99
558.128	17.04
558.325	17.15
558.523	17.26
558.721	17.23
558.918	17.33
559.116	17.43
559.313	17.44
559.511	17.53
559.708	17.62
559.906	17.67
560.104	17.67
560.301	17.74
560.498	17.78
560.696	17.9
560.893	17.97
561.091	18.03
561.288	18.1
561.486	18.1
561.683	18.12
561.88	18.12
562.078	18.27
562.275	18.32
562.473	18.34
562.67	18.45
562.867	18.57
563.064	18.52
563.262	18.55
563.459	18.65
563.656	18.7
563.853	18.69
564.051	18.81
564.248	18.97
564.445	19.1
564.642	19.09
564.839	19.25
565.036	19.34
565.234	19.41
565.431	19.43
565.628	19.62
565.825	19.71
566.022	19.76
566.219	19.73
566.416	19.74
566.613	19.79
566.81	19.78
567.007	19.77
567.204	19.74
567.401	19.79
567.598	19.78
567.795	19.8
567.991	19.92
568.188	20.05
568.385	20.23
568.582	20.27
568.779	20.41
568.976	20.45
569.172	20.61
569.369	20.56
569.566	20.63
569.763	20.63
569.96	20.66
570.156	20.63
570.353	20.66
570.55	20.77
570.746	20.74
570.943	20.75
571.14	20.72
571.336	20.82
571.533	20.77
571.729	20.82
571.926	20.96
572.123	21.06
572.319	21.1
572.516	21.15
572.712	21.23
572.909	21.14
573.105	21.2
573.302	21.2
573.498	21.27
573.695	21.22
573.891	21.28
574.087	21.3
574.284	21.32
574.48	21.27
574.677	21.38
574.873	21.45
575.069	21.51
575.266	21.53
575.462	21.47
575.658	21.45
575.854	21.5
576.051	21.44
576.247	21.44
576.443	21.58
576.639	21.61
576.835	21.55
577.032	21.53
577.228	21.66
577.424	21.55
577.62	21.47
577.816	21.51
578.012	21.57
578.208	21.46
578.404	21.56
578.6	21.63
578.796	21.62
578.993	21.54
579.189	21.56
579.384	21.49
579.58	21.46
579.776	21.44
579.972	21.5
580.168	21.44
580.364	21.48
580.56	21.55
580.756	21.51
580.952	21.38
581.148	21.37
581.343	21.28
581.539	21.31
581.735	21.35
581.931	21.42
582.127	21.37
582.322	21.41
582.518	21.36
582.714	21.31
582.909	21.34
583.105	21.4
583.301	21.37
583.496	21.4
583.692	21.42
583.888	21.34
584.083	21.37
584.279	21.47
584.474	21.34
584.67	21.32
584.866	21.38
585.061	21.24
585.257	21.17
585.452	21.25
585.648	21.16
585.843	21.17
586.039	21.17
586.234	21.17
586.429	21.07
586.625	21.18
586.82	21.09
587.015	21.14
587.211	21.08
587.406	21.14
587.601	21.15
587.797	21.2
587.992	21.17
588.187	21.26
588.383	21.23
588.578	21.22
588.773	21.28
588.968	21.39
589.163	21.42
589.359	21.45
589.554	21.47
589.749	21.41
589.944	21.44
590.139	21.45
590.334	21.47
590.529	21.37
590.724	21.47
590.919	21.45
591.114	21.41
591.309	21.52
591.504	21.68
591.699	21.67
591.894	21.72
592.089	21.79
592.284	21.79
592.479	21.81
592.674	21.79
592.869	21.73
593.064	21.78
593.259	21.8
593.454	21.88
593.648	22.01
593.843	22.16
594.038	22.21
594.233	22.23
594.428	22.23
594.622	22.24
594.817	22.35
595.012	22.36
595.206	22.42
595.401	22.45
595.596	22.51
595.79	22.49
595.985	22.57
596.18	22.62
596.374	22.73
596.569	22.74
596.763	22.87
596.958	22.93
597.153	23.01
597.347	22.95
597.542	23.07
597.736	23.03
597.931	23.09
598.125	23.12
598.319	23.39
598.514	23.37
598.708	23.45
598.903	23.46
599.097	23.53
599.291	23.45
599.486	23.44
599.68	23.41
599.874	23.51
600.069	23.53
600.263	23.59
600.457	23.72
600.651	23.84
600.846	23.84
601.04	23.87
601.234	23.86
601.428	23.94
601.622	23.9
601.817	23.87
602.011	23.85
602.205	23.86
602.399	23.82
602.593	23.9
602.787	23.95
602.981	24.05
603.175	24.01
603.369	24.03
603.563	24.01
603.757	24.08
603.951	24
604.145	23.98
604.339	23.96
604.533	23.86
604.727	23.79
604.921	23.82
605.115	23.92
605.309	23.98
605.502	24.04
605.696	23.94
605.89	23.9
606.084	23.87
606.278	23.76
606.471	23.71
606.665	23.7
606.859	23.63
607.053	23.56
607.246	23.49
607.44	23.49
607.634	23.48
607.827	23.45
608.021	23.34
608.214	23.34
608.408	23.27
608.602	23.26
608.795	23.32
608.989	23.31
609.182	23.28
609.376	23.32
609.569	23.19
609.763	22.97
609.956	22.84
610.15	22.77
610.343	22.66
610.537	22.57
610.73	22.54
610.923	22.61
611.117	22.57
611.31	22.51
611.504	22.49
611.697	22.49
611.89	22.4
612.083	22.3
612.277	22.17
612.47	22.07
612.663	22
612.856	22.02
613.05	21.95
613.243	21.96
613.436	21.86
613.629	21.85
613.822	21.66
614.015	21.61
614.209	21.49
614.402	21.54
614.595	21.44
614.788	21.41
614.981	21.32
615.174	21.27
615.367	21.12
615.56	21.13
615.753	21.09
615.946	21.04
616.139	20.98
616.332	21.08
616.525	20.97
616.718	21.03
616.911	21.04
617.103	20.99
617.296	20.93
617.489	20.91
617.682	20.85
617.875	20.85
618.067	20.84
618.26	20.79
618.453	20.8
618.646	20.74
618.838	20.66
619.031	20.63
619.224	20.57
619.417	20.56
619.609	20.5
619.802	20.44
619.994	20.43
620.187	20.32
620.38	20.25
620.572	20.26
620.765	20.29
620.957	20.18
621.15	20.22
621.342	20.18
621.535	20.06
621.727	20.03
621.92	20.04
622.112	20.01
622.305	20.01
622.497	20.05
622.69	20.03
622.882	19.99
623.074	20.12
623.267	20.07
623.459	19.97
623.651	19.94
623.844	19.96
624.036	19.89
624.228	19.75
624.42	19.77
624.613	19.87
624.805	19.82
624.997	19.77
625.189	19.86
625.381	19.92
625.574	19.82
625.766	19.82
625.958	19.8
626.15	19.8
626.342	19.72
626.534	19.59
626.726	19.58
626.918	19.49
627.11	19.44
627.302	19.37
627.494	19.46
627.686	19.46
627.878	19.52
628.07	19.51
628.262	19.47
628.454	19.46
628.646	19.44
628.838	19.46
629.029	19.34
629.221	19.36
629.413	19.24
629.605	19.16
629.797	18.99
629.989	19.06
630.18	19.05
630.372	19.07
630.564	19.1
630.755	19.19
630.947	19.19
631.139	19.13
631.33	18.99
631.522	18.96
631.714	18.86
631.905	18.77
632.097	18.75
632.289	18.82
632.48	18.8
632.672	18.77
632.863	18.76
633.055	18.77
633.246	18.74
633.438	18.66
633.629	18.69
633.821	18.72
634.012	18.66
634.203	18.65
634.395	18.6
634.586	18.68
634.777	18.61
634.969	18.62
635.16	18.64
635.351	18.63
635.543	18.63
635.734	18.62
635.925	18.63
636.117	18.64
636.308	18.69
636.499	18.63
636.69	18.55
636.881	18.5
637.073	18.52
637.264	18.51
637.455	18.51
637.646	18.66
637.837	18.78
638.028	18.75
638.219	18.78
638.41	18.65
638.601	18.57
638.792	18.45
638.983	18.47
639.174	18.43
639.365	18.54
639.556	18.49
639.747	18.51
639.938	18.47
640.129	18.46
640.32	18.37
640.511	18.39
640.701	18.37
640.892	18.33
641.083	18.33
641.274	18.4
641.465	18.31
641.655	18.25
641.846	18.22
642.037	18.2
642.228	18.12
642.418	18.21
642.609	18.24
642.8	18.29
642.99	18.26
643.181	18.28
643.372	18.26
643.562	18.27
643.753	18.16
643.943	18.11
644.134	18.06
644.324	18.03
644.515	17.99
644.705	18.07
644.896	18.06
645.086	18.08
645.277	18.13
645.467	18.16
645.658	18.07
645.848	18.11
646.038	18
646.229	17.98
646.419	17.85
646.61	17.89
646.8	17.81
646.99	17.9
647.18	17.88
647.371	17.87
647.561	17.86
647.751	17.85
647.941	17.75
648.132	17.75
648.322	17.77
648.512	17.81
648.702	17.8
648.892	17.84
649.082	17.74
649.272	17.66
649.462	17.51
649.653	17.41
649.843	17.34
650.033	17.34
650.223	17.32
650.413	17.3
650.603	17.44
650.793	17.43
650.983	17.41
651.172	17.45
651.362	17.37
651.552	17.26
651.742	17.14
651.932	17.18
652.122	17.16
652.312	17.24
652.502	17.18
652.691	17.15
652.881	16.97
653.071	16.87
653.261	16.66
653.45	16.55
653.64	16.55
653.83	16.4
654.019	16.35
654.209	16.33
654.399	16.25
654.588	16.1
654.778	16.04
654.968	15.85
655.157	15.75
655.347	15.74
655.536	15.64
655.726	15.59
655.915	15.47
656.105	15.4
656.294	15.3
656.484	15.15
656.673	15.12
656.863	15.21
657.052	15.05
657.241	14.8
657.431	14.66
657.62	14.5
657.809	14.2
657.999	14.13
658.188	14.05
658.377	13.97
658.567	13.84
658.756	13.75
658.945	13.64
659.134	13.54
659.324	13.44
659.513	13.29
659.702	13.12
659.891	13.01
660.08	12.9
660.269	12.78
660.458	12.59
660.648	12.5
660.837	12.41
661.026	12.28
661.215	12.11
661.404	12.04
661.593	11.99
661.782	11.84
661.971	11.8
662.16	11.8
662.349	11.75
662.538	11.67
662.726	11.56
662.915	11.43
663.104	11.29
663.293	11.23
663.482	11.17
663.671	11.11
663.86	11.05
664.048	10.93
664.237	10.92
664.426	10.73
664.615	10.73
664.803	10.67
664.992	10.6
665.181	10.44
665.369	10.43
665.558	10.25
665.747	10.22
665.935	10.32
666.124	10.29
666.312	10.3
666.501	10.28
666.69	10.12
666.878	10
667.067	9.89
667.255	9.96
667.444	10.13
667.632	10.22
667.82	10.22
668.009	10.26
668.197	10.23
668.386	10.02
668.574	10.07
668.762	10.05
668.951	10.01
669.139	9.84
669.327	9.8
669.516	9.8
669.704	9.74
669.892	9.79
670.08	9.81
670.269	9.72
670.457	9.52
670.645	9.45
670.833	9.43
671.021	9.41
671.21	9.58
671.398	9.83
671.586	9.86
671.774	9.77
671.962	9.72
672.15	9.66
672.338	9.47
672.526	9.48
672.714	9.38
672.902	9.4
673.09	9.5
673.278	9.61
673.466	9.71
673.654	9.93
673.842	10
674.03	9.93
674.218	9.95
674.405	9.99
674.593	9.9
674.781	9.89
674.969	9.96
675.157	9.88
675.344	9.87
675.532	9.97
675.72	10.09
675.908	10.1
676.095	10.06
676.283	10.06
676.471	10.25
676.658	10.15
676.846	10.24
677.033	10.43
677.221	10.53
677.409	10.26
677.596	10.36
677.784	10.33
677.971	10.31
678.159	10.24
678.346	10.43
678.534	10.5
678.721	10.69
678.909	10.73
679.096	10.77
679.283	11.01
679.471	11.17
679.658	11.04
679.846	11.24
680.033	11.36
680.22	11.29
680.408	11.18
680.595	11.33
680.782	11.29
680.969	11.43
681.157	11.52
681.344	11.67
681.531	11.72
681.718	11.79
681.905	11.99
682.093	12.19
682.28	12.36
682.467	12.69
682.654	12.86
682.841	12.91
683.028	12.88
683.215	13.08
683.402	12.86
683.589	13.03
683.776	13.27
683.963	13.36
684.15	13.49
684.337	13.79
684.524	13.95
684.711	13.99
684.898	14.05
685.085	14.15
685.271	14.4
685.458	14.5
685.645	14.71
685.832	15.18
686.019	15.55
686.205	15.78
686.392	16.12
686.579	16.36
686.766	16.57
686.952	16.67
687.139	17.06
687.326	17.21
687.512	17.37
687.699	17.74
687.886	17.88
688.072	17.98
688.259	18.31
688.445	18.74
688.632	18.82
688.818	19.37
689.005	19.7
689.191	19.95
689.378	20.29
689.564	20.81
689.751	21.09
689.937	21.45
690.124	22.01
690.31	22.28
690.496	22.67
690.683	22.97
690.869	23.43
691.055	23.73
691.242	24.5
691.428	24.91
691.614	25.43
691.8	26.09
691.987	26.85
692.173	27.25
692.359	27.79
692.545	28.4
692.731	28.89
692.918	29.37
693.104	29.6
693.29	30.11
693.476	30.78
693.662	31.14
693.848	31.51
694.034	32.15
694.22	32.66
694.406	33.22
694.592	33.8
694.778	34.45
694.964	35.11
695.15	35.87
695.336	36.27
695.522	37.19
695.708	37.71
695.894	38.12
696.08	38.74
696.265	39.36
696.451	39.8
696.637	40.43
696.823	41.1
697.009	41.4
697.194	41.89
697.38	42.26
697.566	42.68
697.751	43.45
697.937	44.35
698.123	45.01
698.308	45.68
698.494	46.26
698.68	46.44
698.865	46.96
699.051	47.66
699.236	47.98
699.422	48.48
699.607	49.08
699.793	49.45
699.978	49.79
700.164	50.26
700.349	50.8
700.535	51.37
700.72	51.8
700.906	52.29
701.091	52.81
701.276	53.38
701.462	53.99
701.647	54.56
701.832	55.06
702.018	55.58
702.203	55.86
702.388	56.15
702.573	56.46
702.759	56.98
702.944	57.36
703.129	57.73
703.314	58.37
703.499	58.62
703.684	58.9
703.87	59.64
704.055	60.2
704.24	60.4
704.425	61.02
704.61	61.42
704.795	61.49
704.98	61.67
705.165	61.86
705.35	61.84
705.535	62.07
705.72	62.29
705.905	62.61
706.09	62.92
706.275	63.37
706.459	63.45
706.644	63.59
706.829	64.06
707.014	64.39
707.199	64.87
707.384	65.31
707.568	65.73
707.753	66.05
707.938	66.33
708.123	66.39
708.307	66.52
708.492	66.78
708.677	67.16
708.861	67.13
709.046	67.24
709.231	67.83
709.415	68.1
709.6	67.99
709.784	68.41
709.969	68.57
710.153	68.37
710.338	68.22
710.522	68.25
710.707	68.33
710.891	68.73
711.076	68.79
711.26	69.2
711.445	69.88
711.629	70.22
711.813	70.12
711.998	70.76
712.182	70.72
712.366	70.86
712.551	71.45
712.735	71.77
712.919	71.69
713.103	72.1
713.288	72.17
713.472	71.75
713.656	72.26
713.84	72.21
714.024	72.79
714.208	72.4
714.393	72.75
714.577	72.75
714.761	72.74
714.945	72.41
715.129	72.87
715.313	72.88
715.497	72.69
715.681	73.32
715.865	73.33
716.049	73.48
716.233	73.53
716.417	73.85
716.601	73.77
716.785	73.96
716.968	74.03
717.152	74.45
717.336	74.38
717.52	74.31
717.704	74.25
717.888	74.42
718.071	74.45
718.255	74.92
718.439	75.15
718.622	75.28
718.806	75.02
718.99	74.65
719.174	74.23
719.357	74.48
719.541	75.1
719.724	75.48
719.908	76.39
720.092	76.52
720.275	76.5
720.459	76.01
720.642	75.92
720.826	75.11
721.009	75.58
721.193	75.64
721.376	75.91
721.559	76.06
721.743	76.46
721.926	76.22
722.11	76.27
722.293	75.81
722.476	75.41
722.66	75.33
722.843	75.35
723.026	74.97
723.21	75.91
723.393	76.46
723.576	76.59
723.759	76.37
723.942	76.75
724.126	76.43
724.309	76.94
724.492	76.98
724.675	77.13
724.858	77.3
725.041	77.53
725.224	77.12
725.407	77.15
725.59	77.95
725.774	77.67
725.957	76.64
726.14	76.67
726.322	76.86
726.505	76.37
726.688	76.97
726.871	77.57
727.054	77.49
727.237	77.11
727.42	77.26
727.603	76.64
727.786	76.87
727.968	76.51
728.151	76.71
728.334	76.58
728.517	77.19
728.699	77.46
728.882	77.68
729.065	78.11
729.248	78.6
729.43	78.53
729.613	79.04
729.796	79.56
729.978	79.14
730.161	78.66
730.343	78.67
730.526	78.67
730.708	78.22
730.891	78.97
731.073	78.87
731.256	78.87
731.438	79.03
731.621	79.93
731.803	79.35
731.986	79.65
732.168	78.88
732.35	78.73
732.533	78.31
732.715	78.68
732.898	79.13
733.08	79.37
733.262	79.44
733.444	79.87
733.627	79.91
733.809	79.87
733.991	80.49
734.173	79.97
734.355	79.36
734.538	79.87
734.72	79.25
734.902	79.84
735.084	79.99
735.266	80.02
735.448	80
735.63	80.58
735.812	80.03
735.994	81.12
736.176	80.91
736.358	80.47
736.54	80.81
736.722	80.6
736.904	79.51
737.086	80.27
737.268	80.82
737.45	80.68
737.632	81.06
737.814	80.75
737.995	79.82
738.177	79.47
738.359	78.45
738.541	78.76
738.723	79.74
738.904	80.36
739.086	79.85
739.268	80.42
739.449	80.5
739.631	79.88
739.813	80.33
739.994	80.68
740.176	81.04
740.358	80.74
740.539	81.29
740.721	81.62
740.902	81.86
741.084	81.46
741.265	81.16
741.447	81.17
741.628	80.77
741.81	80.86
741.991	80.76
742.172	81.33
742.354	81.53
742.535	81.39
742.717	81.25
742.898	82.44
743.079	82.16
743.261	82.2
743.442	81.73
743.623	82.65
743.804	82.08
743.986	82.66
744.167	81.35
744.348	81.95
744.529	81.95
744.71	81.24
744.891	80.05
745.073	80.12
745.254	79.45
745.435	78.23
745.616	77.69
745.797	78.22
745.978	78.53
746.159	79.16
746.34	78.54
746.521	80.78
746.702	80.15
746.883	80.05
747.064	79.65
747.245	81.18
747.426	80.04
747.606	80
747.787	80.15
747.968	80.02
748.149	79.03
748.33	79.49
748.51	79.97
748.691	79.33
748.872	80.14
749.053	79.95
749.233	78.81
749.414	78.41
749.595	78.57
749.775	78.04
749.956	77.56
750.137	77.4
750.317	77.79
750.498	79.12
750.678	79.56
750.859	80.55
751.04	81.4
751.22	81.53
751.4	79.86
751.581	78.34
751.761	78.01
751.942	78.14
752.122	78.11
752.303	78.55
752.483	79.43
752.663	79.04
752.844	78.64
753.024	79.8
753.204	80.48
753.385	79.84
753.565	81.03
753.745	81.89
753.925	80.22
754.106	79.89
754.286	80.42
754.466	79.12
754.646	78.36
754.826	79.01
755.006	78.2
755.187	78.92
755.367	80.35
755.547	80.33
755.727	79.62
755.907	79.67
756.087	79.85
756.267	77.89
756.447	77.58
756.627	77.47
756.807	77.31
756.987	75.88
757.167	75.97
757.346	75.71
757.526	75.51
757.706	76.41
757.886	77.43
758.066	77.18
758.246	78.15
758.425	78.03
758.605	77.48
758.785	76.86
758.965	78.62
759.144	77.78
759.324	78.16
759.504	78.3
759.683	78.06
759.863	76.78
760.043	76.12
760.222	76.42
760.402	77.27
760.581	76.46
760.761	77.77
760.94	77.04
761.12	78.17
761.299	78.46
761.479	79.66
761.658	77.74
761.838	78.23
762.017	77.8
762.197	77.38
762.376	76.57
762.555	79.14
762.735	80.98
762.914	79.36
763.093	78.84
763.273	79.03
763.452	77.56
763.631	76.75
763.81	76.94
763.99	76.78
764.169	77.35
764.348	76.35
764.527	75.28
764.706	75.56
764.885	77.55
765.064	76.32
765.243	76.89
765.423	78.87
765.602	78.54
765.781	76.24
765.96	74.69
766.139	75.29
766.318	74.06
766.497	73.54
766.676	73.34
766.854	75.42
767.033	74.32
767.212	73.2
767.391	74.01
767.57	73.87
767.749	73.28
767.928	73.86
768.106	74.96
768.285	73.9
768.464	73.9
768.643	73.99
768.821	74.24
769	75.72
769.179	74.76
769.357	74.56
769.536	75.61
769.715	75.15
769.893	73.31
770.072	74.95
770.25	76.06
770.429	76.2
770.607	75.91
770.786	76.1
770.964	77.15
771.143	76.41
771.321	76.32
771.5	76.88
771.678	76.41
771.857	74.39
772.035	74.28
772.213	73.25
772.392	71.92
772.57	72.38
772.748	74.81
772.927	73.45
773.105	73.08
773.283	73.75
773.461	74.74
773.64	72.87
773.818	73.47
773.996	74
774.174	74.34
774.352	71.81
774.531	71.52
774.709	72.15
774.887	70.93
775.065	70.74
775.243	71.57
775.421	71.09
775.599	70.93
775.777	70.81
775.955	68.76
776.133	69.11
776.311	69.96
776.489	68.8
776.667	70.98
776.844	71.6
777.022	71.41
777.2	70.34
777.378	71.15
777.556	68.31
777.734	70.82
777.911	72.3
778.089	74.25
778.267	75.23
778.445	76.96
778.622	75.1
778.8	73.24
778.978	73.48
779.155	72.91
779.333	70.51
779.511	71.35
779.688	73.39
779.866	69.6
780.043	68.26
780.221	70.07
780.398	68.3
780.576	66.47
780.753	69.13
780.931	69.73
781.108	68.49
781.286	68.59
781.463	68.16
781.64	65.42
781.818	63.48
781.995	65.92
782.172	66.67
782.35	68.12
782.527	68.78
782.704	70.15
782.882	69.46
783.059	67.65
783.236	68.22
783.413	70.6
783.59	69.61
783.768	69.26
783.945	74.39
784.122	73.01
784.299	72.13
784.476	72.73
784.653	70.59
784.83	67.75
785.007	65.83
785.184	65.65
785.361	65.18
785.538	70.3
785.715	73.88
785.892	73.92
786.069	75.03
786.246	78.09
786.423	77
786.6	73.09
786.776	74.12
786.953	69.72
787.13	68.96
787.307	66.6
787.484	67.12
787.66	67.4
787.837	71.22
788.014	67.58
788.191	65.08
788.367	64.9
788.544	66.93
788.721	66.16
788.897	71.76
789.074	73.6
789.25	73.76
789.427	71.61
789.603	72.55
789.78	68.37
789.956	69.56
790.133	68.79
790.309	70.87
790.486	73.23
790.662	74.27
790.839	74.6
791.015	71.67
791.192	70.54
791.368	68.35
791.544	67.67
791.721	67.94
791.897	71.41
792.073	67.83
792.249	64.08
792.426	66.12
792.602	63.18
792.778	61.52
792.954	58.91
793.13	61.01
793.307	56.07
793.483	53.41
793.659	54.4
793.835	65.96
794.011	61.64
794.187	62.94
794.363	65.52
794.539	67.4
794.715	59.27
794.891	66.42
795.067	64.86
795.243	68.46
795.419	63.72
795.595	62.11
795.771	59.65
795.947	62.67
796.122	61.71
796.298	63.81
796.474	66.35
796.65	64.82
796.826	65.72
797.001	59.63
797.177	60.45
797.353	60.68
797.529	62.99
797.704	59.31
797.88	62.75
798.056	58.23
798.231	56.89
798.407	56.05
798.582	57.58
798.758	66.95
798.934	68.59
799.109	70.57
799.285	69.46
799.46	72.59
799.636	65.49
799.811	70.72
799.986	68.72
800.162	68.46
800.337	65.76
800.513	62.14
800.688	64.29
800.863	69.8
801.039	68.29
801.214	66.62
801.389	77.29
801.565	66.83
801.74	54.55
801.915	61.01
802.09	62.09
802.265	60.56
802.441	61.85
802.616	67.08
802.791	64.67
802.966	66.01
803.141	59.81
803.316	60.14
803.491	66.73
803.666	71.69
803.841	67.31
804.016	69.76
804.191	70.35
804.366	57.11
804.541	51.69
804.716	52.44
804.891	50.21
805.066	53.07
805.241	59.41
805.416	56.27
805.591	53.38
805.765	58.96
805.94	56.26
806.115	57.75
806.29	53.81
806.464	59.77
806.639	51.92
806.814	50.88
806.989	43.53
807.163	57.99
807.338	62.12
807.512	65.24
807.687	53.56
807.862	67.15
808.036	60.58
808.211	57.94
808.385	55.84
808.56	70.93
808.734	57.98
808.909	51.93
809.083	47.7
809.258	54.41
809.432	51.69
809.606	49.7
809.781	54.72
809.955	58.56
810.13	54.21
810.304	53.79
810.478	51.96
810.652	54.78
810.827	52.61
811.001	59.57
811.175	49.87
811.349	47.65
811.524	47.52
811.698	37.14
811.872	31.79
812.046	45.48
812.22	48.36
812.394	45.48
812.568	55.74
812.742	60.11
812.916	55.5
813.09	58.64
813.264	58.89
813.438	59.01
813.612	59.02
813.786	57.39
813.96	63.09
814.134	65.36
814.308	69.37
814.482	69.9
814.656	69.4
814.83	69.51
815.003	68.63
815.177	60.34
815.351	53.74
815.525	45.18
815.698	39.59
815.872	35.18
816.046	30.87
816.219	35.14
816.393	44.76
816.567	46.23
816.74	50.33
816.914	57.76
817.088	57.57
817.261	47.62
817.435	47.87
817.608	57.18
817.782	51.73
817.955	54.29
818.129	54.75
818.302	52.82
818.475	46.34
818.649	49.05
818.822	44.38
818.996	58.8
819.169	66.38
819.342	64.03
819.516	70.53
819.689	78.38
819.862	71.73
820.035	58.47
820.209	54.74
820.382	51.77
820.555	47.74
820.728	45.51
820.901	45.9
821.075	46.76
821.248	47.78
821.421	34.51
821.594	38.17
821.767	51.61
821.94	52.34
822.113	26.87
822.286	48.4
822.459	47.55
822.632	44.11
822.805	45.6
822.978	61.69
823.151	41.28
823.324	39.1
823.496	10.85
823.669	4.42
823.842	4.67
824.015	-2.53
824.188	-20.21
824.361	4.97
824.533	18.96
824.706	28.01
824.879	44.69
825.051	48.5
825.224	54.84
825.397	51.49
825.569	54.21
825.742	33.47
825.915	50.5
826.087	52.03
826.26	48.76
826.432	49.12
826.605	68.48
826.777	63.62
826.95	53.99
827.122	45.11
827.295	50.47
827.467	43.45
827.64	21.38
827.812	20.06
827.984	32.31
828.157	19.26
828.329	-5.44
828.501	8.73
828.674	26.18
828.846	22.77
829.018	29.27
829.19	21.94
829.363	36.4
829.535	35.21
829.707	36.77
829.879	25.09
830.051	20.66
830.223	22.95
830.395	12.46
830.568	13.99
830.74	4.64
830.912	33.42
831.084	15.54
831.256	19.25
831.428	5.22
831.6	16.95
831.772	-2.63
831.943	-17.08
832.115	9.51
832.287	21.78
832.459	32.3
832.631	51.45
832.803	49.18
832.975	36.97
833.146	29.23
833.318	5.92
833.49	-2.96
833.662	17.73
833.833	1.6
834.005	3.41
834.177	13.31
834.348	12.73
834.52	8.17
834.692	33.62
834.863	47.22
835.035	31.21
835.206	-19.93
835.378	-6.77
835.549	-8.83
835.721	-8.05
835.892	-1.65
836.064	11.82
836.235	16.83
836.407	22.37
836.578	26.02
836.749	25.46
836.921	13.44
837.092	-24.58
837.264	-31.71
837.435	-48.46
837.606	-19.82
837.777	-5.23
837.949	10.48
838.12	19.87
838.291	33.08
838.462	21.17
838.633	8.98
838.805	3.67
838.976	-3.73
839.147	-15.7
839.318	-16.68
839.489	-32
839.66	-26.72
839.831	6.94
840.002	13.43
840.173	4.75
840.344	43.53
840.515	34.07
840.686	-24.37
840.857	-30.89
841.028	15.83
841.199	18.62
841.369	19.4
841.54	17.19
841.711	22.49
841.882	22.82
842.053	13.7
842.223	11.72
842.394	23.49
842.565	23.92
842.736	33.41
842.906	40.58
843.077	41.66
843.248	32.58
843.418	39.67
843.589	-7.77
843.759	-22.08
843.93	20.8
844.101	31.68
844.271	14.55
844.442	20.64
844.612	17
844.783	-21.06
844.953	-52.46
845.123	-83.7
845.294	-101.71
845.464	-241.19
845.635	-88.1
845.805	-2.25
845.975	7.16
846.146	-2.5
846.316	6.14
846.486	11.62
846.656	26.94
846.827	22.95
846.997	38.14
847.167	60.84
847.337	53.83
847.507	27.31
847.677	63.48
847.848	72.94
848.018	67.45
848.188	70.08
848.358	60.48
848.528	32.28
848.698	12.49
848.868	-58.9
849.038	-123.74
849.208	-41.18
849.378	0.64
849.548	-25.64
849.718	-9.8
849.887	-13.78
850.057	-39.88
850.227	-62.11
850.397	-74.25
850.567	-184.09
850.737	-363.04
850.906	-665
851.076	-434.38
851.246	-176.44
851.415	29.94
851.585	2.56
851.755	-12.19
851.924	-1.81
852.094	-38.56
852.264	-66.59
852.433	-569.23
852.603	-176.98
852.772	-130.38
852.942	-38.05
853.111	-80.3
853.281	-42.97
853.45	2.43
853.62	-51.34
853.789	-35.31
853.959	3.24
854.128	6.49
854.297	-21.69
854.467	-49.22
854.636	-117.98
854.805	-35.52
854.975	-79.12
855.144	-128.49
855.313	-128.67
855.482	-309.49
855.652	-183.1
855.821	-88.37
855.99	-7.2
856.159	8.2
856.328	42.09
856.497	25.39
856.667	23.17
856.836	28.83
857.005	24.85
857.174	6.77
857.343	-12.45
857.512	8.05
857.681	-24.96
857.85	-55.83
858.019	1.25
858.188	16.11
858.356	-3.89
858.525	-19.58
858.694	12.3
858.863	-24.63
859.032	23.7
859.201	56.28
859.369	97.7
859.538	78.3
859.707	36.31
859.876	21.83
860.044	39.89
860.213	46
860.382	39.36
860.55	33.18
860.719	44.68
860.888	36.65
861.056	3.98
861.225	11.18
861.393	31.52
861.562	23.68
861.73	-11.33
861.899	84.29
862.067	-800
862.236	-7.35
862.404	-31.41
862.572	-47.6
862.741	-16.69
862.909	12.69
863.078	-4.28
863.246	-6.44
863.414	49.02
863.582	33.51
863.751	35.15
863.919	12.43
864.087	32.19
864.255	35.68
864.424	-41.04
864.592	8.35
864.76	-12.66
864.928	-51.2
865.096	-35.67
865.264	12.67
865.432	-540.91
865.6	5.5
865.768	-44.58
865.936	-34.2
866.104	-40.98
866.272	66.25
866.44	-22.83
866.608	184.78
866.776	108.17
866.944	1069.77
867.112	-414.83
867.28	-181.74
867.448	-89.9
867.615	-67.22
867.783	-69.11
867.951	-55.4
868.119	-38.8
868.286	-51.16
868.454	-132.43
868.622	-91.89
868.789	-55.64
868.957	-950
869.125	-1115.79
869.292	-29.73
869.46	-70.63
869.627	-9.68
869.795	-12.74
869.963	26.45
870.13	7.56
870.298	22.72
870.465	-15.93
870.632	-13.4
870.8	-36.15
870.967	-36.79
871.135	-75.17
871.302	-49.23
871.469	-75.22
871.637	-116.73
871.804	-77.86
871.971	-117
872.139	-385.58
872.306	-47.53
872.473	-21.34
872.64	-66.09
872.807	62.01
872.975	79.42
873.142	6.18
873.309	700
873.476	60.82
873.643	102.96
873.81	23.49
873.977	49.93
874.144	37.05
874.311	-77.88
874.478	-106.95
874.645	-97.75
874.812	-84.23
874.979	-39.86
875.146	-47.23
875.313	-70.84
875.48	-3.34
875.647	-12.37
875.813	-22.5
875.98	1.03
876.147	-20
876.314	-68.11
876.481	588.43
876.647	-624.72
876.814	314.51
876.981	88.46
877.147	40.1
877.314	43.67
877.481	48.59
877.647	43.98
877.814	-1.48
877.98	-36.06
878.147	-11.45
878.314	-5.64
878.48	-23.73
878.647	10.9
878.813	41.45
878.979	42.36
879.146	36.76
879.312	44.96
879.479	48.67
879.645	7.45
879.811	-87.38
879.978	-177.1
880.144	-51.69
880.31	-53.51
880.477	-192.71
880.643	-267.61
880.809	-83.93
880.975	-102.12
881.142	-568.18
881.308	-35.94
881.474	25
881.64	-11.26
881.806	-23.9
881.972	-17.64
882.138	-70.33
882.304	-153.31
882.47	-242.97
882.636	-935.25
882.802	-230.57
882.968	-53.26
883.134	-12.23
883.3	-4.16
883.466	15.67
883.632	30.51
883.798	10.56
883.964	-22.25
884.129	-8.03
884.295	8.35
884.461	-18.57
884.627	-2.82
884.793	-17.87
884.958	-24.38
885.124	-80.17
885.29	-107.17
885.455	-250.97
885.621	-8.64
885.787	-67.35
885.952	-15.68
886.118	-72.64
886.283	-95.26
886.449	-194.92
886.614	-175.89
886.78	-368.46
886.945	1437.7
887.111	-418.5
887.276	-428.41
887.442	-816.36
887.607	-388.21
887.773	-206.69
887.938	-213.32
888.103	-194.43
888.269	-72.59
888.434	-107.57
888.599	-8.77
888.764	6.84
888.93	20.97
889.095	4.86
889.26	-13.97
889.425	-19.13
889.59	32.12
889.756	9.46
889.921	7.05
890.086	33.93
890.251	23.48
890.416	-73
890.581	-1250
890.746	268.21
890.911	369.43
891.076	149.06
891.241	-220.15
891.406	67.72
891.571	49.53
891.736	-201.38
891.901	-470.8
892.065	597.8
892.23	156.69
892.395	192.17
892.56	223.99
892.725	-272.66
892.889	-902.44
893.054	-127.13
893.219	-40.99
893.384	-1.36
893.548	-17.09
893.713	-34.2
893.878	-6.54
