Data from Ofra_1a_PS_9CX6_Reflection_2.txt Node
Date: Tue Jul 20 11:05:50 EDT 2021
User: Adam
Spectrometer: FLMT01687
Trigger mode: 0
Integration Time (sec): 1.004000E0
Scans to average: 2
Electric dark correction enabled: true
Nonlinearity correction enabled: false
Boxcar width: 2
XAxis mode: Wavelengths
Number of Pixels in Spectrum: 3648
>>>>>Begin Spectral Data<<<<<
179.494	-133.5
179.716	-138.93
179.937	471.91
180.158	-508.92
180.38	85
180.601	49.71
180.823	-19.82
181.044	-140.24
181.265	-118.62
181.486	176.88
181.708	143.73
181.929	-1790.91
182.15	-104.23
182.372	163.05
182.593	416.43
182.814	-261.97
183.035	-57.28
183.257	25.17
183.478	3.72
183.699	6.89
183.92	-29.99
184.141	-30.94
184.363	-49.12
184.584	-56.92
184.805	-10.67
185.026	25.65
185.247	13.48
185.468	2
185.689	6.73
185.91	-13.71
186.132	-11.71
186.353	4.98
186.574	14.63
186.795	19.45
187.016	20.92
187.237	22.71
187.458	33.44
187.679	33.98
187.9	55.07
188.121	49.79
188.342	65.92
188.563	68.39
188.784	73.37
189.005	49.97
189.226	44.51
189.447	38.86
189.667	19.09
189.888	-3.59
190.109	-15.73
190.33	7.39
190.551	-13.27
190.772	12.8
190.993	4.15
191.214	-1.99
191.434	-22.74
191.655	31.46
191.876	12.99
192.097	51.05
192.318	48.52
192.538	33.25
192.759	13.35
192.98	3.92
193.201	2.83
193.421	-2.27
193.642	-2.84
193.863	-9.4
194.083	7.79
194.304	7.68
194.525	13.77
194.745	26.08
194.966	22.94
195.187	9.82
195.407	-4.51
195.628	0.07
195.848	10.48
196.069	14.28
196.29	21.77
196.51	13.69
196.731	0.63
196.951	-15.58
197.172	-6.55
197.392	-2.98
197.613	17.68
197.833	17.03
198.054	9.21
198.274	-1.65
198.495	-20.38
198.715	-35.91
198.936	-10.02
199.156	-13.99
199.377	-13.86
199.597	13.2
199.817	26.85
200.038	1.55
200.258	32.03
200.479	25.59
200.699	21.59
200.919	3.13
201.14	11.27
201.36	3.83
201.58	0.11
201.801	-13.97
202.021	-36.07
202.241	-27.97
202.461	-54.2
202.682	-41.85
202.902	-7.46
203.122	25.94
203.342	30.28
203.563	19.31
203.783	25.42
204.003	-5.26
204.223	3.61
204.443	10.38
204.663	32.34
204.884	32.69
205.104	30.19
205.324	2.42
205.544	-56.53
205.764	-26.09
205.984	-23.54
206.204	-33.21
206.424	-29.57
206.644	-26.56
206.864	-36.81
207.084	-15.82
207.304	-7.13
207.525	-19.65
207.745	16
207.964	22.73
208.184	28.64
208.404	32.91
208.624	44.23
208.844	28.3
209.064	34.47
209.284	25.07
209.504	7.61
209.724	0.09
209.944	-0.13
210.164	-14.46
210.384	-31.27
210.604	-46.7
210.823	-63.38
211.043	-59.39
211.263	-114.32
211.483	-61.12
211.703	-51.54
211.922	-43.18
212.142	-21.59
212.362	5
212.582	-5.58
212.801	-10.62
213.021	-32.76
213.241	-42.96
213.461	-44.05
213.68	-14.97
213.9	-8.39
214.12	-8.35
214.339	-13.87
214.559	-3.42
214.779	1.84
214.998	-5.64
215.218	6.48
215.438	17.67
215.657	15.82
215.877	-13.7
216.096	16.54
216.316	13.48
216.535	6.96
216.755	4.02
216.974	-2.29
217.194	-4.18
217.413	-2.95
217.633	0.09
217.852	-0.29
218.072	7.88
218.291	-10.16
218.511	-18.57
218.73	-51.4
218.95	-91.57
219.169	-84.33
219.389	-63.13
219.608	-55.11
219.827	-21.88
220.047	-4.26
220.266	-20.63
220.485	-52.01
220.705	-35
220.924	-46
221.143	-5.01
221.363	-0.78
221.582	28.4
221.801	28.35
222.021	42.9
222.24	36.97
222.459	53.2
222.678	45.25
222.897	43.15
223.117	40.98
223.336	36
223.555	30.61
223.774	42.93
223.993	40
224.213	50.67
224.432	53.86
224.651	42.14
224.87	29.96
225.089	24.8
225.308	13.25
225.527	-8.24
225.746	-19.91
225.965	-28.13
226.184	-44.84
226.404	-57.37
226.623	-29.01
226.842	-21.97
227.061	-23.51
227.28	4.17
227.499	15.07
227.718	10.43
227.936	17.22
228.155	19.03
228.374	7.81
228.593	9.38
228.812	10.25
229.031	19.6
229.25	4.28
229.469	-5.8
229.688	-4.46
229.907	-2.13
230.125	-9.78
230.344	7.09
230.563	18.24
230.782	27.6
231.001	26.58
231.22	26.08
231.438	34.42
231.657	46.65
231.876	41.58
232.095	50.63
232.313	49.06
232.532	30.69
232.751	11.04
232.969	11
233.188	3.57
233.407	0.91
233.625	8.83
233.844	10.66
234.063	1.58
234.281	2.66
234.5	-1.47
234.719	-4.74
234.937	-8.81
235.156	-5.98
235.374	-3.9
235.593	22.21
235.811	45.84
236.03	29.19
236.249	33.97
236.467	32.97
236.686	23.04
236.904	12.3
237.123	17.69
237.341	13.12
237.559	13.61
237.778	28.42
237.996	2.74
238.215	-42.72
238.433	-111.08
238.652	-34.12
238.87	-49.58
239.088	-37.4
239.307	-2.54
239.525	12.57
239.743	-10.82
239.962	-20.7
240.18	-13.22
240.398	-15.38
240.617	-29.17
240.835	-20.28
241.053	-5.88
241.271	8.73
241.49	16.56
241.708	14.16
241.926	7.73
242.144	8.53
242.363	-7.28
242.581	-91.36
242.799	-69.75
243.017	-40.88
243.235	-30.2
243.453	-45.66
243.672	3.66
243.89	3.43
244.108	17.05
244.326	26.81
244.544	40.67
244.762	25.49
244.98	32.85
245.198	33.99
245.416	28.43
245.634	29.46
245.852	23.27
246.07	30.59
246.288	9.94
246.506	-5.9
246.724	-1.96
246.942	4.2
247.16	-16.17
247.378	-15.61
247.596	31.36
247.814	6.91
248.032	11.62
248.25	64.8
248.468	54.24
248.685	40.03
248.903	43.18
249.121	44.44
249.339	29.54
249.557	20.9
249.775	24.98
249.992	15.03
250.21	-3.72
250.428	9.44
250.646	8.99
250.863	2.21
251.081	5.25
251.299	22.63
251.517	23.79
251.734	30.09
251.952	25.96
252.17	25.33
252.387	21.95
252.605	-5.26
252.823	-27.75
253.04	-18.19
253.258	-5.7
253.475	-7.36
253.693	-4.62
253.911	3.62
254.128	-9.39
254.346	-4.37
254.563	19.25
254.781	14.86
254.998	5.93
255.216	-1.19
255.433	-8.51
255.651	-48.01
255.868	-29.34
256.086	-25.93
256.303	-9.9
256.521	-13.88
256.738	5.71
256.956	0.08
257.173	6.97
257.39	16.01
257.608	18.66
257.825	3.13
258.043	17.65
258.26	18.44
258.477	17.88
258.695	16.96
258.912	20.5
259.129	6.77
259.346	0.62
259.564	-10.99
259.781	-19.99
259.998	7.34
260.216	29.32
260.433	29.63
260.65	38.34
260.867	38.37
261.084	40.14
261.302	11
261.519	20.94
261.736	19.38
261.953	27.08
262.17	14.93
262.387	22.53
262.604	19.5
262.822	19.19
263.039	23.29
263.256	28.6
263.473	25.66
263.69	20.34
263.907	20.38
264.124	15.81
264.341	17.06
264.558	13.95
264.775	17.81
264.992	14.48
265.209	5.24
265.426	4.52
265.643	5.07
265.86	-10.06
266.077	-20.59
266.294	-9.39
266.51	5.51
266.727	17.98
266.944	34.9
267.161	35.41
267.378	40.05
267.595	19.17
267.812	4.63
268.028	-13.66
268.245	0.79
268.462	-9.94
268.679	22.06
268.896	39.75
269.112	33.69
269.329	2.51
269.546	22.76
269.763	6.09
269.979	6.88
270.196	19.81
270.413	34.64
270.629	29.1
270.846	18.96
271.063	15
271.279	4.74
271.496	-5.23
271.712	5.59
271.929	29.87
272.146	37.85
272.362	53.88
272.579	52
272.795	47.66
273.012	39.43
273.228	40.04
273.445	23.42
273.661	15.28
273.878	3.61
274.094	12.56
274.311	5.4
274.527	-9.37
274.744	11.38
274.96	20.5
275.177	19.87
275.393	26.28
275.609	31.14
275.826	23.34
276.042	12.98
276.259	17.13
276.475	3.41
276.691	-14.31
276.908	-11.45
277.124	10.8
277.34	-2.43
277.557	-23.49
277.773	7.7
277.989	0.53
278.205	-18.29
278.422	-14.74
278.638	11.01
278.854	4.5
279.07	17.29
279.286	22.85
279.503	20.61
279.719	20.83
279.935	15.84
280.151	3.29
280.367	15.33
280.583	13.85
280.799	4
281.016	-13.77
281.232	2.54
281.448	-20.97
281.664	-9.55
281.88	-3.95
282.096	10.36
282.312	11.22
282.528	13.71
282.744	5.86
282.96	-6.68
283.176	-15.31
283.392	-35.68
283.608	-20.05
283.824	-42.95
284.04	-67.38
284.256	-25.42
284.471	-13.61
284.687	-14.7
284.903	-7
285.119	14.5
285.335	8.75
285.551	3.62
285.767	-4.2
285.982	8.25
286.198	-18.75
286.414	-17.89
286.63	-5.28
286.846	1.16
287.061	8.19
287.277	13.92
287.493	-20.14
287.709	-29.79
287.924	-10.08
288.14	8.73
288.356	27.28
288.571	51.34
288.787	48
289.003	52.74
289.218	18.95
289.434	-8.83
289.65	11.91
289.865	8.91
290.081	10.89
290.296	25.51
290.512	25.12
290.727	15.35
290.943	15.84
291.159	16.42
291.374	-10.31
291.59	9.37
291.805	-9.63
292.021	-3.87
292.236	-25.66
292.451	6.56
292.667	-2.39
292.882	15.34
293.098	22.53
293.313	27.52
293.529	24.69
293.744	11.78
293.959	-1.56
294.175	-4.07
294.39	-17.48
294.605	-7.03
294.821	-10.33
295.036	-8.88
295.251	-6.89
295.467	-6.4
295.682	-8.36
295.897	-12.76
296.112	-20.32
296.328	-13.28
296.543	-29.27
296.758	-37.85
296.973	-23.02
297.188	-14.8
297.404	-53.71
297.619	-43.58
297.834	-46.05
298.049	-43.4
298.264	-39.03
298.479	-14.98
298.694	21.29
298.909	22.8
299.125	28.75
299.34	25.02
299.555	19.7
299.77	14.94
299.985	16.57
300.2	17.81
300.415	26.24
300.63	25.61
300.845	17.8
301.06	11.77
301.275	13.07
301.49	4.53
301.704	8.88
301.919	6.56
302.134	16.8
302.349	12.81
302.564	10.68
302.779	-6.86
302.994	2
303.209	-0.96
303.423	7.03
303.638	20.5
303.853	21.22
304.068	9.87
304.283	5.48
304.497	-14.11
304.712	-6.03
304.927	6.17
305.142	4.86
305.356	1.59
305.571	5.37
305.786	-6.75
306	0.62
306.215	3.6
306.43	-2.11
306.644	-10.42
306.859	-24.96
307.074	-19.15
307.288	-7.08
307.503	5.49
307.717	2.04
307.932	12.4
308.147	5.83
308.361	-0.36
308.576	-29.15
308.79	-21.97
309.005	-40.27
309.219	-33.25
309.434	-20.83
309.648	-4.61
309.863	2.95
310.077	19.42
310.292	23.67
310.506	15.39
310.72	17.04
310.935	20.66
311.149	19.1
311.364	8.1
311.578	-5.91
311.792	-1.58
312.007	-17.77
312.221	-40.4
312.435	-10.32
312.649	7.76
312.864	16.89
313.078	10.42
313.292	16.82
313.507	20.25
313.721	18.98
313.935	10.65
314.149	33.91
314.363	45.75
314.578	29
314.792	22.62
315.006	13.57
315.22	0.47
315.434	-5.86
315.648	-10.71
315.862	-8.06
316.077	-7.81
316.291	-15.77
316.505	-49.79
316.719	-25.65
316.933	-11.65
317.147	-0.78
317.361	11.34
317.575	32.18
317.789	25.78
318.003	18.32
318.217	10.71
318.431	-0.68
318.645	3.2
318.859	12.56
319.073	22.47
319.287	16.83
319.5	18.62
319.714	5
319.928	-6.53
320.142	-25.37
320.356	-8.5
320.57	-40.6
320.784	-26.93
320.997	-26.07
321.211	-2.37
321.425	-35.25
321.639	8.82
321.853	1.41
322.066	-9.5
322.28	-9.07
322.494	7.84
322.707	-4.65
322.921	5.15
323.135	19.28
323.349	16.53
323.562	12.15
323.776	22.58
323.989	38.17
324.203	18.13
324.417	9.64
324.63	-0.42
324.844	-20.06
325.057	-66.22
325.271	-49.61
325.485	-50.23
325.698	-30.42
325.912	-9
326.125	-0.24
326.339	18.15
326.552	14.43
326.766	-0.45
326.979	3.76
327.193	5.54
327.406	-25.44
327.619	0.73
327.833	12.46
328.046	8.2
328.26	14.54
328.473	29.31
328.686	15.22
328.9	26.49
329.113	24.8
329.326	7.5
329.54	10.3
329.753	24.59
329.966	14.16
330.179	9.47
330.393	13.2
330.606	8.4
330.819	-6.8
331.032	-6.66
331.246	4.55
331.459	21.97
331.672	22.12
331.885	23.61
332.098	19.89
332.311	11.48
332.525	-4.56
332.738	-5.21
332.951	-17.41
333.164	-3.2
333.377	7.68
333.59	14.83
333.803	30.74
334.016	37.79
334.229	32.15
334.442	22.83
334.655	16.02
334.868	-8.48
335.081	-9.8
335.294	-23.91
335.507	-6.04
335.72	-12.99
335.933	-7.83
336.146	-8.66
336.359	13.2
336.572	-1.63
336.785	4.67
336.997	10.09
337.21	18.86
337.423	-0.15
337.636	4.76
337.849	6.4
338.062	12.66
338.274	17.88
338.487	3.54
338.7	-12.09
338.913	-4.69
339.125	-14.64
339.338	-19.51
339.551	-15.18
339.763	3.85
339.976	1.59
340.189	-1.11
340.402	10.47
340.614	28.04
340.827	19.9
341.039	16.89
341.252	13.75
341.465	5.32
341.677	-0.59
341.89	-6.83
342.102	12.25
342.315	17.11
342.527	16.04
342.74	2.37
342.952	-3.79
343.165	-28.39
343.377	-14.7
343.59	-7.49
343.802	0.37
344.015	24.71
344.227	27.51
344.44	22.37
344.652	9.77
344.864	15.27
345.077	3.42
345.289	19.86
345.502	27.21
345.714	31.79
345.926	39.96
346.139	32.65
346.351	22.11
346.563	8.47
346.775	7.45
346.988	6.02
347.2	14.15
347.412	13.21
347.624	8.85
347.837	18.17
348.049	17.94
348.261	4
348.473	-5.03
348.685	-12.72
348.897	-23.83
349.11	-28.11
349.322	-29.1
349.534	-33.8
349.746	-17.14
349.958	-23.94
350.17	-21.09
350.382	4.29
350.594	21.8
350.806	31.74
351.018	34.84
351.23	35.91
351.442	34.86
351.654	26.5
351.866	22.67
352.078	21.83
352.29	16.91
352.502	6.91
352.714	9.57
352.926	0.23
353.138	13.18
353.35	-4.68
353.561	-3.43
353.773	-10.64
353.985	7.2
354.197	3.31
354.409	18.8
354.621	16.12
354.832	22.67
355.044	-10.06
355.256	-8.18
355.468	-19.87
355.679	5.72
355.891	12.68
356.103	21.14
356.314	3.56
356.526	-4.89
356.738	-24.97
356.949	-35.66
357.161	-13.22
357.373	5.11
357.584	2.25
357.796	5.59
358.008	9.12
358.219	-13.47
358.431	-24.81
358.642	-5.05
358.854	10.04
359.065	0.19
359.277	11.07
359.488	15.1
359.7	-0.2
359.911	-18.32
360.123	-4.3
360.334	-13.04
360.546	-19.1
360.757	-9.95
360.969	0.6
361.18	-5.18
361.391	8.41
361.603	25.06
361.814	28.07
362.025	30.47
362.237	36.8
362.448	34.99
362.659	22.75
362.871	7.94
363.082	10.37
363.293	-14.36
363.504	-52.28
363.716	-39.86
363.927	-1.27
364.138	-33.31
364.349	-31.17
364.56	-25.69
364.772	-4.92
364.983	-12.47
365.194	-3.59
365.405	9.39
365.616	17.13
365.827	1.43
366.038	2.24
366.25	5.16
366.461	7.61
366.672	5.34
366.883	-6.01
367.094	-26.49
367.305	-43.63
367.516	-39.42
367.727	-48.18
367.938	-32.68
368.149	-29.04
368.36	-17.14
368.571	-35.66
368.781	-26.2
368.992	-25.57
369.203	-14.22
369.414	-19.05
369.625	-16.43
369.836	4.4
370.047	-2.62
370.258	-7.91
370.468	-10.71
370.679	-10.66
370.89	-31.17
371.101	-15.74
371.312	-17.8
371.522	-5.1
371.733	5.21
371.944	-5
372.155	0.54
372.365	1.81
372.576	-3.15
372.787	5.47
372.997	11.56
373.208	9.66
373.419	8.6
373.629	3.08
373.84	-13.78
374.05	-15.45
374.261	-26.7
374.472	-11.5
374.682	10.21
374.893	1.64
375.103	11.29
375.314	17.48
375.524	-4.24
375.735	-3.8
375.945	8.99
376.156	1.54
376.366	2.24
376.577	15.86
376.787	1.49
376.997	7.75
377.208	9.17
377.418	5.71
377.629	10.21
377.839	19.65
378.049	18.61
378.26	17.21
378.47	8.94
378.68	2.38
378.89	-1.28
379.101	-7.6
379.311	-1.13
379.521	-2.98
379.732	1.16
379.942	7.98
380.152	6.05
380.362	5.27
380.572	23.32
380.783	21.05
380.993	16.64
381.203	17.83
381.413	11.54
381.623	7.63
381.833	7.36
382.043	-6.92
382.253	-7.16
382.463	7.05
382.674	6.55
382.884	10.49
383.094	14.17
383.304	14.7
383.514	17.63
383.724	16
383.934	5.97
384.144	15.54
384.353	14.97
384.563	4.57
384.773	11.27
384.983	12.53
385.193	5.29
385.403	0.99
385.613	8.54
385.823	0.1
386.033	1.45
386.242	-1.16
386.452	-0.91
386.662	-4.24
386.872	2.72
387.082	4.33
387.291	0.53
387.501	4.92
387.711	7.33
387.921	2.84
388.13	3.75
388.34	9.14
388.55	1.35
388.759	-4.81
388.969	-4.19
389.179	-2.63
389.388	-6.61
389.598	-0.47
389.807	-1.66
390.017	-4.11
390.227	-7.76
390.436	-6.66
390.646	-6.44
390.855	-1.97
391.065	-1.88
391.274	1.39
391.484	1.03
391.693	0.63
391.903	-1.33
392.112	-1.91
392.322	-4.01
392.531	-2.56
392.74	-1.54
392.95	-1.66
393.159	-1.13
393.369	-0.09
393.578	-0.01
393.787	0.41
393.997	1.18
394.206	1.55
394.415	1.96
394.625	2.62
394.834	0.27
395.043	0.46
395.252	3.81
395.462	3.8
395.671	3.05
395.88	5.22
396.089	4.64
396.298	2.62
396.508	2.98
396.717	3.17
396.926	2.28
397.135	2.89
397.344	2.83
397.553	2.66
397.762	3.8
397.971	4.05
398.181	3.86
398.39	3.35
398.599	3.09
398.808	2.51
399.017	3.12
399.226	3.13
399.435	3.34
399.644	3.5
399.853	3.67
400.062	3.25
400.27	3.01
400.479	2.95
400.688	3.08
400.897	2.78
401.106	2.92
401.315	2.74
401.524	2.88
401.733	2.37
401.941	2.26
402.15	1.71
402.359	2.12
402.568	2.16
402.777	2.46
402.985	2.38
403.194	2.62
403.403	2.57
403.612	2.52
403.82	2.37
404.029	2.51
404.238	2.48
404.446	2.49
404.655	2.53
404.864	2.63
405.072	2.69
405.281	2.55
405.489	2.46
405.698	2.41
405.906	2.46
406.115	2.27
406.324	2.44
406.532	2.45
406.741	2.49
406.949	2.41
407.158	2.51
407.366	2.34
407.574	2.36
407.783	2.34
407.991	2.21
408.2	2.19
408.408	2.32
408.617	2.26
408.825	2.08
409.033	2.24
409.242	2.42
409.45	2.4
409.658	2.35
409.867	2.47
410.075	2.56
410.283	2.35
410.491	2.26
410.7	2.25
410.908	2.33
411.116	2.27
411.324	2.33
411.533	2.25
411.741	2.24
411.949	2.14
412.157	2.03
412.365	2.02
412.573	2.05
412.781	2.01
412.99	2.03
413.198	2.05
413.406	2.03
413.614	2.18
413.822	2.27
414.03	2.27
414.238	2.31
414.446	2.43
414.654	2.31
414.862	2.23
415.07	2.07
415.278	2.02
415.486	1.78
415.694	1.93
415.902	2.06
416.109	2.2
416.317	2.19
416.525	2.26
416.733	2.21
416.941	2.26
417.149	2.21
417.357	2.29
417.564	2.32
417.772	2.37
417.98	2.19
418.188	2.15
418.395	1.89
418.603	1.77
418.811	1.55
419.019	1.56
419.226	1.73
419.434	1.87
419.642	1.86
419.849	1.89
420.057	1.89
420.265	1.75
420.472	1.71
420.68	1.75
420.887	1.75
421.095	1.8
421.302	1.75
421.51	1.73
421.717	1.8
421.925	1.84
422.132	1.79
422.34	1.72
422.547	1.79
422.755	1.9
422.962	1.97
423.17	1.96
423.377	2.03
423.585	2.05
423.792	1.88
423.999	1.86
424.207	1.82
424.414	1.97
424.621	1.96
424.829	2.04
425.036	2.04
425.243	2.11
425.451	2.09
425.658	2.05
425.865	1.97
426.072	2.06
426.28	2.03
426.487	1.96
426.694	1.77
426.901	1.8
427.108	1.59
427.315	1.55
427.523	1.53
427.73	1.74
427.937	1.6
428.144	1.82
428.351	1.88
428.558	2
428.765	1.96
428.972	2.05
429.179	1.82
429.386	1.84
429.593	1.68
429.8	1.66
430.007	1.72
430.214	1.72
430.421	1.75
430.628	1.78
430.835	1.79
431.042	1.7
431.249	1.69
431.456	1.59
431.662	1.68
431.869	1.84
432.076	1.96
432.283	2.12
432.49	2.1
432.697	1.99
432.903	1.82
433.11	1.84
433.317	1.78
433.524	1.86
433.73	1.86
433.937	1.96
434.144	1.82
434.35	1.74
434.557	1.71
434.764	1.83
434.97	1.68
435.177	1.89
435.384	1.96
435.59	1.99
435.797	2.03
436.003	2.17
436.21	1.95
436.416	1.94
436.623	1.88
436.829	1.81
437.036	1.72
437.242	1.84
437.449	1.89
437.655	2.02
437.862	2.01
438.068	2.05
438.275	2.09
438.481	2.16
438.687	2.08
438.894	2.16
439.1	2.15
439.307	2.24
439.513	2.22
439.719	2.28
439.926	2.22
440.132	2.3
440.338	2.12
440.544	2.03
440.751	1.95
440.957	2.08
441.163	1.97
441.369	2.12
441.575	2.06
441.782	2.22
441.988	2.14
442.194	2.17
442.4	2.13
442.606	2.35
442.812	2.22
443.018	2.27
443.224	2.39
443.431	2.29
443.637	2.17
443.843	2.25
444.049	2.22
444.255	2.19
444.461	2.15
444.667	2.16
444.873	2.15
445.079	2.03
445.284	1.98
445.49	2
445.696	1.97
445.902	1.97
446.108	2.04
446.314	2.05
446.52	2.2
446.726	2.25
446.931	2.2
447.137	2.25
447.343	2.36
447.549	2.34
447.755	2.38
447.96	2.42
448.166	2.46
448.372	2.41
448.578	2.29
448.783	2.23
448.989	2.29
449.195	2.24
449.4	2.21
449.606	2.21
449.812	2.2
450.017	2.11
450.223	2.15
450.428	2.14
450.634	2.16
450.84	2.2
451.045	2.2
451.251	2.2
451.456	2.22
451.662	2.33
451.867	2.35
452.073	2.35
452.278	2.32
452.483	2.25
452.689	2.24
452.894	2.28
453.1	2.24
453.305	2.23
453.51	2.29
453.716	2.22
453.921	2.24
454.127	2.3
454.332	2.25
454.537	2.23
454.742	2.34
454.948	2.34
455.153	2.36
455.358	2.45
455.563	2.5
455.769	2.44
455.974	2.35
456.179	2.3
456.384	2.26
456.589	2.24
456.795	2.2
457	2.24
457.205	2.27
457.41	2.25
457.615	2.28
457.82	2.37
458.025	2.32
458.23	2.31
458.435	2.38
458.64	2.36
458.845	2.32
459.05	2.38
459.255	2.39
459.46	2.39
459.665	2.38
459.87	2.35
460.075	2.38
460.28	2.4
460.485	2.5
460.69	2.43
460.895	2.46
461.099	2.36
461.304	2.27
461.509	2.21
461.714	2.29
461.919	2.28
462.123	2.38
462.328	2.36
462.533	2.19
462.738	2.18
462.942	2.14
463.147	2.1
463.352	2.18
463.556	2.34
463.761	2.29
463.966	2.36
464.17	2.49
464.375	2.49
464.58	2.41
464.784	2.49
464.989	2.5
465.193	2.36
465.398	2.4
465.602	2.54
465.807	2.56
466.011	2.57
466.216	2.57
466.42	2.61
466.625	2.63
466.829	2.57
467.034	2.61
467.238	2.72
467.443	2.69
467.647	2.53
467.851	2.6
468.056	2.53
468.26	2.5
468.464	2.55
468.669	2.7
468.873	2.6
469.077	2.6
469.282	2.57
469.486	2.44
469.69	2.42
469.894	2.5
470.099	2.57
470.303	2.59
470.507	2.69
470.711	2.67
470.915	2.74
471.119	2.79
471.324	2.8
471.528	2.81
471.732	2.9
471.936	2.93
472.14	2.88
472.344	3.05
472.548	3.05
472.752	3.03
472.956	2.99
473.16	2.96
473.364	2.88
473.568	2.79
473.772	2.67
473.976	2.75
474.18	2.78
474.384	2.68
474.588	2.84
474.792	2.95
474.995	2.92
475.199	2.94
475.403	3.04
475.607	3.01
475.811	3.01
476.015	2.88
476.218	2.87
476.422	2.83
476.626	2.84
476.83	2.91
477.033	3.03
477.237	3.06
477.441	3.04
477.644	3.07
477.848	3.02
478.052	3.02
478.255	3.07
478.459	3.05
478.663	3.12
478.866	3.2
479.07	3.16
479.273	3.23
479.477	3.33
479.681	3.26
479.884	3.22
480.088	3.29
480.291	3.25
480.495	3.19
480.698	3.2
480.901	3.28
481.105	3.27
481.308	3.3
481.512	3.34
481.715	3.43
481.919	3.44
482.122	3.46
482.325	3.48
482.529	3.51
482.732	3.4
482.935	3.33
483.138	3.3
483.342	3.34
483.545	3.39
483.748	3.48
483.952	3.54
484.155	3.64
484.358	3.57
484.561	3.52
484.764	3.49
484.967	3.48
485.171	3.46
485.374	3.44
485.577	3.42
485.78	3.41
485.983	3.36
486.186	3.3
486.389	3.33
486.592	3.34
486.795	3.4
486.998	3.42
487.201	3.47
487.404	3.57
487.607	3.56
487.81	3.51
488.013	3.56
488.216	3.52
488.419	3.41
488.622	3.44
488.825	3.52
489.028	3.48
489.231	3.5
489.433	3.51
489.636	3.53
489.839	3.53
490.042	3.58
490.245	3.55
490.447	3.61
490.65	3.61
490.853	3.55
491.056	3.59
491.258	3.66
491.461	3.64
491.664	3.65
491.866	3.65
492.069	3.64
492.272	3.54
492.474	3.58
492.677	3.59
492.879	3.61
493.082	3.63
493.285	3.69
493.487	3.7
493.69	3.64
493.892	3.59
494.095	3.58
494.297	3.67
494.5	3.65
494.702	3.76
494.905	3.85
495.107	3.87
495.309	3.86
495.512	3.9
495.714	3.91
495.917	3.96
496.119	3.99
496.321	3.95
496.524	3.88
496.726	3.86
496.928	3.81
497.13	3.78
497.333	3.8
497.535	3.85
497.737	3.83
497.939	3.83
498.142	3.82
498.344	3.85
498.546	3.85
498.748	3.94
498.95	4.04
499.152	4.08
499.355	4.07
499.557	4.15
499.759	4.19
499.961	4.15
500.163	4.19
500.365	4.23
500.567	4.17
500.769	4.15
500.971	4.13
501.173	4.1
501.375	4.21
501.577	4.25
501.779	4.23
501.981	4.32
502.183	4.35
502.385	4.3
502.587	4.39
502.788	4.45
502.99	4.45
503.192	4.47
503.394	4.48
503.596	4.46
503.798	4.43
503.999	4.45
504.201	4.41
504.403	4.45
504.605	4.5
504.806	4.61
505.008	4.59
505.21	4.71
505.411	4.74
505.613	4.74
505.815	4.74
506.016	4.85
506.218	4.94
506.42	4.94
506.621	4.98
506.823	4.99
507.024	4.99
507.226	5
507.427	5.03
507.629	5.02
507.83	5.06
508.032	5.07
508.233	5.08
508.435	5.13
508.636	5.2
508.838	5.16
509.039	5.2
509.24	5.19
509.442	5.22
509.643	5.16
509.845	5.19
510.046	5.23
510.247	5.28
510.448	5.33
510.65	5.42
510.851	5.55
511.052	5.53
511.254	5.59
511.455	5.58
511.656	5.62
511.857	5.6
512.058	5.66
512.26	5.62
512.461	5.64
512.662	5.69
512.863	5.62
513.064	5.6
513.265	5.57
513.466	5.6
513.667	5.6
513.868	5.61
514.069	5.63
514.27	5.73
514.471	5.7
514.672	5.77
514.873	5.83
515.074	5.9
515.275	5.87
515.476	5.94
515.677	5.92
515.878	5.97
516.079	5.97
516.28	6.06
516.481	6.07
516.682	6.06
516.882	6.07
517.083	6.09
517.284	6.09
517.485	6.1
517.686	6.14
517.886	6.17
518.087	6.17
518.288	6.21
518.488	6.24
518.689	6.23
518.89	6.25
519.091	6.34
519.291	6.24
519.492	6.26
519.692	6.28
519.893	6.32
520.094	6.24
520.294	6.33
520.495	6.35
520.695	6.34
520.896	6.36
521.096	6.43
521.297	6.49
521.497	6.49
521.698	6.5
521.898	6.5
522.099	6.51
522.299	6.46
522.499	6.51
522.7	6.59
522.9	6.64
523.101	6.7
523.301	6.77
523.501	6.75
523.702	6.73
523.902	6.75
524.102	6.79
524.302	6.84
524.503	6.9
524.703	6.88
524.903	6.88
525.103	6.84
525.304	6.81
525.504	6.83
525.704	6.88
525.904	6.85
526.104	6.89
526.304	6.96
526.504	6.96
526.705	6.94
526.905	7
527.105	7.01
527.305	6.96
527.505	6.96
527.705	7.02
527.905	7.09
528.105	7.1
528.305	7.15
528.505	7.18
528.705	7.3
528.905	7.24
529.105	7.27
529.304	7.27
529.504	7.32
529.704	7.25
529.904	7.31
530.104	7.36
530.304	7.41
530.503	7.39
530.703	7.4
530.903	7.42
531.103	7.41
531.303	7.38
531.502	7.48
531.702	7.57
531.902	7.65
532.101	7.65
532.301	7.75
532.501	7.83
532.7	7.79
532.9	7.79
533.1	7.86
533.299	7.89
533.499	7.83
533.698	7.83
533.898	7.87
534.097	7.9
534.297	7.87
534.496	7.91
534.696	7.97
534.895	7.97
535.095	8.01
535.294	8.03
535.494	8.01
535.693	8.06
535.892	8.08
536.092	8.07
536.291	8.13
536.491	8.19
536.69	8.26
536.889	8.28
537.088	8.29
537.288	8.31
537.487	8.33
537.686	8.31
537.886	8.34
538.085	8.37
538.284	8.42
538.483	8.44
538.682	8.49
538.882	8.52
539.081	8.65
539.28	8.66
539.479	8.66
539.678	8.7
539.877	8.78
540.076	8.8
540.275	8.88
540.474	8.94
540.673	8.99
540.872	9.03
541.071	9.05
541.27	9.09
541.469	9.16
541.668	9.21
541.867	9.3
542.066	9.31
542.265	9.39
542.464	9.39
542.663	9.45
542.862	9.53
543.06	9.58
543.259	9.67
543.458	9.76
543.657	9.84
543.856	9.85
544.054	9.89
544.253	9.88
544.452	9.96
544.651	10
544.849	10
545.048	10.07
545.247	10.18
545.445	10.25
545.644	10.3
545.843	10.37
546.041	10.42
546.24	10.42
546.438	10.54
546.637	10.57
546.836	10.69
547.034	10.75
547.233	10.85
547.431	10.87
547.63	10.94
547.828	10.97
548.027	11.06
548.225	11.14
548.423	11.19
548.622	11.27
548.82	11.31
549.019	11.37
549.217	11.4
549.415	11.44
549.614	11.6
549.812	11.72
550.01	11.76
550.209	11.92
550.407	12.04
550.605	12
550.803	12.06
551.002	12.22
551.2	12.23
551.398	12.29
551.596	12.43
551.794	12.57
551.993	12.61
552.191	12.76
552.389	12.86
552.587	12.96
552.785	13.01
552.983	13.13
553.181	13.18
553.379	13.27
553.577	13.35
553.775	13.49
553.973	13.64
554.171	13.77
554.369	13.84
554.567	13.97
554.765	14.03
554.963	14.11
555.161	14.17
555.359	14.3
555.557	14.39
555.755	14.54
555.952	14.62
556.15	14.76
556.348	14.85
556.546	15
556.744	15.01
556.941	15.08
557.139	15.22
557.337	15.36
557.535	15.39
557.732	15.52
557.93	15.66
558.128	15.79
558.325	15.95
558.523	16.05
558.721	16.21
558.918	16.41
559.116	16.52
559.313	16.57
559.511	16.72
559.708	16.84
559.906	16.91
560.104	16.97
560.301	17.12
560.498	17.34
560.696	17.51
560.893	17.62
561.091	17.73
561.288	17.93
561.486	17.97
561.683	17.99
561.88	18.21
562.078	18.32
562.275	18.36
562.473	18.45
562.67	18.53
562.867	18.58
563.064	18.75
563.262	18.83
563.459	19.05
563.656	19.26
563.853	19.28
564.051	19.37
564.248	19.52
564.445	19.57
564.642	19.66
564.839	19.89
565.036	20.09
565.234	20.23
565.431	20.36
565.628	20.56
565.825	20.68
566.022	20.84
566.219	20.96
566.416	21.03
566.613	21.1
566.81	21.19
567.007	21.14
567.204	21.22
567.401	21.28
567.598	21.33
567.795	21.32
567.991	21.43
568.188	21.51
568.385	21.74
568.582	21.84
568.779	22.02
568.976	22.09
569.172	22.25
569.369	22.29
569.566	22.4
569.763	22.34
569.96	22.42
570.156	22.4
570.353	22.32
570.55	22.33
570.746	22.49
570.943	22.58
571.14	22.69
571.336	22.81
571.533	22.98
571.729	23.07
571.926	23.03
572.123	23.07
572.319	23.27
572.516	23.27
572.712	23.3
572.909	23.4
573.105	23.42
573.302	23.31
573.498	23.22
573.695	23.23
573.891	23.25
574.087	23.25
574.284	23.28
574.48	23.34
574.677	23.3
574.873	23.34
575.069	23.44
575.266	23.49
575.462	23.55
575.658	23.69
575.854	23.74
576.051	23.71
576.247	23.62
576.443	23.62
576.639	23.57
576.835	23.5
577.032	23.48
577.228	23.66
577.424	23.63
577.62	23.69
577.816	23.78
578.012	23.82
578.208	23.78
578.404	23.79
578.6	23.74
578.796	23.72
578.993	23.74
579.189	23.75
579.384	23.75
579.58	23.75
579.776	23.81
579.972	23.73
580.168	23.68
580.364	23.79
580.56	23.71
580.756	23.59
580.952	23.57
581.148	23.66
581.343	23.58
581.539	23.63
581.735	23.66
581.931	23.59
582.127	23.54
582.322	23.53
582.518	23.51
582.714	23.55
582.909	23.61
583.105	23.48
583.301	23.41
583.496	23.43
583.692	23.37
583.888	23.38
584.083	23.36
584.279	23.24
584.474	23.18
584.67	23.17
584.866	23.07
585.061	23.15
585.257	23.3
585.452	23.33
585.648	23.25
585.843	23.39
586.039	23.39
586.234	23.37
586.429	23.3
586.625	23.35
586.82	23.25
587.015	23.27
587.211	23.27
587.406	23.31
587.601	23.3
587.797	23.37
587.992	23.29
588.187	23.26
588.383	23.25
588.578	23.35
588.773	23.31
588.968	23.36
589.163	23.47
589.359	23.45
589.554	23.38
589.749	23.42
589.944	23.48
590.139	23.38
590.334	23.53
590.529	23.59
590.724	23.74
590.919	23.7
591.114	23.78
591.309	23.65
591.504	23.69
591.699	23.55
591.894	23.52
592.089	23.52
592.284	23.7
592.479	23.75
592.674	23.85
592.869	24.04
593.064	24.13
593.259	24.2
593.454	24.21
593.648	24.2
593.843	24.22
594.038	24.36
594.233	24.38
594.428	24.46
594.622	24.58
594.817	24.71
595.012	24.73
595.206	24.84
595.401	24.9
595.596	25.01
595.79	25.03
595.985	25.06
596.18	25.18
596.374	25.42
596.569	25.51
596.763	25.57
596.958	25.74
597.153	25.76
597.347	25.67
597.542	25.65
597.736	25.79
597.931	25.77
598.125	25.91
598.319	26.05
598.514	26.25
598.708	26.28
598.903	26.5
599.097	26.61
599.291	26.63
599.486	26.71
599.68	26.81
599.874	26.85
600.069	26.83
600.263	26.93
600.457	26.94
600.651	26.94
600.846	26.97
601.04	26.99
601.234	26.97
601.428	26.99
601.622	27.06
601.817	27.12
602.011	27.15
602.205	27.26
602.399	27.33
602.593	27.36
602.787	27.31
602.981	27.35
603.175	27.42
603.369	27.33
603.563	27.45
603.757	27.45
603.951	27.43
604.145	27.36
604.339	27.46
604.533	27.33
604.727	27.31
604.921	27.3
605.115	27.25
605.309	27.2
605.502	27.19
605.696	27.18
605.89	27.21
606.084	27.22
606.278	27.18
606.471	27.15
606.665	27.08
606.859	26.84
607.053	26.72
607.246	26.53
607.44	26.4
607.634	26.37
607.827	26.44
608.021	26.31
608.214	26.36
608.408	26.26
608.602	26.11
608.795	26.12
608.989	26.13
609.182	25.97
609.376	26.02
609.569	25.96
609.763	25.78
609.956	25.75
610.15	25.69
610.343	25.55
610.537	25.46
610.73	25.32
610.923	25.19
611.117	25.14
611.31	25.02
611.504	25.01
611.697	24.92
611.89	24.81
612.083	24.64
612.277	24.62
612.47	24.44
612.663	24.39
612.856	24.3
613.05	24.33
613.243	24.19
613.436	24.17
613.629	24.06
613.822	23.99
614.015	23.82
614.209	23.76
614.402	23.62
614.595	23.58
614.788	23.48
614.981	23.45
615.174	23.26
615.367	23.15
615.56	23
615.753	22.92
615.946	22.84
616.139	22.82
616.332	22.78
616.525	22.75
616.718	22.7
616.911	22.67
617.103	22.7
617.296	22.61
617.489	22.58
617.682	22.54
617.875	22.49
618.067	22.32
618.26	22.35
618.453	22.3
618.646	22.24
618.838	22.09
619.031	22.03
619.224	21.99
619.417	21.93
619.609	21.86
619.802	21.86
619.994	21.89
620.187	21.76
620.38	21.71
620.572	21.65
620.765	21.66
620.957	21.56
621.15	21.49
621.342	21.42
621.535	21.46
621.727	21.38
621.92	21.41
622.112	21.48
622.305	21.52
622.497	21.43
622.69	21.47
622.882	21.37
623.074	21.43
623.267	21.34
623.459	21.29
623.651	21.22
623.844	21.25
624.036	21.16
624.228	21.18
624.42	21.13
624.613	21.06
624.805	21.02
624.997	20.92
625.189	20.92
625.381	20.83
625.574	20.82
625.766	20.72
625.958	20.78
626.15	20.72
626.342	20.83
626.534	20.84
626.726	20.89
626.918	20.89
627.11	20.84
627.302	20.81
627.494	20.76
627.686	20.64
627.878	20.56
628.07	20.53
628.262	20.53
628.454	20.5
628.646	20.5
628.838	20.48
629.029	20.4
629.221	20.33
629.413	20.26
629.605	20.23
629.797	20.09
629.989	20.06
630.18	20.05
630.372	20.01
630.564	20.04
630.755	20.03
630.947	19.95
631.139	19.86
631.33	19.84
631.522	19.78
631.714	19.73
631.905	19.73
632.097	19.65
632.289	19.6
632.48	19.52
632.672	19.51
632.863	19.48
633.055	19.51
633.246	19.55
633.438	19.56
633.629	19.6
633.821	19.56
634.012	19.49
634.203	19.38
634.395	19.37
634.586	19.36
634.777	19.41
634.969	19.47
635.16	19.44
635.351	19.44
635.543	19.3
635.734	19.17
635.925	19.08
636.117	19.12
636.308	19.06
636.499	19.06
636.69	19.22
636.881	19.16
637.073	19.21
637.264	19.2
637.455	19.24
637.646	19.15
637.837	19.18
638.028	19.1
638.219	19.14
638.41	19.15
638.601	19.12
638.792	19.14
638.983	19.06
639.174	18.95
639.365	18.92
639.556	18.79
639.747	18.72
639.938	18.78
640.129	18.76
640.32	18.73
640.511	18.81
640.701	18.85
640.892	18.7
641.083	18.75
641.274	18.65
641.465	18.57
641.655	18.45
641.846	18.48
642.037	18.36
642.228	18.26
642.418	18.25
642.609	18.24
642.8	18.22
642.99	18.21
643.181	18.28
643.372	18.21
643.562	18.13
643.753	18.14
643.943	18.11
644.134	17.98
644.324	18.05
644.515	18.06
644.705	18.07
644.896	18.03
645.086	18.14
645.277	18.04
645.467	18.01
645.658	17.85
645.848	17.89
646.038	17.78
646.229	17.77
646.419	17.69
646.61	17.8
646.8	17.79
646.99	17.84
647.18	17.71
647.371	17.68
647.561	17.55
647.751	17.45
647.941	17.44
648.132	17.51
648.322	17.47
648.512	17.52
648.702	17.61
648.892	17.62
649.082	17.69
649.272	17.71
649.462	17.66
649.653	17.52
649.843	17.31
650.033	17.31
650.223	17.32
650.413	17.29
650.603	17.41
650.793	17.45
650.983	17.32
651.172	17.3
651.362	17.16
651.552	17.02
651.742	16.9
651.932	16.88
652.122	16.78
652.312	16.8
652.502	16.64
652.691	16.67
652.881	16.62
653.071	16.51
653.261	16.32
653.45	16.27
653.64	16.06
653.83	15.84
654.019	15.71
654.209	15.75
654.399	15.68
654.588	15.54
654.778	15.5
654.968	15.44
655.157	15.2
655.347	14.93
655.536	14.86
655.726	14.62
655.915	14.44
656.105	14.28
656.294	14.17
656.484	13.98
656.673	13.86
656.863	13.75
657.052	13.56
657.241	13.4
657.431	13.25
657.62	13.11
657.809	12.77
657.999	12.67
658.188	12.48
658.377	12.3
658.567	12.08
658.756	12.02
658.945	11.84
659.134	11.61
659.324	11.47
659.513	11.22
659.702	10.95
659.891	10.75
660.08	10.67
660.269	10.41
660.458	10.21
660.648	10.11
660.837	9.93
661.026	9.66
661.215	9.54
661.404	9.47
661.593	9.32
661.782	9.17
661.971	8.99
662.16	8.79
662.349	8.53
662.538	8.3
662.726	8.16
662.915	8.16
663.104	8.01
663.293	8.06
663.482	8.03
663.671	7.92
663.86	7.73
664.048	7.65
664.237	7.54
664.426	7.34
664.615	7.27
664.803	7.17
664.992	7.09
665.181	6.93
665.369	6.82
665.558	6.76
665.747	6.79
665.935	6.7
666.124	6.7
666.312	6.66
666.501	6.61
666.69	6.45
666.878	6.4
667.067	6.28
667.255	6.28
667.444	6.15
667.632	6.22
667.82	6.22
668.009	6.15
668.197	6.12
668.386	6.03
668.574	5.93
668.762	5.86
668.951	5.83
669.139	5.8
669.327	5.81
669.516	5.86
669.704	5.88
669.892	5.95
670.08	5.87
670.269	5.97
670.457	5.94
670.645	5.87
670.833	5.88
671.021	6.04
671.21	5.98
671.398	5.92
671.586	5.97
671.774	5.94
671.962	5.96
672.15	6.05
672.338	6.12
672.526	6.09
672.714	6.15
672.902	6.13
673.09	6.2
673.278	6.22
673.466	6.26
673.654	6.38
673.842	6.43
674.03	6.45
674.218	6.5
674.405	6.61
674.593	6.59
674.781	6.67
674.969	6.74
675.157	6.79
675.344	6.87
675.532	6.96
675.72	6.99
675.908	7.03
676.095	7.1
676.283	7.22
676.471	7.3
676.658	7.48
676.846	7.56
677.033	7.64
677.221	7.68
677.409	7.7
677.596	7.7
677.784	7.81
677.971	7.84
678.159	8
678.346	8.09
678.534	8.26
678.721	8.39
678.909	8.52
679.096	8.49
679.283	8.66
679.471	8.66
679.658	8.62
679.846	8.63
680.033	8.88
680.22	9.12
680.408	9.26
680.595	9.42
680.782	9.67
680.969	9.79
681.157	9.83
681.344	9.9
681.531	10.01
681.718	10.16
681.905	10.28
682.093	10.36
682.28	10.65
682.467	10.9
682.654	11.13
682.841	11.28
683.028	11.41
683.215	11.67
683.402	11.79
683.589	11.99
683.776	12.13
683.963	12.54
684.15	12.69
684.337	13.02
684.524	13.27
684.711	13.63
684.898	13.74
685.085	13.89
685.271	14.18
685.458	14.46
685.645	14.75
685.832	15.22
686.019	15.64
686.205	16.02
686.392	16.44
686.579	16.97
686.766	17.27
686.952	17.69
687.139	18.17
687.326	18.5
687.512	18.78
687.699	19.27
687.886	19.76
688.072	20.07
688.259	20.62
688.445	21.17
688.632	21.55
688.818	22.15
689.005	22.65
689.191	23.29
689.378	23.86
689.564	24.56
689.751	25.16
689.937	26.12
690.124	26.71
690.31	27.1
690.496	27.85
690.683	28.53
690.869	28.99
691.055	29.69
691.242	30.65
691.428	31.38
691.614	32.27
691.8	33.15
691.987	34.07
692.173	35.07
692.359	35.72
692.545	36.55
692.731	37.32
692.918	37.88
693.104	38.35
693.29	39.19
693.476	39.8
693.662	40.64
693.848	41.56
694.034	42.38
694.22	43.33
694.406	43.94
694.592	44.74
694.778	45.28
694.964	46.08
695.15	46.71
695.336	47.63
695.522	48.3
695.708	49.37
695.894	50.3
696.08	51.11
696.265	51.94
696.451	52.67
696.637	53.44
696.823	54.33
697.009	55.16
697.194	56
697.38	56.88
697.566	57.43
697.751	57.84
697.937	58.59
698.123	59.19
698.308	59.66
698.494	60.64
698.68	61.4
698.865	61.74
699.051	62.32
699.236	63.03
699.422	63.39
699.607	64.24
699.793	65.43
699.978	65.89
700.164	66.37
700.349	67.08
700.535	67.37
700.72	67.73
700.906	68.35
701.091	69.06
701.276	69.34
701.462	69.81
701.647	70.39
701.832	71.05
702.018	71.82
702.203	72.7
702.388	73.29
702.573	73.48
702.759	74.13
702.944	74.18
703.129	74.29
703.314	74.91
703.499	75.52
703.684	75.74
703.87	76.42
704.055	77
704.24	77.35
704.425	77.66
704.61	78.16
704.795	79
704.98	79.26
705.165	79.22
705.35	79.53
705.535	79.66
705.72	79.23
705.905	79.79
706.09	80.59
706.275	81.24
706.459	81.53
706.644	82.06
706.829	82.54
707.014	82.88
707.199	83.12
707.384	83.29
707.568	83.42
707.753	83.56
707.938	84
708.123	84.21
708.307	84.78
708.492	85.28
708.677	85.35
708.861	85.17
709.046	84.79
709.231	84.49
709.415	84.51
709.6	84.72
709.784	84.92
709.969	85.6
710.153	85.96
710.338	86.63
710.522	87.07
710.707	87.42
710.891	87.52
711.076	87.77
711.26	87.71
711.445	87.84
711.629	87.75
711.813	87.79
711.998	88.1
712.182	87.82
712.366	88.1
712.551	88.37
712.735	88.45
712.919	89.07
713.103	89.71
713.288	89.56
713.472	89.72
713.656	89.77
713.84	89.63
714.024	89.98
714.208	89.93
714.393	90.32
714.577	90.92
714.761	90.93
714.945	90.72
715.129	90.76
715.313	90.57
715.497	90.49
715.681	90.9
715.865	90.75
716.049	91.3
716.233	91.28
716.417	91.3
716.601	91.26
716.785	91.52
716.968	91.57
717.152	92.34
717.336	92.26
717.52	92.2
717.704	92.33
717.888	92.49
718.071	92.22
718.255	92.7
718.439	92.79
718.622	92.73
718.806	92.64
718.99	92.43
719.174	92.79
719.357	93.15
719.541	93.34
719.724	93.19
719.908	93.42
720.092	93.03
720.275	92.73
720.459	92.69
720.642	93.27
720.826	93.02
721.009	93.48
721.193	93.4
721.376	93.56
721.559	92.92
721.743	93.65
721.926	93.89
722.11	94.72
722.293	95.47
722.476	95.58
722.66	95.93
722.843	95.63
723.026	95.91
723.21	95.73
723.393	96.6
723.576	96.39
723.759	96.43
723.942	95.87
724.126	95.74
724.309	95.4
724.492	95.63
724.675	96.2
724.858	96.17
725.041	96.38
725.224	96.7
725.407	96.52
725.59	96.11
725.774	96.17
725.957	95.95
726.14	95.87
726.322	95.81
726.505	96.22
726.688	96.42
726.871	96.27
727.054	96.25
727.237	96.11
727.42	95.67
727.603	95.38
727.786	95.72
727.968	95.5
728.151	96.47
728.334	96.83
728.517	97.57
728.699	98.04
728.882	98.07
729.065	97.44
729.248	97.79
729.43	97.26
729.613	97.14
729.796	98.02
729.978	97.88
730.161	97.84
730.343	98.71
730.526	98.32
730.708	97.83
730.891	98.19
731.073	98.16
731.256	98.03
731.438	99.27
731.621	100.21
731.803	100.32
731.986	100.42
732.168	100.87
732.35	100.34
732.533	99.67
732.715	99.75
732.898	99.76
733.08	99.61
733.262	99.41
733.444	99.92
733.627	99.63
733.809	100.09
733.991	100.58
734.173	100.82
734.355	100.83
734.538	101.61
734.72	101.71
734.902	101.23
735.084	101.15
735.266	101.61
735.448	101.83
735.63	102.27
735.812	102.41
735.994	102.19
736.176	101.68
736.358	101.69
736.54	101.91
736.722	101.4
736.904	101.76
737.086	101.39
737.268	101.43
737.45	100.69
737.632	101.29
737.814	101.6
737.995	101.72
738.177	101.44
738.359	101.61
738.541	101.47
738.723	101.27
738.904	101.57
739.086	101.97
739.268	102.33
739.449	102.14
739.631	102
739.813	101.64
739.994	100.92
740.176	100.89
740.358	101.62
740.539	102.35
740.721	103.36
740.902	104.21
741.084	104.16
741.265	104.19
741.447	104.58
741.628	104.28
741.81	104.85
741.991	104.47
742.172	103.96
742.354	103.5
742.535	102.97
742.717	100.93
742.898	100.45
743.079	100.86
743.261	100.95
743.442	100.57
743.623	101.73
743.804	102.55
743.986	102.47
744.167	101.9
744.348	101.39
744.529	101.5
744.71	101.33
744.891	100.61
745.073	101.08
745.254	102.82
745.435	102.78
745.616	102.49
745.797	102.5
745.978	102.55
746.159	101.89
746.34	102.71
746.521	102.63
746.702	103.64
746.883	103.47
747.064	103.7
747.245	102.21
747.426	102.19
747.606	101.28
747.787	101.29
747.968	100.15
748.149	100.14
748.33	99.66
748.51	98.7
748.691	98.29
748.872	100.57
749.053	100.25
749.233	101.68
749.414	103.49
749.595	103.86
749.775	101.51
749.956	102.2
750.137	100.43
750.317	98.81
750.498	98.82
750.678	99.7
750.859	99.99
751.04	101.01
751.22	101.54
751.4	101.47
751.581	102.53
751.761	102
751.942	103.61
752.122	102.14
752.303	102.21
752.483	100.76
752.663	100.9
752.844	98.9
753.024	101.61
753.204	101.4
753.385	102.65
753.565	102.5
753.745	102.27
753.925	99.86
754.106	99.87
754.286	98.7
754.466	97.18
754.646	96.44
754.826	98.45
755.006	97.65
755.187	98.32
755.367	99.23
755.547	100.65
755.727	100.33
755.907	100.49
756.087	98.89
756.267	99.18
756.447	99.46
756.627	99.22
756.807	100.43
756.987	101.2
757.167	101.74
757.346	101.07
757.526	100.82
757.706	99.28
757.886	99.95
758.066	100.92
758.246	100
758.425	99.27
758.605	98.12
758.785	98.3
758.965	98.86
759.144	98.34
759.324	98.48
759.504	100.66
759.683	98.17
759.863	96.6
760.043	97.57
760.222	98.85
760.402	96.99
760.581	98.51
760.761	99.47
760.94	99.09
761.12	97.5
761.299	99.24
761.479	99.43
761.658	97.44
761.838	97.75
762.017	99.4
762.197	98.31
762.376	98.93
762.555	100.12
762.735	99.49
762.914	97.68
763.093	97.67
763.273	95.72
763.452	95.15
763.631	95.69
763.81	96.47
763.99	95.4
764.169	97.13
764.348	96.72
764.527	94.85
764.706	94.52
764.885	96.17
765.064	97.67
765.243	97.08
765.423	98.51
765.602	99.71
765.781	98.54
765.96	95.98
766.139	96.42
766.318	98.83
766.497	97.58
766.676	96.74
766.854	98.23
767.033	99.12
767.212	99.08
767.391	100.33
767.57	103.73
767.749	102.16
767.928	101.73
768.106	98.63
768.285	96.88
768.464	95.97
768.643	96.15
768.821	95.65
769	95
769.179	94.66
769.357	93.44
769.536	92.48
769.715	91.87
769.893	94.31
770.072	93.02
770.25	92.55
770.429	94.58
770.607	95.49
770.786	92.9
770.964	96.31
771.143	96.74
771.321	95.47
771.5	95.96
771.678	95.46
771.857	93.11
772.035	95.22
772.213	95.31
772.392	92.44
772.57	94.07
772.748	93.61
772.927	91.82
773.105	92.71
773.283	94.7
773.461	95.38
773.64	97
773.818	96.69
773.996	96.45
774.174	95.51
774.352	93.17
774.531	90.93
774.709	90.83
774.887	87.44
775.065	88.01
775.243	89.31
775.421	89.71
775.599	91.04
775.777	92.4
775.955	91.28
776.133	91.17
776.311	92.03
776.489	89.99
776.667	90.7
776.844	90.3
777.022	90.55
777.2	89.56
777.378	89.12
777.556	89.43
777.734	91.68
777.911	90.24
778.089	93.3
778.267	95.09
778.445	96.76
778.622	95.33
778.8	92.5
778.978	90.47
779.155	90.07
779.333	89.1
779.511	88.27
779.688	90.79
779.866	90.42
780.043	90.5
780.221	91.84
780.398	92.25
780.576	94.01
780.753	92.39
780.931	92.43
781.108	93.16
781.286	92.37
781.463	92.57
781.64	93.4
781.818	94.5
781.995	90.75
782.172	92.9
782.35	91.34
782.527	92.04
782.704	90.83
782.882	88.52
783.059	88.18
783.236	88.91
783.413	89.47
783.59	88.18
783.768	90.52
783.945	89.29
784.122	90.22
784.299	90.07
784.476	89.2
784.653	87.63
784.83	87.39
785.007	83.35
785.184	83.13
785.361	85.29
785.538	85.1
785.715	89.31
785.892	91.54
786.069	90.68
786.246	88.01
786.423	88.08
786.6	83.72
786.776	84.61
786.953	82.83
787.13	85.49
787.307	86.49
787.484	83.88
787.66	82.3
787.837	84
788.014	83.9
788.191	83.89
788.367	85.16
788.544	85.23
788.721	85.49
788.897	85.77
789.074	86.76
789.25	86.22
789.427	88.57
789.603	84.74
789.78	84.52
789.956	81.64
790.133	82.37
790.309	81.1
790.486	86.55
790.662	84.89
790.839	87.69
791.015	89.89
791.192	87.64
791.368	84.87
791.544	87.5
791.721	85.69
791.897	83.3
792.073	82.47
792.249	82.25
792.426	77.3
792.602	76.78
792.778	75.74
792.954	76.57
793.13	75.92
793.307	77.4
793.483	75.33
793.659	77.77
793.835	78.91
794.011	83.57
794.187	85.07
794.363	86.53
794.539	87.35
794.715	86.11
794.891	85.18
795.067	85.79
795.243	88.22
795.419	89.58
795.595	99.3
795.771	96.27
795.947	94.06
796.122	91.49
796.298	87.23
796.474	81.14
796.65	80.47
796.826	78.49
797.001	83.95
797.177	80.16
797.353	80.05
797.529	82.4
797.704	84.84
797.88	78.82
798.056	77.56
798.231	76.75
798.407	75.41
798.582	74.88
798.758	78
798.934	83.97
799.109	84.04
799.285	83.74
799.46	86.31
799.636	83.4
799.811	82.87
799.986	81.04
800.162	73.91
800.337	76.6
800.513	76
800.688	72.63
800.863	84.19
801.039	87.79
801.214	79.07
801.389	79.42
801.565	82.71
801.74	72.09
801.915	74.6
802.09	74.99
802.265	72.14
802.441	74.65
802.616	73.85
802.791	75.25
802.966	78.3
803.141	82.86
803.316	83.66
803.491	85.42
803.666	86.75
803.841	82.22
804.016	80.52
804.191	76.25
804.366	75.77
804.541	73.04
804.716	68.32
804.891	69.15
805.066	73.82
805.241	74.54
805.416	85.94
805.591	96.58
805.765	104.62
805.94	97.37
806.115	97.76
806.29	80.86
806.464	76.17
806.639	74.81
806.814	77.25
806.989	75.28
807.163	89.68
807.338	93.36
807.512	93.74
807.687	89.86
807.862	90.76
808.036	90.93
808.211	90.57
808.385	86.68
808.56	87.9
808.734	70.51
808.909	62.17
809.083	64.32
809.258	62.52
809.432	65.26
809.606	85.46
809.781	89.6
809.955	89.49
810.13	84.63
810.304	80.76
810.478	73.26
810.652	68.35
810.827	67.54
811.001	68.31
811.175	71.15
811.349	79.09
811.524	85.85
811.698	79.56
811.872	90.44
812.046	83.53
812.22	79.32
812.394	70.66
812.568	76.6
812.742	68.61
812.916	83.22
813.09	78.31
813.264	83.56
813.438	82.12
813.612	83.48
813.786	74.55
813.96	80.96
814.134	77.54
814.308	78.93
814.482	81.41
814.656	83.29
814.83	82.88
815.003	84.86
815.177	83.4
815.351	87.34
815.525	91.38
815.698	80.37
815.872	67.8
816.046	64.21
816.219	60.87
816.393	54.38
816.567	57.56
816.74	63.83
816.914	67.99
817.088	63.26
817.261	62.92
817.435	73.04
817.608	64.99
817.782	56.76
817.955	64.12
818.129	64.33
818.302	59.66
818.475	76.06
818.649	76.64
818.822	66.51
818.996	76.5
819.169	75.75
819.342	72.48
819.516	83.8
819.689	88.55
819.862	75.58
820.035	83.95
820.209	70.96
820.382	52.26
820.555	50.2
820.728	54.33
820.901	39.69
821.075	57.79
821.248	79.53
821.421	71.72
821.594	73.67
821.767	84.17
821.94	75.68
822.113	64.87
822.286	74.69
822.459	76.87
822.632	73.53
822.805	77.71
822.978	81.36
823.151	76.41
823.324	62.93
823.496	60.21
823.669	61.06
823.842	72.77
824.015	72.33
824.188	69.63
824.361	74.91
824.533	74.39
824.706	73.03
824.879	75.23
825.051	91.21
825.224	91.43
825.397	81.51
825.569	63.3
825.742	65.81
825.915	59.27
826.087	51.35
826.26	51.06
826.432	69.17
826.605	62.98
826.777	61.99
826.95	69.85
827.122	66.24
827.295	58.85
827.467	56.81
827.64	36.01
827.812	28.86
827.984	51.04
828.157	55.17
828.329	65.3
828.501	75.14
828.674	68.45
828.846	70.01
829.018	64.38
829.19	62.11
829.363	62.06
829.535	61.96
829.707	48.43
829.879	41.22
830.051	38.07
830.223	37.67
830.395	27.8
830.568	30.91
830.74	38.05
830.912	37.52
831.084	43.07
831.256	42.55
831.428	42.2
831.6	35.97
831.772	36.41
831.943	18.39
832.115	28.48
832.287	44.72
832.459	49.76
832.631	57.6
832.803	74.98
832.975	70.81
833.146	63.3
833.318	60.55
833.49	60.98
833.662	64.95
833.833	80.7
834.005	79.71
834.177	90.62
834.348	79.49
834.52	68.58
834.692	52.29
834.863	59.12
835.035	58.52
835.206	58.89
835.378	54
835.549	59.44
835.721	56.4
835.892	53.93
836.064	59.44
836.235	60.1
836.407	61.79
836.578	54.6
836.749	34.6
836.921	18.35
837.092	13.71
837.264	17.47
837.435	14.66
837.606	33.83
837.777	50.18
837.949	68.56
838.12	61.51
838.291	75.58
838.462	79.08
838.633	69.61
838.805	54.37
838.976	51.2
839.147	40.57
839.318	41.47
839.489	37.63
839.66	66.45
839.831	76.65
840.002	68.89
840.173	67.91
840.344	68.3
840.515	44.39
840.686	35.5
840.857	35.77
841.028	28.26
841.199	30.97
841.369	17.71
841.54	15.26
841.711	27.68
841.882	70.13
842.053	57.54
842.223	75.71
842.394	73.93
842.565	63.28
842.736	33.99
842.906	22.8
843.077	21.94
843.248	23.38
843.418	27.91
843.589	27.43
843.759	41.99
843.93	37.69
844.101	26.98
844.271	40.48
844.442	48.99
844.612	49.27
844.783	54.58
844.953	47.79
845.123	44.49
845.294	61.37
845.464	69.96
845.635	68.36
845.805	104.57
845.975	94.68
846.146	82.47
846.316	64.14
846.486	79.71
846.656	66.29
846.827	41.38
846.997	36.01
847.167	44.57
847.337	37.95
847.507	33.62
847.677	46.43
847.848	48.56
848.018	50.31
848.188	41.21
848.358	51.63
848.528	57.31
848.698	45.33
848.868	36.1
849.038	34.31
849.208	42.77
849.378	45.64
849.548	43.6
849.718	52.7
849.887	85.22
850.057	44.46
850.227	40.33
850.397	27.88
850.567	7.63
850.737	14.13
850.906	-7.01
851.076	-15.44
851.246	-6.44
851.415	27.5
851.585	23.37
851.755	31.36
851.924	49.69
852.094	66.29
852.264	44.52
852.433	8.31
852.603	11.48
852.772	24.63
852.942	37.24
853.111	23.23
853.281	64.44
853.45	49.08
853.62	40.52
853.789	6.43
853.959	21.87
854.128	10.05
854.297	28.48
854.467	23.41
854.636	37.65
854.805	41.98
854.975	27.37
855.144	26.15
855.313	60.5
855.482	47.83
855.652	48.06
855.821	53.68
855.99	50.42
856.159	44.93
856.328	48.13
856.497	37.13
856.667	38.76
856.836	46.26
857.005	10.71
857.174	5.68
857.343	-16.88
857.512	-10.17
857.681	-37.56
857.85	-32.38
858.019	-46.92
858.188	-17.35
858.356	-2.55
858.525	13.2
858.694	29.52
858.863	26.67
859.032	22.7
859.201	5.88
859.369	25.15
859.538	39.08
859.707	47.74
859.876	57.5
860.044	78.12
860.213	80.62
860.382	87.07
860.55	68.94
860.719	66.59
860.888	37.72
861.056	2.85
861.225	-42.22
861.393	-16.2
861.562	-14.73
861.73	-6.22
861.899	-12.27
862.067	3.34
862.236	5.21
862.404	9.53
862.572	40.07
862.741	22.42
862.909	31.16
863.078	25.7
863.246	-8.1
863.414	-6.88
863.582	25.76
863.751	23.59
863.919	22.21
864.087	39.88
864.255	43.12
864.424	-11.16
864.592	10.78
864.76	1.88
864.928	24.26
865.096	23.83
865.264	14.94
865.432	-11.66
865.6	-8.99
865.768	-76.52
865.936	-88.69
866.104	-75.73
866.272	-127.61
866.44	-84.03
866.608	-37.29
866.776	-17.56
866.944	20.76
867.112	32.5
867.28	41.04
867.448	41.71
867.615	32.61
867.783	13.53
867.951	-1.07
868.119	-3.23
868.286	-7.75
868.454	19.32
868.622	7.4
868.789	23.75
868.957	10.61
869.125	15.25
869.292	-32.02
869.46	7.51
869.627	16.97
869.795	-22.66
869.963	10.37
870.13	8.65
870.298	-8.88
870.465	-20.63
870.632	0.15
870.8	-10.32
870.967	0.43
871.135	-4.51
871.302	-5.63
871.469	30.24
871.637	39.54
871.804	50.13
871.971	34.42
872.139	32.46
872.306	-31.84
872.473	-88.87
872.64	-228.43
872.807	-250.28
872.975	-465.96
873.142	-90.16
873.309	-42.04
873.476	20.37
873.643	54.87
873.81	30.22
873.977	-4.33
874.144	32.46
874.311	-6.81
874.478	-6.33
874.645	-24.46
874.812	41.93
874.979	43.69
875.146	41.34
875.313	52.87
875.48	75.87
875.647	41.96
875.813	-10.21
875.98	-20.57
876.147	-143.09
876.314	-88.74
876.481	-7.57
876.647	38.56
876.814	30
876.981	61.83
877.147	36.26
877.314	5.97
877.481	-0.18
877.647	7.34
877.814	-19.16
877.98	8.69
878.147	35.66
878.314	43.63
878.48	53.81
878.647	60.81
878.813	75.03
878.979	54.45
879.146	48.01
879.312	66.4
879.479	27.15
879.645	18.24
879.811	-6.06
879.978	11.49
880.144	8.62
880.31	25.33
880.477	41.53
880.643	49.13
880.809	6.34
880.975	-7.81
881.142	-38.79
881.308	327.19
881.474	376.66
881.64	55.06
881.806	26.97
881.972	39.41
882.138	62.61
882.304	81.54
882.47	44.37
882.636	10.15
882.802	-20.68
882.968	-64.11
883.134	-55.35
883.3	-43.65
883.466	30.05
883.632	67.95
883.798	63.39
883.964	129.8
884.129	568.12
884.295	66.4
884.461	-13.09
884.627	-16.14
884.793	-38.32
884.958	-13.33
885.124	-54.7
885.29	-52.84
885.455	-61.21
885.621	-39.74
885.787	-20.83
885.952	37.11
886.118	31.12
886.283	43.67
886.449	42.65
886.614	53.28
886.78	30.82
886.945	50.65
887.111	13.28
887.276	-8.91
887.442	-72.48
887.607	-51.43
887.773	-18.52
887.938	-18.47
888.103	-9.24
888.269	20.63
888.434	6.81
888.599	-0.36
888.764	20.64
888.93	43.48
889.095	27.87
889.26	31.92
889.425	44.24
889.59	62.65
889.756	-11.06
889.921	-41.91
890.086	-77.65
890.251	-69.29
890.416	-45.87
890.581	-53.3
890.746	4.84
890.911	21.97
891.076	6.56
891.241	2.69
891.406	18.26
891.571	103.33
891.736	77.56
891.901	51.34
892.065	41.86
892.23	27.36
892.395	-26.05
892.56	-28.06
892.725	18.07
892.889	106.27
893.054	142.64
893.219	70.42
893.384	67.72
893.548	-39.58
893.713	-94.37
893.878	-271.75
