Data from Ofra_PS_T2_2A_2GT38_Reflection_2.txt Node
Date: Wed Jul 21 17:04:08 EDT 2021
User: Adam
Spectrometer: FLMT01687
Trigger mode: 0
Integration Time (sec): 1.100000E0
Scans to average: 2
Electric dark correction enabled: true
Nonlinearity correction enabled: false
Boxcar width: 2
XAxis mode: Wavelengths
Number of Pixels in Spectrum: 3648
>>>>>Begin Spectral Data<<<<<
179.494	541
179.716	589.18
179.937	549.85
180.158	532.56
180.38	896.41
180.601	368.09
180.823	157.35
181.044	65.52
181.265	220.77
181.486	33.04
181.708	61.72
181.929	141.33
182.15	75.7
182.372	147.89
182.593	63.68
182.814	19.58
183.035	66.22
183.257	43.94
183.478	-24.95
183.699	13.45
183.92	52.65
184.141	36.84
184.363	-29.31
184.584	43.7
184.805	39.09
185.026	50.98
185.247	39.53
185.468	32.64
185.689	6.85
185.91	14.13
186.132	-0.85
186.353	8.04
186.574	74.21
186.795	60.5
187.016	36.38
187.237	16.8
187.458	17.47
187.679	4.59
187.9	33.88
188.121	33.62
188.342	40.51
188.563	42.68
188.784	50.76
189.005	32.35
189.226	74.22
189.447	121.69
189.667	202.31
189.888	60.47
190.109	221.75
190.33	-44.68
190.551	-371.9
190.772	-65.44
190.993	-48.03
191.214	-40.01
191.434	-16.5
191.655	19.11
191.876	-36.28
192.097	-86.58
192.318	-137.76
192.538	-267.52
192.759	-165.21
192.98	-19.4
193.201	14.15
193.421	13.02
193.642	36.01
193.863	43.44
194.083	19.49
194.304	12.81
194.525	-0.22
194.745	-23.1
194.966	-48.12
195.187	-48.56
195.407	-68.23
195.628	-58.53
195.848	-77.37
196.069	-49.47
196.29	-0.44
196.51	-6.7
196.731	5.39
196.951	18.24
197.172	-18
197.392	-77.86
197.613	-97.89
197.833	-165.8
198.054	-151.81
198.274	-97.47
198.495	-100.35
198.715	-53.84
198.936	-55.17
199.156	-27.78
199.377	-84.23
199.597	-98.44
199.817	-132.94
200.038	-59.62
200.258	-108.11
200.479	-28.59
200.699	2.61
200.919	60.66
201.14	24.91
201.36	-17.29
201.58	18.52
201.801	37.72
202.021	15.93
202.241	14.02
202.461	25.05
202.682	-105.12
202.902	-150.43
203.122	-95.11
203.342	-69.16
203.563	-32.51
203.783	19.3
204.003	-6.68
204.223	-14.74
204.443	48.86
204.663	40.41
204.884	55.98
205.104	84.84
205.324	90.61
205.544	60.48
205.764	76.31
205.984	65.43
206.204	64.35
206.424	50.76
206.644	25.94
206.864	17.67
207.084	-17.84
207.304	-1.54
207.525	-74.14
207.745	-64.21
207.964	-29.7
208.184	-63.96
208.404	-115.88
208.624	-98.43
208.844	-87.06
209.064	-334.62
209.284	-315.61
209.504	-123.31
209.724	-33.5
209.944	-22.82
210.164	7.48
210.384	7.28
210.604	6.02
210.823	-23.54
211.043	-14.21
211.263	-26.88
211.483	-26.94
211.703	-64.69
211.922	-51.17
212.142	-16.54
212.362	21.38
212.582	15.43
212.801	21.15
213.021	12.6
213.241	-0.02
213.461	-44.09
213.68	-63.62
213.9	-41.59
214.12	-38.36
214.339	-83.63
214.559	-43.28
214.779	9.32
214.998	3.12
215.218	-8.34
215.438	4.49
215.657	-22.48
215.877	-36.09
216.096	-0.68
216.316	8.41
216.535	-13.85
216.755	1.57
216.974	-38.35
217.194	-105.98
217.413	-84.31
217.633	-45.62
217.852	-145.73
218.072	-48.88
218.291	-23.67
218.511	13.45
218.73	-30.83
218.95	-8.13
219.169	-17.73
219.389	-41.39
219.608	-49.47
219.827	-22.85
220.047	-15.09
220.266	-2.54
220.485	14.98
220.705	39.4
220.924	28.24
221.143	53.63
221.363	31.22
221.582	29.08
221.801	32.99
222.021	45.53
222.24	-47.8
222.459	-4.69
222.678	-40.81
222.897	-105.89
223.117	-165.12
223.336	-103.05
223.555	-50.99
223.774	-0.03
223.993	20.23
224.213	72.27
224.432	53.36
224.651	63.94
224.87	30.49
225.089	40.56
225.308	22.24
225.527	41.61
225.746	33.22
225.965	37.06
226.184	-10.81
226.404	21.99
226.623	-19.91
226.842	-13.87
227.061	16.39
227.28	34.79
227.499	27.21
227.718	64.03
227.936	62.61
228.155	54.35
228.374	46.74
228.593	47.73
228.812	28.98
229.031	20.04
229.25	-15.61
229.469	-17.29
229.688	-30.39
229.907	2.04
230.125	12.89
230.344	39.76
230.563	45.94
230.782	58.26
231.001	7.56
231.22	30.07
231.438	25.56
231.657	30.64
231.876	31.74
232.095	57.96
232.313	45.76
232.532	39.51
232.751	24.15
232.969	-0.62
233.188	-32.6
233.407	22.3
233.625	22.17
233.844	9.75
234.063	18.57
234.281	32.84
234.5	14.91
234.719	18.71
234.937	33.68
235.156	33.51
235.374	32.93
235.593	37.51
235.811	40.01
236.03	28.32
236.249	4.49
236.467	-0.31
236.686	16.3
236.904	28.99
237.123	8.83
237.341	9.8
237.559	9.34
237.778	-12.01
237.996	-49.44
238.215	-4.41
238.433	8.6
238.652	8.13
238.87	-9.96
239.088	-6.36
239.307	0.36
239.525	-17.12
239.743	-50.81
239.962	-37
240.18	-25.1
240.398	-69.95
240.617	-78.18
240.835	-43.51
241.053	-15.47
241.271	4.8
241.49	10.64
241.708	24.84
241.926	34.63
242.144	5.7
242.363	-12.64
242.581	-9.7
242.799	-4.62
243.017	1.99
243.235	-11.66
243.453	-13.9
243.672	-7.93
243.89	-3.83
244.108	-18.96
244.326	8.38
244.544	9.72
244.762	1.08
244.98	10.67
245.198	24.9
245.416	-10.59
245.634	-8.56
245.852	-12.5
246.07	-38.16
246.288	-16.86
246.506	-34.75
246.724	-18.84
246.942	-26.54
247.16	1.97
247.378	5.1
247.596	30.63
247.814	20.48
248.032	17
248.25	36.72
248.468	23.02
248.685	26.51
248.903	55.39
249.121	60.76
249.339	37.79
249.557	18.92
249.775	19.41
249.992	-64.21
250.21	-59.55
250.428	-53.79
250.646	-63.1
250.863	-61.37
251.081	-7.62
251.299	-7.34
251.517	5.04
251.734	8
251.952	-5.35
252.17	-17.52
252.387	9.46
252.605	3.41
252.823	11.93
253.04	36.38
253.258	64.26
253.475	44.01
253.693	64.8
253.911	63.79
254.128	62.89
254.346	46.1
254.563	37.07
254.781	7.49
254.998	-17.15
255.216	-31.46
255.433	-20.18
255.651	24.3
255.868	36.69
256.086	60.86
256.303	24.6
256.521	30.73
256.738	6.72
256.956	-12.48
257.173	-33.23
257.39	-36.04
257.608	-53.3
257.825	-20.26
258.043	-1.46
258.26	10.92
258.477	57.54
258.695	49.53
258.912	5.28
259.129	16.66
259.346	-23.44
259.564	-79.84
259.781	-76.47
259.998	-14.38
260.216	12.38
260.433	53.11
260.65	63.7
260.867	51.24
261.084	20.59
261.302	-12.11
261.519	-24.65
261.736	-46.98
261.953	-62.95
262.17	-5.22
262.387	-29.65
262.604	-58.73
262.822	-67.87
263.039	-44.91
263.256	-115.24
263.473	-56.78
263.69	-36.12
263.907	3.08
264.124	8.69
264.341	14.41
264.558	8.36
264.775	29.46
264.992	23.17
265.209	24.66
265.426	39.32
265.643	37.55
265.86	43.51
266.077	49.82
266.294	19.61
266.51	-8.36
266.727	-30.96
266.944	-24.8
267.161	-44.26
267.378	-17.39
267.595	13.02
267.812	3.77
268.028	-34.29
268.245	1.01
268.462	-12.35
268.679	-30.6
268.896	25.04
269.112	36.88
269.329	29.06
269.546	24.46
269.763	19.62
269.979	-1.9
270.196	-5.13
270.413	-26.81
270.629	-42.45
270.846	-48
271.063	-50.05
271.279	-75.53
271.496	-60.1
271.712	-14.11
271.929	8.07
272.146	6.9
272.362	24.52
272.579	48.15
272.795	51.49
273.012	42.44
273.228	53.64
273.445	52.73
273.661	30.82
273.878	-24.91
274.094	-16.89
274.311	-40.36
274.527	4.23
274.744	0.17
274.96	4.16
275.177	7.42
275.393	11.63
275.609	4.64
275.826	39.21
276.042	45.05
276.259	24.31
276.475	39.62
276.691	32.65
276.908	8.74
277.124	18.57
277.34	35.29
277.557	35.24
277.773	37.13
277.989	29.85
278.205	18.58
278.422	32.09
278.638	30.82
278.854	31.68
279.07	34.9
279.286	19.15
279.503	-22.59
279.719	-20.49
279.935	-45.28
280.151	-62.17
280.367	-22.42
280.583	-36
280.799	-38.26
281.016	-55.73
281.232	-12.36
281.448	-23.38
281.664	15.97
281.88	-8.06
282.096	16.97
282.312	31.61
282.528	59.63
282.744	52.34
282.96	55.53
283.176	37.03
283.392	36.23
283.608	22.24
283.824	6.77
284.04	14.47
284.256	28.08
284.471	5.96
284.687	10.74
284.903	50.58
285.119	72.92
285.335	40.78
285.551	58.51
285.767	23.92
285.982	-3.26
286.198	-50.18
286.414	2.41
286.63	11.64
286.846	39.05
287.061	18.21
287.277	44.66
287.493	16.01
287.709	29.63
287.924	13.35
288.14	51.73
288.356	47.46
288.571	65.96
288.787	36.52
289.003	47.81
289.218	28.11
289.434	-11.65
289.65	-14.13
289.865	-20.19
290.081	-12.16
290.296	-3.24
290.512	15.21
290.727	-18.16
290.943	-10.73
291.159	-24.23
291.374	-26.7
291.59	-41.07
291.805	-2.13
292.021	2.35
292.236	-4.66
292.451	20.99
292.667	30.46
292.882	39.18
293.098	47.67
293.313	48.28
293.529	13.51
293.744	-14.12
293.959	-35.13
294.175	-35.07
294.39	-8.33
294.605	6.4
294.821	26.63
295.036	29.26
295.251	39.74
295.467	30.03
295.682	8.52
295.897	-33.53
296.112	-45.21
296.328	-67.63
296.543	-92.71
296.758	-63.54
296.973	-10.57
297.188	25.17
297.404	17.5
297.619	25.49
297.834	9.02
298.049	0.82
298.264	-34.08
298.479	5.25
298.694	12.86
298.909	24.48
299.125	31.92
299.34	50.09
299.555	45.02
299.77	65.4
299.985	15.32
300.2	-32.65
300.415	-48.48
300.63	-21.39
300.845	-34.62
301.06	-31.16
301.275	-6.3
301.49	7.22
301.704	-13.96
301.919	-40.35
302.134	-36.19
302.349	-28.93
302.564	-88.51
302.779	-123.99
302.994	-75.27
303.209	-34.02
303.423	-14.53
303.638	32.55
303.853	22.35
304.068	7.21
304.283	10.57
304.497	-1.03
304.712	-16.63
304.927	-9.77
305.142	-15.97
305.356	-21.08
305.571	-10.21
305.786	-16.97
306	-31.63
306.215	-4.23
306.43	-27.91
306.644	-28.75
306.859	37.13
307.074	37.05
307.288	-3.1
307.503	15.81
307.717	-9.51
307.932	-31.06
308.147	-28.93
308.361	-2
308.576	2.13
308.79	-18.78
309.005	-4.29
309.219	11.1
309.434	-5.22
309.648	-22.09
309.863	-7.56
310.077	-4.42
310.292	-7.77
310.506	2.23
310.72	17.89
310.935	34.19
311.149	23.58
311.364	29.39
311.578	35.81
311.792	25.78
312.007	31.82
312.221	24.28
312.435	38.37
312.649	21.47
312.864	71.06
313.078	81.76
313.292	141.59
313.507	102.98
313.721	142.84
313.935	66.82
314.149	57.3
314.363	42.33
314.578	49.39
314.792	44.18
315.006	11.22
315.22	15.77
315.434	18.75
315.648	19.97
315.862	22.9
316.077	43.25
316.291	26.33
316.505	17.18
316.719	11.67
316.933	-15
317.147	-27.22
317.361	-45.87
317.575	-65.01
317.789	-98.15
318.003	-158.25
318.217	-116.38
318.431	-35.32
318.645	-5.83
318.859	1.22
319.073	28.31
319.287	3.81
319.5	-20.35
319.714	-58.16
319.928	-69.78
320.142	-88.57
320.356	-25.11
320.57	-5.48
320.784	-3.45
320.997	-4.46
321.211	10.32
321.425	-52.23
321.639	-54.66
321.853	7.92
322.066	9.78
322.28	-2.97
322.494	17.54
322.707	15.54
322.921	-2.63
323.135	-1.11
323.349	18.58
323.562	4.57
323.776	-6.3
323.989	-6.12
324.203	-14.09
324.417	-37.36
324.63	-33.23
324.844	-39.24
325.057	-20.95
325.271	-10.88
325.485	9.02
325.698	23.23
325.912	34.19
326.125	2.06
326.339	9.37
326.552	-9.35
326.766	-4.71
326.979	4.82
327.193	38
327.406	21.97
327.619	17.75
327.833	17.27
328.046	-1.25
328.26	-34.07
328.473	-5.6
328.686	-29.57
328.9	-19.21
329.113	-5.62
329.326	-19.14
329.54	-23.38
329.753	-7.57
329.966	-58.63
330.179	-53.88
330.393	-27.91
330.606	-25.81
330.819	-14
331.032	20.46
331.246	31.95
331.459	52.07
331.672	46.02
331.885	46.06
332.098	15.5
332.311	-3.82
332.525	-54.52
332.738	-43.04
332.951	-21.6
333.164	14.2
333.377	27.94
333.59	42.05
333.803	43.66
334.016	30.85
334.229	14.44
334.442	16.69
334.655	36.33
334.868	47.04
335.081	34.8
335.294	29.77
335.507	19.53
335.72	19.5
335.933	1.01
336.146	11.4
336.359	12.79
336.572	-6.73
336.785	-42.93
336.997	-21.97
337.21	-1.69
337.423	-12.74
337.636	-3.88
337.849	25.71
338.062	16.79
338.274	12.08
338.487	18.01
338.7	22.53
338.913	-38.3
339.125	-67.52
339.338	-110.86
339.551	-111.15
339.763	-66.74
339.976	-5.78
340.189	16.76
340.402	19.16
340.614	29.88
340.827	13.25
341.039	-3.03
341.252	-2.26
341.465	16.3
341.677	10.34
341.89	-26.24
342.102	-5.05
342.315	-16.85
342.527	-56.2
342.74	-36.57
342.952	-8.76
343.165	-6.61
343.377	27.6
343.59	29.61
343.802	28.53
344.015	39.32
344.227	30.86
344.44	10.67
344.652	20.18
344.864	16.23
345.077	33.71
345.289	33.78
345.502	36.04
345.714	22.3
345.926	25.8
346.139	5.24
346.351	13.41
346.563	17.25
346.775	27.69
346.988	22.27
347.2	16.43
347.412	-25.96
347.624	-34.19
347.837	-43.75
348.049	-26.64
348.261	11.88
348.473	24.21
348.685	6.54
348.897	6.1
349.11	-11.49
349.322	-57.67
349.534	-56.03
349.746	-28.27
349.958	-28.93
350.17	-24.47
350.382	7.43
350.594	25.65
350.806	14.93
351.018	24.62
351.23	17.13
351.442	-28.44
351.654	-42.26
351.866	-32.12
352.078	-37.67
352.29	-17.18
352.502	7.3
352.714	5.11
352.926	1.08
353.138	-0.88
353.35	-10.84
353.561	-13.23
353.773	-23.07
353.985	-14.77
354.197	-29.68
354.409	-32.33
354.621	-34.47
354.832	-13.07
355.044	-23.14
355.256	-16.16
355.468	1.09
355.679	-3.8
355.891	-8.12
356.103	-7.1
356.314	6.04
356.526	1.25
356.738	16.6
356.949	5.64
357.161	20.42
357.373	13.36
357.584	18.15
357.796	18.37
358.008	19.92
358.219	27.16
358.431	21.02
358.642	16.28
358.854	11.4
359.065	-1.91
359.277	-44.84
359.488	-38.39
359.7	-46.42
359.911	-48.07
360.123	-26.47
360.334	-16.04
360.546	-34.45
360.757	-26.91
360.969	-19.05
361.18	-2.14
361.391	0.37
361.603	-3.25
361.814	-11.95
362.025	-14.77
362.237	-12.97
362.448	7.34
362.659	30.17
362.871	31.55
363.082	33.91
363.293	18.92
363.504	2.16
363.716	-20.98
363.927	-26.09
364.138	-48.5
364.349	-44.9
364.56	-34.16
364.772	-29.75
364.983	-7.61
365.194	0.24
365.405	10.32
365.616	21.04
365.827	24.9
366.038	-5.65
366.25	-13.35
366.461	-38
366.672	-27.5
366.883	-11.84
367.094	6.86
367.305	4.95
367.516	9.14
367.727	-18.35
367.938	-26.21
368.149	-30.07
368.36	-4.68
368.571	4.41
368.781	2.21
368.992	-7.65
369.203	-25.1
369.414	-55.04
369.625	-68.69
369.836	-45.22
370.047	-74.27
370.258	-56.17
370.468	-50.04
370.679	-60.84
370.89	-63.22
371.101	-23.49
371.312	-18.41
371.522	-11.84
371.733	-1.11
371.944	13.52
372.155	9.46
372.365	5.42
372.576	8.01
372.787	11.87
372.997	-1.71
373.208	-8.42
373.419	21.69
373.629	-19.87
373.84	-37.53
374.05	-51.57
374.261	-38.21
374.472	-69.73
374.682	1.06
374.893	14.05
375.103	39.27
375.314	32.06
375.524	28.56
375.735	26.29
375.945	27.33
376.156	0.94
376.366	4.23
376.577	9.35
376.787	-3.5
376.997	-1.65
377.208	8.19
377.418	-1.52
377.629	2.59
377.839	1.62
378.049	-1.14
378.26	11.46
378.47	13.82
378.68	8.71
378.89	3.45
379.101	-3.41
379.311	-35.74
379.521	-61.36
379.732	-66.61
379.942	-56.3
380.152	-64.06
380.362	-29.82
380.572	-17.13
380.783	-2.41
380.993	8.51
381.203	22.34
381.413	37.68
381.623	40.9
381.833	44.5
382.043	29.12
382.253	22.11
382.463	10.52
382.674	2.8
382.884	-24.34
383.094	-21.73
383.304	-15.43
383.514	-5.88
383.724	1.79
383.934	1.22
384.144	-7.47
384.353	-12.39
384.563	-17.11
384.773	-9.71
384.983	-18.15
385.193	0.07
385.403	2.3
385.613	1.13
385.823	-8.02
386.033	3.76
386.242	-2.33
386.452	-5.84
386.662	-9.1
386.872	3.54
387.082	1.64
387.291	-5.36
387.501	5.39
387.711	5.33
387.921	-2.97
388.13	-1.2
388.34	11.08
388.55	0.66
388.759	2.25
388.969	7.99
389.179	5.93
389.388	2.22
389.598	9.61
389.807	4.24
390.017	-1.5
390.227	1.53
390.436	-0
390.646	1.3
390.855	5.31
391.065	7.09
391.274	1.54
391.484	0.82
391.693	-0.2
391.903	-1.33
392.112	2.89
392.322	6.73
392.531	10.51
392.74	11.32
392.95	9.87
393.159	8.14
393.369	8.03
393.578	6.78
393.787	6.55
393.997	8.88
394.206	7.66
394.415	9.26
394.625	9.65
394.834	8.19
395.043	8.39
395.252	10.63
395.462	11.16
395.671	12.85
395.88	13.61
396.089	13.58
396.298	12.11
396.508	12.09
396.717	10.77
396.926	11.37
397.135	11.17
397.344	11.09
397.553	11.41
397.762	12.86
397.971	12.91
398.181	12.94
398.39	13.21
398.599	12.83
398.808	12.34
399.017	13.12
399.226	14.42
399.435	15.51
399.644	15.83
399.853	15.59
400.062	15.02
400.27	14.45
400.479	13.96
400.688	13.21
400.897	12.89
401.106	13.05
401.315	12.82
401.524	12.98
401.733	13.34
401.941	13.91
402.15	13.77
402.359	13.77
402.568	13.7
402.777	13.82
402.985	13.59
403.194	13.59
403.403	13.68
403.612	13.49
403.82	13.28
404.029	13.33
404.238	13.16
404.446	13.39
404.655	12.98
404.864	13.05
405.072	12.85
405.281	12.88
405.489	12.4
405.698	12.58
405.906	12.63
406.115	12.61
406.324	12.54
406.532	12.75
406.741	12.9
406.949	12.83
407.158	12.9
407.366	12.88
407.574	12.79
407.783	12.74
407.991	12.45
408.2	12.48
408.408	12.53
408.617	12.42
408.825	12.37
409.033	12.56
409.242	12.64
409.45	12.56
409.658	12.42
409.867	12.29
410.075	12.19
410.283	11.91
410.491	11.81
410.7	11.81
410.908	11.85
411.116	12.09
411.324	12.02
411.533	12.01
411.741	12.24
411.949	12.23
412.157	11.87
412.365	11.89
412.573	11.82
412.781	11.67
412.99	11.6
413.198	11.77
413.406	11.74
413.614	11.8
413.822	11.67
414.03	11.53
414.238	11.29
414.446	11.32
414.654	11.1
414.862	11.21
415.07	11.41
415.278	11.54
415.486	11.34
415.694	11.54
415.902	11.33
416.109	11.13
416.317	11.12
416.525	11.05
416.733	10.96
416.941	11.06
417.149	11.04
417.357	11.11
417.564	11.31
417.772	11.62
417.98	11.61
418.188	11.47
418.395	11.35
418.603	11.39
418.811	10.86
419.019	10.82
419.226	10.96
419.434	11
419.642	10.77
419.849	10.95
420.057	10.9
420.265	10.83
420.472	10.64
420.68	10.58
420.887	10.51
421.095	10.53
421.302	10.58
421.51	10.67
421.717	10.83
421.925	10.81
422.132	10.71
422.34	10.36
422.547	10.31
422.755	10.25
422.962	10.15
423.17	9.97
423.377	10.33
423.585	10.2
423.792	10.11
423.999	10.2
424.207	10.34
424.414	10.26
424.621	10.27
424.829	10.2
425.036	10.08
425.243	10.18
425.451	9.99
425.658	9.98
425.865	10.14
426.072	10.22
426.28	10.35
426.487	10.46
426.694	10.59
426.901	10.47
427.108	10.41
427.315	10.22
427.523	10.43
427.73	10.41
427.937	10.33
428.144	10.3
428.351	10.14
428.558	10.1
428.765	10.02
428.972	9.99
429.179	10.11
429.386	10.49
429.593	10.31
429.8	10.25
430.007	10.48
430.214	10.46
430.421	10.35
430.628	10.2
430.835	10.24
431.042	10.4
431.249	10.58
431.456	10.56
431.662	10.83
431.869	10.94
432.076	10.83
432.283	10.82
432.49	10.82
432.697	10.91
432.903	10.72
433.11	10.64
433.317	10.77
433.524	11.04
433.73	11.01
433.937	11.3
434.144	11.33
434.35	11.21
434.557	10.95
434.764	10.95
434.97	10.91
435.177	11.18
435.384	11.22
435.59	11.32
435.797	11.49
436.003	11.55
436.21	11.47
436.416	11.51
436.623	11.56
436.829	11.52
437.036	11.67
437.242	11.77
437.449	11.81
437.655	11.91
437.862	11.99
438.068	11.95
438.275	12.08
438.481	12.22
438.687	12.17
438.894	12.19
439.1	12.19
439.307	12.17
439.513	11.98
439.719	12.05
439.926	12.17
440.132	12.18
440.338	12.04
440.544	12.23
440.751	12.17
440.957	12.09
441.163	12.01
441.369	12.18
441.575	12
441.782	12.02
441.988	11.99
442.194	12.08
442.4	12.07
442.606	12.34
442.812	12.37
443.018	12.43
443.224	12.46
443.431	12.57
443.637	12.48
443.843	12.5
444.049	12.59
444.255	12.61
444.461	12.63
444.667	12.55
444.873	12.75
445.079	12.77
445.284	12.81
445.49	12.61
445.696	12.63
445.902	12.53
446.108	12.46
446.314	12.44
446.52	12.59
446.726	12.87
446.931	12.91
447.137	12.92
447.343	12.98
447.549	12.86
447.755	12.72
447.96	12.84
448.166	12.82
448.372	12.82
448.578	12.99
448.783	13.02
448.989	13.03
449.195	13.24
449.4	13.27
449.606	13.23
449.812	13.04
450.017	12.96
450.223	12.76
450.428	12.68
450.634	12.75
450.84	12.97
451.045	12.95
451.251	12.95
451.456	13.15
451.662	13.23
451.867	13.26
452.073	13.26
452.278	13.36
452.483	13.46
452.689	13.37
452.894	13.42
453.1	13.46
453.305	13.45
453.51	13.37
453.716	13.44
453.921	13.43
454.127	13.3
454.332	13.17
454.537	13.14
454.742	13.03
454.948	12.93
455.153	13.18
455.358	13.35
455.563	13.42
455.769	13.53
455.974	13.62
456.179	13.37
456.384	13.38
456.589	13.36
456.795	13.26
457	13.21
457.205	13.44
457.41	13.36
457.615	13.36
457.82	13.41
458.025	13.45
458.23	13.42
458.435	13.49
458.64	13.35
458.845	13.47
459.05	13.43
459.255	13.37
459.46	13.39
459.665	13.38
459.87	13.33
460.075	13.36
460.28	13.36
460.485	13.39
460.69	13.48
460.895	13.41
461.099	13.39
461.304	13.46
461.509	13.49
461.714	13.45
461.919	13.63
462.123	13.6
462.328	13.67
462.533	13.61
462.738	13.77
462.942	13.6
463.147	13.75
463.352	13.8
463.556	13.82
463.761	13.7
463.966	13.77
464.17	13.69
464.375	13.64
464.58	13.62
464.784	13.75
464.989	13.67
465.193	13.67
465.398	13.65
465.602	13.84
465.807	13.83
466.011	13.94
466.216	14.1
466.42	14.17
466.625	14.24
466.829	14.24
467.034	14.39
467.238	14.49
467.443	14.48
467.647	14.27
467.851	14.34
468.056	14.29
468.26	14.17
468.464	14.19
468.669	14.46
468.873	14.62
469.077	14.63
469.282	14.7
469.486	14.71
469.69	14.58
469.894	14.4
470.099	14.48
470.303	14.58
470.507	14.59
470.711	14.54
470.915	14.52
471.119	14.47
471.324	14.39
471.528	14.38
471.732	14.48
471.936	14.6
472.14	14.65
472.344	14.71
472.548	14.8
472.752	14.95
472.956	15.22
473.16	15.18
473.364	15.17
473.568	15.2
473.772	15.26
473.976	15.09
474.18	15.14
474.384	15.18
474.588	15.22
474.792	15.1
474.995	15.12
475.199	15.22
475.403	15.32
475.607	15.36
475.811	15.39
476.015	15.45
476.218	15.46
476.422	15.41
476.626	15.49
476.83	15.62
477.033	15.55
477.237	15.52
477.441	15.54
477.644	15.49
477.848	15.43
478.052	15.51
478.255	15.56
478.459	15.68
478.663	15.81
478.866	15.87
479.07	15.88
479.273	16.07
479.477	16.11
479.681	16.08
479.884	16.12
480.088	16.06
480.291	16.02
480.495	15.96
480.698	15.94
480.901	15.94
481.105	16.05
481.308	16.02
481.512	16.05
481.715	16.15
481.919	16.22
482.122	16.21
482.325	16.28
482.529	16.31
482.732	16.28
482.935	16.16
483.138	16.18
483.342	16.21
483.545	16.34
483.748	16.42
483.952	16.58
484.155	16.76
484.358	16.83
484.561	16.75
484.764	16.68
484.967	16.73
485.171	16.76
485.374	16.6
485.577	16.7
485.78	16.74
485.983	16.68
486.186	16.54
486.389	16.56
486.592	16.5
486.795	16.53
486.998	16.49
487.201	16.53
487.404	16.66
487.607	16.78
487.81	16.77
488.013	16.89
488.216	16.92
488.419	16.85
488.622	16.8
488.825	16.78
489.028	16.71
489.231	16.7
489.433	16.71
489.636	16.7
489.839	16.71
490.042	16.67
490.245	16.58
490.447	16.65
490.65	16.65
490.853	16.7
491.056	16.82
491.258	16.97
491.461	17
491.664	17.04
491.866	17.05
492.069	17.1
492.272	17.03
492.474	17.09
492.677	17.12
492.879	17.17
493.082	17.18
493.285	17.33
493.487	17.26
493.69	17.26
493.892	17.21
494.095	17.26
494.297	17.21
494.5	17.3
494.702	17.25
494.905	17.28
495.107	17.25
495.309	17.32
495.512	17.35
495.714	17.38
495.917	17.45
496.119	17.45
496.321	17.51
496.524	17.5
496.726	17.55
496.928	17.53
497.13	17.53
497.333	17.48
497.535	17.47
497.737	17.5
497.939	17.52
498.142	17.62
498.344	17.59
498.546	17.59
498.748	17.66
498.95	17.76
499.152	17.76
499.355	17.86
499.557	17.99
499.759	18.02
499.961	18.08
500.163	18.12
500.365	18.13
500.567	18.22
500.769	18.17
500.971	18.13
501.173	18.1
501.375	18.13
501.577	18.04
501.779	18.11
501.981	18.14
502.183	18.16
502.385	18.14
502.587	18.09
502.788	18.11
502.99	18.12
503.192	18.25
503.394	18.3
503.596	18.34
503.798	18.48
503.999	18.6
504.201	18.57
504.403	18.68
504.605	18.87
504.806	18.75
505.008	18.75
505.21	18.85
505.411	18.83
505.613	18.79
505.815	18.88
506.016	18.99
506.218	19.06
506.42	19.06
506.621	19.12
506.823	19.21
507.024	19.1
507.226	19.07
507.427	19.11
507.629	19.2
507.83	19.23
508.032	19.37
508.233	19.44
508.435	19.51
508.636	19.48
508.838	19.5
509.039	19.49
509.24	19.58
509.442	19.67
509.643	19.64
509.845	19.65
510.046	19.67
510.247	19.6
510.448	19.62
510.65	19.7
510.851	19.85
511.052	19.83
511.254	19.91
511.455	19.97
511.656	20.06
511.857	20
512.058	20
512.26	20.04
512.461	20.04
512.662	20.06
512.863	20.05
513.064	20.18
513.265	20.2
513.466	20.27
513.667	20.28
513.868	20.36
514.069	20.46
514.27	20.55
514.471	20.48
514.672	20.48
514.873	20.49
515.074	20.48
515.275	20.4
515.476	20.46
515.677	20.58
515.878	20.7
516.079	20.64
516.28	20.71
516.481	20.77
516.682	20.7
516.882	20.63
517.083	20.7
517.284	20.73
517.485	20.73
517.686	20.75
517.886	20.79
518.087	20.89
518.288	20.88
518.488	20.9
518.689	20.99
518.89	20.97
519.091	20.98
519.291	21.03
519.492	21.08
519.692	21.05
519.893	21.14
520.094	21.08
520.294	21.07
520.495	21.09
520.695	21.22
520.896	21.2
521.096	21.31
521.297	21.42
521.497	21.41
521.698	21.4
521.898	21.43
522.099	21.4
522.299	21.4
522.499	21.38
522.7	21.4
522.9	21.48
523.101	21.56
523.301	21.56
523.501	21.58
523.702	21.61
523.902	21.63
524.102	21.69
524.302	21.67
524.503	21.76
524.703	21.74
524.903	21.72
525.103	21.71
525.304	21.79
525.504	21.85
525.704	21.93
525.904	21.89
526.104	21.86
526.304	21.85
526.504	21.89
526.705	21.81
526.905	21.95
527.105	22.02
527.305	22
527.505	21.91
527.705	21.94
527.905	21.97
528.105	21.97
528.305	22
528.505	22.09
528.705	22.25
528.905	22.14
529.105	22.13
529.304	22.13
529.504	22.25
529.704	22.16
529.904	22.3
530.104	22.28
530.304	22.37
530.503	22.37
530.703	22.32
530.903	22.28
531.103	22.4
531.303	22.4
531.502	22.39
531.702	22.52
531.902	22.59
532.101	22.5
532.301	22.58
532.501	22.56
532.7	22.6
532.9	22.57
533.1	22.63
533.299	22.64
533.499	22.72
533.698	22.62
533.898	22.62
534.097	22.6
534.297	22.66
534.496	22.66
534.696	22.7
534.895	22.81
535.095	22.98
535.294	22.9
535.494	22.85
535.693	22.87
535.892	22.89
536.092	22.72
536.291	22.71
536.491	22.84
536.69	22.94
536.889	22.87
537.088	22.92
537.288	22.97
537.487	23.01
537.686	23.07
537.886	23.15
538.085	23.23
538.284	23.34
538.483	23.29
538.682	23.26
538.882	23.37
539.081	23.49
539.28	23.5
539.479	23.58
539.678	23.61
539.877	23.67
540.076	23.69
540.275	23.66
540.474	23.71
540.673	23.79
540.872	23.75
541.071	23.8
541.27	23.9
541.469	24
541.668	24
541.867	24.08
542.066	24.11
542.265	24.11
542.464	24.1
542.663	24.2
542.862	24.29
543.06	24.38
543.259	24.49
543.458	24.53
543.657	24.58
543.856	24.58
544.054	24.53
544.253	24.51
544.452	24.57
544.651	24.67
544.849	24.69
545.048	24.8
545.247	24.87
545.445	24.89
545.644	24.85
545.843	24.87
546.041	24.82
546.24	24.94
546.438	25.02
546.637	25.02
546.836	25.19
547.034	25.3
547.233	25.33
547.431	25.3
547.63	25.39
547.828	25.39
548.027	25.44
548.225	25.48
548.423	25.56
548.622	25.68
548.82	25.67
549.019	25.73
549.217	25.83
549.415	25.92
549.614	26.01
549.812	26.09
550.01	26.18
550.209	26.31
550.407	26.44
550.605	26.4
550.803	26.57
551.002	26.72
551.2	26.77
551.398	26.86
551.596	27.12
551.794	27.18
551.993	27.19
552.191	27.23
552.389	27.36
552.587	27.35
552.785	27.39
552.983	27.52
553.181	27.68
553.379	27.74
553.577	27.76
553.775	27.91
553.973	27.97
554.171	28
554.369	28.01
554.567	28.14
554.765	28.22
554.963	28.39
555.161	28.43
555.359	28.5
555.557	28.73
555.755	28.74
555.952	28.81
556.15	28.9
556.348	29.01
556.546	29.13
556.744	29.21
556.941	29.21
557.139	29.41
557.337	29.51
557.535	29.44
557.732	29.53
557.93	29.72
558.128	29.75
558.325	29.85
558.523	29.86
558.721	29.99
558.918	30
559.116	30.14
559.313	30.29
559.511	30.52
559.708	30.7
559.906	30.83
560.104	30.84
560.301	30.86
560.498	30.94
560.696	30.97
560.893	31.04
561.091	31.22
561.288	31.42
561.486	31.53
561.683	31.65
561.88	31.75
562.078	31.85
562.275	31.91
562.473	32.03
562.67	32.24
562.867	32.37
563.064	32.48
563.262	32.49
563.459	32.52
563.656	32.51
563.853	32.67
564.051	32.71
564.248	32.87
564.445	33.07
564.642	33.21
564.839	33.36
565.036	33.6
565.234	33.78
565.431	33.81
565.628	33.93
565.825	33.95
566.022	34.02
566.219	34.02
566.416	34.2
566.613	34.33
566.81	34.45
567.007	34.47
567.204	34.54
567.401	34.55
567.598	34.55
567.795	34.63
567.991	34.67
568.188	34.78
568.385	34.85
568.582	34.97
568.779	35.05
568.976	35.12
569.172	35.37
569.369	35.35
569.566	35.32
569.763	35.37
569.96	35.39
570.156	35.32
570.353	35.43
570.55	35.6
570.746	35.57
570.943	35.68
571.14	35.69
571.336	35.88
571.533	35.94
571.729	35.95
571.926	36.09
572.123	36.19
572.319	36.19
572.516	36.08
572.712	36.26
572.909	36.2
573.105	36.26
573.302	36.26
573.498	36.41
573.695	36.37
573.891	36.45
574.087	36.42
574.284	36.41
574.48	36.33
574.677	36.39
574.873	36.39
575.069	36.52
575.266	36.58
575.462	36.62
575.658	36.65
575.854	36.77
576.051	36.68
576.247	36.68
576.443	36.73
576.639	36.67
576.835	36.52
577.032	36.51
577.228	36.65
577.424	36.7
577.62	36.68
577.816	36.7
578.012	36.69
578.208	36.64
578.404	36.61
578.6	36.65
578.796	36.71
578.993	36.87
579.189	36.75
579.384	36.62
579.58	36.55
579.776	36.52
579.972	36.3
580.168	36.33
580.364	36.49
580.56	36.48
580.756	36.4
580.952	36.43
581.148	36.4
581.343	36.36
581.539	36.41
581.735	36.48
581.931	36.53
582.127	36.56
582.322	36.5
582.518	36.46
582.714	36.5
582.909	36.48
583.105	36.42
583.301	36.43
583.496	36.53
583.692	36.35
583.888	36.25
584.083	36.32
584.279	36.35
584.474	36.3
584.67	36.36
584.866	36.45
585.061	36.22
585.257	36.27
585.452	36.28
585.648	36.35
585.843	36.4
586.039	36.52
586.234	36.5
586.429	36.4
586.625	36.35
586.82	36.25
587.015	36.26
587.211	36.1
587.406	36.18
587.601	36.21
587.797	36.16
587.992	36.14
588.187	36.25
588.383	36.19
588.578	36.24
588.773	36.27
588.968	36.28
589.163	36.34
589.359	36.34
589.554	36.23
589.749	36.34
589.944	36.42
590.139	36.35
590.334	36.44
590.529	36.49
590.724	36.43
590.919	36.43
591.114	36.42
591.309	36.45
591.504	36.55
591.699	36.52
591.894	36.63
592.089	36.66
592.284	36.74
592.479	36.79
592.674	36.9
592.869	36.97
593.064	37.09
593.259	37.15
593.454	37.19
593.648	37.17
593.843	37.11
594.038	37.09
594.233	37.06
594.428	37.12
594.622	37.22
594.817	37.36
595.012	37.42
595.206	37.46
595.401	37.49
595.596	37.55
595.79	37.55
595.985	37.68
596.18	37.69
596.374	37.82
596.569	37.8
596.763	37.86
596.958	37.98
597.153	38.05
597.347	37.97
597.542	38.15
597.736	38.08
597.931	38.04
598.125	38.1
598.319	38.28
598.514	38.32
598.708	38.47
598.903	38.59
599.097	38.6
599.291	38.59
599.486	38.51
599.68	38.64
599.874	38.65
600.069	38.72
600.263	38.69
600.457	38.88
600.651	38.87
600.846	38.95
601.04	39.03
601.234	39.07
601.428	39.06
601.622	39.04
601.817	39.04
602.011	39.07
602.205	39.23
602.399	39.19
602.593	39.24
602.787	39.28
602.981	39.27
603.175	39.32
603.369	39.37
603.563	39.32
603.757	39.36
603.951	39.38
604.145	39.24
604.339	39.28
604.533	39.31
604.727	39.18
604.921	39.04
605.115	39.16
605.309	39.18
605.502	39.33
605.696	39.34
605.89	39.48
606.084	39.28
606.278	39.19
606.471	38.95
606.665	38.85
606.859	38.71
607.053	38.74
607.246	38.69
607.44	38.67
607.634	38.71
607.827	38.72
608.021	38.6
608.214	38.6
608.408	38.47
608.602	38.36
608.795	38.25
608.989	38.18
609.182	38.06
609.376	38.07
609.569	38.02
609.763	37.88
609.956	37.88
610.15	37.81
610.343	37.82
610.537	37.79
610.73	37.78
610.923	37.69
611.117	37.59
611.31	37.5
611.504	37.46
611.697	37.34
611.89	37.23
612.083	37.19
612.277	37.05
612.47	36.89
612.663	36.88
612.856	36.78
613.05	36.64
613.243	36.49
613.436	36.39
613.629	36.29
613.822	36.3
614.015	36.27
614.209	36.3
614.402	36.24
614.595	36.26
614.788	36.22
614.981	36.13
615.174	35.97
615.367	35.86
615.56	35.81
615.753	35.65
615.946	35.64
616.139	35.64
616.332	35.85
616.525	35.71
616.718	35.75
616.911	35.58
617.103	35.58
617.296	35.41
617.489	35.3
617.682	35.3
617.875	35.31
618.067	35.17
618.26	35.05
618.453	35.11
618.646	35.05
618.838	35.12
619.031	35.24
619.224	35.24
619.417	35.13
619.609	35.09
619.802	34.97
619.994	34.93
620.187	34.83
620.38	34.83
620.572	34.79
620.765	34.83
620.957	34.67
621.15	34.54
621.342	34.56
621.535	34.51
621.727	34.38
621.92	34.38
622.112	34.42
622.305	34.35
622.497	34.25
622.69	34.24
622.882	34.25
623.074	34.26
623.267	34.19
623.459	34.11
623.651	34.1
623.844	34.07
624.036	34.06
624.228	34.02
624.42	34.17
624.613	34.2
624.805	34.21
624.997	34.2
625.189	34.21
625.381	34.17
625.574	34.03
625.766	33.92
625.958	33.86
626.15	33.91
626.342	33.89
626.534	33.9
626.726	33.83
626.918	33.82
627.11	33.63
627.302	33.53
627.494	33.51
627.686	33.6
627.878	33.55
628.07	33.71
628.262	33.63
628.454	33.53
628.646	33.55
628.838	33.59
629.029	33.37
629.221	33.41
629.413	33.39
629.605	33.21
629.797	33.05
629.989	32.99
630.18	32.91
630.372	32.96
630.564	32.95
630.755	32.99
630.947	33.03
631.139	32.92
631.33	32.75
631.522	32.79
631.714	32.76
631.905	32.78
632.097	32.81
632.289	32.77
632.48	32.62
632.672	32.48
632.863	32.37
633.055	32.3
633.246	32.33
633.438	32.28
633.629	32.34
633.821	32.31
634.012	32.25
634.203	32.05
634.395	32.05
634.586	32.07
634.777	32.05
634.969	32.15
635.16	32.32
635.351	32.32
635.543	32.2
635.734	32.22
635.925	32.2
636.117	32.13
636.308	32.17
636.499	32.14
636.69	31.95
636.881	31.81
637.073	31.82
637.264	31.71
637.455	31.76
637.646	31.95
637.837	31.91
638.028	31.8
638.219	31.75
638.41	31.69
638.601	31.53
638.792	31.57
638.983	31.67
639.174	31.74
639.365	31.74
639.556	31.79
639.747	31.73
639.938	31.63
640.129	31.44
640.32	31.37
640.511	31.28
640.701	31.3
640.892	31.29
641.083	31.43
641.274	31.5
641.465	31.46
641.655	31.39
641.846	31.37
642.037	31.3
642.228	31.21
642.418	31.26
642.609	31.29
642.8	31.19
642.99	31.05
643.181	31.07
643.372	31
643.562	30.97
643.753	30.92
643.943	30.85
644.134	30.71
644.324	30.72
644.515	30.68
644.705	30.84
644.896	30.95
645.086	30.92
645.277	30.89
645.467	30.92
645.658	30.81
645.848	30.77
646.038	30.88
646.229	30.73
646.419	30.53
646.61	30.35
646.8	30.25
646.99	30.13
647.18	30.21
647.371	30.26
647.561	30.27
647.751	30.15
647.941	30.06
648.132	29.96
648.322	29.88
648.512	29.9
648.702	30.04
648.892	30.1
649.082	30.09
649.272	30
649.462	29.82
649.653	29.65
649.843	29.51
650.033	29.44
650.223	29.39
650.413	29.4
650.603	29.38
650.793	29.37
650.983	29.32
651.172	29.27
651.362	29.24
651.552	29.15
651.742	29.1
651.932	29.02
652.122	28.96
652.312	29
652.502	29.02
652.691	29.01
652.881	28.92
653.071	28.88
653.261	28.72
653.45	28.53
653.64	28.47
653.83	28.34
654.019	28.36
654.209	28.28
654.399	28.26
654.588	28.03
654.778	27.96
654.968	27.64
655.157	27.55
655.347	27.45
655.536	27.46
655.726	27.34
655.915	27.35
656.105	27.21
656.294	27.02
656.484	26.74
656.673	26.62
656.863	26.47
657.052	26.28
657.241	26.06
657.431	25.88
657.62	25.74
657.809	25.46
657.999	25.3
658.188	25.17
658.377	25.06
658.567	24.9
658.756	24.78
658.945	24.67
659.134	24.46
659.324	24.29
659.513	23.98
659.702	23.71
659.891	23.47
660.08	23.23
660.269	23.15
660.458	23.03
660.648	22.91
660.837	22.65
661.026	22.72
661.215	22.42
661.404	22.24
661.593	22.18
661.782	22.04
661.971	21.8
662.16	21.72
662.349	21.63
662.538	21.32
662.726	21.16
662.915	20.92
663.104	20.67
663.293	20.45
663.482	20.48
663.671	20.44
663.86	20.24
664.048	20.04
664.237	20.08
664.426	19.77
664.615	19.6
664.803	19.58
664.992	19.56
665.181	19.33
665.369	19.29
665.558	19.2
665.747	19.14
665.935	19.03
666.124	18.99
666.312	18.84
666.501	18.68
666.69	18.39
666.878	18.26
667.067	18.04
667.255	18.03
667.444	18.15
667.632	18.24
667.82	18.29
668.009	18.23
668.197	18.16
668.386	18.03
668.574	18.05
668.762	17.96
668.951	17.87
669.139	17.83
669.327	17.67
669.516	17.66
669.704	17.54
669.892	17.73
670.08	17.77
670.269	17.75
670.457	17.69
670.645	17.56
670.833	17.47
671.021	17.48
671.21	17.5
671.398	17.51
671.586	17.52
671.774	17.4
671.962	17.37
672.15	17.4
672.338	17.21
672.526	17.42
672.714	17.38
672.902	17.38
673.09	17.45
673.278	17.72
673.466	17.7
673.654	17.99
673.842	18.04
674.03	18.08
674.218	18.02
674.405	18.03
674.593	17.73
674.781	17.74
674.969	17.74
675.157	17.89
675.344	18.11
675.532	18.45
675.72	18.61
675.908	18.58
676.095	18.46
676.283	18.47
676.471	18.6
676.658	18.6
676.846	18.78
677.033	19.05
677.221	18.99
677.409	18.85
677.596	18.98
677.784	19.09
677.971	19.16
678.159	19.34
678.346	19.5
678.534	19.56
678.721	19.76
678.909	19.75
679.096	19.91
679.283	20.11
679.471	20.37
679.658	20.47
679.846	20.75
680.033	20.97
680.22	21.14
680.408	21.1
680.595	21.23
680.782	21.25
680.969	21.3
681.157	21.42
681.344	21.54
681.531	21.63
681.718	21.77
681.905	22.01
682.093	22.25
682.28	22.62
682.467	23.06
682.654	23.34
682.841	23.48
683.028	23.72
683.215	23.88
683.402	23.83
683.589	24.21
683.776	24.58
683.963	24.71
684.15	24.99
684.337	25.4
684.524	25.56
684.711	25.86
684.898	26.09
685.085	26.45
685.271	26.84
685.458	27.23
685.645	27.43
685.832	27.92
686.019	28.38
686.205	28.57
686.392	28.86
686.579	29.36
686.766	29.69
686.952	29.95
687.139	30.58
687.326	30.97
687.512	31.18
687.699	31.68
687.886	31.98
688.072	32.09
688.259	32.58
688.445	33.28
688.632	33.68
688.818	34.41
689.005	35
689.191	35.47
689.378	35.95
689.564	36.44
689.751	36.73
689.937	37.22
690.124	37.84
690.31	38.22
690.496	38.8
690.683	39.41
690.869	39.65
691.055	39.93
691.242	40.57
691.428	41.03
691.614	41.51
691.8	42.3
691.987	42.93
692.173	43.35
692.359	43.77
692.545	44.36
692.731	44.8
692.918	45.51
693.104	45.94
693.29	46.69
693.476	47.31
693.662	48.1
693.848	48.43
694.034	49.11
694.22	49.52
694.406	50.16
694.592	50.57
694.778	51.15
694.964	51.42
695.15	52.01
695.336	52.24
695.522	53.18
695.708	53.75
695.894	54.66
696.08	55.57
696.265	56.25
696.451	56.32
696.637	56.77
696.823	57.06
697.009	56.99
697.194	57.31
697.38	57.65
697.566	58.09
697.751	58.62
697.937	59.45
698.123	60
698.308	60.77
698.494	61.41
698.68	61.74
698.865	61.95
699.051	62.47
699.236	62.55
699.422	62.93
699.607	63.27
699.793	63.63
699.978	63.73
700.164	64.23
700.349	64.56
700.535	65.01
700.72	65.15
700.906	66.02
701.091	66.14
701.276	66.48
701.462	67.13
701.647	67.98
701.832	68.07
702.018	68.56
702.203	68.82
702.388	68.52
702.573	68.76
702.759	69.26
702.944	69.7
703.129	69.64
703.314	70.35
703.499	70.26
703.684	70.13
703.87	70.82
704.055	71.47
704.24	71.53
704.425	72.14
704.61	72.59
704.795	72.57
704.98	72.64
705.165	72.73
705.35	72.87
705.535	73.13
705.72	73.23
705.905	73.76
706.09	74.49
706.275	74.5
706.459	74.26
706.644	74.45
706.829	74.45
707.014	74.17
707.199	74.67
707.384	75.53
707.568	75.27
707.753	75.71
707.938	75.96
708.123	75.82
708.307	75.42
708.492	75.92
708.677	75.94
708.861	76
709.046	75.81
709.231	76.43
709.415	76.88
709.6	76.82
709.784	76.99
709.969	77.37
710.153	77.16
710.338	76.96
710.522	77.19
710.707	77.43
710.891	77.46
711.076	77.76
711.26	77.78
711.445	77.86
711.629	78.05
711.813	78.33
711.998	78.35
712.182	78.61
712.366	79
712.551	79.48
712.735	79.25
712.919	78.92
713.103	78.88
713.288	78.63
713.472	78.32
713.656	79.08
713.84	79.4
714.024	79.59
714.208	79.77
714.393	80.2
714.577	80.2
714.761	80.83
714.945	81.13
715.129	81.42
715.313	81.38
715.497	81.61
715.681	81.65
715.865	81.37
716.049	81.44
716.233	81
716.417	80.77
716.601	80.49
716.785	80.54
716.968	80.33
717.152	80.73
717.336	80.62
717.52	80.7
717.704	80.79
717.888	81.24
718.071	81.48
718.255	81.75
718.439	81.63
718.622	81.8
718.806	81.46
718.99	80.93
719.174	81.3
719.357	81.29
719.541	81.31
719.724	81.32
719.908	82.24
720.092	82.44
720.275	83
720.459	82.58
720.642	82.78
720.826	81.93
721.009	81.2
721.193	80.5
721.376	81.1
721.559	81.17
721.743	81.48
721.926	82.24
722.11	82.67
722.293	82.35
722.476	82.04
722.66	82.24
722.843	81.59
723.026	81.16
723.21	81.91
723.393	82.48
723.576	82.28
723.759	81.88
723.942	82.13
724.126	81.86
724.309	81.68
724.492	81.44
724.675	81.63
724.858	82.05
725.041	82.78
725.224	83.21
725.407	83.56
725.59	84.3
725.774	84.12
725.957	83.19
726.14	83.13
726.322	83.46
726.505	83.08
726.688	83.62
726.871	83.42
727.054	83.34
727.237	82.42
727.42	83.31
727.603	82.94
727.786	83.09
727.968	83.03
728.151	84.1
728.334	83.51
728.517	83.82
728.699	84.07
728.882	83.92
729.065	83.74
729.248	83.54
729.43	83.68
729.613	84.16
729.796	84.49
729.978	84.02
730.161	84.29
730.343	83.86
730.526	84.03
730.708	83.28
730.891	84.11
731.073	83.83
731.256	83.65
731.438	83.5
731.621	84.45
731.803	84.19
731.986	83.98
732.168	83.65
732.35	83.59
732.533	83.15
732.715	83.09
732.898	83.64
733.08	83.9
733.262	84.9
733.444	85.27
733.627	85.35
733.809	85.92
733.991	86.81
734.173	85.99
734.355	85.58
734.538	85.67
734.72	84.86
734.902	84.84
735.084	83.97
735.266	84
735.448	84.52
735.63	84.33
735.812	84.15
735.994	85.44
736.176	86.03
736.358	85.13
736.54	86.34
736.722	85.87
736.904	85.46
737.086	85.48
737.268	87.14
737.45	86.82
737.632	86.82
737.814	86.4
737.995	86.69
738.177	86.05
738.359	85.58
738.541	85.97
738.723	86.36
738.904	86.13
739.086	86.37
739.268	86.87
739.449	87.27
739.631	86.48
739.813	87.31
739.994	87.25
740.176	87.18
740.358	86.69
740.539	88.2
740.721	87.76
740.902	88.06
741.084	87.47
741.265	87.48
741.447	87.66
741.628	87.8
741.81	86.6
741.991	87.88
742.172	88.72
742.354	88.51
742.535	87.69
742.717	88.75
742.898	88.17
743.079	88.52
743.261	88.21
743.442	88.13
743.623	88.52
743.804	88.54
743.986	88.54
744.167	88
744.348	87.36
744.529	86.68
744.71	85.63
744.891	84.77
745.073	84.58
745.254	84.87
745.435	84.56
745.616	85.2
745.797	84.96
745.978	84.39
746.159	85.02
746.34	84.28
746.521	85.75
746.702	84.81
746.883	85.5
747.064	85.15
747.245	85.36
747.426	83.94
747.606	85.22
747.787	85.5
747.968	84.69
748.149	85.7
748.33	85.92
748.51	85.67
748.691	85.26
748.872	87.45
749.053	86.42
749.233	85.55
749.414	84.86
749.595	84.36
749.775	81.55
749.956	81.97
750.137	82.8
750.317	83.62
750.498	85.13
750.678	86.47
750.859	86.82
751.04	86.91
751.22	86.02
751.4	84.79
751.581	84.24
751.761	84.2
751.942	83.47
752.122	84.31
752.303	83.75
752.483	83.63
752.663	83.34
752.844	82.34
753.024	82.55
753.204	83.34
753.385	83.16
753.565	82.36
753.745	83.01
753.925	81.84
754.106	81.59
754.286	81.61
754.466	81.97
754.646	82.92
754.826	82.47
755.006	81.8
755.187	82.39
755.367	83.23
755.547	83.87
755.727	85.04
755.907	85.97
756.087	87.08
756.267	85.19
756.447	84.12
756.627	82.54
756.807	83.29
756.987	82.35
757.167	83.05
757.346	83.86
757.526	83.77
757.706	83.09
757.886	83.7
758.066	84.74
758.246	85.45
758.425	86.34
758.605	85.82
758.785	84.76
758.965	84.5
759.144	81.03
759.324	82.12
759.504	82.15
759.683	81.8
759.863	79.62
760.043	80.4
760.222	79.27
760.402	77.74
760.581	77.68
760.761	80.3
760.94	80.41
761.12	82.19
761.299	84.37
761.479	84.79
761.658	83.09
761.838	82.99
762.017	82.12
762.197	82.32
762.376	81.85
762.555	82.69
762.735	84.2
762.914	81.82
763.093	80.36
763.273	80.92
763.452	80.68
763.631	79.83
763.81	80.87
763.99	80.91
764.169	80.7
764.348	78.25
764.527	77.04
764.706	78.91
764.885	80.1
765.064	79.09
765.243	81.14
765.423	81.8
765.602	81.21
765.781	79.17
765.96	78.94
766.139	78.32
766.318	80.24
766.497	78.28
766.676	78.63
766.854	80.48
767.033	81.3
767.212	79.51
767.391	80.29
767.57	81.19
767.749	78.95
767.928	80.05
768.106	79.44
768.285	78.09
768.464	78.03
768.643	79.43
768.821	78.16
769	80.48
769.179	81.61
769.357	80.47
769.536	78.87
769.715	78.46
769.893	77.89
770.072	77.6
770.25	77.73
770.429	79.89
770.607	80.24
770.786	78.61
770.964	80.53
771.143	79.7
771.321	80.22
771.5	81.54
771.678	81.09
771.857	78.72
772.035	79.72
772.213	79.32
772.392	76.5
772.57	77.21
772.748	78.91
772.927	78.2
773.105	75.6
773.283	77.06
773.461	77.68
773.64	76.62
773.818	76.93
773.996	78.82
774.174	77.57
774.352	75.98
774.531	73.12
774.709	75.33
774.887	73.74
775.065	72.96
775.243	73.11
775.421	75.55
775.599	75.07
775.777	74.82
775.955	74.63
776.133	73.58
776.311	74.25
776.489	71.45
776.667	71.53
776.844	72.24
777.022	72.51
777.2	70.71
777.378	71.35
777.556	71.33
777.734	74.08
777.911	76.98
778.089	78.61
778.267	79.78
778.445	79.25
778.622	75.59
778.8	73.66
778.978	73.12
779.155	71.15
779.333	73.33
779.511	73.69
779.688	73.12
779.866	70.76
780.043	70
780.221	67.93
780.398	67.42
780.576	70.41
780.753	74.2
780.931	72.84
781.108	71.61
781.286	72.06
781.463	67.93
781.64	61.61
781.818	64.59
781.995	66.75
782.172	68.03
782.35	67.56
782.527	73.52
782.704	73.64
782.882	74.94
783.059	74.91
783.236	78.63
783.413	77.29
783.59	76.05
783.768	71.1
783.945	73.24
784.122	73.01
784.299	72.89
784.476	73.64
784.653	75.47
784.83	71.12
785.007	67.12
785.184	66.34
785.361	63.63
785.538	67.03
785.715	68.88
785.892	69.67
786.069	70.41
786.246	72.72
786.423	72.1
786.6	72.74
786.776	76.23
786.953	74.29
787.13	76.83
787.307	74.61
787.484	71.85
787.66	68.54
787.837	71.78
788.014	67.05
788.191	66.09
788.367	65.62
788.544	69.14
788.721	67.12
788.897	69.78
789.074	72.38
789.25	73.24
789.427	71.44
789.603	69.99
789.78	71.95
789.956	70.58
790.133	67.24
790.309	69.4
790.486	74.24
790.662	70.77
790.839	70.58
791.015	72.95
791.192	67.79
791.368	68.22
791.544	67.78
791.721	62.22
791.897	62.35
792.073	61.49
792.249	53.89
792.426	59.45
792.602	68.3
792.778	68.02
792.954	70.51
793.13	71.9
793.307	63.69
793.483	53.73
793.659	56.15
793.835	55.83
794.011	53.33
794.187	57.11
794.363	57.95
794.539	56.14
794.715	53.42
794.891	54.97
795.067	52.46
795.243	57.4
795.419	54.9
795.595	56.95
795.771	60.16
795.947	61.82
796.122	60.59
796.298	65.05
796.474	65.77
796.65	65.01
796.826	64.62
797.001	64.05
797.177	61.93
797.353	68.95
797.529	68.77
797.704	69.32
797.88	70.45
798.056	68.71
798.231	62.79
798.407	63.85
798.582	63.13
798.758	66.53
798.934	69.63
799.109	66.15
799.285	64.48
799.46	68.38
799.636	64.83
799.811	67.16
799.986	73.55
800.162	75.81
800.337	75.85
800.513	71.74
800.688	72.92
800.863	73.53
801.039	66.64
801.214	61.5
801.389	66.55
801.565	58.7
801.74	46.51
801.915	57.63
802.09	58.15
802.265	64.5
802.441	64.77
802.616	67.04
802.791	65.56
802.966	68.35
803.141	58.9
803.316	59.26
803.491	64.56
803.666	62.14
803.841	63.68
804.016	69.64
804.191	71.64
804.366	65.07
804.541	63.23
804.716	57.87
804.891	51.82
805.066	49.23
805.241	49.88
805.416	49.89
805.591	48.92
805.765	57.02
805.94	61.55
806.115	66.57
806.29	62.42
806.464	61.24
806.639	56.56
806.814	49.9
806.989	41.72
807.163	45.95
807.338	48.2
807.512	47.55
807.687	39.27
807.862	48.02
808.036	55.11
808.211	57.96
808.385	54.59
808.56	70.32
808.734	74.79
808.909	68.01
809.083	61.64
809.258	74.26
809.432	69.44
809.606	61.03
809.781	56.35
809.955	62.2
810.13	58.83
810.304	55.08
810.478	55.52
810.652	69.01
810.827	60.64
811.001	52.74
811.175	50.58
811.349	46.22
811.524	35.84
811.698	34.07
811.872	38.74
812.046	48.64
812.22	53.79
812.394	57.03
812.568	60.91
812.742	64.75
812.916	59.02
813.09	51.74
813.264	48.56
813.438	54.7
813.612	49.44
813.786	44.32
813.96	60.26
814.134	63.36
814.308	70.43
814.482	75.83
814.656	66.17
814.83	61.37
815.003	61.21
815.177	49.61
815.351	44.02
815.525	51.5
815.698	45.83
815.872	41.14
816.046	31.09
816.219	33.55
816.393	44.69
816.567	54.35
816.74	52.12
816.914	63.12
817.088	63.07
817.261	51.04
817.435	35.89
817.608	38.56
817.782	29.31
817.955	29.99
818.129	29.19
818.302	33.88
818.475	45.54
818.649	41.83
818.822	44.31
818.996	59.46
819.169	68.51
819.342	58.82
819.516	67.47
819.689	69.26
819.862	60.73
820.035	49.32
820.209	45.63
820.382	49.21
820.555	51.2
820.728	51.57
820.901	48.12
821.075	48.6
821.248	45.39
821.421	35.24
821.594	35.42
821.767	52.68
821.94	62.65
822.113	48.23
822.286	43.72
822.459	49.32
822.632	36.6
822.805	23.87
822.978	25.25
823.151	30.6
823.324	20.95
823.496	11.28
823.669	5.94
823.842	19.47
824.015	9.42
824.188	2.28
824.361	23.92
824.533	35.72
824.706	45.19
824.879	49.12
825.051	58.46
825.224	41.61
825.397	39.87
825.569	14.68
825.742	43.99
825.915	49.66
826.087	67.63
826.26	48.8
826.432	49.73
826.605	40.51
826.777	46.62
826.95	39.09
827.122	34.45
827.295	44.12
827.467	38.58
827.64	-0.19
827.812	4.08
827.984	12.1
828.157	-10.29
828.329	-35.33
828.501	-22.57
828.674	1.01
828.846	1.64
829.018	24.28
829.19	-0.89
829.363	28.06
829.535	30.36
829.707	33.69
829.879	18.46
830.051	26.68
830.223	7.21
830.395	-42.38
830.568	-42.4
830.74	-41.76
830.912	-3.16
831.084	-17.9
831.256	5.86
831.428	-6.43
831.6	-12.73
831.772	-38
831.943	-36.03
832.115	-9.4
832.287	18.28
832.459	26.37
832.631	45.11
832.803	55.55
832.975	59.94
833.146	35.47
833.318	30.6
833.49	19.51
833.662	13.96
833.833	-3.7
834.005	15.25
834.177	30.87
834.348	26.55
834.52	22.49
834.692	33.17
834.863	20.4
835.035	3.6
835.206	-40.34
835.378	-7.53
835.549	-7.74
835.721	4.67
835.892	2.01
836.064	9.3
836.235	13.65
836.407	17.44
836.578	-22.06
836.749	1.82
836.921	-8.1
837.092	-57.87
837.264	-60.6
837.435	-59.18
837.606	-33.66
837.777	0.96
837.949	22.29
838.12	27.23
838.291	35.63
838.462	36.19
838.633	10.06
838.805	20.56
838.976	40.65
839.147	2.19
839.318	-32.34
839.489	-71
839.66	-95.6
839.831	-68.63
840.002	-43.18
840.173	-79.4
840.344	-6.6
840.515	-39.4
840.686	-163.63
840.857	-117.62
841.028	-52.71
841.199	-79.42
841.369	-88.94
841.54	-62.76
841.711	-19.17
841.882	-4.39
842.053	14
842.223	15.32
842.394	25.27
842.565	27.34
842.736	24.11
842.906	14.61
843.077	31.87
843.248	30.55
843.418	31.12
843.589	-5.38
843.759	53.6
843.93	2.58
844.101	24.94
844.271	21.71
844.442	46.95
844.612	52.8
844.783	40.4
844.953	5.42
845.123	-17.75
845.294	-46.62
845.464	-308.13
845.635	-118.82
845.805	-14.58
845.975	-6.07
846.146	-38.99
846.316	-36.19
846.486	-21.87
846.656	10.17
846.827	1.86
846.997	-3.89
847.167	14.11
847.337	5.21
847.507	-42.33
847.677	-6.16
847.848	37.72
848.018	31.13
848.188	33.15
848.358	16.79
848.528	-0.19
848.698	-32.31
848.868	-81.55
849.038	-130.51
849.208	-29.56
849.378	7.67
849.548	-4.5
849.718	10.35
849.887	29.57
850.057	7.26
850.227	-8.27
850.397	-16.66
850.567	-102.01
850.737	-395.33
850.906	-1185.31
851.076	-1043.16
851.246	-507.46
851.415	-58.82
851.585	-8.88
851.755	-39.79
851.924	5.7
852.094	-8.24
852.264	-97.62
852.433	-1105.05
852.603	-216.89
852.772	-224.32
852.942	-124.55
853.111	-90.37
853.281	-20.05
853.45	22.54
853.62	-22.58
853.789	-23.25
853.959	-24.67
854.128	-54.63
854.297	-97.08
854.467	-107.95
854.636	-125
854.805	-44.77
854.975	-84.3
855.144	-105.27
855.313	-4.37
855.482	-170.99
855.652	-101.5
855.821	-1.82
855.99	34.96
856.159	21.41
856.328	16.85
856.497	-12.76
856.667	-12.07
856.836	7.07
857.005	-3.8
857.174	-26.52
857.343	-27.27
857.512	24.61
857.681	-42.3
857.85	-130.96
858.019	-37.83
858.188	-32.16
858.356	-67.17
858.525	-138.71
858.694	-87.36
858.863	-201.72
859.032	-122.53
859.201	-209.61
859.369	-117.16
859.538	-68.35
859.707	-28.19
859.876	-34.72
860.044	27.23
860.213	37.63
860.382	16.13
860.55	-0.57
860.719	21.79
860.888	25.75
861.056	-17.92
861.225	-6.07
861.393	41.71
861.562	10.55
861.73	-97.31
861.899	-141.49
862.067	-1107.76
862.236	-93.9
862.404	-248.2
862.572	-57.65
862.741	-14.8
862.909	-33.93
863.078	-113.06
863.246	-46.55
863.414	-79.44
863.582	-58.21
863.751	-106.36
863.919	-90.35
864.087	-69.02
864.255	-68.03
864.424	-425.6
864.592	-44.75
864.76	-84.55
864.928	-96.2
865.096	-142.44
865.264	-59.1
865.432	-1561.93
865.6	-169.63
865.768	-149.5
865.936	-133.75
866.104	-120.32
866.272	-168.83
866.44	-370.96
866.608	675.14
866.776	309.88
866.944	3168.02
867.112	-553.07
867.28	-247.35
867.448	-73.92
867.615	-14.32
867.783	3.11
867.951	-14.05
868.119	29.97
868.286	-37.13
868.454	-188.68
868.622	-222.73
868.789	-216.64
868.957	-3366.07
869.125	-1611.18
869.292	-55.34
869.46	-54.45
869.627	20.34
869.795	-1.29
869.963	22.37
870.13	32.07
870.298	43.72
870.465	-6.68
870.632	-34.84
870.8	-25.39
870.967	-68.66
871.135	-155.81
871.302	-123.45
871.469	-95.63
871.637	-110.05
871.804	-68.15
871.971	-68.82
872.139	-411.74
872.306	-114.02
872.473	-143.36
872.64	-628.43
872.807	-315.67
872.975	-43.03
873.142	-194.27
873.309	1849.32
873.476	6.67
873.643	63.98
873.81	-5.55
873.977	17.53
874.144	34.12
874.311	-137
874.478	-210.55
874.645	-204.02
874.812	-134.18
874.979	-50.97
875.146	-2.01
875.313	-2.9
875.48	50.67
875.647	4.94
875.813	-44.59
875.98	-28.52
876.147	-42.53
876.314	-113.6
876.481	872.93
876.647	-802.53
876.814	297.02
876.981	121.06
877.147	29.39
877.314	35.18
877.481	50.37
877.647	12.99
877.814	-45.32
877.98	-78.94
878.147	-31.46
878.314	27.59
878.48	48.08
878.647	65.77
878.813	89.06
878.979	64.75
879.146	-0.02
879.312	-4.56
879.479	-43.4
879.645	-115.59
879.811	-221.53
879.978	-508.59
880.144	-104.56
880.31	-82.88
880.477	-322.87
880.643	-340.23
880.809	-145.93
880.975	-90.97
881.142	-515.68
881.308	11.08
881.474	-7.3
881.64	-16.94
881.806	-106.55
881.972	-28.53
882.138	-96.71
882.304	-130.62
882.47	-248.34
882.636	-826.43
882.802	-332.56
882.968	-81.56
883.134	-22.78
883.3	-21.6
883.466	22.92
883.632	51.26
883.798	23.67
883.964	7.03
884.129	39.49
884.295	9.35
884.461	-30.9
884.627	-48.11
884.793	-55.87
884.958	-36.43
885.124	-72.36
885.29	-164.19
885.455	-211.29
885.621	-57.54
885.787	-148.14
885.952	-98.88
886.118	-80.64
886.283	-67.1
886.449	-176.99
886.614	-157.54
886.78	-343.94
886.945	1470.9
887.111	-763.15
887.276	-603.55
887.442	-962.95
887.607	-355.31
887.773	-298.17
887.938	-286.75
888.103	-316.8
888.269	-287.42
888.434	-421.76
888.599	-118.78
888.764	-17.63
888.93	-13.84
889.095	-4.01
889.26	-42.98
889.425	-37.24
889.59	-19.21
889.756	-53.62
889.921	-44.71
890.086	-46.57
890.251	-13.74
890.416	-159.32
890.581	-1248.79
890.746	134.02
890.911	196.97
891.076	128.05
891.241	-174.81
891.406	30.57
891.571	-83.95
891.736	-315.25
891.901	-730.31
892.065	966.21
892.23	186.16
892.395	227.25
892.56	335.62
892.725	-454.88
892.889	-1588.41
893.054	-222.48
893.219	-94.39
893.384	-30.16
893.548	-62.62
893.713	-57.1
893.878	-27.22
