Data from Ofra_2a_PS_2CX80_Reflection_3.txt Node
Date: Tue Jul 20 09:39:07 EDT 2021
User: Adam
Spectrometer: FLMT01687
Trigger mode: 0
Integration Time (sec): 9.450000E-1
Scans to average: 3
Electric dark correction enabled: true
Nonlinearity correction enabled: false
Boxcar width: 3
XAxis mode: Wavelengths
Number of Pixels in Spectrum: 3648
>>>>>Begin Spectral Data<<<<<
179.494	600.59
179.716	440.4
179.937	484.07
180.158	1692.58
180.38	-802.62
180.601	-156.23
180.823	-64.18
181.044	26.2
181.265	81.7
181.486	60.92
181.708	103.26
181.929	-23.84
182.15	-607.39
182.372	85.65
182.593	86.39
182.814	75.3
183.035	142.46
183.257	28.64
183.478	27.48
183.699	48.13
183.92	32.28
184.141	31.52
184.363	20.57
184.584	15.9
184.805	31.85
185.026	26.67
185.247	11.55
185.468	0.34
185.689	4.98
185.91	17.65
186.132	23.19
186.353	-6.82
186.574	9.87
186.795	-2.51
187.016	11.61
187.237	6.59
187.458	-9.12
187.679	-31.47
187.9	3.88
188.121	13.07
188.342	40.9
188.563	26.28
188.784	20.08
189.005	34.78
189.226	35.08
189.447	36.71
189.667	27.4
189.888	33.49
190.109	45.22
190.33	44.44
190.551	37.64
190.772	38.14
190.993	38.96
191.214	35.01
191.434	29.45
191.655	32.34
191.876	44.29
192.097	37.29
192.318	39.58
192.538	39.68
192.759	47.68
192.98	30.7
193.201	48.83
193.421	41.58
193.642	46.96
193.863	34.3
194.083	25.08
194.304	4.5
194.525	36.36
194.745	5.38
194.966	17.4
195.187	20.68
195.407	29.9
195.628	23.04
195.848	22
196.069	10.66
196.29	11.26
196.51	0.84
196.731	9.48
196.951	-1.06
197.172	5.89
197.392	18.42
197.613	20.35
197.833	25.69
198.054	19.78
198.274	-4.75
198.495	10.02
198.715	-6.36
198.936	-11.78
199.156	-10.45
199.377	-9.6
199.597	-2.38
199.817	7.93
200.038	6.72
200.258	29.34
200.479	38.88
200.699	40.99
200.919	30.48
201.14	27.84
201.36	36.08
201.58	29.57
201.801	19.15
202.021	19.32
202.241	16.73
202.461	19.31
202.682	20.22
202.902	19.23
203.122	10.6
203.342	29.42
203.563	27.13
203.783	27.4
204.003	33.84
204.223	34.54
204.443	26.76
204.663	30.4
204.884	13.28
205.104	11.91
205.324	15.28
205.544	-8.36
205.764	-16.64
205.984	-1.82
206.204	-8.93
206.424	6.41
206.644	-1.71
206.864	-8.29
207.084	21.27
207.304	16.73
207.525	12.36
207.745	27.22
207.964	17.77
208.184	24.15
208.404	22.67
208.624	-13.64
208.844	-23.02
209.064	-13.87
209.284	-6.63
209.504	-17.55
209.724	-57.88
209.944	-54.66
210.164	-27.45
210.384	-2.53
210.604	-16.43
210.823	-32.94
211.043	-26.16
211.263	7.56
211.483	12.45
211.703	15.87
211.922	15.3
212.142	25.83
212.362	26.44
212.582	27.04
212.801	21.95
213.021	19.26
213.241	4.4
213.461	-0.74
213.68	6.71
213.9	24.04
214.12	14.97
214.339	13.52
214.559	17.24
214.779	28
214.998	27.16
215.218	14.48
215.438	16.68
215.657	19.34
215.877	29.65
216.096	29.92
216.316	31.8
216.535	31.07
216.755	27.63
216.974	21.04
217.194	25.26
217.413	31.02
217.633	20.87
217.852	6.02
218.072	-10.45
218.291	7.93
218.511	9.1
218.73	6.37
218.95	-11.88
219.169	-17.01
219.389	2.46
219.608	16.23
219.827	9.66
220.047	12.14
220.266	7.69
220.485	16.13
220.705	18.1
220.924	13.93
221.143	14.76
221.363	12.57
221.582	8.2
221.801	10.38
222.021	4.93
222.24	5.72
222.459	-7.18
222.678	-11.29
222.897	-20.7
223.117	-19.22
223.336	-0.47
223.555	-4.86
223.774	-6.42
223.993	15.94
224.213	6.59
224.432	20.3
224.651	15.68
224.87	12.89
225.089	16.98
225.308	16.52
225.527	14.51
225.746	29.7
225.965	21.48
226.184	22.76
226.404	11.18
226.623	26.7
226.842	29.85
227.061	26.16
227.28	21.1
227.499	36.04
227.718	29.82
227.936	22.84
228.155	10.46
228.374	-1.05
228.593	-12.17
228.812	-17.37
229.031	-35.69
229.25	-18.17
229.469	-0.29
229.688	11.69
229.907	13.35
230.125	26.18
230.344	37.23
230.563	47.78
230.782	28.69
231.001	21.28
231.22	13.82
231.438	25.16
231.657	24.4
231.876	11.88
232.095	-6.59
232.313	17.56
232.532	16.8
232.751	16.54
232.969	15.77
233.188	5.02
233.407	11.59
233.625	17.94
233.844	9.98
234.063	15.99
234.281	23.3
234.5	24.75
234.719	30.39
234.937	35.37
235.156	29.6
235.374	28.56
235.593	16.1
235.811	-7.48
236.03	-27.74
236.249	-23.72
236.467	-17.11
236.686	-11.18
236.904	-12.17
237.123	-5.63
237.341	12.83
237.559	19.7
237.778	26.46
237.996	26.41
238.215	17.29
238.433	20.54
238.652	19.79
238.87	18.41
239.088	3.43
239.307	5.78
239.525	-4.12
239.743	-7.2
239.962	-10.19
240.18	5.27
240.398	5.22
240.617	22.98
240.835	17.43
241.053	28.49
241.271	36.14
241.49	29.57
241.708	16.23
241.926	8.47
242.144	4.44
242.363	-3.4
242.581	-3.8
242.799	-22.35
243.017	-8.28
243.235	-15.04
243.453	-18.97
243.672	-17.27
243.89	-3.62
244.108	1.66
244.326	10.9
244.544	12.93
244.762	26.75
244.98	32.97
245.198	28.81
245.416	34.64
245.634	42.14
245.852	38.71
246.07	39.97
246.288	23.74
246.506	26.43
246.724	31.22
246.942	13.72
247.16	9.1
247.378	9.79
247.596	1.36
247.814	-1.39
248.032	1.26
248.25	-6.7
248.468	6.55
248.685	9.85
248.903	16.03
249.121	24.66
249.339	34.44
249.557	24.26
249.775	14.04
249.992	7.3
250.21	-4.53
250.428	-8.38
250.646	-6.97
250.863	-1.76
251.081	-4.83
251.299	8.23
251.517	7.7
251.734	20.05
251.952	23.77
252.17	-3.77
252.387	0.85
252.605	21.74
252.823	13.34
253.04	13.24
253.258	7.8
253.475	6.46
253.693	29.73
253.911	28.61
254.128	8.91
254.346	15.55
254.563	17.2
254.781	15.72
254.998	19.15
255.216	13.62
255.433	8.79
255.651	17.54
255.868	15.21
256.086	0.63
256.303	4.13
256.521	-6.47
256.738	-10.17
256.956	-13.11
257.173	-12.4
257.39	-8.7
257.608	4.71
257.825	-3.78
258.043	10.07
258.26	2.44
258.477	13.58
258.695	17.3
258.912	23.79
259.129	23.19
259.346	32.36
259.564	24.34
259.781	38.57
259.998	27.85
260.216	29.66
260.433	22.57
260.65	29.08
260.867	17.3
261.084	20.37
261.302	10.32
261.519	6.99
261.736	-1.02
261.953	0.55
262.17	-0.67
262.387	-6.28
262.604	-13.33
262.822	-14.23
263.039	-15.13
263.256	-12.73
263.473	-17.95
263.69	-25.91
263.907	-20.82
264.124	-20.91
264.341	-22.39
264.558	-7.19
264.775	-5.43
264.992	-3.66
265.209	4.24
265.426	9.03
265.643	13.92
265.86	17.72
266.077	15.01
266.294	18.46
266.51	23.88
266.727	10.5
266.944	13.15
267.161	9.76
267.378	2.77
267.595	-1.49
267.812	-10.55
268.028	0.1
268.245	7.25
268.462	13.37
268.679	6.89
268.896	12.98
269.112	17.02
269.329	20.88
269.546	4.35
269.763	6.13
269.979	3.24
270.196	13.28
270.413	9.66
270.629	9.95
270.846	7.91
271.063	11.68
271.279	13.21
271.496	-4.77
271.712	-6.14
271.929	0.84
272.146	-2.56
272.362	-19.03
272.579	-12.56
272.795	-15.19
273.012	2.4
273.228	-3.04
273.445	-5.65
273.661	-5.18
273.878	9.83
274.094	7.18
274.311	8.02
274.527	5.57
274.744	-0.08
274.96	-2.02
275.177	4.31
275.393	0.96
275.609	2.29
275.826	6.09
276.042	24.69
276.259	25.64
276.475	26.55
276.691	27.5
276.908	27.14
277.124	27.92
277.34	22.95
277.557	18.87
277.773	21.04
277.989	16.33
278.205	9.11
278.422	10.9
278.638	15.15
278.854	20.73
279.07	3.05
279.286	4.2
279.503	7.92
279.719	19.67
279.935	16.5
280.151	20.25
280.367	13.89
280.583	24.04
280.799	23.2
281.016	26.04
281.232	9.6
281.448	5.04
281.664	-12.27
281.88	-7.75
282.096	-9.19
282.312	-7.48
282.528	-12.85
282.744	1.57
282.96	11.01
283.176	16.82
283.392	29.2
283.608	38.39
283.824	28.57
284.04	38.23
284.256	41.51
284.471	40.51
284.687	41.96
284.903	36.83
285.119	23.93
285.335	32.91
285.551	32.89
285.767	28.24
285.982	24.55
286.198	23.99
286.414	33.52
286.63	35.4
286.846	28.81
287.061	25.81
287.277	26.75
287.493	32.23
287.709	30.4
287.924	24.85
288.14	25.64
288.356	35.89
288.571	28.49
288.787	29.98
289.003	38.01
289.218	34.91
289.434	33.28
289.65	41.18
289.865	38.17
290.081	34.07
290.296	28.05
290.512	21.39
290.727	24.87
290.943	17.76
291.159	1.5
291.374	-7.59
291.59	-11.03
291.805	-8.93
292.021	-16.66
292.236	-4.83
292.451	0.81
292.667	12.69
292.882	12.91
293.098	10.95
293.313	4.3
293.529	11.91
293.744	6.02
293.959	6.3
294.175	2.24
294.39	11.97
294.605	25.94
294.821	28.97
295.036	19.63
295.251	28.04
295.467	25.84
295.682	28.69
295.897	23.72
296.112	23.79
296.328	23.06
296.543	19.14
296.758	8.6
296.973	7.87
297.188	-4.82
297.404	-1.93
297.619	-6.9
297.834	8.88
298.049	10.68
298.264	9.31
298.479	4.15
298.694	9.26
298.909	0.15
299.125	7.94
299.34	-4.8
299.555	5.4
299.77	2.13
299.985	3.62
300.2	3.45
300.415	7.3
300.63	2.15
300.845	8.28
301.06	5.12
301.275	16.83
301.49	19.88
301.704	25.28
301.919	17.73
302.134	15.55
302.349	9.74
302.564	-0.35
302.779	-14.94
302.994	-20.37
303.209	-25.81
303.423	-5.29
303.638	-9.21
303.853	3.51
304.068	14.52
304.283	24.65
304.497	29.81
304.712	29.06
304.927	24.56
305.142	31.08
305.356	26.07
305.571	31.29
305.786	28.35
306	26.48
306.215	24.7
306.43	28.32
306.644	28.11
306.859	32.03
307.074	23.12
307.288	24.27
307.503	22.56
307.717	18.23
307.932	20.22
308.147	12.59
308.361	17.92
308.576	22.98
308.79	23.71
309.005	31.71
309.219	38.43
309.434	35.31
309.648	30.95
309.863	27.06
310.077	18.6
310.292	15.9
310.506	17.53
310.72	12.12
310.935	10.42
311.149	16.48
311.364	12.51
311.578	15.57
311.792	19
312.007	12.5
312.221	16.2
312.435	13.51
312.649	9.67
312.864	6.5
313.078	11.89
313.292	8.82
313.507	8.11
313.721	3.51
313.935	22.87
314.149	26.6
314.363	27.36
314.578	47.04
314.792	31.58
315.006	35.03
315.22	42.82
315.434	30.54
315.648	26.22
315.862	22.62
316.077	3.2
316.291	14.39
316.505	12.6
316.719	-8.53
316.933	2.42
317.147	3.68
317.361	7.75
317.575	8.29
317.789	9.91
318.003	11.12
318.217	26.39
318.431	27.39
318.645	27.47
318.859	21.96
319.073	19.84
319.287	18.65
319.5	21.94
319.714	17.86
319.928	17.63
320.142	22.72
320.356	34.98
320.57	34.04
320.784	36.5
320.997	31.41
321.211	27.14
321.425	14.28
321.639	17.79
321.853	2.85
322.066	10.29
322.28	7.23
322.494	12.17
322.707	16.48
322.921	26.74
323.135	41.1
323.349	47.51
323.562	33.96
323.776	33.8
323.989	25.56
324.203	25.92
324.417	21.62
324.63	-1.2
324.844	-6.24
325.057	8.57
325.271	6.79
325.485	18.74
325.698	16.37
325.912	22.71
326.125	28.21
326.339	32.19
326.552	35.87
326.766	38.48
326.979	30.38
327.193	32.49
327.406	23.39
327.619	9.47
327.833	4.76
328.046	-4.47
328.26	-18.65
328.473	-22.57
328.686	-26.93
328.9	-27.32
329.113	-12.87
329.326	-2.32
329.54	0.08
329.753	7.08
329.966	11.36
330.179	19.04
330.393	24.26
330.606	20.64
330.819	16.7
331.032	15.39
331.246	18.55
331.459	22.07
331.672	26.34
331.885	21.22
332.098	25.08
332.311	13.08
332.525	17.41
332.738	20.96
332.951	25.41
333.164	8.58
333.377	-1.4
333.59	-3.4
333.803	10.35
334.016	1.15
334.229	-1.72
334.442	4.06
334.655	17.61
334.868	40.11
335.081	44.36
335.294	31.24
335.507	34
335.72	28.69
335.933	23.99
336.146	27.78
336.359	15.2
336.572	14.06
336.785	25.5
336.997	24.33
337.21	25.95
337.423	21.5
337.636	16.14
337.849	21.8
338.062	24.45
338.274	25.77
338.487	14.97
338.7	11.03
338.913	8.24
339.125	5.86
339.338	2.11
339.551	6.43
339.763	2.63
339.976	3.01
340.189	4.84
340.402	4.32
340.614	9.07
340.827	3.19
341.039	-2.63
341.252	1.06
341.465	3.23
341.677	5.47
341.89	11.3
342.102	11.66
342.315	27.8
342.527	31.25
342.74	27.56
342.952	34.55
343.165	42.18
343.377	40.12
343.59	42.33
343.802	34.12
344.015	28.33
344.227	23.78
344.44	16.36
344.652	13.23
344.864	16.31
345.077	7.59
345.289	-0.26
345.502	6.83
345.714	4.9
345.926	9.95
346.139	7.65
346.351	-6.51
346.563	11.85
346.775	15.31
346.988	13.25
347.2	25.39
347.412	21.56
347.624	22.17
347.837	27.66
348.049	18.77
348.261	15.66
348.473	6.53
348.685	6.52
348.897	5.99
349.11	9.11
349.322	9.92
349.534	5.02
349.746	11.1
349.958	18.12
350.17	10.72
350.382	5.68
350.594	0.33
350.806	5.24
351.018	11.59
351.23	15.56
351.442	11.46
351.654	19.09
351.866	28.26
352.078	23.48
352.29	23.4
352.502	21.86
352.714	21.05
352.926	26.65
353.138	17.77
353.35	10.46
353.561	7.08
353.773	7.69
353.985	3.66
354.197	-0.31
354.409	2.44
354.621	6.7
354.832	5.71
355.044	21.4
355.256	15.4
355.468	21.52
355.679	22.3
355.891	21.14
356.103	22.83
356.314	22.05
356.526	16.82
356.738	12.4
356.949	12.89
357.161	17.75
357.373	16.23
357.584	22.63
357.796	17.81
358.008	14.94
358.219	22.12
358.431	21.44
358.642	10.56
358.854	9.9
359.065	2.93
359.277	7.56
359.488	12.7
359.7	16.18
359.911	11.16
360.123	18.03
360.334	15.1
360.546	6.75
360.757	9.73
360.969	18.49
361.18	11.08
361.391	17.87
361.603	22.34
361.814	26.03
362.025	29.21
362.237	29.51
362.448	22.53
362.659	14.6
362.871	15.22
363.082	7.36
363.293	11.36
363.504	15.29
363.716	11.27
363.927	6.07
364.138	16.35
364.349	12.91
364.56	14.22
364.772	8.81
364.983	-0.86
365.194	0.06
365.405	-1.18
365.616	-9.63
365.827	-7.22
366.038	2.82
366.25	1.01
366.461	12.15
366.672	12.5
366.883	18.07
367.094	17.08
367.305	13.65
367.516	8.5
367.727	9.55
367.938	6.42
368.149	12.64
368.36	9.31
368.571	13.45
368.781	10.44
368.992	8.29
369.203	10.24
369.414	2.97
369.625	-1.34
369.836	0.92
370.047	-3.2
370.258	-0.92
370.468	0.97
370.679	-1.62
370.89	16.49
371.101	13.4
371.312	9.53
371.522	14.91
371.733	9.6
371.944	7.98
372.155	0.86
372.365	-11.38
372.576	-5.22
372.787	-4.65
372.997	-7.62
373.208	2.67
373.419	0.32
373.629	6.1
373.84	3.06
374.05	3.39
374.261	5.22
374.472	4.27
374.682	-1.49
374.893	-2.36
375.103	8.16
375.314	13.85
375.524	11.63
375.735	9.26
375.945	16.32
376.156	19.05
376.366	19.11
376.577	15.87
376.787	14.23
376.997	18.15
377.208	23.09
377.418	19.08
377.629	23.28
377.839	29.8
378.049	27.93
378.26	27.78
378.47	26.14
378.68	23.6
378.89	20.72
379.101	12.69
379.311	4.31
379.521	10.6
379.732	8.96
379.942	7.26
380.152	9.61
380.362	14.62
380.572	22.81
380.783	20.19
380.993	18.11
381.203	13.71
381.413	18.8
381.623	18.62
381.833	14.08
382.043	7.18
382.253	19.42
382.463	15.08
382.674	22.17
382.884	14.32
383.094	12.09
383.304	9.23
383.514	15.93
383.724	8.26
383.934	8.47
384.144	7.8
384.353	4.25
384.563	3.69
384.773	8.99
384.983	6.07
385.193	6.01
385.403	8.37
385.613	2.9
385.823	5.54
386.033	4.82
386.242	3.17
386.452	3.14
386.662	6.7
386.872	4.07
387.082	4.88
387.291	8.22
387.501	5.53
387.711	3.63
387.921	3.07
388.13	0.57
388.34	-0.93
388.55	1.99
388.759	-0.53
388.969	1.25
389.179	3.03
389.388	2.8
389.598	3.34
389.807	4.82
390.017	2.17
390.227	1.12
390.436	2.45
390.646	4
390.855	3.2
391.065	3.16
391.274	1.89
391.484	3.14
391.693	5.99
391.903	4.75
392.112	3.87
392.322	5.03
392.531	5.72
392.74	5.89
392.95	6.37
393.159	5.15
393.369	6.13
393.578	5.6
393.787	5.12
393.997	5.85
394.206	5.99
394.415	5.96
394.625	5.25
394.834	4.42
395.043	5.13
395.252	5.47
395.462	4.41
395.671	4.71
395.88	4.87
396.089	5.26
396.298	5.41
396.508	4.89
396.717	4.22
396.926	4.19
397.135	3.84
397.344	3.77
397.553	4.22
397.762	4.1
397.971	3.99
398.181	3.94
398.39	4.06
398.599	4.26
398.808	4.28
399.017	4.27
399.226	4.43
399.435	4.4
399.644	4.36
399.853	4.64
400.062	4.43
400.27	4.26
400.479	4.15
400.688	4.06
400.897	4.41
401.106	4.69
401.315	4.37
401.524	4.69
401.733	4.58
401.941	4.62
402.15	4.47
402.359	4.37
402.568	4.32
402.777	4.38
402.985	4.23
403.194	4.33
403.403	4.11
403.612	4.16
403.82	4.13
404.029	4.02
404.238	3.99
404.446	4
404.655	3.88
404.864	3.92
405.072	3.98
405.281	3.87
405.489	3.93
405.698	3.83
405.906	3.74
406.115	3.83
406.324	3.78
406.532	3.9
406.741	4.02
406.949	3.98
407.158	4.07
407.366	4.14
407.574	4.19
407.783	4.21
407.991	4.03
408.2	3.97
408.408	3.99
408.617	3.96
408.825	3.87
409.033	3.74
409.242	3.71
409.45	3.8
409.658	3.78
409.867	3.78
410.075	3.74
410.283	3.73
410.491	3.72
410.7	3.73
410.908	3.62
411.116	3.6
411.324	3.64
411.533	3.57
411.741	3.55
411.949	3.57
412.157	3.52
412.365	3.55
412.573	3.51
412.781	3.46
412.99	3.55
413.198	3.61
413.406	3.52
413.614	3.65
413.822	3.64
414.03	3.58
414.238	3.61
414.446	3.55
414.654	3.55
414.862	3.58
415.07	3.52
415.278	3.41
415.486	3.47
415.694	3.33
415.902	3.31
416.109	3.26
416.317	3.25
416.525	3.25
416.733	3.32
416.941	3.19
417.149	3.28
417.357	3.33
417.564	3.33
417.772	3.43
417.98	3.35
418.188	3.21
418.395	3.28
418.603	3.11
418.811	3.04
419.019	3.04
419.226	3.06
419.434	3.08
419.642	3.27
419.849	3.29
420.057	3.47
420.265	3.54
420.472	3.45
420.68	3.29
420.887	3.32
421.095	3.29
421.302	3.36
421.51	3.28
421.717	3.25
421.925	3.18
422.132	3.19
422.34	3.12
422.547	3.02
422.755	2.87
422.962	2.77
423.17	2.72
423.377	2.92
423.585	2.95
423.792	2.98
423.999	3.06
424.207	3.03
424.414	3.16
424.621	3.3
424.829	3.09
425.036	3.03
425.243	3.02
425.451	2.97
425.658	3.06
425.865	2.95
426.072	2.89
426.28	2.96
426.487	2.98
426.694	2.95
426.901	2.96
427.108	2.98
427.315	3
427.523	3.04
427.73	3.15
427.937	3.16
428.144	3.16
428.351	3.2
428.558	3.18
428.765	3.11
428.972	3
429.179	2.9
429.386	2.98
429.593	3.01
429.8	3.05
430.007	3.04
430.214	3.19
430.421	3.26
430.628	3.13
430.835	3.05
431.042	3.01
431.249	2.96
431.456	3.05
431.662	3.02
431.869	3.03
432.076	3.13
432.283	3.1
432.49	3.11
432.697	3.17
432.903	3.15
433.11	3.18
433.317	3.19
433.524	3.13
433.73	3.21
433.937	3.19
434.144	3.19
434.35	3.17
434.557	3.09
434.764	3.07
434.97	3.19
435.177	3.13
435.384	3.24
435.59	3.23
435.797	3.21
436.003	3.23
436.21	3.2
436.416	3.12
436.623	3.17
436.829	3.11
437.036	3.15
437.242	3.21
437.449	3.25
437.655	3.28
437.862	3.33
438.068	3.42
438.275	3.42
438.481	3.46
438.687	3.49
438.894	3.48
439.1	3.52
439.307	3.53
439.513	3.47
439.719	3.5
439.926	3.5
440.132	3.49
440.338	3.55
440.544	3.51
440.751	3.5
440.957	3.43
441.163	3.45
441.369	3.41
441.575	3.36
441.782	3.32
441.988	3.37
442.194	3.43
442.4	3.53
442.606	3.55
442.812	3.59
443.018	3.6
443.224	3.59
443.431	3.6
443.637	3.58
443.843	3.56
444.049	3.5
444.255	3.47
444.461	3.48
444.667	3.47
444.873	3.5
445.079	3.53
445.284	3.51
445.49	3.59
445.696	3.64
445.902	3.72
446.108	3.77
446.314	3.79
446.52	3.82
446.726	3.83
446.931	3.82
447.137	3.78
447.343	3.72
447.549	3.71
447.755	3.59
447.96	3.53
448.166	3.62
448.372	3.64
448.578	3.67
448.783	3.63
448.989	3.67
449.195	3.79
449.4	3.86
449.606	3.75
449.812	3.75
450.017	3.76
450.223	3.79
450.428	3.79
450.634	3.8
450.84	3.74
451.045	3.79
451.251	3.79
451.456	3.77
451.662	3.84
451.867	3.83
452.073	3.79
452.278	3.83
452.483	3.81
452.689	3.84
452.894	3.83
453.1	3.78
453.305	3.77
453.51	3.82
453.716	3.86
453.921	3.87
454.127	3.86
454.332	3.89
454.537	3.94
454.742	3.97
454.948	3.95
455.153	3.96
455.358	4.06
455.563	4.09
455.769	4.12
455.974	4.11
456.179	4.07
456.384	4.09
456.589	4.15
456.795	4.09
457	4.13
457.205	4.11
457.41	4.14
457.615	4.24
457.82	4.31
458.025	4.29
458.23	4.35
458.435	4.26
458.64	4.34
458.845	4.32
459.05	4.29
459.255	4.28
459.46	4.31
459.665	4.37
459.87	4.46
460.075	4.44
460.28	4.55
460.485	4.64
460.69	4.61
460.895	4.61
461.099	4.57
461.304	4.58
461.509	4.58
461.714	4.57
461.919	4.54
462.123	4.67
462.328	4.7
462.533	4.77
462.738	4.8
462.942	4.84
463.147	4.86
463.352	4.93
463.556	4.91
463.761	4.91
463.966	4.95
464.17	5.03
464.375	5.08
464.58	5.05
464.784	5.06
464.989	5.08
465.193	5.18
465.398	5.21
465.602	5.2
465.807	5.24
466.011	5.33
466.216	5.38
466.42	5.47
466.625	5.47
466.829	5.5
467.034	5.55
467.238	5.57
467.443	5.61
467.647	5.68
467.851	5.65
468.056	5.65
468.26	5.66
468.464	5.69
468.669	5.74
468.873	5.74
469.077	5.73
469.282	5.79
469.486	5.92
469.69	5.91
469.894	5.99
470.099	6.05
470.303	6.08
470.507	6.08
470.711	6.06
470.915	6.07
471.119	6.15
471.324	6.12
471.528	6.16
471.732	6.19
471.936	6.27
472.14	6.32
472.344	6.32
472.548	6.38
472.752	6.42
472.956	6.45
473.16	6.49
473.364	6.47
473.568	6.48
473.772	6.54
473.976	6.54
474.18	6.5
474.384	6.45
474.588	6.47
474.792	6.51
474.995	6.59
475.199	6.6
475.403	6.59
475.607	6.64
475.811	6.69
476.015	6.71
476.218	6.7
476.422	6.67
476.626	6.64
476.83	6.68
477.033	6.73
477.237	6.75
477.441	6.75
477.644	6.76
477.848	6.76
478.052	6.79
478.255	6.78
478.459	6.8
478.663	6.8
478.866	6.81
479.07	6.83
479.273	6.88
479.477	6.94
479.681	6.98
479.884	6.92
480.088	6.93
480.291	6.99
480.495	7.01
480.698	6.97
480.901	6.91
481.105	6.93
481.308	6.97
481.512	6.97
481.715	6.94
481.919	6.93
482.122	6.96
482.325	7
482.529	7.02
482.732	7.04
482.935	7.06
483.138	7.05
483.342	7.07
483.545	7.06
483.748	7.05
483.952	7.03
484.155	7.01
484.358	6.95
484.561	6.96
484.764	6.98
484.967	7.01
485.171	7
485.374	7.01
485.577	7.03
485.78	7.07
485.983	7.08
486.186	7.04
486.389	7.01
486.592	7.02
486.795	7
486.998	7.04
487.201	7.04
487.404	7.05
487.607	7.07
487.81	7.09
488.013	7.1
488.216	7.05
488.419	7.01
488.622	6.98
488.825	6.95
489.028	6.92
489.231	6.89
489.433	6.86
489.636	6.88
489.839	6.86
490.042	6.88
490.245	6.88
490.447	6.89
490.65	6.89
490.853	6.88
491.056	6.87
491.258	6.88
491.461	6.83
491.664	6.78
491.866	6.81
492.069	6.8
492.272	6.78
492.474	6.78
492.677	6.75
492.879	6.74
493.082	6.8
493.285	6.75
493.487	6.76
493.69	6.74
493.892	6.79
494.095	6.77
494.297	6.84
494.5	6.85
494.702	6.83
494.905	6.86
495.107	6.87
495.309	6.8
495.512	6.84
495.714	6.83
495.917	6.83
496.119	6.85
496.321	6.86
496.524	6.9
496.726	6.91
496.928	6.91
497.13	6.92
497.333	6.93
497.535	6.91
497.737	6.86
497.939	6.87
498.142	6.88
498.344	6.84
498.546	6.83
498.748	6.76
498.95	6.75
499.152	6.7
499.355	6.68
499.557	6.67
499.759	6.7
499.961	6.72
500.163	6.78
500.365	6.77
500.567	6.82
500.769	6.86
500.971	6.89
501.173	6.9
501.375	6.86
501.577	6.86
501.779	6.87
501.981	6.87
502.183	6.84
502.385	6.82
502.587	6.83
502.788	6.83
502.99	6.79
503.192	6.81
503.394	6.8
503.596	6.82
503.798	6.88
503.999	6.9
504.201	6.88
504.403	6.92
504.605	6.9
504.806	6.89
505.008	6.85
505.21	6.82
505.411	6.81
505.613	6.86
505.815	6.87
506.016	6.91
506.218	6.94
506.42	7
506.621	7.01
506.823	7.05
507.024	7.05
507.226	7
507.427	6.93
507.629	6.95
507.83	6.87
508.032	6.91
508.233	6.89
508.435	6.9
508.636	6.93
508.838	7.01
509.039	7.01
509.24	7.07
509.442	7.01
509.643	7.02
509.845	7.01
510.046	7.02
510.247	7.02
510.448	7.03
510.65	7.04
510.851	7.08
511.052	7.08
511.254	7.11
511.455	7.08
511.656	7.08
511.857	7.08
512.058	7.11
512.26	7.09
512.461	7.1
512.662	7.06
512.863	7.07
513.064	7.04
513.265	7.09
513.466	7.09
513.667	7.12
513.868	7.1
514.069	7.12
514.27	7.14
514.471	7.19
514.672	7.16
514.873	7.15
515.074	7.14
515.275	7.15
515.476	7.17
515.677	7.2
515.878	7.18
516.079	7.21
516.28	7.21
516.481	7.19
516.682	7.2
516.882	7.21
517.083	7.2
517.284	7.17
517.485	7.18
517.686	7.2
517.886	7.23
518.087	7.24
518.288	7.18
518.488	7.15
518.689	7.17
518.89	7.15
519.091	7.13
519.291	7.12
519.492	7.13
519.692	7.18
519.893	7.19
520.094	7.19
520.294	7.2
520.495	7.22
520.695	7.23
520.896	7.18
521.096	7.2
521.297	7.22
521.497	7.24
521.698	7.22
521.898	7.2
522.099	7.19
522.299	7.23
522.499	7.23
522.7	7.21
522.9	7.21
523.101	7.23
523.301	7.24
523.501	7.25
523.702	7.21
523.902	7.23
524.102	7.25
524.302	7.24
524.503	7.25
524.703	7.24
524.903	7.28
525.103	7.34
525.304	7.33
525.504	7.3
525.704	7.3
525.904	7.3
526.104	7.36
526.304	7.31
526.504	7.29
526.705	7.28
526.905	7.29
527.105	7.29
527.305	7.29
527.505	7.26
527.705	7.28
527.905	7.26
528.105	7.25
528.305	7.28
528.505	7.32
528.705	7.32
528.905	7.34
529.105	7.35
529.304	7.4
529.504	7.43
529.704	7.45
529.904	7.45
530.104	7.47
530.304	7.46
530.503	7.45
530.703	7.46
530.903	7.48
531.103	7.46
531.303	7.47
531.502	7.47
531.702	7.46
531.902	7.47
532.101	7.46
532.301	7.45
532.501	7.48
532.7	7.49
532.9	7.52
533.1	7.51
533.299	7.57
533.499	7.6
533.698	7.64
533.898	7.65
534.097	7.69
534.297	7.67
534.496	7.69
534.696	7.67
534.895	7.68
535.095	7.7
535.294	7.71
535.494	7.73
535.693	7.75
535.892	7.79
536.092	7.81
536.291	7.82
536.491	7.83
536.69	7.84
536.889	7.81
537.088	7.83
537.288	7.88
537.487	7.88
537.686	7.91
537.886	7.91
538.085	7.95
538.284	7.97
538.483	7.99
538.682	7.99
538.882	8.01
539.081	8.03
539.28	8.04
539.479	8.06
539.678	8.1
539.877	8.13
540.076	8.14
540.275	8.2
540.474	8.18
540.673	8.22
540.872	8.23
541.071	8.27
541.27	8.27
541.469	8.29
541.668	8.33
541.867	8.4
542.066	8.41
542.265	8.45
542.464	8.48
542.663	8.56
542.862	8.6
543.06	8.62
543.259	8.66
543.458	8.67
543.657	8.7
543.856	8.72
544.054	8.74
544.253	8.75
544.452	8.74
544.651	8.77
544.849	8.8
545.048	8.83
545.247	8.85
545.445	8.83
545.644	8.88
545.843	8.95
546.041	8.99
546.24	9.06
546.438	9.11
546.637	9.18
546.836	9.24
547.034	9.29
547.233	9.35
547.431	9.34
547.63	9.43
547.828	9.48
548.027	9.5
548.225	9.6
548.423	9.66
548.622	9.7
548.82	9.77
549.019	9.76
549.217	9.85
549.415	9.9
549.614	9.91
549.812	9.95
550.01	10
550.209	10.06
550.407	10.16
550.605	10.2
550.803	10.26
551.002	10.32
551.2	10.38
551.398	10.39
551.596	10.44
551.794	10.51
551.993	10.55
552.191	10.63
552.389	10.72
552.587	10.79
552.785	10.9
552.983	11.01
553.181	11.08
553.379	11.13
553.577	11.19
553.775	11.21
553.973	11.3
554.171	11.34
554.369	11.36
554.567	11.38
554.765	11.48
554.963	11.54
555.161	11.62
555.359	11.66
555.557	11.75
555.755	11.88
555.952	11.98
556.15	12.04
556.348	12.14
556.546	12.22
556.744	12.34
556.941	12.47
557.139	12.53
557.337	12.61
557.535	12.74
557.732	12.81
557.93	12.9
558.128	12.94
558.325	12.99
558.523	13.07
558.721	13.17
558.918	13.22
559.116	13.3
559.313	13.42
559.511	13.51
559.708	13.58
559.906	13.65
560.104	13.71
560.301	13.79
560.498	13.86
560.696	13.94
560.893	14.04
561.091	14.11
561.288	14.21
561.486	14.32
561.683	14.43
561.88	14.54
562.078	14.63
562.275	14.72
562.473	14.86
562.67	14.92
562.867	15.06
563.064	15.16
563.262	15.29
563.459	15.38
563.656	15.5
563.853	15.55
564.051	15.66
564.248	15.73
564.445	15.77
564.642	15.86
564.839	15.96
565.036	16.05
565.234	16.15
565.431	16.24
565.628	16.32
565.825	16.44
566.022	16.47
566.219	16.53
566.416	16.62
566.613	16.73
566.81	16.83
567.007	16.85
567.204	16.9
567.401	16.98
567.598	17.04
567.795	17.05
567.991	17.15
568.188	17.18
568.385	17.32
568.582	17.46
568.779	17.55
568.976	17.62
569.172	17.7
569.369	17.69
569.566	17.76
569.763	17.75
569.96	17.77
570.156	17.79
570.353	17.83
570.55	17.9
570.746	17.98
570.943	18.04
571.14	18.1
571.336	18.12
571.533	18.17
571.729	18.22
571.926	18.2
572.123	18.21
572.319	18.23
572.516	18.26
572.712	18.3
572.909	18.32
573.105	18.38
573.302	18.39
573.498	18.4
573.695	18.44
573.891	18.44
574.087	18.42
574.284	18.43
574.48	18.35
574.677	18.37
574.873	18.39
575.069	18.41
575.266	18.48
575.462	18.51
575.658	18.54
575.854	18.66
576.051	18.71
576.247	18.69
576.443	18.64
576.639	18.6
576.835	18.61
577.032	18.59
577.228	18.57
577.424	18.53
577.62	18.59
577.816	18.66
578.012	18.7
578.208	18.69
578.404	18.71
578.6	18.7
578.796	18.74
578.993	18.69
579.189	18.62
579.384	18.58
579.58	18.58
579.776	18.57
579.972	18.5
580.168	18.46
580.364	18.41
580.56	18.43
580.756	18.42
580.952	18.38
581.148	18.36
581.343	18.38
581.539	18.32
581.735	18.3
581.931	18.3
582.127	18.26
582.322	18.24
582.518	18.19
582.714	18.19
582.909	18.21
583.105	18.22
583.301	18.16
583.496	18.11
583.692	18.09
583.888	18.09
584.083	18.09
584.279	18.1
584.474	18.1
584.67	18.09
584.866	18.11
585.061	18.11
585.257	18.12
585.452	18.07
585.648	18.01
585.843	17.99
586.039	17.97
586.234	17.94
586.429	17.92
586.625	17.88
586.82	17.84
587.015	17.82
587.211	17.84
587.406	17.88
587.601	17.93
587.797	17.9
587.992	17.88
588.187	17.95
588.383	17.99
588.578	17.92
588.773	17.91
588.968	17.96
589.163	18.01
589.359	18.03
589.554	18.02
589.749	18.01
589.944	18.05
590.139	18.04
590.334	17.96
590.529	18.01
590.724	18.03
590.919	18.04
591.114	18.1
591.309	18.14
591.504	18.18
591.699	18.2
591.894	18.2
592.089	18.19
592.284	18.22
592.479	18.23
592.674	18.23
592.869	18.28
593.064	18.4
593.259	18.4
593.454	18.45
593.648	18.46
593.843	18.51
594.038	18.59
594.233	18.63
594.428	18.65
594.622	18.7
594.817	18.78
595.012	18.87
595.206	18.9
595.401	18.95
595.596	19.01
595.79	19.04
595.985	19.12
596.18	19.18
596.374	19.21
596.569	19.32
596.763	19.4
596.958	19.44
597.153	19.52
597.347	19.59
597.542	19.63
597.736	19.72
597.931	19.75
598.125	19.83
598.319	19.88
598.514	19.9
598.708	19.97
598.903	20.03
599.097	20.11
599.291	20.22
599.486	20.23
599.68	20.29
599.874	20.39
600.069	20.45
600.263	20.45
600.457	20.49
600.651	20.46
600.846	20.45
601.04	20.53
601.234	20.56
601.428	20.57
601.622	20.66
601.817	20.68
602.011	20.74
602.205	20.8
602.399	20.8
602.593	20.79
602.787	20.84
602.981	20.86
603.175	20.85
603.369	20.82
603.563	20.87
603.757	20.85
603.951	20.85
604.145	20.81
604.339	20.77
604.533	20.75
604.727	20.73
604.921	20.63
605.115	20.61
605.309	20.62
605.502	20.59
605.696	20.56
605.89	20.57
606.084	20.54
606.278	20.58
606.471	20.54
606.665	20.46
606.859	20.46
607.053	20.38
607.246	20.3
607.44	20.25
607.634	20.16
607.827	20.13
608.021	20.04
608.214	19.95
608.408	19.92
608.602	19.85
608.795	19.78
608.989	19.71
609.182	19.64
609.376	19.58
609.569	19.51
609.763	19.46
609.956	19.36
610.15	19.32
610.343	19.26
610.537	19.2
610.73	19.14
610.923	19.09
611.117	18.97
611.31	18.94
611.504	18.91
611.697	18.9
611.89	18.79
612.083	18.72
612.277	18.59
612.47	18.56
612.663	18.53
612.856	18.34
613.05	18.24
613.243	18.19
613.436	18.09
613.629	18.09
613.822	17.99
614.015	17.89
614.209	17.91
614.402	17.79
614.595	17.69
614.788	17.65
614.981	17.51
615.174	17.44
615.367	17.33
615.56	17.21
615.753	17.19
615.946	17.21
616.139	17.07
616.332	17.03
616.525	17.01
616.718	16.97
616.911	16.98
617.103	16.9
617.296	16.79
617.489	16.85
617.682	16.83
617.875	16.79
618.067	16.74
618.26	16.63
618.453	16.56
618.646	16.49
618.838	16.45
619.031	16.37
619.224	16.35
619.417	16.34
619.609	16.31
619.802	16.28
619.994	16.29
620.187	16.22
620.38	16.2
620.572	16.17
620.765	16.08
620.957	16.02
621.15	16
621.342	15.94
621.535	15.93
621.727	15.9
621.92	15.85
622.112	15.88
622.305	15.88
622.497	15.84
622.69	15.8
622.882	15.78
623.074	15.78
623.267	15.71
623.459	15.69
623.651	15.66
623.844	15.68
624.036	15.7
624.228	15.67
624.42	15.61
624.613	15.62
624.805	15.6
624.997	15.58
625.189	15.53
625.381	15.44
625.574	15.42
625.766	15.42
625.958	15.41
626.15	15.35
626.342	15.34
626.534	15.31
626.726	15.36
626.918	15.28
627.11	15.27
627.302	15.24
627.494	15.24
627.686	15.21
627.878	15.17
628.07	15.12
628.262	15.09
628.454	15.05
628.646	15
628.838	14.93
629.029	14.85
629.221	14.84
629.413	14.8
629.605	14.76
629.797	14.71
629.989	14.71
630.18	14.7
630.372	14.72
630.564	14.66
630.755	14.61
630.947	14.59
631.139	14.53
631.33	14.47
631.522	14.41
631.714	14.4
631.905	14.38
632.097	14.38
632.289	14.36
632.48	14.32
632.672	14.31
632.863	14.33
633.055	14.27
633.246	14.25
633.438	14.24
633.629	14.23
633.821	14.23
634.012	14.19
634.203	14.16
634.395	14.16
634.586	14.16
634.777	14.1
634.969	14.07
635.16	14.03
635.351	14.01
635.543	13.99
635.734	13.94
635.925	13.95
636.117	13.95
636.308	13.93
636.499	13.92
636.69	13.95
636.881	13.97
637.073	13.99
637.264	13.94
637.455	13.95
637.646	13.97
637.837	13.98
638.028	13.99
638.219	13.92
638.41	13.84
638.601	13.84
638.792	13.74
638.983	13.66
639.174	13.64
639.365	13.55
639.556	13.51
639.747	13.55
639.938	13.51
640.129	13.5
640.32	13.5
640.511	13.46
640.701	13.44
640.892	13.44
641.083	13.38
641.274	13.35
641.465	13.35
641.655	13.34
641.846	13.29
642.037	13.25
642.228	13.25
642.418	13.21
642.609	13.15
642.8	13.11
642.99	13.1
643.181	13.1
643.372	13.08
643.562	13.03
643.753	12.99
643.943	12.99
644.134	13
644.324	12.96
644.515	12.95
644.705	12.94
644.896	12.87
645.086	12.85
645.277	12.88
645.467	12.83
645.658	12.77
645.848	12.75
646.038	12.69
646.229	12.74
646.419	12.72
646.61	12.67
646.8	12.65
646.99	12.64
647.18	12.61
647.371	12.61
647.561	12.59
647.751	12.57
647.941	12.53
648.132	12.58
648.322	12.6
648.512	12.62
648.702	12.6
648.892	12.61
649.082	12.57
649.272	12.54
649.462	12.49
649.653	12.45
649.843	12.34
650.033	12.29
650.223	12.25
650.413	12.28
650.603	12.27
650.793	12.18
650.983	12.16
651.172	12.15
651.362	12.17
651.552	12.07
651.742	12.01
651.932	12
652.122	12.03
652.312	11.9
652.502	11.84
652.691	11.8
652.881	11.79
653.071	11.74
653.261	11.7
653.45	11.62
653.64	11.7
653.83	11.67
654.019	11.53
654.209	11.44
654.399	11.37
654.588	11.27
654.778	11.19
654.968	11.02
655.157	10.93
655.347	10.85
655.536	10.71
655.726	10.62
655.915	10.47
656.105	10.38
656.294	10.29
656.484	10.2
656.673	10.11
656.863	10.04
657.052	9.89
657.241	9.81
657.431	9.69
657.62	9.57
657.809	9.43
657.999	9.31
658.188	9.23
658.377	9.19
658.567	9.05
658.756	8.92
658.945	8.8
659.134	8.66
659.324	8.54
659.513	8.39
659.702	8.24
659.891	8.13
660.08	8.05
660.269	7.94
660.458	7.86
660.648	7.75
660.837	7.69
661.026	7.61
661.215	7.53
661.404	7.45
661.593	7.37
661.782	7.26
661.971	7.13
662.16	7.01
662.349	6.87
662.538	6.79
662.726	6.68
662.915	6.6
663.104	6.52
663.293	6.54
663.482	6.49
663.671	6.44
663.86	6.38
664.048	6.29
664.237	6.27
664.426	6.22
664.615	6.1
664.803	6.02
664.992	6
665.181	5.96
665.369	5.94
665.558	5.87
665.747	5.94
665.935	5.99
666.124	5.99
666.312	5.93
666.501	5.89
666.69	5.83
666.878	5.78
667.067	5.71
667.255	5.65
667.444	5.62
667.632	5.61
667.82	5.62
668.009	5.66
668.197	5.65
668.386	5.63
668.574	5.62
668.762	5.6
668.951	5.59
669.139	5.6
669.327	5.61
669.516	5.65
669.704	5.62
669.892	5.64
670.08	5.65
670.269	5.68
670.457	5.69
670.645	5.65
670.833	5.63
671.021	5.62
671.21	5.64
671.398	5.69
671.586	5.72
671.774	5.71
671.962	5.75
672.15	5.77
672.338	5.8
672.526	5.77
672.714	5.77
672.902	5.78
673.09	5.79
673.278	5.84
673.466	5.95
673.654	5.99
673.842	6.05
674.03	6.07
674.218	6.1
674.405	6.19
674.593	6.19
674.781	6.19
674.969	6.25
675.157	6.31
675.344	6.38
675.532	6.45
675.72	6.48
675.908	6.53
676.095	6.64
676.283	6.67
676.471	6.71
676.658	6.79
676.846	6.85
677.033	6.91
677.221	7.01
677.409	7.02
677.596	7.19
677.784	7.25
677.971	7.3
678.159	7.4
678.346	7.43
678.534	7.42
678.721	7.45
678.909	7.41
679.096	7.43
679.283	7.47
679.471	7.5
679.658	7.62
679.846	7.7
680.033	7.83
680.22	7.83
680.408	7.94
680.595	7.98
680.782	8.03
680.969	8.01
681.157	8.1
681.344	8.19
681.531	8.3
681.718	8.41
681.905	8.54
682.093	8.68
682.28	8.89
682.467	8.96
682.654	8.97
682.841	9.07
683.028	9.23
683.215	9.33
683.402	9.41
683.589	9.48
683.776	9.61
683.963	9.79
684.15	9.96
684.337	10.06
684.524	10.27
684.711	10.42
684.898	10.58
685.085	10.77
685.271	10.94
685.458	11.14
685.645	11.29
685.832	11.45
686.019	11.63
686.205	11.81
686.392	12.03
686.579	12.22
686.766	12.45
686.952	12.82
687.139	13.1
687.326	13.4
687.512	13.8
687.699	14.15
687.886	14.45
688.072	14.85
688.259	15.15
688.445	15.44
688.632	15.83
688.818	16.19
689.005	16.62
689.191	17.09
689.378	17.46
689.564	17.88
689.751	18.44
689.937	18.9
690.124	19.33
690.31	19.77
690.496	20.25
690.683	20.76
690.869	21.25
691.055	21.76
691.242	22.27
691.428	22.84
691.614	23.38
691.8	24.03
691.987	24.74
692.173	25.43
692.359	26.16
692.545	26.82
692.731	27.51
692.918	28.23
693.104	28.79
693.29	29.44
693.476	30.05
693.662	30.6
693.848	31.29
694.034	31.91
694.22	32.62
694.406	33.45
694.592	34.01
694.778	34.66
694.964	35.29
695.15	35.92
695.336	36.73
695.522	37.4
695.708	38.08
695.894	38.89
696.08	39.65
696.265	40.38
696.451	41.23
696.637	41.86
696.823	42.61
697.009	43.26
697.194	43.93
697.38	44.53
697.566	45.25
697.751	45.75
697.937	46.4
698.123	47.02
698.308	47.69
698.494	48.23
698.68	49.01
698.865	49.65
699.051	50.45
699.236	51.18
699.422	51.76
699.607	52.38
699.793	53.04
699.978	53.54
700.164	54.07
700.349	54.61
700.535	55.11
700.72	55.86
700.906	56.35
701.091	56.71
701.276	57.29
701.462	57.96
701.647	58.46
701.832	59.03
702.018	59.32
702.203	59.77
702.388	60.44
702.573	61.14
702.759	61.61
702.944	62.12
703.129	62.45
703.314	63
703.499	63.63
703.684	64.31
703.87	64.67
704.055	65.01
704.24	65.61
704.425	66.25
704.61	66.75
704.795	67.21
704.98	67.59
705.165	68.05
705.35	68.45
705.535	68.79
705.72	69.1
705.905	69.27
706.09	69.49
706.275	69.71
706.459	70.05
706.644	70.56
706.829	70.86
707.014	71.22
707.199	71.63
707.384	72.15
707.568	72.57
707.753	72.92
707.938	73.17
708.123	73.33
708.307	73.81
708.492	74.12
708.677	74.28
708.861	74.53
709.046	74.54
709.231	74.87
709.415	75.29
709.6	75.33
709.784	75.7
709.969	76.11
710.153	76.74
710.338	77.25
710.522	77.38
710.707	77.31
710.891	77.7
711.076	77.7
711.26	77.9
711.445	77.75
711.629	78.2
711.813	78.36
711.998	78.96
712.182	79.16
712.366	79.71
712.551	79.91
712.735	80.18
712.919	80.22
713.103	80.6
713.288	80.73
713.472	80.82
713.656	80.68
713.84	80.83
714.024	81.16
714.208	81.19
714.393	81.52
714.577	81.67
714.761	82
714.945	82.28
715.129	82.64
715.313	82.75
715.497	82.85
715.681	83.05
715.865	83.45
716.049	83.67
716.233	84.1
716.417	84.32
716.601	84.38
716.785	84.61
716.968	84.47
717.152	84.53
717.336	84.51
717.52	84.44
717.704	84.44
717.888	84.71
718.071	85.04
718.255	85.25
718.439	85.15
718.622	85.55
718.806	85.5
718.99	85.62
719.174	85.59
719.357	85.45
719.541	85.82
719.724	86.08
719.908	85.66
720.092	86.18
720.275	86.41
720.459	86.33
720.642	86.49
720.826	86.27
721.009	86.37
721.193	86.48
721.376	86.21
721.559	86.21
721.743	86.44
721.926	86.53
722.11	86.83
722.293	86.39
722.476	86.72
722.66	86.94
722.843	87.17
723.026	87.33
723.21	87.47
723.393	87.6
723.576	88.12
723.759	88.28
723.942	88.33
724.126	88.04
724.309	88.19
724.492	88.16
724.675	87.98
724.858	88
725.041	88.1
725.224	88.32
725.407	88.26
725.59	88.14
725.774	88.16
725.957	88.36
726.14	88.31
726.322	88.35
726.505	88.65
726.688	88.91
726.871	88.97
727.054	89.34
727.237	89.02
727.42	89.56
727.603	89.53
727.786	89.59
727.968	89.97
728.151	90.28
728.334	90.12
728.517	90.58
728.699	90.48
728.882	91.14
729.065	91.26
729.248	91
729.43	91.04
729.613	91.4
729.796	91.41
729.978	91.61
730.161	91.49
730.343	91.29
730.526	91.72
730.708	92.01
730.891	91.84
731.073	91.91
731.256	91.83
731.438	91.88
731.621	92.3
731.803	92.43
731.986	92.4
732.168	92.61
732.35	92.93
732.533	93.25
732.715	93.01
732.898	92.97
733.08	93.37
733.262	93.3
733.444	93.48
733.627	93.47
733.809	93.35
733.991	93.5
734.173	92.92
734.355	92.64
734.538	92.51
734.72	92.96
734.902	92.91
735.084	93.3
735.266	93.34
735.448	93.99
735.63	93.69
735.812	93.96
735.994	93.23
736.176	93.38
736.358	93.25
736.54	93.25
736.722	92.98
736.904	93.03
737.086	93.18
737.268	93.59
737.45	93.74
737.632	93.23
737.814	93.33
737.995	93.64
738.177	93.99
738.359	94.14
738.541	93.66
738.723	93.57
738.904	93.73
739.086	94
739.268	94.46
739.449	94.41
739.631	94.24
739.813	94.58
739.994	95.24
740.176	95.28
740.358	94.87
740.539	94.32
740.721	93.94
740.902	94
741.084	93.88
741.265	93.42
741.447	93.44
741.628	93.59
741.81	93.69
741.991	94.54
742.172	94.21
742.354	94.94
742.535	94.95
742.717	95.55
742.898	95.64
743.079	95.19
743.261	95.09
743.442	95.49
743.623	94.96
743.804	94.68
743.986	93.92
744.167	94
744.348	94.37
744.529	93.35
744.71	92.74
744.891	92.65
745.073	92.83
745.254	93.24
745.435	92.72
745.616	92.92
745.797	93.31
745.978	94.5
746.159	94.57
746.34	94.68
746.521	94.58
746.702	94.57
746.883	94.94
747.064	94.99
747.245	94.79
747.426	94.76
747.606	94.62
747.787	95.14
747.968	96.21
748.149	95.3
748.33	96.12
748.51	95.4
748.691	95.3
748.872	95.23
749.053	94.14
749.233	92.91
749.414	93.61
749.595	92.65
749.775	92.85
749.956	92.28
750.137	91.9
750.317	92.42
750.498	92.82
750.678	92.53
750.859	92.96
751.04	92.65
751.22	93.08
751.4	93.78
751.581	93.9
751.761	94.39
751.942	94.42
752.122	93.84
752.303	93.94
752.483	95
752.663	95.29
752.844	94.4
753.024	94.13
753.204	94.18
753.385	94.4
753.565	94.64
753.745	93.32
753.925	92.14
754.106	93
754.286	92.9
754.466	92.82
754.646	92.68
754.826	92.57
755.006	93
755.187	93.82
755.367	93.43
755.547	93.94
755.727	93.72
755.907	94.65
756.087	94.49
756.267	94.64
756.447	94.4
756.627	94.96
756.807	95.34
756.987	96.23
757.167	95.27
757.346	95.21
757.526	94.87
757.706	95.05
757.886	95.2
758.066	94.22
758.246	93.7
758.425	93.85
758.605	93.95
758.785	94.04
758.965	92.7
759.144	92.77
759.324	93.49
759.504	92.99
759.683	93.63
759.863	94.1
760.043	93.81
760.222	94.59
760.402	94.44
760.581	93.5
760.761	92.49
760.94	91.77
761.12	90.88
761.299	90.58
761.479	91.19
761.658	90.37
761.838	90.75
762.017	91.76
762.197	92.49
762.376	92.97
762.555	93.87
762.735	92.2
762.914	92.77
763.093	92.16
763.273	92.43
763.452	91.86
763.631	90.87
763.81	91.52
763.99	93.08
764.169	93.38
764.348	93.51
764.527	93.2
764.706	93.24
764.885	93.63
765.064	92.92
765.243	92.91
765.423	93.45
765.602	92.85
765.781	93.09
765.96	92.67
766.139	92.39
766.318	91.95
766.497	91.67
766.676	91.21
766.854	91.7
767.033	91.31
767.212	91.78
767.391	92.13
767.57	92.09
767.749	92.49
767.928	90.83
768.106	91.48
768.285	90.87
768.464	90.01
768.643	90.59
768.821	90.82
769	90.43
769.179	90.39
769.357	89.67
769.536	90.28
769.715	90.85
769.893	90.07
770.072	89.52
770.25	89.05
770.429	90.01
770.607	90.34
770.786	90.11
770.964	90.16
771.143	89.84
771.321	89.7
771.5	89.93
771.678	89.92
771.857	89.52
772.035	90.58
772.213	90.32
772.392	90.98
772.57	91.47
772.748	90.4
772.927	90.45
773.105	91.29
773.283	89.37
773.461	88.69
773.64	87.84
773.818	86.71
773.996	86.74
774.174	86.88
774.352	86.11
774.531	85.34
774.709	86.8
774.887	87.58
775.065	87.46
775.243	89.03
775.421	88.72
775.599	87.61
775.777	90.25
775.955	88.32
776.133	86.47
776.311	86.87
776.489	85.7
776.667	85.55
776.844	86.31
777.022	85.1
777.2	86.37
777.378	88.81
777.556	89.71
777.734	89.39
777.911	90.27
778.089	89.91
778.267	89.2
778.445	88.48
778.622	87.24
778.8	86.7
778.978	87.2
779.155	85.36
779.333	84.26
779.511	84.53
779.688	83.9
779.866	84.72
780.043	84.4
780.221	84.89
780.398	86.4
780.576	87.33
780.753	86.98
780.931	88.58
781.108	88.42
781.286	87.15
781.463	87.01
781.64	85.81
781.818	85.73
781.995	86.18
782.172	84.5
782.35	81.62
782.527	84.94
782.704	83.21
782.882	84.85
783.059	85.11
783.236	86.37
783.413	87.15
783.59	88.12
783.768	85.89
783.945	88.69
784.122	87.61
784.299	87.66
784.476	86.56
784.653	85.6
784.83	86.25
785.007	85.47
785.184	83.55
785.361	82.01
785.538	82.01
785.715	81.74
785.892	81.82
786.069	82.21
786.246	82.72
786.423	83.82
786.6	84.8
786.776	84.91
786.953	83.81
787.13	85.57
787.307	85.99
787.484	86.35
787.66	86.09
787.837	85.17
788.014	84.06
788.191	85.06
788.367	82.52
788.544	82.67
788.721	82.69
788.897	83.95
789.074	84.59
789.25	86.35
789.427	87.58
789.603	90.63
789.78	92.12
789.956	91.1
790.133	88.54
790.309	87.35
790.486	87.73
790.662	86.89
790.839	88.08
791.015	87.59
791.192	86.81
791.368	89.8
791.544	91.36
791.721	89.01
791.897	88.2
792.073	84.97
792.249	83
792.426	83.35
792.602	79.91
792.778	79.5
792.954	81.4
793.13	82.59
793.307	81.25
793.483	80.47
793.659	82.22
793.835	82.88
794.011	80.97
794.187	78.29
794.363	78.89
794.539	79.29
794.715	78.49
794.891	75.84
795.067	74.68
795.243	76.13
795.419	77.76
795.595	75.58
795.771	78.38
795.947	78.86
796.122	79.49
796.298	80.55
796.474	81.06
796.65	79.66
796.826	82.45
797.001	81.6
797.177	82.85
797.353	89.27
797.529	89.85
797.704	90.15
797.88	90.98
798.056	88.68
798.231	84.52
798.407	84.37
798.582	79.07
798.758	80.12
798.934	79.82
799.109	78.61
799.285	78.44
799.46	82.43
799.636	82.58
799.811	82.61
799.986	84.11
800.162	83.52
800.337	82.76
800.513	84.67
800.688	83.73
800.863	81.95
801.039	80.68
801.214	78.85
801.389	78.29
801.565	82.24
801.74	81.32
801.915	80.51
802.09	81.05
802.265	82.58
802.441	81.17
802.616	81.59
802.791	79.89
802.966	77.16
803.141	73.77
803.316	75.39
803.491	73.29
803.666	71.63
803.841	74.88
804.016	75.09
804.191	77.73
804.366	80.73
804.541	81.02
804.716	79.63
804.891	85.64
805.066	85.11
805.241	83.18
805.416	81.92
805.591	84.25
805.765	81.71
805.94	85.93
806.115	78.96
806.29	77.93
806.464	80.59
806.639	78.76
806.814	74.4
806.989	76.12
807.163	74.13
807.338	77.5
807.512	73.66
807.687	71.41
807.862	74.11
808.036	75.69
808.211	78.72
808.385	77.49
808.56	76.71
808.734	75.23
808.909	74.94
809.083	74.71
809.258	81.78
809.432	76.28
809.606	77.89
809.781	78.78
809.955	82.07
810.13	87.81
810.304	87.1
810.478	83.88
810.652	87.85
810.827	84.08
811.001	84.15
811.175	81.06
811.349	75.89
811.524	77
811.698	76.43
811.872	78.48
812.046	79.5
812.22	76.09
812.394	74.49
812.568	75.19
812.742	72.12
812.916	68.56
813.09	58.46
813.264	58.38
813.438	63.25
813.612	67.11
813.786	67.28
813.96	72.23
814.134	73.39
814.308	77.11
814.482	77.52
814.656	79.35
814.83	78.37
815.003	80.44
815.177	78.4
815.351	80.62
815.525	80.46
815.698	77.97
815.872	74.12
816.046	75.49
816.219	75.65
816.393	73.09
816.567	69.6
816.74	72.18
816.914	77.81
817.088	77.01
817.261	76.87
817.435	75.15
817.608	74.09
817.782	77.33
817.955	76.7
818.129	77.76
818.302	76.78
818.475	80.41
818.649	77.51
818.822	78.85
818.996	78.24
819.169	74.78
819.342	68.87
819.516	70.46
819.689	67.68
819.862	64.69
820.035	64.42
820.209	61.16
820.382	60.86
820.555	65.16
820.728	57.31
820.901	58.07
821.075	65.54
821.248	64.01
821.421	62.94
821.594	68.83
821.767	65.44
821.94	65.62
822.113	68.57
822.286	67.3
822.459	77.16
822.632	78.74
822.805	74.36
822.978	73.62
823.151	77.3
823.324	67.12
823.496	57.24
823.669	54.05
823.842	56.18
824.015	49.02
824.188	52.23
824.361	52.89
824.533	60.41
824.706	78.1
824.879	69.04
825.051	74.26
825.224	84.63
825.397	75.42
825.569	79.26
825.742	79.54
825.915	73.52
826.087	71.43
826.26	63.16
826.432	60.39
826.605	62.69
826.777	57.2
826.95	52.37
827.122	54.69
827.295	61.05
827.467	59.26
827.64	51.58
827.812	50.67
827.984	52.47
828.157	55.07
828.329	56.78
828.501	56.77
828.674	60.31
828.846	63.74
829.018	59.92
829.19	58.54
829.363	59.57
829.535	48.06
829.707	41.74
829.879	41.04
830.051	43.61
830.223	41.83
830.395	41.02
830.568	44.49
830.74	51.71
830.912	54.42
831.084	54.05
831.256	52.98
831.428	68.59
831.6	72.71
831.772	62.86
831.943	67.08
832.115	68.16
832.287	67.14
832.459	72.86
832.631	63.75
832.803	67.25
832.975	75.7
833.146	71.68
833.318	70.94
833.49	77.03
833.662	78.89
833.833	91.78
834.005	80.89
834.177	81.87
834.348	77.3
834.52	77.2
834.692	75.61
834.863	65.48
835.035	51.59
835.206	56.3
835.378	46.25
835.549	52.85
835.721	55.97
835.892	54.81
836.064	59.48
836.235	67.49
836.407	60.28
836.578	67.52
836.749	65.21
836.921	61.98
837.092	69.43
837.264	74.24
837.435	55.55
837.606	58.36
837.777	46.61
837.949	40.7
838.12	40.42
838.291	44.4
838.462	40.47
838.633	41.71
838.805	43.37
838.976	47.04
839.147	47.53
839.318	47.29
839.489	32.74
839.66	41.34
839.831	44.62
840.002	45.54
840.173	45.01
840.344	57.05
840.515	62.71
840.686	70.27
840.857	55.19
841.028	57.75
841.199	50.2
841.369	46.56
841.54	40.97
841.711	44.06
841.882	37.54
842.053	27.08
842.223	33.18
842.394	44.77
842.565	51.37
842.736	56.25
842.906	39.65
843.077	45.84
843.248	53.48
843.418	45.9
843.589	56.84
843.759	55.19
843.93	55.14
844.101	59.21
844.271	64.49
844.442	69.33
844.612	67.12
844.783	43.27
844.953	41.49
845.123	49.47
845.294	50.08
845.464	45.54
845.635	36.5
845.805	52.07
845.975	71.7
846.146	75.89
846.316	71.96
846.486	68.33
846.656	71.77
846.827	73.67
846.997	65.39
847.167	62.56
847.337	72.92
847.507	74.73
847.677	83.59
847.848	82.95
848.018	77.26
848.188	79.41
848.358	83.03
848.528	79.88
848.698	69.04
848.868	52.84
849.038	62.55
849.208	68.23
849.378	56.15
849.548	53.99
849.718	44.45
849.887	35.43
850.057	31.03
850.227	15.75
850.397	20.72
850.567	34.97
850.737	33.97
850.906	33.61
851.076	39.04
851.246	52.28
851.415	57.75
851.585	54.5
851.755	50.92
851.924	47.97
852.094	45.74
852.264	49.21
852.433	46.83
852.603	53.48
852.772	41.99
852.942	43.17
853.111	49.64
853.281	51.03
853.45	57.02
853.62	50.57
853.789	48.69
853.959	51.27
854.128	28.94
854.297	37.1
854.467	35.91
854.636	30.36
854.805	40.74
854.975	45.72
855.144	71.91
855.313	91.29
855.482	84.05
855.652	84.11
855.821	87.66
855.99	90.55
856.159	89.07
856.328	66.57
856.497	69.89
856.667	69.93
856.836	64.6
857.005	49.22
857.174	56.68
857.343	46.69
857.512	34
857.681	30.27
857.85	14.47
858.019	30.32
858.188	42.45
858.356	20.19
858.525	38.18
858.694	46.01
858.863	35.14
859.032	32.15
859.201	33.75
859.369	36.75
859.538	38.01
859.707	27.32
859.876	34.48
860.044	41.49
860.213	48.4
860.382	46.13
860.55	60.21
860.719	66.97
860.888	62
861.056	69.99
861.225	82.16
861.393	75.26
861.562	52.98
861.73	38.4
861.899	33.94
862.067	52.95
862.236	40.03
862.404	27
862.572	30.83
862.741	29.87
862.909	22.71
863.078	15.79
863.246	-0.85
863.414	4.9
863.582	14.88
863.751	18.26
863.919	37.62
864.087	56.24
864.255	61.74
864.424	64.46
864.592	72.61
864.76	69.69
864.928	64.5
865.096	51.28
865.264	42.62
865.432	31.11
865.6	21.78
865.768	9.85
865.936	-5.09
866.104	-15.2
866.272	-1.86
866.44	-45.26
866.608	-39.3
866.776	-11.91
866.944	-20.59
867.112	-44.76
867.28	-77.78
867.448	-54.22
867.615	-24.98
867.783	-18.64
867.951	-32.05
868.119	8.45
868.286	35.11
868.454	56.68
868.622	64.51
868.789	85.37
868.957	93.57
869.125	89.84
869.292	79.91
869.46	88.22
869.627	66.69
869.795	60.35
869.963	43.36
870.13	39.47
870.298	35.85
870.465	12.12
870.632	-22.15
870.8	-18.66
870.967	-14.39
871.135	-13.25
871.302	-12.95
871.469	-12.74
871.637	-6.5
871.804	11.47
871.971	23.47
872.139	26.41
872.306	26.68
872.473	24.52
872.64	24.13
872.807	29.78
872.975	32.09
873.142	27.66
873.309	51.5
873.476	112.67
873.643	177.87
873.81	169.2
873.977	122.51
874.144	111.46
874.311	93.59
874.478	7.99
874.645	-24.57
874.812	-24.63
874.979	-49.15
875.146	-80.47
875.313	-96.55
875.48	-34.52
875.647	-43.33
875.813	-18.25
875.98	11.05
876.147	46.17
876.314	29.25
876.481	30
876.647	30.97
876.814	43.84
876.981	38.24
877.147	20.05
877.314	10.83
877.481	38.19
877.647	41.78
877.814	29.96
877.98	29.72
878.147	43.86
878.314	43.51
878.48	38.98
878.647	55.01
878.813	68.85
878.979	88.17
879.146	58.91
879.312	67.08
879.479	68.62
879.645	49.85
879.811	22.2
879.978	8.1
880.144	8.38
880.31	2.28
880.477	-34.08
880.643	-59.61
880.809	55.4
880.975	46.67
881.142	45.03
881.308	58.29
881.474	119.07
881.64	109.33
881.806	59.23
881.972	69.45
882.138	69.66
882.304	58.7
882.47	27.66
882.636	-44.93
882.802	-66.66
882.968	-147.59
883.134	-365.41
883.3	-142.5
883.466	-37.22
883.632	-37.52
883.798	6.19
883.964	10.06
884.129	54.04
884.295	60.59
884.461	66.05
884.627	37.79
884.793	62.01
884.958	50.97
885.124	44.06
885.29	9.29
885.455	12
885.621	-3.24
885.787	-5.65
885.952	-31.31
886.118	-25.87
886.283	-1.93
886.449	-20.63
886.614	-8.95
886.78	28.89
886.945	32.81
887.111	50.92
887.276	26.96
887.442	26.03
887.607	18.77
887.773	-20.63
887.938	-52.57
888.103	-22.82
888.269	-18.38
888.434	-31.73
888.599	12.47
888.764	31.24
888.93	46.94
889.095	28.72
889.26	52.83
889.425	80.94
889.59	71.62
889.756	31.7
889.921	-6.19
890.086	-4.1
890.251	23.08
890.416	-21
890.581	-32.49
890.746	-37.16
890.911	-94.25
891.076	-91.12
891.241	-162.96
891.406	-66.56
891.571	-53.6
891.736	-53.71
891.901	-36.39
892.065	-10.53
892.23	1.08
892.395	12.05
892.56	11.8
892.725	20.21
892.889	1.86
893.054	-38.54
893.219	-58.35
893.384	-151.85
893.548	-377.5
893.713	748.27
893.878	455.43
