Data from Ofra_PS_T2_1A_0GT05_Reflection_1.txt Node
Date: Wed Jul 21 17:46:47 EDT 2021
User: Adam
Spectrometer: FLMT01687
Trigger mode: 0
Integration Time (sec): 1.100000E0
Scans to average: 2
Electric dark correction enabled: true
Nonlinearity correction enabled: false
Boxcar width: 2
XAxis mode: Wavelengths
Number of Pixels in Spectrum: 3648
>>>>>Begin Spectral Data<<<<<
179.494	591
179.716	641.65
179.937	608.62
180.158	606.94
180.38	842.34
180.601	222.51
180.823	88.43
181.044	-117.65
181.265	-54.6
181.486	38.81
181.708	95.09
181.929	362.76
182.15	-271.48
182.372	100.08
182.593	-16.99
182.814	13.81
183.035	30.65
183.257	16.44
183.478	-61.44
183.699	51.25
183.92	25.58
184.141	41.43
184.363	15.89
184.584	45.17
184.805	26.1
185.026	58.62
185.247	58.3
185.468	34.92
185.689	41.7
185.91	38.18
186.132	27.78
186.353	21.9
186.574	70.74
186.795	43.9
187.016	9.02
187.237	9.46
187.458	-7.84
187.679	-2.57
187.9	10.79
188.121	6.05
188.342	25.44
188.563	45.96
188.784	60.93
189.005	86.63
189.226	134.83
189.447	88.54
189.667	-55.7
189.888	-380.17
190.109	-1442.53
190.33	-807.58
190.551	-1620.13
190.772	-345.94
190.993	-264.38
191.214	-241.87
191.434	-152.86
191.655	-11.5
191.876	-55.02
192.097	-96.63
192.318	-156.92
192.538	-242.16
192.759	-198.52
192.98	-77.92
193.201	-27.86
193.421	-10.97
193.642	5.93
193.863	15.66
194.083	-6.29
194.304	-14.04
194.525	-3.92
194.745	-11.46
194.966	-43.06
195.187	-44.22
195.407	-64.3
195.628	-112.67
195.848	-133.84
196.069	-101.1
196.29	-64.44
196.51	-72.16
196.731	-72.22
196.951	-70.98
197.172	-105.72
197.392	-134.56
197.613	-127.05
197.833	-121.12
198.054	-112.05
198.274	-43.64
198.495	-55.72
198.715	-29.37
198.936	-69.55
199.156	-48.38
199.377	-181.76
199.597	-172.14
199.817	-161.31
200.038	-66.8
200.258	-134.4
200.479	-39.11
200.699	-17.62
200.919	30.06
201.14	0.61
201.36	-16.66
201.58	26.86
201.801	42.46
202.021	3.75
202.241	-1.25
202.461	-1.21
202.682	-95.95
202.902	-153.69
203.122	-110.54
203.342	-91.46
203.563	-25.43
203.783	11.87
204.003	-26.99
204.223	-29.18
204.443	15
204.663	-21.6
204.884	-39.72
205.104	22.2
205.324	68.76
205.544	66.76
205.764	72.73
205.984	87.14
206.204	70.82
206.424	48.42
206.644	28.84
206.864	10.5
207.084	-69.1
207.304	-57.22
207.525	-213.98
207.745	-127.91
207.964	-40.14
208.184	-69.93
208.404	-116.22
208.624	-105.22
208.844	-101.14
209.064	-376.21
209.284	-339.83
209.504	-151.55
209.724	-39.73
209.944	-10.62
210.164	28.16
210.384	36.44
210.604	49.77
210.823	20.06
211.043	-15.27
211.263	-11.53
211.483	-22.72
211.703	-99.89
211.922	-83.66
212.142	-17.75
212.362	-41.08
212.582	-40.1
212.801	-8.72
213.021	-18.87
213.241	-30.76
213.461	-54.83
213.68	-82.49
213.9	-76.64
214.12	-67.73
214.339	-141.25
214.559	-125.39
214.779	-38.97
214.998	-49.64
215.218	-70.77
215.438	-28.41
215.657	-28.63
215.877	-35.3
216.096	4.35
216.316	14.21
216.535	0.18
216.755	-8.02
216.974	-117.24
217.194	-190.33
217.413	-172.52
217.633	-165.37
217.852	-255.81
218.072	-97.49
218.291	-42.36
218.511	-15.59
218.73	-19.81
218.95	-3.7
219.169	-8.82
219.389	-56.3
219.608	-37.22
219.827	-28.87
220.047	-16.66
220.266	-15.98
220.485	4.69
220.705	9.14
220.924	-32.37
221.143	-3.52
221.363	-32.61
221.582	-19.27
221.801	-26.17
222.021	4.96
222.24	-54.99
222.459	31.37
222.678	-18.28
222.897	-94.58
223.117	-151.41
223.336	-120.21
223.555	-93.39
223.774	-38.21
223.993	-27.91
224.213	48.01
224.432	17.21
224.651	35.83
224.87	11.9
225.089	38.47
225.308	23.26
225.527	38.61
225.746	38.17
225.965	28.52
226.184	9.51
226.404	19.26
226.623	-0.81
226.842	4.86
227.061	32.17
227.28	31.04
227.499	20.59
227.718	32.72
227.936	18.42
228.155	24.51
228.374	8.47
228.593	14.35
228.812	8.88
229.031	6.01
229.25	-59.24
229.469	-48.63
229.688	-37.05
229.907	14.34
230.125	40.3
230.344	50.8
230.563	71.51
230.782	78.02
231.001	-2.42
231.22	-6.82
231.438	45.09
231.657	22.15
231.876	5.43
232.095	47.96
232.313	49.13
232.532	24.04
232.751	-8.45
232.969	-30.16
233.188	-106.8
233.407	-18.92
233.625	-9.79
233.844	-12.74
234.063	21.62
234.281	41.21
234.5	9.63
234.719	13.38
234.937	14.65
235.156	10.39
235.374	9.12
235.593	-1.08
235.811	0.66
236.03	6.96
236.249	-16.55
236.467	-23.57
236.686	8.87
236.904	9.07
237.123	-4.95
237.341	-6.19
237.559	-0.17
237.778	-19.2
237.996	-47
238.215	-7.11
238.433	6.46
238.652	6.84
238.87	-6.49
239.088	13.37
239.307	19.33
239.525	33.69
239.743	-7.87
239.962	2.78
240.18	-24.66
240.398	-83.63
240.617	-91.9
240.835	-46.77
241.053	-29.81
241.271	10.78
241.49	18
241.708	-21.22
241.926	-55.94
242.144	-29.32
242.363	-81.52
242.581	-106.76
242.799	-47.95
243.017	-22.51
243.235	-42.09
243.453	-33.15
243.672	-19.04
243.89	-20.78
244.108	-24.14
244.326	-8.27
244.544	-3.65
244.762	-9.32
244.98	-10.53
245.198	-15
245.416	-48.86
245.634	-33.2
245.852	-36.54
246.07	-40.59
246.288	-18.14
246.506	-24.48
246.724	-11.24
246.942	27.33
247.16	45.45
247.378	43.53
247.596	85.01
247.814	74.01
248.032	35.32
248.25	16.4
248.468	7.18
248.685	-7.36
248.903	24.24
249.121	17.58
249.339	-4.55
249.557	-1.64
249.775	16.46
249.992	-53.22
250.21	-47.83
250.428	-25.91
250.646	-56.76
250.863	-90.81
251.081	-39.91
251.299	-27.77
251.517	-11.04
251.734	-2.58
251.952	-9.87
252.17	-18.89
252.387	2.79
252.605	-21.38
252.823	-12.85
253.04	12.39
253.258	29.11
253.475	8.62
253.693	41.27
253.911	36.74
254.128	33.25
254.346	39.83
254.563	19.23
254.781	-12.56
254.998	-43.13
255.216	-43.56
255.433	-49.39
255.651	-7.06
255.868	47.54
256.086	74.65
256.303	47.34
256.521	20.88
256.738	-11.83
256.956	-65.37
257.173	-85.42
257.39	-91.07
257.608	-98.6
257.825	-26.67
258.043	11.94
258.26	15.42
258.477	58.82
258.695	46.18
258.912	-18.97
259.129	0.85
259.346	-36.58
259.564	-101.85
259.781	-124.98
259.998	-35.18
260.216	-28.06
260.433	21.72
260.65	33.63
260.867	63.85
261.084	29.9
261.302	20.32
261.519	5.76
261.736	-26.5
261.953	-54.39
262.17	-12.18
262.387	-49.44
262.604	-61.62
262.822	-66.24
263.039	-35.66
263.256	-95.15
263.473	-50.68
263.69	-35.33
263.907	16.33
264.124	36.39
264.341	40.73
264.558	35.6
264.775	48.92
264.992	22.53
265.209	10.44
265.426	37.22
265.643	39.6
265.86	31.57
266.077	42.01
266.294	11.91
266.51	-22.74
266.727	-53.49
266.944	-36.76
267.161	-41.2
267.378	-31.56
267.595	-2.46
267.812	-13.75
268.028	-32.84
268.245	5.88
268.462	-11.76
268.679	-27.42
268.896	37.98
269.112	38.63
269.329	18.83
269.546	26.6
269.763	24.9
269.979	7.11
270.196	13.59
270.413	-11.67
270.629	-32.14
270.846	-47.21
271.063	-43.93
271.279	-67.9
271.496	-50.52
271.712	-14.35
271.929	21.52
272.146	14.57
272.362	28.3
272.579	61.34
272.795	75.4
273.012	60.81
273.228	51.11
273.445	21.13
273.661	-2.69
273.878	-58.41
274.094	-53.03
274.311	-86.79
274.527	-10.07
274.744	-13.74
274.96	-9.2
275.177	2.77
275.393	22.03
275.609	11.88
275.826	39.51
276.042	37.82
276.259	12.12
276.475	24.25
276.691	30.71
276.908	1.06
277.124	8.19
277.34	12.97
277.557	-2.14
277.773	-14.74
277.989	-17.59
278.205	-25.05
278.422	-0.34
278.638	16.4
278.854	29.43
279.07	28.62
279.286	24.53
279.503	-26.97
279.719	-63.74
279.935	-88.59
280.151	-84.24
280.367	-42.76
280.583	-41.52
280.799	-19.17
281.016	-30.48
281.232	-9.06
281.448	-2.62
281.664	31.07
281.88	-6.39
282.096	16.93
282.312	37.44
282.528	24.34
282.744	23.15
282.96	31.78
283.176	15.21
283.392	2.32
283.608	1.13
283.824	-10.41
284.04	1.15
284.256	8.28
284.471	-9.5
284.687	-12.6
284.903	9.43
285.119	45.41
285.335	20.88
285.551	43.78
285.767	9.85
285.982	-1.87
286.198	-46.57
286.414	14.3
286.63	22.1
286.846	57.03
287.061	34.49
287.277	58.4
287.493	31.87
287.709	44.89
287.924	15.66
288.14	47.94
288.356	35.78
288.571	53.03
288.787	34.44
289.003	40.95
289.218	31.34
289.434	-8.73
289.65	-4.39
289.865	-1.07
290.081	35.9
290.296	35.38
290.512	46.63
290.727	-0.44
290.943	-2.81
291.159	-9.75
291.374	-18.77
291.59	-20.57
291.805	7.46
292.021	5.33
292.236	-6.92
292.451	14.59
292.667	15.98
292.882	16.85
293.098	13.85
293.313	-1.92
293.529	-38.78
293.744	-51.98
293.959	-41.58
294.175	-48.87
294.39	-0.54
294.605	14.33
294.821	35.45
295.036	36.9
295.251	51.45
295.467	1.89
295.682	-3.2
295.897	-58.75
296.112	-61.77
296.328	-63.71
296.543	-67.97
296.758	-64.75
296.973	-1.22
297.188	24.73
297.404	5.46
297.619	7.01
297.834	4.29
298.049	-28.67
298.264	-54.21
298.479	5.83
298.694	8.82
298.909	23.55
299.125	38.01
299.34	47.57
299.555	11.87
299.77	36.92
299.985	-18.95
300.2	-74.41
300.415	-96.58
300.63	-61.71
300.845	-79.59
301.06	-65.27
301.275	-28.07
301.49	-2.4
301.704	-18.53
301.919	-28.02
302.134	-35.51
302.349	-35.17
302.564	-98.48
302.779	-82.98
302.994	-21.75
303.209	5.45
303.423	16.83
303.638	52.02
303.853	7.66
304.068	-11.72
304.283	-16.08
304.497	-17.8
304.712	-30.4
304.927	0.55
305.142	-10.63
305.356	-6.54
305.571	-6.03
305.786	-19.49
306	-68.31
306.215	-49.54
306.43	-77.17
306.644	-92.77
306.859	-50.74
307.074	-17.36
307.288	-48.77
307.503	-35.04
307.717	-34.98
307.932	-32.87
308.147	-29.31
308.361	-3.12
308.576	-21.67
308.79	-50.5
309.005	-53.24
309.219	-28.95
309.434	-40.08
309.648	-34.81
309.863	-7.12
310.077	-0.92
310.292	-16.45
310.506	-10.07
310.72	6.42
310.935	12.49
311.149	9.58
311.364	26.44
311.578	41.9
311.792	32.13
312.007	25.91
312.221	11.46
312.435	8.83
312.649	-13.08
312.864	13.46
313.078	34.05
313.292	112.12
313.507	78.14
313.721	121.61
313.935	46.06
314.149	18.35
314.363	-3.65
314.578	11.72
314.792	7.61
315.006	9.75
315.22	30.9
315.434	39.33
315.648	45.48
315.862	46.07
316.077	36.17
316.291	11.79
316.505	6.48
316.719	-1.06
316.933	-33.9
317.147	-22.1
317.361	-51.94
317.575	-73.7
317.789	-123.15
318.003	-163.66
318.217	-144.94
318.431	-31.32
318.645	21.09
318.859	19.6
319.073	49.53
319.287	30.86
319.5	-16.98
319.714	-82.24
319.928	-129.54
320.142	-145.28
320.356	-88.41
320.57	-41.4
320.784	-22.46
320.997	4.34
321.211	-27.16
321.425	-81.22
321.639	-100.94
321.853	-35.99
322.066	-18.06
322.28	-8.9
322.494	15.15
322.707	42.38
322.921	15.15
323.135	13.33
323.349	12.96
323.562	-19.28
323.776	-35.49
323.989	-25.96
324.203	-46.81
324.417	-50.19
324.63	-53.95
324.844	-65.09
325.057	-72.07
325.271	-45.23
325.485	-12.65
325.698	16.56
325.912	31.03
326.125	11.75
326.339	4.65
326.552	-31.62
326.766	-17.05
326.979	-2.76
327.193	43.75
327.406	36.14
327.619	34.48
327.833	36.7
328.046	2.9
328.26	-37.79
328.473	-12.65
328.686	-34.13
328.9	-53.56
329.113	-11.06
329.326	-31.11
329.54	-41.05
329.753	-45.11
329.966	-64.19
330.179	-86.29
330.393	-41.79
330.606	-13.37
330.819	11.79
331.032	29.16
331.246	30.89
331.459	55.84
331.672	37.9
331.885	22.18
332.098	-3.69
332.311	-10.13
332.525	-71.74
332.738	-46.36
332.951	-11.39
333.164	18.91
333.377	25.21
333.59	44.26
333.803	51.41
334.016	36.79
334.229	33.93
334.442	46.97
334.655	66.66
334.868	61.59
335.081	58.73
335.294	37.73
335.507	20.08
335.72	-0.94
335.933	-15.07
336.146	-18.12
336.359	-2.45
336.572	-20.39
336.785	-56.37
336.997	-54.63
337.21	-33.46
337.423	-50.94
337.636	-47.35
337.849	-19.25
338.062	-29.31
338.274	-28.26
338.487	-37.59
338.7	-30.65
338.913	-77.97
339.125	-77.26
339.338	-123.38
339.551	-72.17
339.763	-39.1
339.976	8.05
340.189	18.13
340.402	31.09
340.614	8.6
340.827	-2.28
341.039	-19.08
341.252	-28.9
341.465	-10.08
341.677	6.51
341.89	-29.42
342.102	-9.94
342.315	-23.8
342.527	-74.41
342.74	-76.23
342.952	-44.13
343.165	-46.18
343.377	-16.33
343.59	-8.68
343.802	2.44
344.015	13.77
344.227	34.21
344.44	26.82
344.652	32.66
344.864	18.04
345.077	35.39
345.289	22.09
345.502	24.75
345.714	18.79
345.926	28.43
346.139	7.58
346.351	24.46
346.563	33.71
346.775	39.09
346.988	23.9
347.2	12.76
347.412	-34.4
347.624	-63.69
347.837	-76.24
348.049	-41.9
348.261	-0.26
348.473	3.12
348.685	5.74
348.897	-7.03
349.11	-15.98
349.322	-23.58
349.534	-10.39
349.746	3.01
349.958	7.73
350.17	8.85
350.382	17.96
350.594	16.26
350.806	10.68
351.018	18.77
351.23	0.76
351.442	-55.2
351.654	-58.72
351.866	-45.3
352.078	-25.08
352.29	-9.65
352.502	15.83
352.714	30.97
352.926	17.12
353.138	12.27
353.35	2.4
353.561	-2.02
353.773	-26.27
353.985	-9.24
354.197	-20.32
354.409	-23.68
354.621	-24.11
354.832	-14.08
355.044	-31.22
355.256	-39.64
355.468	-12.8
355.679	-14.45
355.891	-14.23
356.103	-19.89
356.314	1.78
356.526	-3.85
356.738	1.4
356.949	11.25
357.161	38.7
357.373	20.74
357.584	8.1
357.796	-0.03
358.008	-11.72
358.219	7.94
358.431	12.24
358.642	21.04
358.854	21.95
359.065	22.28
359.277	-33.62
359.488	-51.49
359.7	-76.62
359.911	-97.66
360.123	-65.08
360.334	-70.34
360.546	-72.37
360.757	-72.65
360.969	-27.52
361.18	-34.26
361.391	-0.43
361.603	-10.1
361.814	10.05
362.025	-10.51
362.237	-7.2
362.448	0.98
362.659	20.52
362.871	11.63
363.082	8.94
363.293	1.66
363.504	-18.16
363.716	-50.89
363.927	-59.48
364.138	-83.76
364.349	-95.32
364.56	-78.02
364.772	-57.7
364.983	-18.68
365.194	-15.7
365.405	-0.03
365.616	18.65
365.827	26.39
366.038	-5.68
366.25	0.28
366.461	-4.95
366.672	18.91
366.883	29.32
367.094	35.35
367.305	23.68
367.516	22.78
367.727	-19.33
367.938	-38.37
368.149	-43.65
368.36	-14.19
368.571	-6.92
368.781	-21.74
368.992	-36.89
369.203	-62.68
369.414	-96.77
369.625	-101
369.836	-91.17
370.047	-107.22
370.258	-81.71
370.468	-79.69
370.679	-92.98
370.89	-72.87
371.101	-42.07
371.312	-36.69
371.522	-15.91
371.733	-7.57
371.944	8.14
372.155	11.84
372.365	3.85
372.576	-2
372.787	-11.24
372.997	-48.29
373.208	-56.01
373.419	-18.35
373.629	-50.52
373.84	-46.06
374.05	-36.67
374.261	-19.14
374.472	-54.15
374.682	6.02
374.893	17.94
375.103	48.91
375.314	37.77
375.524	41.89
375.735	30.55
375.945	27.66
376.156	-14.56
376.366	-10.91
376.577	-9.85
376.787	-13.39
376.997	-18.03
377.208	-7.88
377.418	-11.11
377.629	5.65
377.839	2.65
378.049	5.83
378.26	22.83
378.47	27.54
378.68	9.31
378.89	6.12
379.101	2.41
379.311	-33.58
379.521	-67.83
379.732	-65.85
379.942	-72.64
380.152	-93.19
380.362	-44.69
380.572	-31.15
380.783	-22.88
380.993	-9.54
381.203	2.61
381.413	13.62
381.623	13.82
381.833	17.03
382.043	10.73
382.253	3.62
382.463	-0.48
382.674	-9.16
382.884	-36.96
383.094	-30.83
383.304	-15.62
383.514	-12.88
383.724	3.24
383.934	15.97
384.144	4.98
384.353	-10.76
384.563	-11.64
384.773	-11.16
384.983	-21.84
385.193	-4.76
385.403	-0.79
385.613	-3.97
385.823	-16.91
386.033	-8.72
386.242	-19.88
386.452	-20.7
386.662	-33.19
386.872	-16.74
387.082	-17.68
387.291	-16.96
387.501	-16.93
387.711	-8.87
387.921	-20.74
388.13	-19.64
388.34	-7.06
388.55	-8.59
388.759	-7.5
388.969	3.53
389.179	1.18
389.388	1.25
389.598	4.44
389.807	-0.45
390.017	-8.27
390.227	-6.43
390.436	-11.81
390.646	-12.42
390.855	-6.32
391.065	-2.41
391.274	-2.32
391.484	-3.33
391.693	1.37
391.903	0.18
392.112	3.03
392.322	5.83
392.531	10.96
392.74	10.22
392.95	6.26
393.159	2.71
393.369	-0.23
393.578	-2.19
393.787	-5.15
393.997	-1.74
394.206	-2.7
394.415	-2.03
394.625	-2.53
394.834	-3
395.043	-3
395.252	-1.55
395.462	0.99
395.671	2.06
395.88	3.48
396.089	4.06
396.298	2.49
396.508	2.21
396.717	1.74
396.926	1.61
397.135	1.02
397.344	1.44
397.553	1.42
397.762	3.05
397.971	3.02
398.181	3.16
398.39	3.18
398.599	2.87
398.808	1.89
399.017	2.96
399.226	3.99
399.435	4.76
399.644	4.84
399.853	4.06
400.062	2.79
400.27	2.48
400.479	2.02
400.688	1.24
400.897	1.87
401.106	2.33
401.315	1.86
401.524	1.86
401.733	2.63
401.941	2.93
402.15	2.84
402.359	2.8
402.568	3.05
402.777	3.02
402.985	2.81
403.194	2.98
403.403	2.96
403.612	2.55
403.82	2.21
404.029	2.27
404.238	2.08
404.446	2.4
404.655	2.42
404.864	2.38
405.072	1.98
405.281	2.1
405.489	1.81
405.698	1.8
405.906	1.82
406.115	1.98
406.324	1.88
406.532	2.23
406.741	2.67
406.949	2.72
407.158	2.73
407.366	2.83
407.574	2.6
407.783	2.39
407.991	2.16
408.2	2.32
408.408	2.2
408.617	2.19
408.825	2.06
409.033	2.28
409.242	2.37
409.45	2.5
409.658	2.41
409.867	2.53
410.075	2.5
410.283	2.28
410.491	2.12
410.7	2.09
410.908	2.17
411.116	2.39
411.324	2.45
411.533	2.47
411.741	2.6
411.949	2.58
412.157	2.27
412.365	2.2
412.573	2.25
412.781	2.27
412.99	2.12
413.198	2.38
413.406	2.39
413.614	2.42
413.822	2.25
414.03	2.25
414.238	2.09
414.446	2.17
414.654	1.87
414.862	2.07
415.07	2.13
415.278	2.25
415.486	2.03
415.694	2.24
415.902	1.96
416.109	1.8
416.317	1.73
416.525	1.63
416.733	1.67
416.941	2.03
417.149	2.02
417.357	1.9
417.564	2.21
417.772	2.52
417.98	2.26
418.188	2.34
418.395	2.46
418.603	2.51
418.811	2.04
419.019	2.01
419.226	2.34
419.434	2.52
419.642	2.23
419.849	2.41
420.057	2.64
420.265	2.46
420.472	2.12
420.68	2.2
420.887	2.07
421.095	1.92
421.302	1.82
421.51	2.09
421.717	2.22
421.925	2.42
422.132	2.36
422.34	2.12
422.547	2.17
422.755	2.06
422.962	1.83
423.17	1.74
423.377	1.98
423.585	1.91
423.792	1.74
423.999	1.91
424.207	1.9
424.414	2.02
424.621	1.99
424.829	2.01
425.036	1.98
425.243	2.19
425.451	1.89
425.658	1.69
425.865	1.97
426.072	1.92
426.28	2.01
426.487	2.13
426.694	2.29
426.901	2.1
427.108	2.07
427.315	1.87
427.523	2.11
427.73	2.08
427.937	1.92
428.144	1.74
428.351	1.77
428.558	1.87
428.765	1.75
428.972	1.84
429.179	2.11
429.386	2.41
429.593	1.97
429.8	1.83
430.007	1.9
430.214	1.92
430.421	1.66
430.628	1.63
430.835	1.63
431.042	1.8
431.249	1.83
431.456	1.94
431.662	2.05
431.869	2.28
432.076	2.27
432.283	2.36
432.49	2.19
432.697	2.3
432.903	2.13
433.11	2.06
433.317	2.03
433.524	2.32
433.73	2.22
433.937	2.46
434.144	2.28
434.35	2.24
434.557	1.98
434.764	2.07
434.97	1.95
435.177	2.22
435.384	2.12
435.59	2.22
435.797	2.32
436.003	2.42
436.21	2.35
436.416	2.53
436.623	2.45
436.829	2.42
437.036	2.48
437.242	2.42
437.449	2.27
437.655	2.36
437.862	2.34
438.068	2.21
438.275	2.35
438.481	2.6
438.687	2.53
438.894	2.58
439.1	2.64
439.307	2.79
439.513	2.62
439.719	2.68
439.926	2.75
440.132	2.7
440.338	2.49
440.544	2.62
440.751	2.51
440.957	2.53
441.163	2.47
441.369	2.57
441.575	2.35
441.782	2.37
441.988	2.22
442.194	2.18
442.4	2.13
442.606	2.48
442.812	2.57
443.018	2.7
443.224	2.79
443.431	2.91
443.637	2.62
443.843	2.52
444.049	2.51
444.255	2.6
444.461	2.58
444.667	2.55
444.873	2.7
445.079	2.68
445.284	2.65
445.49	2.36
445.696	2.26
445.902	2.17
446.108	2.16
446.314	2.08
446.52	2.24
446.726	2.48
446.931	2.55
447.137	2.54
447.343	2.56
447.549	2.56
447.755	2.38
447.96	2.38
448.166	2.33
448.372	2.31
448.578	2.33
448.783	2.5
448.989	2.56
449.195	2.76
449.4	2.8
449.606	2.74
449.812	2.62
450.017	2.65
450.223	2.46
450.428	2.41
450.634	2.6
450.84	2.77
451.045	2.67
451.251	2.64
451.456	2.87
451.662	2.92
451.867	2.82
452.073	2.85
452.278	2.96
452.483	2.96
452.689	2.78
452.894	2.86
453.1	2.8
453.305	2.72
453.51	2.64
453.716	2.62
453.921	2.64
454.127	2.55
454.332	2.52
454.537	2.49
454.742	2.46
454.948	2.47
455.153	2.65
455.358	2.81
455.563	2.95
455.769	3.12
455.974	3.02
456.179	2.86
456.384	2.83
456.589	2.71
456.795	2.47
457	2.39
457.205	2.68
457.41	2.63
457.615	2.6
457.82	2.77
458.025	2.89
458.23	2.65
458.435	2.71
458.64	2.65
458.845	2.83
459.05	2.79
459.255	2.84
459.46	2.8
459.665	2.86
459.87	2.75
460.075	2.7
460.28	2.81
460.485	2.97
460.69	3.01
460.895	2.79
461.099	2.79
461.304	2.9
461.509	2.89
461.714	2.79
461.919	3.06
462.123	3.06
462.328	3.01
462.533	2.92
462.738	3.03
462.942	2.88
463.147	2.94
463.352	2.93
463.556	2.89
463.761	2.94
463.966	3.04
464.17	3.09
464.375	3
464.58	3.07
464.784	2.99
464.989	2.85
465.193	2.95
465.398	2.96
465.602	3.09
465.807	3.13
466.011	3.3
466.216	3.19
466.42	3.2
466.625	3.21
466.829	3.33
467.034	3.3
467.238	3.5
467.443	3.53
467.647	3.43
467.851	3.44
468.056	3.51
468.26	3.35
468.464	3.37
468.669	3.5
468.873	3.62
469.077	3.65
469.282	3.77
469.486	3.87
469.69	3.85
469.894	3.6
470.099	3.74
470.303	3.82
470.507	3.64
470.711	3.54
470.915	3.63
471.119	3.43
471.324	3.35
471.528	3.5
471.732	3.58
471.936	3.58
472.14	3.68
472.344	3.72
472.548	3.7
472.752	3.88
472.956	4.13
473.16	4.07
473.364	3.96
473.568	4.01
473.772	3.99
473.976	3.84
474.18	3.81
474.384	3.87
474.588	3.84
474.792	3.69
474.995	3.67
475.199	3.75
475.403	3.83
475.607	3.88
475.811	3.92
476.015	4.01
476.218	4.1
476.422	4.05
476.626	4.06
476.83	4.23
477.033	4.15
477.237	4.02
477.441	4.09
477.644	4.1
477.848	3.99
478.052	3.96
478.255	4
478.459	4
478.663	4.11
478.866	4.18
479.07	4.25
479.273	4.4
479.477	4.4
479.681	4.33
479.884	4.2
480.088	4.15
480.291	4.1
480.495	4.05
480.698	4.05
480.901	4.15
481.105	4.31
481.308	4.26
481.512	4.23
481.715	4.31
481.919	4.3
482.122	4.22
482.325	4.25
482.529	4.31
482.732	4.28
482.935	4.21
483.138	4.13
483.342	4.27
483.545	4.33
483.748	4.43
483.952	4.53
484.155	4.72
484.358	4.69
484.561	4.63
484.764	4.55
484.967	4.59
485.171	4.63
485.374	4.56
485.577	4.72
485.78	4.71
485.983	4.69
486.186	4.56
486.389	4.51
486.592	4.39
486.795	4.46
486.998	4.4
487.201	4.46
487.404	4.62
487.607	4.67
487.81	4.63
488.013	4.74
488.216	4.69
488.419	4.6
488.622	4.51
488.825	4.45
489.028	4.35
489.231	4.34
489.433	4.27
489.636	4.27
489.839	4.32
490.042	4.22
490.245	4.19
490.447	4.27
490.65	4.26
490.853	4.24
491.056	4.32
491.258	4.4
491.461	4.33
491.664	4.43
491.866	4.35
492.069	4.5
492.272	4.42
492.474	4.51
492.677	4.52
492.879	4.63
493.082	4.62
493.285	4.8
493.487	4.76
493.69	4.67
493.892	4.6
494.095	4.52
494.297	4.42
494.5	4.44
494.702	4.45
494.905	4.51
495.107	4.48
495.309	4.53
495.512	4.62
495.714	4.73
495.917	4.76
496.119	4.78
496.321	4.77
496.524	4.73
496.726	4.69
496.928	4.73
497.13	4.75
497.333	4.7
497.535	4.73
497.737	4.71
497.939	4.71
498.142	4.7
498.344	4.69
498.546	4.59
498.748	4.63
498.95	4.74
499.152	4.75
499.355	4.83
499.557	4.94
499.759	5.03
499.961	4.92
500.163	4.97
500.365	4.95
500.567	5.04
500.769	4.93
500.971	4.96
501.173	4.81
501.375	4.84
501.577	4.7
501.779	4.71
501.981	4.67
502.183	4.68
502.385	4.65
502.587	4.61
502.788	4.7
502.99	4.78
503.192	4.9
503.394	4.91
503.596	4.98
503.798	4.97
503.999	4.99
504.201	4.98
504.403	5.05
504.605	5.05
504.806	4.93
505.008	4.86
505.21	4.93
505.411	4.89
505.613	4.88
505.815	4.96
506.016	5.02
506.218	5.07
506.42	5.07
506.621	5.09
506.823	5.13
507.024	5.03
507.226	4.97
507.427	4.95
507.629	5.02
507.83	5.08
508.032	5.13
508.233	5.18
508.435	5.28
508.636	5.34
508.838	5.26
509.039	5.3
509.24	5.34
509.442	5.32
509.643	5.22
509.845	5.25
510.046	5.33
510.247	5.38
510.448	5.44
510.65	5.46
510.851	5.55
511.052	5.51
511.254	5.42
511.455	5.44
511.656	5.57
511.857	5.61
512.058	5.63
512.26	5.63
512.461	5.58
512.662	5.56
512.863	5.43
513.064	5.41
513.265	5.44
513.466	5.49
513.667	5.44
513.868	5.48
514.069	5.57
514.27	5.66
514.471	5.57
514.672	5.56
514.873	5.56
515.074	5.58
515.275	5.44
515.476	5.48
515.677	5.52
515.878	5.65
516.079	5.64
516.28	5.7
516.481	5.8
516.682	5.82
516.882	5.67
517.083	5.61
517.284	5.58
517.485	5.52
517.686	5.41
517.886	5.46
518.087	5.56
518.288	5.64
518.488	5.64
518.689	5.72
518.89	5.68
519.091	5.66
519.291	5.62
519.492	5.64
519.692	5.69
519.893	5.85
520.094	5.83
520.294	5.85
520.495	5.86
520.695	5.9
520.896	5.78
521.096	5.78
521.297	5.81
521.497	5.85
521.698	5.77
521.898	5.78
522.099	5.79
522.299	5.89
522.499	5.88
522.7	5.94
522.9	5.92
523.101	6.01
523.301	5.94
523.501	5.96
523.702	5.94
523.902	6.03
524.102	6.01
524.302	5.95
524.503	5.98
524.703	6.03
524.903	6.04
525.103	6.01
525.304	6.17
525.504	6.23
525.704	6.25
525.904	6.24
526.104	6.24
526.304	6.15
526.504	6.12
526.705	6.11
526.905	6.16
527.105	6.21
527.305	6.2
527.505	6.13
527.705	6.12
527.905	6.16
528.105	6.15
528.305	6.14
528.505	6.2
528.705	6.26
528.905	6.16
529.105	6.15
529.304	6.22
529.504	6.3
529.704	6.25
529.904	6.27
530.104	6.32
530.304	6.35
530.503	6.26
530.703	6.23
530.903	6.3
531.103	6.33
531.303	6.28
531.502	6.3
531.702	6.4
531.902	6.38
532.101	6.31
532.301	6.33
532.501	6.27
532.7	6.29
532.9	6.26
533.1	6.29
533.299	6.32
533.499	6.43
533.698	6.35
533.898	6.41
534.097	6.4
534.297	6.47
534.496	6.43
534.696	6.5
534.895	6.61
535.095	6.71
535.294	6.65
535.494	6.64
535.693	6.65
535.892	6.64
536.092	6.54
536.291	6.58
536.491	6.69
536.69	6.77
536.889	6.66
537.088	6.68
537.288	6.74
537.487	6.76
537.686	6.68
537.886	6.73
538.085	6.82
538.284	6.94
538.483	6.92
538.682	7
538.882	6.99
539.081	7.03
539.28	6.88
539.479	6.86
539.678	6.83
539.877	6.97
540.076	6.96
540.275	7.05
540.474	7.15
540.673	7.22
540.872	7.1
541.071	7.16
541.27	7.18
541.469	7.24
541.668	7.26
541.867	7.36
542.066	7.37
542.265	7.44
542.464	7.36
542.663	7.41
542.862	7.58
543.06	7.63
543.259	7.65
543.458	7.69
543.657	7.74
543.856	7.74
544.054	7.73
544.253	7.7
544.452	7.74
544.651	7.8
544.849	7.68
545.048	7.71
545.247	7.76
545.445	7.83
545.644	7.79
545.843	7.78
546.041	7.85
546.24	7.98
546.438	8.07
546.637	8.12
546.836	8.32
547.034	8.38
547.233	8.37
547.431	8.3
547.63	8.32
547.828	8.3
548.027	8.35
548.225	8.33
548.423	8.37
548.622	8.5
548.82	8.52
549.019	8.51
549.217	8.68
549.415	8.71
549.614	8.78
549.812	8.79
550.01	8.81
550.209	8.8
550.407	8.9
550.605	8.88
550.803	8.99
551.002	9.08
551.2	9.09
551.398	9.2
551.596	9.36
551.794	9.48
551.993	9.57
552.191	9.63
552.389	9.73
552.587	9.7
552.785	9.72
552.983	9.81
553.181	9.98
553.379	10.03
553.577	10.12
553.775	10.23
553.973	10.3
554.171	10.34
554.369	10.32
554.567	10.33
554.765	10.41
554.963	10.47
555.161	10.46
555.359	10.58
555.557	10.76
555.755	10.8
555.952	10.86
556.15	10.93
556.348	10.98
556.546	11.06
556.744	11.1
556.941	11.12
557.139	11.33
557.337	11.44
557.535	11.39
557.732	11.55
557.93	11.75
558.128	11.75
558.325	11.85
558.523	11.94
558.721	12.03
558.918	11.95
559.116	12.05
559.313	12.03
559.511	12.2
559.708	12.23
559.906	12.39
560.104	12.46
560.301	12.64
560.498	12.72
560.696	12.8
560.893	12.91
561.091	13.07
561.288	13.18
561.486	13.26
561.683	13.33
561.88	13.42
562.078	13.48
562.275	13.41
562.473	13.44
562.67	13.6
562.867	13.72
563.064	13.77
563.262	13.88
563.459	14.07
563.656	14.18
563.853	14.19
564.051	14.23
564.248	14.38
564.445	14.41
564.642	14.43
564.839	14.68
565.036	14.88
565.234	15.09
565.431	15.18
565.628	15.32
565.825	15.36
566.022	15.43
566.219	15.45
566.416	15.53
566.613	15.57
566.81	15.68
567.007	15.68
567.204	15.68
567.401	15.72
567.598	15.72
567.795	15.66
567.991	15.78
568.188	15.91
568.385	16.11
568.582	16.22
568.779	16.34
568.976	16.38
569.172	16.56
569.369	16.45
569.566	16.57
569.763	16.69
569.96	16.79
570.156	16.76
570.353	16.84
570.55	16.93
570.746	16.93
570.943	16.92
571.14	17.01
571.336	17.14
571.533	17.24
571.729	17.29
571.926	17.4
572.123	17.46
572.319	17.5
572.516	17.46
572.712	17.63
572.909	17.66
573.105	17.71
573.302	17.74
573.498	17.78
573.695	17.73
573.891	17.8
574.087	17.86
574.284	17.95
574.48	17.94
574.677	17.99
574.873	17.99
575.069	17.99
575.266	18.03
575.462	18.01
575.658	18.09
575.854	18.11
576.051	18.15
576.247	18.17
576.443	18.31
576.639	18.28
576.835	18.25
577.032	18.25
577.228	18.36
577.424	18.37
577.62	18.33
577.816	18.51
578.012	18.48
578.208	18.41
578.404	18.42
578.6	18.49
578.796	18.37
578.993	18.35
579.189	18.29
579.384	18.25
579.58	18.21
579.776	18.21
579.972	18.2
580.168	18.25
580.364	18.26
580.56	18.26
580.756	18.19
580.952	18.18
581.148	18.13
581.343	18.12
581.539	18.2
581.735	18.3
581.931	18.35
582.127	18.4
582.322	18.36
582.518	18.35
582.714	18.32
582.909	18.35
583.105	18.27
583.301	18.27
583.496	18.28
583.692	18.29
583.888	18.22
584.083	18.4
584.279	18.51
584.474	18.43
584.67	18.45
584.866	18.49
585.061	18.26
585.257	18.26
585.452	18.29
585.648	18.27
585.843	18.31
586.039	18.41
586.234	18.36
586.429	18.31
586.625	18.39
586.82	18.36
587.015	18.28
587.211	18.13
587.406	18.15
587.601	18.1
587.797	18.03
587.992	18.03
588.187	18.21
588.383	18.22
588.578	18.19
588.773	18.28
588.968	18.39
589.163	18.34
589.359	18.33
589.554	18.37
589.749	18.34
589.944	18.33
590.139	18.42
590.334	18.49
590.529	18.45
590.724	18.55
590.919	18.69
591.114	18.65
591.309	18.75
591.504	18.86
591.699	18.87
591.894	18.93
592.089	18.97
592.284	18.92
592.479	19.06
592.674	19.02
592.869	18.98
593.064	19.13
593.259	19.31
593.454	19.34
593.648	19.36
593.843	19.38
594.038	19.35
594.233	19.28
594.428	19.23
594.622	19.35
594.817	19.61
595.012	19.61
595.206	19.64
595.401	19.75
595.596	19.85
595.79	19.8
595.985	19.98
596.18	20.1
596.374	20.19
596.569	20.28
596.763	20.26
596.958	20.26
597.153	20.35
597.347	20.36
597.542	20.44
597.736	20.53
597.931	20.63
598.125	20.69
598.319	20.81
598.514	20.82
598.708	20.91
598.903	20.93
599.097	20.98
599.291	21.01
599.486	21.01
599.68	21.02
599.874	21.11
600.069	21.17
600.263	21.19
600.457	21.3
600.651	21.33
600.846	21.38
601.04	21.34
601.234	21.37
601.428	21.45
601.622	21.42
601.817	21.44
602.011	21.6
602.205	21.66
602.399	21.62
602.593	21.74
602.787	21.82
602.981	21.74
603.175	21.82
603.369	21.67
603.563	21.7
603.757	21.68
603.951	21.75
604.145	21.59
604.339	21.73
604.533	21.6
604.727	21.49
604.921	21.35
605.115	21.41
605.309	21.51
605.502	21.53
605.696	21.54
605.89	21.63
606.084	21.61
606.278	21.5
606.471	21.34
606.665	21.25
606.859	20.99
607.053	20.94
607.246	20.81
607.44	20.87
607.634	20.79
607.827	20.91
608.021	20.81
608.214	20.76
608.408	20.67
608.602	20.65
608.795	20.53
608.989	20.44
609.182	20.35
609.376	20.3
609.569	20.26
609.763	20.13
609.956	20.12
610.15	19.98
610.343	19.98
610.537	19.85
610.73	19.88
610.923	19.87
611.117	19.89
611.31	19.92
611.504	19.9
611.697	19.78
611.89	19.67
612.083	19.65
612.277	19.52
612.47	19.43
612.663	19.37
612.856	19.27
613.05	19.18
613.243	19.07
613.436	18.97
613.629	18.94
613.822	18.82
614.015	18.75
614.209	18.59
614.402	18.61
614.595	18.54
614.788	18.57
614.981	18.45
615.174	18.33
615.367	18.25
615.56	18.14
615.753	18.04
615.946	17.94
616.139	18.06
616.332	18.15
616.525	18.12
616.718	18.15
616.911	18.14
617.103	18.06
617.296	17.94
617.489	17.92
617.682	17.86
617.875	17.86
618.067	17.77
618.26	17.64
618.453	17.69
618.646	17.63
618.838	17.63
619.031	17.72
619.224	17.65
619.417	17.54
619.609	17.51
619.802	17.43
619.994	17.3
620.187	17.4
620.38	17.36
620.572	17.3
620.765	17.35
620.957	17.27
621.15	17.14
621.342	17.12
621.535	17.08
621.727	17
621.92	17.01
622.112	16.91
622.305	16.98
622.497	16.89
622.69	16.85
622.882	16.84
623.074	16.82
623.267	16.64
623.459	16.57
623.651	16.55
623.844	16.55
624.036	16.61
624.228	16.59
624.42	16.68
624.613	16.78
624.805	16.71
624.997	16.63
625.189	16.58
625.381	16.63
625.574	16.5
625.766	16.41
625.958	16.45
626.15	16.53
626.342	16.47
626.534	16.46
626.726	16.53
626.918	16.53
627.11	16.48
627.302	16.43
627.494	16.43
627.686	16.42
627.878	16.29
628.07	16.24
628.262	16.19
628.454	16.21
628.646	16.2
628.838	16.25
629.029	16.25
629.221	16.29
629.413	16.1
629.605	15.93
629.797	15.83
629.989	15.8
630.18	15.73
630.372	15.76
630.564	15.83
630.755	15.87
630.947	15.91
631.139	15.73
631.33	15.62
631.522	15.67
631.714	15.63
631.905	15.52
632.097	15.54
632.289	15.66
632.48	15.56
632.672	15.47
632.863	15.39
633.055	15.35
633.246	15.24
633.438	15.13
633.629	15.13
633.821	15.16
634.012	15.2
634.203	15.2
634.395	15.33
634.586	15.35
634.777	15.34
634.969	15.36
635.16	15.41
635.351	15.3
635.543	15.26
635.734	15.24
635.925	15.14
636.117	15.1
636.308	15.12
636.499	15.1
636.69	14.95
636.881	15.02
637.073	15.13
637.264	15.05
637.455	15.11
637.646	15.36
637.837	15.32
638.028	15.17
638.219	15.3
638.41	15.22
638.601	15.07
638.792	15.07
638.983	15.06
639.174	14.92
639.365	14.91
639.556	14.89
639.747	14.88
639.938	14.89
640.129	14.94
640.32	14.83
640.511	14.88
640.701	14.99
640.892	14.98
641.083	15.03
641.274	15.23
641.465	15.21
641.655	15.07
641.846	15.03
642.037	14.91
642.228	14.75
642.418	14.77
642.609	14.78
642.8	14.86
642.99	14.84
643.181	14.97
643.372	14.99
643.562	15
643.753	14.85
643.943	14.81
644.134	14.66
644.324	14.58
644.515	14.53
644.705	14.63
644.896	14.69
645.086	14.74
645.277	14.72
645.467	14.71
645.658	14.54
645.848	14.52
646.038	14.51
646.229	14.42
646.419	14.28
646.61	14.4
646.8	14.3
646.99	14.23
647.18	14.27
647.371	14.34
647.561	14.22
647.751	14.26
647.941	14.21
648.132	14.25
648.322	14.28
648.512	14.39
648.702	14.39
648.892	14.42
649.082	14.31
649.272	14.1
649.462	13.96
649.653	13.81
649.843	13.73
650.033	13.69
650.223	13.77
650.413	13.73
650.603	13.83
650.793	13.83
650.983	13.78
651.172	13.72
651.362	13.68
651.552	13.55
651.742	13.49
651.932	13.54
652.122	13.49
652.312	13.48
652.502	13.52
652.691	13.5
652.881	13.37
653.071	13.44
653.261	13.26
653.45	13.05
653.64	12.94
653.83	12.81
654.019	12.59
654.209	12.59
654.399	12.58
654.588	12.5
654.778	12.43
654.968	12.33
655.157	12.24
655.347	12.17
655.536	11.98
655.726	11.91
655.915	11.73
656.105	11.6
656.294	11.52
656.484	11.38
656.673	11.28
656.863	11.31
657.052	11.12
657.241	10.9
657.431	10.69
657.62	10.43
657.809	10.1
657.999	9.93
658.188	9.72
658.377	9.75
658.567	9.72
658.756	9.62
658.945	9.48
659.134	9.34
659.324	9.14
659.513	8.99
659.702	8.86
659.891	8.76
660.08	8.67
660.269	8.69
660.458	8.5
660.648	8.44
660.837	8.33
661.026	8.27
661.215	8.01
661.404	7.86
661.593	7.82
661.782	7.61
661.971	7.51
662.16	7.35
662.349	7.37
662.538	7.12
662.726	7.09
662.915	6.86
663.104	6.78
663.293	6.73
663.482	6.78
663.671	6.73
663.86	6.68
664.048	6.61
664.237	6.52
664.426	6.28
664.615	6.3
664.803	6.32
664.992	6.31
665.181	6.16
665.369	6.03
665.558	5.85
665.747	5.73
665.935	5.76
666.124	5.86
666.312	6.02
666.501	6.07
666.69	5.94
666.878	5.84
667.067	5.66
667.255	5.65
667.444	5.9
667.632	6.1
667.82	6.24
668.009	6.21
668.197	6.07
668.386	5.87
668.574	5.94
668.762	5.78
668.951	5.78
669.139	5.84
669.327	5.68
669.516	5.72
669.704	5.66
669.892	5.88
670.08	5.93
670.269	5.9
670.457	5.64
670.645	5.56
670.833	5.55
671.021	5.55
671.21	5.66
671.398	5.94
671.586	6.06
671.774	5.93
671.962	5.93
672.15	5.92
672.338	5.75
672.526	5.79
672.714	5.75
672.902	5.85
673.09	6.04
673.278	6.29
673.466	6.38
673.654	6.63
673.842	6.56
674.03	6.52
674.218	6.36
674.405	6.3
674.593	6.28
674.781	6.48
674.969	6.55
675.157	6.76
675.344	6.93
675.532	6.95
675.72	7
675.908	7.08
676.095	7
676.283	7.1
676.471	7.33
676.658	7.35
676.846	7.36
677.033	7.57
677.221	7.61
677.409	7.36
677.596	7.45
677.784	7.45
677.971	7.4
678.159	7.42
678.346	7.61
678.534	7.69
678.721	7.87
678.909	7.93
679.096	7.94
679.283	8.17
679.471	8.25
679.658	8.42
679.846	8.58
680.033	8.85
680.22	8.79
680.408	8.76
680.595	8.75
680.782	8.71
680.969	8.75
681.157	8.94
681.344	9.07
681.531	9.21
681.718	9.29
681.905	9.43
682.093	9.55
682.28	9.85
682.467	10.16
682.654	10.35
682.841	10.39
683.028	10.65
683.215	10.64
683.402	10.5
683.589	10.77
683.776	11.07
683.963	11
684.15	11.28
684.337	11.58
684.524	11.73
684.711	11.91
684.898	12.03
685.085	12.18
685.271	12.44
685.458	12.55
685.645	12.69
685.832	13.09
686.019	13.38
686.205	13.44
686.392	13.72
686.579	14
686.766	14.51
686.952	14.78
687.139	15.33
687.326	15.55
687.512	15.9
687.699	16
687.886	16.19
688.072	16.35
688.259	16.87
688.445	17.28
688.632	17.55
688.818	18.3
689.005	18.66
689.191	19.02
689.378	19.58
689.564	20.07
689.751	20.06
689.937	20.56
690.124	21.06
690.31	21.36
690.496	21.82
690.683	22.61
690.869	23.07
691.055	23.49
691.242	24.31
691.428	24.98
691.614	25.36
691.8	26.11
691.987	26.95
692.173	27.29
692.359	27.88
692.545	28.77
692.731	29.35
692.918	29.67
693.104	30.25
693.29	30.89
693.476	31.4
693.662	31.93
693.848	32.46
694.034	32.97
694.22	33.42
694.406	34.06
694.592	34.74
694.778	35.38
694.964	35.98
695.15	36.63
695.336	37.17
695.522	37.9
695.708	38.38
695.894	39.13
696.08	39.62
696.265	40.07
696.451	40.42
696.637	41.39
696.823	42.1
697.009	42.73
697.194	43.45
697.38	43.98
697.566	44.46
697.751	44.95
697.937	45.74
698.123	46.28
698.308	47.1
698.494	48.04
698.68	48.24
698.865	48.79
699.051	49.47
699.236	49.98
699.422	50.05
699.607	50.86
699.793	51.22
699.978	51.47
700.164	51.77
700.349	52.59
700.535	52.97
700.72	53.45
700.906	54.05
701.091	54.37
701.276	54.7
701.462	55.39
701.647	56.19
701.832	56.78
702.018	57.34
702.203	57.8
702.388	58.02
702.573	58.22
702.759	58.68
702.944	59.18
703.129	59.26
703.314	59.59
703.499	59.64
703.684	59.72
703.87	60.86
704.055	61.8
704.24	62.22
704.425	63.16
704.61	63.73
704.795	63.38
704.98	63.47
705.165	63.54
705.35	63.62
705.535	63.76
705.72	64.23
705.905	64.67
706.09	65.51
706.275	65.69
706.459	65.85
706.644	66
706.829	66.27
707.014	65.99
707.199	66.6
707.384	67.07
707.568	67.17
707.753	67.5
707.938	68.15
708.123	68.21
708.307	68.31
708.492	68.61
708.677	68.62
708.861	68.45
709.046	68.39
709.231	69.28
709.415	69.91
709.6	69.82
709.784	70.24
709.969	70.6
710.153	70.07
710.338	70.05
710.522	70.4
710.707	70.88
710.891	70.92
711.076	71.24
711.26	71.16
711.445	71.34
711.629	71.26
711.813	71.63
711.998	72.23
712.182	72.08
712.366	72.84
712.551	73.38
712.735	73.54
712.919	73.14
713.103	73.93
713.288	73.46
713.472	73.36
713.656	73.79
713.84	73.91
714.024	73.77
714.208	73.9
714.393	73.98
714.577	74
714.761	74.56
714.945	74.78
715.129	74.69
715.313	74.94
715.497	74.78
715.681	75.16
715.865	74.93
716.049	75.12
716.233	75.01
716.417	75.31
716.601	74.8
716.785	75.01
716.968	75.61
717.152	75.57
717.336	75.54
717.52	75.67
717.704	75.78
717.888	75.68
718.071	76.07
718.255	76.12
718.439	75.93
718.622	76.09
718.806	76.46
718.99	76.3
719.174	76.34
719.357	76.68
719.541	77.03
719.724	76.73
719.908	77.45
720.092	78.18
720.275	78.4
720.459	78.14
720.642	77.93
720.826	77.53
721.009	76.96
721.193	76.8
721.376	77.02
721.559	77.73
721.743	77.84
721.926	78.41
722.11	78.63
722.293	78
722.476	77.14
722.66	77.07
722.843	76.72
723.026	76.17
723.21	77.28
723.393	78.59
723.576	78.99
723.759	78.68
723.942	79.06
724.126	78.6
724.309	77.93
724.492	77.84
724.675	77.81
724.858	78.5
725.041	79.28
725.224	79.86
725.407	80.19
725.59	81.26
725.774	80.59
725.957	79.34
726.14	78.97
726.322	78.93
726.505	78.6
726.688	79.47
726.871	80.09
727.054	80.39
727.237	79.98
727.42	80.79
727.603	80.7
727.786	80.68
727.968	80.58
728.151	81.06
728.334	80.13
728.517	80.11
728.699	80.88
728.882	81.23
729.065	81.5
729.248	82.01
729.43	81.98
729.613	82.49
729.796	83.11
729.978	82.56
730.161	81.89
730.343	81.72
730.526	82.29
730.708	81.09
730.891	81
731.073	81.72
731.256	81.64
731.438	80.49
731.621	81.5
731.803	81.83
731.986	81.44
732.168	81.54
732.35	81.9
732.533	81.53
732.715	81.26
732.898	82.46
733.08	82.54
733.262	82.95
733.444	82.76
733.627	83.47
733.809	83.08
733.991	84.29
734.173	83.5
734.355	83.09
734.538	83.66
734.72	82.91
734.902	82.29
735.084	82.28
735.266	83.26
735.448	83.16
735.63	83.4
735.812	83.16
735.994	84.49
736.176	84.83
736.358	84.63
736.54	86.4
736.722	86.72
736.904	85.52
737.086	85.21
737.268	86.47
737.45	85.34
737.632	85.25
737.814	85.35
737.995	85.43
738.177	84.28
738.359	83.54
738.541	84.28
738.723	85.1
738.904	85.22
739.086	85.58
739.268	85.67
739.449	85.22
739.631	84.96
739.813	85.11
739.994	85.46
740.176	86.41
740.358	86.26
740.539	87.5
740.721	87.59
740.902	87.8
741.084	87.24
741.265	87.24
741.447	86.51
741.628	86.97
741.81	86
741.991	86.68
742.172	88.16
742.354	88.2
742.535	87.39
742.717	88.06
742.898	88.52
743.079	88.37
743.261	87.8
743.442	88.22
743.623	89.19
743.804	88.26
743.986	88.13
744.167	87.57
744.348	87.21
744.529	86.41
744.71	86
744.891	85.84
745.073	85.53
745.254	84.24
745.435	83.79
745.616	83.86
745.797	83.49
745.978	84.24
746.159	85.62
746.34	84.78
746.521	86.22
746.702	84.92
746.883	84.53
747.064	83.71
747.245	84.35
747.426	82.65
747.606	83.6
747.787	83.97
747.968	85.21
748.149	85.98
748.33	87.21
748.51	87.68
748.691	87.11
748.872	87.42
749.053	86.81
749.233	85.92
749.414	84.77
749.595	84.13
749.775	82.6
749.956	81.99
750.137	81.51
750.317	82.45
750.498	84.7
750.678	85.39
750.859	86.07
751.04	86.64
751.22	84.5
751.4	83.29
751.581	82.39
751.761	83.17
751.942	84.86
752.122	86.17
752.303	86.17
752.483	86.73
752.663	84.8
752.844	82.54
753.024	84.6
753.204	84.19
753.385	82.9
753.565	83.99
753.745	84.64
753.925	82.05
754.106	82.15
754.286	83.27
754.466	82.64
754.646	83.28
754.826	82.43
755.006	81.99
755.187	83.21
755.367	83.51
755.547	83.93
755.727	85.96
755.907	85.73
756.087	85.54
756.267	84.9
756.447	83.75
756.627	83.04
756.807	85.01
756.987	83.41
757.167	84.45
757.346	84.93
757.526	83.86
757.706	83.52
757.886	85.36
758.066	84.95
758.246	85.99
758.425	86.61
758.605	85.51
758.785	84.38
758.965	84.39
759.144	81.25
759.324	81.39
759.504	82.3
759.683	82.64
759.863	80.86
760.043	80.97
760.222	80.88
760.402	79.95
760.581	78.78
760.761	81.41
760.94	82.12
761.12	83.84
761.299	83.78
761.479	83.87
761.658	81.63
761.838	81.15
762.017	79.46
762.197	79.48
762.376	79.91
762.555	81.43
762.735	82.8
762.914	81.3
763.093	81.03
763.273	79.68
763.452	78.19
763.631	76.92
763.81	77.76
763.99	77.58
764.169	78.52
764.348	76.54
764.527	75.17
764.706	76.3
764.885	78.54
765.064	77.07
765.243	79.09
765.423	80.91
765.602	80.54
765.781	76.41
765.96	75.62
766.139	74.8
766.318	76.6
766.497	75.23
766.676	77.31
766.854	81.02
767.033	82.86
767.212	79.78
767.391	80.53
767.57	81.86
767.749	79.87
767.928	80.58
768.106	80.15
768.285	78.57
768.464	77.79
768.643	77.46
768.821	75.68
769	78.01
769.179	77.7
769.357	75.06
769.536	74.3
769.715	75.38
769.893	75.67
770.072	76.18
770.25	77.73
770.429	78.76
770.607	77.29
770.786	76.51
770.964	78.25
771.143	76.91
771.321	78.72
771.5	79.13
771.678	77.79
771.857	74.43
772.035	75.61
772.213	74.31
772.392	71.95
772.57	74.2
772.748	76.98
772.927	75.73
773.105	75.43
773.283	78.52
773.461	77.51
773.64	77.88
773.818	79.92
773.996	80.2
774.174	78.35
774.352	74.14
774.531	70.06
774.709	71.64
774.887	70.39
775.065	70.7
775.243	73.59
775.421	75.27
775.599	74.75
775.777	72.67
775.955	69.17
776.133	68.24
776.311	69.14
776.489	66.26
776.667	67.63
776.844	71.29
777.022	70.14
777.2	69.79
777.378	71.09
777.556	73.02
777.734	74.52
777.911	77.31
778.089	77.04
778.267	77.7
778.445	76.79
778.622	73.14
778.8	74.5
778.978	77.01
779.155	74.73
779.333	74.02
779.511	75.34
779.688	74.94
779.866	69.43
780.043	66.57
780.221	65.23
780.398	62.51
780.576	61.95
780.753	66.51
780.931	69.78
781.108	69.83
781.286	73.03
781.463	70.81
781.64	66.4
781.818	67.08
781.995	69.34
782.172	69.48
782.35	70.45
782.527	75.1
782.704	71.61
782.882	71.39
783.059	68.73
783.236	69.73
783.413	70.28
783.59	72.18
783.768	69.34
783.945	74.88
784.122	74.07
784.299	72.34
784.476	69.5
784.653	69.81
784.83	64.91
785.007	61.94
785.184	61.84
785.361	62.83
785.538	66.68
785.715	71.18
785.892	72.79
786.069	75.24
786.246	77.4
786.423	76.48
786.6	75.14
786.776	77.85
786.953	73.32
787.13	72.8
787.307	70.82
787.484	69.96
787.66	66.05
787.837	66.53
788.014	66
788.191	64.24
788.367	61.68
788.544	65.56
788.721	64.89
788.897	68.86
789.074	72.28
789.25	71.31
789.427	70.71
789.603	70.89
789.78	66.52
789.956	63.51
790.133	64.55
790.309	63.18
790.486	65.74
790.662	68.92
790.839	69.29
791.015	69.92
791.192	69.15
791.368	70.69
791.544	66.49
791.721	66.59
791.897	67.66
792.073	66.1
792.249	57.37
792.426	60.86
792.602	62.81
792.778	59.52
792.954	60.11
793.13	63.42
793.307	56.61
793.483	49.54
793.659	48.95
793.835	47.68
794.011	44.55
794.187	45.4
794.363	46.06
794.539	50.55
794.715	50.32
794.891	51.65
795.067	54.15
795.243	59.65
795.419	58.38
795.595	60.73
795.771	63.44
795.947	61.9
796.122	56.92
796.298	59.85
796.474	59.91
796.65	59.57
796.826	57.89
797.001	61.75
797.177	55.57
797.353	60.92
797.529	62.09
797.704	60.24
797.88	56.75
798.056	55.3
798.231	48.2
798.407	52.03
798.582	56.94
798.758	69.2
798.934	77.1
799.109	73.24
799.285	67.27
799.46	65.91
799.636	56.94
799.811	54.16
799.986	60.19
800.162	61.06
800.337	59.44
800.513	55.82
800.688	52.82
800.863	62.13
801.039	57.75
801.214	56.53
801.389	62.7
801.565	61.82
801.74	44.49
801.915	51.91
802.09	53.23
802.265	61.5
802.441	57.75
802.616	63.42
802.791	63.56
802.966	65.91
803.141	60.52
803.316	61.86
803.491	66.14
803.666	66
803.841	59.85
804.016	51.18
804.191	51.8
804.366	42.15
804.541	41.74
804.716	43.31
804.891	35.06
805.066	46.42
805.241	49.02
805.416	47.68
805.591	48.41
805.765	61.57
805.94	59.85
806.115	62
806.29	54.49
806.464	60.3
806.639	54.59
806.814	39.81
806.989	32.28
807.163	47.98
807.338	41.49
807.512	39.42
807.687	36.41
807.862	56.55
808.036	54.2
808.211	59.8
808.385	68.75
808.56	83.83
808.734	72.85
808.909	70.62
809.083	61.62
809.258	66.78
809.432	63.25
809.606	48.56
809.781	42.77
809.955	54.13
810.13	50.45
810.304	45.24
810.478	45.35
810.652	55.6
810.827	48.53
811.001	43.63
811.175	46.96
811.349	53.06
811.524	44.22
811.698	35.41
811.872	38.88
812.046	45.48
812.22	50.7
812.394	50.3
812.568	59.02
812.742	65.63
812.916	59.69
813.09	49.77
813.264	51.72
813.438	54.6
813.612	45.57
813.786	42.52
813.96	60.25
814.134	62.5
814.308	75.17
814.482	74.82
814.656	64.53
814.83	61.28
815.003	64.66
815.177	52.16
815.351	46.15
815.525	49.39
815.698	43.52
815.872	33.12
816.046	22.79
816.219	33.26
816.393	53.79
816.567	54.14
816.74	58.09
816.914	64.01
817.088	61.09
817.261	36.99
817.435	25.57
817.608	36.35
817.782	31.63
817.955	43.62
818.129	47.2
818.302	60.25
818.475	67.67
818.649	68.63
818.822	46.31
818.996	66.35
819.169	58.69
819.342	35.46
819.516	45.9
819.689	63.94
819.862	54.48
820.035	42.69
820.209	45.81
820.382	39.31
820.555	30.68
820.728	7.56
820.901	13.43
821.075	10.46
821.248	12.28
821.421	8.88
821.594	18.28
821.767	44.71
821.94	60.21
822.113	35.77
822.286	35.18
822.459	42.14
822.632	18.13
822.805	-3.71
822.978	-2.56
823.151	-5.32
823.324	-12.77
823.496	-30.36
823.669	-23.86
823.842	-8.89
824.015	-12.1
824.188	-29.74
824.361	-8.54
824.533	-14.48
824.706	0.67
824.879	4.63
825.051	31.48
825.224	25.31
825.397	27
825.569	10.69
825.742	29.99
825.915	35.06
826.087	41.36
826.26	35.22
826.432	36.06
826.605	34.58
826.777	23.92
826.95	24.39
827.122	13.86
827.295	22.81
827.467	21.57
827.64	-10.41
827.812	-24.08
827.984	-0.74
828.157	-21.19
828.329	-56.31
828.501	-30.76
828.674	5.49
828.846	-21.64
829.018	9.31
829.19	-10.17
829.363	12.99
829.535	14.97
829.707	16.63
829.879	-6.2
830.051	0.51
830.223	-10.7
830.395	-57.33
830.568	-52.15
830.74	-56.53
830.912	-12.25
831.084	-19.07
831.256	-7.09
831.428	-9.86
831.6	-6.2
831.772	-58.09
831.943	-67.43
832.115	-21.94
832.287	-2.1
832.459	11.57
832.631	34.97
832.803	65.66
832.975	79.14
833.146	71.75
833.318	55.64
833.49	60.3
833.662	22.48
833.833	-15.89
834.005	0.59
834.177	8.08
834.348	8.29
834.52	11.09
834.692	17.55
834.863	-34.82
835.035	-27.48
835.206	-100.52
835.378	-66.8
835.549	-43.8
835.721	-19.51
835.892	-30.71
836.064	-16.5
836.235	-26.24
836.407	-22.53
836.578	-56.74
836.749	-56.09
836.921	-78.61
837.092	-90.33
837.264	-91.38
837.435	-95.95
837.606	-26.93
837.777	18.71
837.949	36.98
838.12	42
838.291	56.95
838.462	31.23
838.633	-1.95
838.805	-12.11
838.976	-14.91
839.147	-80.93
839.318	-71
839.489	-138.26
839.66	-112.81
839.831	-48.71
840.002	-19.82
840.173	-43.17
840.344	36.68
840.515	22.36
840.686	-178.08
840.857	-140.3
841.028	-148.84
841.199	-136.93
841.369	-137.29
841.54	-104.62
841.711	-62.29
841.882	-18.07
842.053	-19.4
842.223	-9.74
842.394	24.59
842.565	15.3
842.736	14.74
842.906	19.28
843.077	28.45
843.248	43.31
843.418	39.41
843.589	11.75
843.759	69.39
843.93	49.69
844.101	0.95
844.271	3.71
844.442	16.25
844.612	32.27
844.783	11.72
844.953	-20.03
845.123	-6.64
845.294	-32.26
845.464	-234.85
845.635	-79.12
845.805	35.68
845.975	31.98
846.146	-9.67
846.316	-16.48
846.486	11.64
846.656	42.47
846.827	34.05
846.997	41.26
847.167	90.31
847.337	37.47
847.507	-17.65
847.677	-14.29
847.848	41.31
848.018	26.03
848.188	32.7
848.358	20.97
848.528	19.36
848.698	-30.63
848.868	-130.03
849.038	-242.8
849.208	-91.93
849.378	-65.56
849.548	-26.4
849.718	4.6
849.887	34.54
850.057	16.09
850.227	-31.48
850.397	-75.95
850.567	-195.83
850.737	-510.33
850.906	-1553.44
851.076	-1085.74
851.246	-449.61
851.415	-55.6
851.585	-27.24
851.755	-51.21
851.924	12.8
852.094	-12.19
852.264	-111.01
852.433	-1125.72
852.603	-199.94
852.772	-163.05
852.942	-93.5
853.111	-55.05
853.281	-10.28
853.45	1.73
853.62	-75.38
853.789	-80.99
853.959	-60.83
854.128	-52.33
854.297	-83.66
854.467	-108.02
854.636	-122.89
854.805	-49.97
854.975	-108.2
855.144	-166.23
855.313	-94.93
855.482	-364.05
855.652	-349.91
855.821	-193.82
855.99	-29.5
856.159	1.16
856.328	20.58
856.497	16.05
856.667	8.34
856.836	12.69
857.005	-43.01
857.174	-80.59
857.343	-113.87
857.512	-97.73
857.681	-138.4
857.85	-163.91
858.019	-96.79
858.188	-76.56
858.356	-89
858.525	-157.16
858.694	-128.71
858.863	-225
859.032	-185.94
859.201	-243.66
859.369	-213.71
859.538	-169.31
859.707	-135.35
859.876	-169.68
860.044	-165.45
860.213	-17.65
860.382	-24.96
860.55	-18.77
860.719	38.05
860.888	52.99
861.056	3.73
861.225	-14.37
861.393	52.42
861.562	65.18
861.73	-18.9
861.899	-38.09
862.067	-292.24
862.236	-48.52
862.404	-220.68
862.572	-94.95
862.741	-7.29
862.909	-11.27
863.078	-119.31
863.246	-88.01
863.414	-56.05
863.582	-36.91
863.751	-83.05
863.919	-67.64
864.087	-28.48
864.255	-69.49
864.424	-424.6
864.592	-41.69
864.76	-87.94
864.928	-207
865.096	-162.66
865.264	-106.94
865.432	-1910.8
865.6	-97.88
865.768	-123.6
865.936	-112.93
866.104	-102.39
866.272	-77.11
866.44	-338.09
866.608	597.15
866.776	323.91
866.944	3734.3
867.112	-759.22
867.28	-301.17
867.448	-131.99
867.615	-72.45
867.783	-47.69
867.951	-46.2
868.119	-8.4
868.286	-33.04
868.454	-103.4
868.622	-81.09
868.789	-30.73
868.957	166.07
869.125	-1265.13
869.292	-56.94
869.46	-120.23
869.627	54.52
869.795	-2.61
869.963	18.73
870.13	33.55
870.298	67.29
870.465	-34.18
870.632	-62.17
870.8	-33.79
870.967	-73.84
871.135	-158.52
871.302	-125.6
871.469	-130.25
871.637	-145.46
871.804	-75
871.971	-141.25
872.139	-508.26
872.306	-37.62
872.473	-63.71
872.64	-333.8
872.807	-67.45
872.975	64.82
873.142	-85.36
873.309	1380.41
873.476	109
873.643	197.88
873.81	90.14
873.977	89.06
874.144	90.99
874.311	-54.53
874.478	-152.67
874.645	-175.04
874.812	-132.05
874.979	-76.08
875.146	-85.19
875.313	-96.56
875.48	3.79
875.647	-18.6
875.813	-72
875.98	-43.58
876.147	-71.64
876.314	-183.87
876.481	1341.94
876.647	-1531.18
876.814	639.25
876.981	-107.6
877.147	-33.69
877.314	30.54
877.481	57.41
877.647	46.66
877.814	-8.94
877.98	-41.22
878.147	-32.37
878.314	20.97
878.48	-16.82
878.647	3.17
878.813	37.07
878.979	36.18
879.146	-13.86
879.312	-3.4
879.479	-33.01
879.645	-120.8
879.811	-327.68
879.978	-740.27
880.144	-231.11
880.31	-126.48
880.477	-397.8
880.643	-405.9
880.809	-187.26
880.975	-139.72
881.142	-1023.41
881.308	-88.62
881.474	-31.09
881.64	-89.27
881.806	-180.45
881.972	-58.31
882.138	-86.79
882.304	-120.39
882.47	-233.36
882.636	-681.76
882.802	-212.34
882.968	-64.87
883.134	-46.49
883.3	0.25
883.466	26.26
883.632	65.39
883.798	49.5
883.964	53.82
884.129	37.92
884.295	54.43
884.461	-31.34
884.627	-35.27
884.793	-47.53
884.958	24.86
885.124	-45.04
885.29	-84.99
885.455	-70.27
885.621	73.42
885.787	-64.97
885.952	-19.96
886.118	-27.33
886.283	-29.16
886.449	-126.74
886.614	-126.56
886.78	-228.75
886.945	1068.44
887.111	-791.18
887.276	-729.97
887.442	-1211.59
887.607	-598.94
887.773	-334.63
887.938	-253.2
888.103	-316.95
888.269	-220.71
888.434	-362.03
888.599	-165.82
888.764	-21.24
888.93	-0.48
889.095	-29.25
889.26	-54.82
889.425	-5.64
889.59	-17.66
889.756	-62.81
889.921	-34.41
890.086	-4.67
890.251	-8.47
890.416	-164.93
890.581	-1201.21
890.746	130.98
890.911	290.92
891.076	203.71
891.241	-562.5
891.406	-2.37
891.571	-66.29
891.736	-327.87
891.901	-579.42
892.065	495.33
892.23	152.63
892.395	195.06
892.56	265.53
892.725	-199.8
892.889	-777.44
893.054	-196.14
893.219	-137.94
893.384	-100.64
893.548	-173.32
893.713	-185.04
893.878	-136.33
