Data from Ofra_1a_PS_9CX5_Reflection_1.txt Node
Date: Tue Jul 20 11:04:08 EDT 2021
User: Adam
Spectrometer: FLMT01687
Trigger mode: 0
Integration Time (sec): 1.004000E0
Scans to average: 2
Electric dark correction enabled: true
Nonlinearity correction enabled: false
Boxcar width: 2
XAxis mode: Wavelengths
Number of Pixels in Spectrum: 3648
>>>>>Begin Spectral Data<<<<<
179.494	-507.61
179.716	-644.27
179.937	1331.1
180.158	-1617.83
180.38	189.75
180.601	90.57
180.823	57.76
181.044	-29.21
181.265	-126.97
181.486	217.47
181.708	175.95
181.929	-4181.82
182.15	-18.05
182.372	441.38
182.593	450.14
182.814	-398.64
183.035	-16.57
183.257	23.86
183.478	-8.28
183.699	-12.25
183.92	-45.76
184.141	-59.58
184.363	-31.83
184.584	-8.46
184.805	7.37
185.026	65.34
185.247	54.71
185.468	23.87
185.689	48.47
185.91	14.56
186.132	5.73
186.353	12.63
186.574	22.35
186.795	2.09
187.016	38.44
187.237	29.75
187.458	19.98
187.679	19.4
187.9	43.61
188.121	43.98
188.342	61.62
188.563	82.26
188.784	74.42
189.005	53.21
189.226	44.32
189.447	39.94
189.667	32.38
189.888	21.9
190.109	4.24
190.33	21.49
190.551	-9.83
190.772	-6.13
190.993	-25.9
191.214	-21.58
191.434	-87.04
191.655	-26.53
191.876	22.78
192.097	48.47
192.318	64.72
192.538	63.51
192.759	48.44
192.98	32.39
193.201	26.82
193.421	13.21
193.642	19.47
193.863	12.51
194.083	1.76
194.304	-3.42
194.525	-3.21
194.745	5.18
194.966	0.97
195.187	1.21
195.407	0.49
195.628	3.64
195.848	-0.13
196.069	3.01
196.29	20.03
196.51	13.19
196.731	7.96
196.951	-1.56
197.172	-11.49
197.392	-37.79
197.613	-9.19
197.833	-11.43
198.054	-24.62
198.274	-6.68
198.495	5.52
198.715	-0.42
198.936	5.23
199.156	3.33
199.377	-8.16
199.597	-3.31
199.817	-7.63
200.038	-37.04
200.258	4.45
200.479	15.52
200.699	23.96
200.919	30.81
201.14	46.3
201.36	46.56
201.58	38.22
201.801	27.37
202.021	2.99
202.241	-11.07
202.461	-15.8
202.682	15.63
202.902	38.22
203.122	52.63
203.342	66.87
203.563	60.58
203.783	35.27
204.003	10.57
204.223	15.75
204.443	12.76
204.663	12.31
204.884	8.08
205.104	0.44
205.324	8.8
205.544	-7.53
205.764	11.85
205.984	33.5
206.204	50.21
206.424	30.9
206.644	22
206.864	-1.99
207.084	0.29
207.304	-9.02
207.525	8.13
207.745	28.02
207.964	48.84
208.184	63.54
208.404	39.64
208.624	28.71
208.844	15.21
209.064	8.3
209.284	-2.21
209.504	4.54
209.724	1.34
209.944	-2.14
210.164	-14.07
210.384	-19.59
210.604	-60.4
210.823	-64.58
211.043	-32.45
211.263	-83.21
211.483	-24.25
211.703	16.19
211.922	14.44
212.142	26.3
212.362	45.91
212.582	41.94
212.801	29.05
213.021	27.31
213.241	3.22
213.461	-17.21
213.68	-13.84
213.9	-20.58
214.12	-19.17
214.339	-17.76
214.559	-7.56
214.779	-1.4
214.998	16.08
215.218	14.57
215.438	21.35
215.657	32.82
215.877	12.62
216.096	25.77
216.316	33.16
216.535	28.35
216.755	18.91
216.974	3.97
217.194	-17.49
217.413	-17.06
217.633	-4.06
217.852	-5.15
218.072	12.93
218.291	6.34
218.511	7.76
218.73	-2.49
218.95	-19.61
219.169	-20.49
219.389	-1.67
219.608	-16.4
219.827	-8.3
220.047	15.34
220.266	0.35
220.485	-21.36
220.705	13.61
220.924	-3.08
221.143	-2.47
221.363	9.92
221.582	11.03
221.801	10.56
222.021	32.13
222.24	36.51
222.459	54.43
222.678	52.87
222.897	40.8
223.117	41.15
223.336	44.79
223.555	37.63
223.774	64.31
223.993	80.13
224.213	77.63
224.432	64.22
224.651	47.28
224.87	39.17
225.089	41.81
225.308	24.97
225.527	8.38
225.746	13.19
225.965	9.68
226.184	-14.7
226.404	-13.43
226.623	2.97
226.842	9.19
227.061	10.62
227.28	23.02
227.499	22.36
227.718	20.65
227.936	15.94
228.155	14.6
228.374	11.58
228.593	28.48
228.812	33.09
229.031	36.64
229.25	29.22
229.469	22.85
229.688	5.81
229.907	13.75
230.125	9.57
230.344	16.92
230.563	30.84
230.782	38.78
231.001	39.18
231.22	40.9
231.438	41.07
231.657	29.17
231.876	30.22
232.095	33.87
232.313	20.5
232.532	18.84
232.751	22.95
232.969	27.35
233.188	11.69
233.407	14.63
233.625	19.85
233.844	14.51
234.063	5.43
234.281	16.41
234.5	17.59
234.719	10.59
234.937	-3.45
235.156	11.57
235.374	-10.04
235.593	28.15
235.811	29.09
236.03	24.66
236.249	14.79
236.467	28.19
236.686	16.75
236.904	24.68
237.123	26.33
237.341	20.81
237.559	2.64
237.778	15.65
237.996	-27.01
238.215	-59.06
238.433	-46.52
238.652	2.83
238.87	-31.04
239.088	1.9
239.307	10.57
239.525	7.49
239.743	-3.81
239.962	-25.08
240.18	-9.41
240.398	-7.17
240.617	-17.01
240.835	-27.2
241.053	12.41
241.271	15.09
241.49	34.6
241.708	27.4
241.926	30.47
242.144	35.25
242.363	15.98
242.581	-24.6
242.799	-41.04
243.017	-24.34
243.235	-29.8
243.453	-46.42
243.672	-28.21
243.89	-17.88
244.108	-1.78
244.326	4.35
244.544	20.69
244.762	6.24
244.98	27.11
245.198	25.67
245.416	23.87
245.634	17.35
245.852	22.73
246.07	24.67
246.288	15.51
246.506	27.05
246.724	21.17
246.942	24.32
247.16	15.95
247.378	25.85
247.596	24.52
247.814	55.26
248.032	36.93
248.25	57.62
248.468	38.1
248.685	33.56
248.903	18.51
249.121	28.79
249.339	11.59
249.557	10.22
249.775	21.09
249.992	32.53
250.21	26.07
250.428	33.83
250.646	45.15
250.863	29.14
251.081	13.26
251.299	12.14
251.517	11.92
251.734	-8.84
251.952	5.36
252.17	11.64
252.387	-5.7
252.605	-25.5
252.823	-18.4
253.04	-12.02
253.258	4.88
253.475	31.85
253.693	35.24
253.911	29.49
254.128	18.27
254.346	21.76
254.563	21.19
254.781	30.37
254.998	26.27
255.216	12.84
255.433	-11.14
255.651	-9.69
255.868	-14.86
256.086	-4.4
256.303	4.37
256.521	14.68
256.738	5.88
256.956	4.02
257.173	-2.36
257.39	7.39
257.608	10.52
257.825	12.33
258.043	28.71
258.26	18.84
258.477	27.48
258.695	30.3
258.912	18.14
259.129	11.76
259.346	22.59
259.564	8.64
259.781	-4.5
259.998	16.99
260.216	7.68
260.433	1.68
260.65	-4.32
260.867	-6.35
261.084	8.26
261.302	15.85
261.519	54.77
261.736	57.96
261.953	64.67
262.17	68.49
262.387	67.44
262.604	58.81
262.822	59.99
263.039	46.75
263.256	30.52
263.473	28.09
263.69	19.97
263.907	24.94
264.124	34.96
264.341	44.06
264.558	35.09
264.775	39.66
264.992	21.32
265.209	14.02
265.426	4.22
265.643	16.46
265.86	24.76
266.077	48.93
266.294	47.31
266.51	48.78
266.727	48.5
266.944	51.58
267.161	37.22
267.378	36.15
267.595	18.04
267.812	-1.52
268.028	-17.22
268.245	19.61
268.462	9.69
268.679	36.1
268.896	64.42
269.112	42.64
269.329	13.63
269.546	38.82
269.763	25.38
269.979	6.2
270.196	22.52
270.413	24.5
270.629	-2.72
270.846	-5.68
271.063	-1.62
271.279	1.74
271.496	3.14
271.712	29.65
271.929	30.34
272.146	33.86
272.362	35.18
272.579	20.44
272.795	17.47
273.012	29.08
273.228	36.98
273.445	35.88
273.661	43.26
273.878	34.35
274.094	23.58
274.311	16.01
274.527	10.55
274.744	29.1
274.96	28.96
275.177	29.34
275.393	39.59
275.609	35.69
275.826	27.89
276.042	19.2
276.259	22.52
276.475	-0.61
276.691	13.58
276.908	0.9
277.124	18.54
277.34	14.35
277.557	15.92
277.773	11.11
277.989	22.49
278.205	13.13
278.422	6.71
278.638	20.19
278.854	12.39
279.07	25.81
279.286	25.68
279.503	41.29
279.719	38.13
279.935	33
280.151	16.79
280.367	16.03
280.583	-2.17
280.799	-11.16
281.016	-42.3
281.232	-18.37
281.448	-16.08
281.664	-6.08
281.88	8.43
282.096	31.35
282.312	19.52
282.528	13.7
282.744	12.61
282.96	-12.87
283.176	-40.27
283.392	-41.51
283.608	-29.39
283.824	-54.75
284.04	-70.84
284.256	-39.13
284.471	-16.83
284.687	-12.28
284.903	15.44
285.119	38.06
285.335	44.83
285.551	49.52
285.767	52.57
285.982	32.71
286.198	-13.14
286.414	-26.77
286.63	-41.88
286.846	-14.8
287.061	-3.36
287.277	14.9
287.493	7.24
287.709	-14.99
287.924	-5.74
288.14	3.59
288.356	21.89
288.571	36.59
288.787	42.69
289.003	40.12
289.218	23.39
289.434	14.4
289.65	17.33
289.865	11.95
290.081	10.2
290.296	28.07
290.512	26.78
290.727	15.47
290.943	29.13
291.159	23.97
291.374	2.22
291.59	2.3
291.805	-3.56
292.021	-16.92
292.236	-13.83
292.451	8.37
292.667	21.36
292.882	44.61
293.098	50.62
293.313	41.32
293.529	31.97
293.744	9.56
293.959	0.24
294.175	5.58
294.39	-5.73
294.605	12.55
294.821	22.3
295.036	13.87
295.251	22.2
295.467	24.27
295.682	17.97
295.897	9.14
296.112	9.44
296.328	5.38
296.543	8.25
296.758	15.34
296.973	32.28
297.188	38.29
297.404	5.22
297.619	12.32
297.834	-21.67
298.049	-17.63
298.264	-19.75
298.479	25.87
298.694	36.07
298.909	47.63
299.125	42.5
299.34	55.05
299.555	60.11
299.77	58.86
299.985	43.47
300.2	35.57
300.415	31.34
300.63	25.48
300.845	12.08
301.06	26.69
301.275	41.05
301.49	41.04
301.704	40.93
301.919	47.91
302.134	37.55
302.349	20.33
302.564	13.24
302.779	-5.91
302.994	9.88
303.209	26.17
303.423	37.4
303.638	39.56
303.853	52.5
304.068	42.57
304.283	31.18
304.497	32.74
304.712	43.2
304.927	36.15
305.142	34.49
305.356	31.01
305.571	29.03
305.786	11.72
306	3.69
306.215	-5.6
306.43	6.62
306.644	-10.62
306.859	-9.94
307.074	8.53
307.288	-2.51
307.503	-3.67
307.717	1.12
307.932	15.78
308.147	-6.81
308.361	3.41
308.576	2.37
308.79	5.73
309.005	-15.39
309.219	17
309.434	23.25
309.648	12.43
309.863	22.09
310.077	25.6
310.292	31.97
310.506	22.93
310.72	21.56
310.935	42.39
311.149	34.45
311.364	39.84
311.578	37.15
311.792	38.29
312.007	-1.85
312.221	-8.12
312.435	-3.98
312.649	7.58
312.864	-18.07
313.078	-17.36
313.292	-1.07
313.507	-3.34
313.721	-3.88
313.935	33.64
314.149	34.41
314.363	34.83
314.578	20.67
314.792	-2.53
315.006	-6.07
315.22	6.67
315.434	15.24
315.648	10.67
315.862	19.04
316.077	15
316.291	23.29
316.505	-4.96
316.719	24.54
316.933	15.89
317.147	24.25
317.361	20.45
317.575	34.55
317.789	22.59
318.003	21.58
318.217	17.11
318.431	17.24
318.645	12.74
318.859	5.92
319.073	15.88
319.287	12.54
319.5	9.98
319.714	-2.91
319.928	15.65
320.142	28.25
320.356	35.02
320.57	25.93
320.784	40.05
320.997	14.2
321.211	15.59
321.425	2.09
321.639	18.06
321.853	24.97
322.066	13.17
322.28	5.7
322.494	15.49
322.707	15.83
322.921	4.06
323.135	25.13
323.349	39.96
323.562	49.31
323.776	53.27
323.989	53.46
324.203	39.23
324.417	17.96
324.63	-4.68
324.844	-21.67
325.057	-48.68
325.271	-38.8
325.485	-52.65
325.698	-17.66
325.912	3.33
326.125	13.55
326.339	35.07
326.552	37.34
326.766	25.74
326.979	19.4
327.193	32.66
327.406	-4.47
327.619	3.02
327.833	-5.4
328.046	-1.26
328.26	-15.98
328.473	-3.76
328.686	-6.64
328.9	18.18
329.113	16.79
329.326	20.23
329.54	17.44
329.753	26.06
329.966	14.63
330.179	19.74
330.393	22.29
330.606	23.64
330.819	10.79
331.032	19.01
331.246	13.91
331.459	26.46
331.672	20.09
331.885	12.77
332.098	1.37
332.311	-6.15
332.525	-9.98
332.738	-6.16
332.951	-6.35
333.164	4.92
333.377	2.93
333.59	-3.95
333.803	-7.57
334.016	3.47
334.229	5.66
334.442	15.34
334.655	13.3
334.868	15.08
335.081	4.32
335.294	-9.66
335.507	-9.62
335.72	-5.11
335.933	-13.01
336.146	13.6
336.359	27.82
336.572	31.64
336.785	32.23
336.997	50.3
337.21	18.41
337.423	-32.03
337.636	-36.14
337.849	-21.96
338.062	-8.03
338.274	5.28
338.487	6.39
338.7	-3.84
338.913	2.42
339.125	-3.95
339.338	-19.36
339.551	0.55
339.763	14.72
339.976	9.85
340.189	10.21
340.402	36.79
340.614	39.04
340.827	38.86
341.039	41.83
341.252	34.99
341.465	28.64
341.677	38.83
341.89	20.08
342.102	30.2
342.315	38.15
342.527	32.8
342.74	13.38
342.952	18.47
343.165	18.85
343.377	19.47
343.59	16.77
343.802	25.47
344.015	33
344.227	28.56
344.44	13.71
344.652	2.33
344.864	5.25
345.077	19.26
345.289	15.22
345.502	31.57
345.714	40.35
345.926	41.2
346.139	14.92
346.351	20.02
346.563	6.59
346.775	18.06
346.988	16.42
347.2	13.76
347.412	11.27
347.624	18.45
347.837	19.93
348.049	27.81
348.261	24.63
348.473	17.14
348.685	12.68
348.897	-5.55
349.11	-9.34
349.322	1.82
349.534	22.09
349.746	27.02
349.958	20.69
350.17	13
350.382	22.11
350.594	13.47
350.806	29.33
351.018	46.51
351.23	54.31
351.442	51.66
351.654	44.77
351.866	33.58
352.078	25.07
352.29	9.99
352.502	9.54
352.714	17.52
352.926	16.18
353.138	24.48
353.35	24.45
353.561	23.81
353.773	12.61
353.985	17.8
354.197	15.45
354.409	18.25
354.621	0.77
354.832	9.15
355.044	0.71
355.256	-23.42
355.468	-53.63
355.679	-13.13
355.891	-14.1
356.103	-16.9
356.314	-16.08
356.526	-10.59
356.738	-26.05
356.949	-21.16
357.161	-4.85
357.373	-2.08
357.584	7.56
357.796	15.49
358.008	16.7
358.219	17.31
358.431	26.85
358.642	44.66
358.854	39.07
359.065	28.5
359.277	17.85
359.488	12.78
359.7	-1.83
359.911	-14.3
360.123	-4.18
360.334	-15.85
360.546	-19.24
360.757	-21.22
360.969	-10.28
361.18	-26.01
361.391	-5.37
361.603	8.28
361.814	22.64
362.025	30.1
362.237	40.06
362.448	42.18
362.659	33.18
362.871	17.52
363.082	9.59
363.293	4.21
363.504	-15.6
363.716	-6.41
363.927	13.7
364.138	1.94
364.349	-15.31
364.56	-31.13
364.772	-5.29
364.983	1.85
365.194	4.28
365.405	17.9
365.616	46.81
365.827	28.12
366.038	19.49
366.25	29.34
366.461	28.12
366.672	18.43
366.883	17.36
367.094	16.96
367.305	-6.32
367.516	5.04
367.727	-6.3
367.938	-10.27
368.149	-15.63
368.36	-7.9
368.571	-27.16
368.781	-29.5
368.992	-14.3
369.203	-4.66
369.414	-4.65
369.625	1.25
369.836	20.47
370.047	11.17
370.258	4.04
370.468	3.64
370.679	-5.52
370.89	-25.73
371.101	7.88
371.312	5.32
371.522	10.52
371.733	14.39
371.944	17.99
372.155	11.44
372.365	14.34
372.576	13.98
372.787	22.69
372.997	21.73
373.208	13.66
373.419	16.83
373.629	3.21
373.84	-25.84
374.05	-22.67
374.261	-48
374.472	-36.02
374.682	-13.74
374.893	-3.89
375.103	4.91
375.314	18.94
375.524	7.2
375.735	4.02
375.945	20.65
376.156	10.27
376.366	7.47
376.577	10.21
376.787	20.57
376.997	15.99
377.208	16.63
377.418	16.72
377.629	13.79
377.839	7.11
378.049	6.53
378.26	-1.41
378.47	3.62
378.68	11.38
378.89	15.39
379.101	18.01
379.311	23.38
379.521	10.01
379.732	18.63
379.942	11.17
380.152	9.64
380.362	12.61
380.572	25.05
380.783	21.63
380.993	19.75
381.203	10.43
381.413	12.27
381.623	9.56
381.833	11.15
382.043	13.54
382.253	23.36
382.463	26.41
382.674	25.19
382.884	21.67
383.094	20.9
383.304	19.29
383.514	21.29
383.724	21.95
383.934	17.26
384.144	18.96
384.353	20.34
384.563	17
384.773	19
384.983	13.71
385.193	11.58
385.403	6.81
385.613	5.91
385.823	-0.49
386.033	5.57
386.242	-2.42
386.452	1.11
386.662	1.88
386.872	3.06
387.082	-1.04
387.291	3.03
387.501	1.27
387.711	2.77
387.921	5.48
388.13	10.17
388.34	10.98
388.55	7.26
388.759	3.32
388.969	-0.51
389.179	-1.71
389.388	0.78
389.598	2.33
389.807	-2.7
390.017	-3.54
390.227	-5.68
390.436	-4.02
390.646	-1.9
390.855	1.02
391.065	3.67
391.274	4.2
391.484	-0.85
391.693	-2.97
391.903	-2.26
392.112	-2.25
392.322	-0.26
392.531	0.88
392.74	1.36
392.95	2.35
393.159	1.92
393.369	0.91
393.578	1.92
393.787	1.65
393.997	3.1
394.206	2.2
394.415	2.48
394.625	2.29
394.834	2.58
395.043	1.21
395.252	3.54
395.462	4.43
395.671	4.06
395.88	4.6
396.089	3.41
396.298	2.24
396.508	1.6
396.717	1.78
396.926	1.09
397.135	1.63
397.344	1.59
397.553	1.39
397.762	2.02
397.971	2.51
398.181	3.17
398.39	2.89
398.599	3.32
398.808	3.13
399.017	3.38
399.226	2.84
399.435	3.11
399.644	3.08
399.853	2.9
400.062	2.55
400.27	2.66
400.479	2.71
400.688	2.65
400.897	2.37
401.106	2.32
401.315	2.25
401.524	2.1
401.733	1.58
401.941	1.78
402.15	1.85
402.359	2.1
402.568	2.31
402.777	2.92
402.985	2.63
403.194	2.38
403.403	2.28
403.612	2.1
403.82	1.63
404.029	1.9
404.238	1.94
404.446	1.9
404.655	1.96
404.864	2.1
405.072	2.05
405.281	2.24
405.489	2.17
405.698	2.19
405.906	2.32
406.115	2.25
406.324	2.1
406.532	2.18
406.741	2.13
406.949	1.88
407.158	1.88
407.366	1.86
407.574	1.89
407.783	1.9
407.991	1.98
408.2	2.1
408.408	2.15
408.617	1.94
408.825	1.76
409.033	1.78
409.242	1.82
409.45	1.84
409.658	1.88
409.867	1.94
410.075	2
410.283	1.93
410.491	1.86
410.7	1.85
410.908	1.9
411.116	1.89
411.324	1.78
411.533	1.72
411.741	1.7
411.949	1.75
412.157	1.64
412.365	1.78
412.573	1.85
412.781	1.84
412.99	1.83
413.198	1.88
413.406	1.86
413.614	1.94
413.822	2.04
414.03	1.97
414.238	2.08
414.446	2.06
414.654	1.9
414.862	1.79
415.07	1.76
415.278	1.7
415.486	1.6
415.694	1.72
415.902	1.71
416.109	1.64
416.317	1.64
416.525	1.54
416.733	1.38
416.941	1.51
417.149	1.55
417.357	1.61
417.564	1.73
417.772	1.85
417.98	1.8
418.188	1.82
418.395	1.5
418.603	1.54
418.811	1.46
419.019	1.48
419.226	1.58
419.434	1.76
419.642	1.57
419.849	1.42
420.057	1.29
420.265	1.23
420.472	1.25
420.68	1.42
420.887	1.66
421.095	1.76
421.302	1.68
421.51	1.54
421.717	1.48
421.925	1.35
422.132	1.3
422.34	1.02
422.547	1.05
422.755	1.2
422.962	1.22
423.17	1.13
423.377	1.37
423.585	1.51
423.792	1.42
423.999	1.47
424.207	1.45
424.414	1.41
424.621	1.44
424.829	1.53
425.036	1.57
425.243	1.66
425.451	1.72
425.658	1.62
425.865	1.45
426.072	1.37
426.28	1.3
426.487	1.19
426.694	1.05
426.901	1.08
427.108	1
427.315	1.06
427.523	1.05
427.73	1.2
427.937	1.03
428.144	1.14
428.351	1.21
428.558	1.3
428.765	1.41
428.972	1.51
429.179	1.44
429.386	1.43
429.593	1.49
429.8	1.36
430.007	1.38
430.214	1.44
430.421	1.62
430.628	1.61
430.835	1.57
431.042	1.55
431.249	1.5
431.456	1.14
431.662	1.14
431.869	1.31
432.076	1.3
432.283	1.48
432.49	1.59
432.697	1.55
432.903	1.38
433.11	1.51
433.317	1.44
433.524	1.55
433.73	1.5
433.937	1.61
434.144	1.5
434.35	1.42
434.557	1.37
434.764	1.44
434.97	1.34
435.177	1.5
435.384	1.6
435.59	1.67
435.797	1.75
436.003	1.96
436.21	1.82
436.416	1.8
436.623	1.73
436.829	1.67
437.036	1.57
437.242	1.65
437.449	1.59
437.655	1.73
437.862	1.83
438.068	1.87
438.275	1.95
438.481	2.11
438.687	2.07
438.894	2.18
439.1	2.12
439.307	2.2
439.513	2.12
439.719	2.15
439.926	2.05
440.132	2.15
440.338	2.06
440.544	1.99
440.751	1.87
440.957	1.88
441.163	1.78
441.369	1.67
441.575	1.74
441.782	1.9
441.988	1.95
442.194	1.94
442.4	2.03
442.606	2.25
442.812	2.2
443.018	2.16
443.224	2.38
443.431	2.35
443.637	2.19
443.843	2.22
444.049	2.28
444.255	2.24
444.461	2.24
444.667	2.22
444.873	2.21
445.079	2.2
445.284	2.14
445.49	2.14
445.696	2.11
445.902	2.05
446.108	2.02
446.314	1.97
446.52	2.09
446.726	2.21
446.931	2.24
447.137	2.21
447.343	2.34
447.549	2.32
447.755	2.29
447.96	2.34
448.166	2.47
448.372	2.49
448.578	2.44
448.783	2.48
448.989	2.45
449.195	2.35
449.4	2.33
449.606	2.38
449.812	2.31
450.017	2.35
450.223	2.41
450.428	2.32
450.634	2.28
450.84	2.35
451.045	2.33
451.251	2.38
451.456	2.46
451.662	2.55
451.867	2.59
452.073	2.63
452.278	2.57
452.483	2.57
452.689	2.55
452.894	2.56
453.1	2.53
453.305	2.61
453.51	2.66
453.716	2.6
453.921	2.55
454.127	2.54
454.332	2.5
454.537	2.49
454.742	2.48
454.948	2.54
455.153	2.56
455.358	2.56
455.563	2.57
455.769	2.64
455.974	2.54
456.179	2.49
456.384	2.51
456.589	2.5
456.795	2.43
457	2.41
457.205	2.46
457.41	2.4
457.615	2.26
457.82	2.38
458.025	2.41
458.23	2.41
458.435	2.43
458.64	2.5
458.845	2.53
459.05	2.54
459.255	2.57
459.46	2.65
459.665	2.74
459.87	2.61
460.075	2.74
460.28	2.77
460.485	2.88
460.69	2.8
460.895	2.86
461.099	2.74
461.304	2.66
461.509	2.59
461.714	2.68
461.919	2.61
462.123	2.69
462.328	2.62
462.533	2.54
462.738	2.5
462.942	2.48
463.147	2.44
463.352	2.56
463.556	2.67
463.761	2.59
463.966	2.63
464.17	2.75
464.375	2.8
464.58	2.65
464.784	2.8
464.989	2.84
465.193	2.75
465.398	2.72
465.602	2.88
465.807	2.81
466.011	2.81
466.216	2.74
466.42	2.75
466.625	2.84
466.829	2.85
467.034	3.01
467.238	3.17
467.443	3.21
467.647	3.1
467.851	3.19
468.056	3.14
468.26	3.15
468.464	3.14
468.669	3.23
468.873	3.21
469.077	3.17
469.282	3.14
469.486	3.14
469.69	3.14
469.894	3.2
470.099	3.21
470.303	3.21
470.507	3.24
470.711	3.19
470.915	3.22
471.119	3.28
471.324	3.31
471.528	3.32
471.732	3.35
471.936	3.46
472.14	3.51
472.344	3.66
472.548	3.73
472.752	3.79
472.956	3.69
473.16	3.69
473.364	3.58
473.568	3.57
473.772	3.54
473.976	3.63
474.18	3.64
474.384	3.68
474.588	3.7
474.792	3.68
474.995	3.69
475.199	3.69
475.403	3.68
475.607	3.67
475.811	3.73
476.015	3.58
476.218	3.56
476.422	3.61
476.626	3.63
476.83	3.65
477.033	3.82
477.237	3.88
477.441	3.86
477.644	3.83
477.848	3.86
478.052	3.83
478.255	3.8
478.459	3.87
478.663	4.01
478.866	4.06
479.07	4.04
479.273	4.14
479.477	4.11
479.681	4.06
479.884	4.01
480.088	4.05
480.291	4.01
480.495	4.02
480.698	4.06
480.901	4.09
481.105	4.14
481.308	4.21
481.512	4.28
481.715	4.33
481.919	4.43
482.122	4.39
482.325	4.38
482.529	4.34
482.732	4.26
482.935	4.2
483.138	4.25
483.342	4.29
483.545	4.4
483.748	4.53
483.952	4.62
484.155	4.65
484.358	4.67
484.561	4.55
484.764	4.49
484.967	4.47
485.171	4.51
485.374	4.51
485.577	4.6
485.78	4.64
485.983	4.58
486.186	4.51
486.389	4.45
486.592	4.36
486.795	4.39
486.998	4.41
487.201	4.46
487.404	4.6
487.607	4.68
487.81	4.65
488.013	4.64
488.216	4.61
488.419	4.5
488.622	4.44
488.825	4.41
489.028	4.43
489.231	4.42
489.433	4.42
489.636	4.5
489.839	4.6
490.042	4.64
490.245	4.67
490.447	4.65
490.65	4.62
490.853	4.54
491.056	4.48
491.258	4.52
491.461	4.56
491.664	4.57
491.866	4.55
492.069	4.7
492.272	4.59
492.474	4.66
492.677	4.65
492.879	4.67
493.082	4.65
493.285	4.75
493.487	4.69
493.69	4.69
493.892	4.69
494.095	4.65
494.297	4.65
494.5	4.62
494.702	4.69
494.905	4.73
495.107	4.73
495.309	4.7
495.512	4.77
495.714	4.79
495.917	4.82
496.119	4.88
496.321	4.88
496.524	4.86
496.726	4.78
496.928	4.75
497.13	4.68
497.333	4.64
497.535	4.73
497.737	4.78
497.939	4.81
498.142	4.81
498.344	4.9
498.546	4.85
498.748	4.88
498.95	4.9
499.152	4.92
499.355	4.91
499.557	4.95
499.759	5.03
499.961	5.1
500.163	5.15
500.365	5.17
500.567	5.16
500.769	5.16
500.971	5.09
501.173	5.04
501.375	5.14
501.577	5.15
501.779	5.14
501.981	5.17
502.183	5.25
502.385	5.24
502.587	5.25
502.788	5.29
502.99	5.32
503.192	5.32
503.394	5.27
503.596	5.32
503.798	5.29
503.999	5.27
504.201	5.28
504.403	5.28
504.605	5.29
504.806	5.31
505.008	5.38
505.21	5.38
505.411	5.43
505.613	5.47
505.815	5.52
506.016	5.56
506.218	5.58
506.42	5.63
506.621	5.64
506.823	5.62
507.024	5.55
507.226	5.59
507.427	5.63
507.629	5.62
507.83	5.62
508.032	5.61
508.233	5.67
508.435	5.68
508.636	5.78
508.838	5.82
509.039	5.89
509.24	5.91
509.442	5.95
509.643	5.86
509.845	5.91
510.046	5.97
510.247	6.01
510.448	5.99
510.65	6.06
510.851	6.06
511.052	6.02
511.254	6.03
511.455	6.05
511.656	6.06
511.857	6.07
512.058	6.14
512.26	6.16
512.461	6.21
512.662	6.24
512.863	6.2
513.064	6.21
513.265	6.18
513.466	6.2
513.667	6.23
513.868	6.29
514.069	6.32
514.27	6.36
514.471	6.3
514.672	6.34
514.873	6.28
515.074	6.28
515.275	6.3
515.476	6.38
515.677	6.36
515.878	6.48
516.079	6.49
516.28	6.47
516.481	6.45
516.682	6.43
516.882	6.44
517.083	6.41
517.284	6.45
517.485	6.43
517.686	6.47
517.886	6.45
518.087	6.5
518.288	6.46
518.488	6.5
518.689	6.49
518.89	6.52
519.091	6.56
519.291	6.5
519.492	6.54
519.692	6.57
519.893	6.62
520.094	6.57
520.294	6.63
520.495	6.61
520.695	6.67
520.896	6.61
521.096	6.68
521.297	6.72
521.497	6.74
521.698	6.68
521.898	6.78
522.099	6.82
522.299	6.82
522.499	6.86
522.7	6.92
522.9	6.87
523.101	6.76
523.301	6.79
523.501	6.75
523.702	6.78
523.902	6.76
524.102	6.92
524.302	6.94
524.503	6.97
524.703	6.95
524.903	6.99
525.103	6.96
525.304	6.94
525.504	7
525.704	7.03
525.904	6.98
526.104	6.99
526.304	6.99
526.504	6.97
526.705	6.96
526.905	7.06
527.105	7.07
527.305	7.12
527.505	7.11
527.705	7.04
527.905	7.08
528.105	7.08
528.305	7.04
528.505	7.05
528.705	7.2
528.905	7.17
529.105	7.2
529.304	7.26
529.504	7.3
529.704	7.27
529.904	7.28
530.104	7.29
530.304	7.24
530.503	7.24
530.703	7.24
530.903	7.27
531.103	7.37
531.303	7.47
531.502	7.52
531.702	7.51
531.902	7.54
532.101	7.46
532.301	7.44
532.501	7.52
532.7	7.62
532.9	7.66
533.1	7.7
533.299	7.72
533.499	7.63
533.698	7.6
533.898	7.6
534.097	7.64
534.297	7.64
534.496	7.7
534.696	7.69
534.895	7.68
535.095	7.71
535.294	7.79
535.494	7.79
535.693	7.9
535.892	7.94
536.092	7.88
536.291	7.85
536.491	7.84
536.69	7.8
536.889	7.79
537.088	7.86
537.288	7.89
537.487	7.97
537.686	7.98
537.886	8.02
538.085	8.02
538.284	8.12
538.483	8.13
538.682	8.21
538.882	8.24
539.081	8.29
539.28	8.22
539.479	8.21
539.678	8.18
539.877	8.21
540.076	8.26
540.275	8.31
540.474	8.33
540.673	8.43
540.872	8.39
541.071	8.37
541.27	8.39
541.469	8.38
541.668	8.38
541.867	8.47
542.066	8.5
542.265	8.56
542.464	8.66
542.663	8.68
542.862	8.72
543.06	8.84
543.259	8.9
543.458	8.96
543.657	9
543.856	9.05
544.054	9.05
544.253	9.04
544.452	9.07
544.651	9.11
544.849	9.09
545.048	9.11
545.247	9.2
545.445	9.27
545.644	9.28
545.843	9.37
546.041	9.4
546.24	9.44
546.438	9.5
546.637	9.57
546.836	9.63
547.034	9.72
547.233	9.81
547.431	9.8
547.63	9.88
547.828	9.92
548.027	9.95
548.225	9.92
548.423	9.96
548.622	9.95
548.82	10.01
549.019	10.05
549.217	10.14
549.415	10.17
549.614	10.32
549.812	10.34
550.01	10.39
550.209	10.5
550.407	10.58
550.605	10.52
550.803	10.6
551.002	10.7
551.2	10.7
551.398	10.83
551.596	10.95
551.794	11.01
551.993	11.06
552.191	11.09
552.389	11.09
552.587	11.21
552.785	11.27
552.983	11.4
553.181	11.47
553.379	11.57
553.577	11.61
553.775	11.71
553.973	11.78
554.171	11.9
554.369	12
554.567	12.11
554.765	12.2
554.963	12.24
555.161	12.3
555.359	12.35
555.557	12.36
555.755	12.39
555.952	12.49
556.15	12.58
556.348	12.65
556.546	12.79
556.744	12.87
556.941	12.85
557.139	12.99
557.337	13.08
557.535	13.11
557.732	13.19
557.93	13.39
558.128	13.4
558.325	13.51
558.523	13.69
558.721	13.85
558.918	13.87
559.116	13.99
559.313	14.03
559.511	14.1
559.708	14.12
559.906	14.27
560.104	14.32
560.301	14.46
560.498	14.51
560.696	14.58
560.893	14.64
561.091	14.74
561.288	14.82
561.486	14.87
561.683	14.95
561.88	15.09
562.078	15.19
562.275	15.25
562.473	15.32
562.67	15.41
562.867	15.46
563.064	15.52
563.262	15.57
563.459	15.69
563.656	15.83
563.853	15.87
564.051	16.03
564.248	16.15
564.445	16.29
564.642	16.35
564.839	16.51
565.036	16.62
565.234	16.72
565.431	16.75
565.628	16.85
565.825	16.93
566.022	16.98
566.219	17.02
566.416	17.17
566.613	17.29
566.81	17.38
567.007	17.43
567.204	17.51
567.401	17.61
567.598	17.63
567.795	17.65
567.991	17.68
568.188	17.77
568.385	17.79
568.582	17.89
568.779	17.95
568.976	18.1
569.172	18.17
569.369	18.21
569.566	18.25
569.763	18.23
569.96	18.3
570.156	18.38
570.353	18.44
570.55	18.52
570.746	18.69
570.943	18.71
571.14	18.75
571.336	18.81
571.533	18.85
571.729	18.84
571.926	18.88
572.123	18.93
572.319	18.94
572.516	19.03
572.712	19.07
572.909	19.03
573.105	19.1
573.302	19.19
573.498	19.15
573.695	19.26
573.891	19.34
574.087	19.3
574.284	19.34
574.48	19.44
574.677	19.48
574.873	19.57
575.069	19.72
575.266	19.77
575.462	19.85
575.658	19.9
575.854	19.92
576.051	19.88
576.247	19.8
576.443	19.76
576.639	19.74
576.835	19.7
577.032	19.66
577.228	19.8
577.424	19.75
577.62	19.77
577.816	19.81
578.012	19.9
578.208	19.86
578.404	19.93
578.6	19.93
578.796	20
578.993	19.96
579.189	20.04
579.384	20.02
579.58	20.03
579.776	19.98
579.972	19.94
580.168	19.91
580.364	19.98
580.56	19.92
580.756	19.93
580.952	19.95
581.148	19.95
581.343	19.93
581.539	20.01
581.735	20.09
581.931	20.12
582.127	20.1
582.322	20.1
582.518	20.07
582.714	20.01
582.909	20
583.105	19.99
583.301	20.02
583.496	20.02
583.692	19.97
583.888	19.97
584.083	20.01
584.279	19.93
584.474	19.95
584.67	19.97
584.866	20
585.061	19.89
585.257	19.92
585.452	19.98
585.648	19.96
585.843	19.83
586.039	19.91
586.234	19.96
586.429	19.8
586.625	19.91
586.82	20.01
587.015	20.03
587.211	19.99
587.406	20.11
587.601	20.15
587.797	20.18
587.992	20.14
588.187	20.16
588.383	20.2
588.578	20.14
588.773	20.2
588.968	20.29
589.163	20.36
589.359	20.38
589.554	20.38
589.749	20.37
589.944	20.39
590.139	20.37
590.334	20.41
590.529	20.45
590.724	20.49
590.919	20.53
591.114	20.57
591.309	20.56
591.504	20.64
591.699	20.62
591.894	20.6
592.089	20.59
592.284	20.61
592.479	20.66
592.674	20.78
592.869	20.83
593.064	20.93
593.259	21.06
593.454	21.02
593.648	20.99
593.843	20.98
594.038	21.04
594.233	21.06
594.428	21.27
594.622	21.39
594.817	21.62
595.012	21.64
595.206	21.68
595.401	21.64
595.596	21.65
595.79	21.59
595.985	21.61
596.18	21.73
596.374	21.86
596.569	21.98
596.763	22.1
596.958	22.22
597.153	22.24
597.347	22.16
597.542	22.17
597.736	22.23
597.931	22.15
598.125	22.19
598.319	22.27
598.514	22.41
598.708	22.49
598.903	22.69
599.097	22.77
599.291	22.98
599.486	23.05
599.68	23.08
599.874	23.18
600.069	23.22
600.263	23.25
600.457	23.25
600.651	23.33
600.846	23.32
601.04	23.38
601.234	23.33
601.428	23.34
601.622	23.35
601.817	23.45
602.011	23.44
602.205	23.46
602.399	23.47
602.593	23.51
602.787	23.47
602.981	23.48
603.175	23.58
603.369	23.59
603.563	23.66
603.757	23.64
603.951	23.61
604.145	23.58
604.339	23.6
604.533	23.5
604.727	23.56
604.921	23.56
605.115	23.53
605.309	23.47
605.502	23.51
605.696	23.48
605.89	23.53
606.084	23.55
606.278	23.62
606.471	23.61
606.665	23.45
606.859	23.42
607.053	23.29
607.246	23.13
607.44	23.04
607.634	23.15
607.827	23.07
608.021	22.96
608.214	22.98
608.408	22.9
608.602	22.74
608.795	22.71
608.989	22.74
609.182	22.76
609.376	22.76
609.569	22.76
609.763	22.7
609.956	22.67
610.15	22.55
610.343	22.39
610.537	22.28
610.73	22.11
610.923	22.03
611.117	22.06
611.31	22.03
611.504	22.06
611.697	22.05
611.89	21.97
612.083	21.75
612.277	21.83
612.47	21.68
612.663	21.72
612.856	21.58
613.05	21.61
613.243	21.36
613.436	21.39
613.629	21.29
613.822	21.3
614.015	21.15
614.209	21.13
614.402	20.99
614.595	20.89
614.788	20.88
614.981	20.83
615.174	20.73
615.367	20.71
615.56	20.63
615.753	20.6
615.946	20.49
616.139	20.51
616.332	20.5
616.525	20.53
616.718	20.48
616.911	20.59
617.103	20.59
617.296	20.45
617.489	20.33
617.682	20.37
617.875	20.3
618.067	20.18
618.26	20.16
618.453	20.16
618.646	20.04
618.838	20
619.031	19.98
619.224	20.01
619.417	20
619.609	19.96
619.802	20.01
619.994	19.98
620.187	19.89
620.38	19.86
620.572	19.74
620.765	19.64
620.957	19.6
621.15	19.56
621.342	19.48
621.535	19.48
621.727	19.4
621.92	19.32
622.112	19.44
622.305	19.44
622.497	19.38
622.69	19.42
622.882	19.53
623.074	19.42
623.267	19.45
623.459	19.45
623.651	19.44
623.844	19.32
624.036	19.3
624.228	19.29
624.42	19.24
624.613	19.14
624.805	19.15
624.997	19.13
625.189	19.06
625.381	19.07
625.574	19.08
625.766	19.03
625.958	19.06
626.15	19.08
626.342	19.09
626.534	19.07
626.726	19.05
626.918	18.98
627.11	18.85
627.302	18.76
627.494	18.78
627.686	18.74
627.878	18.65
628.07	18.63
628.262	18.69
628.454	18.6
628.646	18.67
628.838	18.68
629.029	18.66
629.221	18.52
629.413	18.51
629.605	18.4
629.797	18.37
629.989	18.35
630.18	18.45
630.372	18.36
630.564	18.33
630.755	18.31
630.947	18.32
631.139	18.25
631.33	18.25
631.522	18.24
631.714	18.2
631.905	18.15
632.097	18.02
632.289	18.01
632.48	17.97
632.672	17.96
632.863	17.87
633.055	17.94
633.246	17.98
633.438	17.98
633.629	17.99
633.821	18.05
634.012	18.04
634.203	17.97
634.395	17.95
634.586	17.93
634.777	17.87
634.969	17.85
635.16	17.79
635.351	17.71
635.543	17.68
635.734	17.69
635.925	17.75
636.117	17.82
636.308	17.87
636.499	17.82
636.69	17.91
636.881	17.79
637.073	17.82
637.264	17.86
637.455	17.92
637.646	17.82
637.837	17.88
638.028	17.85
638.219	17.88
638.41	17.78
638.601	17.85
638.792	17.87
638.983	17.91
639.174	17.75
639.365	17.8
639.556	17.69
639.747	17.6
639.938	17.56
640.129	17.64
640.32	17.58
640.511	17.58
640.701	17.68
640.892	17.59
641.083	17.56
641.274	17.5
641.465	17.43
641.655	17.36
641.846	17.38
642.037	17.34
642.228	17.3
642.418	17.27
642.609	17.21
642.8	17.16
642.99	17.11
643.181	17.21
643.372	17.22
643.562	17.15
643.753	17.11
643.943	17.03
644.134	16.86
644.324	16.88
644.515	16.92
644.705	16.9
644.896	17.04
645.086	17.04
645.277	17.05
645.467	17.03
645.658	16.89
645.848	16.78
646.038	16.79
646.229	16.7
646.419	16.54
646.61	16.64
646.8	16.61
646.99	16.64
647.18	16.6
647.371	16.68
647.561	16.56
647.751	16.5
647.941	16.46
648.132	16.45
648.322	16.4
648.512	16.53
648.702	16.63
648.892	16.63
649.082	16.67
649.272	16.62
649.462	16.59
649.653	16.49
649.843	16.41
650.033	16.36
650.223	16.38
650.413	16.34
650.603	16.31
650.793	16.32
650.983	16.26
651.172	16.2
651.362	16.03
651.552	16.03
651.742	15.89
651.932	15.79
652.122	15.81
652.312	15.79
652.502	15.66
652.691	15.66
652.881	15.69
653.071	15.56
653.261	15.56
653.45	15.52
653.64	15.34
653.83	15.21
654.019	15.06
654.209	14.94
654.399	14.81
654.588	14.84
654.778	14.81
654.968	14.8
655.157	14.64
655.347	14.44
655.536	14.24
655.726	14.03
655.915	13.91
656.105	13.82
656.294	13.76
656.484	13.71
656.673	13.57
656.863	13.46
657.052	13.32
657.241	13.23
657.431	13.09
657.62	13.02
657.809	12.78
657.999	12.58
658.188	12.51
658.377	12.36
658.567	12.18
658.756	12.07
658.945	12.01
659.134	11.74
659.324	11.57
659.513	11.49
659.702	11.32
659.891	11.26
660.08	11.17
660.269	10.98
660.458	10.81
660.648	10.68
660.837	10.45
661.026	10.27
661.215	10.2
661.404	10.08
661.593	10.08
661.782	9.85
661.971	9.67
662.16	9.56
662.349	9.36
662.538	9.11
662.726	9.02
662.915	9.06
663.104	8.91
663.293	8.81
663.482	8.8
663.671	8.76
663.86	8.61
664.048	8.62
664.237	8.55
664.426	8.41
664.615	8.38
664.803	8.26
664.992	8.11
665.181	8.03
665.369	7.89
665.558	7.75
665.747	7.83
665.935	7.77
666.124	7.72
666.312	7.71
666.501	7.71
666.69	7.62
666.878	7.55
667.067	7.49
667.255	7.45
667.444	7.49
667.632	7.4
667.82	7.35
668.009	7.27
668.197	7.22
668.386	7.07
668.574	7.03
668.762	7.06
668.951	7.12
669.139	7.16
669.327	7.14
669.516	7.18
669.704	7.16
669.892	7.19
670.08	7.21
670.269	7.21
670.457	7.08
670.645	7.09
670.833	7.1
671.021	7.21
671.21	7.27
671.398	7.38
671.586	7.37
671.774	7.43
671.962	7.35
672.15	7.38
672.338	7.44
672.526	7.51
672.714	7.46
672.902	7.49
673.09	7.56
673.278	7.62
673.466	7.78
673.654	7.93
673.842	8.05
674.03	8.12
674.218	8.18
674.405	8.12
674.593	8.19
674.781	8.23
674.969	8.36
675.157	8.45
675.344	8.48
675.532	8.45
675.72	8.53
675.908	8.52
676.095	8.56
676.283	8.72
676.471	8.81
676.658	8.87
676.846	8.85
677.033	8.8
677.221	8.77
677.409	8.81
677.596	8.89
677.784	9.08
677.971	9.16
678.159	9.29
678.346	9.49
678.534	9.59
678.721	9.56
678.909	9.87
679.096	10.02
679.283	10.04
679.471	10.09
679.658	10.41
679.846	10.38
680.033	10.55
680.22	10.72
680.408	10.83
680.595	10.83
680.782	11.02
680.969	11.18
681.157	11.2
681.344	11.34
681.531	11.59
681.718	11.67
681.905	11.66
682.093	11.99
682.28	12.25
682.467	12.37
682.654	12.52
682.841	12.81
683.028	12.91
683.215	13.05
683.402	13.08
683.589	13.3
683.776	13.34
683.963	13.6
684.15	13.77
684.337	14.18
684.524	14.43
684.711	14.79
684.898	14.9
685.085	15.14
685.271	15.36
685.458	15.62
685.645	15.84
685.832	16.15
686.019	16.31
686.205	16.53
686.392	16.95
686.579	17.2
686.766	17.72
686.952	18.2
687.139	18.57
687.326	18.7
687.512	18.96
687.699	19.27
687.886	19.59
688.072	19.82
688.259	20.33
688.445	21.05
688.632	21.3
688.818	21.78
689.005	22.32
689.191	22.71
689.378	22.94
689.564	23.65
689.751	23.91
689.937	24.34
690.124	24.82
690.31	25.14
690.496	25.27
690.683	26
690.869	26.4
691.055	26.91
691.242	27.56
691.428	28.08
691.614	28.63
691.8	29.24
691.987	29.85
692.173	30.41
692.359	31.08
692.545	31.47
692.731	32.06
692.918	32.5
693.104	32.94
693.29	33.23
693.476	33.85
693.662	34.48
693.848	34.93
694.034	35.45
694.22	36.12
694.406	36.41
694.592	36.84
694.778	37.25
694.964	37.78
695.15	38.27
695.336	38.85
695.522	39.29
695.708	39.94
695.894	40.54
696.08	41.07
696.265	41.61
696.451	42.07
696.637	42.67
696.823	43.08
697.009	43.47
697.194	44.09
697.38	44.64
697.566	44.86
697.751	45.32
697.937	46.08
698.123	46.3
698.308	46.41
698.494	47.05
698.68	47.57
698.865	47.78
699.051	48.33
699.236	48.86
699.422	49.05
699.607	49.28
699.793	49.46
699.978	49.57
700.164	49.85
700.349	50.24
700.535	50.59
700.72	50.92
700.906	51.27
701.091	51.7
701.276	51.87
701.462	52.07
701.647	52.44
701.832	52.7
702.018	53.12
702.203	53.28
702.388	53.41
702.573	53.62
702.759	54.08
702.944	53.84
703.129	54.34
703.314	54.45
703.499	54.66
703.684	54.63
703.87	55.22
704.055	55.41
704.24	56.03
704.425	56.39
704.61	56.59
704.795	56.81
704.98	56.64
705.165	56.61
705.35	56.56
705.535	56.75
705.72	56.58
705.905	57.14
706.09	57.52
706.275	57.8
706.459	58.05
706.644	58.34
706.829	58.72
707.014	58.89
707.199	58.85
707.384	58.85
707.568	58.99
707.753	58.94
707.938	58.66
708.123	58.85
708.307	59.12
708.492	59.69
708.677	59.75
708.861	60.06
709.046	59.88
709.231	59.95
709.415	59.58
709.6	59.75
709.784	60.08
709.969	60.68
710.153	60.39
710.338	60.8
710.522	60.86
710.707	60.83
710.891	60.73
711.076	61.29
711.26	61.32
711.445	61.24
711.629	61.21
711.813	61.18
711.998	61.28
712.182	61.47
712.366	61.96
712.551	61.94
712.735	62.37
712.919	62.38
713.103	62.58
713.288	62.64
713.472	63.12
713.656	62.93
713.84	63.31
714.024	63.16
714.208	62.94
714.393	62.84
714.577	63.45
714.761	62.96
714.945	63.19
715.129	63.3
715.313	63.46
715.497	63.13
715.681	63.44
715.865	63.24
716.049	63.4
716.233	63.4
716.417	63.63
716.601	64.19
716.785	64.62
716.968	65.02
717.152	65.25
717.336	65.43
717.52	65.25
717.704	65.32
717.888	65.28
718.071	65.56
718.255	66.03
718.439	66.05
718.622	65.82
718.806	65.71
718.99	65.5
719.174	65.79
719.357	66.16
719.541	66.57
719.724	66.72
719.908	67.18
720.092	66.75
720.275	66.75
720.459	66.7
720.642	67.02
720.826	66.81
721.009	66.84
721.193	66.51
721.376	66.85
721.559	67.31
721.743	68.09
721.926	68.53
722.11	69.25
722.293	69.57
722.476	69.09
722.66	69.41
722.843	69.2
723.026	69.56
723.21	69.5
723.393	69.93
723.576	69.38
723.759	69.62
723.942	69.69
724.126	69.79
724.309	69.98
724.492	70.31
724.675	70.83
724.858	71.18
725.041	71.65
725.224	72.02
725.407	72.29
725.59	72.02
725.774	71.93
725.957	71.8
726.14	71.33
726.322	71.96
726.505	72.11
726.688	72.36
726.871	72.7
727.054	73.36
727.237	72.98
727.42	73.13
727.603	72.99
727.786	72.81
727.968	72.54
728.151	72.41
728.334	73.03
728.517	73.53
728.699	73.82
728.882	74
729.065	74.17
729.248	74.3
729.43	74.48
729.613	75
729.796	75.95
729.978	76.73
730.161	76.63
730.343	76.62
730.526	76.53
730.708	76.32
730.891	76.24
731.073	76.38
731.256	76.41
731.438	77.28
731.621	77.69
731.803	77.92
731.986	78.5
732.168	79.08
732.35	78.81
732.533	78.68
732.715	78.76
732.898	78.74
733.08	78.25
733.262	77.72
733.444	78.27
733.627	78.45
733.809	78.84
733.991	79.54
734.173	80.11
734.355	79.52
734.538	79.89
734.72	79.51
734.902	79.51
735.084	79.36
735.266	80.17
735.448	80.45
735.63	80.87
735.812	80.97
735.994	81.03
736.176	81.36
736.358	81.46
736.54	81.96
736.722	81.83
736.904	81.86
737.086	81.15
737.268	81.14
737.45	81.83
737.632	82.69
737.814	83.92
737.995	84.53
738.177	83.96
738.359	83.11
738.541	82.18
738.723	82.16
738.904	81.7
739.086	82.86
739.268	82.36
739.449	82.99
739.631	82.14
739.813	82.08
739.994	81.06
740.176	82.04
740.358	82.19
740.539	82.58
740.721	83.38
740.902	83.61
741.084	84.06
741.265	84.41
741.447	85.08
741.628	84.88
741.81	85.27
741.991	84.46
742.172	83.76
742.354	83.52
742.535	83.64
742.717	82.54
742.898	82.45
743.079	83.6
743.261	83.8
743.442	82.93
743.623	83.94
743.804	83.75
743.986	83.84
744.167	82.99
744.348	82.77
744.529	81.88
744.71	81.73
744.891	80.17
745.073	81.6
745.254	82.64
745.435	83.65
745.616	83.92
745.797	83.68
745.978	83.09
746.159	82.75
746.34	82
746.521	82.19
746.702	83.35
746.883	82.55
747.064	82.91
747.245	83.56
747.426	83.85
747.606	83.41
747.787	83.74
747.968	83.25
748.149	83.1
748.33	81.81
748.51	81.7
748.691	81.6
748.872	82.67
749.053	82.11
749.233	82.91
749.414	83.1
749.595	82.8
749.775	82.65
749.956	82.28
750.137	82.06
750.317	81.41
750.498	82.12
750.678	81.71
750.859	83.07
751.04	83.29
751.22	83
751.4	83.54
751.581	84.31
751.761	84.56
751.942	85.37
752.122	85.54
752.303	85.02
752.483	84.01
752.663	83.15
752.844	82.76
753.024	83.78
753.204	83.56
753.385	84.38
753.565	84.22
753.745	83.89
753.925	82.57
754.106	82.1
754.286	80.64
754.466	81.41
754.646	81.76
754.826	84.47
755.006	85.32
755.187	86.24
755.367	85.2
755.547	85.38
755.727	83.35
755.907	82.72
756.087	82.1
756.267	81.19
756.447	81.17
756.627	82.66
756.807	83.55
756.987	84.01
757.167	84.07
757.346	83.08
757.526	82.64
757.706	82.64
757.886	82.35
758.066	84.35
758.246	84.51
758.425	82.41
758.605	81
758.785	81.44
758.965	81.95
759.144	81.35
759.324	84.21
759.504	85.39
759.683	84.7
759.863	84.5
760.043	85.5
760.222	84.41
760.402	83.66
760.581	84.32
760.761	83.6
760.94	83.1
761.12	82.99
761.299	85.07
761.479	84.79
761.658	84.36
761.838	84.99
762.017	83.72
762.197	81.44
762.376	81.87
762.555	82.12
762.735	81.33
762.914	81.54
763.093	80.95
763.273	80.57
763.452	80.74
763.631	80.04
763.81	81.17
763.99	81.41
764.169	82.6
764.348	81.2
764.527	82.18
764.706	81.1
764.885	83.22
765.064	82.82
765.243	82.66
765.423	83.53
765.602	84.64
765.781	81.59
765.96	80.72
766.139	81.01
766.318	81.19
766.497	79.73
766.676	78.97
766.854	79.78
767.033	81.12
767.212	80.06
767.391	81.14
767.57	86.05
767.749	84.45
767.928	83.13
768.106	82.97
768.285	82.47
768.464	80.79
768.643	80.85
768.821	80.72
769	80.81
769.179	80.96
769.357	80.54
769.536	80.39
769.715	78.81
769.893	80.13
770.072	79.29
770.25	77.93
770.429	77.52
770.607	81.08
770.786	79.79
770.964	81.01
771.143	81.62
771.321	80.14
771.5	79.57
771.678	78.57
771.857	77.45
772.035	78.63
772.213	80.61
772.392	78.62
772.57	79.59
772.748	80.16
772.927	78.61
773.105	79.45
773.283	80.33
773.461	80.19
773.64	81.21
773.818	82.3
773.996	83.46
774.174	84.94
774.352	84.29
774.531	81.95
774.709	82.18
774.887	79.77
775.065	78.57
775.243	80.84
775.421	82.96
775.599	83.68
775.777	83.42
775.955	82.71
776.133	82.01
776.311	80.5
776.489	80.14
776.667	81.41
776.844	82.61
777.022	80.58
777.2	81.25
777.378	78.53
777.556	77.34
777.734	79.23
777.911	79.6
778.089	81.37
778.267	82.37
778.445	83.8
778.622	81.8
778.8	81.48
778.978	80.12
779.155	81.83
779.333	82.48
779.511	81.88
779.688	82.64
779.866	82.9
780.043	83.29
780.221	82.81
780.398	81.5
780.576	81.82
780.753	80.02
780.931	78
781.108	79.81
781.286	80.74
781.463	79.45
781.64	78.7
781.818	80.84
781.995	78.28
782.172	78.12
782.35	81.74
782.527	82.38
782.704	80.33
782.882	76.49
783.059	75.4
783.236	72.1
783.413	71.42
783.59	70.34
783.768	73.13
783.945	75.31
784.122	75.31
784.299	78.27
784.476	77.03
784.653	77.72
784.83	73.01
785.007	73.38
785.184	71.44
785.361	75.23
785.538	75.91
785.715	83.77
785.892	83.72
786.069	86.17
786.246	84.46
786.423	83.19
786.6	80.53
786.776	82.24
786.953	79.48
787.13	81.72
787.307	81.01
787.484	78.35
787.66	79.23
787.837	78.97
788.014	78.22
788.191	77.13
788.367	74.35
788.544	72.42
788.721	72.7
788.897	69.96
789.074	72
789.25	73.32
789.427	72.27
789.603	70.88
789.78	72.92
789.956	70.73
790.133	75.41
790.309	77.25
790.486	81.14
790.662	80.74
790.839	81.21
791.015	78.8
791.192	76.91
791.368	72.89
791.544	72.34
791.721	73.63
791.897	72.16
792.073	68.77
792.249	71.07
792.426	70.13
792.602	74.37
792.778	74.42
792.954	77.81
793.13	80.01
793.307	81.53
793.483	75.8
793.659	75.78
793.835	76.87
794.011	78.29
794.187	76.98
794.363	78.46
794.539	81.31
794.715	80.31
794.891	73.76
795.067	72.59
795.243	72.82
795.419	71.72
795.595	73.91
795.771	74.96
795.947	78.16
796.122	71.88
796.298	71.12
796.474	75.59
796.65	75.24
796.826	72.62
797.001	77.45
797.177	71.32
797.353	64.54
797.529	69.38
797.704	69.85
797.88	68.78
798.056	73.15
798.231	73.68
798.407	74.44
798.582	73.53
798.758	75.53
798.934	74.52
799.109	73.7
799.285	73.39
799.46	75.32
799.636	73.04
799.811	76.19
799.986	76.59
800.162	70.73
800.337	73.02
800.513	76.26
800.688	72.79
800.863	79.06
801.039	79.3
801.214	78.14
801.389	73.44
801.565	71.48
801.74	67.85
801.915	69.45
802.09	63.06
802.265	67.85
802.441	66.73
802.616	63.95
802.791	63.94
802.966	71.11
803.141	71.57
803.316	77.17
803.491	74.38
803.666	74.56
803.841	68.48
804.016	65.29
804.191	64.57
804.366	70
804.541	73.03
804.716	75.6
804.891	79.03
805.066	82.57
805.241	80.89
805.416	85.93
805.591	91.76
805.765	94.66
805.94	91.53
806.115	81.94
806.29	73.1
806.464	71.91
806.639	69.38
806.814	66.44
806.989	78.7
807.163	82.34
807.338	76.83
807.512	71.77
807.687	70.13
807.862	71.47
808.036	75.43
808.211	78.78
808.385	82.47
808.56	85.83
808.734	75.63
808.909	69.06
809.083	75.16
809.258	80.72
809.432	80.24
809.606	84.58
809.781	92.84
809.955	89.48
810.13	78.07
810.304	76.51
810.478	78.04
810.652	67.68
810.827	70.32
811.001	70.02
811.175	73.2
811.349	73.98
811.524	79.91
811.698	70.59
811.872	75.62
812.046	72.38
812.22	73.74
812.394	68.81
812.568	75.89
812.742	70.06
812.916	74.67
813.09	68.05
813.264	64.03
813.438	59.2
813.612	60.29
813.786	54.6
813.96	65.52
814.134	72.51
814.308	74.82
814.482	71.84
814.656	70.07
814.83	63.53
815.003	67.94
815.177	65.62
815.351	75.71
815.525	82.25
815.698	75.87
815.872	60.58
816.046	52.06
816.219	49.98
816.393	47.83
816.567	53.18
816.74	62.28
816.914	73.6
817.088	69.22
817.261	64.04
817.435	60.22
817.608	54.91
817.782	47.04
817.955	47.56
818.129	56.9
818.302	62.42
818.475	67.26
818.649	67.02
818.822	66.6
818.996	82.94
819.169	88.54
819.342	85.8
819.516	94.81
819.689	93.78
819.862	74.02
820.035	68.71
820.209	66.04
820.382	61.34
820.555	59.79
820.728	58.12
820.901	52.18
821.075	59.59
821.248	63.92
821.421	70.84
821.594	74.8
821.767	72.2
821.94	77.9
822.113	76.84
822.286	81.85
822.459	83.86
822.632	87.95
822.805	78.37
822.978	79.94
823.151	66.14
823.324	54.58
823.496	44.53
823.669	51.72
823.842	49.26
824.015	41.82
824.188	31.85
824.361	40.8
824.533	31.36
824.706	18.83
824.879	37.38
825.051	51.04
825.224	53.93
825.397	53.82
825.569	54.82
825.742	63.7
825.915	70.76
826.087	73.98
826.26	67.29
826.432	74.62
826.605	63.64
826.777	61.16
826.95	54.4
827.122	55.53
827.295	70.66
827.467	86
827.64	84.08
827.812	90.24
827.984	111.72
828.157	75.94
828.329	76.93
828.501	65.03
828.674	73.5
828.846	75.15
829.018	73.29
829.19	56.1
829.363	60.22
829.535	64.49
829.707	55.39
829.879	53.94
830.051	61.03
830.223	71.64
830.395	63.5
830.568	60.66
830.74	63.87
830.912	70.35
831.084	68.42
831.256	50.53
831.428	57.89
831.6	56.9
831.772	42.71
831.943	27.28
832.115	44.46
832.287	48.21
832.459	54.8
832.631	51.74
832.803	63.15
832.975	50.19
833.146	44.63
833.318	42.16
833.49	46.02
833.662	43.78
833.833	63.52
834.005	65.42
834.177	68.97
834.348	65.97
834.52	60.9
834.692	51.55
834.863	40.57
835.035	36.74
835.206	38.37
835.378	35.19
835.549	44.19
835.721	45.23
835.892	50.52
836.064	48.91
836.235	46.83
836.407	47.8
836.578	63.68
836.749	54.07
836.921	52.27
837.092	40.61
837.264	42.23
837.435	15.22
837.606	37.18
837.777	49.24
837.949	79.08
838.12	73.61
838.291	87.06
838.462	85.76
838.633	80.47
838.805	55.35
838.976	58.03
839.147	55.27
839.318	48.44
839.489	42.2
839.66	65.37
839.831	66.57
840.002	64.94
840.173	65.77
840.344	69.83
840.515	48.37
840.686	48.94
840.857	46.86
841.028	48.81
841.199	55.99
841.369	64.05
841.54	54.9
841.711	71.86
841.882	79.62
842.053	59.31
842.223	53.6
842.394	63.39
842.565	52.04
842.736	40.72
842.906	43.33
843.077	67.73
843.248	74.73
843.418	70.14
843.589	60.5
843.759	66.59
843.93	57.83
844.101	46.48
844.271	61.59
844.442	74.02
844.612	79.77
844.783	69.36
844.953	62.81
845.123	53.65
845.294	59.19
845.464	37.95
845.635	39.85
845.805	30.37
845.975	29.69
846.146	14.81
846.316	22.96
846.486	28.18
846.656	65.12
846.827	73.22
846.997	75
847.167	66.54
847.337	50.62
847.507	38.55
847.677	42.04
847.848	57.98
848.018	67.98
848.188	79.12
848.358	77.7
848.528	79.28
848.698	50.97
848.868	42.52
849.038	32.66
849.208	50.72
849.378	52.13
849.548	63.24
849.718	53.64
849.887	54.88
850.057	9.97
850.227	6.98
850.397	14.61
850.567	19.91
850.737	51.93
850.906	25.78
851.076	7.28
851.246	24.12
851.415	23.17
851.585	21.23
851.755	38.72
851.924	32.22
852.094	10.59
852.264	20.3
852.433	-2.09
852.603	6.99
852.772	24.94
852.942	65.25
853.111	44.37
853.281	42.42
853.45	35.48
853.62	51.98
853.789	10.78
853.959	32.43
854.128	40.97
854.297	33.2
854.467	12.31
854.636	33.39
854.805	28.13
854.975	36.12
855.144	35.56
855.313	44.18
855.482	36.17
855.652	26.45
855.821	-6.45
855.99	4.37
856.159	16
856.328	17.44
856.497	15.35
856.667	28.4
856.836	51.26
857.005	49.82
857.174	56.89
857.343	78.26
857.512	74.5
857.681	72.55
857.85	56.19
858.019	0.14
858.188	-5.12
858.356	3.37
858.525	7.63
858.694	22.28
858.863	38.3
859.032	33.79
859.201	17.68
859.369	3.06
859.538	23.8
859.707	9.86
859.876	14.67
860.044	30.14
860.213	60.42
860.382	48.04
860.55	55.98
860.719	91.57
860.888	125.71
861.056	93.98
861.225	76.02
861.393	95.18
861.562	76.91
861.73	47.74
861.899	44.18
862.067	38.24
862.236	14.47
862.404	-0.78
862.572	-40.89
862.741	-10.02
862.909	14.35
863.078	14.86
863.246	22.75
863.414	37.51
863.582	30.47
863.751	26.18
863.919	35.08
864.087	39.85
864.255	31.76
864.424	20.83
864.592	29.2
864.76	7.13
864.928	26.74
865.096	30.49
865.264	25.96
865.432	33.79
865.6	65.45
865.768	22.01
865.936	44.15
866.104	39.96
866.272	2.33
866.44	-22.98
866.608	-20.25
866.776	-14.81
866.944	20.04
867.112	30.18
867.28	45.82
867.448	65.73
867.615	54.27
867.783	46.35
867.951	52.98
868.119	70.78
868.286	104.6
868.454	71.6
868.622	42.66
868.789	33.52
868.957	28.93
869.125	12.38
869.292	2.65
869.46	35.14
869.627	57.34
869.795	60.74
869.963	78.93
870.13	87.75
870.298	60.2
870.465	39.53
870.632	20.19
870.8	35.39
870.967	24.87
871.135	25.8
871.302	41.3
871.469	54.6
871.637	67.55
871.804	76.32
871.971	48.05
872.139	32.1
872.306	13.57
872.473	-29.26
872.64	-148.08
872.807	-129.09
872.975	-315.53
873.142	-57.89
873.309	-22.57
873.476	45.87
873.643	73.08
873.81	79.34
873.977	70.71
874.144	73.66
874.311	24.3
874.478	25.31
874.645	-27.96
874.812	53.84
874.979	53.14
875.146	3.88
875.313	6
875.48	67.75
875.647	37.83
875.813	15.29
875.98	34.15
876.147	-16.42
876.314	-48.15
876.481	-24.61
876.647	-4.08
876.814	22.1
876.981	50.07
877.147	35.61
877.314	-1.44
877.481	20.78
877.647	24.55
877.814	-25.4
877.98	8.66
878.147	77.3
878.314	75.87
878.48	89.43
878.647	126.75
878.813	122.93
878.979	76
879.146	107
879.312	112.34
879.479	73.11
879.645	68.63
879.811	83.19
879.978	51.3
880.144	33.06
880.31	45.59
880.477	42.4
880.643	35.18
880.809	12.4
880.975	5.17
881.142	-60.51
881.308	332.17
881.474	469.38
881.64	-27.5
881.806	-89.53
881.972	-35.46
882.138	17.06
882.304	32.83
882.47	1.04
882.636	0.12
882.802	19.43
882.968	35.8
883.134	8.3
883.3	32.32
883.466	68.58
883.632	41.33
883.798	-1.5
883.964	-79.58
884.129	-1004.37
884.295	-83.13
884.461	-129.88
884.627	-75.57
884.793	-46.16
884.958	17.05
885.124	-7.87
885.29	-12.02
885.455	1.63
885.621	30.77
885.787	46.87
885.952	12.76
886.118	35.05
886.283	55.9
886.449	28.68
886.614	6.76
886.78	47.2
886.945	49.19
887.111	-12.99
887.276	-22.36
887.442	-79.49
887.607	-70
887.773	-31
887.938	-6.09
888.103	9.45
888.269	29.78
888.434	27.16
888.599	32.04
888.764	39.98
888.93	56.03
889.095	46.8
889.26	20.53
889.425	15.14
889.59	14.22
889.756	5.81
889.921	27.77
890.086	91.45
890.251	181.82
890.416	96.89
890.581	52.55
890.746	49.9
890.911	41.88
891.076	14.6
891.241	20.23
891.406	25.27
891.571	62.68
891.736	61.18
891.901	50.37
892.065	14.25
892.23	22.73
892.395	-73.58
892.56	-45.34
892.725	-95.63
892.889	-0.97
893.054	15.46
893.219	58.42
893.384	32.02
893.548	-21.99
893.713	-117.5
893.878	-175.46
