Data from Ofra_1a_PS_8HS21_Reflection_1.txt Node
Date: Tue Jul 20 11:01:49 EDT 2021
User: Adam
Spectrometer: FLMT01687
Trigger mode: 0
Integration Time (sec): 1.004000E0
Scans to average: 2
Electric dark correction enabled: true
Nonlinearity correction enabled: false
Boxcar width: 2
XAxis mode: Wavelengths
Number of Pixels in Spectrum: 3648
>>>>>Begin Spectral Data<<<<<
179.494	-598.98
179.716	-912.21
179.937	1852.84
180.158	-2535.03
180.38	240.24
180.601	181.4
180.823	152.47
181.044	17.29
181.265	122.2
181.486	-8.22
181.708	98.23
181.929	-9854.55
182.15	88.58
182.372	-551.72
182.593	-11.14
182.814	-46.18
183.035	29.22
183.257	0.56
183.478	-36.72
183.699	-45.77
183.92	-83.08
184.141	-98.44
184.363	-66.45
184.584	-33.07
184.805	10.6
185.026	37.07
185.247	19.51
185.468	-3.42
185.689	-12.2
185.91	-44.19
186.132	-24.41
186.353	3.1
186.574	3.23
186.795	8.37
187.016	27.48
187.237	8.57
187.458	-2.43
187.679	2.95
187.9	10.28
188.121	24.6
188.342	33.14
188.563	41.78
188.784	62.45
189.005	59.93
189.226	47.06
189.447	51.89
189.667	43.02
189.888	20.27
190.109	16.45
190.33	1.96
190.551	-8.68
190.772	-9.76
190.993	-21.56
191.214	-36.53
191.434	-30.94
191.655	-78.73
191.876	-5.84
192.097	27.39
192.318	33.97
192.538	-2.76
192.759	14.73
192.98	5.12
193.201	-5.99
193.421	-16.69
193.642	11.98
193.863	6.75
194.083	-2.56
194.304	23.87
194.525	30.96
194.745	23.74
194.966	27.1
195.187	34.1
195.407	29.98
195.628	28.14
195.848	30.46
196.069	10.59
196.29	1.81
196.51	-8.66
196.731	-30.61
196.951	-57.2
197.172	-29.96
197.392	-42.17
197.613	-9.38
197.833	-3.49
198.054	2.72
198.274	9.22
198.495	10.75
198.715	-9.74
198.936	5.66
199.156	18.02
199.377	10.6
199.597	24.91
199.817	25.24
200.038	-11.33
200.258	2.04
200.479	3.02
200.699	-10.52
200.919	-9.99
201.14	1.79
201.36	-10.67
201.58	-31.87
201.801	-41.58
202.021	-44.75
202.241	-34.07
202.461	-27.64
202.682	7.08
202.902	30.46
203.122	33.83
203.342	33.04
203.563	12.21
203.783	-13.38
204.003	-46.77
204.223	-34.24
204.443	-24.08
204.663	-15.14
204.884	30.67
205.104	49.77
205.324	81.23
205.544	31.54
205.764	30.3
205.984	-5.05
206.204	5.51
206.424	-32.95
206.644	-13.11
206.864	-49.16
207.084	-1.43
207.304	-22.16
207.525	-1.14
207.745	-4.01
207.964	9.45
208.184	7.82
208.404	17.88
208.624	32.17
208.844	29.73
209.064	29.81
209.284	14.27
209.504	-4.62
209.724	-11.13
209.944	-15.63
210.164	-4.85
210.384	0.62
210.604	3.64
210.823	-50.63
211.043	-30.8
211.263	-101.8
211.483	-63.3
211.703	-51.05
211.922	-35.55
212.142	-3.73
212.362	24.34
212.582	7.06
212.801	-1.99
213.021	-12.31
213.241	-26.28
213.461	-41.04
213.68	-15.93
213.9	1.07
214.12	9.77
214.339	3.36
214.559	3.37
214.779	-5.86
214.998	-2.92
215.218	4.55
215.438	25.61
215.657	31.32
215.877	21.46
216.096	27.95
216.316	24.84
216.535	27.57
216.755	28.06
216.974	30.59
217.194	30.24
217.413	18.72
217.633	10.29
217.852	8.81
218.072	14.77
218.291	8.5
218.511	12.75
218.73	-21.51
218.95	-36.18
219.169	-15.72
219.389	4.08
219.608	5.06
219.827	33.75
220.047	33.08
220.266	10.19
220.485	-19.22
220.705	-18.21
220.924	-14.32
221.143	33.42
221.363	22.39
221.582	12.86
221.801	15.27
222.021	5.16
222.24	-22.59
222.459	12.98
222.678	22.98
222.897	21.89
223.117	39.98
223.336	45.01
223.555	26.13
223.774	46.57
223.993	71.59
224.213	74.22
224.432	59.03
224.651	37.18
224.87	31.61
225.089	15.63
225.308	1.86
225.527	2.23
225.746	29.74
225.965	16.43
226.184	16.73
226.404	9.47
226.623	17.15
226.842	10.99
227.061	16.25
227.28	20.04
227.499	27.73
227.718	27.71
227.936	24.8
228.155	33.85
228.374	29.59
228.593	29.46
228.812	26.48
229.031	37.8
229.25	25.01
229.469	30.76
229.688	24.44
229.907	25.26
230.125	18.42
230.344	23.53
230.563	20.53
230.782	19.19
231.001	26.93
231.22	14.71
231.438	12.19
231.657	27.34
231.876	25.55
232.095	20.38
232.313	26.94
232.532	16.64
232.751	14.48
232.969	11.76
233.188	7.62
233.407	4.41
233.625	14.59
233.844	-3.81
234.063	6.44
234.281	-2.55
234.5	1.59
234.719	-7.54
234.937	-10.9
235.156	-16.19
235.374	-3.22
235.593	-9.29
235.811	16.19
236.03	26.21
236.249	39.18
236.467	39.96
236.686	47.98
236.904	32.94
237.123	15.76
237.341	3.62
237.559	7.07
237.778	36.09
237.996	19.04
238.215	12.58
238.433	-47.47
238.652	-7.58
238.87	-30.18
239.088	-18.51
239.307	-4.58
239.525	5.63
239.743	-5.92
239.962	-46.28
240.18	-25.36
240.398	-38.87
240.617	-47.92
240.835	-61.67
241.053	-19.27
241.271	-5.49
241.49	21.41
241.708	11.63
241.926	12.93
242.144	23.21
242.363	-5.66
242.581	-36.28
242.799	-7.15
243.017	7.68
243.235	1.94
243.453	17.74
243.672	12.32
243.89	16.43
244.108	15.74
244.326	34.28
244.544	30.87
244.762	31.94
244.98	30.17
245.198	32.04
245.416	23.25
245.634	11.69
245.852	9.72
246.07	11.86
246.288	10.58
246.506	-8.45
246.724	15.24
246.942	7.8
247.16	14.76
247.378	-8.42
247.596	42.98
247.814	-19.09
248.032	-15.76
248.25	12.87
248.468	25.31
248.685	18.28
248.903	30.77
249.121	33.08
249.339	16.04
249.557	11.89
249.775	15.75
249.992	17.56
250.21	11.72
250.428	25.34
250.646	29.55
250.863	0.97
251.081	1
251.299	15.69
251.517	16.12
251.734	18.73
251.952	44.82
252.17	40.93
252.387	25.11
252.605	14.95
252.823	18.31
253.04	13.33
253.258	19.27
253.475	27.23
253.693	31.96
253.911	15.31
254.128	18.09
254.346	27.64
254.563	35.33
254.781	23.72
254.998	31.72
255.216	-3.3
255.433	-27.32
255.651	-30.49
255.868	-46.67
256.086	-39.36
256.303	-19.21
256.521	-3.47
256.738	-13.21
256.956	19.7
257.173	10.92
257.39	7.55
257.608	-9.17
257.825	-1.27
258.043	5.86
258.26	2.38
258.477	7.43
258.695	13.11
258.912	0.73
259.129	-10.16
259.346	-21.14
259.564	9.49
259.781	10.44
259.998	18.53
260.216	18.32
260.433	25.45
260.65	20.83
260.867	19.99
261.084	31.75
261.302	17.01
261.519	19.13
261.736	-2.19
261.953	1.92
262.17	26.1
262.387	31.18
262.604	33.96
262.822	49.09
263.039	47.86
263.256	19.07
263.473	19.79
263.69	22.62
263.907	10.95
264.124	23.75
264.341	32.9
264.558	39.22
264.775	22.46
264.992	38.01
265.209	25.11
265.426	19.65
265.643	11.49
265.86	37.08
266.077	-7.24
266.294	13.28
266.51	47.7
266.727	54.34
266.944	49.09
267.161	56.64
267.378	49.17
267.595	20.59
267.812	-3.8
268.028	-14.93
268.245	-23.6
268.462	-28.81
268.679	-11.02
268.896	9.76
269.112	-6.84
269.329	-29.68
269.546	-11.89
269.763	-6.68
269.979	-8.58
270.196	12.57
270.413	17.18
270.629	4.62
270.846	2.47
271.063	8.64
271.279	8.27
271.496	-2.59
271.712	16.42
271.929	4.29
272.146	1.86
272.362	5.82
272.579	8.63
272.795	-5.35
273.012	5.35
273.228	3.92
273.445	-4.57
273.661	-11.53
273.878	-32.23
274.094	-30.4
274.311	-25.32
274.527	-46.54
274.744	-9.37
274.96	4.04
275.177	9.21
275.393	12.39
275.609	14.8
275.826	8.14
276.042	-1.98
276.259	-8.77
276.475	-36.23
276.691	-40.01
276.908	-38.58
277.124	-8.99
277.34	-8.54
277.557	-2.17
277.773	10.86
277.989	-2.56
278.205	-16.22
278.422	-20.24
278.638	-10.01
278.854	-6.75
279.07	16.97
279.286	10.18
279.503	32.75
279.719	37.85
279.935	27.7
280.151	10.47
280.367	21.69
280.583	-2.96
280.799	-9.95
281.016	-18.2
281.232	-12.84
281.448	-16.7
281.664	-4.59
281.88	3.07
282.096	4.81
282.312	5.87
282.528	0.95
282.744	-2.36
282.96	-12.87
283.176	-17.39
283.392	-45.61
283.608	-26.29
283.824	-66.2
284.04	-96.79
284.256	-46.55
284.471	-15.14
284.687	-0.27
284.903	19.96
285.119	39.84
285.335	36.01
285.551	35.16
285.767	20.54
285.982	18.72
286.198	-39.33
286.414	-36.27
286.63	-37.6
286.846	-25.98
287.061	-5.95
287.277	27.46
287.493	22.3
287.709	13.15
287.924	8.57
288.14	10.48
288.356	20.3
288.571	25.53
288.787	8.32
289.003	11.11
289.218	-0.95
289.434	-8.85
289.65	9.65
289.865	17.75
290.081	12.53
290.296	21.34
290.512	18.55
290.727	7.89
290.943	20.58
291.159	25.1
291.374	16.92
291.59	19.72
291.805	14.2
292.021	-0.29
292.236	10.25
292.451	20.52
292.667	22.24
292.882	30.76
293.098	35.91
293.313	21
293.529	20.26
293.744	3.79
293.959	-3.21
294.175	-2.71
294.39	-15.38
294.605	-3.5
294.821	1.95
295.036	-7.49
295.251	-2.09
295.467	-1.57
295.682	-4.78
295.897	-10.82
296.112	-9.33
296.328	-2.2
296.543	-0.76
296.758	-6.38
296.973	3.38
297.188	13.55
297.404	5.79
297.619	12.97
297.834	-22
298.049	-17.95
298.264	-18.43
298.479	3.97
298.694	17.69
298.909	40.26
299.125	36.65
299.34	38.16
299.555	30.09
299.77	27.5
299.985	16.94
300.2	23.21
300.415	21.35
300.63	24.65
300.845	24.71
301.06	24.5
301.275	32.72
301.49	33.06
301.704	34.16
301.919	28.58
302.134	22.41
302.349	14.18
302.564	15.49
302.779	-2.63
302.994	11.97
303.209	12.6
303.423	13.98
303.638	14.76
303.853	17.14
304.068	-17.42
304.283	1.31
304.497	-23.35
304.712	-4.01
304.927	-7.18
305.142	15.66
305.356	17.27
305.571	24.29
305.786	17.62
306	27.46
306.215	19.01
306.43	27.56
306.644	28.42
306.859	34.92
307.074	39.39
307.288	17.67
307.503	9.82
307.717	1.58
307.932	11.54
308.147	2.2
308.361	12.25
308.576	-6.28
308.79	2.16
309.005	-17.4
309.219	7.35
309.434	20.02
309.648	18.45
309.863	15.2
310.077	5.9
310.292	-5.21
310.506	-29.95
310.72	-22.22
310.935	7.63
311.149	9.49
311.364	6.81
311.578	13.56
311.792	16.42
312.007	-27.93
312.221	-14.53
312.435	8.54
312.649	11.85
312.864	-27.48
313.078	-20.81
313.292	-21.46
313.507	-34.92
313.721	-38.08
313.935	-8.66
314.149	4.5
314.363	7.77
314.578	5.67
314.792	2.44
315.006	-5.83
315.22	2.39
315.434	6.51
315.648	-3.36
315.862	-2.65
316.077	3.67
316.291	3.76
316.505	-33.18
316.719	-21.23
316.933	-12.23
317.147	-12.97
317.361	-28.02
317.575	-4.4
317.789	7.83
318.003	5.82
318.217	25.73
318.431	36.51
318.645	33.49
318.859	33.33
319.073	27.83
319.287	11.23
319.5	9.54
319.714	6.16
319.928	0.16
320.142	-5.52
320.356	2.66
320.57	-20.78
320.784	-22.44
320.997	-46.76
321.211	-11.81
321.425	-32.36
321.639	7.43
321.853	23.32
322.066	33.14
322.28	20.98
322.494	28.14
322.707	19.16
322.921	2.52
323.135	4.94
323.349	5.44
323.562	2.56
323.776	-0.89
323.989	17.9
324.203	-0.46
324.417	5.74
324.63	-0.76
324.844	-5.22
325.057	-51.58
325.271	-41.01
325.485	-54.4
325.698	-25.15
325.912	-0.57
326.125	3.39
326.339	20.16
326.552	17.32
326.766	6.09
326.979	12.4
327.193	20.64
327.406	9.14
327.619	21.14
327.833	16.58
328.046	1.5
328.26	3.28
328.473	4.67
328.686	-11.39
328.9	-1.87
329.113	-2.21
329.326	-4.2
329.54	11.13
329.753	24.01
329.966	18.37
330.179	13.67
330.393	13.95
330.606	2
330.819	-10.84
331.032	-0.41
331.246	10.95
331.459	26.61
331.672	30.35
331.885	29.61
332.098	14.45
332.311	-4.14
332.525	-6.16
332.738	-2.77
332.951	-8.35
333.164	8.79
333.377	18.04
333.59	9.9
333.803	16.16
334.016	34.36
334.229	28.4
334.442	18.59
334.655	27.46
334.868	9.39
335.081	7.18
335.294	2.09
335.507	16.52
335.72	13.55
335.933	24.24
336.146	17.17
336.359	27.55
336.572	26.14
336.785	25.06
336.997	12.87
337.21	19.94
337.423	-8.46
337.636	7.63
337.849	21.71
338.062	25.4
338.274	30.61
338.487	18.63
338.7	-4.16
338.913	-5.59
339.125	-22.3
339.338	-35.05
339.551	-24.7
339.763	-9.88
339.976	-20.04
340.189	-11.79
340.402	28.01
340.614	35.89
340.827	37.85
341.039	44.9
341.252	35.64
341.465	10.56
341.677	22.82
341.89	-2.9
342.102	-3.54
342.315	5.68
342.527	1.95
342.74	-22.97
342.952	-10.98
343.165	-9.43
343.377	2.46
343.59	2.79
343.802	7.96
344.015	16.52
344.227	22.19
344.44	4.3
344.652	10.05
344.864	23.41
345.077	30.69
345.289	28.08
345.502	49.67
345.714	44.26
345.926	36.55
346.139	13.2
346.351	27.55
346.563	19.65
346.775	28.08
346.988	26.64
347.2	23.7
347.412	15.6
347.624	12.41
347.837	18.57
348.049	20.74
348.261	24.23
348.473	1.25
348.685	-14.7
348.897	-32.54
349.11	-34.66
349.322	-28.67
349.534	-13.23
349.746	-2.58
349.958	-5.45
350.17	-16.79
350.382	-20.97
350.594	-11.49
350.806	8.76
351.018	7.38
351.23	23.74
351.442	26.93
351.654	24.65
351.866	5.51
352.078	18.81
352.29	9.02
352.502	1.3
352.714	-1.08
352.926	11.78
353.138	9.4
353.35	8
353.561	23.04
353.773	19.78
353.985	29.95
354.197	32.21
354.409	28.71
354.621	12.93
354.832	10.06
355.044	-17.92
355.256	-46.17
355.468	-36.96
355.679	-2.72
355.891	10.77
356.103	15.44
356.314	22.54
356.526	4.71
356.738	-7.23
356.949	-25.84
357.161	-8.02
357.373	-0.22
357.584	21.22
357.796	27.87
358.008	36.66
358.219	25.64
358.431	21.03
358.642	12.14
358.854	6.09
359.065	-17.7
359.277	-10.21
359.488	-12.09
359.7	-24.99
359.911	-34.91
360.123	-8.41
360.334	-14.23
360.546	-8.28
360.757	15.23
360.969	16.62
361.18	19.56
361.391	25.23
361.603	23.68
361.814	14.66
362.025	19.43
362.237	12.55
362.448	17.78
362.659	9.78
362.871	-1.53
363.082	2.51
363.293	4.93
363.504	-27.97
363.716	-34.02
363.927	-11.52
364.138	-40.08
364.349	-43.91
364.56	-49.73
364.772	-17.05
364.983	-5.48
365.194	11.14
365.405	7.63
365.616	36.34
365.827	14.01
366.038	5.34
366.25	1.25
366.461	11.63
366.672	1.96
366.883	7.12
367.094	-2.62
367.305	-3.52
367.516	-4.49
367.727	-26.77
367.938	-29.74
368.149	-29.66
368.36	-30.3
368.571	-24.93
368.781	-11.98
368.992	-4.9
369.203	-8.91
369.414	-10.92
369.625	-27.23
369.836	-5.96
370.047	2.3
370.258	21.17
370.468	22.42
370.679	25.11
370.89	13.61
371.101	20.74
371.312	11.47
371.522	0.2
371.733	4.78
371.944	-1.83
372.155	-16.72
372.365	-8.36
372.576	15.82
372.787	14.43
372.997	16.57
373.208	22.82
373.419	17.27
373.629	6.92
373.84	-10.96
374.05	-10.76
374.261	-10.43
374.472	-14.86
374.682	-21.16
374.893	-8.94
375.103	-1.62
375.314	4.87
375.524	7.2
375.735	16.93
375.945	23.59
376.156	24.52
376.366	23.18
376.577	32
376.787	34.33
376.997	41.68
377.208	37.7
377.418	29.06
377.629	25.07
377.839	23.83
378.049	21.9
378.26	17.41
378.47	15.22
378.68	-0.74
378.89	-4.94
379.101	-16.97
379.311	-14.68
379.521	-20.33
379.732	-6.53
379.942	-13.37
380.152	-15.46
380.362	-19.26
380.572	0.23
380.783	4.31
380.993	14.71
381.203	12.28
381.413	22.13
381.623	17.59
381.833	14.77
382.043	6.58
382.253	16.06
382.463	18.08
382.674	22.2
382.884	20.68
383.094	25.13
383.304	20.54
383.514	13.81
383.724	4.55
383.934	-3.02
384.144	-4.08
384.353	0.1
384.563	-0.6
384.773	5.83
384.983	4.91
385.193	2.26
385.403	-4.25
385.613	-3.03
385.823	-10.52
386.033	-5.95
386.242	-5.2
386.452	-6.35
386.662	-4.53
386.872	3.4
387.082	-1.63
387.291	1.09
387.501	9.27
387.711	9.54
387.921	1.71
388.13	6.39
388.34	6.09
388.55	-1.51
388.759	-3.66
388.969	-0.93
389.179	0.17
389.388	1.18
389.598	-2
389.807	-4.75
390.017	-3.15
390.227	-7.6
390.436	-6.35
390.646	-0.75
390.855	2.17
391.065	2.02
391.274	4.86
391.484	1.99
391.693	0.53
391.903	-0.78
392.112	-1.22
392.322	-1.85
392.531	-0.86
392.74	-0.56
392.95	0.97
393.159	2.28
393.369	3.11
393.578	3.31
393.787	2.77
393.997	3.7
394.206	1.57
394.415	2.2
394.625	3.48
394.834	2.78
395.043	2.51
395.252	4.91
395.462	4.44
395.671	3.21
395.88	4.72
396.089	3.76
396.298	2.23
396.508	3.15
396.717	3.8
396.926	3.26
397.135	3.65
397.344	3.25
397.553	2.11
397.762	2.54
397.971	2.3
398.181	2.39
398.39	2.56
398.599	2.95
398.808	2.21
399.017	2.65
399.226	2.6
399.435	2.33
399.644	2.34
399.853	2.84
400.062	2.92
400.27	2.5
400.479	2.92
400.688	3.01
400.897	2.73
401.106	2.91
401.315	3.21
401.524	3.24
401.733	2.89
401.941	2.92
402.15	2.8
402.359	2.69
402.568	2.81
402.777	2.86
402.985	2.56
403.194	2.13
403.403	2.25
403.612	1.92
403.82	1.67
404.029	2
404.238	2.01
404.446	2.17
404.655	2.39
404.864	2.76
405.072	2.75
405.281	2.83
405.489	2.62
405.698	2.52
405.906	2.46
406.115	2.34
406.324	2.47
406.532	2.62
406.741	2.61
406.949	2.6
407.158	2.69
407.366	2.61
407.574	2.51
407.783	2.52
407.991	2.58
408.2	2.6
408.408	2.59
408.617	2.6
408.825	2.5
409.033	2.32
409.242	2.31
409.45	2.27
409.658	2.21
409.867	2.36
410.075	2.51
410.283	2.33
410.491	2.24
410.7	2.1
410.908	2.06
411.116	2.06
411.324	2.1
411.533	2.15
411.741	2.3
411.949	2.36
412.157	2.2
412.365	2.38
412.573	2.5
412.781	2.37
412.99	2.26
413.198	2.42
413.406	2.34
413.614	2.27
413.822	2.42
414.03	2.53
414.238	2.46
414.446	2.51
414.654	2.52
414.862	2.46
415.07	2.29
415.278	2.55
415.486	2.26
415.694	2.3
415.902	2.26
416.109	2.24
416.317	2.07
416.525	2.09
416.733	2.04
416.941	1.99
417.149	1.99
417.357	1.89
417.564	2.04
417.772	2.03
417.98	2.16
418.188	2.06
418.395	1.94
418.603	1.83
418.811	1.72
419.019	1.74
419.226	1.96
419.434	2.11
419.642	2.13
419.849	2.18
420.057	2.22
420.265	2.15
420.472	2.13
420.68	2.24
420.887	2.21
421.095	2.1
421.302	2.13
421.51	1.93
421.717	1.98
421.925	1.99
422.132	1.97
422.34	1.79
422.547	1.81
422.755	1.79
422.962	1.86
423.17	1.74
423.377	1.84
423.585	2.06
423.792	1.97
423.999	1.99
424.207	2.07
424.414	2.07
424.621	2.07
424.829	2.1
425.036	2.09
425.243	2.1
425.451	2.13
425.658	1.98
425.865	2.02
426.072	2
426.28	2
426.487	2.02
426.694	1.98
426.901	2.08
427.108	1.98
427.315	1.97
427.523	1.93
427.73	2.04
427.937	1.72
428.144	1.75
428.351	1.73
428.558	1.86
428.765	1.75
428.972	1.93
429.179	1.87
429.386	1.92
429.593	1.61
429.8	1.74
430.007	1.81
430.214	1.9
430.421	1.92
430.628	2.06
430.835	1.97
431.042	1.86
431.249	1.86
431.456	1.78
431.662	1.91
431.869	2.01
432.076	1.98
432.283	2.09
432.49	2.09
432.697	1.88
432.903	1.77
433.11	1.97
433.317	1.86
433.524	1.99
433.73	2.09
433.937	2.24
434.144	2.03
434.35	2.01
434.557	2.02
434.764	2.08
434.97	1.9
435.177	2.09
435.384	2.27
435.59	2.18
435.797	2.2
436.003	2.34
436.21	2.18
436.416	2.14
436.623	2.25
436.829	2.23
437.036	2.15
437.242	2.3
437.449	2.22
437.655	2.28
437.862	2.3
438.068	2.41
438.275	2.44
438.481	2.53
438.687	2.42
438.894	2.52
439.1	2.48
439.307	2.47
439.513	2.41
439.719	2.56
439.926	2.49
440.132	2.58
440.338	2.53
440.544	2.53
440.751	2.38
440.957	2.37
441.163	2.17
441.369	2.27
441.575	2.26
441.782	2.29
441.988	2.31
442.194	2.38
442.4	2.24
442.606	2.47
442.812	2.57
443.018	2.56
443.224	2.61
443.431	2.67
443.637	2.49
443.843	2.51
444.049	2.62
444.255	2.62
444.461	2.5
444.667	2.53
444.873	2.45
445.079	2.4
445.284	2.41
445.49	2.57
445.696	2.53
445.902	2.56
446.108	2.58
446.314	2.55
446.52	2.57
446.726	2.59
446.931	2.51
447.137	2.48
447.343	2.58
447.549	2.54
447.755	2.53
447.96	2.61
448.166	2.67
448.372	2.65
448.578	2.65
448.783	2.69
448.989	2.66
449.195	2.67
449.4	2.69
449.606	2.72
449.812	2.73
450.017	2.78
450.223	2.72
450.428	2.71
450.634	2.69
450.84	2.69
451.045	2.66
451.251	2.77
451.456	2.78
451.662	2.79
451.867	2.74
452.073	2.81
452.278	2.72
452.483	2.73
452.689	2.81
452.894	2.87
453.1	2.79
453.305	2.8
453.51	2.75
453.716	2.63
453.921	2.68
454.127	2.74
454.332	2.72
454.537	2.75
454.742	2.78
454.948	2.73
455.153	2.66
455.358	2.65
455.563	2.73
455.769	2.78
455.974	2.73
456.179	2.76
456.384	2.73
456.589	2.64
456.795	2.59
457	2.63
457.205	2.58
457.41	2.58
457.615	2.57
457.82	2.63
458.025	2.62
458.23	2.6
458.435	2.7
458.64	2.7
458.845	2.73
459.05	2.72
459.255	2.83
459.46	2.79
459.665	2.78
459.87	2.67
460.075	2.66
460.28	2.61
460.485	2.72
460.69	2.79
460.895	2.84
461.099	2.83
461.304	2.81
461.509	2.78
461.714	2.8
461.919	2.76
462.123	2.82
462.328	2.83
462.533	2.66
462.738	2.68
462.942	2.62
463.147	2.53
463.352	2.58
463.556	2.7
463.761	2.58
463.966	2.7
464.17	2.92
464.375	2.99
464.58	2.96
464.784	3.09
464.989	3.07
465.193	2.87
465.398	2.85
465.602	3.05
465.807	3.02
466.011	3.03
466.216	3.07
466.42	3.08
466.625	3.04
466.829	2.99
467.034	3.01
467.238	3.14
467.443	3.15
467.647	3.04
467.851	3.07
468.056	3.08
468.26	3.02
468.464	2.99
468.669	3.11
468.873	3.1
469.077	3.11
469.282	3.12
469.486	3.08
469.69	3.04
469.894	3.14
470.099	3.14
470.303	3.15
470.507	3.18
470.711	3.13
470.915	3.14
471.119	3.21
471.324	3.19
471.528	3.23
471.732	3.32
471.936	3.32
472.14	3.29
472.344	3.41
472.548	3.38
472.752	3.36
472.956	3.39
473.16	3.43
473.364	3.36
473.568	3.36
473.772	3.34
473.976	3.36
474.18	3.4
474.384	3.36
474.588	3.48
474.792	3.44
474.995	3.46
475.199	3.47
475.403	3.53
475.607	3.46
475.811	3.52
476.015	3.44
476.218	3.35
476.422	3.37
476.626	3.44
476.83	3.52
477.033	3.63
477.237	3.69
477.441	3.65
477.644	3.61
477.848	3.57
478.052	3.54
478.255	3.62
478.459	3.61
478.663	3.7
478.866	3.63
479.07	3.6
479.273	3.69
479.477	3.76
479.681	3.73
479.884	3.83
480.088	3.87
480.291	3.76
480.495	3.77
480.698	3.81
480.901	3.82
481.105	3.83
481.308	3.88
481.512	3.9
481.715	3.96
481.919	4.07
482.122	4.11
482.325	4.21
482.529	4.18
482.732	4.12
482.935	4
483.138	3.94
483.342	3.86
483.545	3.96
483.748	4.04
483.952	4.1
484.155	4.16
484.358	4.2
484.561	4.15
484.764	4.08
484.967	4.05
485.171	4.08
485.374	4
485.577	4.03
485.78	4.04
485.983	4.03
486.186	4.03
486.389	4.04
486.592	4
486.795	4.03
486.998	4.03
487.201	4.03
487.404	4.24
487.607	4.33
487.81	4.27
488.013	4.29
488.216	4.29
488.419	4.09
488.622	4.06
488.825	4.1
489.028	4.14
489.231	4.16
489.433	4.24
489.636	4.24
489.839	4.3
490.042	4.28
490.245	4.25
490.447	4.21
490.65	4.23
490.853	4.17
491.056	4.16
491.258	4.18
491.461	4.2
491.664	4.18
491.866	4.15
492.069	4.22
492.272	4.15
492.474	4.16
492.677	4.19
492.879	4.24
493.082	4.18
493.285	4.31
493.487	4.29
493.69	4.27
493.892	4.24
494.095	4.25
494.297	4.22
494.5	4.2
494.702	4.2
494.905	4.22
495.107	4.26
495.309	4.26
495.512	4.26
495.714	4.32
495.917	4.33
496.119	4.31
496.321	4.32
496.524	4.32
496.726	4.3
496.928	4.29
497.13	4.31
497.333	4.24
497.535	4.26
497.737	4.28
497.939	4.31
498.142	4.29
498.344	4.37
498.546	4.38
498.748	4.41
498.95	4.43
499.152	4.48
499.355	4.47
499.557	4.51
499.759	4.58
499.961	4.54
500.163	4.55
500.365	4.64
500.567	4.63
500.769	4.54
500.971	4.58
501.173	4.52
501.375	4.58
501.577	4.55
501.779	4.59
501.981	4.62
502.183	4.64
502.385	4.58
502.587	4.65
502.788	4.7
502.99	4.66
503.192	4.73
503.394	4.72
503.596	4.67
503.798	4.57
503.999	4.57
504.201	4.53
504.403	4.55
504.605	4.66
504.806	4.74
505.008	4.84
505.21	4.86
505.411	4.85
505.613	4.8
505.815	4.8
506.016	4.83
506.218	4.86
506.42	4.84
506.621	4.9
506.823	4.9
507.024	4.85
507.226	4.92
507.427	4.97
507.629	4.96
507.83	5.01
508.032	4.98
508.233	4.97
508.435	5.01
508.636	5.08
508.838	5.06
509.039	5.11
509.24	5.09
509.442	5.04
509.643	5.02
509.845	5.06
510.046	5.1
510.247	5.14
510.448	5.22
510.65	5.23
510.851	5.28
511.052	5.31
511.254	5.39
511.455	5.33
511.656	5.27
511.857	5.21
512.058	5.19
512.26	5.1
512.461	5.15
512.662	5.2
512.863	5.2
513.064	5.2
513.265	5.26
513.466	5.3
513.667	5.35
513.868	5.36
514.069	5.33
514.27	5.39
514.471	5.37
514.672	5.38
514.873	5.4
515.074	5.47
515.275	5.42
515.476	5.45
515.677	5.49
515.878	5.58
516.079	5.57
516.28	5.61
516.481	5.61
516.682	5.61
516.882	5.54
517.083	5.52
517.284	5.51
517.485	5.46
517.686	5.49
517.886	5.52
518.087	5.52
518.288	5.5
518.488	5.57
518.689	5.54
518.89	5.6
519.091	5.67
519.291	5.71
519.492	5.75
519.692	5.78
519.893	5.79
520.094	5.78
520.294	5.76
520.495	5.73
520.695	5.75
520.896	5.7
521.096	5.74
521.297	5.8
521.497	5.84
521.698	5.79
521.898	5.85
522.099	5.84
522.299	5.82
522.499	5.83
522.7	5.92
522.9	5.91
523.101	5.87
523.301	5.86
523.501	5.84
523.702	5.79
523.902	5.8
524.102	5.92
524.302	6
524.503	6.06
524.703	6.07
524.903	6.07
525.103	5.98
525.304	5.95
525.504	6.01
525.704	6.02
525.904	6.01
526.104	6.06
526.304	6.11
526.504	6.05
526.705	6.07
526.905	6.1
527.105	6.08
527.305	6.06
527.505	5.99
527.705	5.95
527.905	5.96
528.105	5.96
528.305	6
528.505	6.09
528.705	6.19
528.905	6.22
529.105	6.26
529.304	6.25
529.504	6.32
529.704	6.27
529.904	6.28
530.104	6.23
530.304	6.24
530.503	6.22
530.703	6.23
530.903	6.24
531.103	6.3
531.303	6.35
531.502	6.38
531.702	6.36
531.902	6.42
532.101	6.43
532.301	6.43
532.501	6.52
532.7	6.62
532.9	6.66
533.1	6.69
533.299	6.67
533.499	6.55
533.698	6.55
533.898	6.51
534.097	6.49
534.297	6.57
534.496	6.56
534.696	6.58
534.895	6.59
535.095	6.63
535.294	6.65
535.494	6.73
535.693	6.79
535.892	6.8
536.092	6.78
536.291	6.79
536.491	6.78
536.69	6.78
536.889	6.77
537.088	6.83
537.288	6.79
537.487	6.85
537.686	6.85
537.886	6.89
538.085	6.91
538.284	6.97
538.483	6.96
538.682	7
538.882	7.05
539.081	7.07
539.28	7.07
539.479	7.06
539.678	7.04
539.877	7.08
540.076	7.08
540.275	7.13
540.474	7.14
540.673	7.18
540.872	7.17
541.071	7.21
541.27	7.2
541.469	7.27
541.668	7.29
541.867	7.37
542.066	7.42
542.265	7.5
542.464	7.51
542.663	7.56
542.862	7.59
543.06	7.58
543.259	7.61
543.458	7.68
543.657	7.68
543.856	7.71
544.054	7.81
544.253	7.8
544.452	7.81
544.651	7.9
544.849	7.88
545.048	7.9
545.247	7.98
545.445	8
545.644	8.01
545.843	8.06
546.041	8.04
546.24	8.06
546.438	8.14
546.637	8.17
546.836	8.21
547.034	8.3
547.233	8.42
547.431	8.45
547.63	8.52
547.828	8.58
548.027	8.57
548.225	8.56
548.423	8.59
548.622	8.62
548.82	8.67
549.019	8.78
549.217	8.79
549.415	8.8
549.614	8.94
549.812	9.02
550.01	9.02
550.209	9.19
550.407	9.34
550.605	9.25
550.803	9.32
551.002	9.46
551.2	9.42
551.398	9.46
551.596	9.61
551.794	9.63
551.993	9.65
552.191	9.78
552.389	9.86
552.587	9.92
552.785	9.96
552.983	10.05
553.181	10.01
553.379	10.07
553.577	10.07
553.775	10.18
553.973	10.26
554.171	10.41
554.369	10.39
554.567	10.49
554.765	10.56
554.963	10.58
555.161	10.61
555.359	10.76
555.557	10.83
555.755	11
555.952	11.12
556.15	11.25
556.348	11.37
556.546	11.55
556.744	11.52
556.941	11.5
557.139	11.6
557.337	11.64
557.535	11.65
557.732	11.68
557.93	11.92
558.128	11.96
558.325	12.04
558.523	12.2
558.721	12.34
558.918	12.33
559.116	12.47
559.313	12.67
559.511	12.76
559.708	12.83
559.906	12.98
560.104	13.05
560.301	13.09
560.498	13.16
560.696	13.28
560.893	13.39
561.091	13.48
561.288	13.61
561.486	13.58
561.683	13.73
561.88	13.83
562.078	13.89
562.275	13.96
562.473	14.1
562.67	14.11
562.867	14.22
563.064	14.35
563.262	14.48
563.459	14.71
563.656	14.8
563.853	14.76
564.051	14.9
564.248	14.99
564.445	15.04
564.642	15.19
564.839	15.41
565.036	15.59
565.234	15.68
565.431	15.81
565.628	15.94
565.825	16.08
566.022	16.14
566.219	16.19
566.416	16.28
566.613	16.34
566.81	16.44
567.007	16.44
567.204	16.55
567.401	16.62
567.598	16.72
567.795	16.74
567.991	16.82
568.188	16.9
568.385	16.97
568.582	17.03
568.779	17.07
568.976	17.18
569.172	17.31
569.369	17.42
569.566	17.52
569.763	17.59
569.96	17.73
570.156	17.76
570.353	17.83
570.55	17.96
570.746	18.08
570.943	18.06
571.14	18.05
571.336	18.09
571.533	18.06
571.729	18.13
571.926	18.25
572.123	18.41
572.319	18.48
572.516	18.59
572.712	18.59
572.909	18.64
573.105	18.74
573.302	18.69
573.498	18.7
573.695	18.8
573.891	18.81
574.087	18.68
574.284	18.86
574.48	18.88
574.677	18.92
574.873	18.99
575.069	19.16
575.266	19.2
575.462	19.32
575.658	19.44
575.854	19.45
576.051	19.45
576.247	19.38
576.443	19.39
576.639	19.3
576.835	19.32
577.032	19.29
577.228	19.43
577.424	19.42
577.62	19.44
577.816	19.41
578.012	19.45
578.208	19.42
578.404	19.46
578.6	19.53
578.796	19.61
578.993	19.7
579.189	19.75
579.384	19.75
579.58	19.69
579.776	19.66
579.972	19.67
580.168	19.57
580.364	19.59
580.56	19.62
580.756	19.64
580.952	19.57
581.148	19.62
581.343	19.62
581.539	19.69
581.735	19.74
581.931	19.79
582.127	19.76
582.322	19.73
582.518	19.7
582.714	19.65
582.909	19.58
583.105	19.57
583.301	19.6
583.496	19.62
583.692	19.59
583.888	19.63
584.083	19.61
584.279	19.48
584.474	19.32
584.67	19.29
584.866	19.29
585.061	19.33
585.257	19.41
585.452	19.49
585.648	19.48
585.843	19.47
586.039	19.45
586.234	19.43
586.429	19.46
586.625	19.48
586.82	19.5
587.015	19.47
587.211	19.54
587.406	19.45
587.601	19.56
587.797	19.55
587.992	19.62
588.187	19.55
588.383	19.73
588.578	19.7
588.773	19.68
588.968	19.77
589.163	19.86
589.359	19.79
589.554	19.74
589.749	19.75
589.944	19.79
590.139	19.79
590.334	19.88
590.529	19.93
590.724	20.1
590.919	20.09
591.114	20.14
591.309	20.1
591.504	20.22
591.699	20.19
591.894	20.17
592.089	20.13
592.284	20.16
592.479	20.14
592.674	20.21
592.869	20.22
593.064	20.29
593.259	20.45
593.454	20.42
593.648	20.48
593.843	20.57
594.038	20.71
594.233	20.73
594.428	20.85
594.622	20.94
594.817	21.09
595.012	21.08
595.206	21.14
595.401	21.34
595.596	21.43
595.79	21.47
595.985	21.56
596.18	21.61
596.374	21.6
596.569	21.62
596.763	21.69
596.958	21.82
597.153	21.99
597.347	21.97
597.542	22.1
597.736	22.12
597.931	22.12
598.125	22.22
598.319	22.32
598.514	22.35
598.708	22.45
598.903	22.56
599.097	22.54
599.291	22.63
599.486	22.66
599.68	22.71
599.874	22.79
600.069	22.87
600.263	22.97
600.457	23.05
600.651	23.1
600.846	23.12
601.04	23.18
601.234	23.12
601.428	23.19
601.622	23.24
601.817	23.29
602.011	23.24
602.205	23.37
602.399	23.38
602.593	23.42
602.787	23.35
602.981	23.38
603.175	23.46
603.369	23.37
603.563	23.42
603.757	23.54
603.951	23.58
604.145	23.49
604.339	23.57
604.533	23.44
604.727	23.41
604.921	23.36
605.115	23.28
605.309	23.25
605.502	23.34
605.696	23.29
605.89	23.35
606.084	23.32
606.278	23.28
606.471	23.15
606.665	23.12
606.859	22.95
607.053	22.88
607.246	22.84
607.44	22.76
607.634	22.7
607.827	22.74
608.021	22.7
608.214	22.72
608.408	22.65
608.602	22.57
608.795	22.54
608.989	22.47
609.182	22.4
609.376	22.44
609.569	22.43
609.763	22.31
609.956	22.32
610.15	22.14
610.343	21.97
610.537	21.88
610.73	21.72
610.923	21.65
611.117	21.74
611.31	21.72
611.504	21.65
611.697	21.7
611.89	21.61
612.083	21.38
612.277	21.32
612.47	21.21
612.663	21.12
612.856	21.04
613.05	21.03
613.243	20.91
613.436	20.84
613.629	20.67
613.822	20.61
614.015	20.47
614.209	20.45
614.402	20.42
614.595	20.5
614.788	20.39
614.981	20.33
615.174	20.25
615.367	20.1
615.56	19.91
615.753	19.93
615.946	19.91
616.139	19.88
616.332	19.85
616.525	19.8
616.718	19.7
616.911	19.67
617.103	19.68
617.296	19.65
617.489	19.53
617.682	19.5
617.875	19.4
618.067	19.26
618.26	19.18
618.453	19.16
618.646	19.1
618.838	19.05
619.031	19
619.224	18.97
619.417	19.03
619.609	19.03
619.802	19.03
619.994	19
620.187	18.92
620.38	18.89
620.572	18.85
620.765	18.8
620.957	18.75
621.15	18.75
621.342	18.7
621.535	18.56
621.727	18.46
621.92	18.55
622.112	18.55
622.305	18.57
622.497	18.65
622.69	18.67
622.882	18.61
623.074	18.69
623.267	18.65
623.459	18.52
623.651	18.59
623.844	18.56
624.036	18.47
624.228	18.41
624.42	18.42
624.613	18.33
624.805	18.26
624.997	18.19
625.189	18.19
625.381	18.15
625.574	18.08
625.766	18.07
625.958	18.1
626.15	18.04
626.342	18.02
626.534	18
626.726	17.97
626.918	17.91
627.11	17.9
627.302	17.89
627.494	17.83
627.686	17.76
627.878	17.69
628.07	17.67
628.262	17.68
628.454	17.73
628.646	17.71
628.838	17.81
629.029	17.74
629.221	17.66
629.413	17.58
629.605	17.51
629.797	17.39
629.989	17.37
630.18	17.47
630.372	17.46
630.564	17.42
630.755	17.4
630.947	17.38
631.139	17.22
631.33	17.15
631.522	17.26
631.714	17.11
631.905	17.04
632.097	16.97
632.289	16.94
632.48	16.89
632.672	16.96
632.863	16.88
633.055	16.89
633.246	16.9
633.438	16.87
633.629	16.85
633.821	16.95
634.012	16.95
634.203	16.95
634.395	16.91
634.586	16.92
634.777	16.89
634.969	16.92
635.16	16.84
635.351	16.81
635.543	16.7
635.734	16.63
635.925	16.61
636.117	16.67
636.308	16.69
636.499	16.73
636.69	16.8
636.881	16.79
637.073	16.84
637.264	16.79
637.455	16.78
637.646	16.75
637.837	16.69
638.028	16.49
638.219	16.54
638.41	16.58
638.601	16.47
638.792	16.54
638.983	16.63
639.174	16.6
639.365	16.55
639.556	16.55
639.747	16.47
639.938	16.51
640.129	16.48
640.32	16.43
640.511	16.47
640.701	16.52
640.892	16.41
641.083	16.42
641.274	16.38
641.465	16.37
641.655	16.29
641.846	16.34
642.037	16.28
642.228	16.24
642.418	16.16
642.609	16.2
642.8	16.21
642.99	16.19
643.181	16.23
643.372	16.26
643.562	16.18
643.753	16.06
643.943	15.95
644.134	15.87
644.324	15.91
644.515	15.9
644.705	15.9
644.896	16.09
645.086	16.09
645.277	16.01
645.467	15.95
645.658	15.86
645.848	15.69
646.038	15.72
646.229	15.74
646.419	15.64
646.61	15.69
646.8	15.69
646.99	15.7
647.18	15.57
647.371	15.62
647.561	15.55
647.751	15.51
647.941	15.39
648.132	15.39
648.322	15.29
648.512	15.31
648.702	15.36
648.892	15.43
649.082	15.47
649.272	15.52
649.462	15.57
649.653	15.51
649.843	15.49
650.033	15.41
650.223	15.34
650.413	15.25
650.603	15.31
650.793	15.3
650.983	15.25
651.172	15.3
651.362	15.13
651.552	15.02
651.742	14.86
651.932	14.83
652.122	14.77
652.312	14.81
652.502	14.64
652.691	14.62
652.881	14.58
653.071	14.51
653.261	14.42
653.45	14.44
653.64	14.26
653.83	14.16
654.019	14.1
654.209	14.02
654.399	13.9
654.588	13.84
654.778	13.74
654.968	13.63
655.157	13.51
655.347	13.34
655.536	13.29
655.726	13.14
655.915	13.02
656.105	12.87
656.294	12.8
656.484	12.58
656.673	12.49
656.863	12.4
657.052	12.27
657.241	12.11
657.431	12.03
657.62	11.85
657.809	11.54
657.999	11.43
658.188	11.24
658.377	11.08
658.567	11.03
658.756	10.96
658.945	10.83
659.134	10.71
659.324	10.62
659.513	10.45
659.702	10.3
659.891	10.15
660.08	9.99
660.269	9.78
660.458	9.56
660.648	9.4
660.837	9.28
661.026	9.09
661.215	9
661.404	8.82
661.593	8.79
661.782	8.64
661.971	8.58
662.16	8.46
662.349	8.37
662.538	8.16
662.726	8.1
662.915	8.05
663.104	7.92
663.293	7.92
663.482	7.85
663.671	7.69
663.86	7.64
664.048	7.68
664.237	7.56
664.426	7.51
664.615	7.43
664.803	7.24
664.992	7.03
665.181	6.99
665.369	6.86
665.558	6.88
665.747	6.86
665.935	6.87
666.124	6.84
666.312	6.8
666.501	6.74
666.69	6.74
666.878	6.73
667.067	6.6
667.255	6.59
667.444	6.56
667.632	6.59
667.82	6.5
668.009	6.5
668.197	6.48
668.386	6.41
668.574	6.33
668.762	6.38
668.951	6.3
669.139	6.3
669.327	6.31
669.516	6.31
669.704	6.31
669.892	6.39
670.08	6.33
670.269	6.26
670.457	6.32
670.645	6.29
670.833	6.32
671.021	6.51
671.21	6.57
671.398	6.6
671.586	6.58
671.774	6.72
671.962	6.63
672.15	6.71
672.338	6.7
672.526	6.84
672.714	6.72
672.902	6.86
673.09	6.98
673.278	7.05
673.466	7.12
673.654	7.26
673.842	7.3
674.03	7.26
674.218	7.32
674.405	7.29
674.593	7.44
674.781	7.43
674.969	7.56
675.157	7.68
675.344	7.75
675.532	7.66
675.72	7.72
675.908	7.72
676.095	7.62
676.283	7.78
676.471	7.83
676.658	8.09
676.846	8.19
677.033	8.31
677.221	8.31
677.409	8.46
677.596	8.4
677.784	8.58
677.971	8.61
678.159	8.65
678.346	8.62
678.534	8.62
678.721	8.64
678.909	8.75
679.096	8.83
679.283	8.99
679.471	9.18
679.658	9.26
679.846	9.26
680.033	9.62
680.22	9.78
680.408	9.8
680.595	9.84
680.782	10.16
680.969	10.17
681.157	10.28
681.344	10.4
681.531	10.61
681.718	10.61
681.905	10.62
682.093	10.67
682.28	10.96
682.467	11.17
682.654	11.38
682.841	11.59
683.028	11.71
683.215	11.8
683.402	11.79
683.589	12
683.776	12.16
683.963	12.41
684.15	12.61
684.337	12.93
684.524	13.1
684.711	13.35
684.898	13.55
685.085	13.75
685.271	14.11
685.458	14.28
685.645	14.53
685.832	14.84
686.019	15.13
686.205	15.37
686.392	15.9
686.579	16.27
686.766	16.67
686.952	16.95
687.139	17.25
687.326	17.51
687.512	17.73
687.699	18.15
687.886	18.6
688.072	18.95
688.259	19.3
688.445	19.9
688.632	20.16
688.818	20.63
689.005	21.16
689.191	21.77
689.378	22.31
689.564	22.99
689.751	23.54
689.937	24.32
690.124	24.84
690.31	25.24
690.496	25.91
690.683	26.78
690.869	27.02
691.055	27.48
691.242	28.14
691.428	28.57
691.614	29.06
691.8	29.75
691.987	30.81
692.173	31.71
692.359	32.49
692.545	33.38
692.731	34.34
692.918	34.69
693.104	35.29
693.29	35.95
693.476	36.51
693.662	36.94
693.848	37.86
694.034	38.73
694.22	39.49
694.406	40.13
694.592	41.05
694.778	41.71
694.964	42.4
695.15	43.08
695.336	43.85
695.522	44.53
695.708	45.32
695.894	46.01
696.08	47.05
696.265	47.95
696.451	48.92
696.637	50.07
696.823	50.88
697.009	51.39
697.194	52.03
697.38	52.8
697.566	53.01
697.751	53.66
697.937	54.57
698.123	55.05
698.308	55.56
698.494	56.48
698.68	57.25
698.865	57.75
699.051	58.59
699.236	59.24
699.422	59.65
699.607	60.4
699.793	61.3
699.978	61.71
700.164	62.18
700.349	63.08
700.535	63.38
700.72	63.74
700.906	64.56
701.091	65.09
701.276	65.69
701.462	66.41
701.647	66.95
701.832	67.7
702.018	68.52
702.203	68.92
702.388	69.2
702.573	69.75
702.759	69.97
702.944	69.99
703.129	70.55
703.314	71.17
703.499	71.58
703.684	72
703.87	72.61
704.055	73.07
704.24	73.26
704.425	73.61
704.61	74.27
704.795	74.93
704.98	74.73
705.165	75.42
705.35	75.81
705.535	75.97
705.72	75.95
705.905	76.79
706.09	77.05
706.275	77.32
706.459	77.82
706.644	78.6
706.829	78.89
707.014	79.35
707.199	79.85
707.384	79.87
707.568	79.7
707.753	80.24
707.938	80.02
708.123	80.19
708.307	80.57
708.492	81.43
708.677	81.32
708.861	82.09
709.046	82.08
709.231	82.17
709.415	82.26
709.6	82.66
709.784	82.88
709.969	83.24
710.153	83.39
710.338	83.69
710.522	83.79
710.707	83.72
710.891	83.94
711.076	83.93
711.26	83.93
711.445	84.29
711.629	84.29
711.813	84.84
711.998	85.56
712.182	85.4
712.366	86.17
712.551	86.58
712.735	86.23
712.919	86.64
713.103	87.59
713.288	86.86
713.472	87.15
713.656	87.32
713.84	86.94
714.024	86.93
714.208	86.85
714.393	86.76
714.577	87.37
714.761	87.95
714.945	87.9
715.129	88.29
715.313	88.23
715.497	88.22
715.681	87.96
715.865	87.62
716.049	87.86
716.233	88.02
716.417	87.63
716.601	87.55
716.785	87.96
716.968	88
717.152	88.42
717.336	88.93
717.52	89.66
717.704	89.98
717.888	89.87
718.071	90.02
718.255	90.01
718.439	89.66
718.622	89.98
718.806	90.25
718.99	89.88
719.174	90.26
719.357	90.68
719.541	90.39
719.724	90.52
719.908	90.69
720.092	90.07
720.275	89.99
720.459	90.11
720.642	90.06
720.826	89.88
721.009	90.29
721.193	89.85
721.376	89.96
721.559	90.08
721.743	90.96
721.926	91.44
722.11	92.24
722.293	92.63
722.476	92.29
722.66	92.54
722.843	92.07
723.026	91.77
723.21	91.56
723.393	92.79
723.576	92.6
723.759	92.71
723.942	93.39
724.126	92.97
724.309	91.81
724.492	91.85
724.675	92.12
724.858	92.53
725.041	93.19
725.224	94.21
725.407	94.43
725.59	94.38
725.774	93.47
725.957	93.37
726.14	92.94
726.322	92.96
726.505	93.02
726.688	93.26
726.871	93.32
727.054	94
727.237	93.74
727.42	93.85
727.603	94.13
727.786	93.9
727.968	93.67
728.151	93.77
728.334	94.32
728.517	93.97
728.699	94.18
728.882	93.92
729.065	93.52
729.248	93.13
729.43	93.42
729.613	93.57
729.796	93.77
729.978	94.36
730.161	94.29
730.343	94.19
730.526	94.53
730.708	94.37
730.891	94.49
731.073	94.92
731.256	95.65
731.438	96.46
731.621	96.65
731.803	97.02
731.986	96.79
732.168	96.87
732.35	96.32
732.533	96.39
732.715	96.24
732.898	96.65
733.08	96.61
733.262	96.16
733.444	97.04
733.627	97.44
733.809	98
733.991	98.16
734.173	98.54
734.355	97.76
734.538	97.47
734.72	97.31
734.902	97.7
735.084	97.81
735.266	98.8
735.448	98.95
735.63	99.09
735.812	98.39
735.994	98.03
736.176	97.99
736.358	97.9
736.54	98.06
736.722	97.74
736.904	98.36
737.086	98
737.268	98.66
737.45	98.91
737.632	98.86
737.814	98.51
737.995	98.59
738.177	97.95
738.359	97.72
738.541	98.01
738.723	98.36
738.904	98.82
739.086	100.3
739.268	100.27
739.449	100.82
739.631	100.72
739.813	100.18
739.994	99.01
740.176	99.26
740.358	99.96
740.539	99.55
740.721	100.3
740.902	100.37
741.084	99.99
741.265	99.33
741.447	100.86
741.628	100.05
741.81	100.3
741.991	100.71
742.172	100.41
742.354	99.97
742.535	100.58
742.717	99.44
742.898	99.38
743.079	100.42
743.261	100.48
743.442	99.08
743.623	100.44
743.804	99.82
743.986	99.64
744.167	98.89
744.348	98.76
744.529	97.63
744.71	98.16
744.891	96.93
745.073	97.45
745.254	98.71
745.435	99.5
745.616	99.18
745.797	98.71
745.978	97.88
746.159	97.15
746.34	97.29
746.521	97.65
746.702	99.43
746.883	99.92
747.064	101.08
747.245	100.61
747.426	101.21
747.606	99.85
747.787	99.86
747.968	99.07
748.149	98.21
748.33	96.64
748.51	96.18
748.691	95.68
748.872	96.91
749.053	97.36
749.233	97.85
749.414	99.46
749.595	100.4
749.775	98.71
749.956	98.43
750.137	98.57
750.317	96.95
750.498	97.44
750.678	97.64
750.859	99
751.04	98.57
751.22	98.81
751.4	98.14
751.581	97.88
751.761	98.1
751.942	99.07
752.122	99.13
752.303	99.37
752.483	99.69
752.663	99.05
752.844	97.4
753.024	98.76
753.204	98.38
753.385	98.2
753.565	97.75
753.745	98.02
753.925	96.69
754.106	97.17
754.286	97.83
754.466	98.37
754.646	98.62
754.826	99.76
755.006	98.37
755.187	98.2
755.367	97.16
755.547	97.53
755.727	97.67
755.907	98.1
756.087	97.2
756.267	96.98
756.447	97
756.627	96.12
756.807	97.56
756.987	97.33
757.167	97.29
757.346	96.81
757.526	97.26
757.706	95.13
757.886	96.04
758.066	97.76
758.246	96.52
758.425	94.8
758.605	94.77
758.785	94.02
758.965	94.33
759.144	94.82
759.324	96.56
759.504	97.49
759.683	97.53
759.863	97.39
760.043	97.65
760.222	97.27
760.402	96.4
760.581	96.51
760.761	95.5
760.94	96.02
761.12	95
761.299	96.41
761.479	96.58
761.658	96.25
761.838	95.93
762.017	97.04
762.197	93.78
762.376	93.37
762.555	93.6
762.735	92.5
762.914	90.94
763.093	92.75
763.273	93.5
763.452	92.43
763.631	92.46
763.81	92.97
763.99	92.58
764.169	91.19
764.348	91.12
764.527	91.21
764.706	90.94
764.885	93.33
765.064	94.12
765.243	94.12
765.423	95.52
765.602	96.69
765.781	93.91
765.96	93.87
766.139	94.6
766.318	95.18
766.497	94.19
766.676	92.95
766.854	93.32
767.033	93.38
767.212	93.45
767.391	95.19
767.57	99.15
767.749	97.34
767.928	98.25
768.106	96.53
768.285	94.71
768.464	94.07
768.643	94.91
768.821	92.78
769	94.37
769.179	94.52
769.357	93.47
769.536	92.8
769.715	91.38
769.893	89.96
770.072	88.95
770.25	89.36
770.429	90.21
770.607	93.19
770.786	93.13
770.964	93.88
771.143	94.05
771.321	92.41
771.5	92.15
771.678	91.51
771.857	90.83
772.035	92.16
772.213	92.39
772.392	90.39
772.57	91.19
772.748	89.7
772.927	86.92
773.105	88.76
773.283	89.87
773.461	91.27
773.64	93.07
773.818	94.25
773.996	93.93
774.174	93.85
774.352	91.09
774.531	91.35
774.709	89.85
774.887	87.65
775.065	87.1
775.243	87.66
775.421	86.56
775.599	87.58
775.777	88.76
775.955	89.17
776.133	90.33
776.311	90.9
776.489	91.27
776.667	91.23
776.844	92.46
777.022	91.69
777.2	92.64
777.378	90.28
777.556	91.16
777.734	90.61
777.911	92.48
778.089	92.22
778.267	95.13
778.445	98
778.622	97.88
778.8	92.82
778.978	93.55
779.155	92.2
779.333	90.2
779.511	89.57
779.688	92.73
779.866	91.16
780.043	91.09
780.221	89.56
780.398	87.5
780.576	87.41
780.753	86.6
780.931	88.04
781.108	91.97
781.286	96.7
781.463	94.13
781.64	94.91
781.818	94.87
781.995	91.76
782.172	88.83
782.35	91.04
782.527	89.09
782.704	86.5
782.882	82.71
783.059	81.32
783.236	81.03
783.413	83.47
783.59	85.06
783.768	86.38
783.945	86.82
784.122	87.04
784.299	87.42
784.476	83.45
784.653	83.9
784.83	82.77
785.007	80.45
785.184	79.67
785.361	81.65
785.538	81.96
785.715	86.01
785.892	88
786.069	90.94
786.246	94.16
786.423	93.15
786.6	91.93
786.776	92.23
786.953	85.91
787.13	84.39
787.307	82.83
787.484	78.67
787.66	75.58
787.837	77.94
788.014	77.54
788.191	77.86
788.367	80.34
788.544	80.27
788.721	78.45
788.897	79.8
789.074	83.47
789.25	82.04
789.427	81.03
789.603	81.28
789.78	79.95
789.956	76.09
790.133	76.04
790.309	78.53
790.486	81.51
790.662	78.69
790.839	79.5
791.015	81.19
791.192	81.3
791.368	81.86
791.544	86.05
791.721	85.22
791.897	81.65
792.073	81.43
792.249	77.82
792.426	74.41
792.602	78.79
792.778	81.06
792.954	79.48
793.13	80.21
793.307	82.48
793.483	77.53
793.659	81.16
793.835	87
794.011	90.19
794.187	89.36
794.363	90.59
794.539	90.86
794.715	87.58
794.891	85.88
795.067	83.86
795.243	84.65
795.419	79.92
795.595	82.88
795.771	82.18
795.947	85.61
796.122	80.64
796.298	81.81
796.474	84.05
796.65	84.04
796.826	80.88
797.001	83.53
797.177	77.83
797.353	72.67
797.529	78.16
797.704	82.44
797.88	81.31
798.056	83.29
798.231	82.1
798.407	79.36
798.582	75.57
798.758	80.26
798.934	84.66
799.109	88.1
799.285	80.76
799.46	80.64
799.636	81.08
799.811	82.87
799.986	78.72
800.162	81.19
800.337	89.13
800.513	84.67
800.688	77.75
800.863	86.05
801.039	85.36
801.214	74.82
801.389	76.88
801.565	77.78
801.74	68.32
801.915	68.67
802.09	68.92
802.265	66.72
802.441	66.02
802.616	67.09
802.791	71.43
802.966	73.56
803.141	72.49
803.316	78.14
803.491	79.95
803.666	76.97
803.841	74.84
804.016	81.12
804.191	75.13
804.366	73.73
804.541	73.24
804.716	73.62
804.891	71.52
805.066	73.63
805.241	72.46
805.416	76.89
805.591	81.43
805.765	89.52
805.94	87.22
806.115	81.87
806.29	78.67
806.464	76.23
806.639	65.3
806.814	65.73
806.989	68.41
807.163	75.7
807.338	74.87
807.512	78.63
807.687	84.38
807.862	85.59
808.036	81.82
808.211	83.74
808.385	87.76
808.56	88.2
808.734	86.03
808.909	86.01
809.083	91.34
809.258	88.51
809.432	79.53
809.606	80.24
809.781	75.05
809.955	72.14
810.13	70.75
810.304	72.05
810.478	74.81
810.652	69.24
810.827	63.38
811.001	62.82
811.175	64.51
811.349	62.46
811.524	67.02
811.698	67.31
811.872	65.84
812.046	64.93
812.22	65.83
812.394	62.52
812.568	64.72
812.742	66.2
812.916	67.89
813.09	63.03
813.264	61.65
813.438	62.68
813.612	58.44
813.786	55.3
813.96	65.45
814.134	68.16
814.308	74.73
814.482	78.33
814.656	81.74
814.83	77.42
815.003	90.96
815.177	78.95
815.351	84.05
815.525	87.98
815.698	81.86
815.872	61.2
816.046	63.34
816.219	65.85
816.393	60.46
816.567	58.73
816.74	64.27
816.914	70.6
817.088	61.83
817.261	59.16
817.435	68.73
817.608	66.56
817.782	58.68
817.955	65.68
818.129	76.93
818.302	85.02
818.475	88.54
818.649	89.6
818.822	86.44
818.996	89.58
819.169	74.12
819.342	75.16
819.516	77.61
819.689	76.34
819.862	67.93
820.035	74.58
820.209	69.77
820.382	60.71
820.555	61.1
820.728	59.59
820.901	50.03
821.075	55.97
821.248	72.95
821.421	66.45
821.594	65.1
821.767	72.96
821.94	79.6
822.113	65.84
822.286	71.58
822.459	81.71
822.632	86.21
822.805	78.26
822.978	83.74
823.151	79.15
823.324	62.28
823.496	46.81
823.669	54.31
823.842	58.87
824.015	65.02
824.188	65.94
824.361	75.31
824.533	63.72
824.706	62.47
824.879	61.7
825.051	77.42
825.224	76.68
825.397	75.17
825.569	64.94
825.742	68.49
825.915	62.34
826.087	47.24
826.26	46.74
826.432	55.69
826.605	43.77
826.777	41.92
826.95	51.99
827.122	42.67
827.295	40.75
827.467	41.63
827.64	35.79
827.812	18.11
827.984	41.98
828.157	33.98
828.329	57.4
828.501	44.33
828.674	65.77
828.846	59.07
829.018	73.72
829.19	55.96
829.363	71.18
829.535	74.01
829.707	74.31
829.879	56.63
830.051	69.3
830.223	59.49
830.395	41.48
830.568	44.83
830.74	52.78
830.912	46.61
831.084	42.92
831.256	46.18
831.428	38.23
831.6	26.66
831.772	22.58
831.943	8.43
832.115	17.86
832.287	25.33
832.459	28.62
832.631	42.9
832.803	63.62
832.975	52.42
833.146	51.68
833.318	54.79
833.49	51.42
833.662	48.48
833.833	57.96
834.005	54.24
834.177	56.35
834.348	43.66
834.52	39.44
834.692	28.59
834.863	41.36
835.035	51.82
835.206	61.71
835.378	63.85
835.549	82.43
835.721	60.97
835.892	50.42
836.064	50.26
836.235	55.31
836.407	43.19
836.578	59.29
836.749	48.43
836.921	42.43
837.092	18.41
837.264	25.01
837.435	10.62
837.606	35.13
837.777	41.42
837.949	64.53
838.12	55.1
838.291	62.6
838.462	71.37
838.633	69.34
838.805	44.25
838.976	46.3
839.147	39.92
839.318	16.72
839.489	13.64
839.66	37.64
839.831	31.33
840.002	34.6
840.173	48.84
840.344	47.47
840.515	37.96
840.686	50.88
840.857	38.27
841.028	33.69
841.199	39.03
841.369	35.51
841.54	39.2
841.711	76.28
841.882	91.43
842.053	64.65
842.223	82.52
842.394	66.84
842.565	46.86
842.736	43.94
842.906	53.33
843.077	53.29
843.248	53.45
843.418	57.32
843.589	42.38
843.759	42.35
843.93	45.02
844.101	38.89
844.271	40.46
844.442	41.6
844.612	59.49
844.783	42.29
844.953	43.23
845.123	42.5
845.294	58.01
845.464	31.02
845.635	33.92
845.805	50.92
845.975	73.26
846.146	35.07
846.316	49.17
846.486	66.47
846.656	69.72
846.827	56.87
846.997	63.92
847.167	44.2
847.337	24.93
847.507	28.25
847.677	34.79
847.848	53.64
848.018	76.41
848.188	92.89
848.358	87.22
848.528	76.84
848.698	44.5
848.868	30.2
849.038	20.28
849.208	17.71
849.378	35.17
849.548	26.96
849.718	21.39
849.887	22.31
850.057	27.77
850.227	36.45
850.397	52.46
850.567	25.32
850.737	46.37
850.906	21.25
851.076	-15.47
851.246	-26.2
851.415	-4.95
851.585	-7.87
851.755	28.5
851.924	30.83
852.094	2.14
852.264	-19.32
852.433	-54.27
852.603	-84.74
852.772	-58.26
852.942	11.52
853.111	26.27
853.281	47.44
853.45	35.93
853.62	31.89
853.789	12.73
853.959	28.07
854.128	34.91
854.297	40.89
854.467	31.84
854.636	25.22
854.805	19.55
854.975	11.42
855.144	9.26
855.313	21.51
855.482	46.67
855.652	51.52
855.821	48.3
855.99	60.15
856.159	57.9
856.328	109.41
856.497	77.61
856.667	83.32
856.836	93.42
857.005	87.44
857.174	53.76
857.343	45.13
857.512	39.67
857.681	-0.55
857.85	18.42
858.019	-36.63
858.188	-14.32
858.356	11.11
858.525	16.29
858.694	41.52
858.863	38.3
859.032	27.64
859.201	-0.23
859.369	-13.48
859.538	-21.95
859.707	-22.09
859.876	5.34
860.044	22.02
860.213	39.31
860.382	46.97
860.55	42.39
860.719	47.89
860.888	43.39
861.056	20.45
861.225	-20.22
861.393	7.3
861.562	-13.38
861.73	-1.29
861.899	-1.34
862.067	1.07
862.236	-6.49
862.404	-1.08
862.572	-32.83
862.741	-31.11
862.909	-20.31
863.078	-18.9
863.246	-3.87
863.414	11.24
863.582	32.28
863.751	15.46
863.919	26.13
864.087	27.99
864.255	59.1
864.424	16.92
864.592	48.13
864.76	60.79
864.928	61.84
865.096	32.31
865.264	34.1
865.432	26.84
865.6	18.06
865.768	-2.63
865.936	5.49
866.104	3.04
866.272	-63.37
866.44	-87.77
866.608	-65.15
866.776	-54.73
866.944	-34.93
867.112	7.74
867.28	21.64
867.448	37.62
867.615	23.16
867.783	20.46
867.951	14.06
868.119	30.94
868.286	54.87
868.454	49.63
868.622	27.54
868.789	36.4
868.957	34.07
869.125	17.21
869.292	15.71
869.46	38.35
869.627	37.14
869.795	11.15
869.963	22.38
870.13	32.94
870.298	13.71
870.465	21.98
870.632	6.81
870.8	30.82
870.967	6.52
871.135	-2.59
871.302	-10.5
871.469	32.02
871.637	-12.97
871.804	24.24
871.971	31.78
872.139	5.44
872.306	-39.38
872.473	-32.62
872.64	-157.45
872.807	-109.98
872.975	-48.7
873.142	-17.5
873.309	-3.43
873.476	55.6
873.643	66.76
873.81	45.25
873.977	66.64
874.144	84.42
874.311	26.65
874.478	-50.61
874.645	-120.44
874.812	-25.61
874.979	-24.32
875.146	-44.56
875.313	-0.75
875.48	62.6
875.647	50.53
875.813	-15
875.98	3.04
876.147	-36.69
876.314	-19.59
876.481	0.22
876.647	36.84
876.814	20.47
876.981	47.52
877.147	34.99
877.314	43.48
877.481	67.68
877.647	76.57
877.814	78.71
877.98	80.35
878.147	71.19
878.314	83.07
878.48	103.03
878.647	68.12
878.813	51.2
878.979	50.82
879.146	30.74
879.312	11.95
879.479	52.2
879.645	72.88
879.811	47.69
879.978	48.05
880.144	56.19
880.31	44.72
880.477	51.27
880.643	53.56
880.809	48.5
880.975	22.56
881.142	-7.22
881.308	202.96
881.474	258.67
881.64	16.92
881.806	16.81
881.972	3.7
882.138	30.45
882.304	42.49
882.47	-2.98
882.636	-17.28
882.802	6.69
882.968	-59.9
883.134	-25.5
883.3	-1.37
883.466	10.72
883.632	-8.65
883.798	47.11
883.964	29.8
884.129	-344.1
884.295	55.03
884.461	46.47
884.627	20.63
884.793	-8.13
884.958	30.21
885.124	35.18
885.29	19.27
885.455	61.74
885.621	124.25
885.787	94.98
885.952	34.37
886.118	49.03
886.283	27.52
886.449	6.57
886.614	-12.47
886.78	26.54
886.945	3.46
887.111	-10.29
887.276	-46.59
887.442	-106.06
887.607	-114.37
887.773	-76.05
887.938	-43.67
888.103	-14.08
888.269	25.92
888.434	13.96
888.599	20.48
888.764	25.61
888.93	33.82
889.095	14.17
889.26	18.26
889.425	22.65
889.59	5.31
889.756	-16.23
889.921	-27.91
890.086	-37.4
890.251	-26.28
890.416	-34.86
890.581	-54.54
890.746	22.94
890.911	21.67
891.076	17.02
891.241	35.56
891.406	28.29
891.571	20.82
891.736	-52.85
891.901	21.08
892.065	35.62
892.23	52.42
892.395	25.03
892.56	-0.26
892.725	-92.41
892.889	-152.96
893.054	-103.66
893.219	-81.04
893.384	1.03
893.548	30.27
893.713	-0.31
893.878	60.97
