Data from Ofra_PS_T2_1A_2CX10_Reflection_2.txt Node
Date: Wed Jul 21 17:50:27 EDT 2021
User: Adam
Spectrometer: FLMT01687
Trigger mode: 0
Integration Time (sec): 1.100000E0
Scans to average: 2
Electric dark correction enabled: true
Nonlinearity correction enabled: false
Boxcar width: 2
XAxis mode: Wavelengths
Number of Pixels in Spectrum: 3648
>>>>>Begin Spectral Data<<<<<
179.494	611.2
179.716	707.06
179.937	646.77
180.158	655
180.38	895
180.601	225.97
180.823	24.04
181.044	-111.85
181.265	-87.5
181.486	34.85
181.708	76.44
181.929	908.16
182.15	-440.85
182.372	69.59
182.593	-41.11
182.814	-23.92
183.035	56.7
183.257	49.93
183.478	15.74
183.699	71.97
183.92	33.38
184.141	50.71
184.363	17.23
184.584	44.37
184.805	14.68
185.026	58.32
185.247	56.59
185.468	22.47
185.689	21.56
185.91	55.79
186.132	45.4
186.353	11.86
186.574	67.31
186.795	51.9
187.016	-30.01
187.237	-25.33
187.458	-55.5
187.679	-45.21
187.9	-29.85
188.121	-7.04
188.342	-21.22
188.563	40.67
188.784	59.44
189.005	52.36
189.226	100
189.447	54.47
189.667	-151.94
189.888	-367
190.109	-1458.44
190.33	-894.84
190.551	-1309.73
190.772	-236.32
190.993	-171.36
191.214	-121.4
191.434	-63.26
191.655	22.33
191.876	-37.48
192.097	-117.13
192.318	-183.4
192.538	-285.34
192.759	-187.96
192.98	-89.28
193.201	-4.63
193.421	17.23
193.642	18.9
193.863	33.9
194.083	22.56
194.304	-0.45
194.525	1.97
194.745	21.67
194.966	-24.45
195.187	-33.82
195.407	-65.42
195.628	-149.04
195.848	-145.08
196.069	-189.77
196.29	-125.6
196.51	-115.91
196.731	-107.11
196.951	-139.71
197.172	-121.15
197.392	-163.46
197.613	-155.04
197.833	-151.59
198.054	-131.68
198.274	-88.67
198.495	-89.42
198.715	-47.48
198.936	-72.33
199.156	-62.01
199.377	-138.56
199.597	-135.18
199.817	-129.23
200.038	-40.59
200.258	-81.19
200.479	-18.63
200.699	-2.3
200.919	19.2
201.14	-24.71
201.36	-30.49
201.58	9.5
201.801	40.06
202.021	-6.52
202.241	-10.09
202.461	-11.05
202.682	-107.34
202.902	-215.16
203.122	-107.11
203.342	-80.06
203.563	-33.99
203.783	2.19
204.003	-36.69
204.223	-42.64
204.443	21.47
204.663	-1.74
204.884	9.33
205.104	77.44
205.324	84.21
205.544	69.27
205.764	79.59
205.984	68.33
206.204	69.05
206.424	54.36
206.644	26.4
206.864	24.47
207.084	-5.04
207.304	-35.73
207.525	-160.63
207.745	-73.36
207.964	-30.9
208.184	-69.65
208.404	-111.87
208.624	-121.84
208.844	-128.27
209.064	-448.85
209.284	-434.72
209.504	-232.65
209.724	-51.46
209.944	-37.76
210.164	10.73
210.384	22.6
210.604	18.26
210.823	-23.08
211.043	-34.29
211.263	-38.84
211.483	-45.85
211.703	-96.32
211.922	-93.31
212.142	-14.27
212.362	8.64
212.582	-8.7
212.801	14.11
213.021	2.28
213.241	-39.06
213.461	-95.93
213.68	-110.17
213.9	-90.61
214.12	-43.05
214.339	-97.88
214.559	-77.17
214.779	-18.53
214.998	-48.77
215.218	-122.77
215.438	-64.05
215.657	-76.06
215.877	-90.12
216.096	-19.69
216.316	-8.07
216.535	-32.66
216.755	-15.31
216.974	-95.94
217.194	-195.18
217.413	-143.94
217.633	-147.9
217.852	-242.61
218.072	-119.56
218.291	-47.16
218.511	-19.54
218.73	-24.29
218.95	-17.71
219.169	-11.7
219.389	-50.61
219.608	-43.21
219.827	-31.24
220.047	-36.34
220.266	-19.3
220.485	-17.04
220.705	-3.14
220.924	-30.45
221.143	23.92
221.363	-2.39
221.582	28.02
221.801	20.82
222.021	39.83
222.24	-68.02
222.459	-37.35
222.678	-96.31
222.897	-146.36
223.117	-169.34
223.336	-109.34
223.555	-74.04
223.774	-22.57
223.993	-20.79
224.213	34.24
224.432	13.55
224.651	64.34
224.87	18.49
225.089	38.62
225.308	15.19
225.527	37.56
225.746	9.72
225.965	11.48
226.184	-3.27
226.404	18.4
226.623	-17.09
226.842	-11.89
227.061	17.25
227.28	13.26
227.499	-3.7
227.718	18.1
227.936	25.13
228.155	23.69
228.374	3.2
228.593	9.93
228.812	16.72
229.031	-5.08
229.25	-61.3
229.469	-62.95
229.688	-44.89
229.907	-32.75
230.125	-15.76
230.344	17.36
230.563	50.16
230.782	44.84
231.001	-16.03
231.22	-20.37
231.438	-9.64
231.657	-10.22
231.876	-30.24
232.095	20.39
232.313	23.01
232.532	6.64
232.751	-40.39
232.969	-31.08
233.188	-92.82
233.407	-23.14
233.625	-19.55
233.844	-31.25
234.063	-21.76
234.281	1.24
234.5	-17.42
234.719	-6.31
234.937	18.95
235.156	30.22
235.374	24.43
235.593	18.39
235.811	4.5
236.03	-6.35
236.249	-59.85
236.467	-41.3
236.686	-4.76
236.904	17.19
237.123	-5.79
237.341	-0.49
237.559	-0.31
237.778	-32.1
237.996	-78.06
238.215	-17.82
238.433	4.33
238.652	12.88
238.87	3.84
239.088	32.21
239.307	20.25
239.525	19.57
239.743	-25.25
239.962	-3.71
240.18	-30.52
240.398	-57.83
240.617	-82.89
240.835	-52.33
241.053	-13.25
241.271	37.89
241.49	46.05
241.708	53.06
241.926	62.26
242.144	16.18
242.363	-66.63
242.581	-106.79
242.799	-64.47
243.017	-36.56
243.235	-46.84
243.453	-15.85
243.672	-6.04
243.89	-18.35
244.108	-33.3
244.326	-9.41
244.544	-10.7
244.762	-27.35
244.98	-16.96
245.198	-20
245.416	-51.8
245.634	-52.81
245.852	-63.44
246.07	-84.11
246.288	-74.18
246.506	-91.45
246.724	-78.21
246.942	-61.17
247.16	-4.05
247.378	26.61
247.596	52.68
247.814	60.54
248.032	35.07
248.25	3.98
248.468	-6.07
248.685	-3.83
248.903	26.02
249.121	32.76
249.339	13.12
249.557	6.91
249.775	7.51
249.992	-72.69
250.21	-64.88
250.428	-39.71
250.646	-70.96
250.863	-94.64
251.081	-66.23
251.299	-35.89
251.517	-27.09
251.734	-4.2
251.952	-2.84
252.17	8.28
252.387	15.92
252.605	-0.05
252.823	-3.83
253.04	10.73
253.258	17.01
253.475	-22.76
253.693	-0.27
253.911	12.56
254.128	20.36
254.346	22.52
254.563	17.2
254.781	-9.87
254.998	-37.52
255.216	-38.86
255.433	-44.66
255.651	-10.44
255.868	13.1
256.086	51.81
256.303	13.73
256.521	11.04
256.738	-8.98
256.956	-27.44
257.173	-50.89
257.39	-52.7
257.608	-60.86
257.825	5.38
258.043	43.12
258.26	39.75
258.477	86.46
258.695	90.25
258.912	29.44
259.129	21.1
259.346	-15.16
259.564	-74.04
259.781	-99.9
259.998	-14.43
260.216	11.86
260.433	52.06
260.65	54.08
260.867	58.22
261.084	8.85
261.302	-18.88
261.519	-41.66
261.736	-55.7
261.953	-72.06
262.17	-36.9
262.387	-77.76
262.604	-98.1
262.822	-106.36
263.039	-82.37
263.256	-125.71
263.473	-48.74
263.69	-32.26
263.907	7.21
264.124	22.33
264.341	18.81
264.558	0.1
264.775	19.6
264.992	-1.69
265.209	-9.52
265.426	25.63
265.643	19.93
265.86	26.35
266.077	43.79
266.294	17.64
266.51	-37.36
266.727	-33.2
266.944	-37.25
267.161	-61.27
267.378	-46.87
267.595	-18.11
267.812	-53.79
268.028	-82.28
268.245	-43.53
268.462	-53.08
268.679	-52.89
268.896	13.94
269.112	30.4
269.329	11.86
269.546	22.41
269.763	5.09
269.979	-17.4
270.196	-27.33
270.413	-43.4
270.629	-62.35
270.846	-53.38
271.063	-48.46
271.279	-69.05
271.496	-58.23
271.712	-10.89
271.929	4.33
272.146	-17.13
272.362	12.73
272.579	43.34
272.795	36.07
273.012	29.6
273.228	43.85
273.445	17.11
273.661	-18.72
273.878	-63.69
274.094	-45.31
274.311	-71.43
274.527	-4.5
274.744	1.84
274.96	3.51
275.177	8.53
275.393	28.75
275.609	19.5
275.826	35.68
276.042	34.21
276.259	33.09
276.475	49.17
276.691	50.13
276.908	22.93
277.124	30.56
277.34	21.58
277.557	-4.83
277.773	-15.38
277.989	-16.09
278.205	-12.89
278.422	-14.39
278.638	-2.52
278.854	23.07
279.07	24.51
279.286	12.32
279.503	-0.51
279.719	-14.18
279.935	-50.22
280.151	-51.71
280.367	-18.07
280.583	-36.3
280.799	-33.29
281.016	-56.86
281.232	-23.8
281.448	-28.76
281.664	22.12
281.88	-0.08
282.096	4.23
282.312	40.36
282.528	63.27
282.744	55.89
282.96	64.84
283.176	55.92
283.392	32.25
283.608	15.95
283.824	3.69
284.04	6.75
284.256	15.55
284.471	-5.86
284.687	-21.76
284.903	-2.34
285.119	14.91
285.335	-20.28
285.551	-7.65
285.767	-9.15
285.982	-34.71
286.198	-74.11
286.414	15.5
286.63	20.09
286.846	43.22
287.061	24.78
287.277	54.74
287.493	14.82
287.709	24.65
287.924	4.29
288.14	53.17
288.356	38.94
288.571	49.83
288.787	40.44
289.003	40.8
289.218	14.6
289.434	-25.18
289.65	-3.86
289.865	-20.24
290.081	6.56
290.296	10.24
290.512	17.79
290.727	-24.45
290.943	-30.47
291.159	-43.55
291.374	-37.36
291.59	-47.89
291.805	-23.36
292.021	-2.89
292.236	0.29
292.451	10.22
292.667	21.92
292.882	34.2
293.098	21.34
293.313	8.51
293.529	-20.14
293.744	-33.67
293.959	-59.72
294.175	-40.88
294.39	-6.06
294.605	11
294.821	25.32
295.036	36.21
295.251	29.58
295.467	-7.01
295.682	-16.96
295.897	-45.73
296.112	-65.1
296.328	-58.74
296.543	-66.8
296.758	-82.11
296.973	-41.5
297.188	10.53
297.404	-15.4
297.619	-12.23
297.834	-16.5
298.049	-23.68
298.264	-62.27
298.479	-12.99
298.694	-13.05
298.909	15.07
299.125	12.56
299.34	17.43
299.555	-11.97
299.77	10.39
299.985	-46.43
300.2	-110.81
300.415	-127.6
300.63	-70.81
300.845	-79.93
301.06	-81.05
301.275	-27.37
301.49	-6.11
301.704	-39.46
301.919	-51.72
302.134	-50
302.349	-54.52
302.564	-125
302.779	-159.29
302.994	-93.73
303.209	-37.07
303.423	10.93
303.638	59.29
303.853	40.04
304.068	10.13
304.283	4.41
304.497	-9.37
304.712	-25.33
304.927	-9.22
305.142	-7.61
305.356	-7.33
305.571	-15.92
305.786	-29.14
306	-49.9
306.215	-39.57
306.43	-64.3
306.644	-38.6
306.859	22.62
307.074	47.61
307.288	-9.33
307.503	18.3
307.717	-1.39
307.932	-9.82
308.147	-21.61
308.361	13.49
308.576	-18.38
308.79	-53.86
309.005	-53.07
309.219	-41.38
309.434	-55.1
309.648	-35.93
309.863	-12.95
310.077	-18.56
310.292	-15.56
310.506	-8.87
310.72	1.86
310.935	-0.54
311.149	-9.66
311.364	22.57
311.578	43.93
311.792	32.26
312.007	43.96
312.221	43.19
312.435	26.97
312.649	-8.2
312.864	32.63
313.078	41.27
313.292	86.53
313.507	46.89
313.721	98.78
313.935	32.98
314.149	17.96
314.363	11.71
314.578	19.39
314.792	10.38
315.006	6.29
315.22	19.74
315.434	18.57
315.648	24.19
315.862	24.89
316.077	24.29
316.291	13.61
316.505	21.97
316.719	20.69
316.933	-2.03
317.147	-12.6
317.361	-88.65
317.575	-95.47
317.789	-145.61
318.003	-196.56
318.217	-161.55
318.431	-51.76
318.645	-14.22
318.859	-6.39
319.073	20.42
319.287	11.72
319.5	-13.61
319.714	-64.95
319.928	-105.62
320.142	-153.39
320.356	-104.45
320.57	-66.9
320.784	-61.66
320.997	-41.66
321.211	-17.14
321.425	-79.35
321.639	-110.68
321.853	-53.55
322.066	-31.02
322.28	-27.94
322.494	-13.45
322.707	15.32
322.921	-8.44
323.135	-10.59
323.349	-3.02
323.562	-24.95
323.776	-46.94
323.989	-29.11
324.203	-49.6
324.417	-60.55
324.63	-71.52
324.844	-70.11
325.057	-74.6
325.271	-34.39
325.485	-4.92
325.698	22.28
325.912	42.42
326.125	10.78
326.339	-2.17
326.552	-24.09
326.766	-20.98
326.979	-20.19
327.193	37.81
327.406	24.35
327.619	17.28
327.833	18.25
328.046	-9.01
328.26	-54.13
328.473	-19.68
328.686	-77.07
328.9	-54.39
329.113	-14.48
329.326	-38.58
329.54	-27.79
329.753	4.55
329.966	-27.37
330.179	-48.78
330.393	-13.13
330.606	-3.52
330.819	11.63
331.032	18.73
331.246	19.64
331.459	41.95
331.672	19.12
331.885	12.63
332.098	-15.71
332.311	-32.02
332.525	-102.21
332.738	-73.97
332.951	-45.86
333.164	1.7
333.377	19.32
333.59	51.23
333.803	44.22
334.016	31.11
334.229	20.59
334.442	18.2
334.655	11.9
334.868	24.79
335.081	20.67
335.294	9.2
335.507	0.91
335.72	-13.84
335.933	-20.03
336.146	-25.17
336.359	-10.27
336.572	-30.58
336.785	-54.08
336.997	-67.7
337.21	-35.71
337.423	-53.75
337.636	-52.64
337.849	-17.59
338.062	-21.02
338.274	-16.88
338.487	-26.16
338.7	-20.6
338.913	-74.4
339.125	-88.71
339.338	-142.84
339.551	-92.84
339.763	-54.5
339.976	-23.12
340.189	9.72
340.402	27.09
340.614	6.34
340.827	-2.61
341.039	-10.8
341.252	-16.18
341.465	-11.5
341.677	-11.44
341.89	-65.73
342.102	-26.29
342.315	-45.32
342.527	-87.88
342.74	-67.05
342.952	-6.71
343.165	-16.11
343.377	14.53
343.59	24.75
343.802	28.64
344.015	28.9
344.227	46.34
344.44	31.05
344.652	14.26
344.864	1.17
345.077	17.16
345.289	14.98
345.502	17.04
345.714	15.85
345.926	25.55
346.139	11.77
346.351	12.41
346.563	21.4
346.775	25.48
346.988	15.59
347.2	10.38
347.412	-37.77
347.624	-53.89
347.837	-65.44
348.049	-32.17
348.261	-4.58
348.473	9.44
348.685	-0.84
348.897	-14.55
349.11	-28.84
349.322	-60.26
349.534	-27.16
349.746	-24.38
349.958	0.37
350.17	-8.99
350.382	21.75
350.594	10.52
350.806	10.32
351.018	-6.21
351.23	-25.29
351.442	-84.62
351.654	-96.41
351.866	-65.54
352.078	-38.2
352.29	-13.54
352.502	-2.39
352.714	7.64
352.926	-17.2
353.138	-16.2
353.35	-15.86
353.561	-18.02
353.773	-33.17
353.985	-7.13
354.197	-7.4
354.409	-17.4
354.621	-21.1
354.832	-13.1
355.044	-33.35
355.256	-47.24
355.468	-27.41
355.679	-29.76
355.891	-29.15
356.103	-22.11
356.314	-11.71
356.526	-2.42
356.738	17.46
356.949	9.56
357.161	0.83
357.373	13.32
357.584	-9.13
357.796	-5.57
358.008	-0.97
358.219	26.86
358.431	15.19
358.642	26.37
358.854	25.46
359.065	5.17
359.277	-34.66
359.488	-50.84
359.7	-74.73
359.911	-85.43
360.123	-45.18
360.334	-47.14
360.546	-46.25
360.757	-46.33
360.969	-35.58
361.18	-38.53
361.391	-23.59
361.603	-23.05
361.814	-21.54
362.025	-34.55
362.237	-38.07
362.448	-26.4
362.659	-5.65
362.871	-7.18
363.082	0.52
363.293	-7.54
363.504	-35.86
363.716	-64.94
363.927	-67.65
364.138	-92.86
364.349	-99.94
364.56	-68.82
364.772	-59.52
364.983	-17.86
365.194	-5.47
365.405	3.67
365.616	22.43
365.827	25.55
366.038	-21.19
366.25	-33.89
366.461	-61.54
366.672	-49.57
366.883	-14.13
367.094	2.81
367.305	-6.21
367.516	9.69
367.727	-23.72
367.938	-45.78
368.149	-53.98
368.36	-25.61
368.571	-21.22
368.781	-29.47
368.992	-44.41
369.203	-53.12
369.414	-81.02
369.625	-98.68
369.836	-85.57
370.047	-98.07
370.258	-79.07
370.468	-74.04
370.679	-88.7
370.89	-76.09
371.101	-48.36
371.312	-41.65
371.522	-29.15
371.733	-5.53
371.944	-1.65
372.155	7.56
372.365	-8.33
372.576	-15.16
372.787	-25.56
372.997	-35.62
373.208	-49.2
373.419	-22.03
373.629	-37.34
373.84	-36.77
374.05	-55.34
374.261	-29.13
374.472	-59.71
374.682	-14.16
374.893	-10.49
375.103	37.33
375.314	19.28
375.524	22.09
375.735	26.38
375.945	31.3
376.156	-2.78
376.366	6.04
376.577	15.15
376.787	-6.43
376.997	-10.99
377.208	-6.51
377.418	-23.07
377.629	-14.82
377.839	-17.62
378.049	-10.93
378.26	5.18
378.47	18.02
378.68	11.33
378.89	10.82
379.101	4.05
379.311	-25.47
379.521	-57.53
379.732	-69.65
379.942	-65.9
380.152	-74.75
380.362	-38.09
380.572	-31.72
380.783	-14.8
380.993	1.29
381.203	13.71
381.413	25.13
381.623	25.74
381.833	15.77
382.043	-2.65
382.253	-12.24
382.463	-27.92
382.674	-35.99
382.884	-53.55
383.094	-46.35
383.304	-34.05
383.514	-19.28
383.724	1.86
383.934	6.7
384.144	0.06
384.353	-11.68
384.563	-16.87
384.773	-21.19
384.983	-26.16
385.193	-5.92
385.403	-0.95
385.613	-4.58
385.823	-15.74
386.033	-11.11
386.242	-19.32
386.452	-23.55
386.662	-29.19
386.872	-13.34
387.082	-15.4
387.291	-24.55
387.501	-15.57
387.711	-6.46
387.921	-15.18
388.13	-12.41
388.34	2.06
388.55	-6.91
388.759	-5.81
388.969	-0.88
389.179	-4.57
389.388	-10.24
389.598	-4.13
389.807	-15.63
390.017	-20.58
390.227	-14.54
390.436	-15.18
390.646	-14.72
390.855	-6.81
391.065	-4.89
391.274	-8.52
391.484	-9.06
391.693	-9.06
391.903	-6.5
392.112	-1.89
392.322	1.14
392.531	4.43
392.74	6.71
392.95	1.02
393.159	-2.79
393.369	-2.78
393.578	-4.02
393.787	-6.68
393.997	-5.8
394.206	-6.33
394.415	-6.36
394.625	-4.93
394.834	-5.44
395.043	-2.73
395.252	1.26
395.462	3.34
395.671	3.76
395.88	3.88
396.089	4.24
396.298	1.04
396.508	-0
396.717	-0.96
396.926	-0.3
397.135	-0.97
397.344	-0.3
397.553	-0.14
397.762	1.76
397.971	1.99
398.181	2.08
398.39	1.4
398.599	1.12
398.808	0.53
399.017	1.6
399.226	3.16
399.435	4.4
399.644	4.93
399.853	4.04
400.062	3.6
400.27	2.91
400.479	2.55
400.688	1.59
400.897	2.03
401.106	2.08
401.315	1.71
401.524	1.63
401.733	2.45
401.941	2.82
402.15	2.91
402.359	2.78
402.568	3.29
402.777	3.33
402.985	3.27
403.194	3.15
403.403	3.48
403.612	2.88
403.82	2.62
404.029	2.6
404.238	2.5
404.446	2.63
404.655	2.51
404.864	2.42
405.072	2.14
405.281	2.26
405.489	1.92
405.698	2.06
405.906	2.25
406.115	2.34
406.324	2.16
406.532	2.28
406.741	2.58
406.949	2.42
407.158	2.51
407.366	2.7
407.574	2.68
407.783	2.63
407.991	2.47
408.2	2.6
408.408	2.55
408.617	2.49
408.825	2.23
409.033	2.43
409.242	2.52
409.45	2.55
409.658	2.43
409.867	2.58
410.075	2.39
410.283	2.1
410.491	1.98
410.7	2.01
410.908	2.07
411.116	2.47
411.324	2.52
411.533	2.43
411.741	2.67
411.949	2.69
412.157	2.4
412.365	2.3
412.573	2.43
412.781	2.41
412.99	2.28
413.198	2.37
413.406	2.54
413.614	2.63
413.822	2.4
414.03	2.25
414.238	2.04
414.446	2.02
414.654	1.65
414.862	1.87
415.07	2.03
415.278	2.39
415.486	2.13
415.694	2.28
415.902	2.05
416.109	1.97
416.317	1.8
416.525	1.72
416.733	1.82
416.941	1.96
417.149	1.93
417.357	1.95
417.564	2.27
417.772	2.48
417.98	2.34
418.188	2.3
418.395	2.39
418.603	2.42
418.811	2.03
419.019	1.99
419.226	2.31
419.434	2.29
419.642	2.08
419.849	2.37
420.057	2.53
420.265	2.31
420.472	1.98
420.68	2.04
420.887	1.7
421.095	1.62
421.302	1.6
421.51	1.95
421.717	2.01
421.925	2.27
422.132	2.25
422.34	1.98
422.547	1.9
422.755	1.83
422.962	1.69
423.17	1.62
423.377	1.85
423.585	1.89
423.792	1.9
423.999	1.9
424.207	1.96
424.414	2.22
424.621	2.2
424.829	2.15
425.036	2.17
425.243	2.27
425.451	1.99
425.658	1.81
425.865	1.94
426.072	1.94
426.28	2.2
426.487	2.18
426.694	2.37
426.901	2.22
427.108	2.19
427.315	1.91
427.523	2.24
427.73	2.1
427.937	2.07
428.144	1.92
428.351	1.96
428.558	1.84
428.765	1.74
428.972	1.67
429.179	1.81
429.386	2.06
429.593	1.91
429.8	1.96
430.007	2.17
430.214	2.38
430.421	2.1
430.628	1.81
430.835	1.78
431.042	1.98
431.249	1.9
431.456	1.92
431.662	2.29
431.869	2.45
432.076	2.34
432.283	2.4
432.49	2.35
432.697	2.3
432.903	1.99
433.11	1.93
433.317	2.04
433.524	2.22
433.73	2.2
433.937	2.72
434.144	2.63
434.35	2.49
434.557	2.24
434.764	2.24
434.97	1.95
435.177	2.2
435.384	2.09
435.59	2.31
435.797	2.46
436.003	2.6
436.21	2.49
436.416	2.61
436.623	2.62
436.829	2.67
437.036	2.72
437.242	2.78
437.449	2.69
437.655	2.63
437.862	2.58
438.068	2.45
438.275	2.46
438.481	2.64
438.687	2.63
438.894	2.65
439.1	2.65
439.307	2.76
439.513	2.69
439.719	2.73
439.926	2.8
440.132	2.82
440.338	2.68
440.544	2.75
440.751	2.65
440.957	2.69
441.163	2.58
441.369	2.62
441.575	2.45
441.782	2.52
441.988	2.3
442.194	2.36
442.4	2.37
442.606	2.79
442.812	2.84
443.018	3
443.224	3.01
443.431	3.15
443.637	2.76
443.843	2.66
444.049	2.63
444.255	2.71
444.461	2.69
444.667	2.7
444.873	2.91
445.079	2.9
445.284	2.91
445.49	2.68
445.696	2.54
445.902	2.43
446.108	2.4
446.314	2.35
446.52	2.38
446.726	2.74
446.931	2.71
447.137	2.78
447.343	2.82
447.549	2.86
447.755	2.69
447.96	2.81
448.166	2.76
448.372	2.77
448.578	2.8
448.783	2.78
448.989	2.83
449.195	3.05
449.4	3.04
449.606	3.09
449.812	3.04
450.017	3.08
450.223	2.91
450.428	2.84
450.634	2.96
450.84	3.12
451.045	3.01
451.251	2.99
451.456	3.28
451.662	3.28
451.867	3.32
452.073	3.29
452.278	3.43
452.483	3.48
452.689	3.39
452.894	3.41
453.1	3.46
453.305	3.32
453.51	3.14
453.716	3.07
453.921	3.03
454.127	2.97
454.332	2.92
454.537	2.81
454.742	2.82
454.948	2.81
455.153	2.89
455.358	3.04
455.563	3.3
455.769	3.47
455.974	3.48
456.179	3.35
456.384	3.34
456.589	3.21
456.795	2.92
457	2.84
457.205	3.12
457.41	3.05
457.615	3.01
457.82	3.16
458.025	3.21
458.23	3.06
458.435	3.12
458.64	3.06
458.845	3.21
459.05	3.24
459.255	3.21
459.46	3.19
459.665	3.25
459.87	3.23
460.075	3.11
460.28	3.1
460.485	3.16
460.69	3.16
460.895	2.98
461.099	2.95
461.304	3.09
461.509	3.16
461.714	3
461.919	3.22
462.123	3.18
462.328	3.17
462.533	3.09
462.738	3.3
462.942	3.12
463.147	3.31
463.352	3.31
463.556	3.34
463.761	3.39
463.966	3.45
464.17	3.39
464.375	3.26
464.58	3.26
464.784	3.14
464.989	3.1
465.193	3.21
465.398	3.31
465.602	3.4
465.807	3.41
466.011	3.51
466.216	3.48
466.42	3.53
466.625	3.58
466.829	3.7
467.034	3.78
467.238	3.98
467.443	3.97
467.647	3.78
467.851	3.86
468.056	3.85
468.26	3.67
468.464	3.67
468.669	3.83
468.873	3.92
469.077	3.89
469.282	3.97
469.486	3.97
469.69	4.04
469.894	3.79
470.099	3.87
470.303	3.94
470.507	3.86
470.711	3.68
470.915	3.74
471.119	3.63
471.324	3.54
471.528	3.61
471.732	3.73
471.936	3.76
472.14	3.87
472.344	3.87
472.548	3.95
472.752	4.08
472.956	4.29
473.16	4.27
473.364	4.19
473.568	4.18
473.772	4.15
473.976	4.05
474.18	3.99
474.384	4.09
474.588	3.98
474.792	3.89
474.995	3.94
475.199	4.1
475.403	4.18
475.607	4.27
475.811	4.23
476.015	4.27
476.218	4.26
476.422	4.17
476.626	4.31
476.83	4.44
477.033	4.28
477.237	4.12
477.441	4.21
477.644	4.16
477.848	4.11
478.052	4.09
478.255	4.15
478.459	4.14
478.663	4.29
478.866	4.35
479.07	4.39
479.273	4.56
479.477	4.62
479.681	4.45
479.884	4.41
480.088	4.43
480.291	4.32
480.495	4.36
480.698	4.41
480.901	4.5
481.105	4.6
481.308	4.57
481.512	4.48
481.715	4.54
481.919	4.52
482.122	4.48
482.325	4.56
482.529	4.61
482.732	4.61
482.935	4.55
483.138	4.51
483.342	4.56
483.545	4.58
483.748	4.58
483.952	4.63
484.155	4.73
484.358	4.72
484.561	4.7
484.764	4.67
484.967	4.71
485.171	4.74
485.374	4.72
485.577	4.82
485.78	4.86
485.983	4.9
486.186	4.8
486.389	4.79
486.592	4.76
486.795	4.82
486.998	4.8
487.201	4.88
487.404	4.96
487.607	5.03
487.81	5.08
488.013	5.14
488.216	5.21
488.419	5.17
488.622	5.13
488.825	5.01
489.028	4.94
489.231	4.89
489.433	4.85
489.636	4.81
489.839	4.87
490.042	4.82
490.245	4.87
490.447	4.98
490.65	5.05
490.853	5.11
491.056	5.29
491.258	5.32
491.461	5.37
491.664	5.48
491.866	5.45
492.069	5.54
492.272	5.5
492.474	5.61
492.677	5.6
492.879	5.73
493.082	5.75
493.285	6
493.487	5.95
493.69	5.94
493.892	5.9
494.095	5.92
494.297	5.84
494.5	5.97
494.702	6.06
494.905	6.15
495.107	6.18
495.309	6.21
495.512	6.22
495.714	6.31
495.917	6.43
496.119	6.47
496.321	6.59
496.524	6.65
496.726	6.69
496.928	6.74
497.13	6.79
497.333	6.84
497.535	6.95
497.737	6.97
497.939	7.03
498.142	7.15
498.344	7.14
498.546	7.09
498.748	7.18
498.95	7.28
499.152	7.27
499.355	7.37
499.557	7.51
499.759	7.66
499.961	7.64
500.163	7.76
500.365	7.81
500.567	7.94
500.769	7.81
500.971	7.82
501.173	7.68
501.375	7.75
501.577	7.59
501.779	7.57
501.981	7.63
502.183	7.71
502.385	7.59
502.587	7.58
502.788	7.72
502.99	7.78
503.192	7.87
503.394	7.9
503.596	7.99
503.798	8.07
503.999	8.13
504.201	8.12
504.403	8.21
504.605	8.17
504.806	8.04
505.008	7.96
505.21	8.04
505.411	8
505.613	8
505.815	8.02
506.016	8.04
506.218	8.01
506.42	8.01
506.621	8.06
506.823	8.04
507.024	7.92
507.226	7.88
507.427	7.8
507.629	7.82
507.83	7.88
508.032	7.9
508.233	7.94
508.435	8.02
508.636	8.03
508.838	7.93
509.039	7.89
509.24	7.83
509.442	7.8
509.643	7.69
509.845	7.7
510.046	7.71
510.247	7.68
510.448	7.67
510.65	7.75
510.851	7.82
511.052	7.86
511.254	7.83
511.455	7.89
511.656	7.87
511.857	7.89
512.058	7.87
512.26	7.84
512.461	7.75
512.662	7.78
512.863	7.59
513.064	7.58
513.265	7.63
513.466	7.64
513.667	7.57
513.868	7.66
514.069	7.71
514.27	7.78
514.471	7.72
514.672	7.77
514.873	7.67
515.074	7.7
515.275	7.52
515.476	7.49
515.677	7.47
515.878	7.7
516.079	7.65
516.28	7.69
516.481	7.84
516.682	7.84
516.882	7.63
517.083	7.61
517.284	7.6
517.485	7.47
517.686	7.42
517.886	7.48
518.087	7.53
518.288	7.59
518.488	7.62
518.689	7.62
518.89	7.56
519.091	7.52
519.291	7.48
519.492	7.48
519.692	7.52
519.893	7.63
520.094	7.62
520.294	7.62
520.495	7.58
520.695	7.6
520.896	7.54
521.096	7.58
521.297	7.63
521.497	7.64
521.698	7.54
521.898	7.56
522.099	7.52
522.299	7.58
522.499	7.62
522.7	7.64
522.9	7.58
523.101	7.67
523.301	7.61
523.501	7.56
523.702	7.61
523.902	7.68
524.102	7.7
524.302	7.62
524.503	7.71
524.703	7.71
524.903	7.73
525.103	7.63
525.304	7.79
525.504	7.8
525.704	7.79
525.904	7.71
526.104	7.73
526.304	7.68
526.504	7.69
526.705	7.72
526.905	7.86
527.105	7.9
527.305	7.91
527.505	7.84
527.705	7.87
527.905	7.84
528.105	7.81
528.305	7.79
528.505	7.82
528.705	7.87
528.905	7.83
529.105	7.83
529.304	7.84
529.504	7.93
529.704	7.82
529.904	7.84
530.104	7.83
530.304	7.93
530.503	7.83
530.703	7.8
530.903	7.78
531.103	7.85
531.303	7.78
531.502	7.86
531.702	8.03
531.902	8.07
532.101	8.02
532.301	8.04
532.501	8.06
532.7	7.98
532.9	8
533.1	8.01
533.299	7.97
533.499	7.99
533.698	7.93
533.898	7.94
534.097	8
534.297	8.09
534.496	8.06
534.696	8.18
534.895	8.25
535.095	8.32
535.294	8.31
535.494	8.25
535.693	8.26
535.892	8.24
536.092	8.13
536.291	8.09
536.491	8.2
536.69	8.21
536.889	8.18
537.088	8.17
537.288	8.31
537.487	8.36
537.686	8.39
537.886	8.46
538.085	8.55
538.284	8.59
538.483	8.51
538.682	8.58
538.882	8.57
539.081	8.59
539.28	8.52
539.479	8.55
539.678	8.47
539.877	8.56
540.076	8.56
540.275	8.57
540.474	8.68
540.673	8.75
540.872	8.71
541.071	8.76
541.27	8.77
541.469	8.78
541.668	8.82
541.867	8.81
542.066	8.82
542.265	8.9
542.464	8.84
542.663	8.86
542.862	9.03
543.06	9.09
543.259	9.05
543.458	9.17
543.657	9.21
543.856	9.13
544.054	9.14
544.253	9.13
544.452	9.05
544.651	9.06
544.849	9.03
545.048	9.1
545.247	9.18
545.445	9.26
545.644	9.28
545.843	9.34
546.041	9.32
546.24	9.45
546.438	9.59
546.637	9.61
546.836	9.72
547.034	9.8
547.233	9.77
547.431	9.67
547.63	9.65
547.828	9.7
548.027	9.7
548.225	9.69
548.423	9.78
548.622	9.98
548.82	9.92
549.019	9.99
549.217	10.07
549.415	10.12
549.614	10.07
549.812	10.07
550.01	10.06
550.209	10.04
550.407	10.1
550.605	10.14
550.803	10.3
551.002	10.39
551.2	10.49
551.398	10.56
551.596	10.67
551.794	10.72
551.993	10.79
552.191	10.83
552.389	10.93
552.587	11
552.785	11.02
552.983	11.05
553.181	11.16
553.379	11.21
553.577	11.22
553.775	11.31
553.973	11.44
554.171	11.54
554.369	11.52
554.567	11.59
554.765	11.65
554.963	11.75
555.161	11.67
555.359	11.74
555.557	11.85
555.755	11.92
555.952	11.98
556.15	12.14
556.348	12.29
556.546	12.41
556.744	12.47
556.941	12.49
557.139	12.51
557.337	12.53
557.535	12.45
557.732	12.57
557.93	12.74
558.128	12.85
558.325	12.96
558.523	13.05
558.721	13.14
558.918	13.13
559.116	13.19
559.313	13.24
559.511	13.39
559.708	13.39
559.906	13.45
560.104	13.53
560.301	13.63
560.498	13.76
560.696	13.83
560.893	13.92
561.091	14.04
561.288	14.18
561.486	14.19
561.683	14.26
561.88	14.36
562.078	14.43
562.275	14.43
562.473	14.55
562.67	14.81
562.867	14.95
563.064	15.05
563.262	15.07
563.459	15.14
563.656	15.21
563.853	15.25
564.051	15.27
564.248	15.43
564.445	15.52
564.642	15.49
564.839	15.62
565.036	15.81
565.234	16.01
565.431	16.05
565.628	16.14
565.825	16.22
566.022	16.29
566.219	16.29
566.416	16.43
566.613	16.49
566.81	16.59
567.007	16.6
567.204	16.5
567.401	16.53
567.598	16.59
567.795	16.62
567.991	16.66
568.188	16.86
568.385	17.05
568.582	17.17
568.779	17.29
568.976	17.32
569.172	17.47
569.369	17.37
569.566	17.39
569.763	17.4
569.96	17.54
570.156	17.47
570.353	17.5
570.55	17.62
570.746	17.67
570.943	17.64
571.14	17.69
571.336	17.74
571.533	17.84
571.729	17.79
571.926	17.9
572.123	17.95
572.319	18.1
572.516	17.99
572.712	18.08
572.909	18.1
573.105	18.22
573.302	18.22
573.498	18.39
573.695	18.39
573.891	18.47
574.087	18.48
574.284	18.47
574.48	18.34
574.677	18.42
574.873	18.38
575.069	18.39
575.266	18.39
575.462	18.42
575.658	18.5
575.854	18.59
576.051	18.56
576.247	18.64
576.443	18.71
576.639	18.66
576.835	18.65
577.032	18.59
577.228	18.67
577.424	18.76
577.62	18.66
577.816	18.68
578.012	18.79
578.208	18.65
578.404	18.63
578.6	18.71
578.796	18.73
578.993	18.76
579.189	18.75
579.384	18.63
579.58	18.57
579.776	18.5
579.972	18.43
580.168	18.38
580.364	18.4
580.56	18.42
580.756	18.41
580.952	18.35
581.148	18.43
581.343	18.43
581.539	18.46
581.735	18.54
581.931	18.68
582.127	18.72
582.322	18.65
582.518	18.68
582.714	18.61
582.909	18.59
583.105	18.52
583.301	18.59
583.496	18.69
583.692	18.69
583.888	18.6
584.083	18.72
584.279	18.73
584.474	18.61
584.67	18.63
584.866	18.59
585.061	18.39
585.257	18.45
585.452	18.44
585.648	18.36
585.843	18.44
586.039	18.56
586.234	18.49
586.429	18.47
586.625	18.65
586.82	18.61
587.015	18.57
587.211	18.51
587.406	18.52
587.601	18.42
587.797	18.36
587.992	18.23
588.187	18.34
588.383	18.3
588.578	18.3
588.773	18.39
588.968	18.61
589.163	18.64
589.359	18.66
589.554	18.63
589.749	18.66
589.944	18.6
590.139	18.57
590.334	18.67
590.529	18.73
590.724	18.75
590.919	18.8
591.114	18.78
591.309	18.8
591.504	18.88
591.699	18.91
591.894	19.03
592.089	19.06
592.284	19.05
592.479	19.16
592.674	19.15
592.869	19.17
593.064	19.31
593.259	19.44
593.454	19.52
593.648	19.67
593.843	19.65
594.038	19.75
594.233	19.66
594.428	19.66
594.622	19.68
594.817	19.87
595.012	19.85
595.206	19.98
595.401	19.98
595.596	19.99
595.79	20.02
595.985	20.2
596.18	20.34
596.374	20.54
596.569	20.64
596.763	20.61
596.958	20.53
597.153	20.62
597.347	20.53
597.542	20.75
597.736	20.87
597.931	20.96
598.125	20.94
598.319	21.21
598.514	21.08
598.708	21.18
598.903	21.2
599.097	21.27
599.291	21.15
599.486	21.25
599.68	21.26
599.874	21.35
600.069	21.47
600.263	21.46
600.457	21.46
600.651	21.47
600.846	21.56
601.04	21.57
601.234	21.72
601.428	21.79
601.622	21.76
601.817	21.83
602.011	21.89
602.205	21.92
602.399	21.99
602.593	21.98
602.787	22.01
602.981	21.93
603.175	21.94
603.369	21.8
603.563	21.93
603.757	21.95
603.951	22
604.145	22.01
604.339	22.14
604.533	22.03
604.727	21.91
604.921	21.86
605.115	21.83
605.309	21.92
605.502	22.05
605.696	22.01
605.89	22.02
606.084	21.94
606.278	21.78
606.471	21.62
606.665	21.61
606.859	21.48
607.053	21.48
607.246	21.54
607.44	21.55
607.634	21.49
607.827	21.58
608.021	21.49
608.214	21.42
608.408	21.41
608.602	21.42
608.795	21.31
608.989	21.25
609.182	21.12
609.376	21.03
609.569	20.89
609.763	20.68
609.956	20.61
610.15	20.51
610.343	20.47
610.537	20.45
610.73	20.6
610.923	20.57
611.117	20.48
611.31	20.45
611.504	20.38
611.697	20.26
611.89	20.22
612.083	20.2
612.277	20.16
612.47	20.13
612.663	20.07
612.856	20.03
613.05	20.02
613.243	19.92
613.436	19.82
613.629	19.76
613.822	19.64
614.015	19.56
614.209	19.39
614.402	19.34
614.595	19.3
614.788	19.19
614.981	19.08
615.174	19.02
615.367	18.91
615.56	18.81
615.753	18.76
615.946	18.72
616.139	18.81
616.332	18.91
616.525	18.89
616.718	18.95
616.911	18.88
617.103	18.77
617.296	18.69
617.489	18.63
617.682	18.52
617.875	18.51
618.067	18.54
618.26	18.37
618.453	18.4
618.646	18.39
618.838	18.38
619.031	18.43
619.224	18.49
619.417	18.5
619.609	18.6
619.802	18.57
619.994	18.49
620.187	18.44
620.38	18.34
620.572	18.24
620.765	18.28
620.957	18.18
621.15	18.11
621.342	18.05
621.535	17.99
621.727	17.88
621.92	17.85
622.112	17.79
622.305	17.86
622.497	17.8
622.69	17.77
622.882	17.75
623.074	17.81
623.267	17.71
623.459	17.62
623.651	17.56
623.844	17.52
624.036	17.51
624.228	17.5
624.42	17.54
624.613	17.69
624.805	17.67
624.997	17.67
625.189	17.67
625.381	17.72
625.574	17.59
625.766	17.52
625.958	17.46
626.15	17.43
626.342	17.39
626.534	17.37
626.726	17.36
626.918	17.31
627.11	17.25
627.302	17.18
627.494	17.09
627.686	17.12
627.878	17.03
628.07	16.97
628.262	16.88
628.454	16.96
628.646	16.96
628.838	17.07
629.029	17.06
629.221	17.19
629.413	17.03
629.605	16.93
629.797	16.8
629.989	16.8
630.18	16.69
630.372	16.75
630.564	16.71
630.755	16.73
630.947	16.82
631.139	16.74
631.33	16.64
631.522	16.72
631.714	16.78
631.905	16.68
632.097	16.62
632.289	16.62
632.48	16.49
632.672	16.3
632.863	16.17
633.055	16.21
633.246	16.22
633.438	16.16
633.629	16.18
633.821	16.25
634.012	16.21
634.203	16.09
634.395	16.17
634.586	16.19
634.777	16.11
634.969	16.1
635.16	16.18
635.351	16.12
635.543	16.11
635.734	16.1
635.925	16.12
636.117	16.16
636.308	16.22
636.499	16.16
636.69	16.14
636.881	16.09
637.073	16.11
637.264	16.01
637.455	16.09
637.646	16.2
637.837	16.29
638.028	16.18
638.219	16.26
638.41	16.15
638.601	16.04
638.792	15.98
638.983	15.97
639.174	15.87
639.365	15.96
639.556	15.85
639.747	15.82
639.938	15.81
640.129	15.74
640.32	15.59
640.511	15.66
640.701	15.8
640.892	15.82
641.083	15.96
641.274	16.05
641.465	16.08
641.655	15.91
641.846	15.85
642.037	15.73
642.228	15.58
642.418	15.57
642.609	15.52
642.8	15.58
642.99	15.55
643.181	15.68
643.372	15.72
643.562	15.69
643.753	15.59
643.943	15.6
644.134	15.48
644.324	15.37
644.515	15.41
644.705	15.57
644.896	15.64
645.086	15.67
645.277	15.69
645.467	15.66
645.658	15.48
645.848	15.43
646.038	15.46
646.229	15.39
646.419	15.3
646.61	15.26
646.8	15.23
646.99	15.14
647.18	15.12
647.371	15.17
647.561	15.18
647.751	15.09
647.941	15.04
648.132	15.02
648.322	15.03
648.512	15.07
648.702	15.09
648.892	15.13
649.082	15.16
649.272	15.05
649.462	14.93
649.653	14.82
649.843	14.69
650.033	14.7
650.223	14.67
650.413	14.58
650.603	14.61
650.793	14.71
650.983	14.5
651.172	14.44
651.362	14.42
651.552	14.35
651.742	14.21
651.932	14.3
652.122	14.34
652.312	14.38
652.502	14.38
652.691	14.38
652.881	14.24
653.071	14.14
653.261	14.02
653.45	13.83
653.64	13.76
653.83	13.7
654.019	13.65
654.209	13.56
654.399	13.59
654.588	13.54
654.778	13.34
654.968	13.24
655.157	13.18
655.347	12.97
655.536	12.77
655.726	12.73
655.915	12.56
656.105	12.51
656.294	12.53
656.484	12.36
656.673	12.32
656.863	12.24
657.052	12.01
657.241	11.77
657.431	11.65
657.62	11.42
657.809	11.15
657.999	11.05
658.188	10.95
658.377	10.77
658.567	10.72
658.756	10.63
658.945	10.43
659.134	10.26
659.324	10.29
659.513	10.15
659.702	10.07
659.891	9.96
660.08	9.84
660.269	9.71
660.458	9.63
660.648	9.47
660.837	9.38
661.026	9.38
661.215	9.22
661.404	9.01
661.593	9.04
661.782	8.82
661.971	8.64
662.16	8.54
662.349	8.49
662.538	8.24
662.726	8.28
662.915	8.15
663.104	8.01
663.293	7.89
663.482	7.96
663.671	7.88
663.86	7.77
664.048	7.66
664.237	7.69
664.426	7.45
664.615	7.43
664.803	7.44
664.992	7.3
665.181	7.14
665.369	7.02
665.558	6.86
665.747	6.68
665.935	6.76
666.124	6.77
666.312	6.81
666.501	6.75
666.69	6.7
666.878	6.58
667.067	6.43
667.255	6.46
667.444	6.75
667.632	6.84
667.82	6.96
668.009	6.92
668.197	6.79
668.386	6.56
668.574	6.56
668.762	6.43
668.951	6.45
669.139	6.52
669.327	6.32
669.516	6.37
669.704	6.34
669.892	6.51
670.08	6.46
670.269	6.5
670.457	6.36
670.645	6.2
670.833	6.25
671.021	6.26
671.21	6.32
671.398	6.55
671.586	6.6
671.774	6.42
671.962	6.43
672.15	6.4
672.338	6.21
672.526	6.34
672.714	6.28
672.902	6.28
673.09	6.53
673.278	6.7
673.466	6.72
673.654	7.02
673.842	7.04
674.03	6.86
674.218	6.79
674.405	6.82
674.593	6.57
674.781	6.79
674.969	6.91
675.157	7
675.344	7.1
675.532	7.24
675.72	7.26
675.908	7.34
676.095	7.29
676.283	7.28
676.471	7.4
676.658	7.35
676.846	7.37
677.033	7.48
677.221	7.57
677.409	7.49
677.596	7.56
677.784	7.55
677.971	7.56
678.159	7.66
678.346	7.77
678.534	7.92
678.721	8.19
678.909	8.23
679.096	8.27
679.283	8.47
679.471	8.46
679.658	8.4
679.846	8.74
680.033	8.97
680.22	8.94
680.408	8.97
680.595	9.07
680.782	8.88
680.969	8.92
681.157	9.05
681.344	9.21
681.531	9.19
681.718	9.34
681.905	9.36
682.093	9.56
682.28	9.72
682.467	10
682.654	10.12
682.841	10.24
683.028	10.43
683.215	10.58
683.402	10.55
683.589	10.78
683.776	10.92
683.963	10.94
684.15	11.09
684.337	11.3
684.524	11.4
684.711	11.72
684.898	11.78
685.085	12.02
685.271	12.36
685.458	12.64
685.645	12.63
685.832	13.05
686.019	13.33
686.205	13.73
686.392	14.05
686.579	14.43
686.766	14.74
686.952	14.93
687.139	15.32
687.326	15.48
687.512	15.79
687.699	16.03
687.886	16.4
688.072	16.44
688.259	16.84
688.445	17.3
688.632	17.56
688.818	18.23
689.005	18.62
689.191	19.11
689.378	19.89
689.564	20.53
689.751	20.66
689.937	21.08
690.124	21.51
690.31	21.41
690.496	21.76
690.683	22.23
690.869	22.7
691.055	23.16
691.242	24.13
691.428	24.73
691.614	25.38
691.8	26.12
691.987	26.99
692.173	27.44
692.359	28.14
692.545	28.79
692.731	29.22
692.918	29.78
693.104	30.3
693.29	30.89
693.476	31.5
693.662	32.35
693.848	32.8
694.034	33.48
694.22	33.97
694.406	34.83
694.592	35.5
694.778	36.14
694.964	36.79
695.15	37.37
695.336	37.6
695.522	38.4
695.708	38.88
695.894	39.46
696.08	40.25
696.265	40.93
696.451	41.27
696.637	42.03
696.823	42.6
697.009	43.11
697.194	43.66
697.38	44.24
697.566	44.56
697.751	45.17
697.937	45.79
698.123	46.48
698.308	47.04
698.494	47.91
698.68	48.46
698.865	48.94
699.051	49.68
699.236	50.13
699.422	50.45
699.607	50.78
699.793	51.3
699.978	51.55
700.164	51.99
700.349	52.94
700.535	53.3
700.72	53.32
700.906	53.87
701.091	54.33
701.276	54.48
701.462	55.36
701.647	56.54
701.832	56.98
702.018	57.55
702.203	57.98
702.388	58.01
702.573	57.99
702.759	58.51
702.944	58.59
703.129	58.7
703.314	59.23
703.499	59.86
703.684	59.69
703.87	60.76
704.055	61.5
704.24	61.71
704.425	61.91
704.61	62.65
704.795	62.39
704.98	62.38
705.165	62.59
705.35	62.71
705.535	62.89
705.72	63.16
705.905	63.71
706.09	64.32
706.275	64.64
706.459	65.01
706.644	65.26
706.829	65.34
707.014	65.03
707.199	65.33
707.384	65.41
707.568	65.58
707.753	65.87
707.938	66.78
708.123	66.76
708.307	66.68
708.492	66.72
708.677	66.76
708.861	66.44
709.046	66.59
709.231	67.21
709.415	67.88
709.6	67.97
709.784	68.01
709.969	68.52
710.153	68.41
710.338	68.37
710.522	68.53
710.707	68.81
710.891	68.86
711.076	69.03
711.26	68.76
711.445	69.13
711.629	69.47
711.813	69.72
711.998	70.15
712.182	70.34
712.366	70.62
712.551	71.19
712.735	71.04
712.919	70.83
713.103	71.12
713.288	70.63
713.472	70.05
713.656	70.61
713.84	70.8
714.024	71.26
714.208	71.48
714.393	71.91
714.577	71.85
714.761	72.12
714.945	72.15
715.129	72.57
715.313	72.59
715.497	72.38
715.681	72.8
715.865	72.54
716.049	72.75
716.233	72.63
716.417	72.94
716.601	72.77
716.785	72.87
716.968	72.98
717.152	73.59
717.336	73.66
717.52	73.79
717.704	73.94
717.888	74.2
718.071	73.9
718.255	73.85
718.439	73.45
718.622	73.31
718.806	73.52
718.99	73.38
719.174	73.34
719.357	73.64
719.541	74.01
719.724	73.41
719.908	73.97
720.092	74.77
720.275	74.64
720.459	74.77
720.642	74.39
720.826	74.23
721.009	73.61
721.193	73.45
721.376	73.4
721.559	74.3
721.743	74.47
721.926	75.24
722.11	76.04
722.293	75.62
722.476	74.7
722.66	74.52
722.843	73.83
723.026	72.83
723.21	73.13
723.393	74.55
723.576	74.24
723.759	74.18
723.942	74.48
724.126	74.56
724.309	73.78
724.492	74.14
724.675	74.22
724.858	75.08
725.041	75.32
725.224	75.89
725.407	76.18
725.59	76.56
725.774	75.88
725.957	75.32
726.14	74.6
726.322	74.88
726.505	74.51
726.688	75.2
726.871	75.74
727.054	76.02
727.237	75.62
727.42	75.7
727.603	75.47
727.786	75.54
727.968	75.97
728.151	75.8
728.334	75.98
728.517	75.92
728.699	76.25
728.882	75.41
729.065	75.69
729.248	76.11
729.43	76.38
729.613	75.96
729.796	77
729.978	76.46
730.161	75.69
730.343	75.3
730.526	75.94
730.708	75.09
730.891	75.69
731.073	76.05
731.256	75.65
731.438	75.56
731.621	76.41
731.803	76.38
731.986	76.26
732.168	76.49
732.35	76.49
732.533	76.74
732.715	77.11
732.898	77.86
733.08	78.2
733.262	78.48
733.444	77.94
733.627	77.55
733.809	76.99
733.991	77.86
734.173	77.03
734.355	77.34
734.538	78.14
734.72	78.14
734.902	77.76
735.084	78.43
735.266	78.53
735.448	78.73
735.63	79.15
735.812	78.9
735.994	79.81
736.176	79.69
736.358	79.19
736.54	79.84
736.722	79.4
736.904	78.4
737.086	78.18
737.268	78.4
737.45	77.79
737.632	77.73
737.814	76.55
737.995	77.07
738.177	76.34
738.359	75.07
738.541	75.35
738.723	76.34
738.904	75.9
739.086	76.62
739.268	77.31
739.449	77.47
739.631	78
739.813	78.52
739.994	77.94
740.176	78.75
740.358	78.78
740.539	79.71
740.721	79.21
740.902	80.53
741.084	79.58
741.265	79.78
741.447	78.25
741.628	79.1
741.81	78.3
741.991	79.06
742.172	80.11
742.354	81.01
742.535	80.23
742.717	79.72
742.898	80.09
743.079	79.39
743.261	79.35
743.442	78.87
743.623	80.02
743.804	79.54
743.986	80.15
744.167	78.93
744.348	78.87
744.529	78.23
744.71	77.82
744.891	77.09
745.073	77.57
745.254	77.27
745.435	77.34
745.616	77.52
745.797	76.99
745.978	76.18
746.159	76.78
746.34	75.76
746.521	76.93
746.702	75.8
746.883	76.25
747.064	76.21
747.245	77.2
747.426	76.12
747.606	77.62
747.787	78.36
747.968	78.53
748.149	79.37
748.33	79.47
748.51	79.59
748.691	78.3
748.872	78.51
749.053	76.63
749.233	75.61
749.414	75.39
749.595	75.2
749.775	73.74
749.956	74.24
750.137	75.19
750.317	76.12
750.498	78.25
750.678	78.99
750.859	79.59
751.04	79.07
751.22	76.56
751.4	75.1
751.581	74.48
751.761	74.37
751.942	74.65
752.122	75.75
752.303	75.75
752.483	75.7
752.663	75.45
752.844	74.6
753.024	75.84
753.204	76.4
753.385	76.25
753.565	76.4
753.745	78.5
753.925	77.77
754.106	77.06
754.286	78.07
754.466	77.6
754.646	76.31
754.826	74.88
755.006	74.53
755.187	75.5
755.367	75.73
755.547	75.65
755.727	78.05
755.907	78.66
756.087	78.89
756.267	76.91
756.447	78.22
756.627	74.44
756.807	74.61
756.987	72.68
757.167	73.93
757.346	72.45
757.526	73.22
757.706	73.18
757.886	75.05
758.066	77.03
758.246	78.15
758.425	79.13
758.605	78.73
758.785	77.16
758.965	75.81
759.144	74
759.324	74.64
759.504	75.08
759.683	74.67
759.863	73.14
760.043	73.53
760.222	72.87
760.402	72.03
760.581	71.92
760.761	73.85
760.94	72.46
761.12	73.53
761.299	74.48
761.479	74.11
761.658	71.51
761.838	72.18
762.017	71.88
762.197	71.19
762.376	72.28
762.555	74.94
762.735	77.05
762.914	75.01
763.093	75.6
763.273	74.87
763.452	73.29
763.631	71.75
763.81	72.43
763.99	71.45
764.169	72.45
764.348	70.96
764.527	70.02
764.706	71.66
764.885	73.01
765.064	71.11
765.243	72.93
765.423	73.7
765.602	72.53
765.781	70.14
765.96	69.42
766.139	69.21
766.318	70.13
766.497	70.38
766.676	72.33
766.854	74.58
767.033	75.09
767.212	73.3
767.391	72.49
767.57	72.21
767.749	72.14
767.928	72.74
768.106	72.66
768.285	70.59
768.464	69.91
768.643	68.65
768.821	68.54
769	71.39
769.179	71.79
769.357	69.91
769.536	69.25
769.715	68.7
769.893	68.84
770.072	69.94
770.25	72.32
770.429	73.79
770.607	72.51
770.786	69.57
770.964	71.14
771.143	70.85
771.321	71.75
771.5	73.29
771.678	72.86
771.857	69.75
772.035	68.95
772.213	67.39
772.392	64.8
772.57	68.39
772.748	70.6
772.927	69.45
773.105	68.86
773.283	72.12
773.461	69.66
773.64	69.93
773.818	70.6
773.996	72.22
774.174	69.93
774.352	68.23
774.531	65.18
774.709	69.36
774.887	67.4
775.065	66.78
775.243	67.53
775.421	68.77
775.599	68.51
775.777	67.55
775.955	66.33
776.133	65.69
776.311	64.92
776.489	60.67
776.667	62.19
776.844	63.74
777.022	62.73
777.2	64.49
777.378	64.76
777.556	65.24
777.734	68.01
777.911	71.95
778.089	69.22
778.267	69.56
778.445	68.89
778.622	65.31
778.8	63.12
778.978	67.36
779.155	66.13
779.333	66.46
779.511	66.43
779.688	68.62
779.866	62.95
780.043	62.17
780.221	60.57
780.398	59.53
780.576	60.64
780.753	63.7
780.931	63.63
781.108	63.46
781.286	66.01
781.463	62.17
781.64	58.51
781.818	61.17
781.995	63.48
782.172	62.8
782.35	62.59
782.527	69.44
782.704	66.16
782.882	67.4
783.059	66.8
783.236	68.3
783.413	65.11
783.59	65.77
783.768	60.76
783.945	63.74
784.122	65.99
784.299	66.56
784.476	69.3
784.653	70.14
784.83	63.61
785.007	58.22
785.184	57.79
785.361	54.52
785.538	58.26
785.715	64.78
785.892	65.66
786.069	67.34
786.246	69.65
786.423	68.91
786.6	66.15
786.776	69.95
786.953	66.68
787.13	69.43
787.307	68.42
787.484	69.72
787.66	65.34
787.837	67.52
788.014	61.88
788.191	57.73
788.367	54.38
788.544	60.79
788.721	59.91
788.897	64.23
789.074	66.75
789.25	65.07
789.427	60.84
789.603	59.5
789.78	59.16
789.956	57.39
790.133	55.34
790.309	54.76
790.486	60.42
790.662	57.88
790.839	60.9
791.015	67.41
791.192	66.86
791.368	65.27
791.544	63.86
791.721	61.18
791.897	59.67
792.073	56.29
792.249	47.05
792.426	52.4
792.602	56.27
792.778	52.34
792.954	50.53
793.13	55.92
793.307	44.86
793.483	38.56
793.659	38.26
793.835	44.79
794.011	44.59
794.187	49.84
794.363	49.44
794.539	55.75
794.715	52.81
794.891	51.51
795.067	51.33
795.243	60.05
795.419	58.33
795.595	59.06
795.771	60.06
795.947	61
796.122	52.52
796.298	58.67
796.474	58.86
796.65	60.85
796.826	57.98
797.001	59.9
797.177	52.96
797.353	56.26
797.529	58.17
797.704	59.75
797.88	58.91
798.056	54.16
798.231	51.84
798.407	52.24
798.582	52.49
798.758	62.56
798.934	67.71
799.109	68.23
799.285	64.13
799.46	68.22
799.636	60.3
799.811	61.03
799.986	59.87
800.162	59.42
800.337	58.72
800.513	55.66
800.688	51.31
800.863	61.67
801.039	60.45
801.214	56.06
801.389	60.37
801.565	55.43
801.74	37.68
801.915	45.25
802.09	47.88
802.265	54.74
802.441	59.11
802.616	65.99
802.791	65.61
802.966	63.04
803.141	57.7
803.316	53.71
803.491	59.03
803.666	61.19
803.841	56.26
804.016	52.78
804.191	61.11
804.366	56.59
804.541	47.28
804.716	47.31
804.891	45.18
805.066	48.96
805.241	44.76
805.416	43.41
805.591	45.48
805.765	50.08
805.94	51.31
806.115	54.65
806.29	51.44
806.464	52.52
806.639	48.34
806.814	35.8
806.989	23.92
807.163	37.53
807.338	38.02
807.512	35.8
807.687	27.22
807.862	44.76
808.036	44.96
808.211	43.03
808.385	54.28
808.56	68.04
808.734	65.63
808.909	61.19
809.083	54.98
809.258	57.33
809.432	56.49
809.606	46.67
809.781	43.64
809.955	57.82
810.13	58.89
810.304	54.43
810.478	49.91
810.652	50.23
810.827	53.15
811.001	46.44
811.175	42.27
811.349	45.54
811.524	35.45
811.698	13.27
811.872	11.16
812.046	18.67
812.22	25.5
812.394	38.84
812.568	47.66
812.742	47.76
812.916	45.84
813.09	36.36
813.264	33.62
813.438	38.92
813.612	43.3
813.786	39.82
813.96	58.03
814.134	64.01
814.308	75.77
814.482	76.54
814.656	75.44
814.83	65.75
815.003	62.63
815.177	52.48
815.351	46.56
815.525	42.67
815.698	37.89
815.872	27.43
816.046	21.15
816.219	25.25
816.393	38.22
816.567	40.18
816.74	46.6
816.914	51.07
817.088	51.58
817.261	45.44
817.435	34.8
817.608	44.05
817.782	40.44
817.955	39.1
818.129	30.62
818.302	42.72
818.475	43.54
818.649	39.42
818.822	31.56
818.996	51.26
819.169	49.57
819.342	33.78
819.516	47.75
819.689	65.48
819.862	52.13
820.035	33.21
820.209	36.96
820.382	31.74
820.555	27.91
820.728	13.8
820.901	20.39
821.075	21.34
821.248	18.65
821.421	-8.69
821.594	-6.81
821.767	26.7
821.94	40.12
822.113	18.57
822.286	34.07
822.459	49.17
822.632	35.31
822.805	1.79
822.978	19.46
823.151	4.82
823.324	-1.11
823.496	-26.3
823.669	-3.62
823.842	-6.25
824.015	-6.24
824.188	-14.38
824.361	-4.39
824.533	-2.94
824.706	8.6
824.879	10.38
825.051	25.7
825.224	32.25
825.397	11.44
825.569	4.46
825.742	29.1
825.915	45.41
826.087	46.78
826.26	47.76
826.432	40.17
826.605	26.41
826.777	4.82
826.95	5.51
827.122	-9.22
827.295	-0.33
827.467	6.13
827.64	-23.82
827.812	-30.57
827.984	-8.71
828.157	-34.7
828.329	-86.28
828.501	-49.25
828.674	-16.06
828.846	-34.95
829.018	-1.14
829.19	-13.85
829.363	18.41
829.535	18.5
829.707	16.27
829.879	-8.78
830.051	9.46
830.223	-24.98
830.395	-63.4
830.568	-54.65
830.74	-40.38
830.912	-7.64
831.084	-8.62
831.256	1.62
831.428	-7.61
831.6	-22.62
831.772	-66
831.943	-88
832.115	-72.77
832.287	-39.64
832.459	-25.77
832.631	1.97
832.803	35.09
832.975	52.73
833.146	35.42
833.318	34.32
833.49	29.66
833.662	-4.36
833.833	-21.81
834.005	-8.86
834.177	-0.6
834.348	-11.7
834.52	-25.26
834.692	-34.55
834.863	-61.41
835.035	-52.33
835.206	-101.21
835.378	-56.26
835.549	-29.93
835.721	-14.38
835.892	-16.53
836.064	10.24
836.235	4.56
836.407	3.79
836.578	-39.45
836.749	-40.91
836.921	-90.95
837.092	-95.44
837.264	-77.04
837.435	-83.65
837.606	-30.33
837.777	8.51
837.949	33.56
838.12	38.77
838.291	59.85
838.462	43.55
838.633	11.23
838.805	5.97
838.976	-10.31
839.147	-68.73
839.318	-50.71
839.489	-68
839.66	-58.93
839.831	15.37
840.002	11.87
840.173	1.19
840.344	33.96
840.515	49.4
840.686	-106.53
840.857	-80.12
841.028	-66.27
841.199	-74.73
841.369	-89.34
841.54	-62.27
841.711	-32.9
841.882	-19.18
842.053	-13.62
842.223	-28.64
842.394	-35.3
842.565	-15.68
842.736	-6.85
842.906	-8.19
843.077	21.31
843.248	65.51
843.418	42.72
843.589	-7.39
843.759	82.48
843.93	50.7
844.101	-3.61
844.271	-2.58
844.442	29.07
844.612	22.09
844.783	-20.86
844.953	-50.65
845.123	-37.87
845.294	-94.25
845.464	-351.34
845.635	-118.31
845.805	-6.4
845.975	-14.01
846.146	-33.07
846.316	-21.38
846.486	-3.83
846.656	17.24
846.827	4.03
846.997	-8.21
847.167	11.68
847.337	-2.81
847.507	-46.28
847.677	-20.72
847.848	38.44
848.018	30.11
848.188	36.64
848.358	18.31
848.528	0.48
848.698	-23.75
848.868	-82.07
849.038	-230.25
849.208	-88
849.378	14.89
849.548	7.55
849.718	0.14
849.887	35.39
850.057	26.54
850.227	-57.85
850.397	-115.82
850.567	-253.05
850.737	-588.7
850.906	-1861.25
851.076	-1048.44
851.246	-434.03
851.415	-38.24
851.585	-39.37
851.755	-63.31
851.924	-40.99
852.094	-117.12
852.264	-200.66
852.433	-1175
852.603	-257.92
852.772	-152.9
852.942	-58.35
853.111	-76.16
853.281	-29.27
853.45	-3.76
853.62	-81.53
853.789	-91.9
853.959	-75.19
854.128	-80.85
854.297	-93.71
854.467	-115.06
854.636	-57.98
854.805	-2.36
854.975	-46.03
855.144	-46.3
855.313	274.13
855.482	-112.41
855.652	-115.49
855.821	33.72
855.99	49.38
856.159	52.27
856.328	60.95
856.497	46.19
856.667	38.02
856.836	77.03
857.005	10.06
857.174	-45.53
857.343	-55.49
857.512	-53.08
857.681	-131.55
857.85	-134.81
858.019	-14.76
858.188	-39.05
858.356	-74.07
858.525	-146.23
858.694	-119.98
858.863	-293.32
859.032	-177.16
859.201	-239.95
859.369	-122.7
859.538	-44.26
859.707	-58.77
859.876	-64.59
860.044	17.07
860.213	25.68
860.382	-5.65
860.55	19.16
860.719	27.93
860.888	21.4
861.056	-5.79
861.225	-14.12
861.393	30.87
861.562	30.29
861.73	-65.23
861.899	-339.79
862.067	-3655.17
862.236	-265.4
862.404	-425.65
862.572	-226.4
862.741	-54.5
862.909	-25.37
863.078	-128.08
863.246	-82.52
863.414	-63.31
863.582	-41.29
863.751	-85.29
863.919	-70.03
864.087	-24.18
864.255	-34.15
864.424	-391.24
864.592	-54.69
864.76	-128.6
864.928	-394.4
865.096	-264.01
865.264	-177.36
865.432	-2272.73
865.6	-192.5
865.768	-165.34
865.936	-152.35
866.104	-194.65
866.272	-155
866.44	-365.35
866.608	594.02
866.776	311.72
866.944	2618.6
867.112	-600.42
867.28	-258.96
867.448	-125.37
867.615	-36.58
867.783	-26.9
867.951	-48.11
868.119	-6.63
868.286	0.77
868.454	-140.59
868.622	-153.46
868.789	-103.01
868.957	-2321.43
869.125	-2434.21
869.292	-151.35
869.46	-194.38
869.627	8.96
869.795	-31.05
869.963	2.4
870.13	19.52
870.298	43.92
870.465	-83.66
870.632	-75.84
870.8	-75.86
870.967	-131.84
871.135	-213.64
871.302	-167.47
871.469	-227.88
871.637	-252.31
871.804	-158.91
871.971	-228.46
872.139	-589.3
872.306	-24.34
872.473	-55.89
872.64	-317.17
872.807	-77.27
872.975	45.12
873.142	-231.64
873.309	2354.05
873.476	-2.43
873.643	71.54
873.81	8.07
873.977	20.5
874.144	48.44
874.311	-81.41
874.478	-182.2
874.645	-216.09
874.812	-132.1
874.979	-95.97
875.146	-91.95
875.313	-75.34
875.48	10.55
875.647	-23.58
875.813	-55.08
875.98	-34.09
876.147	-63.59
876.314	-151.71
876.481	1193.39
876.647	-1369.66
876.814	465.28
876.981	22.69
877.147	-22.89
877.314	31.12
877.481	28.3
877.647	6.28
877.814	-52.89
877.98	-118.74
878.147	-64.66
878.314	22.67
878.48	9.17
878.647	34.6
878.813	90.87
878.979	55.68
879.146	-24.08
879.312	-15.22
879.479	-87.87
879.645	-158.51
879.811	-342.9
879.978	-648.85
880.144	-200.84
880.31	-86.74
880.477	-347.72
880.643	-336.27
880.809	-131.5
880.975	-112.55
881.142	-1040
881.308	-133.2
881.474	-97.9
881.64	-155.15
881.806	-234.8
881.972	-78.29
882.138	-116.31
882.304	-81.56
882.47	-178.51
882.636	-807.38
882.802	-239.17
882.968	-13.2
883.134	-30.13
883.3	-28.76
883.466	24.89
883.632	63.34
883.798	6.45
883.964	5.67
884.129	1.76
884.295	36.07
884.461	-100.63
884.627	-111.42
884.793	-159.68
884.958	-90.79
885.124	-211.13
885.29	-246.11
885.455	-447.57
885.621	-103.27
885.787	-169.92
885.952	-71.8
886.118	-75.58
886.283	-56.94
886.449	-180.68
886.614	-155
886.78	-275
886.945	818.03
887.111	-479.19
887.276	-242.61
887.442	-876.36
887.607	-478.77
887.773	-401.59
887.938	-386.42
888.103	-488.85
888.269	-284.04
888.434	-367.03
888.599	-138.86
888.764	0.98
888.93	58.57
889.095	41.99
889.26	-25.4
889.425	5.01
889.59	2.01
889.756	-78.93
889.921	-69.95
890.086	28.95
890.251	32.23
890.416	-86.04
890.581	-833.87
890.746	43.21
890.911	243.31
891.076	167.11
891.241	-374.63
891.406	56.03
891.571	-47.87
891.736	-334.86
891.901	-646.02
892.065	765.93
892.23	215.89
892.395	287.28
892.56	400.87
892.725	-298.44
892.889	-939.02
893.054	-175.39
893.219	-78.62
893.384	-47.35
893.548	-153.16
893.713	-168.4
893.878	-134.11
