Data from Ofra_2a_PS_2GT3_Reflection_2.txt Node
Date: Tue Jul 20 09:40:41 EDT 2021
User: Adam
Spectrometer: FLMT01687
Trigger mode: 0
Integration Time (sec): 9.450000E-1
Scans to average: 3
Electric dark correction enabled: true
Nonlinearity correction enabled: false
Boxcar width: 3
XAxis mode: Wavelengths
Number of Pixels in Spectrum: 3648
>>>>>Begin Spectral Data<<<<<
179.494	991.72
179.716	558.36
179.937	604.95
180.158	1975.39
180.38	-890.99
180.601	-93.03
180.823	38.29
181.044	49.7
181.265	-46.53
181.486	31.25
181.708	-1296.74
181.929	35.7
182.15	-432.39
182.372	67.6
182.593	-74.57
182.814	428.59
183.035	269.73
183.257	143.69
183.478	87.25
183.699	111.74
183.92	70.29
184.141	56.27
184.363	48.9
184.584	50.6
184.805	54.07
185.026	73.1
185.247	48.76
185.468	69.43
185.689	65.66
185.91	43.97
186.132	38.12
186.353	25.91
186.574	21.41
186.795	14.12
187.016	8.76
187.237	7.6
187.458	24.34
187.679	40.22
187.9	60.26
188.121	38.41
188.342	50.61
188.563	52.07
188.784	56.64
189.005	69.39
189.226	59.92
189.447	50.22
189.667	61.15
189.888	55.78
190.109	55.61
190.33	36.23
190.551	17.47
190.772	5.88
190.993	12.19
191.214	14.38
191.434	17.74
191.655	32.1
191.876	44.16
192.097	45.32
192.318	51.59
192.538	54.22
192.759	58.24
192.98	51.41
193.201	58.31
193.421	54.6
193.642	57.94
193.863	77.57
194.083	63.21
194.304	40.57
194.525	57.73
194.745	39.45
194.966	51.82
195.187	49.5
195.407	34.11
195.628	35.24
195.848	44.08
196.069	33.3
196.29	27.72
196.51	10.34
196.731	12.96
196.951	20.07
197.172	27.77
197.392	28.95
197.613	26.51
197.833	38.16
198.054	37.08
198.274	30.14
198.495	42.98
198.715	29.41
198.936	23.02
199.156	13.51
199.377	9.35
199.597	21.23
199.817	40.4
200.038	31.79
200.258	51.16
200.479	56.6
200.699	63.24
200.919	53.44
201.14	39.78
201.36	33.62
201.58	35.31
201.801	12
202.021	18.98
202.241	22.07
202.461	29.82
202.682	37.83
202.902	30.51
203.122	29.38
203.342	46.42
203.563	47.64
203.783	49.75
204.003	48.38
204.223	54.12
204.443	60.84
204.663	52.3
204.884	44.43
205.104	48.77
205.324	72.9
205.544	78.24
205.764	69.07
205.984	61.63
206.204	82.75
206.424	72.34
206.644	63.14
206.864	44.98
207.084	51.86
207.304	49.31
207.525	50.08
207.745	51.81
207.964	64.86
208.184	49.2
208.404	46.12
208.624	25.94
208.844	19.61
209.064	18.81
209.284	17.21
209.504	10.38
209.724	3.68
209.944	10.29
210.164	34.91
210.384	52.42
210.604	57.99
210.823	30.63
211.043	31.04
211.263	42.7
211.483	41.98
211.703	36.08
211.922	36.45
212.142	49.72
212.362	63.29
212.582	66.68
212.801	65.17
213.021	67.99
213.241	63.15
213.461	46.5
213.68	44
213.9	41.47
214.12	28.09
214.339	31.23
214.559	38.46
214.779	42.71
214.998	43.05
215.218	44.12
215.438	44.07
215.657	53.75
215.877	54.57
216.096	40.42
216.316	35.53
216.535	40.25
216.755	24.85
216.974	25.73
217.194	29.08
217.413	35.85
217.633	36.91
217.852	46.38
218.072	65.92
218.291	72.15
218.511	63.92
218.73	59.9
218.95	59.33
219.169	62.06
219.389	61.08
219.608	49.08
219.827	38.13
220.047	40.89
220.266	42.81
220.485	41.58
220.705	38.85
220.924	43.55
221.143	36.35
221.363	41.35
221.582	39.88
221.801	50.08
222.021	46.91
222.24	55.03
222.459	46.99
222.678	67.17
222.897	55.99
223.117	61.81
223.336	48.94
223.555	51.65
223.774	72.58
223.993	71.05
224.213	59.78
224.432	71.16
224.651	66.73
224.87	69.16
225.089	72.34
225.308	53.17
225.527	51.74
225.746	64.7
225.965	55.46
226.184	50.09
226.404	44.16
226.623	46.69
226.842	49.11
227.061	53.93
227.28	53.65
227.499	53.99
227.718	56.25
227.936	44.38
228.155	40.17
228.374	44.01
228.593	36.52
228.812	29.3
229.031	21.35
229.25	25.19
229.469	50.26
229.688	59.96
229.907	53.5
230.125	58
230.344	52.4
230.563	57.26
230.782	54.42
231.001	45.94
231.22	34.86
231.438	27.85
231.657	33.23
231.876	41.56
232.095	44.6
232.313	57.73
232.532	50.22
232.751	54.64
232.969	66.51
233.188	60.17
233.407	59.27
233.625	58.71
233.844	46.79
234.063	51.45
234.281	40.71
234.5	40.72
234.719	36.47
234.937	56.47
235.156	47.08
235.374	38.83
235.593	33.81
235.811	52.62
236.03	56.68
236.249	74.67
236.467	49.58
236.686	59.12
236.904	57.74
237.123	65.48
237.341	49.5
237.559	36.84
237.778	29.71
237.996	23.51
238.215	17.26
238.433	29.4
238.652	24.43
238.87	29.72
239.088	22.12
239.307	15.58
239.525	12.05
239.743	9.3
239.962	10.82
240.18	15.34
240.398	15.19
240.617	33.54
240.835	43.29
241.053	53.7
241.271	64.71
241.49	51.24
241.708	51.27
241.926	36.56
242.144	39.54
242.363	30.28
242.581	22.79
242.799	8.46
243.017	16.33
243.235	7.19
243.453	28.59
243.672	26.51
243.89	29.03
244.108	36.55
244.326	33.91
244.544	38.44
244.762	43.95
244.98	39.62
245.198	37.54
245.416	36.53
245.634	42.8
245.852	55.65
246.07	49.7
246.288	39.95
246.506	37.61
246.724	35.08
246.942	50.58
247.16	34.72
247.378	19.66
247.596	24.21
247.814	25.94
248.032	29.03
248.25	26.3
248.468	16.92
248.685	29.2
248.903	37.94
249.121	41.42
249.339	39.93
249.557	40.35
249.775	27.19
249.992	26.68
250.21	17.8
250.428	13.29
250.646	9.24
250.863	14.78
251.081	10.43
251.299	38.69
251.517	33.54
251.734	36.03
251.952	51.21
252.17	41.47
252.387	48.04
252.605	55.52
252.823	43.98
253.04	58.19
253.258	54.88
253.475	41.81
253.693	50.92
253.911	39.07
254.128	28.01
254.346	24.92
254.563	14.73
254.781	14.33
254.998	13.65
255.216	13.52
255.433	17.4
255.651	18.43
255.868	32.33
256.086	42.74
256.303	47.42
256.521	34.47
256.738	32.58
256.956	21.97
257.173	27.07
257.39	22.74
257.608	23.01
257.825	28.2
258.043	38.43
258.26	28.7
258.477	45.22
258.695	48.15
258.912	53.71
259.129	47.64
259.346	43.93
259.564	55.76
259.781	70.04
259.998	56.73
260.216	55.77
260.433	49.62
260.65	65.55
260.867	57.18
261.084	42.3
261.302	29.86
261.519	27.04
261.736	18.57
261.953	20.14
262.17	6.74
262.387	8.9
262.604	0.98
262.822	11.99
263.039	20.15
263.256	23.64
263.473	14.66
263.69	21.98
263.907	20.86
264.124	10.86
264.341	8.7
264.558	13.52
264.775	16.16
264.992	22.54
265.209	30.48
265.426	37.63
265.643	52.81
265.86	50.78
266.077	49.95
266.294	45.83
266.51	43.45
266.727	30.56
266.944	22.56
267.161	12.65
267.378	4.9
267.595	-4.04
267.812	3.54
268.028	19.94
268.245	29.74
268.462	36.1
268.679	35.49
268.896	34.82
269.112	46.24
269.329	52.31
269.546	43.88
269.763	43.22
269.979	35.5
270.196	38.04
270.413	44.12
270.629	36.87
270.846	33.92
271.063	35.31
271.279	31.45
271.496	31.14
271.712	31.99
271.929	35.77
272.146	37.81
272.362	31.1
272.579	24.69
272.795	25.04
273.012	30.78
273.228	26.21
273.445	23.52
273.661	22.5
273.878	23.54
274.094	28.55
274.311	24.04
274.527	21.57
274.744	30.12
274.96	29.9
275.177	37.85
275.393	41.34
275.609	47.09
275.826	53.07
276.042	64.13
276.259	58.89
276.475	52.92
276.691	50.98
276.908	45.78
277.124	38.49
277.34	41.06
277.557	32.75
277.773	25.26
277.989	27.17
278.205	15.44
278.422	30.47
278.638	41.68
278.854	33.54
279.07	25.63
279.286	23.02
279.503	27.04
279.719	44.16
279.935	28.56
280.151	20.79
280.367	26.09
280.583	32.86
280.799	46.44
281.016	45.36
281.232	40.11
281.448	42.65
281.664	49.29
281.88	48.52
282.096	53.07
282.312	45.36
282.528	34.88
282.744	25.57
282.96	34.46
283.176	33.19
283.392	41.58
283.608	32.83
283.824	32.62
284.04	41.34
284.256	47.41
284.471	37.65
284.687	32.32
284.903	29.39
285.119	16.15
285.335	14.32
285.551	15.12
285.767	10.24
285.982	7.58
286.198	9.5
286.414	21.16
286.63	44.81
286.846	44.55
287.061	44.81
287.277	43.35
287.493	50.65
287.709	42.34
287.924	34.27
288.14	28.49
288.356	34.79
288.571	24.03
288.787	28.62
289.003	33.11
289.218	41.02
289.434	34.91
289.65	32.03
289.865	33.97
290.081	31.83
290.296	34.14
290.512	34.68
290.727	42.38
290.943	35.06
291.159	30.96
291.374	34.85
291.59	37.12
291.805	41.54
292.021	30.51
292.236	15.31
292.451	32.85
292.667	33.23
292.882	20.34
293.098	22.58
293.313	14.82
293.529	15.97
293.744	20.17
293.959	22.28
294.175	16.77
294.39	24.65
294.605	23.75
294.821	17.33
295.036	21.27
295.251	17.81
295.467	7.65
295.682	15.73
295.897	13.71
296.112	16.1
296.328	26.14
296.543	23.99
296.758	29.53
296.973	34.22
297.188	33.55
297.404	39.15
297.619	41.58
297.834	36.39
298.049	42.05
298.264	40.48
298.479	35.13
298.694	37.34
298.909	35.44
299.125	35.12
299.34	30.97
299.555	35.31
299.77	35.24
299.985	33.59
300.2	29.73
300.415	36.21
300.63	35.71
300.845	43.18
301.06	38.65
301.275	43.98
301.49	49.2
301.704	53.2
301.919	47.8
302.134	37.58
302.349	26.99
302.564	29.52
302.779	28.57
302.994	22.41
303.209	13.97
303.423	20.78
303.638	37.21
303.853	49.46
304.068	47.13
304.283	38.92
304.497	44.82
304.712	40.78
304.927	34.21
305.142	38.76
305.356	41.35
305.571	34.85
305.786	28.18
306	30.9
306.215	36.53
306.43	42.65
306.644	33.7
306.859	33.69
307.074	37.29
307.288	44.46
307.503	39.04
307.717	38.6
307.932	40.7
308.147	40.41
308.361	36.54
308.576	34.12
308.79	31.87
309.005	34.22
309.219	32.09
309.434	28.52
309.648	22.48
309.863	25.69
310.077	26.07
310.292	34.11
310.506	38.59
310.72	49.64
310.935	51.46
311.149	43.32
311.364	45.99
311.578	45.17
311.792	38.59
312.007	31.66
312.221	24.69
312.435	25.22
312.649	46.24
312.864	35.47
313.078	28.91
313.292	40.61
313.507	45.13
313.721	49.52
313.935	47.92
314.149	35.03
314.363	39.76
314.578	63.3
314.792	54.18
315.006	54.79
315.22	55.21
315.434	53.55
315.648	56.95
315.862	47.24
316.077	28.22
316.291	29.3
316.505	26.43
316.719	19.66
316.933	15.13
317.147	12.23
317.361	19.92
317.575	30.66
317.789	35.39
318.003	30.94
318.217	33.1
318.431	31.95
318.645	37.32
318.859	27.26
319.073	19.2
319.287	17.04
319.5	20.98
319.714	22.35
319.928	31.94
320.142	33.57
320.356	50.37
320.57	51.21
320.784	47.07
320.997	44.46
321.211	47.15
321.425	33.81
321.639	32.64
321.853	24.04
322.066	23.25
322.28	33.96
322.494	39.02
322.707	33.9
322.921	37.94
323.135	40.86
323.349	41.55
323.562	43.9
323.776	38.37
323.989	34.22
324.203	38.47
324.417	33.29
324.63	28.45
324.844	24.49
325.057	34.19
325.271	24.85
325.485	28.83
325.698	29.5
325.912	35.68
326.125	36.22
326.339	36.5
326.552	30.24
326.766	40.13
326.979	38.17
327.193	34
327.406	35.81
327.619	24.85
327.833	26.5
328.046	19.58
328.26	4.88
328.473	9.28
328.686	19.13
328.9	17.97
329.113	22.95
329.326	26.29
329.54	24.09
329.753	34.12
329.966	31.02
330.179	27.01
330.393	24.02
330.606	24.51
330.819	27.42
331.032	32.79
331.246	36.8
331.459	34.21
331.672	31.8
331.885	31.91
332.098	40.58
332.311	22.25
332.525	21.46
332.738	21.56
332.951	18.64
333.164	15.01
333.377	7.64
333.59	5.26
333.803	22.56
334.016	19.98
334.229	8.13
334.442	18.75
334.655	29.79
334.868	43.91
335.081	42.1
335.294	33.59
335.507	40.18
335.72	37.23
335.933	33.38
336.146	33.52
336.359	26.87
336.572	27.9
336.785	36.75
336.997	40.04
337.21	44.22
337.423	44.38
337.636	43.76
337.849	46.21
338.062	43.41
338.274	44.24
338.487	34.65
338.7	38.39
338.913	38.15
339.125	30.63
339.338	38.42
339.551	37.73
339.763	34.03
339.976	34.72
340.189	26.08
340.402	25.45
340.614	29.83
340.827	11.95
341.039	11.49
341.252	8.51
341.465	9.28
341.677	10.4
341.89	11
342.102	15.13
342.315	25.64
342.527	24.59
342.74	23.9
342.952	19.69
343.165	25.42
343.377	31.25
343.59	30.59
343.802	27.14
344.015	29.05
344.227	31.54
344.44	34.39
344.652	32.68
344.864	29.61
345.077	25.37
345.289	29.45
345.502	32.42
345.714	18.42
345.926	21.72
346.139	31.95
346.351	23.57
346.563	29.12
346.775	23.33
346.988	14.85
347.2	26.53
347.412	18.27
347.624	13.56
347.837	19.04
348.049	12.75
348.261	13.64
348.473	14.45
348.685	19.47
348.897	28.7
349.11	27.23
349.322	27.06
349.534	29.79
349.746	40.6
349.958	37.37
350.17	26.07
350.382	14.34
350.594	13.06
350.806	10.54
351.018	18.1
351.23	13.28
351.442	13.62
351.654	24.62
351.866	30.27
352.078	30.39
352.29	38.9
352.502	35.46
352.714	39.32
352.926	41.62
353.138	38.5
353.35	37.11
353.561	33.31
353.773	34.86
353.985	42.05
354.197	40.56
354.409	45.15
354.621	39.14
354.832	32.97
355.044	42.46
355.256	35.09
355.468	28.95
355.679	31.55
355.891	28.52
356.103	29.49
356.314	31.2
356.526	23.48
356.738	26.15
356.949	33.5
357.161	29.95
357.373	32.08
357.584	40.78
357.796	43.17
358.008	42.74
358.219	44.09
358.431	39.84
358.642	36.42
358.854	38.13
359.065	28.37
359.277	30.45
359.488	31.38
359.7	31.33
359.911	27.68
360.123	38.31
360.334	31.06
360.546	28.83
360.757	31.21
360.969	36.72
361.18	31.7
361.391	29.35
361.603	24.29
361.814	26.82
362.025	27.15
362.237	26.41
362.448	21.81
362.659	9.84
362.871	11.14
363.082	20.45
363.293	25.89
363.504	31.44
363.716	26.43
363.927	31.88
364.138	42.94
364.349	43.65
364.56	34.36
364.772	30.9
364.983	26.13
365.194	32.28
365.405	19.81
365.616	15.53
365.827	12.36
366.038	20.51
366.25	25.85
366.461	32.47
366.672	28.14
366.883	38.27
367.094	34.93
367.305	41.57
367.516	40.46
367.727	35.25
367.938	34.9
368.149	41.17
368.36	37.18
368.571	37.8
368.781	31.7
368.992	33.37
369.203	37.66
369.414	37.79
369.625	36.16
369.836	40.87
370.047	39.2
370.258	38.86
370.468	37.47
370.679	34.41
370.89	38.56
371.101	35.17
371.312	34.13
371.522	37.65
371.733	34.78
371.944	35.67
372.155	29.17
372.365	21.56
372.576	21.28
372.787	10.8
372.997	10.43
373.208	19.3
373.419	12.92
373.629	22.49
373.84	17.07
374.05	16.58
374.261	21.58
374.472	22.71
374.682	12.46
374.893	13.41
375.103	10.86
375.314	19.24
375.524	18.92
375.735	22.04
375.945	21.39
376.156	28.78
376.366	31.18
376.577	29.21
376.787	27.26
376.997	28.69
377.208	25.84
377.418	22.31
377.629	13.73
377.839	13.42
378.049	21.5
378.26	20.55
378.47	20.43
378.68	16.06
378.89	15.16
379.101	12.5
379.311	11.43
379.521	4.59
379.732	-2.49
379.942	1.78
380.152	11
380.362	14.3
380.572	21.34
380.783	18.58
380.993	19.33
381.203	25.9
381.413	25.43
381.623	25.7
381.833	25.37
382.043	19.76
382.253	23.71
382.463	26.56
382.674	24.71
382.884	22.29
383.094	22.36
383.304	22.81
383.514	28.78
383.724	22.89
383.934	18.83
384.144	19.4
384.353	16.99
384.563	11.39
384.773	11.38
384.983	6.99
385.193	10.85
385.403	13.64
385.613	8.34
385.823	10.36
386.033	8.6
386.242	9.52
386.452	10.81
386.662	12.32
386.872	8.97
387.082	12.7
387.291	13.84
387.501	17.53
387.711	15.46
387.921	14.7
388.13	13.5
388.34	13.98
388.55	16.71
388.759	14.35
388.969	12.06
389.179	14.59
389.388	14.42
389.598	11.47
389.807	12.35
390.017	8.67
390.227	7.9
390.436	8.49
390.646	9.29
390.855	9.26
391.065	10.24
391.274	8.4
391.484	9.82
391.693	10.49
391.903	10.09
392.112	7.81
392.322	9.15
392.531	9.39
392.74	7.98
392.95	7.99
393.159	7.33
393.369	8.99
393.578	8.32
393.787	6.97
393.997	7.39
394.206	8.27
394.415	7.57
394.625	6.57
394.834	4.21
395.043	4.95
395.252	5.04
395.462	4.45
395.671	4.84
395.88	4.92
396.089	5.42
396.298	6.23
396.508	5.61
396.717	5.4
396.926	5.12
397.135	4.23
397.344	3.94
397.553	4.09
397.762	3.42
397.971	3.46
398.181	3.08
398.39	3.37
398.599	3.93
398.808	4.13
399.017	4.05
399.226	4.56
399.435	4.58
399.644	4.6
399.853	4.64
400.062	4.2
400.27	4.28
400.479	4.19
400.688	4.36
400.897	4.46
401.106	4.58
401.315	4.31
401.524	4.44
401.733	4.41
401.941	4.45
402.15	4.04
402.359	4.08
402.568	4.05
402.777	4.05
402.985	4.09
403.194	4.1
403.403	3.78
403.612	3.82
403.82	3.74
404.029	3.75
404.238	3.82
404.446	3.71
404.655	3.55
404.864	3.65
405.072	3.68
405.281	3.55
405.489	3.59
405.698	3.47
405.906	3.5
406.115	3.48
406.324	3.44
406.532	3.42
406.741	3.45
406.949	3.34
407.158	3.37
407.366	3.36
407.574	3.42
407.783	3.37
407.991	3.24
408.2	3.2
408.408	3.19
408.617	3.15
408.825	3.19
409.033	3.15
409.242	3.17
409.45	3.19
409.658	3.22
409.867	3.22
410.075	3.23
410.283	3.08
410.491	3.02
410.7	3.08
410.908	3.09
411.116	2.99
411.324	3.01
411.533	2.87
411.741	2.94
411.949	2.9
412.157	2.87
412.365	2.93
412.573	2.92
412.781	2.91
412.99	3.06
413.198	3.09
413.406	3.07
413.614	3.09
413.822	3.06
414.03	3.09
414.238	3.14
414.446	3.08
414.654	3.04
414.862	3.09
415.07	3.14
415.278	3.07
415.486	3.1
415.694	2.97
415.902	2.92
416.109	2.97
416.317	2.95
416.525	2.95
416.733	3.07
416.941	3.04
417.149	3.21
417.357	3.26
417.564	3.18
417.772	3.18
417.98	3.09
418.188	2.89
418.395	2.88
418.603	2.68
418.811	2.57
419.019	2.55
419.226	2.6
419.434	2.43
419.642	2.56
419.849	2.6
420.057	2.58
420.265	2.64
420.472	2.63
420.68	2.57
420.887	2.66
421.095	2.6
421.302	2.65
421.51	2.79
421.717	2.83
421.925	2.79
422.132	2.76
422.34	2.76
422.547	2.74
422.755	2.58
422.962	2.48
423.17	2.41
423.377	2.53
423.585	2.57
423.792	2.6
423.999	2.62
424.207	2.61
424.414	2.72
424.621	2.74
424.829	2.6
425.036	2.47
425.243	2.51
425.451	2.51
425.658	2.54
425.865	2.38
426.072	2.51
426.28	2.56
426.487	2.59
426.694	2.5
426.901	2.45
427.108	2.51
427.315	2.57
427.523	2.54
427.73	2.53
427.937	2.54
428.144	2.58
428.351	2.64
428.558	2.53
428.765	2.46
428.972	2.37
429.179	2.33
429.386	2.43
429.593	2.39
429.8	2.5
430.007	2.64
430.214	2.65
430.421	2.68
430.628	2.59
430.835	2.54
431.042	2.63
431.249	2.53
431.456	2.55
431.662	2.6
431.869	2.67
432.076	2.79
432.283	2.76
432.49	2.72
432.697	2.67
432.903	2.64
433.11	2.66
433.317	2.61
433.524	2.54
433.73	2.54
433.937	2.53
434.144	2.63
434.35	2.6
434.557	2.56
434.764	2.47
434.97	2.59
435.177	2.59
435.384	2.69
435.59	2.64
435.797	2.62
436.003	2.57
436.21	2.61
436.416	2.56
436.623	2.62
436.829	2.54
437.036	2.56
437.242	2.62
437.449	2.71
437.655	2.79
437.862	2.82
438.068	2.85
438.275	2.85
438.481	2.89
438.687	2.92
438.894	2.92
439.1	2.9
439.307	2.85
439.513	2.81
439.719	2.83
439.926	2.84
440.132	2.83
440.338	2.84
440.544	2.83
440.751	2.84
440.957	2.78
441.163	2.84
441.369	2.79
441.575	2.8
441.782	2.78
441.988	2.78
442.194	2.87
442.4	3
442.606	3.01
442.812	3.07
443.018	3.13
443.224	3.12
443.431	3.17
443.637	3.12
443.843	3.12
444.049	3.04
444.255	2.97
444.461	2.9
444.667	2.89
444.873	2.83
445.079	2.91
445.284	2.88
445.49	2.88
445.696	2.89
445.902	2.92
446.108	2.96
446.314	3.03
446.52	2.97
446.726	2.96
446.931	2.98
447.137	3.04
447.343	3.05
447.549	3.04
447.755	3
447.96	3.07
448.166	3.13
448.372	3.14
448.578	3.12
448.783	3.07
448.989	3.15
449.195	3.17
449.4	3.14
449.606	3.11
449.812	3.15
450.017	3.18
450.223	3.25
450.428	3.21
450.634	3.19
450.84	3.24
451.045	3.23
451.251	3.22
451.456	3.2
451.662	3.13
451.867	3.15
452.073	3.18
452.278	3.11
452.483	3.1
452.689	3.11
452.894	3.09
453.1	3.1
453.305	3.08
453.51	3.07
453.716	3.08
453.921	3.1
454.127	3.1
454.332	3.12
454.537	3.2
454.742	3.22
454.948	3.28
455.153	3.3
455.358	3.31
455.563	3.29
455.769	3.3
455.974	3.22
456.179	3.18
456.384	3.13
456.589	3.14
456.795	3.13
457	3.13
457.205	3.07
457.41	3.17
457.615	3.22
457.82	3.28
458.025	3.3
458.23	3.32
458.435	3.32
458.64	3.4
458.845	3.31
459.05	3.28
459.255	3.26
459.46	3.24
459.665	3.3
459.87	3.33
460.075	3.33
460.28	3.37
460.485	3.42
460.69	3.33
460.895	3.34
461.099	3.33
461.304	3.33
461.509	3.24
461.714	3.27
461.919	3.22
462.123	3.31
462.328	3.3
462.533	3.27
462.738	3.28
462.942	3.35
463.147	3.37
463.352	3.41
463.556	3.39
463.761	3.42
463.966	3.48
464.17	3.51
464.375	3.5
464.58	3.44
464.784	3.5
464.989	3.54
465.193	3.57
465.398	3.58
465.602	3.55
465.807	3.64
466.011	3.69
466.216	3.59
466.42	3.6
466.625	3.58
466.829	3.58
467.034	3.63
467.238	3.61
467.443	3.64
467.647	3.73
467.851	3.73
468.056	3.76
468.26	3.74
468.464	3.72
468.669	3.75
468.873	3.75
469.077	3.71
469.282	3.8
469.486	3.82
469.69	3.85
469.894	3.94
470.099	3.95
470.303	4.01
470.507	4.05
470.711	3.98
470.915	4
471.119	4.06
471.324	4.04
471.528	4.06
471.732	4.04
471.936	4.09
472.14	4.09
472.344	4.09
472.548	4.1
472.752	4.12
472.956	4.14
473.16	4.14
473.364	4.14
473.568	4.23
473.772	4.24
473.976	4.21
474.18	4.25
474.384	4.23
474.588	4.25
474.792	4.28
474.995	4.29
475.199	4.37
475.403	4.41
475.607	4.39
475.811	4.46
476.015	4.52
476.218	4.52
476.422	4.56
476.626	4.56
476.83	4.59
477.033	4.65
477.237	4.66
477.441	4.7
477.644	4.73
477.848	4.72
478.052	4.73
478.255	4.72
478.459	4.76
478.663	4.78
478.866	4.76
479.07	4.8
479.273	4.81
479.477	4.83
479.681	4.86
479.884	4.83
480.088	4.82
480.291	4.87
480.495	4.88
480.698	4.9
480.901	4.93
481.105	4.95
481.308	4.96
481.512	5
481.715	5
481.919	5
482.122	5.01
482.325	5.01
482.529	5.04
482.732	5.09
482.935	5.12
483.138	5.12
483.342	5.13
483.545	5.17
483.748	5.21
483.952	5.23
484.155	5.23
484.358	5.21
484.561	5.22
484.764	5.25
484.967	5.25
485.171	5.21
485.374	5.19
485.577	5.24
485.78	5.28
485.983	5.27
486.186	5.27
486.389	5.25
486.592	5.29
486.795	5.3
486.998	5.31
487.201	5.32
487.404	5.4
487.607	5.38
487.81	5.43
488.013	5.42
488.216	5.39
488.419	5.36
488.622	5.31
488.825	5.29
489.028	5.3
489.231	5.29
489.433	5.29
489.636	5.29
489.839	5.31
490.042	5.36
490.245	5.38
490.447	5.39
490.65	5.44
490.853	5.45
491.056	5.46
491.258	5.48
491.461	5.45
491.664	5.39
491.866	5.44
492.069	5.44
492.272	5.42
492.474	5.47
492.677	5.46
492.879	5.51
493.082	5.56
493.285	5.54
493.487	5.54
493.69	5.56
493.892	5.6
494.095	5.57
494.297	5.57
494.5	5.59
494.702	5.6
494.905	5.61
495.107	5.61
495.309	5.55
495.512	5.64
495.714	5.69
495.917	5.7
496.119	5.75
496.321	5.83
496.524	5.85
496.726	5.9
496.928	5.94
497.13	5.95
497.333	5.97
497.535	5.96
497.737	5.95
497.939	5.97
498.142	5.98
498.344	5.96
498.546	5.98
498.748	6
498.95	6.01
499.152	6
499.355	6.01
499.557	6.1
499.759	6.17
499.961	6.17
500.163	6.21
500.365	6.23
500.567	6.27
500.769	6.31
500.971	6.23
501.173	6.23
501.375	6.28
501.577	6.29
501.779	6.34
501.981	6.38
502.183	6.42
502.385	6.51
502.587	6.52
502.788	6.52
502.99	6.55
503.192	6.55
503.394	6.57
503.596	6.6
503.798	6.67
503.999	6.71
504.201	6.79
504.403	6.86
504.605	6.92
504.806	6.93
505.008	6.94
505.21	6.93
505.411	7.01
505.613	7.01
505.815	7.01
506.016	7.09
506.218	7.14
506.42	7.22
506.621	7.28
506.823	7.29
507.024	7.32
507.226	7.34
507.427	7.29
507.629	7.34
507.83	7.34
508.032	7.4
508.233	7.41
508.435	7.42
508.636	7.44
508.838	7.51
509.039	7.55
509.24	7.57
509.442	7.5
509.643	7.54
509.845	7.58
510.046	7.63
510.247	7.68
510.448	7.7
510.65	7.78
510.851	7.89
511.052	7.94
511.254	7.95
511.455	7.97
511.656	7.98
511.857	8.05
512.058	8.03
512.26	8.02
512.461	8.05
512.662	8.07
512.863	8.12
513.064	8.15
513.265	8.17
513.466	8.25
513.667	8.28
513.868	8.31
514.069	8.36
514.27	8.36
514.471	8.4
514.672	8.43
514.873	8.43
515.074	8.5
515.275	8.5
515.476	8.53
515.677	8.55
515.878	8.56
516.079	8.6
516.28	8.61
516.481	8.6
516.682	8.67
516.882	8.67
517.083	8.72
517.284	8.7
517.485	8.68
517.686	8.67
517.886	8.71
518.087	8.73
518.288	8.76
518.488	8.8
518.689	8.85
518.89	8.93
519.091	9
519.291	9.01
519.492	9
519.692	9.06
519.893	9.06
520.094	9.08
520.294	9.06
520.495	9.04
520.695	9.04
520.896	9.05
521.096	9.05
521.297	9.05
521.497	9.08
521.698	9.12
521.898	9.2
522.099	9.26
522.299	9.3
522.499	9.32
522.7	9.39
522.9	9.39
523.101	9.41
523.301	9.38
523.501	9.39
523.702	9.41
523.902	9.43
524.102	9.43
524.302	9.45
524.503	9.45
524.703	9.53
524.903	9.56
525.103	9.6
525.304	9.6
525.504	9.63
525.704	9.66
525.904	9.71
526.104	9.72
526.304	9.73
526.504	9.73
526.705	9.79
526.905	9.81
527.105	9.85
527.305	9.86
527.505	9.89
527.705	9.9
527.905	9.92
528.105	9.93
528.305	9.96
528.505	9.95
528.705	9.97
528.905	10
529.105	10.02
529.304	10.07
529.504	10.06
529.704	10.11
529.904	10.12
530.104	10.16
530.304	10.2
530.503	10.25
530.703	10.3
530.903	10.35
531.103	10.36
531.303	10.45
531.502	10.44
531.702	10.4
531.902	10.4
532.101	10.41
532.301	10.43
532.501	10.42
532.7	10.41
532.9	10.49
533.1	10.54
533.299	10.59
533.499	10.61
533.698	10.65
533.898	10.68
534.097	10.71
534.297	10.71
534.496	10.74
534.696	10.77
534.895	10.85
535.095	10.9
535.294	10.95
535.494	10.98
535.693	11.05
535.892	11.08
536.092	11.11
536.291	11.11
536.491	11.12
536.69	11.15
536.889	11.16
537.088	11.16
537.288	11.23
537.487	11.29
537.686	11.34
537.886	11.4
538.085	11.44
538.284	11.51
538.483	11.59
538.682	11.61
538.882	11.61
539.081	11.63
539.28	11.66
539.479	11.72
539.678	11.78
539.877	11.79
540.076	11.84
540.275	11.92
540.474	11.95
540.673	12.03
540.872	12.07
541.071	12.1
541.27	12.15
541.469	12.21
541.668	12.24
541.867	12.33
542.066	12.37
542.265	12.44
542.464	12.49
542.663	12.55
542.862	12.57
543.06	12.62
543.259	12.65
543.458	12.69
543.657	12.74
543.856	12.81
544.054	12.87
544.253	12.93
544.452	12.94
544.651	13.01
544.849	13.06
545.048	13.12
545.247	13.16
545.445	13.2
545.644	13.29
545.843	13.38
546.041	13.48
546.24	13.57
546.438	13.63
546.637	13.75
546.836	13.82
547.034	13.86
547.233	13.96
547.431	14.02
547.63	14.09
547.828	14.17
548.027	14.21
548.225	14.34
548.423	14.45
548.622	14.56
548.82	14.65
549.019	14.7
549.217	14.8
549.415	14.88
549.614	14.93
549.812	15.02
550.01	15.05
550.209	15.12
550.407	15.25
550.605	15.34
550.803	15.45
551.002	15.54
551.2	15.68
551.398	15.8
551.596	15.91
551.794	15.97
551.993	16.04
552.191	16.17
552.389	16.29
552.587	16.35
552.785	16.48
552.983	16.58
553.181	16.71
553.379	16.83
553.577	16.96
553.775	17.06
553.973	17.18
554.171	17.27
554.369	17.4
554.567	17.52
554.765	17.6
554.963	17.71
555.161	17.84
555.359	17.93
555.557	18.06
555.755	18.17
555.952	18.33
556.15	18.46
556.348	18.57
556.546	18.71
556.744	18.86
556.941	19.01
557.139	19.17
557.337	19.29
557.535	19.48
557.732	19.64
557.93	19.72
558.128	19.87
558.325	20
558.523	20.06
558.721	20.23
558.918	20.32
559.116	20.45
559.313	20.64
559.511	20.77
559.708	20.91
559.906	21.1
560.104	21.24
560.301	21.34
560.498	21.47
560.696	21.57
560.893	21.74
561.091	21.93
561.288	22.06
561.486	22.16
561.683	22.33
561.88	22.45
562.078	22.62
562.275	22.77
562.473	22.86
562.67	22.99
562.867	23.16
563.064	23.3
563.262	23.51
563.459	23.68
563.656	23.81
563.853	23.95
564.051	24.09
564.248	24.23
564.445	24.38
564.642	24.49
564.839	24.63
565.036	24.78
565.234	24.92
565.431	25.08
565.628	25.21
565.825	25.35
566.022	25.45
566.219	25.5
566.416	25.63
566.613	25.78
566.81	25.89
567.007	26.04
567.204	26.16
567.401	26.38
567.598	26.52
567.795	26.58
567.991	26.65
568.188	26.72
568.385	26.76
568.582	26.9
568.779	26.96
568.976	27.11
569.172	27.26
569.369	27.33
569.566	27.42
569.763	27.6
569.96	27.62
570.156	27.71
570.353	27.76
570.55	27.87
570.746	27.95
570.943	28.08
571.14	28.09
571.336	28.17
571.533	28.2
571.729	28.28
571.926	28.3
572.123	28.36
572.319	28.39
572.516	28.5
572.712	28.61
572.909	28.65
573.105	28.76
573.302	28.84
573.498	28.95
573.695	29.04
573.891	29.05
574.087	29.06
574.284	29.14
574.48	29.07
574.677	29.12
574.873	29.15
575.069	29.2
575.266	29.25
575.462	29.27
575.658	29.32
575.854	29.4
576.051	29.36
576.247	29.33
576.443	29.36
576.639	29.39
576.835	29.44
577.032	29.45
577.228	29.5
577.424	29.56
577.62	29.65
577.816	29.64
578.012	29.64
578.208	29.64
578.404	29.71
578.6	29.71
578.796	29.76
578.993	29.71
579.189	29.67
579.384	29.7
579.58	29.7
579.776	29.64
579.972	29.66
580.168	29.63
580.364	29.66
580.56	29.74
580.756	29.72
580.952	29.72
581.148	29.73
581.343	29.74
581.539	29.69
581.735	29.65
581.931	29.6
582.127	29.58
582.322	29.59
582.518	29.56
582.714	29.49
582.909	29.48
583.105	29.47
583.301	29.43
583.496	29.37
583.692	29.35
583.888	29.34
584.083	29.36
584.279	29.41
584.474	29.39
584.67	29.41
584.866	29.44
585.061	29.44
585.257	29.47
585.452	29.45
585.648	29.39
585.843	29.44
586.039	29.41
586.234	29.4
586.429	29.41
586.625	29.39
586.82	29.42
587.015	29.46
587.211	29.47
587.406	29.55
587.601	29.6
587.797	29.62
587.992	29.64
588.187	29.65
588.383	29.64
588.578	29.62
588.773	29.58
588.968	29.58
589.163	29.6
589.359	29.6
589.554	29.58
589.749	29.63
589.944	29.66
590.139	29.74
590.334	29.75
590.529	29.78
590.724	29.79
590.919	29.9
591.114	29.93
591.309	30.03
591.504	30.09
591.699	30.16
591.894	30.25
592.089	30.35
592.284	30.32
592.479	30.36
592.674	30.4
592.869	30.45
593.064	30.55
593.259	30.54
593.454	30.61
593.648	30.76
593.843	30.82
594.038	30.92
594.233	30.99
594.428	31.03
594.622	31.11
594.817	31.15
595.012	31.19
595.206	31.26
595.401	31.27
595.596	31.36
595.79	31.45
595.985	31.62
596.18	31.8
596.374	31.91
596.569	32.04
596.763	32.21
596.958	32.33
597.153	32.45
597.347	32.52
597.542	32.59
597.736	32.72
597.931	32.82
598.125	32.9
598.319	32.96
598.514	33
598.708	33.06
598.903	33.15
599.097	33.19
599.291	33.29
599.486	33.38
599.68	33.46
599.874	33.62
600.069	33.64
600.263	33.64
600.457	33.72
600.651	33.77
600.846	33.81
601.04	33.85
601.234	33.89
601.428	33.96
601.622	33.96
601.817	33.94
602.011	33.99
602.205	33.99
602.399	34.04
602.593	34.03
602.787	34.05
602.981	34.17
603.175	34.25
603.369	34.23
603.563	34.23
603.757	34.22
603.951	34.19
604.145	34.17
604.339	34.13
604.533	34.07
604.727	34.06
604.921	34.04
605.115	34.02
605.309	34.02
605.502	34.04
605.696	33.95
605.89	33.98
606.084	33.98
606.278	33.94
606.471	33.89
606.665	33.83
606.859	33.76
607.053	33.8
607.246	33.68
607.44	33.55
607.634	33.47
607.827	33.38
608.021	33.29
608.214	33.28
608.408	33.14
608.602	33.1
608.795	33.04
608.989	33.02
609.182	33.02
609.376	32.89
609.569	32.75
609.763	32.74
609.956	32.61
610.15	32.54
610.343	32.39
610.537	32.27
610.73	32.25
610.923	32.17
611.117	32.03
611.31	31.98
611.504	31.94
611.697	31.87
611.89	31.81
612.083	31.66
612.277	31.53
612.47	31.45
612.663	31.39
612.856	31.22
613.05	31.11
613.243	31.01
613.436	30.94
613.629	30.94
613.822	30.83
614.015	30.7
614.209	30.68
614.402	30.64
614.595	30.5
614.788	30.43
614.981	30.3
615.174	30.25
615.367	30.15
615.56	29.99
615.753	29.88
615.946	29.85
616.139	29.79
616.332	29.72
616.525	29.69
616.718	29.56
616.911	29.54
617.103	29.45
617.296	29.39
617.489	29.33
617.682	29.28
617.875	29.13
618.067	29.14
618.26	29.11
618.453	29.08
618.646	28.99
618.838	28.9
619.031	28.82
619.224	28.84
619.417	28.74
619.609	28.65
619.802	28.63
619.994	28.59
620.187	28.58
620.38	28.57
620.572	28.53
620.765	28.5
620.957	28.42
621.15	28.33
621.342	28.33
621.535	28.23
621.727	28.17
621.92	28.1
622.112	28.11
622.305	28.08
622.497	28.06
622.69	27.98
622.882	27.99
623.074	27.98
623.267	27.93
623.459	27.9
623.651	27.91
623.844	27.94
624.036	27.95
624.228	27.9
624.42	27.86
624.613	27.86
624.805	27.83
624.997	27.8
625.189	27.76
625.381	27.69
625.574	27.66
625.766	27.6
625.958	27.56
626.15	27.54
626.342	27.52
626.534	27.38
626.726	27.37
626.918	27.3
627.11	27.26
627.302	27.19
627.494	27.19
627.686	27.12
627.878	27.12
628.07	27.08
628.262	27.07
628.454	27.07
628.646	27.05
628.838	26.92
629.029	26.82
629.221	26.78
629.413	26.7
629.605	26.65
629.797	26.6
629.989	26.56
630.18	26.52
630.372	26.54
630.564	26.52
630.755	26.46
630.947	26.43
631.139	26.37
631.33	26.31
631.522	26.26
631.714	26.2
631.905	26.12
632.097	26.15
632.289	26.09
632.48	25.99
632.672	25.95
632.863	25.92
633.055	25.92
633.246	25.92
633.438	25.87
633.629	25.91
633.821	25.96
634.012	25.95
634.203	26.01
634.395	26.03
634.586	26.01
634.777	25.98
634.969	25.92
635.16	25.87
635.351	25.84
635.543	25.77
635.734	25.69
635.925	25.7
636.117	25.69
636.308	25.66
636.499	25.67
636.69	25.73
636.881	25.72
637.073	25.71
637.264	25.69
637.455	25.74
637.646	25.77
637.837	25.78
638.028	25.77
638.219	25.73
638.41	25.74
638.601	25.69
638.792	25.6
638.983	25.48
639.174	25.48
639.365	25.37
639.556	25.36
639.747	25.37
639.938	25.43
640.129	25.4
640.32	25.43
640.511	25.36
640.701	25.32
640.892	25.28
641.083	25.23
641.274	25.11
641.465	25.11
641.655	25.13
641.846	25.09
642.037	25.09
642.228	25.06
642.418	25
642.609	24.97
642.8	24.91
642.99	24.9
643.181	24.95
643.372	24.86
643.562	24.8
643.753	24.74
643.943	24.7
644.134	24.69
644.324	24.61
644.515	24.52
644.705	24.55
644.896	24.51
645.086	24.5
645.277	24.49
645.467	24.43
645.658	24.42
645.848	24.4
646.038	24.35
646.229	24.34
646.419	24.35
646.61	24.34
646.8	24.36
646.99	24.3
647.18	24.31
647.371	24.29
647.561	24.28
647.751	24.17
647.941	24.1
648.132	24.02
648.322	23.98
648.512	23.95
648.702	23.89
648.892	23.86
649.082	23.84
649.272	23.78
649.462	23.79
649.653	23.82
649.843	23.78
650.033	23.74
650.223	23.7
650.413	23.71
650.603	23.74
650.793	23.63
650.983	23.52
651.172	23.43
651.362	23.39
651.552	23.32
651.742	23.22
651.932	23.15
652.122	23.17
652.312	22.98
652.502	22.82
652.691	22.72
652.881	22.65
653.071	22.5
653.261	22.34
653.45	22.17
653.64	22.2
653.83	22.13
654.019	21.98
654.209	21.78
654.399	21.71
654.588	21.55
654.778	21.38
654.968	21.16
655.157	20.98
655.347	20.81
655.536	20.62
655.726	20.43
655.915	20.25
656.105	20.13
656.294	19.95
656.484	19.77
656.673	19.57
656.863	19.4
657.052	19.11
657.241	18.88
657.431	18.55
657.62	18.24
657.809	17.98
657.999	17.76
658.188	17.52
658.377	17.42
658.567	17.19
658.756	17.02
658.945	16.88
659.134	16.65
659.324	16.42
659.513	16.19
659.702	15.88
659.891	15.65
660.08	15.41
660.269	15.21
660.458	15
660.648	14.76
660.837	14.56
661.026	14.33
661.215	14.12
661.404	13.87
661.593	13.62
661.782	13.43
661.971	13.2
662.16	12.96
662.349	12.77
662.538	12.55
662.726	12.37
662.915	12.19
663.104	11.95
663.293	11.78
663.482	11.63
663.671	11.47
663.86	11.33
664.048	11.17
664.237	10.95
664.426	10.87
664.615	10.74
664.803	10.57
664.992	10.45
665.181	10.29
665.369	10.14
665.558	10.07
665.747	9.95
665.935	9.83
666.124	9.82
666.312	9.69
666.501	9.64
666.69	9.55
666.878	9.45
667.067	9.39
667.255	9.37
667.444	9.25
667.632	9.16
667.82	9.07
668.009	9.08
668.197	9.09
668.386	9.01
668.574	8.94
668.762	8.88
668.951	8.86
669.139	8.87
669.327	8.81
669.516	8.75
669.704	8.74
669.892	8.69
670.08	8.68
670.269	8.71
670.457	8.69
670.645	8.7
670.833	8.7
671.021	8.7
671.21	8.8
671.398	8.84
671.586	8.83
671.774	8.82
671.962	8.81
672.15	8.81
672.338	8.79
672.526	8.77
672.714	8.79
672.902	8.8
673.09	8.83
673.278	8.86
673.466	9
673.654	9.02
673.842	9.07
674.03	9.14
674.218	9.25
674.405	9.41
674.593	9.53
674.781	9.53
674.969	9.69
675.157	9.72
675.344	9.8
675.532	9.86
675.72	9.87
675.908	9.91
676.095	10.08
676.283	10.07
676.471	10.21
676.658	10.34
676.846	10.48
677.033	10.6
677.221	10.8
677.409	10.85
677.596	11.08
677.784	11.22
677.971	11.29
678.159	11.37
678.346	11.47
678.534	11.61
678.721	11.72
678.909	11.75
679.096	11.76
679.283	11.89
679.471	12.07
679.658	12.22
679.846	12.3
680.033	12.48
680.22	12.65
680.408	12.9
680.595	13.01
680.782	13.14
680.969	13.23
681.157	13.37
681.344	13.54
681.531	13.76
681.718	13.97
681.905	14.24
682.093	14.53
682.28	14.86
682.467	15.09
682.654	15.31
682.841	15.57
683.028	15.86
683.215	16.13
683.402	16.21
683.589	16.48
683.776	16.81
683.963	17.05
684.15	17.35
684.337	17.58
684.524	17.91
684.711	18.32
684.898	18.6
685.085	18.91
685.271	19.3
685.458	19.69
685.645	20.12
685.832	20.55
686.019	20.99
686.205	21.4
686.392	21.89
686.579	22.3
686.766	22.82
686.952	23.39
687.139	23.88
687.326	24.44
687.512	25.06
687.699	25.49
687.886	26.1
688.072	26.67
688.259	27.15
688.445	27.67
688.632	28.34
688.818	28.88
689.005	29.68
689.191	30.31
689.378	30.9
689.564	31.58
689.751	32.3
689.937	32.9
690.124	33.61
690.31	34.16
690.496	34.78
690.683	35.49
690.869	36.16
691.055	37
691.242	37.65
691.428	38.52
691.614	39.32
691.8	40.15
691.987	40.98
692.173	41.93
692.359	42.64
692.545	43.53
692.731	44.34
692.918	45.15
693.104	46
693.29	46.75
693.476	47.3
693.662	48.03
693.848	48.66
694.034	49.23
694.22	49.99
694.406	50.74
694.592	51.38
694.778	52.13
694.964	52.76
695.15	53.55
695.336	54.47
695.522	55.11
695.708	55.71
695.894	56.47
696.08	57.12
696.265	57.74
696.451	58.52
696.637	59
696.823	59.61
697.009	60.32
697.194	61.06
697.38	61.66
697.566	62.32
697.751	62.75
697.937	63.37
698.123	64.06
698.308	64.55
698.494	64.98
698.68	65.73
698.865	66.46
699.051	67.13
699.236	67.63
699.422	68.21
699.607	68.72
699.793	69.18
699.978	69.41
700.164	69.76
700.349	70.29
700.535	70.8
700.72	71.19
700.906	71.74
701.091	72.14
701.276	72.69
701.462	73.15
701.647	73.32
701.832	73.81
702.018	74.09
702.203	74.34
702.388	74.6
702.573	75.03
702.759	75.37
702.944	75.92
703.129	76.11
703.314	76.66
703.499	77.11
703.684	77.62
703.87	77.98
704.055	78.32
704.24	78.72
704.425	79.32
704.61	79.51
704.795	79.71
704.98	79.99
705.165	80.24
705.35	80.58
705.535	80.86
705.72	80.88
705.905	80.89
706.09	81.3
706.275	81.55
706.459	81.97
706.644	82.17
706.829	82.14
707.014	82.28
707.199	82.72
707.384	82.79
707.568	83.06
707.753	83.34
707.938	83.42
708.123	83.54
708.307	84.1
708.492	84.25
708.677	84.49
708.861	84.4
709.046	84.34
709.231	84.58
709.415	84.89
709.6	84.68
709.784	85.01
709.969	85.24
710.153	85.85
710.338	85.84
710.522	85.95
710.707	85.77
710.891	86.15
711.076	85.97
711.26	86.12
711.445	85.93
711.629	86.47
711.813	86.41
711.998	86.76
712.182	86.84
712.366	87.31
712.551	87.51
712.735	87.64
712.919	87.62
713.103	87.83
713.288	88.28
713.472	88.35
713.656	88.08
713.84	87.99
714.024	88.35
714.208	88.33
714.393	88.48
714.577	88.39
714.761	88.5
714.945	88.77
715.129	88.97
715.313	88.83
715.497	88.98
715.681	89.45
715.865	89.43
716.049	89.62
716.233	89.93
716.417	90.16
716.601	90.33
716.785	90.41
716.968	90.01
717.152	90.14
717.336	90.13
717.52	89.98
717.704	89.81
717.888	89.83
718.071	89.87
718.255	90.04
718.439	90.07
718.622	90.21
718.806	90.31
718.99	90.63
719.174	90.74
719.357	90.96
719.541	91.04
719.724	91.1
719.908	91.02
720.092	91.27
720.275	91.22
720.459	91.27
720.642	91.08
720.826	91.44
721.009	91.47
721.193	91.52
721.376	91.54
721.559	91.67
721.743	91.72
721.926	91.71
722.11	91.6
722.293	91.47
722.476	91.5
722.66	91.28
722.843	91.41
723.026	91.66
723.21	92.19
723.393	92.29
723.576	92.49
723.759	92.69
723.942	93.04
724.126	93.07
724.309	93.01
724.492	92.73
724.675	92.94
724.858	93.11
725.041	93.16
725.224	93.23
725.407	93.06
725.59	93.08
725.774	93.4
725.957	93.42
726.14	93.58
726.322	93.6
726.505	93.75
726.688	93.97
726.871	94.13
727.054	94.2
727.237	93.97
727.42	94.18
727.603	94.43
727.786	94.55
727.968	94.96
728.151	95.12
728.334	95.14
728.517	95.37
728.699	95.51
728.882	95.95
729.065	95.45
729.248	95.11
729.43	94.88
729.613	94.81
729.796	95.01
729.978	94.88
730.161	94.32
730.343	95.11
730.526	95.49
730.708	96.22
730.891	96.43
731.073	96.54
731.256	96.8
731.438	97.66
731.621	97.71
731.803	97.85
731.986	97.59
732.168	97.51
732.35	97.99
732.533	98.36
732.715	98.3
732.898	97.94
733.08	97.72
733.262	97.69
733.444	97.68
733.627	97.46
733.809	97.53
733.991	97.49
734.173	97.72
734.355	98.15
734.538	98.3
734.72	98.58
734.902	98.45
735.084	98.42
735.266	98.43
735.448	98.5
735.63	98.56
735.812	98.48
735.994	98.12
736.176	98.53
736.358	98.6
736.54	98.44
736.722	98.39
736.904	98.33
737.086	98.46
737.268	99.05
737.45	98.81
737.632	98.36
737.814	98.57
737.995	99.11
738.177	99.58
738.359	100.15
738.541	100.05
738.723	100.13
738.904	100.28
739.086	100.15
739.268	99.96
739.449	99.86
739.631	100.01
739.813	99.98
739.994	100.6
740.176	100.98
740.358	101.04
740.539	101.2
740.721	100.82
740.902	100.48
741.084	100.87
741.265	100.57
741.447	99.8
741.628	99.89
741.81	99.84
741.991	100.21
742.172	99.75
742.354	100.04
742.535	100.13
742.717	101.18
742.898	101.59
743.079	101.74
743.261	101.62
743.442	101.92
743.623	101.75
743.804	101.66
743.986	101.37
744.167	100.16
744.348	100.44
744.529	99.95
744.71	99.67
744.891	99.58
745.073	99.55
745.254	98.94
745.435	99.43
745.616	98.65
745.797	98.85
745.978	99.5
746.159	99.1
746.34	99.18
746.521	99.39
746.702	99.25
746.883	99.39
747.064	99.04
747.245	99.62
747.426	100.1
747.606	99.99
747.787	101.04
747.968	101.81
748.149	101.88
748.33	102.91
748.51	102.03
748.691	102.15
748.872	102.12
749.053	101.06
749.233	100.69
749.414	100.95
749.595	100.24
749.775	100.13
749.956	98.86
750.137	98.44
750.317	98.33
750.498	98.34
750.678	98.66
750.859	98.45
751.04	98.36
751.22	98.97
751.4	99.53
751.581	99.84
751.761	100.07
751.942	99.33
752.122	99.37
752.303	99.68
752.483	100.63
752.663	100.43
752.844	99.59
753.024	100.17
753.204	100.25
753.385	99.93
753.565	99.29
753.745	98.49
753.925	98.73
754.106	99.85
754.286	99.05
754.466	98.36
754.646	98.44
754.826	98.72
755.006	98.18
755.187	97.91
755.367	97.13
755.547	97.03
755.727	96.92
755.907	97.9
756.087	98.01
756.267	98.47
756.447	98.25
756.627	98.59
756.807	99.18
756.987	100.9
757.167	100.47
757.346	99.53
757.526	99.98
757.706	100.42
757.886	100.88
758.066	100.4
758.246	99.73
758.425	99.79
758.605	100.17
758.785	99.49
758.965	97.98
759.144	97.88
759.324	98.18
759.504	98.28
759.683	97.53
759.863	97.51
760.043	98.02
760.222	98.41
760.402	98.72
760.581	98.3
760.761	97.06
760.94	96.76
761.12	97.05
761.299	95.89
761.479	97.54
761.658	96.58
761.838	95.98
762.017	96.9
762.197	97.84
762.376	97.14
762.555	97.78
762.735	96.38
762.914	96.84
763.093	97.47
763.273	97.2
763.452	96.77
763.631	96.6
763.81	96.87
763.99	97.24
764.169	96.89
764.348	97.46
764.527	96.54
764.706	97.05
764.885	98.09
765.064	98
765.243	97.84
765.423	97.99
765.602	96.64
765.781	97.09
765.96	97.08
766.139	95.69
766.318	95.74
766.497	95.83
766.676	96.05
766.854	95.74
767.033	96.71
767.212	96.89
767.391	97.45
767.57	97.46
767.749	96.75
767.928	95.4
768.106	96.49
768.285	96.3
768.464	95.92
768.643	96.51
768.821	96.66
769	97.73
769.179	97.06
769.357	96.42
769.536	95.71
769.715	95.1
769.893	94.48
770.072	93.93
770.25	92.86
770.429	94.99
770.607	95.2
770.786	95.4
770.964	94.15
771.143	94.65
771.321	94.57
771.5	94.6
771.678	94.29
771.857	93.32
772.035	92.85
772.213	94.21
772.392	94.42
772.57	93.88
772.748	93.18
772.927	92.06
773.105	93.39
773.283	93.12
773.461	92.12
773.64	90.68
773.818	90.54
773.996	90.49
774.174	91.45
774.352	90.42
774.531	90.03
774.709	91.09
774.887	91.41
775.065	91.67
775.243	93.3
775.421	93
775.599	92.44
775.777	93.39
775.955	92.77
776.133	91.47
776.311	90.93
776.489	90.21
776.667	89.78
776.844	90.95
777.022	90.12
777.2	89.39
777.378	91.25
777.556	92.37
777.734	92.45
777.911	93.69
778.089	92.92
778.267	93.25
778.445	93.69
778.622	92.63
778.8	92.04
778.978	91.79
779.155	89.76
779.333	88.02
779.511	88.53
779.688	87.75
779.866	86.64
780.043	87.56
780.221	86.89
780.398	88.07
780.576	89.19
780.753	87.9
780.931	90.55
781.108	91.71
781.286	90.25
781.463	90.13
781.64	89.33
781.818	89.54
781.995	91.17
782.172	89.33
782.35	89.39
782.527	90.82
782.704	90.7
782.882	90.76
783.059	90.73
783.236	90.45
783.413	90.97
783.59	90.61
783.768	90.3
783.945	91.32
784.122	91.97
784.299	92.26
784.476	91.83
784.653	90.91
784.83	90.34
785.007	89.67
785.184	90.64
785.361	89.73
785.538	90.78
785.715	89.81
785.892	89.24
786.069	90.5
786.246	89.1
786.423	89.11
786.6	88.44
786.776	87.3
786.953	86.86
787.13	88.55
787.307	88.35
787.484	89.73
787.66	87.48
787.837	88.13
788.014	88.66
788.191	89.38
788.367	88.44
788.544	88.05
788.721	86.96
788.897	89.95
789.074	89.93
789.25	91.12
789.427	92.4
789.603	94.08
789.78	94.22
789.956	93.94
790.133	92.39
790.309	93.38
790.486	93.98
790.662	94.5
790.839	93.99
791.015	95.72
791.192	96.85
791.368	97.13
791.544	96.69
791.721	92.09
791.897	90.92
792.073	89.28
792.249	90.03
792.426	89.9
792.602	87.8
792.778	87.7
792.954	89.33
793.13	91.54
793.307	89.8
793.483	88.44
793.659	90.8
793.835	90.96
794.011	90.1
794.187	89.87
794.363	88.75
794.539	90.53
794.715	88.16
794.891	84.36
795.067	85.26
795.243	86.8
795.419	89.26
795.595	85.43
795.771	84.78
795.947	85.15
796.122	85.77
796.298	87.13
796.474	87.28
796.65	85.67
796.826	88.94
797.001	90.16
797.177	91.54
797.353	93.43
797.529	95.12
797.704	94.37
797.88	93.52
798.056	95.34
798.231	93.89
798.407	96.2
798.582	97.54
798.758	93.77
798.934	94.07
799.109	91.85
799.285	91.13
799.46	93.99
799.636	92.56
799.811	94.03
799.986	96.92
800.162	95.2
800.337	96.11
800.513	96.99
800.688	98.64
800.863	96.18
801.039	92.23
801.214	90.03
801.389	89.76
801.565	93.77
801.74	90.52
801.915	87.18
802.09	86.3
802.265	87.34
802.441	85.58
802.616	85.89
802.791	85.56
802.966	83.16
803.141	80.07
803.316	85.9
803.491	84.03
803.666	86.17
803.841	88.36
804.016	87.49
804.191	91.8
804.366	95.39
804.541	89.23
804.716	88.55
804.891	90.38
805.066	88.83
805.241	84.03
805.416	81.41
805.591	82.59
805.765	84.62
805.94	85.48
806.115	82.12
806.29	82.04
806.464	84.57
806.639	85.31
806.814	78.44
806.989	77.25
807.163	75.93
807.338	76.44
807.512	73.68
807.687	72.83
807.862	76.11
808.036	79.63
808.211	81.78
808.385	80.49
808.56	84.05
808.734	85.87
808.909	87.55
809.083	83.76
809.258	87.16
809.432	83.33
809.606	84.78
809.781	81.45
809.955	83.32
810.13	86.81
810.304	84.34
810.478	84.46
810.652	88.01
810.827	87.86
811.001	89.26
811.175	84.24
811.349	83.17
811.524	84.3
811.698	83.61
811.872	86.08
812.046	84.66
812.22	83.8
812.394	86.28
812.568	85.99
812.742	84.65
812.916	85.39
813.09	78.93
813.264	81.98
813.438	82.05
813.612	81.03
813.786	80.15
813.96	86.61
814.134	84.58
814.308	85.1
814.482	85.04
814.656	87.04
814.83	88.33
815.003	87.97
815.177	87.45
815.351	90
815.525	90.9
815.698	91.77
815.872	87.62
816.046	85.54
816.219	88.34
816.393	79.14
816.567	74.74
816.74	77.57
816.914	80.92
817.088	81.3
817.261	81.98
817.435	75.13
817.608	82.06
817.782	84.67
817.955	80.05
818.129	75.19
818.302	75.42
818.475	81.93
818.649	83.11
818.822	85.15
818.996	82.53
819.169	86.39
819.342	83.28
819.516	82.75
819.689	82.85
819.862	83.82
820.035	79.62
820.209	78.85
820.382	77.97
820.555	80.4
820.728	79.72
820.901	76.53
821.075	77
821.248	77.23
821.421	72.59
821.594	69.84
821.767	72.61
821.94	69.02
822.113	73.74
822.286	77.92
822.459	85.79
822.632	94.37
822.805	96.41
822.978	94.21
823.151	101.07
823.324	91.72
823.496	81.04
823.669	80.41
823.842	79.79
824.015	78.8
824.188	80.84
824.361	78.71
824.533	77.55
824.706	93.95
824.879	90.5
825.051	86.16
825.224	83.6
825.397	74.4
825.569	79.94
825.742	85.97
825.915	77.29
826.087	66.58
826.26	66.82
826.432	78.02
826.605	73.7
826.777	63.63
826.95	53.77
827.122	63.6
827.295	74.12
827.467	76.21
827.64	59.13
827.812	65.66
827.984	74.74
828.157	80.2
828.329	77.05
828.501	70.35
828.674	68.66
828.846	74.35
829.018	75.13
829.19	71.17
829.363	69.77
829.535	62.26
829.707	63
829.879	68.47
830.051	71.68
830.223	65.77
830.395	64.03
830.568	68.19
830.74	75.42
830.912	76.17
831.084	70.77
831.256	66.93
831.428	70.62
831.6	69.52
831.772	68.43
831.943	71.8
832.115	80.6
832.287	84.66
832.459	89.9
832.631	89.75
832.803	102.57
832.975	105.68
833.146	96.08
833.318	86.75
833.49	88.54
833.662	89.28
833.833	92.47
834.005	79.43
834.177	76.93
834.348	75.19
834.52	79.07
834.692	76.74
834.863	73.87
835.035	61.75
835.206	64.14
835.378	64.76
835.549	67.64
835.721	59.46
835.892	61.3
836.064	61.07
836.235	71.27
836.407	69.69
836.578	71.19
836.749	76.25
836.921	76.2
837.092	81.96
837.264	79.71
837.435	66.89
837.606	65.81
837.777	60.87
837.949	48.53
838.12	54.31
838.291	57.71
838.462	60.69
838.633	69.4
838.805	70.28
838.976	69.5
839.147	72.24
839.318	69.49
839.489	60.95
839.66	69.63
839.831	70.21
840.002	68.29
840.173	77.39
840.344	84.37
840.515	79.63
840.686	85.69
840.857	72.78
841.028	67.87
841.199	71.24
841.369	68.89
841.54	66.65
841.711	75.36
841.882	63.82
842.053	69.96
842.223	80.69
842.394	70.95
842.565	73.45
842.736	83.08
842.906	92.61
843.077	85.96
843.248	89.92
843.418	79.76
843.589	91.17
843.759	88.24
843.93	81.32
844.101	76.07
844.271	80.5
844.442	81.96
844.612	91.74
844.783	72.38
844.953	74.37
845.123	80.03
845.294	80.68
845.464	89.16
845.635	84.42
845.805	83.07
845.975	88.89
846.146	93.89
846.316	112.08
846.486	111.86
846.656	103.81
846.827	97.2
846.997	103.14
847.167	103.43
847.337	102.78
847.507	94.01
847.677	99.05
847.848	92.97
848.018	93.26
848.188	86.55
848.358	85.52
848.528	92.94
848.698	76.33
848.868	57.52
849.038	82.17
849.208	88.06
849.378	71.31
849.548	74.65
849.718	75.33
849.887	83.24
850.057	86.78
850.227	71.81
850.397	61.06
850.567	83.76
850.737	83.74
850.906	68.6
851.076	79.94
851.246	75.12
851.415	79.11
851.585	84.78
851.755	85.41
851.924	86.26
852.094	84.64
852.264	67.65
852.433	75.01
852.603	79.3
852.772	73.19
852.942	62.22
853.111	68.15
853.281	65.32
853.45	73.27
853.62	63.91
853.789	50.64
853.959	50.89
854.128	43.88
854.297	32.69
854.467	41.92
854.636	40.17
854.805	55.9
854.975	70.63
855.144	73.98
855.313	85.12
855.482	85.59
855.652	74.25
855.821	71.25
855.99	76.47
856.159	75.12
856.328	66.88
856.497	70.07
856.667	77.94
856.836	80.75
857.005	81.57
857.174	78
857.343	77.75
857.512	78.32
857.681	65.22
857.85	51.84
858.019	61.5
858.188	73.71
858.356	52.85
858.525	49.97
858.694	62.12
858.863	66.72
859.032	65.53
859.201	63.11
859.369	62.63
859.538	64.59
859.707	69.99
859.876	60.71
860.044	76.06
860.213	84.63
860.382	80.75
860.55	94.32
860.719	106.05
860.888	108.2
861.056	129.87
861.225	138.5
861.393	125.71
861.562	117.97
861.73	103.46
861.899	70.73
862.067	69.11
862.236	60.17
862.404	43.13
862.572	45.09
862.741	49.11
862.909	47.96
863.078	57.87
863.246	54.37
863.414	65.15
863.582	73.92
863.751	55.46
863.919	72.25
864.087	71.44
864.255	81.03
864.424	82.02
864.592	72.7
864.76	92.08
864.928	107.65
865.096	87.09
865.264	103.58
865.432	114.7
865.6	109.01
865.768	100.23
865.936	90.14
866.104	99.13
866.272	114.47
866.44	70.34
866.608	37.56
866.776	60.41
866.944	64.16
867.112	38.26
867.28	45.38
867.448	60.7
867.615	92.19
867.783	68.28
867.951	90.1
868.119	114.96
868.286	140.44
868.454	112.08
868.622	110.68
868.789	102.74
868.957	125
869.125	100.6
869.292	98.51
869.46	93.45
869.627	87.5
869.795	90.71
869.963	78.96
870.13	74.17
870.298	77.93
870.465	55.32
870.632	48.68
870.8	36.64
870.967	27.64
871.135	36.79
871.302	36.84
871.469	28.55
871.637	29.97
871.804	31.61
871.971	39.85
872.139	47.26
872.306	46.36
872.473	42.75
872.64	46.31
872.807	70.18
872.975	123.89
873.142	112.49
873.309	147.09
873.476	204.32
873.643	207.8
873.81	247.58
873.977	159.37
874.144	106.57
874.311	126.98
874.478	42.54
874.645	13.26
874.812	45.09
874.979	39.87
875.146	13.55
875.313	44.88
875.48	96.64
875.647	109.52
875.813	134.1
875.98	92.84
876.147	80.28
876.314	82.34
876.481	48.14
876.647	44.96
876.814	56.7
876.981	60.85
877.147	54.62
877.314	50.21
877.481	53.35
877.647	82.39
877.814	74.07
877.98	116.7
878.147	92.86
878.314	90.83
878.48	102.74
878.647	119.58
878.813	105.6
878.979	117.05
879.146	78.3
879.312	104.97
879.479	81.67
879.645	62.67
879.811	73.59
879.978	82.09
880.144	108.38
880.31	95.95
880.477	44.5
880.643	135.36
880.809	142.35
880.975	45.35
881.142	21.55
881.308	-5.64
881.474	34.38
881.64	4.28
881.806	50.37
881.972	38.16
882.138	64.84
882.304	34.89
882.47	52.01
882.636	10.78
882.802	48.11
882.968	-68.49
883.134	-113.57
883.3	9.04
883.466	77.04
883.632	47.83
883.798	81.6
883.964	73.58
884.129	91.94
884.295	71.27
884.461	65.72
884.627	76.92
884.793	76.26
884.958	58.04
885.124	51.91
885.29	50.57
885.455	47.04
885.621	42.97
885.787	15.75
885.952	-5.74
886.118	-0.83
886.283	22.07
886.449	-11.89
886.614	-31.49
886.78	0.48
886.945	11.12
887.111	49.49
887.276	28.12
887.442	17.35
887.607	39.08
887.773	43.65
887.938	30.47
888.103	48.19
888.269	34.21
888.434	39.71
888.599	66.4
888.764	66.28
888.93	71.65
889.095	98.15
889.26	115.65
889.425	108.24
889.59	83.18
889.756	53.27
889.921	60.81
890.086	70.7
890.251	33.19
890.416	-26.5
890.581	5.52
890.746	33.6
890.911	48.61
891.076	28.74
891.241	14.02
891.406	34.87
891.571	70.16
891.736	62.28
891.901	59.33
892.065	57.5
892.23	46.77
892.395	21.64
892.56	57.04
892.725	40.98
892.889	39.87
893.054	41.51
893.219	52.78
893.384	78.35
893.548	332.5
893.713	-72.52
893.878	-106.52
