Data from Ofra_2a_PS_9CX5_Reflection_2.txt Node
Date: Tue Jul 20 09:58:30 EDT 2021
User: Adam
Spectrometer: FLMT01687
Trigger mode: 0
Integration Time (sec): 9.450000E-1
Scans to average: 3
Electric dark correction enabled: true
Nonlinearity correction enabled: false
Boxcar width: 3
XAxis mode: Wavelengths
Number of Pixels in Spectrum: 3648
>>>>>Begin Spectral Data<<<<<
179.494	852.07
179.716	453.96
179.937	439.01
180.158	1810.55
180.38	-541.57
180.601	-101.77
180.823	-1.85
181.044	147.91
181.265	157.54
181.486	62.91
181.708	1131.52
181.929	58.26
182.15	564.2
182.372	41.43
182.593	10.53
182.814	173.8
183.035	236.47
183.257	94.87
183.478	76.34
183.699	89.59
183.92	79.83
184.141	63.6
184.363	30.19
184.584	18.3
184.805	33.36
185.026	17.54
185.247	-5
185.468	5.49
185.689	3.48
185.91	30.02
186.132	42.01
186.353	10.75
186.574	10.91
186.795	3.54
187.016	1.73
187.237	-0.43
187.458	-5.9
187.679	-49.59
187.9	-20.65
188.121	6.49
188.342	30.83
188.563	38.87
188.784	40.73
189.005	34.62
189.226	48.59
189.447	37.96
189.667	20.49
189.888	25.49
190.109	22.65
190.33	21.22
190.551	19.48
190.772	10.09
190.993	28.19
191.214	29.03
191.434	20.83
191.655	27.43
191.876	32.27
192.097	28.29
192.318	34.28
192.538	25.81
192.759	27.38
192.98	26.64
193.201	29.3
193.421	43.22
193.642	46.83
193.863	44.95
194.083	35.81
194.304	43.36
194.525	37.02
194.745	13.04
194.966	-0.39
195.187	10.97
195.407	20.72
195.628	19.16
195.848	2.66
196.069	-0.4
196.29	2.53
196.51	-17.28
196.731	-8.3
196.951	-19.87
197.172	-6.96
197.392	18.3
197.613	20.22
197.833	18.96
198.054	29.29
198.274	8.45
198.495	29.05
198.715	8.73
198.936	-14.91
199.156	-18.93
199.377	-13.16
199.597	-3.59
199.817	2.46
200.038	-6.4
200.258	3.47
200.479	15.85
200.699	15.49
200.919	5.14
201.14	-2.09
201.36	3.23
201.58	3.19
201.801	7.2
202.021	13.13
202.241	13.1
202.461	32.92
202.682	46.08
202.902	42.1
203.122	36.05
203.342	40.95
203.563	43.73
203.783	50.22
204.003	37.29
204.223	33.4
204.443	31.12
204.663	41.35
204.884	35.74
205.104	31.23
205.324	39.76
205.544	56.98
205.764	56.1
205.984	59.38
206.204	47.46
206.424	44.8
206.644	41.37
206.864	31.48
207.084	41.91
207.304	37.66
207.525	27.93
207.745	35.13
207.964	44.87
208.184	39.68
208.404	34
208.624	7.55
208.844	-2.98
209.064	18.16
209.284	22.65
209.504	17.16
209.724	-5.51
209.944	-1.31
210.164	13.62
210.384	20.24
210.604	-18.88
210.823	-25.68
211.043	-28.8
211.263	-1.01
211.483	0.78
211.703	-4.4
211.922	10.15
212.142	25.55
212.362	20.48
212.582	23.08
212.801	12.18
213.021	16.74
213.241	5.57
213.461	-14.29
213.68	-21.47
213.9	-2.75
214.12	-1.21
214.339	7.89
214.559	10.16
214.779	18.88
214.998	25.34
215.218	37.79
215.438	33.65
215.657	30.55
215.877	30.67
216.096	32.32
216.316	29.72
216.535	28.32
216.755	9.08
216.974	19.95
217.194	16.34
217.413	24.17
217.633	10.47
217.852	9.97
218.072	-7.56
218.291	20.19
218.511	10.45
218.73	9.25
218.95	2.66
219.169	20.11
219.389	11.73
219.608	35.84
219.827	34.65
220.047	31.31
220.266	32.88
220.485	31.62
220.705	10.37
220.924	16.47
221.143	1.6
221.363	-1.04
221.582	12.24
221.801	19.94
222.021	21.43
222.24	27.17
222.459	16.81
222.678	11.67
222.897	-1.79
223.117	-4.27
223.336	-7.91
223.555	-31.1
223.774	-16.68
223.993	29.38
224.213	26.68
224.432	39.19
224.651	41.77
224.87	43.94
225.089	73.47
225.308	72.6
225.527	32.21
225.746	42.31
225.965	27.79
226.184	14.38
226.404	-0.03
226.623	-5.93
226.842	-6.3
227.061	15.33
227.28	32.82
227.499	42.92
227.718	45.81
227.936	40.96
228.155	39.96
228.374	37.14
228.593	28.51
228.812	22.31
229.031	11.17
229.25	26.64
229.469	40.51
229.688	44.42
229.907	32.08
230.125	36.9
230.344	33.92
230.563	45.81
230.782	31.68
231.001	30.2
231.22	28.58
231.438	40.89
231.657	49.28
231.876	50.28
232.095	48.53
232.313	51.95
232.532	49.83
232.751	46.71
232.969	52.08
233.188	51.75
233.407	46.26
233.625	41.54
233.844	44.48
234.063	44.66
234.281	37.71
234.5	33.42
234.719	25.55
234.937	36.46
235.156	30.81
235.374	23.93
235.593	7.93
235.811	6.24
236.03	-6.61
236.249	5.4
236.467	9.92
236.686	27.53
236.904	28.65
237.123	47.57
237.341	49.43
237.559	56.04
237.778	56.01
237.996	49.77
238.215	39.14
238.433	40.34
238.652	35.4
238.87	32.5
239.088	21.48
239.307	23.53
239.525	15.1
239.743	5.71
239.962	9
240.18	13.81
240.398	10.07
240.617	31.13
240.835	26.39
241.053	38.83
241.271	54.9
241.49	40.69
241.708	36.29
241.926	33.35
242.144	16.8
242.363	19.52
242.581	17.22
242.799	8.79
243.017	18.19
243.235	8.9
243.453	27.59
243.672	33.69
243.89	29.81
244.108	32.88
244.326	33.22
244.544	39.43
244.762	48.04
244.98	39.04
245.198	29.93
245.416	30.71
245.634	32.85
245.852	33.35
246.07	28.82
246.288	27.31
246.506	31.1
246.724	40.1
246.942	31.38
247.16	17.41
247.378	13.95
247.596	17.58
247.814	1.55
248.032	-5.18
248.25	-12.89
248.468	-8.22
248.685	2.41
248.903	-3.4
249.121	-4.07
249.339	16.66
249.557	11.71
249.775	0.41
249.992	0.63
250.21	-15.07
250.428	-8.56
250.646	-4.31
250.863	-16.13
251.081	-12.39
251.299	15.84
251.517	17.51
251.734	35.93
251.952	30.25
252.17	8.66
252.387	21.23
252.605	8.56
252.823	-4.9
253.04	-6.02
253.258	-9.61
253.475	-4.41
253.693	14.85
253.911	14.15
254.128	17.9
254.346	10.85
254.563	8.94
254.781	6.27
254.998	5.4
255.216	5.71
255.433	-0.95
255.651	2.15
255.868	12.59
256.086	10.6
256.303	18.85
256.521	18.18
256.738	11.88
256.956	17.38
257.173	20.13
257.39	29.37
257.608	34.69
257.825	23.8
258.043	28.65
258.26	26.59
258.477	27.58
258.695	29.67
258.912	24.52
259.129	17.76
259.346	31.18
259.564	28.28
259.781	39.83
259.998	33.35
260.216	32.54
260.433	29.9
260.65	37.42
260.867	19.46
261.084	29.97
261.302	36.37
261.519	40.39
261.736	35.41
261.953	29.64
262.17	25.85
262.387	33.45
262.604	27.63
262.822	18.24
263.039	27.06
263.256	20
263.473	11.15
263.69	13.17
263.907	24.98
264.124	17.38
264.341	15.75
264.558	12.94
264.775	25.32
264.992	42.6
265.209	42.37
265.426	35.18
265.643	34.6
265.86	27.88
266.077	26.1
266.294	21.92
266.51	18.63
266.727	10.57
266.944	8.91
267.161	14.51
267.378	16.28
267.595	-0.83
267.812	7.26
268.028	7.26
268.245	6.77
268.462	10.26
268.679	14.55
268.896	8.28
269.112	31.35
269.329	30.17
269.546	31.55
269.763	38.91
269.979	27.71
270.196	29.65
270.413	36.31
270.629	27.85
270.846	27.24
271.063	23.08
271.279	15.93
271.496	10.05
271.712	2.92
271.929	12.4
272.146	18.82
272.362	6.22
272.579	9.74
272.795	7.91
273.012	26.84
273.228	15.96
273.445	7.91
273.661	-5.44
273.878	-1.56
274.094	-7.28
274.311	-4.21
274.527	-10.54
274.744	-1.81
274.96	-2.66
275.177	13.17
275.393	26.89
275.609	38.77
275.826	47.99
276.042	55.79
276.259	54.15
276.475	48.83
276.691	42.85
276.908	40.91
277.124	34.87
277.34	27.35
277.557	24.28
277.773	22.7
277.989	27.82
278.205	26.91
278.422	24.52
278.638	26.37
278.854	30.9
279.07	27.71
279.286	28.08
279.503	30.89
279.719	32.21
279.935	17.3
280.151	23.69
280.367	24.75
280.583	25.23
280.799	22.55
281.016	20.43
281.232	15.74
281.448	12.69
281.664	10.67
281.88	9.1
282.096	19.97
282.312	20.81
282.528	7.75
282.744	5.85
282.96	16.18
283.176	12.06
283.392	15.44
283.608	4.45
283.824	8.88
284.04	20.86
284.256	17.06
284.471	16.63
284.687	16.37
284.903	11.58
285.119	6.62
285.335	9.82
285.551	11.39
285.767	22.95
285.982	23.55
286.198	27.42
286.414	36.41
286.63	41.05
286.846	33.02
287.061	36.22
287.277	28.42
287.493	25.24
287.709	23.11
287.924	22.6
288.14	28.75
288.356	36.77
288.571	27.7
288.787	33.71
289.003	42.6
289.218	39.29
289.434	33.18
289.65	26.67
289.865	29.64
290.081	30.53
290.296	25.98
290.512	30.59
290.727	32.64
290.943	31.45
291.159	23.66
291.374	22.98
291.59	16.29
291.805	25.87
292.021	-0.13
292.236	2.03
292.451	1.62
292.667	8.01
292.882	-3.75
293.098	1.13
293.313	-14.53
293.529	0.23
293.744	0.15
293.959	4.02
294.175	-1.55
294.39	1.02
294.605	-0.21
294.821	9.17
295.036	10.58
295.251	17.04
295.467	8.82
295.682	11.66
295.897	13.29
296.112	18.37
296.328	14.38
296.543	14.09
296.758	14.22
296.973	22.42
297.188	22.13
297.404	33.23
297.619	33.93
297.834	37.68
298.049	33.1
298.264	31.93
298.479	18.37
298.694	29.22
298.909	8.61
299.125	11.36
299.34	13.19
299.555	16.33
299.77	8.37
299.985	7.91
300.2	8.68
300.415	16.75
300.63	10.7
300.845	10.23
301.06	4.19
301.275	9.5
301.49	20.72
301.704	11.98
301.919	11.42
302.134	11.56
302.349	6.92
302.564	3.19
302.779	-3.64
302.994	-15.75
303.209	-15.32
303.423	-6
303.638	-3.1
303.853	10.43
304.068	21.77
304.283	15.42
304.497	19.32
304.712	26.15
304.927	17.78
305.142	25.04
305.356	17.18
305.571	15.08
305.786	20.89
306	26.7
306.215	22.57
306.43	30.71
306.644	21.25
306.859	24.11
307.074	27.79
307.288	32.23
307.503	31.44
307.717	29.16
307.932	32.66
308.147	35.01
308.361	34.83
308.576	29.43
308.79	28.15
309.005	19.48
309.219	22.46
309.434	12.9
309.648	6.66
309.863	6.71
310.077	5.2
310.292	0.15
310.506	15.33
310.72	16.87
310.935	19.11
311.149	23.07
311.364	24.47
311.578	22.48
311.792	21.55
312.007	7.1
312.221	6.93
312.435	10.31
312.649	1.87
312.864	-6.31
313.078	2.5
313.292	11.25
313.507	23.4
313.721	19.52
313.935	35.6
314.149	28.81
314.363	37.24
314.578	59.49
314.792	53.96
315.006	55.9
315.22	53.7
315.434	38.18
315.648	47.89
315.862	38.18
316.077	16.73
316.291	18.26
316.505	11
316.719	-0.48
316.933	6.48
317.147	-2.75
317.361	3.99
317.575	5.42
317.789	7.98
318.003	16.51
318.217	30.45
318.431	26.76
318.645	32.5
318.859	21.2
319.073	13.94
319.287	19.58
319.5	16.38
319.714	13.05
319.928	14.38
320.142	14.03
320.356	25.02
320.57	26.48
320.784	27.94
320.997	37.9
321.211	38.89
321.425	25.53
321.639	30.38
321.853	22.04
322.066	23.66
322.28	17.91
322.494	11.73
322.707	8.03
322.921	16.65
323.135	14.09
323.349	16.99
323.562	22.38
323.776	22.41
323.989	16.6
324.203	22.59
324.417	17.44
324.63	7.86
324.844	7.13
325.057	5.43
325.271	0.8
325.485	4.08
325.698	1.63
325.912	20.41
326.125	32.83
326.339	35.69
326.552	35.63
326.766	41.07
326.979	40.29
327.193	35.02
327.406	21.79
327.619	-0.5
327.833	-14.15
328.046	-17.45
328.26	-36.93
328.473	-35.92
328.686	-27.69
328.9	-31.9
329.113	-18.96
329.326	-2.26
329.54	0.5
329.753	13.28
329.966	17.86
330.179	24.21
330.393	32.26
330.606	26.74
330.819	21.34
331.032	26.15
331.246	26.21
331.459	26.98
331.672	29.76
331.885	28
332.098	39.12
332.311	38.54
332.525	32.29
332.738	26.08
332.951	14.66
333.164	1.23
333.377	-12.23
333.59	-16.14
333.803	-8.95
334.016	-20.27
334.229	-13.03
334.442	10.62
334.655	14.48
334.868	26.34
335.081	34.42
335.294	37.1
335.507	37.68
335.72	24.39
335.933	31.12
336.146	30.96
336.359	29.29
336.572	23.11
336.785	27.29
336.997	20.72
337.21	26.96
337.423	11.7
337.636	17.08
337.849	11.18
338.062	14.31
338.274	5.96
338.487	6.06
338.7	7.02
338.913	5.48
339.125	3.61
339.338	14.26
339.551	19.74
339.763	20.55
339.976	21.18
340.189	20.74
340.402	21.55
340.614	22.89
340.827	13.06
341.039	9.01
341.252	4.82
341.465	4.12
341.677	0.18
341.89	3.35
342.102	7.67
342.315	16.02
342.527	11.27
342.74	14.67
342.952	14.39
343.165	28.59
343.377	25.36
343.59	18.82
343.802	22.39
344.015	30.8
344.227	30.31
344.44	31.8
344.652	31.74
344.864	38.44
345.077	44.37
345.289	37.87
345.502	29.93
345.714	26.42
345.926	33.18
346.139	27.5
346.351	20.94
346.563	15.17
346.775	9.6
346.988	9.44
347.2	7.95
347.412	8.35
347.624	9.93
347.837	12.29
348.049	5.4
348.261	10.34
348.473	4.41
348.685	14.22
348.897	10.64
349.11	8.18
349.322	2.68
349.534	13.1
349.746	16.51
349.958	18.57
350.17	5.52
350.382	-5.45
350.594	-5.81
350.806	6.72
351.018	11.17
351.23	8.71
351.442	12.51
351.654	22.78
351.866	36.91
352.078	33.45
352.29	36.19
352.502	36.6
352.714	43.48
352.926	49.96
353.138	39.58
353.35	26.86
353.561	18.03
353.773	16.6
353.985	18.21
354.197	9.25
354.409	4.28
354.621	11.33
354.832	8.23
355.044	26.58
355.256	20.53
355.468	11.95
355.679	16.21
355.891	15.55
356.103	18.73
356.314	27.36
356.526	15.41
356.738	6.7
356.949	17.77
357.161	14.57
357.373	19.61
357.584	17.79
357.796	12.86
358.008	17.01
358.219	32.81
358.431	30.61
358.642	32.69
358.854	30.55
359.065	25.84
359.277	27.16
359.488	18.47
359.7	11.72
359.911	10.53
360.123	13.52
360.334	2.43
360.546	-2.53
360.757	4.88
360.969	20.72
361.18	16.48
361.391	13.53
361.603	15.4
361.814	21.46
362.025	20.69
362.237	12.68
362.448	6.93
362.659	0.49
362.871	6.45
363.082	3.79
363.293	10.47
363.504	15.75
363.716	18.31
363.927	21.12
364.138	28.19
364.349	27.28
364.56	28.23
364.772	23.71
364.983	23.38
365.194	30.45
365.405	32.72
365.616	25.79
365.827	21.93
366.038	28.11
366.25	29.87
366.461	32.56
366.672	22.41
366.883	24.02
367.094	25.71
367.305	28.24
367.516	23.87
367.727	19.37
367.938	17.8
368.149	20.8
368.36	16.46
368.571	21.86
368.781	15.21
368.992	10.63
369.203	16.78
369.414	13.17
369.625	9.55
369.836	5.69
370.047	0.4
370.258	-2.16
370.468	-4.05
370.679	-12.92
370.89	-4.33
371.101	-10.41
371.312	-12.59
371.522	-12.35
371.733	-13.47
371.944	-9.15
372.155	-18.62
372.365	-26.8
372.576	-19.75
372.787	-19.35
372.997	-17.9
373.208	-10.28
373.419	-9.74
373.629	10.05
373.84	4.12
374.05	13.51
374.261	13.15
374.472	22.14
374.682	11.96
374.893	13.42
375.103	12.96
375.314	20.14
375.524	19.67
375.735	22.05
375.945	15.09
376.156	26.15
376.366	28.4
376.577	22.38
376.787	24.31
376.997	18.5
377.208	14.74
377.418	9.56
377.629	4.26
377.839	6.49
378.049	16.36
378.26	17.33
378.47	18.61
378.68	19.68
378.89	18.09
379.101	13.68
379.311	0.99
379.521	-0.35
379.732	-9.03
379.942	-9.38
380.152	-7.33
380.362	3.91
380.572	10.04
380.783	14.97
380.993	13.3
381.203	20.89
381.413	25.44
381.623	26.97
381.833	18.21
382.043	11.55
382.253	11.11
382.463	13.78
382.674	10.27
382.884	4.56
383.094	5.09
383.304	11.72
383.514	18.63
383.724	20.46
383.934	17.14
384.144	19.29
384.353	18.39
384.563	12.36
384.773	11.17
384.983	11.93
385.193	10.16
385.403	9.77
385.613	7.02
385.823	8.1
386.033	12.19
386.242	8.36
386.452	3.65
386.662	4.95
386.872	3.15
387.082	0.09
387.291	2.56
387.501	5.24
387.711	6.26
387.921	4.01
388.13	1.89
388.34	3.44
388.55	7.07
388.759	5.14
388.969	0.66
389.179	3.34
389.388	6.63
389.598	5.51
389.807	3.09
390.017	2.64
390.227	1.06
390.436	1.3
390.646	0.92
390.855	0.23
391.065	1.75
391.274	1.31
391.484	2.96
391.693	4.95
391.903	5.59
392.112	5.34
392.322	5.59
392.531	5.24
392.74	4.7
392.95	3.4
393.159	4.4
393.369	3.34
393.578	2.43
393.787	2.61
393.997	4.17
394.206	5.32
394.415	5.11
394.625	2.83
394.834	2.76
395.043	3.33
395.252	3.29
395.462	2.17
395.671	2.12
395.88	2.64
396.089	3.64
396.298	3.86
396.508	3.59
396.717	3.28
396.926	3.08
397.135	2.48
397.344	2.29
397.553	2.42
397.762	2.52
397.971	2.34
398.181	2.12
398.39	2.37
398.599	2.68
398.808	2.47
399.017	2.47
399.226	2.55
399.435	2.76
399.644	2.99
399.853	2.93
400.062	3.02
400.27	3.27
400.479	3.14
400.688	2.99
400.897	3.16
401.106	3.22
401.315	3.09
401.524	3.07
401.733	3.14
401.941	3.11
402.15	2.99
402.359	2.85
402.568	2.71
402.777	2.68
402.985	2.51
403.194	2.27
403.403	1.98
403.612	2.03
403.82	2.05
404.029	2.12
404.238	2.21
404.446	2.3
404.655	2.22
404.864	2.37
405.072	2.46
405.281	2.34
405.489	2.31
405.698	2.26
405.906	2.18
406.115	2.29
406.324	2.21
406.532	2.19
406.741	2.24
406.949	2.23
407.158	2.25
407.366	2.36
407.574	2.33
407.783	2.29
407.991	2.18
408.2	2.16
408.408	2.18
408.617	2.1
408.825	2.05
409.033	1.93
409.242	2.01
409.45	2.05
409.658	2.03
409.867	2.02
410.075	1.98
410.283	1.91
410.491	1.92
410.7	1.96
410.908	2.01
411.116	1.91
411.324	1.96
411.533	1.91
411.741	1.84
411.949	1.96
412.157	1.91
412.365	1.87
412.573	1.95
412.781	1.91
412.99	2.04
413.198	2.13
413.406	2.03
413.614	2.08
413.822	2.1
414.03	2
414.238	2.02
414.446	1.9
414.654	1.86
414.862	1.85
415.07	1.85
415.278	1.75
415.486	1.87
415.694	1.79
415.902	1.73
416.109	1.83
416.317	1.85
416.525	1.84
416.733	1.94
416.941	1.87
417.149	1.99
417.357	2.06
417.564	2.04
417.772	2.07
417.98	2.01
418.188	1.89
418.395	1.91
418.603	1.75
418.811	1.8
419.019	1.84
419.226	1.89
419.434	1.8
419.642	1.81
419.849	1.88
420.057	1.93
420.265	1.9
420.472	1.78
420.68	1.7
420.887	1.83
421.095	1.9
421.302	1.83
421.51	1.9
421.717	1.94
421.925	1.91
422.132	1.84
422.34	1.77
422.547	1.74
422.755	1.68
422.962	1.55
423.17	1.46
423.377	1.53
423.585	1.58
423.792	1.59
423.999	1.62
424.207	1.55
424.414	1.59
424.621	1.62
424.829	1.56
425.036	1.58
425.243	1.59
425.451	1.48
425.658	1.56
425.865	1.59
426.072	1.67
426.28	1.67
426.487	1.63
426.694	1.62
426.901	1.64
427.108	1.57
427.315	1.51
427.523	1.52
427.73	1.49
427.937	1.53
428.144	1.52
428.351	1.65
428.558	1.71
428.765	1.7
428.972	1.7
429.179	1.72
429.386	1.71
429.593	1.69
429.8	1.7
430.007	1.77
430.214	1.8
430.421	1.77
430.628	1.7
430.835	1.68
431.042	1.73
431.249	1.63
431.456	1.64
431.662	1.67
431.869	1.77
432.076	1.88
432.283	1.88
432.49	1.77
432.697	1.85
432.903	1.86
433.11	1.88
433.317	1.83
433.524	1.77
433.73	1.78
433.937	1.85
434.144	1.92
434.35	1.85
434.557	1.83
434.764	1.82
434.97	1.91
435.177	1.94
435.384	2.01
435.59	1.94
435.797	2.01
436.003	1.97
436.21	1.96
436.416	1.93
436.623	1.98
436.829	1.93
437.036	1.96
437.242	1.92
437.449	1.99
437.655	2.02
437.862	2
438.068	2.01
438.275	2.03
438.481	2.04
438.687	2.14
438.894	2.13
439.1	2.14
439.307	2.14
439.513	2.11
439.719	2.14
439.926	2.12
440.132	2.05
440.338	2.02
440.544	1.97
440.751	1.97
440.957	1.93
441.163	1.93
441.369	1.94
441.575	1.95
441.782	1.95
441.988	2.02
442.194	2.07
442.4	2.16
442.606	2.21
442.812	2.19
443.018	2.22
443.224	2.25
443.431	2.25
443.637	2.22
443.843	2.21
444.049	2.2
444.255	2.16
444.461	2.13
444.667	2.16
444.873	2.18
445.079	2.24
445.284	2.2
445.49	2.19
445.696	2.24
445.902	2.28
446.108	2.27
446.314	2.3
446.52	2.3
446.726	2.35
446.931	2.37
447.137	2.43
447.343	2.44
447.549	2.43
447.755	2.36
447.96	2.34
448.166	2.33
448.372	2.32
448.578	2.26
448.783	2.23
448.989	2.25
449.195	2.24
449.4	2.26
449.606	2.2
449.812	2.25
450.017	2.28
450.223	2.31
450.428	2.35
450.634	2.42
450.84	2.42
451.045	2.44
451.251	2.43
451.456	2.38
451.662	2.36
451.867	2.35
452.073	2.36
452.278	2.34
452.483	2.38
452.689	2.4
452.894	2.46
453.1	2.37
453.305	2.35
453.51	2.35
453.716	2.35
453.921	2.38
454.127	2.36
454.332	2.36
454.537	2.51
454.742	2.52
454.948	2.49
455.153	2.53
455.358	2.54
455.563	2.55
455.769	2.57
455.974	2.49
456.179	2.44
456.384	2.47
456.589	2.48
456.795	2.44
457	2.44
457.205	2.39
457.41	2.48
457.615	2.56
457.82	2.63
458.025	2.6
458.23	2.63
458.435	2.57
458.64	2.68
458.845	2.64
459.05	2.61
459.255	2.56
459.46	2.56
459.665	2.6
459.87	2.64
460.075	2.57
460.28	2.59
460.485	2.62
460.69	2.56
460.895	2.62
461.099	2.62
461.304	2.64
461.509	2.58
461.714	2.6
461.919	2.56
462.123	2.65
462.328	2.62
462.533	2.61
462.738	2.58
462.942	2.71
463.147	2.69
463.352	2.72
463.556	2.71
463.761	2.72
463.966	2.76
464.17	2.77
464.375	2.71
464.58	2.71
464.784	2.74
464.989	2.75
465.193	2.79
465.398	2.76
465.602	2.8
465.807	2.85
466.011	2.92
466.216	2.9
466.42	2.91
466.625	2.92
466.829	2.94
467.034	2.99
467.238	3
467.443	2.99
467.647	3.02
467.851	3.01
468.056	3.02
468.26	3.03
468.464	3
468.669	3.04
468.873	3.05
469.077	3.05
469.282	3.1
469.486	3.09
469.69	3.09
469.894	3.18
470.099	3.19
470.303	3.17
470.507	3.18
470.711	3.13
470.915	3.18
471.119	3.21
471.324	3.13
471.528	3.14
471.732	3.17
471.936	3.21
472.14	3.24
472.344	3.24
472.548	3.25
472.752	3.3
472.956	3.33
473.16	3.32
473.364	3.3
473.568	3.33
473.772	3.39
473.976	3.37
474.18	3.37
474.384	3.34
474.588	3.35
474.792	3.33
474.995	3.34
475.199	3.31
475.403	3.32
475.607	3.37
475.811	3.41
476.015	3.46
476.218	3.46
476.422	3.47
476.626	3.47
476.83	3.5
477.033	3.53
477.237	3.52
477.441	3.53
477.644	3.56
477.848	3.58
478.052	3.62
478.255	3.6
478.459	3.64
478.663	3.65
478.866	3.66
479.07	3.72
479.273	3.72
479.477	3.71
479.681	3.72
479.884	3.65
480.088	3.68
480.291	3.66
480.495	3.65
480.698	3.65
480.901	3.66
481.105	3.73
481.308	3.75
481.512	3.74
481.715	3.79
481.919	3.82
482.122	3.83
482.325	3.86
482.529	3.87
482.732	3.89
482.935	3.91
483.138	3.93
483.342	3.94
483.545	3.94
483.748	3.94
483.952	3.91
484.155	3.96
484.358	3.97
484.561	3.99
484.764	4.01
484.967	4.05
485.171	4.06
485.374	4.1
485.577	4.09
485.78	4.12
485.983	4.11
486.186	4.1
486.389	4.07
486.592	4.08
486.795	4.07
486.998	4.02
487.201	4.01
487.404	4.05
487.607	4.04
487.81	4.07
488.013	4.09
488.216	4.06
488.419	4.06
488.622	4.04
488.825	4
489.028	3.97
489.231	3.97
489.433	3.94
489.636	3.94
489.839	3.99
490.042	4
490.245	4.01
490.447	4.03
490.65	4.04
490.853	4.04
491.056	4.03
491.258	4.03
491.461	4.01
491.664	3.98
491.866	4.05
492.069	4.06
492.272	4.05
492.474	4.08
492.677	4.06
492.879	4.08
493.082	4.14
493.285	4.13
493.487	4.11
493.69	4.12
493.892	4.16
494.095	4.17
494.297	4.21
494.5	4.19
494.702	4.19
494.905	4.21
495.107	4.22
495.309	4.19
495.512	4.25
495.714	4.24
495.917	4.25
496.119	4.28
496.321	4.3
496.524	4.32
496.726	4.36
496.928	4.35
497.13	4.38
497.333	4.41
497.535	4.42
497.737	4.42
497.939	4.43
498.142	4.42
498.344	4.45
498.546	4.5
498.748	4.48
498.95	4.42
499.152	4.42
499.355	4.42
499.557	4.47
499.759	4.53
499.961	4.54
500.163	4.61
500.365	4.65
500.567	4.66
500.769	4.75
500.971	4.76
501.173	4.7
501.375	4.68
501.577	4.68
501.779	4.69
501.981	4.72
502.183	4.66
502.385	4.63
502.587	4.62
502.788	4.63
502.99	4.62
503.192	4.63
503.394	4.68
503.596	4.73
503.798	4.82
503.999	4.88
504.201	4.87
504.403	4.91
504.605	4.95
504.806	4.94
505.008	4.93
505.21	4.89
505.411	4.9
505.613	4.94
505.815	4.95
506.016	4.99
506.218	4.99
506.42	5.04
506.621	5.06
506.823	5.06
507.024	5.08
507.226	5.08
507.427	5.02
507.629	5.04
507.83	5
508.032	5.04
508.233	5.05
508.435	5.06
508.636	5.07
508.838	5.14
509.039	5.18
509.24	5.22
509.442	5.19
509.643	5.2
509.845	5.22
510.046	5.22
510.247	5.24
510.448	5.29
510.65	5.28
510.851	5.33
511.052	5.34
511.254	5.35
511.455	5.35
511.656	5.33
511.857	5.3
512.058	5.35
512.26	5.36
512.461	5.38
512.662	5.34
512.863	5.4
513.064	5.42
513.265	5.48
513.466	5.48
513.667	5.48
513.868	5.47
514.069	5.54
514.27	5.52
514.471	5.54
514.672	5.52
514.873	5.55
515.074	5.59
515.275	5.61
515.476	5.63
515.677	5.65
515.878	5.69
516.079	5.74
516.28	5.7
516.481	5.68
516.682	5.73
516.882	5.71
517.083	5.73
517.284	5.69
517.485	5.71
517.686	5.73
517.886	5.76
518.087	5.76
518.288	5.77
518.488	5.79
518.689	5.8
518.89	5.79
519.091	5.8
519.291	5.83
519.492	5.82
519.692	5.85
519.893	5.83
520.094	5.88
520.294	5.87
520.495	5.91
520.695	5.9
520.896	5.89
521.096	5.87
521.297	5.9
521.497	5.91
521.698	5.94
521.898	5.95
522.099	5.99
522.299	6.01
522.499	6.04
522.7	6.06
522.9	6.05
523.101	6.05
523.301	6.07
523.501	6.09
523.702	6.09
523.902	6.13
524.102	6.15
524.302	6.15
524.503	6.16
524.703	6.19
524.903	6.2
525.103	6.23
525.304	6.23
525.504	6.25
525.704	6.28
525.904	6.31
526.104	6.31
526.304	6.32
526.504	6.32
526.705	6.35
526.905	6.37
527.105	6.37
527.305	6.33
527.505	6.35
527.705	6.35
527.905	6.35
528.105	6.33
528.305	6.33
528.505	6.33
528.705	6.37
528.905	6.38
529.105	6.37
529.304	6.4
529.504	6.42
529.704	6.45
529.904	6.49
530.104	6.5
530.304	6.52
530.503	6.51
530.703	6.54
530.903	6.55
531.103	6.54
531.303	6.58
531.502	6.59
531.702	6.57
531.902	6.59
532.101	6.61
532.301	6.64
532.501	6.65
532.7	6.63
532.9	6.68
533.1	6.71
533.299	6.77
533.499	6.79
533.698	6.82
533.898	6.86
534.097	6.9
534.297	6.9
534.496	6.92
534.696	6.93
534.895	6.98
535.095	7
535.294	6.99
535.494	7.02
535.693	7.04
535.892	7.07
536.092	7.07
536.291	7.06
536.491	7.01
536.69	7.07
536.889	7.06
537.088	7.06
537.288	7.12
537.487	7.16
537.686	7.17
537.886	7.24
538.085	7.26
538.284	7.32
538.483	7.37
538.682	7.36
538.882	7.35
539.081	7.4
539.28	7.39
539.479	7.41
539.678	7.43
539.877	7.42
540.076	7.46
540.275	7.51
540.474	7.5
540.673	7.58
540.872	7.61
541.071	7.62
541.27	7.65
541.469	7.65
541.668	7.68
541.867	7.76
542.066	7.77
542.265	7.8
542.464	7.86
542.663	7.95
542.862	7.98
543.06	8.04
543.259	8.04
543.458	8.04
543.657	8.1
543.856	8.11
544.054	8.11
544.253	8.15
544.452	8.13
544.651	8.15
544.849	8.21
545.048	8.19
545.247	8.2
545.445	8.22
545.644	8.28
545.843	8.36
546.041	8.42
546.24	8.49
546.438	8.57
546.637	8.67
546.836	8.74
547.034	8.76
547.233	8.84
547.431	8.87
547.63	8.94
547.828	8.97
548.027	8.99
548.225	9.04
548.423	9.11
548.622	9.12
548.82	9.18
549.019	9.21
549.217	9.29
549.415	9.37
549.614	9.38
549.812	9.44
550.01	9.5
550.209	9.58
550.407	9.65
550.605	9.7
550.803	9.74
551.002	9.85
551.2	9.94
551.398	9.98
551.596	10
551.794	10.08
551.993	10.13
552.191	10.22
552.389	10.29
552.587	10.31
552.785	10.41
552.983	10.47
553.181	10.5
553.379	10.58
553.577	10.67
553.775	10.73
553.973	10.85
554.171	10.9
554.369	11
554.567	11.09
554.765	11.13
554.963	11.15
555.161	11.21
555.359	11.23
555.557	11.33
555.755	11.42
555.952	11.51
556.15	11.58
556.348	11.69
556.546	11.79
556.744	11.91
556.941	12.02
557.139	12.11
557.337	12.2
557.535	12.33
557.732	12.44
557.93	12.53
558.128	12.59
558.325	12.62
558.523	12.72
558.721	12.81
558.918	12.88
559.116	12.93
559.313	13.03
559.511	13.12
559.708	13.22
559.906	13.29
560.104	13.39
560.301	13.46
560.498	13.56
560.696	13.63
560.893	13.77
561.091	13.87
561.288	13.95
561.486	14
561.683	14.11
561.88	14.21
562.078	14.33
562.275	14.38
562.473	14.46
562.67	14.6
562.867	14.72
563.064	14.81
563.262	14.94
563.459	15.02
563.656	15.19
563.853	15.32
564.051	15.37
564.248	15.45
564.445	15.54
564.642	15.61
564.839	15.73
565.036	15.79
565.234	15.91
565.431	16.02
565.628	16.14
565.825	16.24
566.022	16.31
566.219	16.35
566.416	16.42
566.613	16.45
566.81	16.5
567.007	16.56
567.204	16.63
567.401	16.74
567.598	16.82
567.795	16.89
567.991	16.97
568.188	17.09
568.385	17.19
568.582	17.27
568.779	17.36
568.976	17.46
569.172	17.54
569.369	17.6
569.566	17.69
569.763	17.77
569.96	17.8
570.156	17.79
570.353	17.83
570.55	17.91
570.746	17.96
570.943	18
571.14	18.05
571.336	18.12
571.533	18.22
571.729	18.27
571.926	18.3
572.123	18.31
572.319	18.3
572.516	18.33
572.712	18.39
572.909	18.43
573.105	18.47
573.302	18.45
573.498	18.53
573.695	18.58
573.891	18.62
574.087	18.66
574.284	18.62
574.48	18.65
574.677	18.7
574.873	18.74
575.069	18.77
575.266	18.79
575.462	18.85
575.658	18.97
575.854	19.02
576.051	19.05
576.247	19.03
576.443	19.06
576.639	19.05
576.835	19.02
577.032	18.99
577.228	19.03
577.424	19.05
577.62	19.09
577.816	19.15
578.012	19.19
578.208	19.21
578.404	19.29
578.6	19.26
578.796	19.26
578.993	19.23
579.189	19.19
579.384	19.19
579.58	19.2
579.776	19.14
579.972	19.12
580.168	19.08
580.364	19.04
580.56	19.05
580.756	18.98
580.952	18.96
581.148	18.94
581.343	18.99
581.539	19.02
581.735	19.05
581.931	19.04
582.127	19.07
582.322	19.08
582.518	19.06
582.714	19.02
582.909	18.99
583.105	18.97
583.301	18.89
583.496	18.86
583.692	18.8
583.888	18.79
584.083	18.83
584.279	18.86
584.474	18.87
584.67	18.94
584.866	18.99
585.061	19.01
585.257	19.06
585.452	19.05
585.648	19.03
585.843	19.06
586.039	19.07
586.234	19.06
586.429	19.07
586.625	19.03
586.82	19.02
587.015	19.02
587.211	19.01
587.406	19.02
587.601	19.08
587.797	19.09
587.992	19.09
588.187	19.09
588.383	19.09
588.578	19.08
588.773	19.1
588.968	19.14
589.163	19.18
589.359	19.21
589.554	19.21
589.749	19.27
589.944	19.35
590.139	19.35
590.334	19.32
590.529	19.36
590.724	19.39
590.919	19.47
591.114	19.49
591.309	19.49
591.504	19.5
591.699	19.53
591.894	19.56
592.089	19.64
592.284	19.63
592.479	19.66
592.674	19.69
592.869	19.8
593.064	19.89
593.259	19.87
593.454	19.9
593.648	19.98
593.843	20.07
594.038	20.14
594.233	20.19
594.428	20.24
594.622	20.36
594.817	20.41
595.012	20.52
595.206	20.56
595.401	20.6
595.596	20.71
595.79	20.77
595.985	20.83
596.18	20.93
596.374	20.95
596.569	21
596.763	21.14
596.958	21.14
597.153	21.16
597.347	21.24
597.542	21.33
597.736	21.45
597.931	21.58
598.125	21.63
598.319	21.73
598.514	21.84
598.708	21.9
598.903	21.95
599.097	22
599.291	22.03
599.486	22.07
599.68	22.13
599.874	22.28
600.069	22.32
600.263	22.34
600.457	22.35
600.651	22.44
600.846	22.49
601.04	22.49
601.234	22.52
601.428	22.56
601.622	22.6
601.817	22.69
602.011	22.71
602.205	22.78
602.399	22.86
602.593	22.83
602.787	22.86
602.981	22.91
603.175	22.87
603.369	22.85
603.563	22.89
603.757	22.85
603.951	22.87
604.145	22.83
604.339	22.81
604.533	22.82
604.727	22.76
604.921	22.71
605.115	22.71
605.309	22.67
605.502	22.73
605.696	22.67
605.89	22.67
606.084	22.66
606.278	22.62
606.471	22.58
606.665	22.53
606.859	22.47
607.053	22.47
607.246	22.38
607.44	22.34
607.634	22.31
607.827	22.21
608.021	22.11
608.214	22.01
608.408	21.89
608.602	21.82
608.795	21.8
608.989	21.67
609.182	21.66
609.376	21.59
609.569	21.52
609.763	21.54
609.956	21.52
610.15	21.45
610.343	21.43
610.537	21.33
610.73	21.34
610.923	21.3
611.117	21.19
611.31	21.18
611.504	21.11
611.697	21.02
611.89	20.96
612.083	20.81
612.277	20.75
612.47	20.67
612.663	20.57
612.856	20.48
613.05	20.45
613.243	20.37
613.436	20.33
613.629	20.3
613.822	20.26
614.015	20.18
614.209	20.17
614.402	20.06
614.595	20.01
614.788	19.94
614.981	19.79
615.174	19.74
615.367	19.61
615.56	19.51
615.753	19.49
615.946	19.45
616.139	19.43
616.332	19.4
616.525	19.34
616.718	19.33
616.911	19.27
617.103	19.18
617.296	19.1
617.489	19.06
617.682	19.04
617.875	18.96
618.067	18.88
618.26	18.84
618.453	18.8
618.646	18.78
618.838	18.73
619.031	18.68
619.224	18.69
619.417	18.7
619.609	18.66
619.802	18.67
619.994	18.64
620.187	18.6
620.38	18.55
620.572	18.52
620.765	18.47
620.957	18.41
621.15	18.33
621.342	18.29
621.535	18.25
621.727	18.24
621.92	18.2
622.112	18.21
622.305	18.17
622.497	18.16
622.69	18.14
622.882	18.12
623.074	18.09
623.267	18.04
623.459	17.99
623.651	18.01
623.844	18.01
624.036	17.99
624.228	17.97
624.42	17.94
624.613	17.94
624.805	17.91
624.997	17.91
625.189	17.94
625.381	17.93
625.574	17.87
625.766	17.89
625.958	17.91
626.15	17.87
626.342	17.88
626.534	17.78
626.726	17.75
626.918	17.71
627.11	17.7
627.302	17.64
627.494	17.61
627.686	17.54
627.878	17.5
628.07	17.51
628.262	17.45
628.454	17.38
628.646	17.34
628.838	17.3
629.029	17.22
629.221	17.18
629.413	17.08
629.605	17.09
629.797	17.1
629.989	17.07
630.18	17.06
630.372	17.06
630.564	17.09
630.755	17.09
630.947	17.04
631.139	16.97
631.33	16.95
631.522	16.88
631.714	16.88
631.905	16.83
632.097	16.75
632.289	16.78
632.48	16.73
632.672	16.67
632.863	16.65
633.055	16.59
633.246	16.6
633.438	16.61
633.629	16.58
633.821	16.63
634.012	16.66
634.203	16.71
634.395	16.72
634.586	16.67
634.777	16.65
634.969	16.64
635.16	16.55
635.351	16.47
635.543	16.4
635.734	16.38
635.925	16.43
636.117	16.45
636.308	16.4
636.499	16.42
636.69	16.5
636.881	16.55
637.073	16.49
637.264	16.42
637.455	16.43
637.646	16.45
637.837	16.46
638.028	16.42
638.219	16.33
638.41	16.36
638.601	16.35
638.792	16.27
638.983	16.2
639.174	16.15
639.365	16.09
639.556	16.06
639.747	16.07
639.938	16.09
640.129	16.1
640.32	16.07
640.511	16.04
640.701	16.05
640.892	16.09
641.083	16.05
641.274	15.97
641.465	15.95
641.655	15.91
641.846	15.9
642.037	15.87
642.228	15.84
642.418	15.77
642.609	15.76
642.8	15.75
642.99	15.8
643.181	15.82
643.372	15.8
643.562	15.77
643.753	15.74
643.943	15.68
644.134	15.64
644.324	15.58
644.515	15.54
644.705	15.5
644.896	15.43
645.086	15.4
645.277	15.47
645.467	15.42
645.658	15.38
645.848	15.31
646.038	15.32
646.229	15.34
646.419	15.39
646.61	15.33
646.8	15.33
646.99	15.3
647.18	15.28
647.371	15.24
647.561	15.16
647.751	15.09
647.941	15.06
648.132	15.08
648.322	15.11
648.512	15.08
648.702	15.05
648.892	15.1
649.082	15.06
649.272	14.98
649.462	14.9
649.653	14.9
649.843	14.88
650.033	14.86
650.223	14.82
650.413	14.86
650.603	14.84
650.793	14.78
650.983	14.71
651.172	14.67
651.362	14.6
651.552	14.48
651.742	14.35
651.932	14.32
652.122	14.3
652.312	14.11
652.502	14.03
652.691	14.01
652.881	14.01
653.071	13.93
653.261	13.86
653.45	13.78
653.64	13.82
653.83	13.76
654.019	13.62
654.209	13.54
654.399	13.45
654.588	13.33
654.778	13.27
654.968	13.11
655.157	12.96
655.347	12.81
655.536	12.64
655.726	12.54
655.915	12.42
656.105	12.3
656.294	12.19
656.484	12.09
656.673	12.04
656.863	11.89
657.052	11.74
657.241	11.62
657.431	11.44
657.62	11.27
657.809	11.18
657.999	11.02
658.188	10.94
658.377	10.8
658.567	10.67
658.756	10.54
658.945	10.43
659.134	10.2
659.324	10.07
659.513	9.86
659.702	9.71
659.891	9.55
660.08	9.43
660.269	9.34
660.458	9.24
660.648	9.1
660.837	9.05
661.026	8.99
661.215	8.9
661.404	8.75
661.593	8.6
661.782	8.5
661.971	8.4
662.16	8.21
662.349	8.02
662.538	7.9
662.726	7.79
662.915	7.68
663.104	7.5
663.293	7.39
663.482	7.28
663.671	7.23
663.86	7.1
664.048	7.01
664.237	6.91
664.426	6.94
664.615	6.82
664.803	6.79
664.992	6.68
665.181	6.61
665.369	6.58
665.558	6.58
665.747	6.51
665.935	6.56
666.124	6.55
666.312	6.48
666.501	6.45
666.69	6.41
666.878	6.33
667.067	6.28
667.255	6.2
667.444	6.15
667.632	6.15
667.82	6.15
668.009	6.16
668.197	6.13
668.386	6.06
668.574	6.02
668.762	5.92
668.951	5.9
669.139	5.92
669.327	5.86
669.516	5.89
669.704	5.93
669.892	5.91
670.08	5.92
670.269	6
670.457	5.93
670.645	5.95
670.833	5.9
671.021	5.86
671.21	5.95
671.398	6
671.586	5.99
671.774	5.96
671.962	6
672.15	6.03
672.338	6.1
672.526	6.07
672.714	6.09
672.902	6.12
673.09	6.28
673.278	6.27
673.466	6.37
673.654	6.38
673.842	6.48
674.03	6.52
674.218	6.56
674.405	6.59
674.593	6.66
674.781	6.66
674.969	6.71
675.157	6.75
675.344	6.83
675.532	6.9
675.72	6.88
675.908	6.95
676.095	7.03
676.283	7.07
676.471	7.1
676.658	7.17
676.846	7.22
677.033	7.3
677.221	7.35
677.409	7.38
677.596	7.56
677.784	7.65
677.971	7.77
678.159	7.84
678.346	7.92
678.534	8.03
678.721	8.11
678.909	8.09
679.096	8.14
679.283	8.13
679.471	8.24
679.658	8.36
679.846	8.44
680.033	8.59
680.22	8.67
680.408	8.76
680.595	8.78
680.782	8.87
680.969	8.9
681.157	8.99
681.344	9.07
681.531	9.14
681.718	9.3
681.905	9.57
682.093	9.74
682.28	9.97
682.467	10.12
682.654	10.27
682.841	10.45
683.028	10.61
683.215	10.67
683.402	10.76
683.589	10.91
683.776	11.08
683.963	11.24
684.15	11.46
684.337	11.7
684.524	11.95
684.711	12.17
684.898	12.33
685.085	12.6
685.271	12.86
685.458	13.11
685.645	13.26
685.832	13.49
686.019	13.8
686.205	14.06
686.392	14.29
686.579	14.55
686.766	14.85
686.952	15.35
687.139	15.68
687.326	16.06
687.512	16.46
687.699	16.78
687.886	17.12
688.072	17.45
688.259	17.64
688.445	18.05
688.632	18.51
688.818	18.94
689.005	19.5
689.191	20.03
689.378	20.52
689.564	21.03
689.751	21.65
689.937	22
690.124	22.5
690.31	23.01
690.496	23.61
690.683	24.26
690.869	24.87
691.055	25.45
691.242	26.02
691.428	26.74
691.614	27.41
691.8	28.06
691.987	28.67
692.173	29.46
692.359	30.08
692.545	30.87
692.731	31.53
692.918	32.18
693.104	32.78
693.29	33.6
693.476	34.14
693.662	34.83
693.848	35.45
694.034	35.95
694.22	36.65
694.406	37.5
694.592	38.09
694.778	38.84
694.964	39.39
695.15	40.24
695.336	41.17
695.522	41.91
695.708	42.52
695.894	43.37
696.08	44.04
696.265	44.88
696.451	45.61
696.637	46.28
696.823	46.85
697.009	47.56
697.194	48.03
697.38	48.74
697.566	49.36
697.751	49.88
697.937	50.65
698.123	51.45
698.308	52.11
698.494	52.82
698.68	53.51
698.865	54.26
699.051	54.97
699.236	55.32
699.422	55.88
699.607	56.41
699.793	56.93
699.978	57.31
700.164	57.89
700.349	58.29
700.535	59.03
700.72	59.71
700.906	60.26
701.091	60.8
701.276	61.5
701.462	62.01
701.647	62.66
701.832	63.19
702.018	63.48
702.203	63.93
702.388	64.3
702.573	64.94
702.759	65.32
702.944	65.89
703.129	66.26
703.314	66.8
703.499	67.47
703.684	68.19
703.87	68.46
704.055	68.97
704.24	69.44
704.425	70.31
704.61	70.71
704.795	70.94
704.98	71.36
705.165	71.8
705.35	72.04
705.535	72.52
705.72	72.47
705.905	72.75
706.09	73.11
706.275	73.35
706.459	73.77
706.644	74.39
706.829	74.57
707.014	74.82
707.199	75.22
707.384	75.55
707.568	75.97
707.753	76.21
707.938	76.31
708.123	76.39
708.307	76.99
708.492	77.21
708.677	77.53
708.861	77.64
709.046	77.7
709.231	78.13
709.415	78.49
709.6	78.38
709.784	78.78
709.969	79.08
710.153	79.73
710.338	80.05
710.522	80.03
710.707	79.86
710.891	80.24
711.076	80.18
711.26	80.35
711.445	80.27
711.629	80.69
711.813	81.02
711.998	81.36
712.182	81.64
712.366	82.16
712.551	82.53
712.735	82.64
712.919	82.84
713.103	82.85
713.288	83.32
713.472	83.42
713.656	83.54
713.84	83.51
714.024	83.81
714.208	83.81
714.393	84.09
714.577	84.18
714.761	84.4
714.945	84.25
715.129	84.51
715.313	84.54
715.497	84.79
715.681	85.02
715.865	85.12
716.049	85.12
716.233	85.72
716.417	85.75
716.601	85.82
716.785	86.07
716.968	86.18
717.152	86.44
717.336	86.64
717.52	86.58
717.704	86.85
717.888	87.14
718.071	87.42
718.255	87.43
718.439	87.44
718.622	87.64
718.806	87.52
718.99	87.61
719.174	87.66
719.357	87.5
719.541	88.03
719.724	88.31
719.908	88.2
720.092	88.67
720.275	88.79
720.459	88.73
720.642	88.76
720.826	88.65
721.009	88.58
721.193	88.84
721.376	88.69
721.559	88.7
721.743	89.01
721.926	89.07
722.11	89.08
722.293	88.73
722.476	88.66
722.66	88.63
722.843	88.65
723.026	88.79
723.21	88.8
723.393	88.9
723.576	89.3
723.759	89.48
723.942	89.71
724.126	89.93
724.309	89.82
724.492	90.16
724.675	90.29
724.858	90.76
725.041	90.75
725.224	91.01
725.407	90.98
725.59	91.21
725.774	91.27
725.957	91.46
726.14	91.17
726.322	91.4
726.505	91.59
726.688	91.8
726.871	92.06
727.054	92.15
727.237	91.92
727.42	92.78
727.603	93.01
727.786	93.36
727.968	93.81
728.151	93.76
728.334	93.81
728.517	94.31
728.699	94.04
728.882	94.36
729.065	93.94
729.248	93.4
729.43	93.18
729.613	93.45
729.796	93.41
729.978	93.61
730.161	93.31
730.343	93.52
730.526	93.81
730.708	94.75
730.891	94.65
731.073	94.55
731.256	94.42
731.438	94.91
731.621	95.37
731.803	95.45
731.986	94.73
732.168	94.95
732.35	95.35
732.533	95.49
732.715	95.66
732.898	95.44
733.08	95.95
733.262	96.22
733.444	96.32
733.627	96.08
733.809	96.37
733.991	96.27
734.173	95.93
734.355	96.02
734.538	96.07
734.72	96.57
734.902	96.43
735.084	96.38
735.266	96.18
735.448	96.65
735.63	96.36
735.812	96.85
735.994	96.39
736.176	96.94
736.358	96.96
736.54	96.88
736.722	96.55
736.904	96.57
737.086	96.26
737.268	96.23
737.45	96.66
737.632	96.24
737.814	96.92
737.995	97.49
738.177	97.87
738.359	98.25
738.541	98.4
738.723	98.16
738.904	98.32
739.086	98.31
739.268	98.71
739.449	98.51
739.631	98.33
739.813	98.16
739.994	98.54
740.176	98.98
740.358	98.97
740.539	98.42
740.721	98.5
740.902	97.99
741.084	98.34
741.265	97.69
741.447	97.24
741.628	96.95
741.81	97.03
741.991	97.17
742.172	97.6
742.354	97.68
742.535	98.23
742.717	98.61
742.898	99.02
743.079	99.08
743.261	99.33
743.442	99.7
743.623	99.69
743.804	99.81
743.986	99.45
744.167	98.86
744.348	99.05
744.529	98.53
744.71	97.84
744.891	97.64
745.073	97.36
745.254	98.07
745.435	98.22
745.616	97.37
745.797	97.02
745.978	97.82
746.159	97.6
746.34	97.54
746.521	97.17
746.702	96.2
746.883	97.04
747.064	97.97
747.245	98.53
747.426	99.27
747.606	99.42
747.787	100.14
747.968	101.27
748.149	101.28
748.33	101.55
748.51	100.24
748.691	99.79
748.872	99.68
749.053	98.81
749.233	98.53
749.414	98.58
749.595	97.12
749.775	96.95
749.956	96.03
750.137	95.72
750.317	95.58
750.498	95.88
750.678	96.27
750.859	97.29
751.04	97.6
751.22	97.75
751.4	97.71
751.581	98.03
751.761	98.31
751.942	97.66
752.122	97.08
752.303	96.92
752.483	98.03
752.663	98.51
752.844	97.88
753.024	97.47
753.204	97.15
753.385	96.9
753.565	96.82
753.745	95.87
753.925	94.44
754.106	94.94
754.286	94.74
754.466	95.25
754.646	95.36
754.826	95.84
755.006	95.76
755.187	96.62
755.367	96.47
755.547	97.21
755.727	96.73
755.907	97.85
756.087	98.41
756.267	98.57
756.447	99.02
756.627	99.39
756.807	98.92
756.987	99.5
757.167	98.9
757.346	97.56
757.526	98.24
757.706	98.22
757.886	97.91
758.066	98.23
758.246	98.51
758.425	98.46
758.605	98.98
758.785	98.1
758.965	96.71
759.144	96.57
759.324	96.35
759.504	95.29
759.683	95.19
759.863	94.8
760.043	95.06
760.222	95.15
760.402	95.66
760.581	95.01
760.761	94.33
760.94	93.34
761.12	93.55
761.299	93.43
761.479	94.82
761.658	93.78
761.838	94.53
762.017	96.08
762.197	97.19
762.376	96.43
762.555	96.51
762.735	95.04
762.914	95.67
763.093	94.33
763.273	93.4
763.452	92.74
763.631	92.65
763.81	92.75
763.99	93.64
764.169	93.34
764.348	94.74
764.527	94.29
764.706	94.17
764.885	95.73
765.064	95.94
765.243	95.95
765.423	96.51
765.602	95.53
765.781	95.77
765.96	96.25
766.139	95.22
766.318	95.72
766.497	95.52
766.676	95.85
766.854	96.83
767.033	96.3
767.212	95.59
767.391	96.04
767.57	95.47
767.749	95.55
767.928	94.08
768.106	93.19
768.285	94.02
768.464	94.75
768.643	94.96
768.821	94.66
769	94.63
769.179	93.81
769.357	93.85
769.536	92.51
769.715	91.69
769.893	90.98
770.072	90.77
770.25	90.66
770.429	92.67
770.607	92.79
770.786	94.34
770.964	95.16
771.143	94.81
771.321	94.17
771.5	93.62
771.678	93
771.857	92.49
772.035	92.81
772.213	92.74
772.392	93.33
772.57	94.09
772.748	94.05
772.927	94.11
773.105	94.71
773.283	92.49
773.461	92.26
773.64	90.71
773.818	89.81
773.996	89.91
774.174	90.3
774.352	89.82
774.531	89.96
774.709	90.56
774.887	91.38
775.065	91.47
775.243	92
775.421	91.17
775.599	89.48
775.777	90.2
775.955	88.17
776.133	87.94
776.311	88.08
776.489	87.82
776.667	87.46
776.844	89.41
777.022	89.78
777.2	90.99
777.378	92.22
777.556	93.02
777.734	92.85
777.911	94.45
778.089	92.41
778.267	91.13
778.445	90.16
778.622	88.91
778.8	88.05
778.978	87.19
779.155	84.99
779.333	84.27
779.511	86.97
779.688	85.92
779.866	86.52
780.043	86.96
780.221	87.18
780.398	87.72
780.576	88.25
780.753	83.87
780.931	85.75
781.108	85.48
781.286	84.55
781.463	85.17
781.64	86.25
781.818	87.69
781.995	91.08
782.172	90.8
782.35	89.36
782.527	90.93
782.704	89.64
782.882	89.79
783.059	88.68
783.236	89.53
783.413	89.38
783.59	89.04
783.768	87.49
783.945	88.49
784.122	87.34
784.299	87.83
784.476	86.57
784.653	84.92
784.83	85.45
785.007	85.49
785.184	85.83
785.361	86.74
785.538	85.91
785.715	83.24
785.892	84.3
786.069	85.3
786.246	84.41
786.423	84.79
786.6	83.4
786.776	84.96
786.953	86.73
787.13	87.89
787.307	87.46
787.484	89.56
787.66	87.69
787.837	88.33
788.014	87.78
788.191	86.61
788.367	84.15
788.544	83.55
788.721	81.86
788.897	85
789.074	84.75
789.25	85.49
789.427	87.83
789.603	93.14
789.78	94.93
789.956	94.3
790.133	91.86
790.309	92.46
790.486	93.81
790.662	91.52
790.839	89.54
791.015	88.14
791.192	91.16
791.368	95.46
791.544	93.2
791.721	90.27
791.897	93.25
792.073	90.21
792.249	92.88
792.426	92.2
792.602	87.25
792.778	87.14
792.954	87.68
793.13	89.11
793.307	89.47
793.483	85.69
793.659	86.18
793.835	85.59
794.011	83.96
794.187	80.96
794.363	78.39
794.539	77.54
794.715	78.25
794.891	74.63
795.067	76.47
795.243	80.77
795.419	84.33
795.595	82.34
795.771	85.56
795.947	85.58
796.122	87.8
796.298	87.04
796.474	87.42
796.65	85.53
796.826	90.92
797.001	89
797.177	89.46
797.353	91.68
797.529	90.89
797.704	87.81
797.88	88.86
798.056	87.49
798.231	84.78
798.407	84.27
798.582	83.47
798.758	87.04
798.934	84.73
799.109	83.71
799.285	82
799.46	83.16
799.636	84.2
799.811	84.85
799.986	83.8
800.162	86.09
800.337	86.04
800.513	84.39
800.688	87.89
800.863	86.46
801.039	82.73
801.214	81.61
801.389	80.93
801.565	84.43
801.74	83.94
801.915	81.38
802.09	82.35
802.265	83.57
802.441	83.19
802.616	85.07
802.791	83.58
802.966	84.08
803.141	81.97
803.316	83.56
803.491	82.85
803.666	83.05
803.841	83.93
804.016	83.1
804.191	86.54
804.366	90.7
804.541	89.18
804.716	86.69
804.891	89.17
805.066	86.52
805.241	84.35
805.416	79.53
805.591	77.61
805.765	78.03
805.94	82.17
806.115	75.21
806.29	78.94
806.464	79.21
806.639	80.9
806.814	77.55
806.989	77.32
807.163	74
807.338	77.94
807.512	72.5
807.687	72.96
807.862	72.07
808.036	76.47
808.211	79.45
808.385	76.13
808.56	78.62
808.734	80.12
808.909	79.68
809.083	78.83
809.258	79.99
809.432	74.03
809.606	78.28
809.781	76.93
809.955	80.14
810.13	84.97
810.304	84.03
810.478	86.21
810.652	88.25
810.827	88.39
811.001	88.98
811.175	83.04
811.349	77.67
811.524	75.57
811.698	71.01
811.872	71.79
812.046	72.95
812.22	70.07
812.394	71.6
812.568	74.41
812.742	77.67
812.916	76.38
813.09	75.54
813.264	74.04
813.438	81.81
813.612	80.77
813.786	79.11
813.96	82.1
814.134	86.09
814.308	84.12
814.482	83.69
814.656	80.79
814.83	82
815.003	82.99
815.177	84.6
815.351	87.71
815.525	84.66
815.698	84.52
815.872	78.55
816.046	77.22
816.219	81.53
816.393	74.53
816.567	65.57
816.74	69.31
816.914	69.78
817.088	69.85
817.261	72.94
817.435	69.7
817.608	70.22
817.782	82.12
817.955	82.68
818.129	82.51
818.302	86.24
818.475	78.76
818.649	73
818.822	78.44
818.996	73.12
819.169	74.07
819.342	70.93
819.516	71.06
819.689	79.57
819.862	81.91
820.035	78.43
820.209	77.47
820.382	76.15
820.555	76.21
820.728	71.35
820.901	64.01
821.075	67.14
821.248	64.01
821.421	56.53
821.594	58.9
821.767	63.8
821.94	62.16
822.113	68.51
822.286	68.8
822.459	75.81
822.632	81.37
822.805	80.21
822.978	76.04
823.151	83.75
823.324	77.89
823.496	65.97
823.669	66.5
823.842	66.89
824.015	63.94
824.188	75.48
824.361	70.27
824.533	78.98
824.706	97.66
824.879	89.91
825.051	92.85
825.224	94.24
825.397	81.84
825.569	88.1
825.742	77.65
825.915	74.08
826.087	74.06
826.26	76.3
826.432	79.56
826.605	80.25
826.777	75.23
826.95	74.53
827.122	71.67
827.295	72.44
827.467	62.87
827.64	52.38
827.812	54.61
827.984	54.55
828.157	60.59
828.329	63.77
828.501	65.08
828.674	65.31
828.846	68.5
829.018	59.29
829.19	62.68
829.363	58.82
829.535	58.92
829.707	55.45
829.879	59.4
830.051	59.68
830.223	60.75
830.395	58.64
830.568	64.2
830.74	60.74
830.912	61.52
831.084	61.2
831.256	59.09
831.428	65.74
831.6	61
831.772	56.08
831.943	59.61
832.115	64.85
832.287	55.32
832.459	61.77
832.631	52.96
832.803	62.23
832.975	61.81
833.146	57.83
833.318	55.18
833.49	68.86
833.662	73.42
833.833	85.44
834.005	85.36
834.177	85.32
834.348	80.61
834.52	84.37
834.692	79.46
834.863	72.77
835.035	66.11
835.206	60.18
835.378	55
835.549	63.09
835.721	59.27
835.892	56.09
836.064	67.91
836.235	70.18
836.407	66.12
836.578	72.63
836.749	77.01
836.921	73.75
837.092	86.69
837.264	65.89
837.435	56.98
837.606	58.86
837.777	52
837.949	35.5
838.12	38.96
838.291	43.91
838.462	52.15
838.633	52.82
838.805	55.59
838.976	53.99
839.147	63.06
839.318	57.89
839.489	44.19
839.66	42.42
839.831	43.04
840.002	41.11
840.173	47.03
840.344	49.58
840.515	50.26
840.686	59.19
840.857	57.01
841.028	61.15
841.199	60.11
841.369	52.06
841.54	52.69
841.711	59.62
841.882	49.73
842.053	42.51
842.223	31
842.394	50.5
842.565	67.12
842.736	67.98
842.906	67.45
843.077	74.7
843.248	81.48
843.418	81.72
843.589	75.62
843.759	71.17
843.93	76.4
844.101	76.44
844.271	80.2
844.442	87.13
844.612	89.22
844.783	77.22
844.953	72.06
845.123	73.28
845.294	79.92
845.464	76.56
845.635	77
845.805	78.65
845.975	78.32
846.146	71.44
846.316	81.87
846.486	71.2
846.656	78.74
846.827	70.14
846.997	75.87
847.167	73.98
847.337	88.51
847.507	73.59
847.677	78.33
847.848	77.38
848.018	79.28
848.188	65.83
848.358	93.97
848.528	92.68
848.698	93.09
848.868	79.09
849.038	69.8
849.208	72.98
849.378	78.94
849.548	62.59
849.718	34.88
849.887	31.82
850.057	55.63
850.227	46.02
850.397	23.59
850.567	29.91
850.737	27.99
850.906	31.24
851.076	30.05
851.246	32.69
851.415	39.34
851.585	50.78
851.755	50.9
851.924	71.74
852.094	80.84
852.264	75.65
852.433	73.3
852.603	90.67
852.772	85.65
852.942	64.89
853.111	58
853.281	61.35
853.45	62.46
853.62	51.97
853.789	42.07
853.959	45.3
854.128	36.48
854.297	28.74
854.467	21.71
854.636	21.53
854.805	36
854.975	42.09
855.144	51.68
855.313	62.65
855.482	53.65
855.652	55.75
855.821	58.23
855.99	70.52
856.159	55.89
856.328	38.6
856.497	41.02
856.667	60.26
856.836	59.94
857.005	62.17
857.174	59.42
857.343	58.24
857.512	49.32
857.681	57.07
857.85	43.69
858.019	48.91
858.188	44.87
858.356	11.99
858.525	24.84
858.694	49.24
858.863	42.64
859.032	32.59
859.201	15.83
859.369	34.08
859.538	34.98
859.707	43.19
859.876	46.79
860.044	45.12
860.213	63.01
860.382	66.54
860.55	81.87
860.719	87.66
860.888	67.05
861.056	62.93
861.225	60.13
861.393	59.99
861.562	47.33
861.73	30.62
861.899	19.06
862.067	35.31
862.236	32.37
862.404	30.88
862.572	25.68
862.741	26.17
862.909	24.48
863.078	28.2
863.246	19.55
863.414	22.89
863.582	43.83
863.751	35.22
863.919	54.29
864.087	47.27
864.255	50.11
864.424	57.88
864.592	58.61
864.76	38.67
864.928	44.28
865.096	29.27
865.264	34.66
865.432	33.28
865.6	9.77
865.768	-5.14
865.936	-18.97
866.104	-44.32
866.272	-37.56
866.44	-89.23
866.608	-92.09
866.776	-14.82
866.944	-18.09
867.112	-20.11
867.28	-25.71
867.448	-27.05
867.615	22.52
867.783	1.93
867.951	-7.27
868.119	38.15
868.286	73.4
868.454	55.82
868.622	70.51
868.789	67.32
868.957	80.61
869.125	66.18
869.292	54.65
869.46	34.03
869.627	24.77
869.795	15.02
869.963	2.75
870.13	4.34
870.298	10.89
870.465	-23.65
870.632	1.7
870.8	9.65
870.967	17.97
871.135	28.22
871.302	26.1
871.469	20
871.637	33.36
871.804	31.02
871.971	33.73
872.139	46.7
872.306	34.38
872.473	19.29
872.64	32.2
872.807	39.61
872.975	61.82
873.142	43.06
873.309	41.5
873.476	95.28
873.643	202.42
873.81	110.06
873.977	81.35
874.144	64.13
874.311	68.36
874.478	15.96
874.645	19.69
874.812	38.74
874.979	43.58
875.146	28.72
875.313	41.31
875.48	127.46
875.647	132.76
875.813	85.02
875.98	40.27
876.147	70.36
876.314	70.96
876.481	76.73
876.647	68.89
876.814	69.84
876.981	72.24
877.147	59.76
877.314	62.39
877.481	63.63
877.647	69.87
877.814	46.41
877.98	70.71
878.147	83.08
878.314	95.95
878.48	79.6
878.647	96.25
878.813	66.11
878.979	75.71
879.146	44.05
879.312	45.58
879.479	71.13
879.645	45.54
879.811	19.51
879.978	47.17
880.144	75.56
880.31	87.08
880.477	46.01
880.643	-16.77
880.809	131.25
880.975	107.95
881.142	62.67
881.308	67.95
881.474	104.86
881.64	85.62
881.806	81.18
881.972	77.62
882.138	85.85
882.304	15.53
882.47	-36.13
882.636	-50.6
882.802	-29.22
882.968	-142.78
883.134	-328.76
883.3	-93.96
883.466	32.46
883.632	45.88
883.798	39.42
883.964	27.78
884.129	61.6
884.295	52.67
884.461	38.36
884.627	9.99
884.793	34.34
884.958	22.34
885.124	-6.51
885.29	9.46
885.455	22.11
885.621	21.48
885.787	15.22
885.952	0.12
886.118	27.31
886.283	52.94
886.449	17.56
886.614	35.1
886.78	26.45
886.945	31.8
887.111	29.15
887.276	-4.17
887.442	-17.28
887.607	9.23
887.773	-9.82
887.938	7.82
888.103	25.24
888.269	35.39
888.434	27.13
888.599	39.87
888.764	19.73
888.93	21.98
889.095	-15.95
889.26	12.8
889.425	-0.77
889.59	13.06
889.756	-9.05
889.921	-4.74
890.086	21.78
890.251	32.09
890.416	-41.43
890.581	6.91
890.746	15.47
890.911	3.52
891.076	-11.33
891.241	-78.16
891.406	-19.86
891.571	6.26
891.736	-19.25
891.901	-9.81
892.065	24.25
892.23	32.35
892.395	20.93
892.56	42.89
892.725	43.52
892.889	27.84
893.054	-8.14
893.219	-78
893.384	-171.15
893.548	-369.17
893.713	961.63
893.878	555.98
