Data from Ofra_2a_PS_1GT36B_Reflection_1.txt Node
Date: Tue Jul 20 09:31:39 EDT 2021
User: Adam
Spectrometer: FLMT01687
Trigger mode: 0
Integration Time (sec): 9.450000E-1
Scans to average: 3
Electric dark correction enabled: true
Nonlinearity correction enabled: false
Boxcar width: 3
XAxis mode: Wavelengths
Number of Pixels in Spectrum: 3648
>>>>>Begin Spectral Data<<<<<
179.494	625.44
179.716	455.46
179.937	508.79
180.158	2005.47
180.38	-864.53
180.601	-198.33
180.823	-117.4
181.044	-131.27
181.265	-149.04
181.486	-16.71
181.708	-1354.35
181.929	-100.23
182.15	-632.95
182.372	0.9
182.593	14.21
182.814	215.87
183.035	93.18
183.257	69.67
183.478	46.14
183.699	42.42
183.92	18.77
184.141	21.09
184.363	15.21
184.584	14.53
184.805	13.26
185.026	-19.58
185.247	-14.66
185.468	-6.58
185.689	4.43
185.91	5.03
186.132	10.75
186.353	-11.75
186.574	-8.69
186.795	-29.99
187.016	-29.69
187.237	-31.79
187.458	-55.94
187.679	-76.83
187.9	-47.49
188.121	-53.46
188.342	-12.75
188.563	-24.31
188.784	-36.44
189.005	-29.76
189.226	-31.88
189.447	-30.62
189.667	-14.48
189.888	-2.72
190.109	0.02
190.33	-12.16
190.551	-12.53
190.772	-13.24
190.993	-0.87
191.214	-12
191.434	-31.32
191.655	-3.38
191.876	14.16
192.097	17.73
192.318	24.59
192.538	19.86
192.759	26.05
192.98	22.33
193.201	25.51
193.421	26.9
193.642	33.61
193.863	27.02
194.083	19.66
194.304	6.72
194.525	28.8
194.745	1.91
194.966	1.93
195.187	2.38
195.407	7.25
195.628	11.1
195.848	16.04
196.069	2.96
196.29	-7.18
196.51	-19.79
196.731	-10.96
196.951	-18.61
197.172	-25.28
197.392	-2.78
197.613	1.11
197.833	0.02
198.054	5.15
198.274	-13.08
198.495	-18.59
198.715	-26.42
198.936	-56.5
199.156	-47.35
199.377	-50.92
199.597	-70.28
199.817	-50.29
200.038	-33.04
200.258	-33.83
200.479	-22.24
200.699	-14.18
200.919	-16.72
201.14	-7.2
201.36	-22.71
201.58	-17.06
201.801	-10.42
202.021	-7.28
202.241	-12.49
202.461	7.39
202.682	11.32
202.902	16.98
203.122	8.41
203.342	17.91
203.563	19.98
203.783	20.57
204.003	20.45
204.223	21.55
204.443	22.48
204.663	36.82
204.884	26.12
205.104	30.64
205.324	30.14
205.544	26
205.764	26.53
205.984	23.78
206.204	7.37
206.424	20.44
206.644	1.06
206.864	-1.79
207.084	13.12
207.304	8.62
207.525	0.58
207.745	5.11
207.964	4.77
208.184	15.57
208.404	15.1
208.624	-11.5
208.844	-17.63
209.064	-7.41
209.284	-5.95
209.504	-12.07
209.724	-46.76
209.944	-43.47
210.164	-28.05
210.384	-27.01
210.604	-33.32
210.823	-35.29
211.043	-43.46
211.263	-10.97
211.483	-8.59
211.703	3.07
211.922	12.67
212.142	14.42
212.362	19.05
212.582	14.79
212.801	0.21
213.021	-14.89
213.241	-34.08
213.461	-46.77
213.68	-38.7
213.9	-32.19
214.12	-35.02
214.339	-11.61
214.559	2.96
214.779	1.95
214.998	13.69
215.218	4.48
215.438	6.26
215.657	24.93
215.877	12.13
216.096	13.05
216.316	14.19
216.535	15
216.755	11.86
216.974	0.26
217.194	-9.26
217.413	-0.1
217.633	-6.25
217.852	-10.88
218.072	-35.42
218.291	-10.71
218.511	-0.62
218.73	-5.97
218.95	0.8
219.169	6.82
219.389	1.43
219.608	6.89
219.827	-6.99
220.047	-17.22
220.266	-6.61
220.485	-23.77
220.705	-20.49
220.924	-14.02
221.143	-15.13
221.363	-6.68
221.582	-4.99
221.801	-3.96
222.021	11.68
222.24	14.29
222.459	-2.91
222.678	-7.93
222.897	-13.02
223.117	-2.45
223.336	0.48
223.555	-15.27
223.774	-19.83
223.993	-1.99
224.213	-2.78
224.432	8.42
224.651	2.53
224.87	-6.95
225.089	1.91
225.308	-4.89
225.527	2.31
225.746	6.83
225.965	-7.02
226.184	-9.06
226.404	-10.61
226.623	-3.91
226.842	4.2
227.061	4.91
227.28	11.26
227.499	20.35
227.718	20.03
227.936	22.41
228.155	14.58
228.374	20.11
228.593	11.04
228.812	3.15
229.031	-5.54
229.25	-3.12
229.469	3.08
229.688	17.74
229.907	6.05
230.125	20.14
230.344	24.75
230.563	22.32
230.782	17.21
231.001	8.95
231.22	-2.75
231.438	7.6
231.657	-2.46
231.876	-3.4
232.095	-1.59
232.313	-1.5
232.532	1.22
232.751	1.96
232.969	8.03
233.188	3.62
233.407	0.59
233.625	-5.46
233.844	-0.67
234.063	-1.73
234.281	-5.69
234.5	-10.8
234.719	-14.46
234.937	-15.68
235.156	-11.93
235.374	-29.14
235.593	-31.49
235.811	-35.17
236.03	-56.15
236.249	-24.68
236.467	-11.38
236.686	-15.07
236.904	-2.26
237.123	0.02
237.341	8.95
237.559	16.31
237.778	11.43
237.996	6.73
238.215	18.31
238.433	16.77
238.652	21.22
238.87	20.91
239.088	17.12
239.307	14
239.525	11.42
239.743	-3.44
239.962	3.35
240.18	-0.08
240.398	0.38
240.617	9.43
240.835	4.85
241.053	6.26
241.271	22.8
241.49	8.06
241.708	7.43
241.926	-4.41
242.144	-11.26
242.363	-5.87
242.581	-1.03
242.799	-12.28
243.017	-5.97
243.235	-13.6
243.453	-20.72
243.672	-21.69
243.89	-17.84
244.108	-10.51
244.326	-17.97
244.544	-12.16
244.762	-4.16
244.98	7.29
245.198	-3.23
245.416	-4.36
245.634	-7.06
245.852	-0.45
246.07	-0.71
246.288	-10.51
246.506	-13.26
246.724	6.91
246.942	1.78
247.16	-2.95
247.378	-15.99
247.596	-7.22
247.814	-0.63
248.032	0.41
248.25	-14.49
248.468	-2.59
248.685	2.67
248.903	18.48
249.121	6.96
249.339	0.11
249.557	2.34
249.775	-0.67
249.992	-6.32
250.21	-15.82
250.428	-23.31
250.646	-19.79
250.863	-13.79
251.081	-19.57
251.299	-0.09
251.517	5
251.734	9.8
251.952	30.97
252.17	12.61
252.387	10.97
252.605	7.74
252.823	-17.57
253.04	-36.3
253.258	-23.41
253.475	-21.35
253.693	-0.33
253.911	4.06
254.128	11.42
254.346	12.14
254.563	11.55
254.781	6.64
254.998	-2.07
255.216	-3.39
255.433	-5.9
255.651	-13.02
255.868	-4.86
256.086	-1.18
256.303	3.43
256.521	2.03
256.738	-0.09
256.956	-13.81
257.173	-2.84
257.39	-0.57
257.608	2.41
257.825	-6.48
258.043	-0.48
258.26	-3.78
258.477	12.72
258.695	20.89
258.912	29.41
259.129	21.01
259.346	23.12
259.564	9.86
259.781	18.26
259.998	6.48
260.216	3.54
260.433	-4.77
260.65	-1.02
260.867	-17.71
261.084	-0.34
261.302	-3.82
261.519	-10.42
261.736	-21.63
261.953	-27.53
262.17	-25.96
262.387	-9.02
262.604	-24.22
262.822	-25.51
263.039	-18.85
263.256	-11.02
263.473	-6.41
263.69	11.95
263.907	0.02
264.124	-2.67
264.341	-3.38
264.558	-4.43
264.775	-3.78
264.992	-7.46
265.209	-6.39
265.426	1.27
265.643	6
265.86	2.93
266.077	10.78
266.294	8.12
266.51	8.92
266.727	-10.41
266.944	-63.06
267.161	-72.68
267.378	-82.14
267.595	-92.83
267.812	-101.03
268.028	-96.48
268.245	-79.73
268.462	-33.57
268.679	-33.21
268.896	-28.59
269.112	-18.83
269.329	-10.08
269.546	-14.36
269.763	-6.28
269.979	-3.38
270.196	5.93
270.413	7.41
270.629	1.09
270.846	3.73
271.063	12.04
271.279	7.36
271.496	-4.59
271.712	-5.11
271.929	-12.66
272.146	-1.8
272.362	-19.67
272.579	-21.65
272.795	-13.6
273.012	-4.55
273.228	-1.16
273.445	6.8
273.661	-1.18
273.878	12.94
274.094	15.28
274.311	9.84
274.527	6.58
274.744	4.3
274.96	2.96
275.177	7.62
275.393	-0.34
275.609	-4.32
275.826	-4.75
276.042	3.71
276.259	-1.43
276.475	-2.88
276.691	-5.36
276.908	0.73
277.124	0.23
277.34	-0.3
277.557	2.38
277.773	3.12
277.989	2.63
278.205	1.02
278.422	0.36
278.638	13.01
278.854	4.32
279.07	-9.97
279.286	-9.49
279.503	-12.19
279.719	-0.44
279.935	-13.28
280.151	-20.09
280.367	-8.85
280.583	-9.05
280.799	-1.81
281.016	2.22
281.232	-11.92
281.448	-8.57
281.664	-10.4
281.88	-5.06
282.096	4.65
282.312	-2.44
282.528	-7.42
282.744	-3.66
282.96	-2.44
283.176	3.55
283.392	-2.94
283.608	3.54
283.824	3.26
284.04	10.95
284.256	7.76
284.471	12.81
284.687	9.48
284.903	11.37
285.119	0.61
285.335	11.44
285.551	19
285.767	24.56
285.982	17.22
286.198	19.1
286.414	24.11
286.63	27.04
286.846	16
287.061	14.66
287.277	18.69
287.493	20.84
287.709	13.44
287.924	13.52
288.14	16.29
288.356	12.31
288.571	-2.29
288.787	-1.59
289.003	0.1
289.218	4.99
289.434	-0.07
289.65	2.74
289.865	10.27
290.081	12.76
290.296	9.55
290.512	16.17
290.727	21.4
290.943	8.53
291.159	1.53
291.374	7.43
291.59	11.29
291.805	23.85
292.021	8.19
292.236	-1.15
292.451	4.57
292.667	6.44
292.882	-1.56
293.098	-6.35
293.313	-18.71
293.529	-9.69
293.744	-5.68
293.959	13.44
294.175	16.1
294.39	17.42
294.605	17.88
294.821	20.17
295.036	13.88
295.251	12.57
295.467	-3.06
295.682	3.52
295.897	1.6
296.112	-5.47
296.328	-7.34
296.543	-1.25
296.758	-2.72
296.973	1.98
297.188	-5.52
297.404	0.8
297.619	11.66
297.834	22.41
298.049	16.37
298.264	18.26
298.479	2.86
298.694	10.27
298.909	8.56
299.125	11.77
299.34	3.77
299.555	6.58
299.77	6.89
299.985	14.5
300.2	8.58
300.415	10.37
300.63	3.93
300.845	13.55
301.06	15.39
301.275	14.47
301.49	18.86
301.704	18.18
301.919	12.31
302.134	8.51
302.349	-9.07
302.564	-13.59
302.779	-23.7
302.994	-30.2
303.209	-38.74
303.423	-18.71
303.638	-11.6
303.853	-3.19
304.068	-0.26
304.283	7.3
304.497	0.18
304.712	8.51
304.927	-3.3
305.142	-6.09
305.356	-2.5
305.571	-6.95
305.786	-6.29
306	-0.68
306.215	0.09
306.43	10.33
306.644	5.91
306.859	8.48
307.074	1.84
307.288	0.65
307.503	2.57
307.717	-6.34
307.932	-9.48
308.147	-6.25
308.361	-6.23
308.576	7.45
308.79	8.71
309.005	8.26
309.219	15.56
309.434	19.35
309.648	14.92
309.863	8.61
310.077	1.87
310.292	4.68
310.506	22.07
310.72	10.3
310.935	1
311.149	10.38
311.364	15.83
311.578	14.69
311.792	10.66
312.007	-4.16
312.221	5.94
312.435	7.58
312.649	11.9
312.864	-4.78
313.078	-13.78
313.292	-9.77
313.507	-5.29
313.721	-12.49
313.935	7.5
314.149	1.73
314.363	11.99
314.578	24.92
314.792	20.99
315.006	16.28
315.22	20.19
315.434	6.92
315.648	-2.46
315.862	-1.43
316.077	-1.08
316.291	1.38
316.505	3.1
316.719	-10.06
316.933	0.79
317.147	15
317.361	12.72
317.575	12.65
317.789	13.35
318.003	12.6
318.217	23.39
318.431	16.2
318.645	9.89
318.859	5.67
319.073	4.54
319.287	7.72
319.5	9.87
319.714	2.96
319.928	8
320.142	11.73
320.356	22.74
320.57	17.54
320.784	7.75
320.997	7.37
321.211	11.26
321.425	0.35
321.639	6.04
321.853	-0.38
322.066	2.77
322.28	3.6
322.494	1.23
322.707	-4.99
322.921	6.54
323.135	-0.34
323.349	5.55
323.562	7.81
323.776	14.12
323.989	11.54
324.203	17.25
324.417	6.15
324.63	2.91
324.844	-12.38
325.057	-14.49
325.271	-26.62
325.485	-24.75
325.698	-32.75
325.912	-12.65
326.125	-4.7
326.339	6.51
326.552	8.23
326.766	21.93
326.979	21.32
327.193	23.86
327.406	5.11
327.619	-7.83
327.833	-16.59
328.046	-17.33
328.26	-33.68
328.473	-26.74
328.686	-19.15
328.9	-18.43
329.113	-7.43
329.326	0.86
329.54	1.83
329.753	1.98
329.966	6.74
330.179	9.87
330.393	4.48
330.606	5.22
330.819	12
331.032	18.21
331.246	22.19
331.459	16.94
331.672	18.01
331.885	22.99
332.098	20.75
332.311	0.46
332.525	-1.32
332.738	-2.7
332.951	-2.06
333.164	-10.34
333.377	-22.14
333.59	-17.35
333.803	-1.56
334.016	-19.91
334.229	-17.43
334.442	-10.63
334.655	-6.96
334.868	8.57
335.081	9.39
335.294	-2.54
335.507	15.33
335.72	13.81
335.933	18.63
336.146	21.27
336.359	18.1
336.572	14.36
336.785	23.45
336.997	13.08
337.21	7.08
337.423	-6.96
337.636	-6.75
337.849	-11.99
338.062	-9.07
338.274	-14.53
338.487	-6.49
338.7	-0.33
338.913	3.6
339.125	-5.35
339.338	8.14
339.551	12.68
339.763	10.38
339.976	10.49
340.189	9.19
340.402	11.74
340.614	23.95
340.827	14.01
341.039	12.99
341.252	14.64
341.465	4.15
341.677	1.46
341.89	-1.6
342.102	0.43
342.315	12.17
342.527	0.08
342.74	-2.33
342.952	10.98
343.165	15.28
343.377	22.29
343.59	9.85
343.802	3.53
344.015	13.41
344.227	11.18
344.44	5.73
344.652	2.39
344.864	-5.06
345.077	-4.97
345.289	-8.9
345.502	-11.83
345.714	-22.69
345.926	-17.98
346.139	-8.28
346.351	-16.92
346.563	-1.21
346.775	-1.39
346.988	-1.6
347.2	14.99
347.412	13.16
347.624	15.42
347.837	20.15
348.049	15.85
348.261	19.45
348.473	15.52
348.685	18.11
348.897	13.71
349.11	14.33
349.322	12.01
349.534	6.4
349.746	16.03
349.958	19.29
350.17	10.3
350.382	9.21
350.594	-2.25
350.806	3.77
351.018	13.49
351.23	8.92
351.442	10.23
351.654	12.12
351.866	21.04
352.078	26.6
352.29	30.46
352.502	24
352.714	15.39
352.926	13.56
353.138	15.01
353.35	5.03
353.561	-4.78
353.773	-11.17
353.985	-12.24
354.197	-10.49
354.409	-7.73
354.621	-5.19
354.832	-8.3
355.044	1.06
355.256	2.02
355.468	-6.23
355.679	-7.67
355.891	-4.95
356.103	-7.77
356.314	-6.21
356.526	-11.61
356.738	-15.92
356.949	-4.82
357.161	-2.83
357.373	-3.67
357.584	0.61
357.796	0.31
358.008	2.49
358.219	14.8
358.431	10.7
358.642	6.82
358.854	3.38
359.065	-1.73
359.277	-7.69
359.488	-16.55
359.7	-20.29
359.911	-24.53
360.123	-15.24
360.334	-16.16
360.546	-21.17
360.757	-13.9
360.969	-0.64
361.18	-8.84
361.391	2.23
361.603	4.86
361.814	6.37
362.025	7.12
362.237	9.38
362.448	9.29
362.659	4.44
362.871	-2.34
363.082	3.13
363.293	9.73
363.504	14.67
363.716	14.97
363.927	13.64
364.138	23.56
364.349	28.71
364.56	20.32
364.772	16.08
364.983	5.72
365.194	11.99
365.405	2.23
365.616	-15.39
365.827	-24.85
366.038	-16.21
366.25	-14.42
366.461	-6.89
366.672	-18.3
366.883	-9.43
367.094	0.14
367.305	-1.51
367.516	-9.11
367.727	-9.68
367.938	-6.54
368.149	-6.68
368.36	-2.7
368.571	0.3
368.781	2.79
368.992	4.65
369.203	1.6
369.414	-5.68
369.625	-0.84
369.836	-3.8
370.047	-5.62
370.258	-5.84
370.468	-6.42
370.679	-3.59
370.89	7.37
371.101	-0.64
371.312	-6.83
371.522	-2.87
371.733	-6.23
371.944	-4.79
372.155	-15.69
372.365	-24.85
372.576	-18.05
372.787	-17.42
372.997	-20.97
373.208	-11.41
373.419	-15.77
373.629	-5.32
373.84	-3.68
374.05	-6.53
374.261	-8.37
374.472	-14.89
374.682	-22.71
374.893	-21.13
375.103	-15.63
375.314	-19.67
375.524	-10.83
375.735	-7.61
375.945	-3.29
376.156	0.57
376.366	0.07
376.577	0.78
376.787	7.3
376.997	5.02
377.208	5.94
377.418	4.85
377.629	8.1
377.839	10.26
378.049	10.2
378.26	9.87
378.47	6.45
378.68	5.4
378.89	2.98
379.101	-11.07
379.311	-12.57
379.521	-10.93
379.732	-15.28
379.942	-7.55
380.152	2.54
380.362	9.23
380.572	14.28
380.783	12.33
380.993	11.93
381.203	10.51
381.413	10.25
381.623	2.44
381.833	-7.96
382.043	-5.6
382.253	-3.94
382.463	-4.52
382.674	-1.32
382.884	-5.44
383.094	-6.59
383.304	1.24
383.514	5.07
383.724	5.75
383.934	7.58
384.144	8.62
384.353	8.67
384.563	6.75
384.773	6.1
384.983	2.15
385.193	3.36
385.403	-0.77
385.613	-5.52
385.823	-3.95
386.033	-1.27
386.242	-3.04
386.452	-0.98
386.662	0.48
386.872	-0.23
387.082	3.85
387.291	4.9
387.501	5.8
387.711	7.02
387.921	5.17
388.13	3.65
388.34	1.3
388.55	3.69
388.759	1.22
388.969	0.57
389.179	2.67
389.388	3.18
389.598	2.16
389.807	4.4
390.017	2.3
390.227	1.76
390.436	2.77
390.646	1.57
390.855	1.64
391.065	2.73
391.274	3.68
391.484	4.52
391.693	5.64
391.903	4.35
392.112	3
392.322	3.4
392.531	2.25
392.74	0.98
392.95	0.47
393.159	2.11
393.369	2.3
393.578	3.4
393.787	3.34
393.997	4.48
394.206	4.27
394.415	5.04
394.625	3.25
394.834	2.23
395.043	2.28
395.252	2.28
395.462	2.21
395.671	2.58
395.88	2.06
396.089	2.54
396.298	3.22
396.508	3.11
396.717	2.97
396.926	2.65
397.135	2.22
397.344	1.78
397.553	1.9
397.762	1.98
397.971	1.76
398.181	1.62
398.39	1.55
398.599	2.15
398.808	2.63
399.017	2.66
399.226	2.74
399.435	3.16
399.644	3.3
399.853	3.33
400.062	3.16
400.27	3.04
400.479	3.07
400.688	3.04
400.897	2.87
401.106	3.13
401.315	2.96
401.524	3.09
401.733	3.37
401.941	3.34
402.15	3.13
402.359	3.04
402.568	2.88
402.777	2.83
402.985	2.73
403.194	2.4
403.403	2.01
403.612	2.01
403.82	2.06
404.029	1.98
404.238	2.06
404.446	2.04
404.655	2.06
404.864	2.2
405.072	2.25
405.281	2.13
405.489	2.22
405.698	2.2
405.906	2.18
406.115	2.23
406.324	2.3
406.532	2.39
406.741	2.45
406.949	2.32
407.158	2.4
407.366	2.47
407.574	2.52
407.783	2.46
407.991	2.33
408.2	2.34
408.408	2.38
408.617	2.34
408.825	2.36
409.033	2.24
409.242	2.26
409.45	2.3
409.658	2.27
409.867	2.29
410.075	2.25
410.283	2.15
410.491	2.14
410.7	2.17
410.908	2.13
411.116	2.07
411.324	2.04
411.533	1.96
411.741	1.91
411.949	1.99
412.157	2.02
412.365	2.08
412.573	2.13
412.781	2.11
412.99	2.24
413.198	2.35
413.406	2.28
413.614	2.29
413.822	2.24
414.03	2.21
414.238	2.32
414.446	2.27
414.654	2.23
414.862	2.19
415.07	2.2
415.278	2.16
415.486	2.33
415.694	2.12
415.902	2.07
416.109	2.1
416.317	2.1
416.525	2.07
416.733	2.15
416.941	1.97
417.149	2.16
417.357	2.23
417.564	2.12
417.772	2.13
417.98	2.08
418.188	1.97
418.395	1.95
418.603	1.85
418.811	1.68
419.019	1.67
419.226	1.74
419.434	1.69
419.642	1.67
419.849	1.64
420.057	1.65
420.265	1.8
420.472	1.77
420.68	1.7
420.887	1.76
421.095	1.78
421.302	1.85
421.51	1.88
421.717	1.91
421.925	1.91
422.132	1.86
422.34	1.8
422.547	1.72
422.755	1.66
422.962	1.67
423.17	1.62
423.377	1.76
423.585	1.78
423.792	1.78
423.999	1.79
424.207	1.81
424.414	1.89
424.621	1.92
424.829	1.79
425.036	1.81
425.243	1.88
425.451	1.94
425.658	2.04
425.865	1.83
426.072	1.74
426.28	1.76
426.487	1.75
426.694	1.67
426.901	1.68
427.108	1.6
427.315	1.67
427.523	1.73
427.73	1.77
427.937	1.82
428.144	1.87
428.351	1.94
428.558	1.82
428.765	1.7
428.972	1.72
429.179	1.62
429.386	1.63
429.593	1.65
429.8	1.61
430.007	1.78
430.214	1.93
430.421	1.93
430.628	1.86
430.835	1.81
431.042	1.78
431.249	1.86
431.456	1.88
431.662	1.85
431.869	1.93
432.076	2.06
432.283	2.04
432.49	2.07
432.697	2.04
432.903	2.02
433.11	2
433.317	1.95
433.524	1.87
433.73	1.99
433.937	1.93
434.144	2.01
434.35	2.05
434.557	2.07
434.764	2
434.97	2.18
435.177	2.12
435.384	2.22
435.59	2.17
435.797	2.12
436.003	2.14
436.21	2.14
436.416	2.03
436.623	2.09
436.829	2.05
437.036	2.01
437.242	2.06
437.449	2.12
437.655	2.18
437.862	2.24
438.068	2.25
438.275	2.3
438.481	2.38
438.687	2.38
438.894	2.31
439.1	2.39
439.307	2.42
439.513	2.4
439.719	2.41
439.926	2.4
440.132	2.41
440.338	2.48
440.544	2.41
440.751	2.39
440.957	2.36
441.163	2.35
441.369	2.38
441.575	2.39
441.782	2.38
441.988	2.43
442.194	2.5
442.4	2.52
442.606	2.57
442.812	2.57
443.018	2.57
443.224	2.6
443.431	2.63
443.637	2.52
443.843	2.52
444.049	2.48
444.255	2.4
444.461	2.46
444.667	2.42
444.873	2.38
445.079	2.44
445.284	2.44
445.49	2.48
445.696	2.54
445.902	2.57
446.108	2.62
446.314	2.63
446.52	2.66
446.726	2.73
446.931	2.76
447.137	2.76
447.343	2.74
447.549	2.75
447.755	2.76
447.96	2.73
448.166	2.74
448.372	2.68
448.578	2.7
448.783	2.65
448.989	2.66
449.195	2.69
449.4	2.7
449.606	2.71
449.812	2.8
450.017	2.83
450.223	2.86
450.428	2.84
450.634	2.89
450.84	2.91
451.045	2.86
451.251	2.86
451.456	2.83
451.662	2.8
451.867	2.83
452.073	2.8
452.278	2.77
452.483	2.79
452.689	2.74
452.894	2.76
453.1	2.75
453.305	2.74
453.51	2.74
453.716	2.77
453.921	2.83
454.127	2.82
454.332	2.81
454.537	2.92
454.742	2.92
454.948	2.95
455.153	2.96
455.358	2.97
455.563	3.02
455.769	3.06
455.974	3
456.179	2.96
456.384	2.92
456.589	2.96
456.795	2.9
457	2.91
457.205	2.87
457.41	2.87
457.615	2.95
457.82	3.03
458.025	3
458.23	3.05
458.435	3.02
458.64	3.08
458.845	3.09
459.05	3.08
459.255	3.05
459.46	3.03
459.665	3.07
459.87	3.08
460.075	3.02
460.28	3.04
460.485	3.05
460.69	3.03
460.895	3.09
461.099	3.1
461.304	3.1
461.509	3.08
461.714	3.08
461.919	3.09
462.123	3.1
462.328	3.08
462.533	3.09
462.738	3.09
462.942	3.16
463.147	3.2
463.352	3.25
463.556	3.29
463.761	3.3
463.966	3.33
464.17	3.35
464.375	3.37
464.58	3.29
464.784	3.26
464.989	3.26
465.193	3.28
465.398	3.28
465.602	3.25
465.807	3.26
466.011	3.36
466.216	3.38
466.42	3.42
466.625	3.42
466.829	3.44
467.034	3.51
467.238	3.53
467.443	3.56
467.647	3.58
467.851	3.57
468.056	3.56
468.26	3.52
468.464	3.51
468.669	3.53
468.873	3.49
469.077	3.54
469.282	3.59
469.486	3.66
469.69	3.73
469.894	3.78
470.099	3.78
470.303	3.8
470.507	3.79
470.711	3.74
470.915	3.77
471.119	3.77
471.324	3.7
471.528	3.74
471.732	3.79
471.936	3.84
472.14	3.86
472.344	3.89
472.548	3.88
472.752	3.99
472.956	4.01
473.16	3.98
473.364	3.95
473.568	4
473.772	3.99
473.976	4.02
474.18	4.02
474.384	4.03
474.588	4.08
474.792	4.1
474.995	4.13
475.199	4.16
475.403	4.19
475.607	4.21
475.811	4.18
476.015	4.23
476.218	4.27
476.422	4.27
476.626	4.27
476.83	4.29
477.033	4.3
477.237	4.36
477.441	4.33
477.644	4.34
477.848	4.36
478.052	4.39
478.255	4.36
478.459	4.41
478.663	4.43
478.866	4.43
479.07	4.47
479.273	4.46
479.477	4.52
479.681	4.53
479.884	4.5
480.088	4.49
480.291	4.56
480.495	4.56
480.698	4.55
480.901	4.52
481.105	4.59
481.308	4.63
481.512	4.67
481.715	4.69
481.919	4.69
482.122	4.75
482.325	4.8
482.529	4.82
482.732	4.85
482.935	4.85
483.138	4.84
483.342	4.88
483.545	4.85
483.748	4.87
483.952	4.88
484.155	4.88
484.358	4.88
484.561	4.89
484.764	4.88
484.967	4.94
485.171	4.91
485.374	4.91
485.577	4.9
485.78	4.95
485.983	4.97
486.186	4.99
486.389	4.97
486.592	5.01
486.795	4.99
486.998	4.98
487.201	4.96
487.404	4.99
487.607	5
487.81	5.04
488.013	5.03
488.216	5.08
488.419	5.09
488.622	5.07
488.825	5.03
489.028	4.98
489.231	4.98
489.433	4.97
489.636	4.93
489.839	4.97
490.042	5.02
490.245	5.06
490.447	5.08
490.65	5.07
490.853	5.07
491.056	5.08
491.258	5.05
491.461	5.01
491.664	4.97
491.866	5.01
492.069	5
492.272	5.02
492.474	5.03
492.677	5.05
492.879	5.05
493.082	5.07
493.285	5.09
493.487	5.07
493.69	5.08
493.892	5.12
494.095	5.11
494.297	5.17
494.5	5.2
494.702	5.17
494.905	5.22
495.107	5.21
495.309	5.18
495.512	5.24
495.714	5.24
495.917	5.2
496.119	5.26
496.321	5.28
496.524	5.3
496.726	5.33
496.928	5.32
497.13	5.35
497.333	5.43
497.535	5.41
497.737	5.43
497.939	5.46
498.142	5.46
498.344	5.46
498.546	5.47
498.748	5.4
498.95	5.41
499.152	5.39
499.355	5.4
499.557	5.45
499.759	5.5
499.961	5.52
500.163	5.62
500.365	5.64
500.567	5.65
500.769	5.69
500.971	5.67
501.173	5.66
501.375	5.64
501.577	5.62
501.779	5.65
501.981	5.69
502.183	5.66
502.385	5.68
502.587	5.7
502.788	5.71
502.99	5.72
503.192	5.73
503.394	5.75
503.596	5.77
503.798	5.86
503.999	5.88
504.201	5.92
504.403	5.95
504.605	6
504.806	6.01
505.008	5.98
505.21	5.98
505.411	6.02
505.613	6.06
505.815	6.07
506.016	6.08
506.218	6.09
506.42	6.17
506.621	6.15
506.823	6.15
507.024	6.12
507.226	6.14
507.427	6.13
507.629	6.18
507.83	6.18
508.032	6.24
508.233	6.25
508.435	6.3
508.636	6.31
508.838	6.36
509.039	6.35
509.24	6.33
509.442	6.32
509.643	6.32
509.845	6.32
510.046	6.33
510.247	6.36
510.448	6.39
510.65	6.45
510.851	6.49
511.052	6.52
511.254	6.56
511.455	6.56
511.656	6.53
511.857	6.56
512.058	6.57
512.26	6.57
512.461	6.61
512.662	6.59
512.863	6.63
513.064	6.64
513.265	6.66
513.466	6.71
513.667	6.75
513.868	6.74
514.069	6.76
514.27	6.77
514.471	6.81
514.672	6.82
514.873	6.79
515.074	6.8
515.275	6.8
515.476	6.85
515.677	6.87
515.878	6.91
516.079	6.94
516.28	6.93
516.481	6.93
516.682	6.97
516.882	6.98
517.083	6.98
517.284	6.93
517.485	6.97
517.686	6.98
517.886	7.02
518.087	7.04
518.288	7.03
518.488	7.07
518.689	7.13
518.89	7.15
519.091	7.18
519.291	7.18
519.492	7.2
519.692	7.23
519.893	7.23
520.094	7.23
520.294	7.2
520.495	7.23
520.695	7.28
520.896	7.25
521.096	7.29
521.297	7.28
521.497	7.29
521.698	7.33
521.898	7.36
522.099	7.35
522.299	7.39
522.499	7.39
522.7	7.43
522.9	7.45
523.101	7.45
523.301	7.46
523.501	7.46
523.702	7.44
523.902	7.47
524.102	7.46
524.302	7.48
524.503	7.51
524.703	7.51
524.903	7.53
525.103	7.57
525.304	7.55
525.504	7.55
525.704	7.53
525.904	7.54
526.104	7.57
526.304	7.6
526.504	7.62
526.705	7.68
526.905	7.71
527.105	7.75
527.305	7.72
527.505	7.71
527.705	7.7
527.905	7.73
528.105	7.73
528.305	7.73
528.505	7.78
528.705	7.82
528.905	7.87
529.105	7.92
529.304	7.94
529.504	7.97
529.704	8
529.904	8
530.104	7.97
530.304	7.99
530.503	7.98
530.703	8
530.903	7.99
531.103	8.02
531.303	8.05
531.502	8.09
531.702	8.13
531.902	8.16
532.101	8.18
532.301	8.2
532.501	8.22
532.7	8.21
532.9	8.23
533.1	8.23
533.299	8.28
533.499	8.28
533.698	8.31
533.898	8.36
534.097	8.37
534.297	8.37
534.496	8.38
534.696	8.35
534.895	8.39
535.095	8.42
535.294	8.39
535.494	8.44
535.693	8.51
535.892	8.55
536.092	8.58
536.291	8.6
536.491	8.6
536.69	8.64
536.889	8.63
537.088	8.63
537.288	8.69
537.487	8.75
537.686	8.78
537.886	8.82
538.085	8.85
538.284	8.9
538.483	8.95
538.682	8.95
538.882	8.96
539.081	9.01
539.28	9.03
539.479	9.05
539.678	9.09
539.877	9.14
540.076	9.16
540.275	9.19
540.474	9.18
540.673	9.24
540.872	9.3
541.071	9.34
541.27	9.33
541.469	9.37
541.668	9.45
541.867	9.53
542.066	9.55
542.265	9.57
542.464	9.63
542.663	9.71
542.862	9.75
543.06	9.77
543.259	9.78
543.458	9.84
543.657	9.87
543.856	9.87
544.054	9.89
544.253	9.92
544.452	9.91
544.651	9.93
544.849	9.94
545.048	9.98
545.247	10.03
545.445	10.02
545.644	10.13
545.843	10.22
546.041	10.29
546.24	10.39
546.438	10.49
546.637	10.56
546.836	10.65
547.034	10.64
547.233	10.69
547.431	10.7
547.63	10.72
547.828	10.74
548.027	10.76
548.225	10.81
548.423	10.88
548.622	10.94
548.82	11
549.019	11.03
549.217	11.12
549.415	11.22
549.614	11.28
549.812	11.37
550.01	11.44
550.209	11.55
550.407	11.67
550.605	11.76
550.803	11.8
551.002	11.88
551.2	11.95
551.398	12.01
551.596	12.06
551.794	12.14
551.993	12.12
552.191	12.22
552.389	12.29
552.587	12.32
552.785	12.44
552.983	12.52
553.181	12.54
553.379	12.68
553.577	12.75
553.775	12.85
553.973	12.94
554.171	13.03
554.369	13.1
554.567	13.16
554.765	13.19
554.963	13.27
555.161	13.33
555.359	13.42
555.557	13.46
555.755	13.54
555.952	13.64
556.15	13.73
556.348	13.85
556.546	13.96
556.744	14.04
556.941	14.17
557.139	14.27
557.337	14.38
557.535	14.52
557.732	14.57
557.93	14.67
558.128	14.75
558.325	14.8
558.523	14.87
558.721	15
558.918	15.11
559.116	15.25
559.313	15.33
559.511	15.44
559.708	15.55
559.906	15.64
560.104	15.72
560.301	15.78
560.498	15.82
560.696	15.88
560.893	16
561.091	16.1
561.288	16.19
561.486	16.29
561.683	16.4
561.88	16.55
562.078	16.67
562.275	16.77
562.473	16.88
562.67	17.01
562.867	17.09
563.064	17.22
563.262	17.38
563.459	17.51
563.656	17.66
563.853	17.77
564.051	17.86
564.248	18
564.445	18.06
564.642	18.11
564.839	18.23
565.036	18.33
565.234	18.42
565.431	18.52
565.628	18.66
565.825	18.77
566.022	18.86
566.219	18.92
566.416	19.01
566.613	19.13
566.81	19.22
567.007	19.31
567.204	19.43
567.401	19.54
567.598	19.64
567.795	19.7
567.991	19.75
568.188	19.89
568.385	19.98
568.582	20.08
568.779	20.16
568.976	20.23
569.172	20.34
569.369	20.45
569.566	20.45
569.763	20.52
569.96	20.56
570.156	20.61
570.353	20.67
570.55	20.76
570.746	20.84
570.943	20.98
571.14	21.04
571.336	21.08
571.533	21.15
571.729	21.24
571.926	21.3
572.123	21.34
572.319	21.33
572.516	21.39
572.712	21.47
572.909	21.59
573.105	21.65
573.302	21.65
573.498	21.74
573.695	21.84
573.891	21.89
574.087	21.91
574.284	21.93
574.48	21.96
574.677	22.05
574.873	22.07
575.069	22.14
575.266	22.17
575.462	22.25
575.658	22.3
575.854	22.36
576.051	22.39
576.247	22.42
576.443	22.45
576.639	22.47
576.835	22.5
577.032	22.52
577.228	22.52
577.424	22.54
577.62	22.58
577.816	22.64
578.012	22.7
578.208	22.73
578.404	22.77
578.6	22.82
578.796	22.84
578.993	22.91
579.189	22.9
579.384	22.88
579.58	22.87
579.776	22.86
579.972	22.87
580.168	22.88
580.364	22.83
580.56	22.84
580.756	22.86
580.952	22.94
581.148	22.94
581.343	22.98
581.539	22.96
581.735	22.98
581.931	22.96
582.127	22.98
582.322	23
582.518	23
582.714	22.97
582.909	23
583.105	23.02
583.301	23
583.496	22.97
583.692	22.93
583.888	22.91
584.083	22.94
584.279	22.96
584.474	22.96
584.67	23.01
584.866	23.1
585.061	23.14
585.257	23.2
585.452	23.15
585.648	23.18
585.843	23.19
586.039	23.18
586.234	23.17
586.429	23.13
586.625	23.16
586.82	23.18
587.015	23.15
587.211	23.18
587.406	23.24
587.601	23.23
587.797	23.24
587.992	23.23
588.187	23.25
588.383	23.32
588.578	23.27
588.773	23.28
588.968	23.41
589.163	23.48
589.359	23.5
589.554	23.55
589.749	23.58
589.944	23.68
590.139	23.69
590.334	23.63
590.529	23.68
590.724	23.72
590.919	23.82
591.114	23.8
591.309	23.82
591.504	23.87
591.699	23.92
591.894	23.98
592.089	24.03
592.284	24
592.479	24.03
592.674	24.05
592.869	24.15
593.064	24.24
593.259	24.21
593.454	24.26
593.648	24.31
593.843	24.43
594.038	24.52
594.233	24.59
594.428	24.66
594.622	24.79
594.817	24.86
595.012	25
595.206	25.06
595.401	25.11
595.596	25.25
595.79	25.31
595.985	25.43
596.18	25.55
596.374	25.63
596.569	25.74
596.763	25.88
596.958	25.9
597.153	25.96
597.347	26.01
597.542	26.07
597.736	26.15
597.931	26.21
598.125	26.25
598.319	26.36
598.514	26.46
598.708	26.55
598.903	26.65
599.097	26.73
599.291	26.8
599.486	26.88
599.68	26.91
599.874	26.98
600.069	26.99
600.263	26.98
600.457	26.99
600.651	27.08
600.846	27.1
601.04	27.12
601.234	27.15
601.428	27.17
601.622	27.2
601.817	27.29
602.011	27.32
602.205	27.38
602.399	27.42
602.593	27.44
602.787	27.51
602.981	27.61
603.175	27.6
603.369	27.61
603.563	27.56
603.757	27.54
603.951	27.55
604.145	27.55
604.339	27.48
604.533	27.49
604.727	27.48
604.921	27.48
605.115	27.49
605.309	27.49
605.502	27.48
605.696	27.49
605.89	27.48
606.084	27.48
606.278	27.5
606.471	27.45
606.665	27.35
606.859	27.28
607.053	27.24
607.246	27.19
607.44	27.09
607.634	27.05
607.827	26.93
608.021	26.89
608.214	26.84
608.408	26.77
608.602	26.73
608.795	26.7
608.989	26.66
609.182	26.71
609.376	26.7
609.569	26.59
609.763	26.58
609.956	26.48
610.15	26.44
610.343	26.33
610.537	26.24
610.73	26.21
610.923	26.21
611.117	26.04
611.31	25.97
611.504	25.87
611.697	25.83
611.89	25.76
612.083	25.6
612.277	25.49
612.47	25.48
612.663	25.36
612.856	25.28
613.05	25.17
613.243	25.06
613.436	25.04
613.629	24.97
613.822	24.87
614.015	24.75
614.209	24.72
614.402	24.67
614.595	24.57
614.788	24.43
614.981	24.4
615.174	24.32
615.367	24.33
615.56	24.2
615.753	24.15
615.946	24.16
616.139	24.14
616.332	24.05
616.525	24.07
616.718	23.96
616.911	23.96
617.103	23.86
617.296	23.79
617.489	23.74
617.682	23.71
617.875	23.62
618.067	23.62
618.26	23.54
618.453	23.5
618.646	23.47
618.838	23.43
619.031	23.35
619.224	23.36
619.417	23.34
619.609	23.29
619.802	23.28
619.994	23.24
620.187	23.24
620.38	23.21
620.572	23.12
620.765	23.07
620.957	23.03
621.15	23
621.342	22.97
621.535	22.91
621.727	22.87
621.92	22.86
622.112	22.8
622.305	22.77
622.497	22.74
622.69	22.68
622.882	22.66
623.074	22.66
623.267	22.64
623.459	22.66
623.651	22.65
623.844	22.63
624.036	22.65
624.228	22.69
624.42	22.7
624.613	22.65
624.805	22.61
624.997	22.54
625.189	22.54
625.381	22.46
625.574	22.31
625.766	22.27
625.958	22.27
626.15	22.28
626.342	22.28
626.534	22.22
626.726	22.28
626.918	22.25
627.11	22.23
627.302	22.2
627.494	22.16
627.686	22.13
627.878	22.09
628.07	21.97
628.262	21.96
628.454	21.9
628.646	21.86
628.838	21.8
629.029	21.72
629.221	21.74
629.413	21.71
629.605	21.67
629.797	21.69
629.989	21.63
630.18	21.59
630.372	21.58
630.564	21.56
630.755	21.54
630.947	21.55
631.139	21.44
631.33	21.42
631.522	21.39
631.714	21.38
631.905	21.27
632.097	21.25
632.289	21.18
632.48	21.18
632.672	21.15
632.863	21.14
633.055	21.12
633.246	21.15
633.438	21.07
633.629	21.09
633.821	21.08
634.012	21.07
634.203	21.09
634.395	21.1
634.586	21.08
634.777	21.08
634.969	21.07
635.16	21.05
635.351	21.04
635.543	20.99
635.734	21
635.925	21
636.117	21.04
636.308	21.02
636.499	21.02
636.69	21.08
636.881	21.09
637.073	21.08
637.264	21.05
637.455	21.06
637.646	21.06
637.837	21.03
638.028	21.02
638.219	20.99
638.41	20.99
638.601	20.96
638.792	20.89
638.983	20.84
639.174	20.84
639.365	20.79
639.556	20.79
639.747	20.77
639.938	20.82
640.129	20.82
640.32	20.88
640.511	20.87
640.701	20.8
640.892	20.77
641.083	20.71
641.274	20.69
641.465	20.7
641.655	20.65
641.846	20.62
642.037	20.64
642.228	20.63
642.418	20.61
642.609	20.55
642.8	20.51
642.99	20.51
643.181	20.47
643.372	20.46
643.562	20.47
643.753	20.44
643.943	20.44
644.134	20.45
644.324	20.4
644.515	20.41
644.705	20.33
644.896	20.23
645.086	20.21
645.277	20.23
645.467	20.17
645.658	20.17
645.848	20.14
646.038	20.11
646.229	20.11
646.419	20.13
646.61	20.1
646.8	20.1
646.99	20.04
647.18	20.03
647.371	20.08
647.561	20.13
647.751	20.07
647.941	19.98
648.132	19.94
648.322	19.94
648.512	19.98
648.702	19.95
648.892	19.96
649.082	19.97
649.272	19.94
649.462	19.95
649.653	19.95
649.843	19.86
650.033	19.84
650.223	19.8
650.413	19.78
650.603	19.79
650.793	19.71
650.983	19.66
651.172	19.65
651.362	19.6
651.552	19.48
651.742	19.4
651.932	19.36
652.122	19.35
652.312	19.24
652.502	19.12
652.691	19.01
652.881	18.99
653.071	18.87
653.261	18.8
653.45	18.74
653.64	18.72
653.83	18.62
654.019	18.49
654.209	18.32
654.399	18.2
654.588	18.06
654.778	17.91
654.968	17.75
655.157	17.61
655.347	17.5
655.536	17.32
655.726	17.22
655.915	17.07
656.105	16.93
656.294	16.75
656.484	16.63
656.673	16.48
656.863	16.36
657.052	16.14
657.241	15.91
657.431	15.7
657.62	15.45
657.809	15.23
657.999	15.04
658.188	14.83
658.377	14.72
658.567	14.54
658.756	14.35
658.945	14.22
659.134	14.05
659.324	13.79
659.513	13.61
659.702	13.35
659.891	13.15
660.08	13
660.269	12.87
660.458	12.65
660.648	12.57
660.837	12.39
661.026	12.24
661.215	12.09
661.404	11.91
661.593	11.67
661.782	11.53
661.971	11.35
662.16	11.19
662.349	10.98
662.538	10.85
662.726	10.69
662.915	10.63
663.104	10.42
663.293	10.24
663.482	10.05
663.671	9.96
663.86	9.8
664.048	9.65
664.237	9.48
664.426	9.4
664.615	9.23
664.803	9.15
664.992	9.07
665.181	9.01
665.369	8.88
665.558	8.78
665.747	8.74
665.935	8.74
666.124	8.68
666.312	8.55
666.501	8.44
666.69	8.37
666.878	8.31
667.067	8.29
667.255	8.21
667.444	8.18
667.632	8.15
667.82	8.07
668.009	8.08
668.197	7.99
668.386	7.87
668.574	7.85
668.762	7.79
668.951	7.74
669.139	7.82
669.327	7.73
669.516	7.75
669.704	7.76
669.892	7.73
670.08	7.7
670.269	7.66
670.457	7.58
670.645	7.66
670.833	7.64
671.021	7.63
671.21	7.64
671.398	7.66
671.586	7.7
671.774	7.7
671.962	7.7
672.15	7.79
672.338	7.86
672.526	7.9
672.714	7.9
672.902	7.94
673.09	7.99
673.278	7.98
673.466	8.02
673.654	8.04
673.842	8.07
674.03	8.16
674.218	8.23
674.405	8.26
674.593	8.32
674.781	8.34
674.969	8.37
675.157	8.4
675.344	8.44
675.532	8.52
675.72	8.56
675.908	8.66
676.095	8.79
676.283	8.8
676.471	8.9
676.658	9.02
676.846	9.07
677.033	9.22
677.221	9.33
677.409	9.29
677.596	9.49
677.784	9.59
677.971	9.68
678.159	9.76
678.346	9.73
678.534	9.8
678.721	9.95
678.909	9.95
679.096	10.02
679.283	10.09
679.471	10.21
679.658	10.4
679.846	10.5
680.033	10.64
680.22	10.83
680.408	10.96
680.595	11.07
680.782	11.28
680.969	11.4
681.157	11.54
681.344	11.66
681.531	11.77
681.718	11.91
681.905	12.12
682.093	12.28
682.28	12.5
682.467	12.58
682.654	12.76
682.841	13.03
683.028	13.3
683.215	13.45
683.402	13.52
683.589	13.7
683.776	13.99
683.963	14.16
684.15	14.38
684.337	14.59
684.524	14.93
684.711	15.29
684.898	15.57
685.085	15.9
685.271	16.26
685.458	16.61
685.645	16.94
685.832	17.28
686.019	17.57
686.205	17.9
686.392	18.21
686.579	18.61
686.766	18.9
686.952	19.33
687.139	19.63
687.326	20.07
687.512	20.54
687.699	20.94
687.886	21.29
688.072	21.8
688.259	22.19
688.445	22.64
688.632	23.25
688.818	23.75
689.005	24.41
689.191	25
689.378	25.48
689.564	26.05
689.751	26.78
689.937	27.25
690.124	27.79
690.31	28.31
690.496	29.02
690.683	29.73
690.869	30.41
691.055	31.11
691.242	31.68
691.428	32.4
691.614	33.07
691.8	33.61
691.987	34.32
692.173	35.04
692.359	35.59
692.545	36.39
692.731	37.14
692.918	37.86
693.104	38.65
693.29	39.42
693.476	40.02
693.662	40.67
693.848	41.4
694.034	41.91
694.22	42.63
694.406	43.2
694.592	43.62
694.778	44.4
694.964	45.1
695.15	45.75
695.336	46.59
695.522	47.25
695.708	48
695.894	48.78
696.08	49.27
696.265	50.02
696.451	50.76
696.637	51.36
696.823	51.92
697.009	52.52
697.194	53.26
697.38	53.88
697.566	54.26
697.751	54.74
697.937	55.34
698.123	55.97
698.308	56.44
698.494	56.94
698.68	57.54
698.865	58.18
699.051	58.76
699.236	59.29
699.422	59.86
699.607	60.46
699.793	60.75
699.978	61.18
700.164	61.73
700.349	62.19
700.535	62.61
700.72	63.03
700.906	63.27
701.091	63.89
701.276	64.49
701.462	65.07
701.647	65.38
701.832	65.84
702.018	66.08
702.203	66.52
702.388	66.85
702.573	67.21
702.759	67.34
702.944	67.72
703.129	68.07
703.314	68.46
703.499	68.99
703.684	69.3
703.87	69.51
704.055	70.02
704.24	70.34
704.425	70.66
704.61	71.13
704.795	71.4
704.98	71.63
705.165	71.83
705.35	72.02
705.535	72.29
705.72	72.37
705.905	72.35
706.09	72.47
706.275	72.77
706.459	73.3
706.644	73.42
706.829	73.62
707.014	73.89
707.199	74.23
707.384	74.6
707.568	75
707.753	75.1
707.938	75.28
708.123	75.27
708.307	75.68
708.492	75.78
708.677	76.01
708.861	76
709.046	75.99
709.231	76.25
709.415	76.65
709.6	76.74
709.784	76.99
709.969	77.15
710.153	77.6
710.338	77.81
710.522	77.95
710.707	77.96
710.891	78.06
711.076	78.13
711.26	78.17
711.445	77.94
711.629	78.44
711.813	78.45
711.998	78.62
712.182	78.83
712.366	79.17
712.551	79.57
712.735	79.82
712.919	79.7
713.103	79.88
713.288	80.35
713.472	80.25
713.656	80.15
713.84	80.08
714.024	80.33
714.208	80.34
714.393	80.42
714.577	80.31
714.761	80.63
714.945	80.78
715.129	80.79
715.313	80.87
715.497	81.18
715.681	81.52
715.865	81.69
716.049	81.71
716.233	81.99
716.417	82.05
716.601	82.05
716.785	81.96
716.968	81.68
717.152	81.62
717.336	81.77
717.52	81.96
717.704	82.14
717.888	82.24
718.071	82.64
718.255	82.89
718.439	82.95
718.622	83.24
718.806	83.06
718.99	83.19
719.174	83.05
719.357	82.88
719.541	83.18
719.724	83.58
719.908	83.17
720.092	83.33
720.275	83.5
720.459	83.84
720.642	84.01
720.826	83.9
721.009	83.9
721.193	84.12
721.376	84.14
721.559	83.82
721.743	83.69
721.926	83.43
722.11	83.64
722.293	83.35
722.476	83.4
722.66	83.51
722.843	83.79
723.026	84.06
723.21	84.2
723.393	84.32
723.576	84.64
723.759	84.81
723.942	84.85
724.126	84.91
724.309	85.06
724.492	85.31
724.675	85.49
724.858	85.69
725.041	85.87
725.224	85.88
725.407	86.01
725.59	85.99
725.774	86.08
725.957	85.84
726.14	85.66
726.322	85.59
726.505	85.91
726.688	86.06
726.871	86.28
727.054	86.38
727.237	86.36
727.42	86.58
727.603	86.7
727.786	86.99
727.968	87.15
728.151	87.1
728.334	87.24
728.517	87.66
728.699	87.9
728.882	88.38
729.065	88.12
729.248	87.99
729.43	87.89
729.613	87.91
729.796	87.83
729.978	88.16
730.161	88.22
730.343	88.34
730.526	88.35
730.708	88.96
730.891	89.27
731.073	89.46
731.256	89.12
731.438	89.06
731.621	89.78
731.803	90.11
731.986	89.61
732.168	89.5
732.35	89.71
732.533	89.8
732.715	89.62
732.898	89.45
733.08	89.96
733.262	90.54
733.444	90.36
733.627	90.2
733.809	90.44
733.991	90.97
734.173	90.29
734.355	90.53
734.538	90.2
734.72	90.56
734.902	90.54
735.084	90.64
735.266	90.38
735.448	91.03
735.63	90.62
735.812	91.38
735.994	91.04
736.176	91.29
736.358	91.53
736.54	91.56
736.722	91.36
736.904	91.74
737.086	91.22
737.268	91.6
737.45	91.62
737.632	91.14
737.814	91.08
737.995	91.68
738.177	91.81
738.359	91.99
738.541	91.83
738.723	91.91
738.904	91.59
739.086	92.2
739.268	92.22
739.449	91.98
739.631	91.81
739.813	92.03
739.994	92.45
740.176	93.38
740.358	92.94
740.539	92.83
740.721	92.39
740.902	92.37
741.084	92.85
741.265	92.31
741.447	91.59
741.628	91.69
741.81	91.71
741.991	92.14
742.172	92.12
742.354	91.99
742.535	92.25
742.717	91.97
742.898	92.33
743.079	92.07
743.261	91.91
743.442	92.14
743.623	91.94
743.804	92.63
743.986	93.11
744.167	92.17
744.348	92.19
744.529	92.21
744.71	91.75
744.891	91.73
745.073	91.35
745.254	91.43
745.435	91.79
745.616	91.2
745.797	90.56
745.978	91.58
746.159	91.28
746.34	90.81
746.521	90.94
746.702	90.81
746.883	91.79
747.064	92.32
747.245	92.48
747.426	92.81
747.606	92.88
747.787	93.23
747.968	94.03
748.149	93.73
748.33	94.27
748.51	92.92
748.691	93.37
748.872	93.58
749.053	93.19
749.233	92.13
749.414	92.08
749.595	91.12
749.775	91.78
749.956	90.5
750.137	90.31
750.317	90.08
750.498	91.3
750.678	91.27
750.859	91.74
751.04	91.03
751.22	91.47
751.4	91.35
751.581	91.81
751.761	92.14
751.942	91.9
752.122	92.04
752.303	92.38
752.483	93.4
752.663	94.41
752.844	93.94
753.024	92.62
753.204	92.91
753.385	92.4
753.565	91.94
753.745	90.97
753.925	89.88
754.106	90.05
754.286	90.73
754.466	90.81
754.646	91.43
754.826	92.26
755.006	91.99
755.187	92.25
755.367	92.17
755.547	92.25
755.727	91.77
755.907	91.84
756.087	91.57
756.267	92.05
756.447	91.97
756.627	91.41
756.807	90.94
756.987	92.07
757.167	91.57
757.346	91.11
757.526	91.31
757.706	91.71
757.886	92.62
758.066	92.83
758.246	92.09
758.425	92.21
758.605	92.52
758.785	91.93
758.965	90.51
759.144	90.9
759.324	91.25
759.504	91.09
759.683	90.74
759.863	90.87
760.043	90.61
760.222	90.38
760.402	89.93
760.581	89.16
760.761	88.51
760.94	88.34
761.12	87.42
761.299	87.65
761.479	88.85
761.658	88.14
761.838	88.83
762.017	89.47
762.197	90.5
762.376	91.39
762.555	90.77
762.735	89.74
762.914	90.55
763.093	89.21
763.273	88.7
763.452	87.59
763.631	86.38
763.81	87.21
763.99	88.05
764.169	86.61
764.348	87.18
764.527	86.53
764.706	87.42
764.885	88.48
765.064	88.31
765.243	87.98
765.423	89.34
765.602	89.29
765.781	90.34
765.96	89.75
766.139	89.36
766.318	89.55
766.497	90.06
766.676	90.03
766.854	89.72
767.033	88.85
767.212	88.84
767.391	89.31
767.57	88.19
767.749	87.22
767.928	86.07
768.106	86.43
768.285	86.58
768.464	86.5
768.643	87.16
768.821	88.23
769	88.67
769.179	88.91
769.357	88.46
769.536	88.72
769.715	88.8
769.893	87.65
770.072	87.86
770.25	87.87
770.429	88.33
770.607	88.51
770.786	88.46
770.964	87.69
771.143	87.71
771.321	87.19
771.5	86.51
771.678	85.73
771.857	84.7
772.035	84.54
772.213	84.95
772.392	84.57
772.57	84.99
772.748	84.74
772.927	84.57
773.105	85.84
773.283	85.47
773.461	85.16
773.64	84.23
773.818	83.58
773.996	83.54
774.174	83.8
774.352	83.33
774.531	83.19
774.709	83.79
774.887	84.24
775.065	84.63
775.243	86.03
775.421	86.13
775.599	85.01
775.777	85.56
775.955	84.63
776.133	84.95
776.311	83.92
776.489	83.09
776.667	82.67
776.844	83.68
777.022	83.64
777.2	84.37
777.378	85.91
777.556	86.88
777.734	88.31
777.911	89.43
778.089	88.64
778.267	89.33
778.445	87.81
778.622	85.99
778.8	85.72
778.978	84.32
779.155	83.81
779.333	82.72
779.511	81.9
779.688	82.9
779.866	82.24
780.043	83.12
780.221	82.65
780.398	81.58
780.576	82.36
780.753	81.69
780.931	82.45
781.108	84.2
781.286	81.08
781.463	81.39
781.64	83.09
781.818	83
781.995	84.41
782.172	83.54
782.35	82.5
782.527	84.92
782.704	83.82
782.882	81.52
783.059	81.51
783.236	80.48
783.413	80.32
783.59	80.64
783.768	79.65
783.945	80.91
784.122	82.83
784.299	84.2
784.476	85.02
784.653	84.41
784.83	82.4
785.007	83
785.184	82.71
785.361	81.33
785.538	81.95
785.715	79.91
785.892	79.24
786.069	82.28
786.246	80.42
786.423	82.03
786.6	83.44
786.776	80.59
786.953	80.77
787.13	81.6
787.307	79.7
787.484	80.98
787.66	79.63
787.837	79.17
788.014	79.67
788.191	79.16
788.367	79.29
788.544	80.46
788.721	80.81
788.897	81.88
789.074	79.94
789.25	80.66
789.427	81.75
789.603	82.88
789.78	82.95
789.956	81.86
790.133	78.59
790.309	80.64
790.486	81.43
790.662	82.1
790.839	82.16
791.015	80.93
791.192	80.04
791.368	81.54
791.544	78.08
791.721	76.65
791.897	75.62
792.073	74.57
792.249	76.52
792.426	78.8
792.602	78.03
792.778	80.83
792.954	80.56
793.13	81.98
793.307	81.71
793.483	79.84
793.659	79.74
793.835	79.56
794.011	77.94
794.187	76.41
794.363	76.57
794.539	75.39
794.715	73.23
794.891	70.72
795.067	69.42
795.243	71.26
795.419	74.78
795.595	72.01
795.771	72.79
795.947	74.01
796.122	76.55
796.298	78.94
796.474	79.66
796.65	79.37
796.826	83.4
797.001	84.12
797.177	85.73
797.353	86.66
797.529	86.78
797.704	87.5
797.88	84.3
798.056	83.05
798.231	78.99
798.407	77.81
798.582	76.88
798.758	76.29
798.934	73.47
799.109	73.17
799.285	71.86
799.46	75.15
799.636	75.8
799.811	78.05
799.986	76.23
800.162	76.75
800.337	78.9
800.513	80.37
800.688	80.94
800.863	79.26
801.039	74.44
801.214	76.67
801.389	76.33
801.565	79.94
801.74	77.17
801.915	78.04
802.09	77.11
802.265	81.17
802.441	80.79
802.616	81.35
802.791	78.32
802.966	79.94
803.141	74.12
803.316	77.97
803.491	70.06
803.666	69.88
803.841	67.89
804.016	67.75
804.191	67.64
804.366	72.74
804.541	69.89
804.716	71.87
804.891	77.04
805.066	79.85
805.241	78.23
805.416	76.38
805.591	78.39
805.765	75.45
805.94	80.27
806.115	70.44
806.29	69.06
806.464	68.71
806.639	68.58
806.814	66.37
806.989	68.19
807.163	65.9
807.338	70.65
807.512	67.47
807.687	68.17
807.862	66.25
808.036	62.57
808.211	63.01
808.385	59.71
808.56	58.25
808.734	58
808.909	54.86
809.083	57.46
809.258	60.35
809.432	61.37
809.606	64.85
809.781	67.55
809.955	70.27
810.13	77.25
810.304	77.77
810.478	79.95
810.652	78.06
810.827	76.27
811.001	73.49
811.175	71.18
811.349	65.21
811.524	63.76
811.698	63.57
811.872	65.53
812.046	63.03
812.22	63.78
812.394	66.85
812.568	72.71
812.742	74.22
812.916	71.44
813.09	65.88
813.264	68.42
813.438	74.82
813.612	74.33
813.786	71.71
813.96	75.2
814.134	74.57
814.308	73.47
814.482	73.52
814.656	68.65
814.83	66.28
815.003	64.92
815.177	62.93
815.351	68.89
815.525	69.65
815.698	69.35
815.872	65.77
816.046	65.02
816.219	65
816.393	63.53
816.567	53.72
816.74	55.82
816.914	55.83
817.088	59.39
817.261	64.96
817.435	61.26
817.608	57.87
817.782	61.45
817.955	62.96
818.129	68.58
818.302	68.81
818.475	65.63
818.649	67.66
818.822	72.49
818.996	75.9
819.169	74.04
819.342	66.55
819.516	63.53
819.689	64.54
819.862	62.78
820.035	59.62
820.209	53.69
820.382	51.48
820.555	55.05
820.728	51.98
820.901	51.74
821.075	56.23
821.248	58.01
821.421	55.75
821.594	59.59
821.767	57.09
821.94	60.58
822.113	58.33
822.286	61.61
822.459	66.06
822.632	70.44
822.805	64.19
822.978	64.43
823.151	61.4
823.324	60.08
823.496	46.88
823.669	45.08
823.842	44.52
824.015	47.6
824.188	44.82
824.361	49.15
824.533	60.95
824.706	68.38
824.879	64.16
825.051	73.6
825.224	70.34
825.397	66.71
825.569	62.92
825.742	57.91
825.915	57.04
826.087	51.39
826.26	43.63
826.432	47.29
826.605	43.09
826.777	46.09
826.95	38.03
827.122	41.46
827.295	50.89
827.467	48
827.64	43.67
827.812	48.56
827.984	50.22
828.157	54.68
828.329	58.94
828.501	59.17
828.674	64.64
828.846	67.06
829.018	64.47
829.19	57.15
829.363	55.57
829.535	50.85
829.707	43.03
829.879	34.01
830.051	27.9
830.223	29.14
830.395	32.76
830.568	41.88
830.74	46.15
830.912	54.12
831.084	52.27
831.256	46.33
831.428	48.77
831.6	46.38
831.772	43.09
831.943	41.56
832.115	42.71
832.287	41.79
832.459	54.34
832.631	62.31
832.803	69.38
832.975	65.46
833.146	60.61
833.318	57.19
833.49	61.89
833.662	59.97
833.833	54.75
834.005	53.2
834.177	57.3
834.348	56.05
834.52	57.33
834.692	59.95
834.863	52.78
835.035	50.82
835.206	54.5
835.378	53.03
835.549	57.92
835.721	58.96
835.892	64.63
836.064	66.2
836.235	71
836.407	66.8
836.578	68.77
836.749	64.42
836.921	57.61
837.092	60.35
837.264	62.58
837.435	49.44
837.606	51.42
837.777	43.23
837.949	40.4
838.12	37.45
838.291	31.16
838.462	31.63
838.633	36.33
838.805	30.76
838.976	31.22
839.147	35.34
839.318	32.94
839.489	33.73
839.66	35.08
839.831	33.33
840.002	31.63
840.173	28.64
840.344	37.27
840.515	44.17
840.686	45.88
840.857	37.4
841.028	38.61
841.199	43.85
841.369	46.67
841.54	37.64
841.711	33.04
841.882	20.39
842.053	24.94
842.223	6.36
842.394	16.65
842.565	34.27
842.736	38.04
842.906	38.71
843.077	51.36
843.248	55.68
843.418	56.36
843.589	44.81
843.759	37.05
843.93	33.88
844.101	42.78
844.271	32.21
844.442	25.99
844.612	32.48
844.783	37.6
844.953	27.86
845.123	29.75
845.294	17.92
845.464	32.84
845.635	27.6
845.805	34.37
845.975	25.65
846.146	23.45
846.316	22.05
846.486	37.36
846.656	36.24
846.827	35.05
846.997	40.22
847.167	48.17
847.337	54.12
847.507	54.87
847.677	52.14
847.848	38.46
848.018	47.47
848.188	42.18
848.358	49.2
848.528	50.75
848.698	40.84
848.868	22.63
849.038	38.22
849.208	35.93
849.378	29.9
849.548	21.78
849.718	3.59
849.887	12.74
850.057	25.93
850.227	23.73
850.397	34.73
850.567	57.95
850.737	72.45
850.906	83.01
851.076	69.86
851.246	74.52
851.415	73.98
851.585	69.52
851.755	57.63
851.924	47
852.094	44.87
852.264	55.92
852.433	56.98
852.603	61.08
852.772	51.48
852.942	44.52
853.111	50.3
853.281	38.89
853.45	30.51
853.62	20.79
853.789	7.94
853.959	19.94
854.128	7.84
854.297	6.96
854.467	14.89
854.636	18.43
854.805	38.7
854.975	59.75
855.144	53.51
855.313	65.88
855.482	61.8
855.652	61.89
855.821	65.41
855.99	57.32
856.159	44.57
856.328	35.13
856.497	30.27
856.667	37.97
856.836	28.09
857.005	24.78
857.174	31.12
857.343	29.1
857.512	24.25
857.681	23.73
857.85	11.82
858.019	27.29
858.188	9.5
858.356	-10.72
858.525	-10.2
858.694	2.87
858.863	6.84
859.032	1.86
859.201	-17.4
859.369	13.76
859.538	15.89
859.707	29.51
859.876	24.11
860.044	16.25
860.213	29.13
860.382	34.2
860.55	30.21
860.719	30.54
860.888	30.37
861.056	23.2
861.225	22.38
861.393	39.73
861.562	16.44
861.73	17.73
861.899	0.63
862.067	-3.93
862.236	3.95
862.404	24.26
862.572	5.05
862.741	17.77
862.909	11.54
863.078	19.06
863.246	16.39
863.414	19.38
863.582	6.99
863.751	8.73
863.919	13.25
864.087	14.66
864.255	16.36
864.424	12.04
864.592	6.4
864.76	21.78
864.928	35.34
865.096	29.31
865.264	34.81
865.432	33.08
865.6	38.7
865.768	35.8
865.936	17.57
866.104	-9.59
866.272	-1.8
866.44	-52.99
866.608	-52.15
866.776	-10.01
866.944	-18.68
867.112	-34.13
867.28	-42.69
867.448	-25.86
867.615	3.83
867.783	2.81
867.951	-10.1
868.119	17.4
868.286	19.62
868.454	39.07
868.622	44.71
868.789	54.1
868.957	56.95
869.125	42.46
869.292	36.96
869.46	47.78
869.627	45.7
869.795	34.54
869.963	39.13
870.13	32.76
870.298	31.05
870.465	24.08
870.632	-10.77
870.8	-18.8
870.967	-12.08
871.135	-23.32
871.302	-3.85
871.469	-7.92
871.637	-9.59
871.804	11.9
871.971	6.25
872.139	4.75
872.306	-6.96
872.473	-35.36
872.64	-38.88
872.807	-41.24
872.975	-22.7
873.142	-13.27
873.309	-16.13
873.476	87.18
873.643	146.81
873.81	139.28
873.977	59.84
874.144	17.56
874.311	-2.25
874.478	-2.51
874.645	-27.05
874.812	-9.42
874.979	-21.12
875.146	-62.12
875.313	-127.85
875.48	-88.43
875.647	-135.32
875.813	-125.11
875.98	-148.75
876.147	-29.4
876.314	16.39
876.481	10.58
876.647	10.17
876.814	14.04
876.981	11.73
877.147	-3.26
877.314	-23.96
877.481	-8.55
877.647	1.29
877.814	5.02
877.98	-1.92
878.147	-11.13
878.314	17.12
878.48	6.1
878.647	-19.38
878.813	-13.28
878.979	-26.59
879.146	4.11
879.312	37.99
879.479	38.44
879.645	29.72
879.811	43.51
879.978	38.94
880.144	36.12
880.31	10.69
880.477	-33.12
880.643	-175.5
880.809	-22.28
880.975	-41.49
881.142	-12.79
881.308	-2.21
881.474	31.47
881.64	-12.87
881.806	23.06
881.972	7.7
882.138	24.26
882.304	-52.75
882.47	-37.93
882.636	-107.85
882.802	-83.31
882.968	-169.57
883.134	-298.93
883.3	-106.4
883.466	-5.84
883.632	-24.05
883.798	9.73
883.964	14.44
884.129	28.63
884.295	28.91
884.461	-8.52
884.627	-61.88
884.793	-24.46
884.958	-29.27
885.124	-70.97
885.29	-43.38
885.455	-45.59
885.621	-27.33
885.787	-27.87
885.952	-32.57
886.118	-52.25
886.283	-30.67
886.449	-66.81
886.614	-50.27
886.78	-4.23
886.945	3.18
887.111	3.89
887.276	18.15
887.442	22.75
887.607	40.11
887.773	12.65
887.938	-21.46
888.103	12.58
888.269	10.52
888.434	27.41
888.599	27.46
888.764	16.88
888.93	31.76
889.095	32.24
889.26	50.08
889.425	62.12
889.59	30.31
889.756	30.68
889.921	21.54
890.086	14.68
890.251	11.13
890.416	-53
890.581	-56.31
890.746	-45
890.911	-104.31
891.076	-143.24
891.241	-240.33
891.406	-116.68
891.571	-91.45
891.736	-82.22
891.901	-53.45
892.065	-43.98
892.23	-33.91
892.395	-21.87
892.56	-14.74
892.725	-7.47
892.889	-26.25
893.054	-73.1
893.219	-52.89
893.384	-85.1
893.548	-178.33
893.713	345.05
893.878	236.96
