Data from Ofra_PS_T2_2A_2GT07_Reflection_2.txt Node
Date: Wed Jul 21 17:06:18 EDT 2021
User: Adam
Spectrometer: FLMT01687
Trigger mode: 0
Integration Time (sec): 1.100000E0
Scans to average: 2
Electric dark correction enabled: true
Nonlinearity correction enabled: false
Boxcar width: 2
XAxis mode: Wavelengths
Number of Pixels in Spectrum: 3648
>>>>>Begin Spectral Data<<<<<
179.494	480.6
179.716	539.29
179.937	461.64
180.158	395.44
180.38	532.97
180.601	106.49
180.823	31.65
181.044	-23.82
181.265	285.11
181.486	93.5
181.708	91.63
181.929	497.45
182.15	-284.15
182.372	167.99
182.593	39.46
182.814	16.39
183.035	64.04
183.257	67.82
183.478	7.5
183.699	93.3
183.92	75.22
184.141	83.73
184.363	73.51
184.584	93.51
184.805	67.68
185.026	94.54
185.247	86.76
185.468	49.67
185.689	40.68
185.91	53.08
186.132	41.84
186.353	29.4
186.574	87.09
186.795	83.47
187.016	49.32
187.237	55.72
187.458	83.75
187.679	69.5
187.9	69
188.121	51.37
188.342	83.01
188.563	77.56
188.784	98.57
189.005	119.39
189.226	185.75
189.447	154.19
189.667	210.8
189.888	36.58
190.109	-433.44
190.33	-292.74
190.551	-621.9
190.772	-54.66
190.993	-0.89
191.214	-23.09
191.434	-19.78
191.655	34.51
191.876	-5.99
192.097	-66.22
192.318	-75.15
192.538	-94.35
192.759	-77.17
192.98	-13.25
193.201	26.02
193.421	49.51
193.642	46.4
193.863	68.43
194.083	39.55
194.304	42.89
194.525	32.29
194.745	50.62
194.966	5.94
195.187	18.85
195.407	22.4
195.628	-20.94
195.848	-43.06
196.069	-46.98
196.29	10.76
196.51	-13.43
196.731	-6.99
196.951	3.56
197.172	-1.93
197.392	-45.77
197.613	-45.06
197.833	-63.54
198.054	-65.42
198.274	-15.86
198.495	-20.32
198.715	-4.64
198.936	-14.68
199.156	5.81
199.377	-70.26
199.597	-78.82
199.817	-75.35
200.038	-0.36
200.258	-39.44
200.479	65.85
200.699	108.52
200.919	116.27
201.14	95.87
201.36	68.96
201.58	60.15
201.801	84.32
202.021	61.85
202.241	49.08
202.461	43.14
202.682	-45.18
202.902	-124.57
203.122	-66.61
203.342	-25.63
203.563	37.65
203.783	75.57
204.003	81.58
204.223	72.2
204.443	90.29
204.663	70.68
204.884	65.64
205.104	85.64
205.324	108.24
205.544	87.67
205.764	90.7
205.984	83.97
206.204	93.16
206.424	89.59
206.644	82.36
206.864	73.09
207.084	92.47
207.304	120.58
207.525	108.52
207.745	77.53
207.964	81.12
208.184	28.92
208.404	-22.84
208.624	-25.09
208.844	5.66
209.064	-181.28
209.284	-199.94
209.504	-63.18
209.724	2.52
209.944	-14.22
210.164	27.06
210.384	46.24
210.604	56.45
210.823	32.34
211.043	11.09
211.263	19.87
211.483	7.35
211.703	-46.26
211.922	-22.34
212.142	31.59
212.362	37.31
212.582	25.53
212.801	33.38
213.021	19.19
213.241	20.48
213.461	-14.75
213.68	-3.49
213.9	11.69
214.12	33.13
214.339	-28.71
214.559	-8.66
214.779	18.4
214.998	12.51
215.218	-15.52
215.438	36.06
215.657	58.16
215.877	57.53
216.096	65.41
216.316	68.68
216.535	49.86
216.755	39.06
216.974	-14.04
217.194	-65.13
217.413	-53.83
217.633	-47.32
217.852	-122.79
218.072	-55.19
218.291	2.9
218.511	28.33
218.73	19.28
218.95	17.62
219.169	19.43
219.389	-26.34
219.608	-24.12
219.827	-22.52
220.047	-19.28
220.266	1.89
220.485	28.17
220.705	40.89
220.924	32.85
221.143	51.94
221.363	34.37
221.582	27.18
221.801	30.24
222.021	40.69
222.24	13.3
222.459	64.41
222.678	58.83
222.897	47.82
223.117	25.43
223.336	28.84
223.555	36.87
223.774	67.25
223.993	84.14
224.213	119.33
224.432	103.36
224.651	106.92
224.87	78.89
225.089	78.7
225.308	53.58
225.527	64.18
225.746	58.11
225.965	42.89
226.184	30.36
226.404	43.47
226.623	19.28
226.842	24.3
227.061	54.68
227.28	53.03
227.499	52.85
227.718	67.25
227.936	59.65
228.155	62.57
228.374	55.23
228.593	65.98
228.812	61.43
229.031	52.39
229.25	14.18
229.469	26.37
229.688	26.38
229.907	45.64
230.125	69.58
230.344	82.59
230.563	88.77
230.782	87.19
231.001	36.26
231.22	21.64
231.438	49.54
231.657	32.12
231.876	29.87
232.095	78.21
232.313	88.1
232.532	81.24
232.751	61.29
232.969	40.14
233.188	-7.14
233.407	49.8
233.625	27.11
233.844	16.57
234.063	27.58
234.281	49.05
234.5	35.46
234.719	50.65
234.937	83.42
235.156	84.45
235.374	66.72
235.593	56.34
235.811	65.29
236.03	38.06
236.249	21.88
236.467	41.42
236.686	41.83
236.904	30.09
237.123	14.7
237.341	19.01
237.559	26.41
237.778	12.49
237.996	12.6
238.215	40.44
238.433	53.56
238.652	60.95
238.87	40.91
239.088	48.17
239.307	42.44
239.525	31.14
239.743	-2.44
239.962	20.88
240.18	6.76
240.398	-9.07
240.617	-9.35
240.835	9.85
241.053	57.13
241.271	78.62
241.49	75.65
241.708	59.61
241.926	56.13
242.144	16.81
242.363	-14.99
242.581	-66.71
242.799	-16.84
243.017	10.58
243.235	-0.25
243.453	16.69
243.672	28.62
243.89	28.18
244.108	25.06
244.326	53.54
244.544	55.84
244.762	71.63
244.98	67.94
245.198	62.02
245.416	37.72
245.634	38.52
245.852	22.02
246.07	44.02
246.288	44.92
246.506	1.49
246.724	24.15
246.942	51.46
247.16	57.6
247.378	59.99
247.596	96.89
247.814	94.73
248.032	56.14
248.25	42.99
248.468	55.14
248.685	60.74
248.903	76.87
249.121	94.03
249.339	71.75
249.557	56.96
249.775	45.52
249.992	-23.4
250.21	-35.1
250.428	-10.59
250.646	-25.53
250.863	-36.65
251.081	4.67
251.299	30.25
251.517	38.45
251.734	41.85
251.952	36.43
252.17	35.48
252.387	36.56
252.605	23.23
252.823	27.34
253.04	47.74
253.258	61.58
253.475	71.33
253.693	99.21
253.911	88.46
254.128	76.1
254.346	61.05
254.563	34.84
254.781	6.83
254.998	-1.04
255.216	14.61
255.433	38.6
255.651	82.97
255.868	123.26
256.086	120.54
256.303	99.56
256.521	76.55
256.738	51.84
256.956	9.2
257.173	-6.97
257.39	-12.56
257.608	-25.93
257.825	46.57
258.043	112.5
258.26	102.29
258.477	141.39
258.695	143.32
258.912	77.88
259.129	60.56
259.346	37.08
259.564	-10.31
259.781	-9.3
259.998	38.16
260.216	48.37
260.433	85.44
260.65	87.01
260.867	83.34
261.084	63.9
261.302	50.09
261.519	31.18
261.736	5.64
261.953	-7.26
262.17	8.83
262.387	0.47
262.604	-14.29
262.822	-10.16
263.039	-10.12
263.256	6.22
263.473	19.78
263.69	27.8
263.907	51.38
264.124	74.42
264.341	68.15
264.558	54.02
264.775	70.87
264.992	68.29
265.209	48.8
265.426	64.53
265.643	71.4
265.86	80.3
266.077	84.47
266.294	104.81
266.51	67.44
266.727	30.4
266.944	24.72
267.161	16.08
267.378	21.49
267.595	41.66
267.812	29.86
268.028	16.83
268.245	42.87
268.462	10.84
268.679	4.22
268.896	56.81
269.112	64.89
269.329	53.93
269.546	59.9
269.763	58.56
269.979	56.67
270.196	33.88
270.413	11.77
270.629	-0.9
270.846	-14.82
271.063	-5.79
271.279	-3.66
271.496	8.71
271.712	41
271.929	76.96
272.146	61.69
272.362	88.57
272.579	97.03
272.795	98.89
273.012	82.47
273.228	76.92
273.445	57.63
273.661	51.72
273.878	9.06
274.094	1.82
274.311	-6.37
274.527	24.63
274.744	27.54
274.96	12.48
275.177	17.29
275.393	34.9
275.609	48.4
275.826	63.64
276.042	78.26
276.259	79.22
276.475	78.6
276.691	74.04
276.908	47.17
277.124	58.9
277.34	58.2
277.557	37.5
277.773	12.13
277.989	8.39
278.205	-14.85
278.422	11.01
278.638	24.39
278.854	44.16
279.07	50.28
279.286	66.53
279.503	42.06
279.719	21.55
279.935	1.72
280.151	5.81
280.367	17.53
280.583	16.38
280.799	13.69
281.016	6.59
281.232	31.94
281.448	23.31
281.664	36.23
281.88	41.82
282.096	48.24
282.312	56.42
282.528	102.24
282.744	134.33
282.96	113.12
283.176	97.16
283.392	82.37
283.608	64.09
283.824	39.13
284.04	37.65
284.256	47.64
284.471	35.8
284.687	26.67
284.903	72.92
285.119	111.29
285.335	86.83
285.551	120.45
285.767	118.79
285.982	84.22
286.198	34.52
286.414	64.44
286.63	52.07
286.846	58.05
287.061	37.87
287.277	58.98
287.493	38.94
287.709	57.24
287.924	40.38
288.14	78.4
288.356	84.66
288.571	97.4
288.787	75.51
289.003	68.99
289.218	41.7
289.434	4.15
289.65	2.31
289.865	14.42
290.081	53.99
290.296	75.75
290.512	87.84
290.727	55.93
290.943	37.63
291.159	23.45
291.374	30.55
291.59	22.86
291.805	29.94
292.021	41.31
292.236	41.73
292.451	40.11
292.667	54.24
292.882	85.36
293.098	91.19
293.313	87.02
293.529	54.3
293.744	41.76
293.959	8.45
294.175	-2.44
294.39	14.42
294.605	34.38
294.821	39.29
295.036	43.34
295.251	55.86
295.467	61.24
295.682	50.82
295.897	44.47
296.112	29.48
296.328	40.31
296.543	18.29
296.758	41.43
296.973	60.34
297.188	68.29
297.404	40.98
297.619	42.33
297.834	24.7
298.049	6.42
298.264	-11.48
298.479	24.79
298.694	24.18
298.909	35.27
299.125	39.39
299.34	56.46
299.555	49.37
299.77	89.56
299.985	48.47
300.2	27.44
300.415	-6.33
300.63	7.14
300.845	-23.82
301.06	-15.82
301.275	-0.76
301.49	16.1
301.704	16.5
301.919	3.22
302.134	-2.87
302.349	-3.24
302.564	-37.68
302.779	-33.1
302.994	23.86
303.209	54.22
303.423	90.71
303.638	114.38
303.853	79
304.068	69.63
304.283	51.23
304.497	40.16
304.712	21.16
304.927	28.22
305.142	15.38
305.356	19.01
305.571	12.43
305.786	12.92
306	1.31
306.215	21.69
306.43	21.97
306.644	57.97
306.859	91.73
307.074	86.18
307.288	54.83
307.503	70.66
307.717	32.99
307.932	18.58
308.147	2.76
308.361	27.41
308.576	12.84
308.79	-0.89
309.005	4.23
309.219	12.37
309.434	7.96
309.648	11.91
309.863	27.49
310.077	31.84
310.292	50.44
310.506	35.04
310.72	40.89
310.935	45.89
311.149	40.59
311.364	54.51
311.578	68.74
311.792	58.92
312.007	50.52
312.221	38.76
312.435	26.02
312.649	12.34
312.864	57.94
313.078	83.3
313.292	144.02
313.507	148.31
313.721	179.82
313.935	76.49
314.149	75.67
314.363	60.34
314.578	65.67
314.792	68.05
315.006	52.94
315.22	55.94
315.434	48.99
315.648	45.73
315.862	53.47
316.077	54.94
316.291	33.65
316.505	52.28
316.719	60.7
316.933	14.35
317.147	25.23
317.361	-5.83
317.575	-25.76
317.789	-38.2
318.003	-62.77
318.217	-47.82
318.431	21.11
318.645	46.69
318.859	32.28
319.073	56.91
319.287	52.64
319.5	36.11
319.714	6.52
319.928	27.98
320.142	-1.53
320.356	63.99
320.57	82.34
320.784	102.51
320.997	74.49
321.211	94.85
321.425	20.49
321.639	0.46
321.853	30.45
322.066	39.14
322.28	29.32
322.494	39.04
322.707	54.58
322.921	42.74
323.135	36.93
323.349	45.71
323.562	31.73
323.776	32.99
323.989	39.91
324.203	26.5
324.417	28.57
324.63	17.08
324.844	4.55
325.057	-1.94
325.271	26.91
325.485	40.24
325.698	71.49
325.912	66.66
326.125	60.34
326.339	51.43
326.552	29.14
326.766	18.13
326.979	54.15
327.193	70.06
327.406	66.78
327.619	61.27
327.833	73.15
328.046	44.12
328.26	15.75
328.473	35.23
328.686	27.34
328.9	25.88
329.113	43.78
329.326	40.91
329.54	30.63
329.753	19.18
329.966	4.57
330.179	-9.59
330.393	12.83
330.606	23.85
330.819	43.64
331.032	55.08
331.246	61.11
331.459	78.56
331.672	76.74
331.885	63.35
332.098	26.72
332.311	17.07
332.525	-32.12
332.738	-21.8
332.951	24.36
333.164	59.99
333.377	65.39
333.59	81.29
333.803	77.88
334.016	65.72
334.229	73.55
334.442	73.59
334.655	98.73
334.868	110.91
335.081	84.04
335.294	60.79
335.507	58
335.72	48.28
335.933	26.42
336.146	30.96
336.359	35.37
336.572	23.95
336.785	-25.17
336.997	-9.15
337.21	25.2
337.423	21.92
337.636	17.01
337.849	40.88
338.062	37.71
338.274	23.96
338.487	25.11
338.7	39.01
338.913	22.11
339.125	4.04
339.338	-27.35
339.551	-0.35
339.763	6.09
339.976	20.43
340.189	49.08
340.402	76.85
340.614	45.75
340.827	42.63
341.039	36.89
341.252	31.43
341.465	22.54
341.677	34.11
341.89	16.52
342.102	39.39
342.315	22.4
342.527	28.27
342.74	24.66
342.952	33.37
343.165	23.62
343.377	37.34
343.59	37.52
343.802	47.72
344.015	58.3
344.227	70.99
344.44	61.53
344.652	53.15
344.864	44.09
345.077	51.57
345.289	48.47
345.502	59.85
345.714	48.64
345.926	54.9
346.139	48.28
346.351	64.03
346.563	55.68
346.775	65.89
346.988	51.03
347.2	45.48
347.412	0.51
347.624	-12.74
347.837	-26.88
348.049	1.6
348.261	29.27
348.473	34.43
348.685	31.76
348.897	27.72
349.11	7.67
349.322	13.09
349.534	28.4
349.746	34.76
349.958	51.09
350.17	70.54
350.382	51.37
350.594	49.03
350.806	44.45
351.018	38.61
351.23	30.01
351.442	-5.65
351.654	12.58
351.866	32.54
352.078	25.68
352.29	34.66
352.502	49.64
352.714	44.42
352.926	36.99
353.138	38.37
353.35	29.3
353.561	16.75
353.773	1.42
353.985	10.48
354.197	8.95
354.409	11.02
354.621	20.15
354.832	30.28
355.044	25.74
355.256	27.29
355.468	28.82
355.679	28.05
355.891	29.65
356.103	14.3
356.314	20.85
356.526	21.16
356.738	28.13
356.949	26.74
357.161	53.63
357.373	41.85
357.584	41.77
357.796	46.95
358.008	42.62
358.219	53.5
358.431	49.45
358.642	58.41
358.854	51.26
359.065	39.06
359.277	7.46
359.488	1.13
359.7	-14.75
359.911	-27.75
360.123	6.19
360.334	-2
360.546	9.27
360.757	6.54
360.969	39
361.18	29.9
361.391	47.77
361.603	27.8
361.814	45.85
362.025	17.98
362.237	22.8
362.448	30.92
362.659	46.25
362.871	33.45
363.082	38.73
363.293	34.87
363.504	20.7
363.716	14.65
363.927	27.63
364.138	13.03
364.349	-2.07
364.56	3.14
364.772	3.86
364.983	6.86
365.194	15.27
365.405	36.57
365.616	49.4
365.827	50.61
366.038	40.36
366.25	33.96
366.461	14.24
366.672	23.86
366.883	31.12
367.094	36.51
367.305	29.73
367.516	32.74
367.727	13.38
367.938	4.7
368.149	11.46
368.36	24.15
368.571	26.47
368.781	9.64
368.992	9.58
369.203	-9.62
369.414	-32.11
369.625	-40.57
369.836	-24.4
370.047	-46.99
370.258	-38.64
370.468	-33.24
370.679	-43.4
370.89	-33.52
371.101	-11.91
371.312	-7.82
371.522	9.92
371.733	20.66
371.944	36.26
372.155	43.45
372.365	30.9
372.576	28.49
372.787	30.75
372.997	5.06
373.208	11.71
373.419	45.48
373.629	15.73
373.84	18.88
374.05	26.41
374.261	30.72
374.472	9.49
374.682	57.12
374.893	62.02
375.103	80.94
375.314	64
375.524	65.76
375.735	51.18
375.945	49.58
376.156	30.34
376.366	34
376.577	30.23
376.787	21.47
376.997	27.28
377.208	31.74
377.418	26.02
377.629	42.42
377.839	41.55
378.049	39.45
378.26	47.57
378.47	49.29
378.68	36.78
378.89	46.15
379.101	39.64
379.311	14.75
379.521	-8.21
379.732	-6.19
379.942	-8.62
380.152	-26.89
380.362	8.83
380.572	20.76
380.783	28.84
380.993	43.02
381.203	65.17
381.413	75.97
381.623	74.74
381.833	71
382.043	56.67
382.253	48.27
382.463	37.38
382.674	38.94
382.884	18.28
383.094	12.42
383.304	14.87
383.514	11.37
383.724	20.81
383.934	23.67
384.144	17.79
384.353	10.72
384.563	7.9
384.773	8.81
384.983	7.61
385.193	24.6
385.403	32.55
385.613	38.61
385.823	34
386.033	37.09
386.242	31.05
386.452	28.35
386.662	23.48
386.872	32.28
387.082	31.51
387.291	25.54
387.501	31.39
387.711	32.88
387.921	25.92
388.13	22.82
388.34	28.63
388.55	19.64
388.759	16.7
388.969	22.76
389.179	22.36
389.388	23.61
389.598	27.16
389.807	26.29
390.017	21.14
390.227	21.36
390.436	17.98
390.646	19.64
390.855	22.23
391.065	23.76
391.274	26.82
391.484	27.02
391.693	30.49
391.903	33.02
392.112	37.79
392.322	41.11
392.531	42.6
392.74	40.95
392.95	36.28
393.159	30.81
393.369	27.38
393.578	27.55
393.787	27.27
393.997	28.64
394.206	29.52
394.415	31.28
394.625	31.2
394.834	29.36
395.043	30.6
395.252	30.47
395.462	31.9
395.671	33.41
395.88	35.02
396.089	35.71
396.298	35.09
396.508	33.71
396.717	32.66
396.926	32.88
397.135	31.91
397.344	32.21
397.553	33.52
397.762	34.89
397.971	34.42
398.181	35.22
398.39	35.25
398.599	34.61
398.808	33.99
399.017	34.93
399.226	35.53
399.435	35.92
399.644	36
399.853	35.35
400.062	34.35
400.27	34
400.479	33.5
400.688	32.98
400.897	33.58
401.106	33.88
401.315	33.61
401.524	33.65
401.733	33.69
401.941	33.63
402.15	33.56
402.359	33.21
402.568	33.13
402.777	33.1
402.985	32.76
403.194	32.75
403.403	32.91
403.612	32.71
403.82	32.72
404.029	33.02
404.238	32.91
404.446	33.09
404.655	32.88
404.864	32.75
405.072	32.29
405.281	32.27
405.489	31.71
405.698	31.75
405.906	31.55
406.115	31.67
406.324	31.35
406.532	31.49
406.741	31.48
406.949	31.44
407.158	31.36
407.366	31.41
407.574	31.51
407.783	31.65
407.991	31.58
408.2	31.67
408.408	31.64
408.617	31.26
408.825	31.04
409.033	31.01
409.242	30.79
409.45	30.68
409.658	30.61
409.867	30.55
410.075	30.31
410.283	30.12
410.491	29.95
410.7	29.85
410.908	29.81
411.116	30.1
411.324	30.03
411.533	29.99
411.741	30.07
411.949	30
412.157	29.64
412.365	29.55
412.573	29.65
412.781	29.47
412.99	29.39
413.198	29.52
413.406	29.54
413.614	29.32
413.822	29.24
414.03	29.02
414.238	28.69
414.446	28.85
414.654	28.71
414.862	28.76
415.07	28.77
415.278	28.88
415.486	28.42
415.694	28.58
415.902	28.25
416.109	28.04
416.317	27.94
416.525	27.87
416.733	27.63
416.941	27.93
417.149	28.08
417.357	28.1
417.564	28.22
417.772	28.52
417.98	28.11
418.188	27.9
418.395	27.92
418.603	27.92
418.811	27.3
419.019	27.51
419.226	27.68
419.434	27.79
419.642	27.48
419.849	27.78
420.057	27.82
420.265	27.67
420.472	27.38
420.68	27.4
420.887	27.07
421.095	26.92
421.302	26.8
421.51	26.82
421.717	26.92
421.925	27.11
422.132	27.09
422.34	27.02
422.547	27.03
422.755	27.01
422.962	26.92
423.17	26.77
423.377	27.12
423.585	26.83
423.792	26.79
423.999	26.79
424.207	26.78
424.414	26.64
424.621	26.73
424.829	26.73
425.036	26.89
425.243	27.11
425.451	26.81
425.658	26.78
425.865	26.99
426.072	26.8
426.28	27.05
426.487	27.26
426.694	27.38
426.901	27.15
427.108	27.29
427.315	27.2
427.523	27.35
427.73	27.53
427.937	27.47
428.144	27.33
428.351	27.14
428.558	27.3
428.765	27.42
428.972	27.63
429.179	27.99
429.386	28.43
429.593	28.32
429.8	28
430.007	28.13
430.214	28.02
430.421	27.77
430.628	27.7
430.835	27.77
431.042	27.83
431.249	27.97
431.456	28.46
431.662	28.89
431.869	29.27
432.076	29.59
432.283	29.86
432.49	29.67
432.697	29.66
432.903	29.52
433.11	29.38
433.317	29.46
433.524	29.75
433.73	29.83
433.937	29.87
434.144	29.97
434.35	29.72
434.557	29.47
434.764	29.31
434.97	29.49
435.177	29.5
435.384	29.65
435.59	29.76
435.797	30.14
436.003	30.27
436.21	30.42
436.416	30.53
436.623	30.75
436.829	30.72
437.036	30.71
437.242	30.88
437.449	31.04
437.655	30.97
437.862	31.04
438.068	31.15
438.275	31.17
438.481	31.31
438.687	31.51
438.894	31.7
439.1	31.83
439.307	32
439.513	32.1
439.719	32.05
439.926	32.09
440.132	32.12
440.338	31.95
440.544	31.98
440.751	32.1
440.957	32.21
441.163	32.33
441.369	32.48
441.575	32.37
441.782	32.39
441.988	32.28
442.194	32.23
442.4	32.31
442.606	32.56
442.812	32.71
443.018	32.83
443.224	33
443.431	33.18
443.637	33.22
443.843	33.02
444.049	33.19
444.255	33.21
444.461	33.11
444.667	32.97
444.873	33.44
445.079	33.35
445.284	33.47
445.49	33.35
445.696	33.44
445.902	33.22
446.108	33.42
446.314	33.42
446.52	33.64
446.726	33.91
446.931	34.07
447.137	34.16
447.343	34.28
447.549	34.17
447.755	33.95
447.96	34.01
448.166	33.92
448.372	33.91
448.578	34.16
448.783	34.41
448.989	34.57
449.195	34.6
449.4	34.6
449.606	34.58
449.812	34.47
450.017	34.29
450.223	34.5
450.428	34.47
450.634	34.58
450.84	34.69
451.045	34.78
451.251	34.79
451.456	35.06
451.662	35.28
451.867	35.42
452.073	35.45
452.278	35.47
452.483	35.51
452.689	35.38
452.894	35.22
453.1	35.29
453.305	35.22
453.51	35.11
453.716	35.01
453.921	35.32
454.127	35.26
454.332	35.19
454.537	35.17
454.742	35.31
454.948	35.31
455.153	35.53
455.358	35.87
455.563	36.08
455.769	36.32
455.974	36.27
456.179	36.05
456.384	35.84
456.589	35.85
456.795	35.79
457	35.95
457.205	36.2
457.41	36.29
457.615	36.16
457.82	36.15
458.025	36
458.23	35.99
458.435	36.17
458.64	36.09
458.845	36.19
459.05	36.25
459.255	36.33
459.46	36.3
459.665	36.54
459.87	36.58
460.075	36.72
460.28	36.7
460.485	36.85
460.69	36.99
460.895	36.92
461.099	36.9
461.304	37.07
461.509	36.98
461.714	36.64
461.919	36.89
462.123	36.68
462.328	36.81
462.533	36.72
462.738	37.11
462.942	36.86
463.147	37.24
463.352	37.2
463.556	37.42
463.761	37.57
463.966	37.68
464.17	37.68
464.375	37.57
464.58	37.41
464.784	37.36
464.989	37.42
465.193	37.46
465.398	37.61
465.602	37.85
465.807	37.97
466.011	38.17
466.216	38.26
466.42	38.39
466.625	38.63
466.829	38.61
467.034	38.66
467.238	38.82
467.443	38.83
467.647	38.56
467.851	38.58
468.056	38.66
468.26	38.58
468.464	38.56
468.669	38.8
468.873	39.02
469.077	39.06
469.282	39.2
469.486	39.37
469.69	39.34
469.894	39.12
470.099	39.29
470.303	39.33
470.507	39.31
470.711	39.33
470.915	39.48
471.119	39.28
471.324	39.27
471.528	39.28
471.732	39.44
471.936	39.38
472.14	39.53
472.344	39.68
472.548	39.8
472.752	39.92
472.956	40.38
473.16	40.49
473.364	40.41
473.568	40.31
473.772	40.39
473.976	40.21
474.18	40.1
474.384	40.11
474.588	40.24
474.792	40.13
474.995	40.1
475.199	40.19
475.403	40.26
475.607	40.29
475.811	40.33
476.015	40.51
476.218	40.67
476.422	40.84
476.626	40.87
476.83	41.01
477.033	40.9
477.237	40.78
477.441	40.78
477.644	40.74
477.848	40.75
478.052	40.84
478.255	40.86
478.459	40.81
478.663	40.99
478.866	41.01
479.07	41.14
479.273	41.31
479.477	41.39
479.681	41.38
479.884	41.38
480.088	41.24
480.291	41.25
480.495	41.16
480.698	41.23
480.901	41.29
481.105	41.42
481.308	41.3
481.512	41.41
481.715	41.5
481.919	41.48
482.122	41.45
482.325	41.51
482.529	41.5
482.732	41.41
482.935	41.35
483.138	41.32
483.342	41.41
483.545	41.53
483.748	41.58
483.952	41.75
484.155	41.81
484.358	41.83
484.561	41.63
484.764	41.64
484.967	41.59
485.171	41.76
485.374	41.82
485.577	42.06
485.78	42.04
485.983	41.99
486.186	41.8
486.389	41.69
486.592	41.62
486.795	41.68
486.998	41.77
487.201	41.83
487.404	41.94
487.607	42.01
487.81	42.04
488.013	42.11
488.216	42.05
488.419	42.05
488.622	42.04
488.825	41.96
489.028	41.86
489.231	41.87
489.433	41.74
489.636	41.63
489.839	41.76
490.042	41.74
490.245	41.74
490.447	41.92
490.65	41.91
490.853	41.89
491.056	41.97
491.258	42.2
491.461	42.21
491.664	42.35
491.866	42.36
492.069	42.45
492.272	42.33
492.474	42.42
492.677	42.45
492.879	42.57
493.082	42.51
493.285	42.65
493.487	42.6
493.69	42.63
493.892	42.62
494.095	42.7
494.297	42.76
494.5	42.83
494.702	42.93
494.905	43.01
495.107	43.06
495.309	43.14
495.512	43.26
495.714	43.33
495.917	43.43
496.119	43.53
496.321	43.53
496.524	43.74
496.726	43.82
496.928	43.93
497.13	44.01
497.333	44.13
497.535	44.1
497.737	44.16
497.939	44.24
498.142	44.26
498.344	44.42
498.546	44.39
498.748	44.49
498.95	44.66
499.152	44.82
499.355	44.85
499.557	45.06
499.759	45.31
499.961	45.24
500.163	45.27
500.365	45.43
500.567	45.59
500.769	45.53
500.971	45.68
501.173	45.71
501.375	45.61
501.577	45.55
501.779	45.63
501.981	45.75
502.183	45.85
502.385	45.91
502.587	45.92
502.788	45.93
502.99	45.99
503.192	46.15
503.394	46.27
503.596	46.39
503.798	46.49
503.999	46.57
504.201	46.54
504.403	46.62
504.605	46.66
504.806	46.6
505.008	46.57
505.21	46.59
505.411	46.62
505.613	46.61
505.815	46.73
506.016	46.74
506.218	46.79
506.42	46.78
506.621	46.89
506.823	46.89
507.024	46.74
507.226	46.88
507.427	46.86
507.629	46.87
507.83	46.94
508.032	47
508.233	47
508.435	47.11
508.636	47.05
508.838	47.03
509.039	47.13
509.24	47.18
509.442	47.19
509.643	47.23
509.845	47.14
510.046	47.2
510.247	47.19
510.448	47.14
510.65	47.14
510.851	47.31
511.052	47.26
511.254	47.22
511.455	47.22
511.656	47.3
511.857	47.23
512.058	47.21
512.26	47.21
512.461	47.3
512.662	47.28
512.863	47.23
513.064	47.27
513.265	47.25
513.466	47.26
513.667	47.19
513.868	47.28
514.069	47.39
514.27	47.49
514.471	47.42
514.672	47.47
514.873	47.49
515.074	47.51
515.275	47.38
515.476	47.45
515.677	47.39
515.878	47.52
516.079	47.47
516.28	47.56
516.481	47.71
516.682	47.99
516.882	47.73
517.083	47.65
517.284	47.6
517.485	47.54
517.686	47.32
517.886	47.48
518.087	47.51
518.288	47.61
518.488	47.6
518.689	47.59
518.89	47.63
519.091	47.74
519.291	47.58
519.492	47.62
519.692	47.63
519.893	47.54
520.094	47.5
520.294	47.52
520.495	47.44
520.695	47.5
520.896	47.57
521.096	47.51
521.297	47.69
521.497	47.64
521.698	47.63
521.898	47.62
522.099	47.64
522.299	47.65
522.499	47.73
522.7	47.76
522.9	47.74
523.101	47.85
523.301	47.79
523.501	47.85
523.702	47.84
523.902	47.97
524.102	47.93
524.302	47.87
524.503	47.86
524.703	47.85
524.903	47.74
525.103	47.82
525.304	47.93
525.504	47.93
525.704	47.97
525.904	47.97
526.104	47.98
526.304	47.98
526.504	47.88
526.705	47.88
526.905	47.92
527.105	47.84
527.305	47.81
527.505	47.82
527.705	47.82
527.905	47.88
528.105	47.9
528.305	47.9
528.505	48.04
528.705	48.01
528.905	47.97
529.105	47.96
529.304	47.97
529.504	47.89
529.704	47.92
529.904	47.89
530.104	47.91
530.304	47.89
530.503	47.9
530.703	47.79
530.903	47.76
531.103	47.83
531.303	47.87
531.502	47.85
531.702	47.99
531.902	48.04
532.101	47.95
532.301	47.9
532.501	47.91
532.7	47.9
532.9	47.9
533.1	47.88
533.299	47.85
533.499	47.81
533.698	47.71
533.898	47.69
534.097	47.68
534.297	47.8
534.496	47.86
534.696	47.86
534.895	47.93
535.095	48.07
535.294	48.04
535.494	47.91
535.693	47.93
535.892	47.88
536.092	47.72
536.291	47.57
536.491	47.76
536.69	47.86
536.889	47.84
537.088	47.81
537.288	48.01
537.487	47.99
537.686	48.03
537.886	48.08
538.085	48.2
538.284	48.17
538.483	48.11
538.682	48.05
538.882	48.09
539.081	48.11
539.28	48.03
539.479	47.96
539.678	48.04
539.877	48.03
540.076	48
540.275	48.05
540.474	48.2
540.673	48.14
540.872	48.17
541.071	48.18
541.27	48.22
541.469	48.22
541.668	48.21
541.867	48.18
542.066	48.17
542.265	48.28
542.464	48.33
542.663	48.54
542.862	48.73
543.06	48.99
543.259	49.06
543.458	49.08
543.657	49
543.856	48.85
544.054	48.6
544.253	48.38
544.452	48.35
544.651	48.3
544.849	48.18
545.048	48.24
545.247	48.36
545.445	48.33
545.644	48.3
545.843	48.42
546.041	48.43
546.24	48.46
546.438	48.55
546.637	48.6
546.836	48.6
547.034	48.66
547.233	48.64
547.431	48.65
547.63	48.72
547.828	48.7
548.027	48.7
548.225	48.69
548.423	48.69
548.622	48.7
548.82	48.79
549.019	48.75
549.217	48.76
549.415	48.72
549.614	48.7
549.812	48.74
550.01	48.83
550.209	49
550.407	49.09
550.605	49.09
550.803	49.07
551.002	49.13
551.2	49.07
551.398	49
551.596	49.17
551.794	49.31
551.993	49.31
552.191	49.31
552.389	49.53
552.587	49.45
552.785	49.32
552.983	49.39
553.181	49.56
553.379	49.54
553.577	49.66
553.775	49.76
553.973	49.79
554.171	49.79
554.369	49.68
554.567	49.72
554.765	49.79
554.963	49.87
555.161	49.76
555.359	49.95
555.557	50.02
555.755	49.97
555.952	50
556.15	50.1
556.348	50
556.546	49.99
556.744	49.95
556.941	49.91
557.139	49.99
557.337	50.25
557.535	50.11
557.732	50.31
557.93	50.32
558.128	50.28
558.325	50.22
558.523	50.24
558.721	50.27
558.918	50.33
559.116	50.23
559.313	50.27
559.511	50.52
559.708	50.46
559.906	50.5
560.104	50.66
560.301	50.68
560.498	50.58
560.696	50.72
560.893	50.75
561.091	50.8
561.288	50.92
561.486	50.97
561.683	50.95
561.88	51.12
562.078	51.28
562.275	51.23
562.473	51.37
562.67	51.54
562.867	51.57
563.064	51.46
563.262	51.5
563.459	51.52
563.656	51.49
563.853	51.42
564.051	51.44
564.248	51.5
564.445	51.61
564.642	51.65
564.839	51.74
565.036	51.88
565.234	52.07
565.431	52.11
565.628	52.2
565.825	52.26
566.022	52.4
566.219	52.28
566.416	52.27
566.613	52.37
566.81	52.47
567.007	52.39
567.204	52.36
567.401	52.42
567.598	52.42
567.795	52.49
567.991	52.63
568.188	52.77
568.385	52.8
568.582	52.8
568.779	52.89
568.976	52.87
569.172	53.02
569.369	52.94
569.566	52.83
569.763	52.76
569.96	52.72
570.156	52.72
570.353	52.78
570.55	52.96
570.746	53.02
570.943	53.2
571.14	53.23
571.336	53.31
571.533	53.42
571.729	53.4
571.926	53.3
572.123	53.29
572.319	53.32
572.516	53.11
572.712	53.16
572.909	53.21
573.105	53.21
573.302	53.33
573.498	53.55
573.695	53.52
573.891	53.55
574.087	53.46
574.284	53.39
574.48	53.37
574.677	53.39
574.873	53.41
575.069	53.58
575.266	53.59
575.462	53.42
575.658	53.53
575.854	53.74
576.051	53.74
576.247	53.67
576.443	53.79
576.639	53.65
576.835	53.45
577.032	53.35
577.228	53.48
577.424	53.59
577.62	53.52
577.816	53.57
578.012	53.69
578.208	53.62
578.404	53.56
578.6	53.68
578.796	53.68
578.993	53.69
579.189	53.62
579.384	53.53
579.58	53.38
579.776	53.35
579.972	53.11
580.168	53.12
580.364	53.19
580.56	53.27
580.756	53.23
580.952	53.34
581.148	53.38
581.343	53.36
581.539	53.28
581.735	53.38
581.931	53.44
582.127	53.49
582.322	53.53
582.518	53.67
582.714	53.55
582.909	53.49
583.105	53.34
583.301	53.24
583.496	53.21
583.692	53.25
583.888	53.2
584.083	53.32
584.279	53.42
584.474	53.4
584.67	53.45
584.866	53.55
585.061	53.44
585.257	53.48
585.452	53.51
585.648	53.4
585.843	53.36
586.039	53.41
586.234	53.36
586.429	53.26
586.625	53.26
586.82	53.13
587.015	53.2
587.211	53.01
587.406	53.29
587.601	53.41
587.797	53.57
587.992	53.46
588.187	53.61
588.383	53.37
588.578	53.28
588.773	53.36
588.968	53.31
589.163	53.34
589.359	53.35
589.554	53.3
589.749	53.25
589.944	53.38
590.139	53.35
590.334	53.4
590.529	53.35
590.724	53.33
590.919	53.42
591.114	53.43
591.309	53.63
591.504	53.86
591.699	53.77
591.894	53.76
592.089	53.69
592.284	53.61
592.479	53.55
592.674	53.63
592.869	53.52
593.064	53.64
593.259	53.67
593.454	53.85
593.648	53.89
593.843	54
594.038	53.93
594.233	53.77
594.428	53.68
594.622	53.64
594.817	53.71
595.012	53.72
595.206	53.93
595.401	53.8
595.596	53.85
595.79	53.94
595.985	54.14
596.18	54.08
596.374	54.36
596.569	54.37
596.763	54.19
596.958	54.1
597.153	54.13
597.347	53.98
597.542	54.13
597.736	54.11
597.931	54.23
598.125	54.17
598.319	54.28
598.514	54.09
598.708	54.32
598.903	54.17
599.097	54.25
599.291	54.23
599.486	54.3
599.68	54.31
599.874	54.44
600.069	54.36
600.263	54.25
600.457	54.38
600.651	54.3
600.846	54.29
601.04	54.38
601.234	54.64
601.428	54.58
601.622	54.63
601.817	54.68
602.011	54.86
602.205	54.84
602.399	54.81
602.593	54.86
602.787	54.89
602.981	54.71
603.175	54.63
603.369	54.55
603.563	54.61
603.757	54.75
603.951	54.84
604.145	54.91
604.339	55.02
604.533	54.93
604.727	54.75
604.921	54.7
605.115	54.61
605.309	54.64
605.502	54.61
605.696	54.53
605.89	54.5
606.084	54.47
606.278	54.45
606.471	54.4
606.665	54.49
606.859	54.37
607.053	54.39
607.246	54.24
607.44	54.36
607.634	54.28
607.827	54.32
608.021	54.29
608.214	54.36
608.408	54.13
608.602	54.14
608.795	54.15
608.989	54.04
609.182	54.02
609.376	54.07
609.569	53.95
609.763	53.93
609.956	53.85
610.15	53.81
610.343	53.85
610.537	53.85
610.73	53.84
610.923	53.89
611.117	53.91
611.31	53.81
611.504	53.71
611.697	53.57
611.89	53.55
612.083	53.44
612.277	53.51
612.47	53.62
612.663	53.74
612.856	53.71
613.05	53.68
613.243	53.53
613.436	53.3
613.629	53.22
613.822	53.05
614.015	53.04
614.209	52.99
614.402	53.07
614.595	53.02
614.788	53.11
614.981	53.02
615.174	52.82
615.367	52.77
615.56	52.57
615.753	52.6
615.946	52.62
616.139	52.79
616.332	52.91
616.525	53.13
616.718	53.16
616.911	53.05
617.103	53
617.296	52.91
617.489	52.73
617.682	52.59
617.875	52.66
618.067	52.62
618.26	52.63
618.453	52.64
618.646	52.71
618.838	52.66
619.031	52.74
619.224	52.72
619.417	52.75
619.609	52.69
619.802	52.62
619.994	52.62
620.187	52.46
620.38	52.34
620.572	52.25
620.765	52.41
620.957	52.24
621.15	52.12
621.342	52.2
621.535	52.18
621.727	52.08
621.92	52.06
622.112	52.08
622.305	52.12
622.497	52.11
622.69	52.06
622.882	51.97
623.074	52.05
623.267	52.04
623.459	51.89
623.651	51.84
623.844	51.97
624.036	52.03
624.228	51.88
624.42	52.03
624.613	52.12
624.805	52.02
624.997	51.97
625.189	52
625.381	52
625.574	51.89
625.766	51.94
625.958	51.91
626.15	51.91
626.342	51.9
626.534	51.88
626.726	51.76
626.918	51.69
627.11	51.53
627.302	51.43
627.494	51.51
627.686	51.54
627.878	51.56
628.07	51.7
628.262	51.7
628.454	51.55
628.646	51.52
628.838	51.43
629.029	51.32
629.221	51.32
629.413	51.26
629.605	51.13
629.797	51.07
629.989	51.1
630.18	51
630.372	50.92
630.564	50.88
630.755	50.97
630.947	50.94
631.139	50.83
631.33	50.73
631.522	50.98
631.714	50.89
631.905	50.77
632.097	50.85
632.289	50.91
632.48	50.71
632.672	50.64
632.863	50.53
633.055	50.43
633.246	50.33
633.438	50.31
633.629	50.37
633.821	50.41
634.012	50.32
634.203	50.43
634.395	50.3
634.586	50.22
634.777	50.03
634.969	50.14
635.16	50.08
635.351	50.09
635.543	50.03
635.734	50.17
635.925	50.04
636.117	49.98
636.308	50.06
636.499	49.9
636.69	49.73
636.881	49.62
637.073	49.55
637.264	49.53
637.455	49.66
637.646	49.81
637.837	49.96
638.028	49.87
638.219	49.68
638.41	49.55
638.601	49.36
638.792	49.24
638.983	49.33
639.174	49.25
639.365	49.24
639.556	49.18
639.747	49.17
639.938	49.1
640.129	49.09
640.32	49.06
640.511	49.05
640.701	48.91
640.892	48.77
641.083	48.81
641.274	48.76
641.465	48.78
641.655	48.76
641.846	48.7
642.037	48.66
642.228	48.63
642.418	48.52
642.609	48.5
642.8	48.61
642.99	48.53
643.181	48.51
643.372	48.58
643.562	48.53
643.753	48.35
643.943	48.22
644.134	48.03
644.324	47.99
644.515	48.08
644.705	48.3
644.896	48.36
645.086	48.37
645.277	48.35
645.467	48.19
645.658	47.97
645.848	47.95
646.038	47.96
646.229	47.86
646.419	47.82
646.61	47.84
646.8	47.78
646.99	47.75
647.18	47.69
647.371	47.7
647.561	47.57
647.751	47.51
647.941	47.38
648.132	47.27
648.322	47.25
648.512	47.36
648.702	47.4
648.892	47.5
649.082	47.66
649.272	47.63
649.462	47.41
649.653	47.41
649.843	47.35
650.033	47.3
650.223	47.3
650.413	47.39
650.603	47.34
650.793	47.4
650.983	47.4
651.172	47.31
651.362	47.23
651.552	47.2
651.742	47.04
651.932	47.04
652.122	47.06
652.312	47.28
652.502	47.32
652.691	47.42
652.881	47.43
653.071	47.4
653.261	47.3
653.45	47.17
653.64	47.08
653.83	46.89
654.019	46.88
654.209	46.66
654.399	46.69
654.588	46.7
654.778	46.67
654.968	46.49
655.157	46.55
655.347	46.44
655.536	46.33
655.726	46.38
655.915	46.31
656.105	46.23
656.294	46.22
656.484	46.06
656.673	45.89
656.863	45.91
657.052	45.84
657.241	45.68
657.431	45.69
657.62	45.68
657.809	45.48
657.999	45.45
658.188	45.33
658.377	45.26
658.567	45.15
658.756	45.14
658.945	44.96
659.134	44.82
659.324	44.69
659.513	44.57
659.702	44.38
659.891	44.37
660.08	44.22
660.269	44.18
660.458	44.02
660.648	44.04
660.837	43.8
661.026	43.88
661.215	43.76
661.404	43.68
661.593	43.48
661.782	43.33
661.971	43.13
662.16	42.99
662.349	42.95
662.538	42.86
662.726	42.76
662.915	42.55
663.104	42.37
663.293	42.21
663.482	42.15
663.671	42.09
663.86	42.01
664.048	41.94
664.237	41.83
664.426	41.64
664.615	41.5
664.803	41.48
664.992	41.26
665.181	41.11
665.369	40.88
665.558	40.79
665.747	40.54
665.935	40.5
666.124	40.44
666.312	40.49
666.501	40.49
666.69	40.39
666.878	40.21
667.067	40.14
667.255	40.09
667.444	40.07
667.632	40.07
667.82	40.15
668.009	40.23
668.197	40.17
668.386	39.99
668.574	40.01
668.762	39.84
668.951	39.47
669.139	39.35
669.327	39.15
669.516	39.12
669.704	38.98
669.892	39.05
670.08	39.06
670.269	38.96
670.457	38.89
670.645	38.92
670.833	38.91
671.021	38.75
671.21	38.85
671.398	38.94
671.586	38.89
671.774	38.8
671.962	38.84
672.15	38.81
672.338	38.59
672.526	38.68
672.714	38.64
672.902	38.59
673.09	38.67
673.278	39.01
673.466	39.07
673.654	39.25
673.842	39.37
674.03	39.2
674.218	38.88
674.405	38.88
674.593	38.88
674.781	38.86
674.969	38.96
675.157	39.16
675.344	39.24
675.532	39.26
675.72	39.31
675.908	39.31
676.095	39.09
676.283	39.03
676.471	39.08
676.658	39.02
676.846	39.18
677.033	39.32
677.221	39.38
677.409	39.29
677.596	39.31
677.784	39.1
677.971	39.22
678.159	39.3
678.346	39.39
678.534	39.56
678.721	40.05
678.909	40.01
679.096	39.89
679.283	40.08
679.471	40.27
679.658	40.34
679.846	40.64
680.033	41.04
680.22	41.03
680.408	40.96
680.595	40.89
680.782	40.86
680.969	40.88
681.157	41.01
681.344	41.13
681.531	41.28
681.718	41.39
681.905	41.43
682.093	41.52
682.28	41.41
682.467	41.51
682.654	41.7
682.841	41.78
683.028	41.98
683.215	42.48
683.402	42.55
683.589	42.77
683.776	42.99
683.963	43.18
684.15	43.39
684.337	43.61
684.524	43.76
684.711	44.18
684.898	44.37
685.085	44.39
685.271	44.81
685.458	44.82
685.645	44.8
685.832	45.14
686.019	45.58
686.205	45.63
686.392	45.8
686.579	45.89
686.766	46.12
686.952	46.2
687.139	46.46
687.326	46.99
687.512	47.41
687.699	47.52
687.886	47.74
688.072	48.09
688.259	48.14
688.445	48.59
688.632	48.97
688.818	49.62
689.005	49.87
689.191	50.38
689.378	50.58
689.564	51.11
689.751	51.08
689.937	51.13
690.124	51.49
690.31	51.63
690.496	51.6
690.683	51.86
690.869	52.29
691.055	52.37
691.242	52.78
691.428	53.19
691.614	53.53
691.8	53.95
691.987	54.34
692.173	54.62
692.359	55
692.545	55.25
692.731	55.45
692.918	55.88
693.104	56.14
693.29	56.38
693.476	56.66
693.662	56.99
693.848	57.22
694.034	57.35
694.22	57.58
694.406	57.93
694.592	58.29
694.778	58.58
694.964	58.98
695.15	59.31
695.336	59.49
695.522	59.66
695.708	59.77
695.894	60.13
696.08	60.39
696.265	60.79
696.451	61.39
696.637	61.72
696.823	61.86
697.009	61.87
697.194	62.12
697.38	62
697.566	62.02
697.751	62.43
697.937	63.06
698.123	63.25
698.308	63.75
698.494	64.4
698.68	64.63
698.865	64.78
699.051	65.13
699.236	65.17
699.422	65.1
699.607	65.23
699.793	65.3
699.978	65.43
700.164	65.56
700.349	66.04
700.535	65.95
700.72	66.09
700.906	66.45
701.091	66.77
701.276	66.94
701.462	67.74
701.647	68.31
701.832	68.52
702.018	68.63
702.203	68.67
702.388	68.43
702.573	68.51
702.759	68.85
702.944	69.13
703.129	69.15
703.314	69.46
703.499	69.33
703.684	69.26
703.87	70.17
704.055	70.89
704.24	71.28
704.425	71.93
704.61	72.38
704.795	71.84
704.98	71.71
705.165	71.45
705.35	71.5
705.535	71.32
705.72	71.58
705.905	72.13
706.09	72.58
706.275	72.69
706.459	72.77
706.644	72.66
706.829	72.5
707.014	72.48
707.199	72.63
707.384	73.03
707.568	73.38
707.753	73.88
707.938	74.3
708.123	74.41
708.307	74.38
708.492	74.34
708.677	74.26
708.861	73.98
709.046	73.81
709.231	74.25
709.415	74.58
709.6	74.37
709.784	74.44
709.969	74.7
710.153	74.48
710.338	74.63
710.522	74.9
710.707	75.6
710.891	75.33
711.076	75.08
711.26	74.78
711.445	75
711.629	75.04
711.813	75.74
711.998	76.42
712.182	76.32
712.366	76.39
712.551	76.54
712.735	76.39
712.919	76.26
713.103	76.6
713.288	76.48
713.472	75.83
713.656	76.36
713.84	76.45
714.024	76.38
714.208	76.2
714.393	76.83
714.577	76.55
714.761	76.79
714.945	77.12
715.129	77.34
715.313	77.19
715.497	77.26
715.681	77.61
715.865	77.5
716.049	77.88
716.233	77.62
716.417	77.71
716.601	77.35
716.785	77.7
716.968	77.94
717.152	78.19
717.336	78.34
717.52	78.59
717.704	78.38
717.888	78.41
718.071	78.38
718.255	78.39
718.439	77.99
718.622	78.08
718.806	78.22
718.99	78.07
719.174	77.71
719.357	78.05
719.541	78.1
719.724	77.85
719.908	78.8
720.092	79.26
720.275	79.41
720.459	79.41
720.642	79.09
720.826	78.43
721.009	78.35
721.193	77.79
721.376	77.93
721.559	78.12
721.743	78.1
721.926	78.63
722.11	79.34
722.293	79.14
722.476	78.97
722.66	79.15
722.843	78.72
723.026	77.78
723.21	78.35
723.393	79.06
723.576	79.23
723.759	78.72
723.942	79
724.126	78.49
724.309	78.3
724.492	78.2
724.675	78.56
724.858	79.02
725.041	79.56
725.224	79.78
725.407	79.73
725.59	79.9
725.774	79.6
725.957	78.8
726.14	78.15
726.322	78.34
726.505	78.46
726.688	79.44
726.871	79.15
727.054	79.39
727.237	79.64
727.42	79.52
727.603	78.79
727.786	79.61
727.968	79.57
728.151	79.24
728.334	79.13
728.517	79.46
728.699	79.68
728.882	79.45
729.065	79.89
729.248	80.64
729.43	80.57
729.613	81.35
729.796	82.17
729.978	81.4
730.161	80.29
730.343	80.15
730.526	79.99
730.708	79.75
730.891	80.46
731.073	80.64
731.256	80.32
731.438	79.94
731.621	80.2
731.803	79.84
731.986	79.87
732.168	79.69
732.35	79.91
732.533	79.31
732.715	79.4
732.898	80.04
733.08	80.41
733.262	80.69
733.444	80.74
733.627	81.11
733.809	81.3
733.991	81.75
734.173	80.79
734.355	81.3
734.538	81.6
734.72	80.92
734.902	81.14
735.084	81.5
735.266	81.78
735.448	81.99
735.63	82.26
735.812	81.82
735.994	82.49
736.176	82.85
736.358	81.8
736.54	82.59
736.722	82.41
736.904	81.8
737.086	80.84
737.268	81.75
737.45	81.58
737.632	81.7
737.814	80.7
737.995	81.14
738.177	81.19
738.359	80.19
738.541	80.51
738.723	81.11
738.904	81.48
739.086	81.31
739.268	81.9
739.449	82.9
739.631	83.3
739.813	83.26
739.994	83.36
740.176	83.63
740.358	82.32
740.539	82.93
740.721	83.1
740.902	83.67
741.084	83.34
741.265	83.15
741.447	82.62
741.628	81.97
741.81	80.47
741.991	81.22
742.172	82.8
742.354	83.28
742.535	83.65
742.717	84.46
742.898	84.49
743.079	83.68
743.261	83.98
743.442	83.62
743.623	84.28
743.804	84.37
743.986	84.06
744.167	82.74
744.348	82.63
744.529	82.04
744.71	80.59
744.891	80.76
745.073	80.84
745.254	80.33
745.435	79.93
745.616	79.8
745.797	79.2
745.978	80.36
746.159	80.46
746.34	79.49
746.521	81.61
746.702	81.39
746.883	80.26
747.064	80.73
747.245	82.55
747.426	82.09
747.606	83.77
747.787	85.04
747.968	85.04
748.149	84.73
748.33	83.51
748.51	81.73
748.691	80.46
748.872	80.87
749.053	80.61
749.233	80.23
749.414	79.47
749.595	79.25
749.775	78.06
749.956	77.88
750.137	78.69
750.317	80.79
750.498	82.53
750.678	83.13
750.859	82.91
751.04	82.71
751.22	80.98
751.4	79.68
751.581	77.63
751.761	79.23
751.942	78.55
752.122	78.36
752.303	77.34
752.483	78.78
752.663	76.95
752.844	77.64
753.024	79.64
753.204	80.91
753.385	80.54
753.565	80.03
753.745	79.22
753.925	78.36
754.106	77.12
754.286	78.05
754.466	78.73
754.646	80.54
754.826	79.54
755.006	80.28
755.187	80.05
755.367	82.28
755.547	81.78
755.727	83.19
755.907	82.22
756.087	83.47
756.267	80.93
756.447	79.59
756.627	78.13
756.807	80.2
756.987	79.04
757.167	78.75
757.346	79.89
757.526	79.14
757.706	78.84
757.886	80.19
758.066	81.55
758.246	83.16
758.425	83.83
758.605	83.17
758.785	82.53
758.965	82.58
759.144	80.17
759.324	80.53
759.504	81.34
759.683	81.49
759.863	79.28
760.043	78.8
760.222	79.75
760.402	77.74
760.581	76.52
760.761	78.47
760.94	78.13
761.12	79.42
761.299	80.83
761.479	80.03
761.658	78.61
761.838	78.58
762.017	77.33
762.197	77.92
762.376	79.78
762.555	81.54
762.735	83.04
762.914	82.04
763.093	81.58
763.273	79.68
763.452	79.19
763.631	77.49
763.81	77.32
763.99	77.43
764.169	78.51
764.348	76.52
764.527	76.23
764.706	77.81
764.885	78.78
765.064	77.45
765.243	78.24
765.423	80.85
765.602	79.92
765.781	77.92
765.96	78.82
766.139	78.5
766.318	78.31
766.497	77.86
766.676	77.53
766.854	77.7
767.033	78.13
767.212	76.53
767.391	76.52
767.57	77.03
767.749	78
767.928	79.42
768.106	78.51
768.285	76.77
768.464	77.57
768.643	76.75
768.821	75.38
769	77.7
769.179	79.3
769.357	78.85
769.536	77.58
769.715	77.24
769.893	78.02
770.072	77.82
770.25	76.84
770.429	79.71
770.607	80.39
770.786	78.96
770.964	80.35
771.143	80.43
771.321	79.15
771.5	79.66
771.678	78.76
771.857	77.11
772.035	77.32
772.213	76.28
772.392	74.81
772.57	76.31
772.748	78.44
772.927	79.72
773.105	79.44
773.283	80.48
773.461	80.47
773.64	79.52
773.818	76.29
773.996	77.53
774.174	76.66
774.352	73.93
774.531	71.17
774.709	74.96
774.887	74.64
775.065	74.86
775.243	76.18
775.421	77.88
775.599	77.84
775.777	75.47
775.955	74.15
776.133	71.83
776.311	71.42
776.489	68.96
776.667	71.14
776.844	72.24
777.022	71.84
777.2	73.18
777.378	73.63
777.556	73.68
777.734	78.22
777.911	82.03
778.089	80.82
778.267	82.72
778.445	80.39
778.622	75.93
778.8	73.44
778.978	73.46
779.155	70.71
779.333	72.28
779.511	71.19
779.688	74.43
779.866	69.7
780.043	68.6
780.221	67.25
780.398	67.05
780.576	66.26
780.753	70.8
780.931	70.38
781.108	71.51
781.286	73.95
781.463	70.46
781.64	69.23
781.818	72.56
781.995	72.79
782.172	72.85
782.35	74.32
782.527	77.8
782.704	76.34
782.882	76.46
783.059	74.27
783.236	77.35
783.413	76.51
783.59	74.71
783.768	72.34
783.945	72.63
784.122	70.05
784.299	67.65
784.476	70.1
784.653	72.36
784.83	71.03
785.007	67.99
785.184	70.53
785.361	68.54
785.538	71.69
785.715	74.11
785.892	76.09
786.069	77.34
786.246	79.62
786.423	77.78
786.6	76
786.776	79.89
786.953	75.6
787.13	75.09
787.307	73.86
787.484	76.23
787.66	71.36
787.837	73.64
788.014	74.21
788.191	72.6
788.367	69.74
788.544	75.59
788.721	73.79
788.897	76.08
789.074	77.87
789.25	77.28
789.427	74.09
789.603	75.4
789.78	74.8
789.956	72.17
790.133	70.93
790.309	70.69
790.486	73.02
790.662	70.55
790.839	71.09
791.015	72.57
791.192	71.98
791.368	69.73
791.544	66.59
791.721	65.35
791.897	66.75
792.073	64.07
792.249	59.88
792.426	61.76
792.602	65.98
792.778	62.87
792.954	63.08
793.13	66.39
793.307	60.5
793.483	51.89
793.659	55.93
793.835	60.76
794.011	53.79
794.187	57.45
794.363	59.87
794.539	62.4
794.715	53.23
794.891	57.09
795.067	58.12
795.243	63.65
795.419	59.04
795.595	62.9
795.771	67.81
795.947	70.12
796.122	68.25
796.298	69.62
796.474	71.45
796.65	65.71
796.826	64.24
797.001	66.48
797.177	64.15
797.353	66.25
797.529	70.86
797.704	69.61
797.88	67.19
798.056	65.62
798.231	62.1
798.407	62.38
798.582	62.31
798.758	68.93
798.934	76.17
799.109	74.96
799.285	69.8
799.46	72.7
799.636	68.08
799.811	65.42
799.986	68.15
800.162	75.96
800.337	73.35
800.513	67.05
800.688	67.37
800.863	75.61
801.039	66.11
801.214	68.26
801.389	75.91
801.565	71.92
801.74	57.58
801.915	67.17
802.09	64.99
802.265	69.78
802.441	67.22
802.616	71.26
802.791	72.99
802.966	71.47
803.141	64.3
803.316	63.75
803.491	69.8
803.666	65.06
803.841	65.74
804.016	65.92
804.191	73.08
804.366	62.91
804.541	64.86
804.716	62.4
804.891	59
805.066	57.37
805.241	58.81
805.416	56.39
805.591	60.61
805.765	65.36
805.94	66.81
806.115	66.56
806.29	64.5
806.464	59.97
806.639	53.11
806.814	46.1
806.989	41.56
807.163	53.68
807.338	60
807.512	63.52
807.687	59.1
807.862	74.52
808.036	69.97
808.211	73.33
808.385	78.9
808.56	92.82
808.734	95.88
808.909	93.66
809.083	87.96
809.258	84.64
809.432	76.67
809.606	60.68
809.781	59.87
809.955	56.27
810.13	55.44
810.304	53.4
810.478	52.91
810.652	60.55
810.827	67.02
811.001	62.48
811.175	63.08
811.349	64.65
811.524	53.2
811.698	41.31
811.872	45.5
812.046	56.41
812.22	63.09
812.394	65.72
812.568	74.61
812.742	78.51
812.916	74.38
813.09	65.13
813.264	59.92
813.438	67.43
813.612	63.87
813.786	52.31
813.96	58.35
814.134	69.68
814.308	74.48
814.482	72.91
814.656	77.71
814.83	80.4
815.003	78.19
815.177	60.03
815.351	56.64
815.525	58.52
815.698	58.94
815.872	51.8
816.046	41.86
816.219	53.59
816.393	64.61
816.567	65.75
816.74	71.54
816.914	88.34
817.088	88.76
817.261	76.18
817.435	56.19
817.608	63.75
817.782	60.95
817.955	62.67
818.129	54.44
818.302	69.1
818.475	76.61
818.649	80.02
818.822	64.11
818.996	92.15
819.169	87.29
819.342	65.23
819.516	68.44
819.689	74.2
819.862	58.36
820.035	53.94
820.209	58.36
820.382	48.92
820.555	55.86
820.728	47.7
820.901	47.5
821.075	39.1
821.248	50.54
821.421	32.15
821.594	39.11
821.767	58.92
821.94	79.45
822.113	51.53
822.286	67.65
822.459	80.14
822.632	75.56
822.805	57.62
822.978	68.16
823.151	57.99
823.324	34.73
823.496	13.88
823.669	17.98
823.842	21.36
824.015	9.24
824.188	17.81
824.361	34.64
824.533	32.2
824.706	29.72
824.879	39.63
825.051	32.42
825.224	32.4
825.397	29.37
825.569	28.78
825.742	36.8
825.915	67.54
826.087	80.15
826.26	55.91
826.432	63.49
826.605	59.91
826.777	45.95
826.95	44.01
827.122	51.24
827.295	61.7
827.467	65.21
827.64	46.41
827.812	42.4
827.984	50.33
828.157	29.35
828.329	-10.53
828.501	5.96
828.674	19.63
828.846	3.48
829.018	33.79
829.19	39.77
829.363	71.32
829.535	70.66
829.707	78.82
829.879	46.48
830.051	36.17
830.223	19.55
830.395	-6.75
830.568	-9.98
830.74	0.97
830.912	49.15
831.084	21.07
831.256	21.95
831.428	24.87
831.6	6.31
831.772	-42.94
831.943	-60.81
832.115	-22.13
832.287	-8.26
832.459	16.05
832.631	34.66
832.803	68.83
832.975	75.05
833.146	80
833.318	73.61
833.49	64.52
833.662	31.72
833.833	14.7
834.005	10.03
834.177	11.88
834.348	15.66
834.52	28.25
834.692	31.09
834.863	6.73
835.035	3.3
835.206	-30.81
835.378	-17.59
835.549	-14.73
835.721	6.5
835.892	30.37
836.064	37.6
836.235	48.82
836.407	73.96
836.578	64.77
836.749	40.33
836.921	14.32
837.092	-21.05
837.264	-47.85
837.435	-55.04
837.606	-16.96
837.777	19.03
837.949	33.72
838.12	41.27
838.291	54.03
838.462	47.19
838.633	22.54
838.805	21.42
838.976	39.87
839.147	-5.28
839.318	-19.23
839.489	-55.63
839.66	-55.05
839.831	-14.69
840.002	-6.3
840.173	-16.6
840.344	40.86
840.515	66.82
840.686	-16.77
840.857	40.97
841.028	28.27
841.199	16.26
841.369	-10.31
841.54	10.53
841.711	25.7
841.882	57.75
842.053	51.43
842.223	30.63
842.394	22.64
842.565	-7.26
842.736	11.51
842.906	9.89
843.077	36.76
843.248	63.96
843.418	95.02
843.589	93.15
843.759	154.79
843.93	114.73
844.101	39.26
844.271	39.64
844.442	50.18
844.612	52.61
844.783	48.02
844.953	33.12
845.123	53.82
845.294	48.33
845.464	-33.36
845.635	-28.32
845.805	82.92
845.975	59.2
846.146	17.91
846.316	11.93
846.486	28.78
846.656	40.85
846.827	21.43
846.997	10.04
847.167	36.43
847.337	27.24
847.507	-24.21
847.677	-5.09
847.848	60.37
848.018	54.36
848.188	61.21
848.358	60.96
848.528	39.84
848.698	9.55
848.868	-91.14
849.038	-179.15
849.208	-59.15
849.378	11.46
849.548	13.37
849.718	22.37
849.887	39.54
850.057	4.26
850.227	-23.49
850.397	-49.28
850.567	-87.97
850.737	-169.89
850.906	-210.94
851.076	-251.37
851.246	-0.39
851.415	80.29
851.585	22.37
851.755	-6.48
851.924	22.52
852.094	-10.47
852.264	-114.99
852.433	-791.11
852.603	-162.81
852.772	-107.76
852.942	-26.28
853.111	-30.58
853.281	19.58
853.45	78.91
853.62	17.87
853.789	7.53
853.959	86.31
854.128	29.79
854.297	-33.6
854.467	-46.46
854.636	-24.91
854.805	-13.92
854.975	-37.61
855.144	-56.1
855.313	-138.99
855.482	-480.11
855.652	-292.87
855.821	-166.79
855.99	-14.98
856.159	18.45
856.328	24.35
856.497	28.27
856.667	21.25
856.836	43.88
857.005	34.16
857.174	43.95
857.343	69.73
857.512	144.73
857.681	84.88
857.85	80.96
858.019	70.4
858.188	45.14
858.356	19.45
858.525	-28.74
858.694	-9.96
858.863	-80.32
859.032	-54.11
859.201	-117.02
859.369	-50.7
859.538	-7.82
859.707	3.58
859.876	16.38
860.044	43.27
860.213	53.94
860.382	49.71
860.55	58.23
860.719	69.72
860.888	70.38
861.056	38.72
861.225	6.81
861.393	16.88
861.562	2.98
861.73	-59.91
861.899	-93.06
862.067	-1212.93
862.236	-63.45
862.404	-194.74
862.572	-100.95
862.741	-20.26
862.909	-24.07
863.078	-110.57
863.246	-61.99
863.414	-63.27
863.582	-43.24
863.751	-30.55
863.919	-13.84
864.087	-6.8
864.255	12.29
864.424	-207.07
864.592	30.74
864.76	18.18
864.928	239.4
865.096	61.86
865.264	97.64
865.432	-547.16
865.6	86.63
865.768	-24.5
865.936	-68.19
866.104	-91.7
866.272	-88.36
866.44	-170.37
866.608	318.34
866.776	121.19
866.944	1550.58
867.112	-285.06
867.28	-142.57
867.448	-35.93
867.615	4.01
867.783	32.15
867.951	9.38
868.119	21.96
868.286	12.4
868.454	-69.99
868.622	-63.19
868.789	45.96
868.957	1194.64
869.125	-1162.5
869.292	-70.95
869.46	-156.8
869.627	-6.61
869.795	-13.34
869.963	29.79
870.13	37.37
870.298	52.26
870.465	-10.49
870.632	-26.29
870.8	-28.78
870.967	-55.76
871.135	-115.52
871.302	-98.75
871.469	-129.59
871.637	-189.23
871.804	-104.83
871.971	-122.88
872.139	-421.74
872.306	-35.65
872.473	-35.83
872.64	-166.42
872.807	-33.36
872.975	35.56
873.142	-146.45
873.309	1437.16
873.476	36.24
873.643	131.47
873.81	71.97
873.977	122.88
874.144	76.26
874.311	-46.06
874.478	-100.81
874.645	-110.16
874.812	-49.12
874.979	-13.06
875.146	14.94
875.313	-10.73
875.48	65.8
875.647	0.59
875.813	-11.01
875.98	1.93
876.147	-19.17
876.314	-70.75
876.481	489.05
876.647	-445.79
876.814	286.4
876.981	94.33
877.147	13.3
877.314	7.58
877.481	13.11
877.647	41.35
877.814	2.3
877.98	-27.99
878.147	15.4
878.314	52.73
878.48	16.57
878.647	45.27
878.813	90.27
878.979	93.21
879.146	48.18
879.312	41.05
879.479	37.25
879.645	-116.33
879.811	-243.45
879.978	-456.3
880.144	-130.83
880.31	-61.9
880.477	-128.8
880.643	-169.28
880.809	-73.1
880.975	-66.17
881.142	-595.23
881.308	-69.87
881.474	-56.73
881.64	-35.68
881.806	-73.96
881.972	-5.39
882.138	22.25
882.304	111.31
882.47	-48.74
882.636	-295.7
882.802	-104.38
882.968	-40.18
883.134	-47.7
883.3	-56.04
883.466	-4.1
883.632	24.46
883.798	23.63
883.964	42.91
884.129	65.03
884.295	157.27
884.461	69.17
884.627	67.54
884.793	44.65
884.958	42.05
885.124	-66.01
885.29	-123.1
885.455	-221.72
885.621	-94.8
885.787	-145.18
885.952	-76.94
886.118	-82.18
886.283	-81.69
886.449	-176.57
886.614	-168.35
886.78	-339.52
886.945	1201.23
887.111	-560.55
887.276	-274.86
887.442	-614.32
887.607	-199.88
887.773	-134.95
887.938	-102.81
888.103	-177.63
888.269	-52.64
888.434	-81.49
888.599	-18.66
888.764	53.17
888.93	73.56
889.095	35.06
889.26	-8.4
889.425	27.21
889.59	54.06
889.756	1.47
889.921	28.62
890.086	77.18
890.251	57.01
890.416	-48.23
890.581	-320.56
890.746	28.12
890.911	107.48
891.076	62.17
891.241	19.59
891.406	56.08
891.571	-9.42
891.736	-175.11
891.901	-611.28
892.065	581.04
892.23	125.54
892.395	195.06
892.56	294.15
892.725	-209.18
892.889	-953.05
893.054	-227.37
893.219	-84.94
893.384	-38.36
893.548	-98.62
893.713	-108.55
893.878	-63.43
