Data from Ofra_1a_PS_6EV18_Reflection_2.txt Node
Date: Tue Jul 20 10:59:39 EDT 2021
User: Adam
Spectrometer: FLMT01687
Trigger mode: 0
Integration Time (sec): 1.004000E0
Scans to average: 2
Electric dark correction enabled: true
Nonlinearity correction enabled: false
Boxcar width: 2
XAxis mode: Wavelengths
Number of Pixels in Spectrum: 3648
>>>>>Begin Spectral Data<<<<<
179.494	-345.18
179.716	-473.28
179.937	960.54
180.158	-1057.32
180.38	122.42
180.601	24.89
180.823	-30.85
181.044	-135.32
181.265	-67.78
181.486	80.99
181.708	-7.4
181.929	10509.09
182.15	-213.82
182.372	250.25
182.593	194.99
182.814	127.67
183.035	72.96
183.257	78.64
183.478	23.85
183.699	-4.8
183.92	-65.16
184.141	-29.79
184.363	-20.09
184.584	2.86
184.805	52.19
185.026	66.03
185.247	30.38
185.468	11.53
185.689	0.16
185.91	-33.94
186.132	-17.84
186.353	14.8
186.574	25.58
186.795	36.84
187.016	43.12
187.237	36.06
187.458	25.39
187.679	11.92
187.9	34.74
188.121	24.03
188.342	20.98
188.563	11.98
188.784	33.04
189.005	3.61
189.226	17.38
189.447	20.34
189.667	11.91
189.888	4.01
190.109	-25.54
190.33	-30.66
190.551	-47.07
190.772	-54.48
190.993	-92.03
191.214	-91.91
191.434	-133.28
191.655	-144.72
191.876	-66.79
192.097	-36.11
192.318	-12.91
192.538	-41.23
192.759	-15.19
192.98	-14.41
193.201	-8.86
193.421	-4.92
193.642	3.16
193.863	0.68
194.083	-11.86
194.304	-16.03
194.525	-19.57
194.745	-9.59
194.966	-16.03
195.187	-0.72
195.407	-3.21
195.628	7.63
195.848	10.33
196.069	2.12
196.29	-5.99
196.51	-25.08
196.731	-31.84
196.951	-32.87
197.172	-19.04
197.392	-40.54
197.613	-2.06
197.833	-7.81
198.054	-12.55
198.274	-14.67
198.495	0.58
198.715	-19.73
198.936	-6.31
199.156	-8.84
199.377	-6.48
199.597	-3.45
199.817	3.1
200.038	2.19
200.258	18.09
200.479	20.99
200.699	26.17
200.919	3.19
201.14	-2.65
201.36	-7.55
201.58	-23.53
201.801	-47.11
202.021	-33.75
202.241	-25.98
202.461	-41.99
202.682	-51.63
202.902	-34.03
203.122	-33.61
203.342	-36.68
203.563	-33.06
203.783	-33.92
204.003	-28.74
204.223	-15.95
204.443	1.59
204.663	-4.18
204.884	30.78
205.104	24.39
205.324	42.5
205.544	-41.49
205.764	19.96
205.984	9.42
206.204	15.08
206.424	-19.98
206.644	-0.37
206.864	-46.58
207.084	-20.07
207.304	-36.54
207.525	-34.95
207.745	-24.15
207.964	-21.9
208.184	-24.88
208.404	-6.82
208.624	26.76
208.844	13.83
209.064	6.47
209.284	3.16
209.504	-24.49
209.724	-38.33
209.944	-40.11
210.164	-31.21
210.384	-60.71
210.604	-87.99
210.823	-101.26
211.043	-68.84
211.263	-150.36
211.483	-76.44
211.703	-36.65
211.922	-33.77
212.142	-8.41
212.362	24.91
212.582	16.96
212.801	11.24
213.021	-23
213.241	-37.94
213.461	-52.17
213.68	-42.15
213.9	-30.85
214.12	-8.67
214.339	-5.88
214.559	-4.4
214.779	5.61
214.998	0.67
215.218	-9.45
215.438	4.2
215.657	0.79
215.877	-11.18
216.096	11.54
216.316	18.79
216.535	7.2
216.755	13.76
216.974	12.48
217.194	-19.55
217.413	-24.36
217.633	-26.81
217.852	-29.85
218.072	-7.11
218.291	-11.91
218.511	-20.64
218.73	-32.12
218.95	-60.37
219.169	-89.63
219.389	-49.57
219.608	-41.18
219.827	-7.6
220.047	22.58
220.266	20.92
220.485	2.96
220.705	21.82
220.924	8.3
221.143	18.13
221.363	16.99
221.582	22.98
221.801	18.77
222.021	23.71
222.24	6.15
222.459	16.59
222.678	19.71
222.897	2.86
223.117	-3.59
223.336	21
223.555	31.14
223.774	42.09
223.993	63.14
224.213	70.06
224.432	44.96
224.651	13.74
224.87	-0.61
225.089	2.32
225.308	-3.49
225.527	-25.73
225.746	-12.76
225.965	-9.68
226.184	-31.71
226.404	-30.53
226.623	-2.42
226.842	0.1
227.061	5.22
227.28	15.98
227.499	16.21
227.718	9.63
227.936	13.03
228.155	11.93
228.374	12.43
228.593	34.74
228.812	37.97
229.031	38.18
229.25	27.82
229.469	24.93
229.688	10.57
229.907	9.43
230.125	4.12
230.344	14.3
230.563	24.24
230.782	29.55
231.001	28.64
231.22	33.45
231.438	34.88
231.657	32.22
231.876	27.01
232.095	35.23
232.313	16.51
232.532	20.41
232.751	2.44
232.969	10.26
233.188	-12.08
233.407	11.17
233.625	0.29
233.844	1.79
234.063	-15.85
234.281	-9.53
234.5	-18.05
234.719	-15.55
234.937	-12.08
235.156	-0.51
235.374	14.74
235.593	26.09
235.811	42.67
236.03	40.54
236.249	39.5
236.467	39.72
236.686	30.02
236.904	26.64
237.123	14.21
237.341	14.95
237.559	7.61
237.778	30.29
237.996	11.56
238.215	-29.75
238.433	-102
238.652	-31.86
238.87	-44.66
239.088	-34.03
239.307	-4.31
239.525	-0.9
239.743	-18.16
239.962	-44.55
240.18	-23.64
240.398	-36.85
240.617	-35.9
240.835	-32.56
241.053	0.96
241.271	-1.1
241.49	23.55
241.708	14.54
241.926	17.1
242.144	15.58
242.363	-6.94
242.581	-33.79
242.799	2
243.017	-5.99
243.235	-11.89
243.453	-20.73
243.672	-14.33
243.89	-18.6
244.108	-4.86
244.326	12.68
244.544	29.31
244.762	15.91
244.98	30.62
245.198	32.08
245.416	28.78
245.634	20.07
245.852	9.78
246.07	5.51
246.288	2.58
246.506	-15.46
246.724	-15.61
246.942	17.5
247.16	21.99
247.378	16.66
247.596	72.9
247.814	53.6
248.032	12.72
248.25	18.07
248.468	20.65
248.685	3.88
248.903	12.62
249.121	14.96
249.339	5.24
249.557	8.78
249.775	24.05
249.992	24.8
250.21	22.5
250.428	32.24
250.646	24.49
250.863	-4.34
251.081	-3.67
251.299	-5.03
251.517	-18.8
251.734	-8.61
251.952	1.04
252.17	-0.41
252.387	-10.8
252.605	-7.12
252.823	-6.34
253.04	25.53
253.258	34.76
253.475	36.35
253.693	18.33
253.911	7.03
254.128	-22.73
254.346	-11.45
254.563	-0.87
254.781	7.89
254.998	-1.08
255.216	-1.39
255.433	-37.15
255.651	-35.67
255.868	-39.68
256.086	-14.29
256.303	2.1
256.521	9.86
256.738	-3.7
256.956	9.49
257.173	-2.82
257.39	-2.13
257.608	4.79
257.825	13.11
258.043	15.74
258.26	9.56
258.477	11.93
258.695	-2.46
258.912	-6.92
259.129	-27.41
259.346	-42.02
259.564	-53.36
259.781	-39.17
259.998	-6.89
260.216	9.16
260.433	10.05
260.65	15.73
260.867	15.36
261.084	-11.72
261.302	-29.54
261.519	-11.51
261.736	-28.2
261.953	-33.95
262.17	-1.06
262.387	3.33
262.604	-0.19
262.822	12.12
263.039	23.1
263.256	8.27
263.473	15.32
263.69	18.56
263.907	9.08
264.124	15.13
264.341	25.02
264.558	13.5
264.775	-3.29
264.992	16.11
265.209	-17.46
265.426	-27.36
265.643	-31.84
265.86	-5.4
266.077	-13.15
266.294	23.39
266.51	33.27
266.727	41.17
266.944	29.52
267.161	25.47
267.378	22.77
267.595	-2.12
267.812	-13.39
268.028	-12.78
268.245	-4.44
268.462	1.7
268.679	14.19
268.896	30.45
269.112	3.05
269.329	-29.41
269.546	-10.99
269.763	-7.71
269.979	-12.68
270.196	15.67
270.413	25.96
270.629	-10.33
270.846	-18.76
271.063	-13.49
271.279	-28.79
271.496	-31.15
271.712	-11.46
271.929	8.09
272.146	0.13
272.362	10.2
272.579	-0.38
272.795	-1.61
273.012	1.46
273.228	8.04
273.445	-1.84
273.661	6.93
273.878	-7.98
274.094	-32.78
274.311	-37.26
274.527	-61.67
274.744	-35.55
274.96	-14.01
275.177	-7.38
275.393	11.17
275.609	29.25
275.826	14.89
276.042	6.05
276.259	3.37
276.475	-16.61
276.691	-24.88
276.908	-13.61
277.124	5.67
277.34	4.76
277.557	1.15
277.773	10.7
277.989	-8.64
278.205	-9.34
278.422	-2.88
278.638	-0.23
278.854	-12.23
279.07	-0.2
279.286	-15.24
279.503	-12.06
279.719	1.34
279.935	4.14
280.151	4.21
280.367	13.95
280.583	12.15
280.799	-8.08
281.016	-34.4
281.232	-38.18
281.448	-41.78
281.664	-27.08
281.88	-5.58
282.096	11.42
282.312	23.9
282.528	26.74
282.744	28.12
282.96	13.06
283.176	-17.05
283.392	-70.74
283.608	-65.61
283.824	-85.27
284.04	-135.2
284.256	-50.42
284.471	-18.63
284.687	-18.72
284.903	-12.33
285.119	14.66
285.335	10.23
285.551	-4.94
285.767	-8.44
285.982	-11.26
286.198	-42.9
286.414	-49.6
286.63	-41.36
286.846	-46.2
287.061	-25.74
287.277	-13.15
287.493	-13.17
287.709	4.94
287.924	16.73
288.14	27.32
288.356	41.4
288.571	56.03
288.787	43.24
289.003	57.79
289.218	29.14
289.434	13.89
289.65	17.06
289.865	12.29
290.081	7.09
290.296	21.38
290.512	7.93
290.727	-5.76
290.943	7.8
291.159	9.65
291.374	-6.4
291.59	7.01
291.805	2.08
292.021	2.17
292.236	-9.69
292.451	-10.7
292.667	1.35
292.882	19
293.098	8.05
293.313	4.39
293.529	12.17
293.744	-13.3
293.959	-32.54
294.175	-15.77
294.39	-10.68
294.605	11.06
294.821	11.22
295.036	14.06
295.251	14.64
295.467	2.92
295.682	-11.91
295.897	-8.82
296.112	-4.42
296.328	-1.45
296.543	9.29
296.758	23.69
296.973	27.85
297.188	20.45
297.404	2.75
297.619	-25.18
297.834	-69.4
298.049	-91.37
298.264	-71.5
298.479	-63.82
298.694	-17.09
298.909	2.96
299.125	16.35
299.34	20.28
299.555	18.9
299.77	31.02
299.985	11.6
300.2	10.08
300.415	12.87
300.63	19.16
300.845	-4.26
301.06	12.98
301.275	4.94
301.49	-0.85
301.704	-6.08
301.919	-11.46
302.134	-21.18
302.349	-2.05
302.564	1.39
302.779	-0.83
302.994	22
303.209	22.45
303.423	22.01
303.638	16.16
303.853	5.01
304.068	-16.21
304.283	-15
304.497	-32.99
304.712	-15.24
304.927	-3.93
305.142	8.77
305.356	16.2
305.571	14.44
305.786	4.8
306	12.64
306.215	-7.49
306.43	-19.18
306.644	-17.19
306.859	-14.87
307.074	-3.66
307.288	9.85
307.503	33.28
307.717	22.35
307.932	30.59
308.147	14.6
308.361	18.89
308.576	-3.33
308.79	-2.65
309.005	-24.16
309.219	-12.81
309.434	-14.51
309.648	-14.6
309.863	-6.77
310.077	15.27
310.292	12.17
310.506	1.33
310.72	14.53
310.935	20.04
311.149	10.19
311.364	16
311.578	24.73
311.792	12.99
312.007	10.55
312.221	-16.49
312.435	9.76
312.649	11.22
312.864	15.21
313.078	15.06
313.292	25.51
313.507	27.68
313.721	28.19
313.935	27.39
314.149	23.36
314.363	31.14
314.578	3.92
314.792	-33.33
315.006	-53.97
315.22	-43.36
315.434	-36.53
315.648	-26.85
315.862	-6.84
316.077	17.18
316.291	11.56
316.505	-12.32
316.719	-20.53
316.933	-27.99
317.147	-24.59
317.361	-10.61
317.575	-14.04
317.789	-4.97
318.003	-0.99
318.217	-1.75
318.431	-13.04
318.645	0.93
318.859	10.79
319.073	9.48
319.287	3.89
319.5	3.13
319.714	-3.22
319.928	-14.43
320.142	-8.92
320.356	3.72
320.57	-18.2
320.784	0.78
320.997	-3.87
321.211	0.12
321.425	-33.4
321.639	-3.66
321.853	4.15
322.066	2.38
322.28	-6.2
322.494	17.71
322.707	21.56
322.921	1.64
323.135	4.83
323.349	14.58
323.562	2.75
323.776	-1.31
323.989	24.92
324.203	18.67
324.417	17.87
324.63	13.67
324.844	5.22
325.057	-42.21
325.271	-34.33
325.485	-43.61
325.698	-10.45
325.912	12.45
326.125	24.07
326.339	33.81
326.552	32.46
326.766	10.11
326.979	-6.87
327.193	-1.52
327.406	-13.29
327.619	-8.13
327.833	-0.72
328.046	1.99
328.26	-1.88
328.473	11.52
328.686	8.57
328.9	17.32
329.113	16.54
329.326	16.49
329.54	6.4
329.753	13.37
329.966	14.19
330.179	20.9
330.393	25.75
330.606	20.29
330.819	6.96
331.032	-0.36
331.246	9.07
331.459	19.25
331.672	24.86
331.885	25.2
332.098	19.37
332.311	-11.63
332.525	-15.21
332.738	-2.73
332.951	-5.78
333.164	1.21
333.377	18.48
333.59	11.95
333.803	4.35
334.016	10.82
334.229	0.42
334.442	-6.72
334.655	0.55
334.868	2.94
335.081	-6.92
335.294	-13.69
335.507	-4.64
335.72	-3.24
335.933	-20.7
336.146	-13.07
336.359	12.56
336.572	13.35
336.785	8.03
336.997	23.64
337.21	24.16
337.423	1.47
337.636	-13.18
337.849	-8.11
338.062	-7.55
338.274	-2.34
338.487	-14.7
338.7	-27.93
338.913	-22.01
339.125	-28.74
339.338	-44.55
339.551	-15.46
339.763	-3.68
339.976	-4.45
340.189	-8.85
340.402	14.1
340.614	10.08
340.827	27.23
341.039	42.07
341.252	37.94
341.465	33.02
341.677	32.94
341.89	8.32
342.102	-2.4
342.315	-4.23
342.527	-0.05
342.74	-14.2
342.952	-2
343.165	-2.98
343.377	13.43
343.59	2.04
343.802	-10.4
344.015	-2.48
344.227	2.74
344.44	-17.95
344.652	-21.76
344.864	-2.85
345.077	1.63
345.289	-3.66
345.502	20.76
345.714	25.66
345.926	28.38
346.139	-5.02
346.351	-3.08
346.563	-16.85
346.775	3.61
346.988	8.3
347.2	17.95
347.412	24.62
347.624	27.56
347.837	10.44
348.049	7.56
348.261	5.39
348.473	-5.6
348.685	-11.36
348.897	-16.18
349.11	-6.58
349.322	-6.68
349.534	-13.5
349.746	-15.55
349.958	-7.7
350.17	-35.75
350.382	-12.29
350.594	2.83
350.806	9.41
351.018	17.34
351.23	31.73
351.442	28.7
351.654	25.5
351.866	18.89
352.078	20.61
352.29	8.38
352.502	-7.52
352.714	-0.06
352.926	-1.36
353.138	-1.11
353.35	-0.46
353.561	11.33
353.773	-0.16
353.985	6.04
354.197	2.55
354.409	-1.13
354.621	-12.49
354.832	-18.26
355.044	-28.48
355.256	-48.13
355.468	-54.79
355.679	-28.76
355.891	-13.17
356.103	-17.22
356.314	-14.74
356.526	-21.04
356.738	-32.98
356.949	-47.78
357.161	-31.38
357.373	-16.8
357.584	-3.51
357.796	11.99
358.008	22.18
358.219	19.16
358.431	17.96
358.642	29.92
358.854	17.04
359.065	-4.11
359.277	-1.6
359.488	-7.56
359.7	-16.35
359.911	-31.38
360.123	-9.9
360.334	-20.81
360.546	-22.63
360.757	-21.31
360.969	-1.68
361.18	-13.66
361.391	-3.42
361.603	-6.15
361.814	-5.02
362.025	-1.98
362.237	1.43
362.448	5.02
362.659	5.12
362.871	-7.21
363.082	-16.66
363.293	-21.36
363.504	-47.07
363.716	-38.14
363.927	-10.43
364.138	-34.77
364.349	-32.45
364.56	-41.92
364.772	-33.92
364.983	-27.25
365.194	-5.45
365.405	-1.95
365.616	7.7
365.827	9.2
366.038	0.88
366.25	5.73
366.461	1.6
366.672	11.74
366.883	3.5
367.094	-1.98
367.305	-14.05
367.516	-3.08
367.727	-21.64
367.938	-25.41
368.149	-36.4
368.36	-35.28
368.571	-62.09
368.781	-41.3
368.992	-47.4
369.203	-37.89
369.414	-50.2
369.625	-36.63
369.836	-20.47
370.047	-13.99
370.258	-4.48
370.468	-4.88
370.679	-14.39
370.89	-36.08
371.101	-15.01
371.312	-24.79
371.522	-11.58
371.733	-8.26
371.944	-15.82
372.155	-29.64
372.365	-27.67
372.576	-36.65
372.787	-25.12
372.997	-29.25
373.208	-17.24
373.419	-22.04
373.629	-23.01
373.84	-39.18
374.05	-20.96
374.261	-31.98
374.472	-20.44
374.682	-1.87
374.893	-2.73
375.103	9.36
375.314	8.94
375.524	5.03
375.735	1.32
375.945	13.21
376.156	1.46
376.366	1.06
376.577	5.16
376.787	8.84
376.997	9.81
377.208	11.52
377.418	6.39
377.629	1.6
377.839	-2.39
378.049	3.83
378.26	-10.17
378.47	-6.95
378.68	-4.93
378.89	-1.14
379.101	-3.05
379.311	9.13
379.521	9.24
379.732	21.01
379.942	10.48
380.152	1.6
380.362	4.23
380.572	11.27
380.783	17.77
380.993	18.41
381.203	18.21
381.413	17.87
381.623	14.09
381.833	2.59
382.043	3.34
382.253	-1.25
382.463	6.98
382.674	6.67
382.884	16.76
383.094	17.76
383.304	24
383.514	7.68
383.724	4.18
383.934	-10.99
384.144	-10.69
384.353	-7.76
384.563	-1.83
384.773	5.18
384.983	10.48
385.193	11.61
385.403	2.85
385.613	5.08
385.823	-3.79
386.033	-2.3
386.242	-5.6
386.452	-4.73
386.662	-6.15
386.872	-0.23
387.082	0.64
387.291	-3.78
387.501	0.04
387.711	1.06
387.921	0.38
388.13	-1.1
388.34	5.18
388.55	0.19
388.759	-6.05
388.969	-8.24
389.179	-5.26
389.388	-7.81
389.598	-7.75
389.807	-6.37
390.017	-7.04
390.227	-10.6
390.436	-4.6
390.646	-3.3
390.855	-0.7
391.065	2.7
391.274	3.16
391.484	-1.09
391.693	-0.13
391.903	-1.55
392.112	-0.6
392.322	0.51
392.531	0.52
392.74	1.07
392.95	2.71
393.159	0.62
393.369	-0.05
393.578	1.25
393.787	-0.77
393.997	-1.45
394.206	-2.18
394.415	-1
394.625	-1.16
394.834	-1.36
395.043	-0.84
395.252	1.75
395.462	1.5
395.671	1.15
395.88	2.81
396.089	2.5
396.298	1.36
396.508	1.83
396.717	1.75
396.926	1.28
397.135	1.09
397.344	0.87
397.553	0.49
397.762	1.77
397.971	2.05
398.181	2.28
398.39	2.36
398.599	2.63
398.808	1.75
399.017	2.21
399.226	2.28
399.435	1.7
399.644	1.78
399.853	2.1
400.062	1.49
400.27	0.99
400.479	1.66
400.688	1.5
400.897	1.14
401.106	1.37
401.315	1.75
401.524	1.62
401.733	1.33
401.941	1.94
402.15	1.75
402.359	1.95
402.568	1.98
402.777	2.41
402.985	1.92
403.194	2.02
403.403	2.05
403.612	1.95
403.82	1.48
404.029	1.68
404.238	1.73
404.446	1.87
404.655	1.94
404.864	2.33
405.072	2.35
405.281	2.45
405.489	2.13
405.698	2.09
405.906	1.89
406.115	1.8
406.324	1.71
406.532	1.84
406.741	2.1
406.949	2.16
407.158	2.24
407.366	2.12
407.574	2.04
407.783	1.82
407.991	1.85
408.2	1.94
408.408	1.94
408.617	1.89
408.825	1.68
409.033	1.68
409.242	1.63
409.45	1.8
409.658	1.77
409.867	1.87
410.075	1.84
410.283	1.76
410.491	1.54
410.7	1.55
410.908	1.72
411.116	1.74
411.324	1.74
411.533	1.71
411.741	1.77
411.949	1.75
412.157	1.76
412.365	1.77
412.573	1.85
412.781	1.67
412.99	1.64
413.198	1.64
413.406	1.7
413.614	1.88
413.822	2.08
414.03	2.04
414.238	2.04
414.446	2.01
414.654	1.85
414.862	1.82
415.07	1.7
415.278	1.84
415.486	1.65
415.694	1.66
415.902	1.63
416.109	1.66
416.317	1.52
416.525	1.55
416.733	1.63
416.941	1.75
417.149	1.76
417.357	1.84
417.564	1.85
417.772	1.78
417.98	1.76
418.188	1.74
418.395	1.47
418.603	1.45
418.811	1.34
419.019	1.35
419.226	1.42
419.434	1.64
419.642	1.61
419.849	1.6
420.057	1.34
420.265	1.25
420.472	1.27
420.68	1.31
420.887	1.41
421.095	1.59
421.302	1.69
421.51	1.44
421.717	1.52
421.925	1.5
422.132	1.54
422.34	1.31
422.547	1.26
422.755	1.25
422.962	1.4
423.17	1.25
423.377	1.28
423.585	1.5
423.792	1.43
423.999	1.39
424.207	1.47
424.414	1.62
424.621	1.56
424.829	1.59
425.036	1.49
425.243	1.53
425.451	1.54
425.658	1.61
425.865	1.71
426.072	1.72
426.28	1.71
426.487	1.68
426.694	1.68
426.901	1.58
427.108	1.52
427.315	1.5
427.523	1.42
427.73	1.42
427.937	1.34
428.144	1.29
428.351	1.15
428.558	1.27
428.765	1.11
428.972	1.24
429.179	1.11
429.386	1.25
429.593	1.27
429.8	1.39
430.007	1.38
430.214	1.5
430.421	1.54
430.628	1.5
430.835	1.43
431.042	1.28
431.249	1.25
431.456	1.25
431.662	1.33
431.869	1.49
432.076	1.56
432.283	1.75
432.49	1.69
432.697	1.58
432.903	1.53
433.11	1.63
433.317	1.63
433.524	1.63
433.73	1.68
433.937	1.74
434.144	1.57
434.35	1.38
434.557	1.59
434.764	1.64
434.97	1.5
435.177	1.69
435.384	1.87
435.59	1.66
435.797	1.7
436.003	1.78
436.21	1.69
436.416	1.68
436.623	1.78
436.829	1.7
437.036	1.71
437.242	1.84
437.449	1.68
437.655	1.76
437.862	1.87
438.068	1.85
438.275	1.93
438.481	1.97
438.687	1.81
438.894	1.87
439.1	1.86
439.307	1.77
439.513	1.85
439.719	1.96
439.926	1.97
440.132	2.04
440.338	1.95
440.544	1.98
440.751	1.91
440.957	1.86
441.163	1.73
441.369	1.83
441.575	1.71
441.782	1.83
441.988	1.79
442.194	1.89
442.4	1.9
442.606	2.08
442.812	2.03
443.018	2
443.224	2.06
443.431	2.01
443.637	1.89
443.843	1.84
444.049	2
444.255	1.96
444.461	1.93
444.667	1.93
444.873	1.96
445.079	1.83
445.284	1.84
445.49	1.84
445.696	1.84
445.902	1.81
446.108	1.86
446.314	1.84
446.52	2
446.726	2.08
446.931	2.09
447.137	2.14
447.343	2.24
447.549	2.22
447.755	2.26
447.96	2.26
448.166	2.3
448.372	2.21
448.578	2.07
448.783	2.04
448.989	2.13
449.195	2.03
449.4	2.09
449.606	2.17
449.812	2.16
450.017	2.19
450.223	2.17
450.428	2.11
450.634	2.09
450.84	2.09
451.045	2.02
451.251	2.09
451.456	2.16
451.662	2.2
451.867	2.26
452.073	2.31
452.278	2.28
452.483	2.33
452.689	2.31
452.894	2.29
453.1	2.21
453.305	2.18
453.51	2.19
453.716	2.21
453.921	2.19
454.127	2.19
454.332	2.23
454.537	2.12
454.742	2.09
454.948	2.13
455.153	2.13
455.358	2.12
455.563	2.21
455.769	2.23
455.974	2.19
456.179	2.2
456.384	2.12
456.589	2
456.795	1.97
457	1.96
457.205	1.9
457.41	1.88
457.615	1.85
457.82	1.91
458.025	1.9
458.23	1.96
458.435	2.09
458.64	2.15
458.845	2.13
459.05	2.24
459.255	2.21
459.46	2.17
459.665	2.17
459.87	2.18
460.075	2.12
460.28	2.23
460.485	2.33
460.69	2.37
460.895	2.45
461.099	2.34
461.304	2.24
461.509	2.19
461.714	2.24
461.919	2.14
462.123	2.26
462.328	2.21
462.533	2.14
462.738	2.06
462.942	2.03
463.147	2.07
463.352	2.18
463.556	2.28
463.761	2.29
463.966	2.28
464.17	2.28
464.375	2.35
464.58	2.24
464.784	2.25
464.989	2.29
465.193	2.24
465.398	2.2
465.602	2.36
465.807	2.35
466.011	2.37
466.216	2.31
466.42	2.37
466.625	2.42
466.829	2.46
467.034	2.55
467.238	2.69
467.443	2.63
467.647	2.57
467.851	2.6
468.056	2.52
468.26	2.51
468.464	2.59
468.669	2.58
468.873	2.54
469.077	2.52
469.282	2.48
469.486	2.45
469.69	2.42
469.894	2.45
470.099	2.48
470.303	2.49
470.507	2.47
470.711	2.53
470.915	2.51
471.119	2.55
471.324	2.54
471.528	2.61
471.732	2.58
471.936	2.68
472.14	2.68
472.344	2.81
472.548	2.87
472.752	2.9
472.956	2.88
473.16	2.9
473.364	2.8
473.568	2.68
473.772	2.65
473.976	2.7
474.18	2.7
474.384	2.67
474.588	2.72
474.792	2.71
474.995	2.69
475.199	2.67
475.403	2.72
475.607	2.74
475.811	2.8
476.015	2.73
476.218	2.77
476.422	2.77
476.626	2.78
476.83	2.86
477.033	2.96
477.237	2.93
477.441	2.9
477.644	2.89
477.848	2.84
478.052	2.8
478.255	2.85
478.459	2.86
478.663	2.95
478.866	3
479.07	2.95
479.273	2.98
479.477	2.98
479.681	2.99
479.884	3
480.088	3.09
480.291	3.08
480.495	3.17
480.698	3.18
480.901	3.11
481.105	3.12
481.308	3.12
481.512	3.12
481.715	3.14
481.919	3.22
482.122	3.21
482.325	3.28
482.529	3.24
482.732	3.19
482.935	3.16
483.138	3.13
483.342	3.08
483.545	3.12
483.748	3.2
483.952	3.22
484.155	3.3
484.358	3.29
484.561	3.25
484.764	3.18
484.967	3.18
485.171	3.19
485.374	3.2
485.577	3.23
485.78	3.27
485.983	3.2
486.186	3.2
486.389	3.24
486.592	3.19
486.795	3.23
486.998	3.23
487.201	3.21
487.404	3.28
487.607	3.39
487.81	3.35
488.013	3.42
488.216	3.41
488.419	3.31
488.622	3.2
488.825	3.22
489.028	3.23
489.231	3.2
489.433	3.26
489.636	3.38
489.839	3.4
490.042	3.41
490.245	3.44
490.447	3.36
490.65	3.28
490.853	3.29
491.056	3.31
491.258	3.32
491.461	3.35
491.664	3.38
491.866	3.34
492.069	3.37
492.272	3.29
492.474	3.37
492.677	3.4
492.879	3.42
493.082	3.43
493.285	3.55
493.487	3.56
493.69	3.53
493.892	3.59
494.095	3.57
494.297	3.57
494.5	3.53
494.702	3.58
494.905	3.6
495.107	3.57
495.309	3.6
495.512	3.64
495.714	3.71
495.917	3.73
496.119	3.79
496.321	3.79
496.524	3.73
496.726	3.68
496.928	3.63
497.13	3.66
497.333	3.66
497.535	3.77
497.737	3.82
497.939	3.83
498.142	3.84
498.344	3.94
498.546	3.91
498.748	3.97
498.95	4.04
499.152	4.07
499.355	3.98
499.557	4.03
499.759	4.03
499.961	4.01
500.163	3.98
500.365	4.07
500.567	4.05
500.769	4.05
500.971	4.12
501.173	4.1
501.375	4.14
501.577	4.16
501.779	4.13
501.981	4.1
502.183	4.19
502.385	4.18
502.587	4.24
502.788	4.32
502.99	4.35
503.192	4.37
503.394	4.36
503.596	4.29
503.798	4.22
503.999	4.25
504.201	4.25
504.403	4.3
504.605	4.42
504.806	4.52
505.008	4.56
505.21	4.59
505.411	4.63
505.613	4.59
505.815	4.6
506.016	4.65
506.218	4.63
506.42	4.62
506.621	4.7
506.823	4.74
507.024	4.7
507.226	4.75
507.427	4.79
507.629	4.85
507.83	4.86
508.032	4.86
508.233	4.91
508.435	4.93
508.636	4.93
508.838	4.91
509.039	4.95
509.24	4.98
509.442	5.02
509.643	5.04
509.845	5.11
510.046	5.22
510.247	5.23
510.448	5.26
510.65	5.25
510.851	5.33
511.052	5.23
511.254	5.27
511.455	5.29
511.656	5.32
511.857	5.26
512.058	5.32
512.26	5.26
512.461	5.31
512.662	5.28
512.863	5.21
513.064	5.2
513.265	5.22
513.466	5.2
513.667	5.24
513.868	5.31
514.069	5.35
514.27	5.37
514.471	5.29
514.672	5.35
514.873	5.31
515.074	5.31
515.275	5.3
515.476	5.37
515.677	5.36
515.878	5.47
516.079	5.47
516.28	5.52
516.481	5.53
516.682	5.51
516.882	5.5
517.083	5.46
517.284	5.49
517.485	5.46
517.686	5.46
517.886	5.42
518.087	5.4
518.288	5.32
518.488	5.34
518.689	5.29
518.89	5.26
519.091	5.34
519.291	5.38
519.492	5.37
519.692	5.42
519.893	5.44
520.094	5.43
520.294	5.43
520.495	5.44
520.695	5.44
520.896	5.46
521.096	5.52
521.297	5.53
521.497	5.5
521.698	5.52
521.898	5.51
522.099	5.5
522.299	5.48
522.499	5.49
522.7	5.46
522.9	5.47
523.101	5.37
523.301	5.39
523.501	5.4
523.702	5.43
523.902	5.45
524.102	5.58
524.302	5.59
524.503	5.59
524.703	5.53
524.903	5.49
525.103	5.39
525.304	5.4
525.504	5.45
525.704	5.5
525.904	5.53
526.104	5.55
526.304	5.58
526.504	5.56
526.705	5.52
526.905	5.55
527.105	5.56
527.305	5.54
527.505	5.51
527.705	5.51
527.905	5.53
528.105	5.59
528.305	5.56
528.505	5.57
528.705	5.68
528.905	5.63
529.105	5.62
529.304	5.67
529.504	5.77
529.704	5.7
529.904	5.74
530.104	5.73
530.304	5.69
530.503	5.67
530.703	5.63
530.903	5.64
531.103	5.72
531.303	5.79
531.502	5.84
531.702	5.92
531.902	5.99
532.101	5.91
532.301	5.89
532.501	5.94
532.7	5.92
532.9	5.93
533.1	5.95
533.299	6.01
533.499	5.92
533.698	5.9
533.898	5.9
534.097	5.92
534.297	5.89
534.496	5.94
534.696	6
534.895	6.01
535.095	5.98
535.294	5.97
535.494	5.94
535.693	5.93
535.892	5.94
536.092	6.03
536.291	6.05
536.491	6.09
536.69	6.06
536.889	6.02
537.088	6.01
537.288	6
537.487	6.01
537.686	6.05
537.886	6.1
538.085	6.09
538.284	6.18
538.483	6.23
538.682	6.29
538.882	6.29
539.081	6.33
539.28	6.31
539.479	6.27
539.678	6.31
539.877	6.35
540.076	6.32
540.275	6.36
540.474	6.38
540.673	6.38
540.872	6.38
541.071	6.44
541.27	6.45
541.469	6.5
541.668	6.53
541.867	6.62
542.066	6.63
542.265	6.69
542.464	6.68
542.663	6.72
542.862	6.71
543.06	6.79
543.259	6.84
543.458	6.93
543.657	6.95
543.856	7.02
544.054	7
544.253	6.97
544.452	7
544.651	7.06
544.849	7.07
545.048	7.17
545.247	7.26
545.445	7.24
545.644	7.21
545.843	7.25
546.041	7.23
546.24	7.25
546.438	7.3
546.637	7.36
546.836	7.37
547.034	7.43
547.233	7.53
547.431	7.63
547.63	7.62
547.828	7.7
548.027	7.73
548.225	7.67
548.423	7.66
548.622	7.76
548.82	7.79
549.019	7.81
549.217	7.9
549.415	7.91
549.614	8.03
549.812	8.06
550.01	8.09
550.209	8.11
550.407	8.21
550.605	8.14
550.803	8.16
551.002	8.3
551.2	8.4
551.398	8.5
551.596	8.59
551.794	8.7
551.993	8.72
552.191	8.76
552.389	8.78
552.587	8.86
552.785	8.84
552.983	8.94
553.181	9.01
553.379	9.08
553.577	9.09
553.775	9.27
553.973	9.38
554.171	9.46
554.369	9.53
554.567	9.65
554.765	9.67
554.963	9.65
555.161	9.67
555.359	9.75
555.557	9.81
555.755	9.92
555.952	10.06
556.15	10.19
556.348	10.23
556.546	10.35
556.744	10.37
556.941	10.39
557.139	10.51
557.337	10.67
557.535	10.65
557.732	10.7
557.93	10.81
558.128	10.8
558.325	10.83
558.523	10.97
558.721	11.09
558.918	11.17
559.116	11.38
559.313	11.47
559.511	11.63
559.708	11.74
559.906	11.81
560.104	11.8
560.301	11.95
560.498	11.99
560.696	12.04
560.893	12.23
561.091	12.42
561.288	12.54
561.486	12.59
561.683	12.72
561.88	12.77
562.078	12.81
562.275	12.84
562.473	12.92
562.67	13.04
562.867	13.1
563.064	13.18
563.262	13.24
563.459	13.41
563.656	13.49
563.853	13.54
564.051	13.7
564.248	13.83
564.445	13.89
564.642	13.94
564.839	14.13
565.036	14.18
565.234	14.31
565.431	14.43
565.628	14.6
565.825	14.68
566.022	14.77
566.219	14.84
566.416	14.9
566.613	14.97
566.81	15.03
567.007	15.09
567.204	15.11
567.401	15.22
567.598	15.26
567.795	15.34
567.991	15.46
568.188	15.61
568.385	15.62
568.582	15.77
568.779	15.83
568.976	15.86
569.172	15.94
569.369	16.06
569.566	16.07
569.763	16.1
569.96	16.18
570.156	16.22
570.353	16.22
570.55	16.33
570.746	16.45
570.943	16.49
571.14	16.5
571.336	16.59
571.533	16.63
571.729	16.71
571.926	16.75
572.123	16.8
572.319	16.83
572.516	16.89
572.712	16.87
572.909	16.87
573.105	16.99
573.302	17.03
573.498	16.97
573.695	17.03
573.891	17
574.087	16.94
574.284	16.99
574.48	17.13
574.677	17.19
574.873	17.31
575.069	17.41
575.266	17.44
575.462	17.44
575.658	17.5
575.854	17.55
576.051	17.5
576.247	17.49
576.443	17.48
576.639	17.44
576.835	17.38
577.032	17.34
577.228	17.31
577.424	17.29
577.62	17.24
577.816	17.21
578.012	17.32
578.208	17.35
578.404	17.33
578.6	17.45
578.796	17.56
578.993	17.52
579.189	17.59
579.384	17.63
579.58	17.64
579.776	17.6
579.972	17.64
580.168	17.63
580.364	17.64
580.56	17.5
580.756	17.47
580.952	17.42
581.148	17.45
581.343	17.39
581.539	17.42
581.735	17.44
581.931	17.44
582.127	17.34
582.322	17.38
582.518	17.4
582.714	17.34
582.909	17.35
583.105	17.33
583.301	17.42
583.496	17.37
583.692	17.29
583.888	17.29
584.083	17.29
584.279	17.15
584.474	17.19
584.67	17.26
584.866	17.23
585.061	17.3
585.257	17.38
585.452	17.29
585.648	17.22
585.843	17.24
586.039	17.17
586.234	17.15
586.429	17.16
586.625	17.28
586.82	17.28
587.015	17.26
587.211	17.2
587.406	17.23
587.601	17.21
587.797	17.19
587.992	17.18
588.187	17.22
588.383	17.29
588.578	17.3
588.773	17.38
588.968	17.47
589.163	17.48
589.359	17.47
589.554	17.5
589.749	17.5
589.944	17.57
590.139	17.57
590.334	17.61
590.529	17.57
590.724	17.6
590.919	17.54
591.114	17.67
591.309	17.67
591.504	17.73
591.699	17.68
591.894	17.64
592.089	17.6
592.284	17.65
592.479	17.7
592.674	17.8
592.869	17.92
593.064	18.01
593.259	18.03
593.454	18.06
593.648	18.09
593.843	18.18
594.038	18.2
594.233	18.21
594.428	18.29
594.622	18.38
594.817	18.48
595.012	18.52
595.206	18.71
595.401	18.8
595.596	18.84
595.79	18.79
595.985	18.81
596.18	18.8
596.374	18.84
596.569	18.96
596.763	19.12
596.958	19.23
597.153	19.29
597.347	19.29
597.542	19.31
597.736	19.37
597.931	19.43
598.125	19.55
598.319	19.6
598.514	19.6
598.708	19.61
598.903	19.64
599.097	19.73
599.291	19.86
599.486	20.04
599.68	20.02
599.874	20.13
600.069	20.2
600.263	20.32
600.457	20.28
600.651	20.45
600.846	20.46
601.04	20.43
601.234	20.4
601.428	20.41
601.622	20.38
601.817	20.38
602.011	20.37
602.205	20.42
602.399	20.4
602.593	20.46
602.787	20.43
602.981	20.45
603.175	20.45
603.369	20.53
603.563	20.56
603.757	20.61
603.951	20.72
604.145	20.68
604.339	20.78
604.533	20.73
604.727	20.72
604.921	20.64
605.115	20.59
605.309	20.4
605.502	20.4
605.696	20.42
605.89	20.48
606.084	20.58
606.278	20.6
606.471	20.53
606.665	20.38
606.859	20.19
607.053	20.01
607.246	19.96
607.44	19.9
607.634	19.91
607.827	19.91
608.021	19.83
608.214	19.78
608.408	19.73
608.602	19.63
608.795	19.57
608.989	19.61
609.182	19.53
609.376	19.52
609.569	19.53
609.763	19.48
609.956	19.49
610.15	19.44
610.343	19.3
610.537	19.2
610.73	19.07
610.923	18.91
611.117	18.87
611.31	18.81
611.504	18.79
611.697	18.76
611.89	18.68
612.083	18.59
612.277	18.55
612.47	18.35
612.663	18.33
612.856	18.22
613.05	18.16
613.243	18.02
613.436	18.06
613.629	17.93
613.822	17.94
614.015	17.82
614.209	17.74
614.402	17.66
614.595	17.69
614.788	17.65
614.981	17.58
615.174	17.53
615.367	17.4
615.56	17.17
615.753	17.05
615.946	16.94
616.139	16.93
616.332	16.94
616.525	16.98
616.718	16.91
616.911	16.93
617.103	16.92
617.296	16.79
617.489	16.7
617.682	16.67
617.875	16.69
618.067	16.63
618.26	16.66
618.453	16.67
618.646	16.64
618.838	16.59
619.031	16.51
619.224	16.42
619.417	16.36
619.609	16.26
619.802	16.21
619.994	16.15
620.187	16.17
620.38	16.1
620.572	16.11
620.765	16.06
620.957	16.07
621.15	16.02
621.342	15.98
621.535	15.93
621.727	15.88
621.92	15.85
622.112	15.87
622.305	15.93
622.497	15.9
622.69	15.9
622.882	15.87
623.074	15.8
623.267	15.77
623.459	15.73
623.651	15.77
623.844	15.76
624.036	15.76
624.228	15.64
624.42	15.61
624.613	15.47
624.805	15.41
624.997	15.44
625.189	15.46
625.381	15.38
625.574	15.39
625.766	15.37
625.958	15.29
626.15	15.31
626.342	15.34
626.534	15.29
626.726	15.25
626.918	15.18
627.11	15.07
627.302	15.07
627.494	15.1
627.686	15.08
627.878	15.02
628.07	15.09
628.262	15.05
628.454	15.01
628.646	14.97
628.838	15.08
629.029	14.94
629.221	14.89
629.413	14.85
629.605	14.86
629.797	14.74
629.989	14.73
630.18	14.81
630.372	14.77
630.564	14.74
630.755	14.76
630.947	14.75
631.139	14.56
631.33	14.55
631.522	14.4
631.714	14.3
631.905	14.29
632.097	14.28
632.289	14.23
632.48	14.31
632.672	14.31
632.863	14.22
633.055	14.36
633.246	14.36
633.438	14.35
633.629	14.33
633.821	14.34
634.012	14.26
634.203	14.2
634.395	14.12
634.586	14.14
634.777	14.18
634.969	14.19
635.16	14.16
635.351	14.15
635.543	14.03
635.734	13.91
635.925	13.9
636.117	13.96
636.308	13.99
636.499	14.05
636.69	14.11
636.881	14.04
637.073	14.04
637.264	13.93
637.455	13.83
637.646	13.82
637.837	13.81
638.028	13.71
638.219	13.84
638.41	13.94
638.601	13.93
638.792	13.93
638.983	13.98
639.174	13.84
639.365	13.79
639.556	13.66
639.747	13.62
639.938	13.59
640.129	13.61
640.32	13.58
640.511	13.68
640.701	13.68
640.892	13.62
641.083	13.54
641.274	13.56
641.465	13.56
641.655	13.48
641.846	13.53
642.037	13.48
642.228	13.35
642.418	13.21
642.609	13.27
642.8	13.12
642.99	13.15
643.181	13.21
643.372	13.22
643.562	13.12
643.753	13.15
643.943	13.16
644.134	13.06
644.324	13.11
644.515	13.18
644.705	13.13
644.896	13.18
645.086	13.19
645.277	13.1
645.467	13.03
645.658	12.97
645.848	12.92
646.038	12.91
646.229	12.93
646.419	12.76
646.61	12.89
646.8	12.87
646.99	12.83
647.18	12.75
647.371	12.83
647.561	12.7
647.751	12.61
647.941	12.6
648.132	12.57
648.322	12.61
648.512	12.67
648.702	12.78
648.892	12.72
649.082	12.79
649.272	12.62
649.462	12.6
649.653	12.44
649.843	12.44
650.033	12.41
650.223	12.49
650.413	12.44
650.603	12.6
650.793	12.57
650.983	12.46
651.172	12.39
651.362	12.3
651.552	12.12
651.742	12.06
651.932	11.99
652.122	11.99
652.312	11.93
652.502	11.89
652.691	11.9
652.881	11.86
653.071	11.76
653.261	11.75
653.45	11.71
653.64	11.66
653.83	11.69
654.019	11.68
654.209	11.57
654.399	11.46
654.588	11.34
654.778	11.13
654.968	10.98
655.157	10.96
655.347	10.87
655.536	10.73
655.726	10.57
655.915	10.45
656.105	10.25
656.294	10.04
656.484	9.89
656.673	9.93
656.863	9.84
657.052	9.74
657.241	9.72
657.431	9.64
657.62	9.46
657.809	9.24
657.999	9.16
658.188	9.11
658.377	9.03
658.567	8.91
658.756	8.89
658.945	8.73
659.134	8.49
659.324	8.28
659.513	8.2
659.702	8.02
659.891	7.95
660.08	7.85
660.269	7.77
660.458	7.62
660.648	7.48
660.837	7.35
661.026	7.2
661.215	7.16
661.404	7.02
661.593	7.04
661.782	6.9
661.971	6.78
662.16	6.63
662.349	6.55
662.538	6.41
662.726	6.3
662.915	6.28
663.104	6.14
663.293	6.13
663.482	6.09
663.671	6.08
663.86	5.99
664.048	6.01
664.237	6.01
664.426	5.85
664.615	5.83
664.803	5.72
664.992	5.6
665.181	5.48
665.369	5.42
665.558	5.32
665.747	5.4
665.935	5.46
666.124	5.47
666.312	5.53
666.501	5.52
666.69	5.46
666.878	5.45
667.067	5.37
667.255	5.38
667.444	5.43
667.632	5.52
667.82	5.43
668.009	5.46
668.197	5.53
668.386	5.47
668.574	5.39
668.762	5.36
668.951	5.41
669.139	5.24
669.327	5.24
669.516	5.3
669.704	5.41
669.892	5.38
670.08	5.5
670.269	5.52
670.457	5.53
670.645	5.48
670.833	5.52
671.021	5.62
671.21	5.71
671.398	5.71
671.586	5.79
671.774	5.96
671.962	5.95
672.15	6.01
672.338	6.09
672.526	6.21
672.714	6.18
672.902	6.18
673.09	6.33
673.278	6.45
673.466	6.48
673.654	6.43
673.842	6.61
674.03	6.54
674.218	6.49
674.405	6.59
674.593	6.71
674.781	6.69
674.969	6.79
675.157	6.92
675.344	6.92
675.532	6.94
675.72	7.01
675.908	6.99
676.095	7.09
676.283	7.34
676.471	7.48
676.658	7.59
676.846	7.64
677.033	7.6
677.221	7.53
677.409	7.64
677.596	7.75
677.784	7.96
677.971	7.97
678.159	7.99
678.346	7.98
678.534	8.06
678.721	8.18
678.909	8.42
679.096	8.55
679.283	8.7
679.471	8.76
679.658	8.7
679.846	8.59
680.033	8.83
680.22	8.98
680.408	9.11
680.595	9.34
680.782	9.58
680.969	9.58
681.157	9.67
681.344	9.73
681.531	9.84
681.718	9.98
681.905	10.15
682.093	10.27
682.28	10.41
682.467	10.53
682.654	10.65
682.841	10.83
683.028	10.78
683.215	11
683.402	10.98
683.589	11.28
683.776	11.33
683.963	11.71
684.15	11.76
684.337	12.1
684.524	12.09
684.711	12.31
684.898	12.34
685.085	12.57
685.271	12.93
685.458	12.98
685.645	13.18
685.832	13.44
686.019	13.61
686.205	13.82
686.392	14.27
686.579	14.69
686.766	15.04
686.952	15.49
687.139	15.65
687.326	15.89
687.512	16.08
687.699	16.59
687.886	16.9
688.072	17.29
688.259	17.68
688.445	18.23
688.632	18.41
688.818	18.87
689.005	19.3
689.191	19.87
689.378	20.29
689.564	20.84
689.751	21.24
689.937	21.84
690.124	22.36
690.31	22.67
690.496	23.27
690.683	24.02
690.869	24.46
691.055	25.01
691.242	25.8
691.428	26.28
691.614	26.79
691.8	27.42
691.987	28.06
692.173	28.69
692.359	29.53
692.545	30.13
692.731	30.71
692.918	31.11
693.104	31.55
693.29	31.99
693.476	32.75
693.662	33.52
693.848	34.42
694.034	35.25
694.22	36.01
694.406	36.49
694.592	37.36
694.778	37.94
694.964	38.42
695.15	39.06
695.336	39.71
695.522	40.3
695.708	41.11
695.894	42.06
696.08	42.81
696.265	43.58
696.451	43.98
696.637	44.65
696.823	45.35
697.009	45.87
697.194	46.45
697.38	47.19
697.566	47.76
697.751	48.27
697.937	48.92
698.123	49.64
698.308	50.22
698.494	50.87
698.68	51.47
698.865	51.99
699.051	52.53
699.236	53.1
699.422	53.51
699.607	54.01
699.793	54.68
699.978	55.02
700.164	55.32
700.349	55.98
700.535	56.31
700.72	56.71
700.906	57.52
701.091	58.15
701.276	58.43
701.462	59.04
701.647	59.68
701.832	59.99
702.018	60.55
702.203	61.18
702.388	61.84
702.573	62.23
702.759	62.71
702.944	63
703.129	63.2
703.314	63.15
703.499	63.41
703.684	63.67
703.87	64.28
704.055	64.71
704.24	65.37
704.425	65.82
704.61	66.31
704.795	66.58
704.98	66.71
705.165	66.87
705.35	67.22
705.535	67.23
705.72	67.49
705.905	68
706.09	68.44
706.275	68.55
706.459	69.02
706.644	69.36
706.829	69.41
707.014	69.63
707.199	70.04
707.384	70.47
707.568	70.57
707.753	71.35
707.938	71.52
708.123	71.61
708.307	71.51
708.492	72.08
708.677	72.28
708.861	72.57
709.046	72.32
709.231	72.28
709.415	71.85
709.6	71.84
709.784	71.97
709.969	72.91
710.153	73.07
710.338	73.63
710.522	73.74
710.707	73.86
710.891	73.8
711.076	74.35
711.26	74.35
711.445	74.62
711.629	74.81
711.813	75.19
711.998	75.4
712.182	75.37
712.366	75.41
712.551	75.57
712.735	75.13
712.919	75.35
713.103	75.86
713.288	76.03
713.472	76.43
713.656	76.42
713.84	76.58
714.024	76.54
714.208	76.64
714.393	76.6
714.577	77.2
714.761	77.19
714.945	77.69
715.129	77.96
715.313	77.9
715.497	77.91
715.681	77.69
715.865	77.65
716.049	77.91
716.233	77.99
716.417	78.17
716.601	78.8
716.785	78.69
716.968	78.51
717.152	78.8
717.336	78.92
717.52	78.8
717.704	79.15
717.888	79.39
718.071	79.78
718.255	80.25
718.439	80.05
718.622	80.06
718.806	79.86
718.99	79.53
719.174	79.5
719.357	80.01
719.541	80.21
719.724	80.22
719.908	80.42
720.092	80.21
720.275	80.28
720.459	80.39
720.642	80.78
720.826	80.57
721.009	80.64
721.193	80.47
721.376	80.52
721.559	80.38
721.743	80.95
721.926	81.2
722.11	81.76
722.293	81.78
722.476	81.98
722.66	82.17
722.843	82.16
723.026	82.01
723.21	81.78
723.393	82.7
723.576	82.4
723.759	82.6
723.942	82.37
724.126	82.75
724.309	81.92
724.492	81.81
724.675	81.54
724.858	82.09
725.041	82.06
725.224	82.68
725.407	83.46
725.59	83.14
725.774	83.18
725.957	83.49
726.14	83.36
726.322	83.22
726.505	83.93
726.688	84.19
726.871	83.67
727.054	83.7
727.237	83.96
727.42	83.47
727.603	82.69
727.786	82.8
727.968	82.37
728.151	82.01
728.334	82.79
728.517	83.53
728.699	83.92
728.882	84.21
729.065	84.48
729.248	84.4
729.43	84.42
729.613	84.5
729.796	85.06
729.978	85.01
730.161	85.3
730.343	85.88
730.526	85.76
730.708	85.46
730.891	85.67
731.073	85.6
731.256	85.26
731.438	86.14
731.621	86.5
731.803	86.1
731.986	86.17
732.168	87
732.35	86.92
732.533	86.83
732.715	87.46
732.898	88.05
733.08	87.26
733.262	87.01
733.444	87.59
733.627	87.52
733.809	87.37
733.991	87.85
734.173	87.83
734.355	87.58
734.538	88.53
734.72	88.25
734.902	88.78
735.084	89.52
735.266	90.22
735.448	90.06
735.63	90.17
735.812	89.45
735.994	89.2
736.176	88.75
736.358	88.75
736.54	89.61
736.722	89.72
736.904	89.78
737.086	89.34
737.268	89.59
737.45	89.55
737.632	89.46
737.814	89.38
737.995	90.28
738.177	90.15
738.359	89.48
738.541	89.71
738.723	90.35
738.904	90.32
739.086	90.53
739.268	90.47
739.449	89.93
739.631	89.23
739.813	88.68
739.994	88.21
740.176	88.95
740.358	89.53
740.539	89.19
740.721	89.77
740.902	89.86
741.084	89.95
741.265	90.08
741.447	91.03
741.628	91.06
741.81	91.16
741.991	91.35
742.172	91.38
742.354	91.15
742.535	90.63
742.717	90
742.898	90.18
743.079	90.84
743.261	91.4
743.442	90.95
743.623	92.3
743.804	91.7
743.986	91.05
744.167	90.75
744.348	90.19
744.529	89.22
744.71	88.98
744.891	89.24
745.073	89.13
745.254	90.76
745.435	90.8
745.616	90.9
745.797	90.15
745.978	89.69
746.159	88.14
746.34	89.36
746.521	89.73
746.702	90.31
746.883	90.54
747.064	91.88
747.245	91.63
747.426	91.68
747.606	92.14
747.787	92.9
747.968	91.41
748.149	90.03
748.33	89.25
748.51	88.7
748.691	87.86
748.872	90.16
749.053	91.13
749.233	91.76
749.414	92.19
749.595	92.83
749.775	91.37
749.956	90.14
750.137	89.34
750.317	88.18
750.498	88.43
750.678	88.65
750.859	90.5
751.04	91.77
751.22	91.53
751.4	91.1
751.581	91.46
751.761	89.6
751.942	88.4
752.122	88.25
752.303	88.01
752.483	87.96
752.663	88.68
752.844	89.62
753.024	91.43
753.204	91.51
753.385	90.56
753.565	90.46
753.745	88.69
753.925	87.32
754.106	87.6
754.286	87.33
754.466	87.99
754.646	88.82
754.826	90.67
755.006	89.63
755.187	91.56
755.367	89.79
755.547	89.69
755.727	88.4
755.907	88.07
756.087	86.41
756.267	86.97
756.447	87.6
756.627	87.49
756.807	89.46
756.987	89.69
757.167	90.14
757.346	88.59
757.526	87.81
757.706	86.01
757.886	85.68
758.066	86.23
758.246	85.94
758.425	85.23
758.605	84.77
758.785	85.16
758.965	84.95
759.144	84.1
759.324	86.18
759.504	89.15
759.683	88.83
759.863	89.71
760.043	91.19
760.222	90.48
760.402	86.93
760.581	87.54
760.761	86.5
760.94	87.5
761.12	86.8
761.299	88.73
761.479	88.68
761.658	87.12
761.838	86.52
762.017	87.31
762.197	85.42
762.376	85.06
762.555	86.01
762.735	86.59
762.914	85.66
763.093	86.17
763.273	85.87
763.452	85.45
763.631	83.23
763.81	82.89
763.99	82.67
764.169	83.69
764.348	82.58
764.527	84.6
764.706	85.2
764.885	86.33
765.064	86.1
765.243	87.65
765.423	87.29
765.602	87.95
765.781	85.33
765.96	84.59
766.139	83.06
766.318	82.66
766.497	81.17
766.676	81.44
766.854	80.77
767.033	83.06
767.212	83.89
767.391	84.56
767.57	89.27
767.749	89.6
767.928	88.48
768.106	87.58
768.285	87.16
768.464	84.91
768.643	84.63
768.821	83.1
769	83.01
769.179	83.29
769.357	82.31
769.536	81.47
769.715	81.75
769.893	81.6
770.072	81.6
770.25	81.32
770.429	82.33
770.607	81.99
770.786	81.77
770.964	82.19
771.143	83.37
771.321	81.52
771.5	82.93
771.678	82.95
771.857	80.39
772.035	79.81
772.213	81.33
772.392	80.38
772.57	79.41
772.748	80.54
772.927	80
773.105	80.45
773.283	80.52
773.461	82.37
773.64	82.04
773.818	83.41
773.996	83.94
774.174	84.52
774.352	82.03
774.531	82.62
774.709	81.49
774.887	79.06
775.065	78.17
775.243	79.22
775.421	79.81
775.599	81.89
775.777	81.69
775.955	81.08
776.133	82.53
776.311	81.01
776.489	78.4
776.667	79.5
776.844	79.65
777.022	79.94
777.2	80.16
777.378	79.07
777.556	81.56
777.734	83.55
777.911	82.63
778.089	84.03
778.267	84.45
778.445	85.19
778.622	84.34
778.8	81.7
778.978	83.32
779.155	85.77
779.333	84.34
779.511	82.53
779.688	84.59
779.866	81.72
780.043	80.95
780.221	80.61
780.398	80.81
780.576	81.14
780.753	79.6
780.931	79.39
781.108	79.1
781.286	82.02
781.463	81.93
781.64	84.39
781.818	85.11
781.995	85.4
782.172	81.87
782.35	82.43
782.527	80.35
782.704	77.75
782.882	74.87
783.059	75.72
783.236	74.4
783.413	76.53
783.59	78.52
783.768	79.78
783.945	80.23
784.122	80.23
784.299	81.6
784.476	77.9
784.653	74.78
784.83	71.74
785.007	70.66
785.184	68.04
785.361	70.71
785.538	72
785.715	77.85
785.892	78.34
786.069	79.97
786.246	80.76
786.423	83.8
786.6	80.89
786.776	82.19
786.953	78.07
787.13	77.54
787.307	74.1
787.484	72.66
787.66	72.08
787.837	75.38
788.014	76.32
788.191	77.72
788.367	76.18
788.544	75.86
788.721	72.15
788.897	69.74
789.074	70.49
789.25	70.05
789.427	69.96
789.603	70.1
789.78	70.93
789.956	69.16
790.133	70.94
790.309	70.5
790.486	75.47
790.662	74.22
790.839	76.92
791.015	78.4
791.192	80.92
791.368	80.98
791.544	81.48
791.721	79.38
791.897	79.5
792.073	74.42
792.249	69.25
792.426	71.29
792.602	71.48
792.778	69.03
792.954	72.55
793.13	72.11
793.307	70.82
793.483	70.14
793.659	72.25
793.835	72.56
794.011	80.52
794.187	79.05
794.363	78.95
794.539	78.13
794.715	77.99
794.891	72.17
795.067	70.89
795.243	73.3
795.419	71.09
795.595	76.44
795.771	76.56
795.947	78.92
796.122	72.49
796.298	72.7
796.474	68.77
796.65	72
796.826	70.11
797.001	74.77
797.177	73.75
797.353	72.69
797.529	73.2
797.704	74.47
797.88	74.23
798.056	73.77
798.231	69.32
798.407	67.93
798.582	67.27
798.758	71.64
798.934	74.19
799.109	74.13
799.285	68.9
799.46	70.97
799.636	62.99
799.811	62.57
799.986	64.29
800.162	62.71
800.337	65.47
800.513	71.24
800.688	70.44
800.863	75.76
801.039	81.22
801.214	73.16
801.389	67.76
801.565	67.67
801.74	60.55
801.915	60.38
802.09	64.19
802.265	66.99
802.441	69.1
802.616	71.23
802.791	68.98
802.966	68.68
803.141	65.81
803.316	65.02
803.491	68.78
803.666	74.36
803.841	66.84
804.016	67.31
804.191	63.6
804.366	60.33
804.541	56.58
804.716	63.58
804.891	63.71
805.066	68.46
805.241	63.72
805.416	65.29
805.591	67.52
805.765	82.19
805.94	83.38
806.115	86.85
806.29	79.68
806.464	78.78
806.639	66.4
806.814	60.51
806.989	61.78
807.163	72.23
807.338	66.28
807.512	66.23
807.687	69.54
807.862	71.5
808.036	68.51
808.211	70.59
808.385	73.35
808.56	71.44
808.734	63.15
808.909	60.03
809.083	61.71
809.258	61.81
809.432	59.7
809.606	63.57
809.781	69.29
809.955	74.99
810.13	72
810.304	68.56
810.478	69.14
810.652	67.82
810.827	65.17
811.001	69.23
811.175	75.5
811.349	74.54
811.524	74.38
811.698	69.27
811.872	66.48
812.046	62.71
812.22	69.47
812.394	66
812.568	67.7
812.742	69.14
812.916	71.09
813.09	61.57
813.264	58.89
813.438	60.16
813.612	54.54
813.786	57.5
813.96	58.28
814.134	59.88
814.308	59.16
814.482	64.72
814.656	48.98
814.83	55.64
815.003	56.72
815.177	61.2
815.351	61.81
815.525	82.56
815.698	75.71
815.872	67.11
816.046	62.59
816.219	66.55
816.393	54.85
816.567	54.05
816.74	58.68
816.914	64.92
817.088	59.11
817.261	66.22
817.435	72.12
817.608	66.8
817.782	59.05
817.955	66.4
818.129	64.05
818.302	64.62
818.475	64.3
818.649	63.88
818.822	46.5
818.996	55.63
819.169	57.74
819.342	65.98
819.516	66.63
819.689	70.49
819.862	65.51
820.035	64.39
820.209	63.22
820.382	67.19
820.555	65.28
820.728	61.35
820.901	53.29
821.075	53.36
821.248	51.25
821.421	59.85
821.594	53.72
821.767	59.4
821.94	48.26
822.113	47.21
822.286	54.18
822.459	53.41
822.632	54.52
822.805	64.04
822.978	63.04
823.151	43.39
823.324	42.21
823.496	25.79
823.669	26.64
823.842	33.98
824.015	41.46
824.188	41.84
824.361	51.99
824.533	49.95
824.706	41.13
824.879	46.73
825.051	65.09
825.224	66.35
825.397	59.05
825.569	56.94
825.742	61.75
825.915	58.91
826.087	60.25
826.26	64.8
826.432	69.96
826.605	63.82
826.777	60.25
826.95	59.01
827.122	41.71
827.295	50.37
827.467	51.43
827.64	24.68
827.812	22.29
827.984	55.39
828.157	41.1
828.329	49.75
828.501	44.72
828.674	45.95
828.846	41.52
829.018	40.44
829.19	24.63
829.363	35.72
829.535	42.96
829.707	41.03
829.879	36.32
830.051	46.05
830.223	51.01
830.395	49.2
830.568	48.39
830.74	51.92
830.912	54.96
831.084	45.67
831.256	32.21
831.428	36.16
831.6	34.12
831.772	8.64
831.943	1.51
832.115	21.73
832.287	24.29
832.459	23.16
832.631	49.88
832.803	65.53
832.975	57.24
833.146	57.18
833.318	64.08
833.49	63.14
833.662	69.22
833.833	63.4
834.005	54.13
834.177	57.92
834.348	45.17
834.52	35.06
834.692	36.16
834.863	30.95
835.035	22.28
835.206	26.4
835.378	30.95
835.549	30.44
835.721	34.78
835.892	37.97
836.064	43.58
836.235	49.47
836.407	41.88
836.578	47.12
836.749	45.06
836.921	42.7
837.092	23.36
837.264	27.18
837.435	26.42
837.606	36.06
837.777	44.38
837.949	59.48
838.12	69.57
838.291	81.64
838.462	93.87
838.633	86.86
838.805	70.13
838.976	65.57
839.147	56.59
839.318	36.49
839.489	30.1
839.66	55.55
839.831	59.13
840.002	47.43
840.173	51.02
840.344	60.62
840.515	50.21
840.686	51.57
840.857	58.42
841.028	56.9
841.199	51.6
841.369	52.66
841.54	48.11
841.711	76.06
841.882	71.36
842.053	66.73
842.223	67.57
842.394	60.18
842.565	37.76
842.736	55.41
842.906	37.75
843.077	46.51
843.248	61.03
843.418	50.89
843.589	38.38
843.759	74.93
843.93	72.4
844.101	64.99
844.271	98.8
844.442	98.42
844.612	82.85
844.783	73.57
844.953	68.46
845.123	45.08
845.294	41.19
845.464	23.11
845.635	11.47
845.805	0.67
845.975	46.55
846.146	27.66
846.316	23.06
846.486	42.05
846.656	53.02
846.827	52.96
846.997	62.22
847.167	63.58
847.337	58.47
847.507	58.76
847.677	51
847.848	62.67
848.018	54.32
848.188	53.78
848.358	8.21
848.528	17.85
848.698	-8.55
848.868	10.05
849.038	-4.25
849.208	24.98
849.378	24.19
849.548	3.51
849.718	-3.98
849.887	22.01
850.057	5.55
850.227	35.74
850.397	60.76
850.567	17.31
850.737	19.22
850.906	-31.44
851.076	-37.81
851.246	-38.59
851.415	-24.34
851.585	-33.04
851.755	42.79
851.924	46.43
852.094	57.03
852.264	60.54
852.433	56.73
852.603	23.25
852.772	40.82
852.942	61.36
853.111	51.43
853.281	66.18
853.45	62.94
853.62	33.17
853.789	-4.22
853.959	20.47
854.128	19.62
854.297	34.64
854.467	27.09
854.636	34.12
854.805	25.86
854.975	12.88
855.144	-1.08
855.313	45.57
855.482	41.09
855.652	28.78
855.821	19.84
855.99	19.41
856.159	-0.35
856.328	6.89
856.497	36.72
856.667	45.23
856.836	65.38
857.005	64.04
857.174	45.33
857.343	13.78
857.512	17.21
857.681	-26
857.85	-23.14
858.019	-52.19
858.188	-55.39
858.356	-40.27
858.525	-11.18
858.694	10.6
858.863	27.33
859.032	40.2
859.201	45.48
859.369	68.97
859.538	26.31
859.707	7.59
859.876	5.9
860.044	24.52
860.213	22.53
860.382	38.3
860.55	35.89
860.719	45.06
860.888	32.95
861.056	16.15
861.225	3.95
861.393	-11.54
861.562	-23.29
861.73	-34.24
861.899	-38.7
862.067	-70.28
862.236	-62.66
862.404	-53.91
862.572	-38.94
862.741	-6.38
862.909	29.8
863.078	59.87
863.246	44.94
863.414	60.84
863.582	53.07
863.751	50.04
863.919	39.11
864.087	26.01
864.255	-0.13
864.424	-26.29
864.592	14.72
864.76	-10.36
864.928	29.67
865.096	24.21
865.264	24.32
865.432	-9.49
865.6	18.19
865.768	-27.59
865.936	-12.48
866.104	6.5
866.272	-43.56
866.44	-13.11
866.608	-12.67
866.776	-4.28
866.944	12.25
867.112	32.82
867.28	19.1
867.448	40.05
867.615	11.98
867.783	-14.23
867.951	-21.05
868.119	-7.27
868.286	-36.97
868.454	21.56
868.622	30.43
868.789	34.48
868.957	26.32
869.125	25.64
869.292	3.4
869.46	22.14
869.627	36.91
869.795	-7.61
869.963	11.55
870.13	15.7
870.298	-3.84
870.465	8.84
870.632	9.91
870.8	14.92
870.967	12.43
871.135	3.76
871.302	-30.4
871.469	-22.38
871.637	-28.19
871.804	-5.71
871.971	-22.77
872.139	12.22
872.306	22.39
872.473	-19.04
872.64	-107.22
872.807	-40.66
872.975	-116.77
873.142	-39.04
873.309	-6.5
873.476	63.32
873.643	78.81
873.81	46.49
873.977	30.15
874.144	52.75
874.311	-26.65
874.478	-69
874.645	-80.04
874.812	40.16
874.979	21.32
875.146	15.74
875.313	19.21
875.48	50.23
875.647	13.38
875.813	-29.57
875.98	-15.9
876.147	-8.93
876.314	2.56
876.481	9.58
876.647	43.73
876.814	50.17
876.981	59.6
877.147	82.12
877.314	100.49
877.481	109.44
877.647	97.36
877.814	70.9
877.98	52.51
878.147	54.34
878.314	73.09
878.48	74.85
878.647	76.72
878.813	85.59
878.979	67.49
879.146	51.99
879.312	82.53
879.479	65.25
879.645	42.95
879.811	8.85
879.978	-1.17
880.144	-19.23
880.31	3.09
880.477	30.37
880.643	39.45
880.809	32.58
880.975	38.9
881.142	-8.61
881.308	307.4
881.474	411.99
881.64	-24.06
881.806	-47.98
881.972	23.77
882.138	35.31
882.304	44.84
882.47	39.57
882.636	9.13
882.802	-40.27
882.968	-35.8
883.134	-3.32
883.3	-7.61
883.466	-5.46
883.632	9.28
883.798	-82.22
883.964	-179.14
884.129	-1227.95
884.295	-81.1
884.461	-125.4
884.627	-44.89
884.793	-14.3
884.958	19.78
885.124	-27.89
885.29	-44.91
885.455	-2.33
885.621	15.09
885.787	21.33
885.952	34.97
886.118	48.21
886.283	15.05
886.449	-19.84
886.614	-32.62
886.78	-14.38
886.945	-61.93
887.111	-43.74
887.276	-60.3
887.442	-105.22
887.607	-76.56
887.773	-19.9
887.938	-22.52
888.103	12.74
888.269	54.5
888.434	67.73
888.599	43.45
888.764	55.81
888.93	52.54
889.095	25.61
889.26	-3.37
889.425	26.68
889.59	27.8
889.756	14.18
889.921	-6.28
890.086	-36.23
890.251	13.45
890.416	3.99
890.581	5.75
890.746	78.42
890.911	77.21
891.076	70.86
891.241	58.03
891.406	60.94
891.571	87.25
891.736	100.63
891.901	56.1
892.065	80.9
892.23	93.13
892.395	47.34
892.56	19.08
892.725	56.95
892.889	19.78
893.054	36.51
893.219	33.31
893.384	57.07
893.548	2.4
893.713	5
893.878	-47.58
