Data from Ofra_2a_PS_2GT7_Reflection_1.txt Node
Date: Tue Jul 20 09:44:22 EDT 2021
User: Adam
Spectrometer: FLMT01687
Trigger mode: 0
Integration Time (sec): 9.450000E-1
Scans to average: 3
Electric dark correction enabled: true
Nonlinearity correction enabled: false
Boxcar width: 3
XAxis mode: Wavelengths
Number of Pixels in Spectrum: 3648
>>>>>Begin Spectral Data<<<<<
179.494	927.22
179.716	481.34
179.937	490.11
180.158	2120.31
180.38	-1117.44
180.601	-97.4
180.823	-20.82
181.044	12.75
181.265	-192.82
181.486	-28.27
181.708	-69.57
181.929	-8.84
182.15	-465.91
182.372	-45.13
182.593	-0.68
182.814	276.05
183.035	-5.37
183.257	16.3
183.478	64.09
183.699	68.05
183.92	50.26
184.141	53.56
184.363	43.95
184.584	50.74
184.805	63.8
185.026	63.21
185.247	47.12
185.468	46.93
185.689	37.95
185.91	40.82
186.132	54.59
186.353	13.58
186.574	13.24
186.795	2.94
187.016	-1.57
187.237	7.08
187.458	14.59
187.679	-19.53
187.9	18.32
188.121	42.85
188.342	55.79
188.563	68.45
188.784	71
189.005	85.38
189.226	90.05
189.447	79.61
189.667	66.33
189.888	71.97
190.109	74.54
190.33	59.18
190.551	31.9
190.772	26.25
190.993	40.81
191.214	49.3
191.434	48.27
191.655	44.29
191.876	52.82
192.097	56.6
192.318	56.38
192.538	57.81
192.759	54.23
192.98	45
193.201	56.16
193.421	52.18
193.642	45.86
193.863	64.16
194.083	49.04
194.304	36.8
194.525	50.72
194.745	28.94
194.966	37.52
195.187	41.35
195.407	36.05
195.628	32.87
195.848	36.14
196.069	19.08
196.29	24.01
196.51	7.22
196.731	18.53
196.951	26.64
197.172	31.5
197.392	30.15
197.613	26.42
197.833	26.01
198.054	36.45
198.274	23.28
198.495	19.44
198.715	10.38
198.936	12.72
199.156	22.31
199.377	9.36
199.597	-17.13
199.817	-11.67
200.038	3.02
200.258	11.95
200.479	10.21
200.699	13.89
200.919	6.35
201.14	14.91
201.36	30.93
201.58	13.67
201.801	15.22
202.021	18.78
202.241	14.23
202.461	32.72
202.682	44.28
202.902	42.1
203.122	51.96
203.342	64.6
203.563	71.91
203.783	79.45
204.003	72.82
204.223	69.55
204.443	63.08
204.663	51.43
204.884	41.86
205.104	38.64
205.324	35.03
205.544	38.4
205.764	41.79
205.984	36.97
206.204	39.25
206.424	37.92
206.644	31.04
206.864	31
207.084	43.16
207.304	31.05
207.525	28.37
207.745	33.46
207.964	27.96
208.184	38.37
208.404	35.35
208.624	6.98
208.844	14.27
209.064	21.04
209.284	29.15
209.504	31.02
209.724	-9.12
209.944	-15.83
210.164	-4.38
210.384	-3.75
210.604	-25.46
210.823	-32.84
211.043	-22.89
211.263	18.65
211.483	27.3
211.703	33.85
211.922	40.31
212.142	45.18
212.362	48.29
212.582	38.39
212.801	36.03
213.021	36.32
213.241	30.48
213.461	21.41
213.68	13.87
213.9	23.44
214.12	29.93
214.339	18.61
214.559	24.66
214.779	20.61
214.998	23.81
215.218	33.31
215.438	35.39
215.657	30.07
215.877	33.48
216.096	31.16
216.316	38.16
216.535	28.11
216.755	19.27
216.974	12.14
217.194	17.75
217.413	28.68
217.633	18.44
217.852	21.89
218.072	29.72
218.291	38.74
218.511	34.68
218.73	36.67
218.95	32.34
219.169	32.78
219.389	19.47
219.608	26.87
219.827	18.32
220.047	26.2
220.266	23.76
220.485	22.37
220.705	20.75
220.924	30.1
221.143	26.74
221.363	38.52
221.582	23.75
221.801	32.26
222.021	27.94
222.24	24.35
222.459	16.47
222.678	11.23
222.897	-6.18
223.117	7.15
223.336	0.08
223.555	6.79
223.774	14.56
223.993	27.72
224.213	24.87
224.432	33.58
224.651	40.38
224.87	45.18
225.089	49.48
225.308	49.02
225.527	50.5
225.746	50.6
225.965	39.95
226.184	21.4
226.404	6.11
226.623	9.52
226.842	7.33
227.061	-7.95
227.28	15.45
227.499	26.33
227.718	33.34
227.936	21.47
228.155	19.75
228.374	26.8
228.593	34.02
228.812	12.01
229.031	6.25
229.25	14.38
229.469	38.27
229.688	43.33
229.907	31.43
230.125	30.99
230.344	37.37
230.563	47.91
230.782	35.8
231.001	34.19
231.22	27.81
231.438	31.53
231.657	37.14
231.876	34.4
232.095	26.29
232.313	29.12
232.532	24.74
232.751	28.12
232.969	36.29
233.188	26.42
233.407	30.34
233.625	22.83
233.844	36.21
234.063	38.77
234.281	33.17
234.5	33.8
234.719	37.2
234.937	46.63
235.156	48.06
235.374	40.8
235.593	34.84
235.811	33.71
236.03	11.82
236.249	12.8
236.467	14.83
236.686	23.01
236.904	25.16
237.123	37.19
237.341	37.8
237.559	55.68
237.778	65.57
237.996	60.15
238.215	57.1
238.433	56.95
238.652	50.8
238.87	49
239.088	30.76
239.307	25.4
239.525	20.22
239.743	12.09
239.962	6.9
240.18	16.54
240.398	20.61
240.617	36.3
240.835	37.26
241.053	49.17
241.271	58.59
241.49	52.92
241.708	43.03
241.926	29.1
242.144	24.01
242.363	22.01
242.581	15.12
242.799	8.47
243.017	24.43
243.235	12.74
243.453	40.32
243.672	50.44
243.89	58.68
244.108	62.8
244.326	67.97
244.544	62.59
244.762	65.99
244.98	44.36
245.198	30.89
245.416	23.77
245.634	26.97
245.852	31.04
246.07	32.64
246.288	22.26
246.506	41.97
246.724	52.98
246.942	56.19
247.16	44.64
247.378	35.38
247.596	38.4
247.814	38.98
248.032	20.29
248.25	13.76
248.468	6.23
248.685	6.43
248.903	-3.31
249.121	-3.14
249.339	5.6
249.557	22.81
249.775	12.12
249.992	9.96
250.21	1.88
250.428	15.95
250.646	17.37
250.863	18.19
251.081	14.11
251.299	43.13
251.517	62.17
251.734	77.99
251.952	66.24
252.17	50.69
252.387	53.63
252.605	51.72
252.823	24.03
253.04	16.02
253.258	10.54
253.475	12.56
253.693	31.25
253.911	28.5
254.128	23.27
254.346	24.44
254.563	19.56
254.781	21.44
254.998	23.85
255.216	17.3
255.433	20.13
255.651	18.44
255.868	25.78
256.086	36.15
256.303	40.68
256.521	27.06
256.738	33.52
256.956	22.49
257.173	27.16
257.39	28.95
257.608	25.79
257.825	18.5
258.043	35.13
258.26	36.21
258.477	37.97
258.695	40.1
258.912	43.64
259.129	39.94
259.346	34.59
259.564	28.27
259.781	29.2
259.998	24.5
260.216	28.01
260.433	24.05
260.65	27.09
260.867	24.74
261.084	31.46
261.302	19.84
261.519	15.84
261.736	7.59
261.953	15.13
262.17	11.83
262.387	14.8
262.604	-9.03
262.822	7.64
263.039	20.36
263.256	17.15
263.473	10.09
263.69	15.88
263.907	20.5
264.124	29.01
264.341	16.76
264.558	10.56
264.775	15.16
264.992	17.35
265.209	26.82
265.426	24.02
265.643	26.4
265.86	34.46
266.077	39.72
266.294	41.74
266.51	40.53
266.727	25.27
266.944	23.67
267.161	30.02
267.378	30.65
267.595	22.89
267.812	25.98
268.028	35.25
268.245	42.21
268.462	50.76
268.679	38.48
268.896	28.82
269.112	42.62
269.329	43.48
269.546	38.89
269.763	34.5
269.979	36.88
270.196	39.83
270.413	46.26
270.629	38.67
270.846	38.19
271.063	42.46
271.279	42.71
271.496	28.21
271.712	27.54
271.929	34.17
272.146	36.66
272.362	16.81
272.579	7.22
272.795	6.83
273.012	14.95
273.228	11.33
273.445	0.63
273.661	-2.1
273.878	13.05
274.094	22.88
274.311	22.52
274.527	23.06
274.744	26.62
274.96	24.94
275.177	26.94
275.393	36.09
275.609	25.23
275.826	27.69
276.042	33.37
276.259	36.31
276.475	33.85
276.691	29.32
276.908	18.72
277.124	24.27
277.34	22.69
277.557	28.17
277.773	26.55
277.989	29.64
278.205	35.02
278.422	41.47
278.638	43.61
278.854	44.12
279.07	32.08
279.286	28.24
279.503	30.97
279.719	38.34
279.935	23.09
280.151	17.35
280.367	19.15
280.583	18.56
280.799	29.35
281.016	28.24
281.232	14.08
281.448	22.62
281.664	25.05
281.88	25.71
282.096	33.26
282.312	23.06
282.528	18.1
282.744	19.7
282.96	24.64
283.176	38.2
283.392	44.35
283.608	44.36
283.824	44.79
284.04	45.02
284.256	47.5
284.471	49.99
284.687	36.11
284.903	30.58
285.119	12.58
285.335	16.31
285.551	28.77
285.767	34.52
285.982	24.98
286.198	21.31
286.414	38.9
286.63	52.67
286.846	45.39
287.061	46.18
287.277	49.3
287.493	53.27
287.709	56.5
287.924	58.23
288.14	59.32
288.356	73.01
288.571	72.66
288.787	63.42
289.003	74.46
289.218	64.75
289.434	53.26
289.65	53.18
289.865	47.46
290.081	39.94
290.296	43.2
290.512	33.23
290.727	43.19
290.943	45.66
291.159	42.05
291.374	47.16
291.59	39.27
291.805	30.57
292.021	26.7
292.236	21.39
292.451	10.9
292.667	10.02
292.882	1.3
293.098	5.8
293.313	6.74
293.529	14.61
293.744	18.74
293.959	20.75
294.175	28.37
294.39	42.58
294.605	46.04
294.821	42.14
295.036	37.84
295.251	31.84
295.467	30.53
295.682	31.17
295.897	20.08
296.112	18.28
296.328	22.89
296.543	17.27
296.758	16.78
296.973	22.84
297.188	7.14
297.404	18.3
297.619	20.44
297.834	30.83
298.049	33.1
298.264	35.18
298.479	26.75
298.694	36.35
298.909	23.22
299.125	22.01
299.34	12.63
299.555	18.84
299.77	13.11
299.985	17.6
300.2	19.3
300.415	21.54
300.63	15.27
300.845	26.68
301.06	20.8
301.275	31.21
301.49	35.44
301.704	30.15
301.919	29.43
302.134	26.7
302.349	14.07
302.564	21.38
302.779	18.07
302.994	8.21
303.209	11.86
303.423	25.77
303.638	37.33
303.853	48.02
304.068	46.49
304.283	39.37
304.497	40.2
304.712	44.69
304.927	34.69
305.142	34.55
305.356	30.24
305.571	30.17
305.786	27.9
306	35.44
306.215	29.55
306.43	39.55
306.644	43.98
306.859	40.83
307.074	34.8
307.288	37.71
307.503	29.82
307.717	29.76
307.932	32.58
308.147	30.59
308.361	30.02
308.576	28.64
308.79	25.37
309.005	29.68
309.219	32.3
309.434	25.66
309.648	12.5
309.863	13.88
310.077	20.77
310.292	26.25
310.506	31.73
310.72	30.25
310.935	29.95
311.149	38.38
311.364	43.8
311.578	34.38
311.792	28.35
312.007	17.58
312.221	20.54
312.435	21.76
312.649	35.2
312.864	16.18
313.078	26.82
313.292	33.59
313.507	46.5
313.721	48.28
313.935	61.31
314.149	40.34
314.363	55.83
314.578	70.89
314.792	68.81
315.006	60.51
315.22	56.88
315.434	47.54
315.648	49.78
315.862	41.27
316.077	31.28
316.291	36.01
316.505	37.13
316.719	25.71
316.933	28.58
317.147	24.18
317.361	26.15
317.575	21.45
317.789	15.48
318.003	18.05
318.217	25.11
318.431	23.96
318.645	31.62
318.859	21.33
319.073	22.12
319.287	28.34
319.5	28.11
319.714	25.65
319.928	32.2
320.142	27.44
320.356	36.25
320.57	37.49
320.784	39.4
320.997	44.27
321.211	49.12
321.425	34.62
321.639	32.11
321.853	26.83
322.066	21.84
322.28	13.76
322.494	4.2
322.707	3.76
322.921	8.69
323.135	10.95
323.349	14.42
323.562	16.12
323.776	17.75
323.989	20.05
324.203	27.1
324.417	17.07
324.63	6.59
324.844	-2.69
325.057	7.51
325.271	-0.31
325.485	1.63
325.698	-6.48
325.912	3.73
326.125	19.76
326.339	25.6
326.552	20.87
326.766	36.46
326.979	41.69
327.193	44.43
327.406	48.61
327.619	33.18
327.833	33.18
328.046	25.32
328.26	14.26
328.473	11.53
328.686	12.61
328.9	12.18
329.113	21.82
329.326	31.62
329.54	41.56
329.753	44.12
329.966	40.14
330.179	39.69
330.393	44.88
330.606	43.77
330.819	43.21
331.032	41.87
331.246	42.18
331.459	40.03
331.672	37.22
331.885	31.85
332.098	37.33
332.311	27.83
332.525	28.14
332.738	26.63
332.951	24.85
333.164	26.91
333.377	22.38
333.59	14.44
333.803	22.41
334.016	9.45
334.229	9.55
334.442	27.73
334.655	44.2
334.868	47.81
335.081	61.1
335.294	58.71
335.507	66.59
335.72	50.24
335.933	45.61
336.146	31.51
336.359	25.29
336.572	20.66
336.785	25.03
336.997	18.21
337.21	38.98
337.423	37.05
337.636	42.53
337.849	47.9
338.062	47.55
338.274	47.72
338.487	39.32
338.7	34.47
338.913	28.79
339.125	24.18
339.338	28.32
339.551	28.96
339.763	27.68
339.976	25.57
340.189	25.52
340.402	26.64
340.614	27.02
340.827	14.72
341.039	14.55
341.252	13.16
341.465	10.73
341.677	6.71
341.89	13.11
342.102	22.19
342.315	33.53
342.527	29.19
342.74	28.22
342.952	33.89
343.165	43.39
343.377	42.24
343.59	35.34
343.802	29.41
344.015	33.07
344.227	28.93
344.44	24.17
344.652	21.76
344.864	26.56
345.077	23
345.289	26.21
345.502	27.42
345.714	26.75
345.926	38.24
346.139	36.75
346.351	19.37
346.563	25.97
346.775	16.69
346.988	12.1
347.2	20.34
347.412	18.03
347.624	17.73
347.837	22.03
348.049	19
348.261	23.26
348.473	22.92
348.685	25.8
348.897	22.63
349.11	18.66
349.322	17.93
349.534	14.12
349.746	24.51
349.958	25.19
350.17	22.91
350.382	25.21
350.594	25.65
350.806	34.52
351.018	47.56
351.23	39.95
351.442	34.32
351.654	36.09
351.866	36.31
352.078	42.32
352.29	36.44
352.502	24.37
352.714	20.9
352.926	26.56
353.138	19.03
353.35	14.69
353.561	7.33
353.773	9.94
353.985	10.34
354.197	7.33
354.409	7.25
354.621	11.13
354.832	8.03
355.044	18.24
355.256	15.11
355.468	14.05
355.679	14.17
355.891	12.15
356.103	16
356.314	20.3
356.526	10.26
356.738	2.15
356.949	-5.86
357.161	-0.81
357.373	4.81
357.584	10.22
357.796	8.66
358.008	15.6
358.219	25.73
358.431	32.72
358.642	27.91
358.854	22.43
359.065	16.68
359.277	10.57
359.488	5.4
359.7	13.4
359.911	12.73
360.123	16.93
360.334	16.34
360.546	5.74
360.757	18.67
360.969	29.87
361.18	15.2
361.391	20.59
361.603	21.59
361.814	22.25
362.025	30.19
362.237	24.45
362.448	21.53
362.659	22.42
362.871	30.23
363.082	30.51
363.293	37.33
363.504	43.5
363.716	45.03
363.927	40.14
364.138	48.64
364.349	44.81
364.56	39.55
364.772	34.85
364.983	21.65
365.194	19.26
365.405	24.25
365.616	15.46
365.827	14.96
366.038	32.13
366.25	31.4
366.461	39.02
366.672	37.26
366.883	36.53
367.094	33.95
367.305	29.95
367.516	31.75
367.727	28.26
367.938	27.21
368.149	29.27
368.36	26.45
368.571	29.34
368.781	30.15
368.992	18.86
369.203	19.91
369.414	15.89
369.625	17.77
369.836	21.1
370.047	21.67
370.258	19.49
370.468	25.39
370.679	25.11
370.89	31.31
371.101	27.55
371.312	23.26
371.522	23.3
371.733	17.41
371.944	15.48
372.155	5.15
372.365	-0.09
372.576	2.8
372.787	3.47
372.997	-1.44
373.208	11.46
373.419	12.8
373.629	28.73
373.84	27.85
374.05	26.2
374.261	25.11
374.472	19.22
374.682	8.99
374.893	6.41
375.103	9.22
375.314	9.85
375.524	9.8
375.735	12.89
375.945	22.9
376.156	29.06
376.366	31.24
376.577	28.18
376.787	31.37
376.997	34.18
377.208	29.62
377.418	30.23
377.629	25.58
377.839	26.82
378.049	29.18
378.26	32.76
378.47	32.86
378.68	31.8
378.89	25.83
379.101	18.07
379.311	9.66
379.521	2.81
379.732	-14.36
379.942	-12.17
380.152	-5.7
380.362	0.49
380.572	14.51
380.783	18.1
380.993	21.61
381.203	29.79
381.413	28.22
381.623	27.84
381.833	23.78
382.043	15.04
382.253	13.57
382.463	14.82
382.674	13.25
382.884	9.59
383.094	10.42
383.304	13.19
383.514	18.49
383.724	18.54
383.934	16.86
384.144	22.84
384.353	25.97
384.563	18.17
384.773	18.08
384.983	19.46
385.193	20.92
385.403	20.93
385.613	14.53
385.823	11.75
386.033	16.97
386.242	16.15
386.452	8.28
386.662	9.56
386.872	8.03
387.082	7.85
387.291	7.73
387.501	5.58
387.711	5.54
387.921	9.25
388.13	7.44
388.34	4.76
388.55	7.83
388.759	10.23
388.969	8.15
389.179	9.35
389.388	10.16
389.598	9.59
389.807	11.17
390.017	8.91
390.227	7.12
390.436	7.65
390.646	7.81
390.855	7.72
391.065	6.77
391.274	5.86
391.484	7.39
391.693	7.17
391.903	7.37
392.112	5.42
392.322	5.06
392.531	5.8
392.74	5.28
392.95	4.91
393.159	6.07
393.369	6.25
393.578	6.65
393.787	6.65
393.997	7.25
394.206	7.77
394.415	8.22
394.625	6.43
394.834	5.7
395.043	5.88
395.252	6.06
395.462	5.72
395.671	5.41
395.88	4.91
396.089	5.18
396.298	5.37
396.508	5.07
396.717	4.63
396.926	4.36
397.135	4.24
397.344	3.91
397.553	4.24
397.762	4.49
397.971	4.69
398.181	4.18
398.39	4.13
398.599	4.34
398.808	4.29
399.017	4.26
399.226	4.39
399.435	3.93
399.644	4.08
399.853	4.18
400.062	4.04
400.27	4.18
400.479	4.12
400.688	3.99
400.897	4.32
401.106	4.49
401.315	4.28
401.524	4.41
401.733	4.46
401.941	4.32
402.15	4.01
402.359	3.82
402.568	3.83
402.777	3.77
402.985	3.51
403.194	3.36
403.403	3.2
403.612	3.37
403.82	3.37
404.029	3.31
404.238	3.38
404.446	3.39
404.655	3.23
404.864	3.27
405.072	3.32
405.281	3.25
405.489	3.19
405.698	3.13
405.906	3.17
406.115	3.28
406.324	3.29
406.532	3.16
406.741	3.21
406.949	3.2
407.158	3.22
407.366	3.32
407.574	3.38
407.783	3.37
407.991	3.33
408.2	3.34
408.408	3.39
408.617	3.39
408.825	3.38
409.033	3.3
409.242	3.29
409.45	3.3
409.658	3.29
409.867	3.23
410.075	3.14
410.283	3.02
410.491	2.96
410.7	3
410.908	3.04
411.116	2.93
411.324	2.95
411.533	2.88
411.741	2.91
411.949	2.98
412.157	2.97
412.365	2.91
412.573	2.98
412.781	2.96
412.99	3.09
413.198	3.15
413.406	3.14
413.614	3.16
413.822	3.15
414.03	3.06
414.238	3.08
414.446	2.99
414.654	2.93
414.862	2.89
415.07	2.9
415.278	2.87
415.486	3.02
415.694	2.88
415.902	2.89
416.109	2.93
416.317	2.87
416.525	2.84
416.733	2.98
416.941	2.83
417.149	3.02
417.357	3.03
417.564	3.01
417.772	3.04
417.98	2.97
418.188	2.78
418.395	2.82
418.603	2.64
418.811	2.58
419.019	2.53
419.226	2.65
419.434	2.6
419.642	2.61
419.849	2.62
420.057	2.74
420.265	2.84
420.472	2.85
420.68	2.77
420.887	2.78
421.095	2.84
421.302	2.85
421.51	2.83
421.717	2.85
421.925	2.79
422.132	2.74
422.34	2.81
422.547	2.78
422.755	2.81
422.962	2.63
423.17	2.52
423.377	2.65
423.585	2.65
423.792	2.6
423.999	2.65
424.207	2.55
424.414	2.74
424.621	2.78
424.829	2.65
425.036	2.66
425.243	2.71
425.451	2.68
425.658	2.88
425.865	2.76
426.072	2.77
426.28	2.81
426.487	2.77
426.694	2.64
426.901	2.56
427.108	2.44
427.315	2.47
427.523	2.51
427.73	2.53
427.937	2.62
428.144	2.69
428.351	2.77
428.558	2.72
428.765	2.68
428.972	2.71
429.179	2.64
429.386	2.62
429.593	2.53
429.8	2.56
430.007	2.59
430.214	2.62
430.421	2.53
430.628	2.42
430.835	2.4
431.042	2.51
431.249	2.53
431.456	2.56
431.662	2.61
431.869	2.65
432.076	2.8
432.283	2.74
432.49	2.71
432.697	2.71
432.903	2.74
433.11	2.76
433.317	2.8
433.524	2.73
433.73	2.82
433.937	2.84
434.144	2.85
434.35	2.8
434.557	2.77
434.764	2.71
434.97	2.78
435.177	2.71
435.384	2.72
435.59	2.74
435.797	2.74
436.003	2.71
436.21	2.69
436.416	2.66
436.623	2.76
436.829	2.77
437.036	2.75
437.242	2.78
437.449	2.84
437.655	2.89
437.862	2.91
438.068	2.94
438.275	2.9
438.481	2.95
438.687	2.96
438.894	2.92
439.1	2.97
439.307	3.01
439.513	2.98
439.719	3.02
439.926	3.05
440.132	3.06
440.338	3.12
440.544	3.04
440.751	3.02
440.957	2.96
441.163	2.99
441.369	2.97
441.575	2.94
441.782	2.87
441.988	2.9
442.194	2.97
442.4	3.04
442.606	3.01
442.812	3.01
443.018	3.06
443.224	3.1
443.431	3.18
443.637	3.12
443.843	3.11
444.049	3.08
444.255	3.08
444.461	3.08
444.667	3.12
444.873	3.07
445.079	3.18
445.284	3.16
445.49	3.15
445.696	3.17
445.902	3.21
446.108	3.16
446.314	3.23
446.52	3.16
446.726	3.21
446.931	3.32
447.137	3.35
447.343	3.32
447.549	3.33
447.755	3.21
447.96	3.17
448.166	3.18
448.372	3.13
448.578	3.1
448.783	3.12
448.989	3.19
449.195	3.24
449.4	3.3
449.606	3.24
449.812	3.28
450.017	3.28
450.223	3.27
450.428	3.2
450.634	3.27
450.84	3.26
451.045	3.3
451.251	3.32
451.456	3.33
451.662	3.29
451.867	3.33
452.073	3.24
452.278	3.25
452.483	3.27
452.689	3.27
452.894	3.22
453.1	3.23
453.305	3.23
453.51	3.27
453.716	3.26
453.921	3.29
454.127	3.24
454.332	3.31
454.537	3.39
454.742	3.35
454.948	3.33
455.153	3.34
455.358	3.41
455.563	3.46
455.769	3.45
455.974	3.34
456.179	3.34
456.384	3.37
456.589	3.4
456.795	3.31
457	3.29
457.205	3.27
457.41	3.34
457.615	3.41
457.82	3.46
458.025	3.46
458.23	3.5
458.435	3.47
458.64	3.55
458.845	3.53
459.05	3.5
459.255	3.45
459.46	3.45
459.665	3.49
459.87	3.56
460.075	3.53
460.28	3.59
460.485	3.66
460.69	3.66
460.895	3.72
461.099	3.67
461.304	3.67
461.509	3.6
461.714	3.59
461.919	3.54
462.123	3.59
462.328	3.56
462.533	3.6
462.738	3.59
462.942	3.67
463.147	3.7
463.352	3.75
463.556	3.78
463.761	3.78
463.966	3.8
464.17	3.81
464.375	3.79
464.58	3.77
464.784	3.75
464.989	3.74
465.193	3.77
465.398	3.79
465.602	3.83
465.807	3.83
466.011	3.87
466.216	3.88
466.42	3.9
466.625	3.88
466.829	3.89
467.034	3.91
467.238	3.95
467.443	3.96
467.647	4.02
467.851	4.02
468.056	4.01
468.26	3.96
468.464	3.93
468.669	3.93
468.873	3.94
469.077	3.9
469.282	3.92
469.486	3.98
469.69	4.07
469.894	4.15
470.099	4.14
470.303	4.18
470.507	4.22
470.711	4.22
470.915	4.24
471.119	4.2
471.324	4.12
471.528	4.16
471.732	4.13
471.936	4.15
472.14	4.15
472.344	4.15
472.548	4.2
472.752	4.28
472.956	4.29
473.16	4.33
473.364	4.31
473.568	4.32
473.772	4.38
473.976	4.36
474.18	4.36
474.384	4.35
474.588	4.33
474.792	4.29
474.995	4.28
475.199	4.26
475.403	4.3
475.607	4.27
475.811	4.3
476.015	4.36
476.218	4.4
476.422	4.43
476.626	4.4
476.83	4.35
477.033	4.39
477.237	4.36
477.441	4.34
477.644	4.34
477.848	4.36
478.052	4.38
478.255	4.38
478.459	4.4
478.663	4.43
478.866	4.42
479.07	4.44
479.273	4.43
479.477	4.46
479.681	4.47
479.884	4.38
480.088	4.39
480.291	4.44
480.495	4.47
480.698	4.46
480.901	4.45
481.105	4.5
481.308	4.52
481.512	4.52
481.715	4.52
481.919	4.52
482.122	4.52
482.325	4.54
482.529	4.55
482.732	4.59
482.935	4.63
483.138	4.64
483.342	4.64
483.545	4.72
483.748	4.75
483.952	4.76
484.155	4.79
484.358	4.76
484.561	4.76
484.764	4.78
484.967	4.77
485.171	4.73
485.374	4.74
485.577	4.74
485.78	4.72
485.983	4.71
486.186	4.69
486.389	4.66
486.592	4.69
486.795	4.65
486.998	4.62
487.201	4.66
487.404	4.72
487.607	4.69
487.81	4.73
488.013	4.68
488.216	4.67
488.419	4.69
488.622	4.66
488.825	4.62
489.028	4.62
489.231	4.59
489.433	4.62
489.636	4.6
489.839	4.58
490.042	4.58
490.245	4.62
490.447	4.61
490.65	4.64
490.853	4.63
491.056	4.65
491.258	4.71
491.461	4.71
491.664	4.65
491.866	4.69
492.069	4.67
492.272	4.68
492.474	4.67
492.677	4.65
492.879	4.67
493.082	4.72
493.285	4.69
493.487	4.68
493.69	4.67
493.892	4.74
494.095	4.73
494.297	4.74
494.5	4.73
494.702	4.76
494.905	4.82
495.107	4.83
495.309	4.8
495.512	4.82
495.714	4.84
495.917	4.84
496.119	4.86
496.321	4.87
496.524	4.87
496.726	4.87
496.928	4.86
497.13	4.87
497.333	4.92
497.535	4.93
497.737	4.91
497.939	4.91
498.142	4.93
498.344	4.95
498.546	5.01
498.748	4.99
498.95	4.96
499.152	4.96
499.355	4.98
499.557	4.98
499.759	5.04
499.961	5.01
500.163	5.07
500.365	5.08
500.567	5.1
500.769	5.15
500.971	5.16
501.173	5.12
501.375	5.08
501.577	5.05
501.779	5.08
501.981	5.09
502.183	5.07
502.385	5.07
502.587	5.05
502.788	5.05
502.99	5.06
503.192	5.03
503.394	5.07
503.596	5.09
503.798	5.17
503.999	5.19
504.201	5.22
504.403	5.21
504.605	5.23
504.806	5.21
505.008	5.2
505.21	5.16
505.411	5.15
505.613	5.15
505.815	5.16
506.016	5.17
506.218	5.16
506.42	5.19
506.621	5.19
506.823	5.23
507.024	5.21
507.226	5.2
507.427	5.16
507.629	5.16
507.83	5.11
508.032	5.13
508.233	5.13
508.435	5.16
508.636	5.15
508.838	5.2
509.039	5.21
509.24	5.2
509.442	5.13
509.643	5.15
509.845	5.13
510.046	5.19
510.247	5.2
510.448	5.21
510.65	5.24
510.851	5.29
511.052	5.28
511.254	5.3
511.455	5.28
511.656	5.25
511.857	5.25
512.058	5.25
512.26	5.23
512.461	5.22
512.662	5.17
512.863	5.18
513.064	5.15
513.265	5.18
513.466	5.21
513.667	5.23
513.868	5.21
514.069	5.28
514.27	5.29
514.471	5.35
514.672	5.33
514.873	5.31
515.074	5.33
515.275	5.34
515.476	5.35
515.677	5.35
515.878	5.38
516.079	5.41
516.28	5.39
516.481	5.34
516.682	5.35
516.882	5.31
517.083	5.3
517.284	5.26
517.485	5.27
517.686	5.25
517.886	5.31
518.087	5.35
518.288	5.36
518.488	5.37
518.689	5.37
518.89	5.37
519.091	5.43
519.291	5.4
519.492	5.36
519.692	5.39
519.893	5.39
520.094	5.41
520.294	5.38
520.495	5.36
520.695	5.38
520.896	5.41
521.096	5.42
521.297	5.44
521.497	5.46
521.698	5.48
521.898	5.5
522.099	5.49
522.299	5.49
522.499	5.49
522.7	5.48
522.9	5.46
523.101	5.47
523.301	5.47
523.501	5.48
523.702	5.46
523.902	5.47
524.102	5.47
524.302	5.47
524.503	5.47
524.703	5.49
524.903	5.51
525.103	5.49
525.304	5.51
525.504	5.51
525.704	5.51
525.904	5.51
526.104	5.52
526.304	5.52
526.504	5.54
526.705	5.54
526.905	5.56
527.105	5.59
527.305	5.57
527.505	5.54
527.705	5.53
527.905	5.56
528.105	5.56
528.305	5.54
528.505	5.54
528.705	5.57
528.905	5.55
529.105	5.57
529.304	5.58
529.504	5.58
529.704	5.62
529.904	5.64
530.104	5.64
530.304	5.67
530.503	5.67
530.703	5.69
530.903	5.7
531.103	5.68
531.303	5.7
531.502	5.7
531.702	5.68
531.902	5.68
532.101	5.65
532.301	5.62
532.501	5.67
532.7	5.65
532.9	5.68
533.1	5.68
533.299	5.72
533.499	5.75
533.698	5.8
533.898	5.8
534.097	5.8
534.297	5.81
534.496	5.84
534.696	5.82
534.895	5.85
535.095	5.84
535.294	5.79
535.494	5.83
535.693	5.83
535.892	5.84
536.092	5.85
536.291	5.87
536.491	5.91
536.69	5.96
536.889	5.93
537.088	5.93
537.288	5.95
537.487	5.95
537.686	5.95
537.886	5.95
538.085	5.94
538.284	5.97
538.483	6
538.682	6.01
538.882	6.04
539.081	6.07
539.28	6.08
539.479	6.1
539.678	6.14
539.877	6.18
540.076	6.18
540.275	6.2
540.474	6.17
540.673	6.16
540.872	6.19
541.071	6.19
541.27	6.19
541.469	6.22
541.668	6.26
541.867	6.33
542.066	6.35
542.265	6.38
542.464	6.41
542.663	6.44
542.862	6.49
543.06	6.52
543.259	6.5
543.458	6.52
543.657	6.53
543.856	6.54
544.054	6.55
544.253	6.51
544.452	6.49
544.651	6.52
544.849	6.55
545.048	6.59
545.247	6.61
545.445	6.6
545.644	6.67
545.843	6.68
546.041	6.7
546.24	6.76
546.438	6.76
546.637	6.8
546.836	6.86
547.034	6.87
547.233	6.9
547.431	6.92
547.63	6.94
547.828	6.97
548.027	6.99
548.225	7.03
548.423	7.07
548.622	7.14
548.82	7.19
549.019	7.22
549.217	7.29
549.415	7.34
549.614	7.36
549.812	7.39
550.01	7.45
550.209	7.47
550.407	7.51
550.605	7.55
550.803	7.6
551.002	7.64
551.2	7.71
551.398	7.72
551.596	7.78
551.794	7.85
551.993	7.84
552.191	7.87
552.389	7.95
552.587	7.96
552.785	8.03
552.983	8.1
553.181	8.08
553.379	8.18
553.577	8.25
553.775	8.3
553.973	8.36
554.171	8.38
554.369	8.38
554.567	8.46
554.765	8.49
554.963	8.52
555.161	8.58
555.359	8.62
555.557	8.74
555.755	8.85
555.952	8.93
556.15	9
556.348	9.06
556.546	9.13
556.744	9.2
556.941	9.21
557.139	9.27
557.337	9.3
557.535	9.36
557.732	9.44
557.93	9.48
558.128	9.54
558.325	9.6
558.523	9.65
558.721	9.74
558.918	9.8
559.116	9.86
559.313	9.95
559.511	9.99
559.708	10.08
559.906	10.18
560.104	10.29
560.301	10.34
560.498	10.41
560.696	10.46
560.893	10.56
561.091	10.62
561.288	10.66
561.486	10.7
561.683	10.82
561.88	10.88
562.078	10.94
562.275	11.01
562.473	11.08
562.67	11.15
562.867	11.23
563.064	11.32
563.262	11.43
563.459	11.51
563.656	11.63
563.853	11.73
564.051	11.84
564.248	11.89
564.445	11.95
564.642	12
564.839	12.1
565.036	12.17
565.234	12.26
565.431	12.33
565.628	12.45
565.825	12.54
566.022	12.59
566.219	12.66
566.416	12.73
566.613	12.8
566.81	12.82
567.007	12.85
567.204	12.88
567.401	12.98
567.598	13.02
567.795	13.08
567.991	13.13
568.188	13.19
568.385	13.27
568.582	13.34
568.779	13.38
568.976	13.47
569.172	13.53
569.369	13.53
569.566	13.62
569.763	13.68
569.96	13.73
570.156	13.79
570.353	13.82
570.55	13.85
570.746	13.91
570.943	13.99
571.14	14.02
571.336	14.03
571.533	14.07
571.729	14.1
571.926	14.18
572.123	14.25
572.319	14.25
572.516	14.26
572.712	14.32
572.909	14.34
573.105	14.41
573.302	14.4
573.498	14.4
573.695	14.41
573.891	14.46
574.087	14.53
574.284	14.54
574.48	14.55
574.677	14.59
574.873	14.66
575.069	14.71
575.266	14.73
575.462	14.78
575.658	14.83
575.854	14.82
576.051	14.82
576.247	14.79
576.443	14.8
576.639	14.8
576.835	14.75
577.032	14.78
577.228	14.8
577.424	14.84
577.62	14.86
577.816	14.88
578.012	14.89
578.208	14.91
578.404	14.92
578.6	14.92
578.796	14.93
578.993	14.92
579.189	14.91
579.384	14.9
579.58	14.9
579.776	14.86
579.972	14.87
580.168	14.85
580.364	14.85
580.56	14.86
580.756	14.84
580.952	14.86
581.148	14.89
581.343	14.88
581.539	14.89
581.735	14.89
581.931	14.87
582.127	14.85
582.322	14.85
582.518	14.83
582.714	14.82
582.909	14.8
583.105	14.76
583.301	14.74
583.496	14.73
583.692	14.69
583.888	14.65
584.083	14.67
584.279	14.65
584.474	14.64
584.67	14.62
584.866	14.63
585.061	14.64
585.257	14.67
585.452	14.65
585.648	14.65
585.843	14.68
586.039	14.7
586.234	14.71
586.429	14.7
586.625	14.69
586.82	14.67
587.015	14.66
587.211	14.67
587.406	14.66
587.601	14.68
587.797	14.64
587.992	14.64
588.187	14.7
588.383	14.72
588.578	14.66
588.773	14.7
588.968	14.7
589.163	14.77
589.359	14.81
589.554	14.79
589.749	14.8
589.944	14.88
590.139	14.87
590.334	14.9
590.529	14.92
590.724	14.88
590.919	14.92
591.114	14.97
591.309	15
591.504	15.05
591.699	15.05
591.894	15.11
592.089	15.17
592.284	15.17
592.479	15.19
592.674	15.18
592.869	15.23
593.064	15.28
593.259	15.27
593.454	15.32
593.648	15.37
593.843	15.45
594.038	15.47
594.233	15.53
594.428	15.63
594.622	15.69
594.817	15.71
595.012	15.75
595.206	15.77
595.401	15.79
595.596	15.87
595.79	15.84
595.985	15.91
596.18	15.97
596.374	16.07
596.569	16.11
596.763	16.25
596.958	16.22
597.153	16.31
597.347	16.35
597.542	16.41
597.736	16.49
597.931	16.57
598.125	16.63
598.319	16.73
598.514	16.8
598.708	16.85
598.903	16.92
599.097	16.96
599.291	17
599.486	16.99
599.68	17.02
599.874	17.07
600.069	17.13
600.263	17.14
600.457	17.13
600.651	17.15
600.846	17.2
601.04	17.17
601.234	17.18
601.428	17.21
601.622	17.24
601.817	17.28
602.011	17.36
602.205	17.41
602.399	17.45
602.593	17.47
602.787	17.46
602.981	17.48
603.175	17.44
603.369	17.41
603.563	17.41
603.757	17.45
603.951	17.45
604.145	17.45
604.339	17.42
604.533	17.43
604.727	17.43
604.921	17.37
605.115	17.34
605.309	17.33
605.502	17.3
605.696	17.24
605.89	17.27
606.084	17.23
606.278	17.19
606.471	17.13
606.665	17.11
606.859	17.07
607.053	17.11
607.246	17.04
607.44	16.96
607.634	16.95
607.827	16.9
608.021	16.79
608.214	16.77
608.408	16.74
608.602	16.69
608.795	16.66
608.989	16.59
609.182	16.6
609.376	16.58
609.569	16.49
609.763	16.43
609.956	16.35
610.15	16.34
610.343	16.33
610.537	16.26
610.73	16.23
610.923	16.18
611.117	16.13
611.31	16.07
611.504	16
611.697	15.94
611.89	15.87
612.083	15.79
612.277	15.78
612.47	15.65
612.663	15.64
612.856	15.53
613.05	15.44
613.243	15.37
613.436	15.33
613.629	15.26
613.822	15.27
614.015	15.19
614.209	15.21
614.402	15.13
614.595	15.06
614.788	14.99
614.981	14.94
615.174	14.82
615.367	14.75
615.56	14.6
615.753	14.58
615.946	14.59
616.139	14.58
616.332	14.49
616.525	14.46
616.718	14.43
616.911	14.44
617.103	14.39
617.296	14.3
617.489	14.23
617.682	14.19
617.875	14.15
618.067	14.07
618.26	14.03
618.453	14
618.646	13.97
618.838	13.95
619.031	13.95
619.224	13.93
619.417	13.95
619.609	13.91
619.802	13.89
619.994	13.85
620.187	13.82
620.38	13.75
620.572	13.78
620.765	13.72
620.957	13.68
621.15	13.65
621.342	13.63
621.535	13.6
621.727	13.61
621.92	13.53
622.112	13.56
622.305	13.55
622.497	13.51
622.69	13.48
622.882	13.47
623.074	13.45
623.267	13.44
623.459	13.37
623.651	13.41
623.844	13.45
624.036	13.44
624.228	13.39
624.42	13.39
624.613	13.35
624.805	13.38
624.997	13.33
625.189	13.28
625.381	13.25
625.574	13.27
625.766	13.24
625.958	13.22
626.15	13.2
626.342	13.16
626.534	13.16
626.726	13.17
626.918	13.12
627.11	13.07
627.302	13.04
627.494	13.04
627.686	12.97
627.878	12.91
628.07	12.87
628.262	12.83
628.454	12.85
628.646	12.81
628.838	12.74
629.029	12.69
629.221	12.66
629.413	12.59
629.605	12.57
629.797	12.51
629.989	12.53
630.18	12.44
630.372	12.45
630.564	12.46
630.755	12.45
630.947	12.42
631.139	12.39
631.33	12.33
631.522	12.38
631.714	12.37
631.905	12.34
632.097	12.34
632.289	12.29
632.48	12.28
632.672	12.21
632.863	12.17
633.055	12.15
633.246	12.16
633.438	12.11
633.629	12.13
633.821	12.15
634.012	12.17
634.203	12.19
634.395	12.18
634.586	12.12
634.777	12.09
634.969	12.1
635.16	12.03
635.351	12.01
635.543	11.96
635.734	11.95
635.925	11.97
636.117	11.98
636.308	11.92
636.499	11.9
636.69	11.95
636.881	11.95
637.073	11.94
637.264	11.89
637.455	11.94
637.646	11.93
637.837	11.97
638.028	11.96
638.219	11.95
638.41	11.88
638.601	11.88
638.792	11.76
638.983	11.73
639.174	11.71
639.365	11.63
639.556	11.61
639.747	11.66
639.938	11.62
640.129	11.6
640.32	11.63
640.511	11.61
640.701	11.63
640.892	11.59
641.083	11.52
641.274	11.53
641.465	11.57
641.655	11.56
641.846	11.5
642.037	11.43
642.228	11.44
642.418	11.42
642.609	11.41
642.8	11.38
642.99	11.32
643.181	11.35
643.372	11.38
643.562	11.34
643.753	11.35
643.943	11.3
644.134	11.28
644.324	11.31
644.515	11.27
644.705	11.25
644.896	11.25
645.086	11.23
645.277	11.25
645.467	11.24
645.658	11.18
645.848	11.19
646.038	11.16
646.229	11.11
646.419	11.1
646.61	11.06
646.8	11.07
646.99	11.02
647.18	11
647.371	10.97
647.561	10.95
647.751	10.9
647.941	10.88
648.132	10.86
648.322	10.89
648.512	10.87
648.702	10.84
648.892	10.89
649.082	10.87
649.272	10.85
649.462	10.82
649.653	10.81
649.843	10.76
650.033	10.75
650.223	10.72
650.413	10.77
650.603	10.74
650.793	10.69
650.983	10.68
651.172	10.65
651.362	10.66
651.552	10.6
651.742	10.54
651.932	10.53
652.122	10.51
652.312	10.4
652.502	10.43
652.691	10.42
652.881	10.34
653.071	10.28
653.261	10.2
653.45	10.15
653.64	10.16
653.83	10.09
654.019	9.92
654.209	9.92
654.399	9.84
654.588	9.79
654.778	9.73
654.968	9.61
655.157	9.46
655.347	9.4
655.536	9.28
655.726	9.25
655.915	9.15
656.105	9.07
656.294	8.98
656.484	8.94
656.673	8.92
656.863	8.87
657.052	8.73
657.241	8.64
657.431	8.51
657.62	8.4
657.809	8.32
657.999	8.19
658.188	8.04
658.377	7.97
658.567	7.88
658.756	7.77
658.945	7.74
659.134	7.59
659.324	7.46
659.513	7.36
659.702	7.26
659.891	7.09
660.08	7.06
660.269	6.94
660.458	6.89
660.648	6.84
660.837	6.8
661.026	6.75
661.215	6.76
661.404	6.69
661.593	6.62
661.782	6.52
661.971	6.44
662.16	6.36
662.349	6.24
662.538	6.21
662.726	6.09
662.915	6.03
663.104	5.94
663.293	5.88
663.482	5.8
663.671	5.77
663.86	5.7
664.048	5.68
664.237	5.64
664.426	5.68
664.615	5.66
664.803	5.62
664.992	5.68
665.181	5.63
665.369	5.61
665.558	5.59
665.747	5.58
665.935	5.59
666.124	5.62
666.312	5.48
666.501	5.44
666.69	5.46
666.878	5.42
667.067	5.43
667.255	5.37
667.444	5.36
667.632	5.42
667.82	5.43
668.009	5.45
668.197	5.53
668.386	5.52
668.574	5.57
668.762	5.55
668.951	5.53
669.139	5.62
669.327	5.59
669.516	5.6
669.704	5.62
669.892	5.61
670.08	5.65
670.269	5.72
670.457	5.7
670.645	5.76
670.833	5.8
671.021	5.81
671.21	5.92
671.398	5.96
671.586	6
671.774	6.04
671.962	6.07
672.15	6.08
672.338	6.17
672.526	6.16
672.714	6.22
672.902	6.25
673.09	6.38
673.278	6.42
673.466	6.55
673.654	6.56
673.842	6.61
674.03	6.63
674.218	6.7
674.405	6.75
674.593	6.78
674.781	6.78
674.969	6.81
675.157	6.89
675.344	6.98
675.532	7.01
675.72	7.02
675.908	7.11
676.095	7.21
676.283	7.27
676.471	7.32
676.658	7.39
676.846	7.5
677.033	7.58
677.221	7.64
677.409	7.67
677.596	7.81
677.784	7.83
677.971	7.88
678.159	7.91
678.346	7.94
678.534	7.96
678.721	7.95
678.909	8
679.096	8.04
679.283	8.12
679.471	8.26
679.658	8.35
679.846	8.5
680.033	8.61
680.22	8.6
680.408	8.73
680.595	8.78
680.782	8.78
680.969	8.85
681.157	8.89
681.344	8.97
681.531	9.1
681.718	9.2
681.905	9.27
682.093	9.39
682.28	9.45
682.467	9.47
682.654	9.55
682.841	9.66
683.028	9.77
683.215	9.87
683.402	9.92
683.589	10.08
683.776	10.22
683.963	10.32
684.15	10.38
684.337	10.45
684.524	10.66
684.711	10.71
684.898	10.79
685.085	10.93
685.271	11.1
685.458	11.33
685.645	11.48
685.832	11.55
686.019	11.81
686.205	11.9
686.392	12.09
686.579	12.28
686.766	12.49
686.952	12.79
687.139	13.02
687.326	13.35
687.512	13.7
687.699	13.93
687.886	14.12
688.072	14.36
688.259	14.57
688.445	14.8
688.632	15.11
688.818	15.4
689.005	15.8
689.191	16.26
689.378	16.59
689.564	16.97
689.751	17.49
689.937	17.79
690.124	18.19
690.31	18.57
690.496	19.06
690.683	19.57
690.869	19.97
691.055	20.53
691.242	21.02
691.428	21.59
691.614	22.14
691.8	22.5
691.987	23.03
692.173	23.59
692.359	23.98
692.545	24.49
692.731	24.91
692.918	25.46
693.104	26.07
693.29	26.65
693.476	27.17
693.662	27.71
693.848	28.26
694.034	28.8
694.22	29.33
694.406	29.99
694.592	30.52
694.778	31.22
694.964	31.76
695.15	32.56
695.336	33.49
695.522	34.15
695.708	34.72
695.894	35.45
696.08	36.03
696.265	36.75
696.451	37.37
696.637	37.99
696.823	38.56
697.009	39.22
697.194	39.83
697.38	40.38
697.566	40.96
697.751	41.56
697.937	42
698.123	42.63
698.308	43.11
698.494	43.76
698.68	44.54
698.865	45.3
699.051	45.76
699.236	46.38
699.422	46.98
699.607	47.62
699.793	48.01
699.978	48.51
700.164	49.13
700.349	49.69
700.535	50.23
700.72	50.8
700.906	51.31
701.091	52.02
701.276	52.63
701.462	53.07
701.647	53.56
701.832	54.11
702.018	54.61
702.203	55.14
702.388	55.27
702.573	55.59
702.759	55.88
702.944	56.33
703.129	56.75
703.314	57.24
703.499	57.76
703.684	58.51
703.87	59.03
704.055	59.58
704.24	60.03
704.425	60.68
704.61	60.94
704.795	61.31
704.98	61.54
705.165	62
705.35	62.21
705.535	62.66
705.72	62.79
705.905	63.12
706.09	63.41
706.275	63.71
706.459	64.13
706.644	64.79
706.829	65.07
707.014	65.46
707.199	65.87
707.384	66.36
707.568	67.02
707.753	67.29
707.938	67.45
708.123	67.66
708.307	68.1
708.492	68.29
708.677	68.54
708.861	68.5
709.046	68.5
709.231	68.88
709.415	69.23
709.6	69.18
709.784	69.67
709.969	69.89
710.153	70.49
710.338	71.11
710.522	71.21
710.707	71.37
710.891	71.85
711.076	72.08
711.26	72.34
711.445	72.33
711.629	72.44
711.813	72.54
711.998	72.7
712.182	73
712.366	73.18
712.551	73.39
712.735	73.64
712.919	73.93
713.103	74.27
713.288	74.75
713.472	74.71
713.656	74.67
713.84	74.78
714.024	75.1
714.208	75.14
714.393	75.25
714.577	75.22
714.761	75.42
714.945	75.71
715.129	75.82
715.313	75.83
715.497	76.08
715.681	76.56
715.865	76.89
716.049	77.04
716.233	77.34
716.417	78.01
716.601	78.11
716.785	78.17
716.968	78.01
717.152	78.12
717.336	78.13
717.52	78.23
717.704	78.07
717.888	78.25
718.071	78.46
718.255	78.61
718.439	78.55
718.622	78.9
718.806	78.75
718.99	78.85
719.174	78.86
719.357	79.01
719.541	79.28
719.724	79.56
719.908	79.49
720.092	80.04
720.275	80.07
720.459	80.35
720.642	80.48
720.826	80.74
721.009	80.73
721.193	81.07
721.376	81.07
721.559	81.33
721.743	81.42
721.926	81.3
722.11	81.27
722.293	81.1
722.476	81.09
722.66	81.16
722.843	81.25
723.026	81.17
723.21	81.39
723.393	81.53
723.576	81.96
723.759	82.16
723.942	82.27
724.126	82.14
724.309	82.89
724.492	82.96
724.675	83.03
724.858	83.34
725.041	83.41
725.224	83.7
725.407	83.63
725.59	83.37
725.774	83.56
725.957	83.82
726.14	83.99
726.322	84.08
726.505	84.42
726.688	85.21
726.871	85.41
727.054	85.5
727.237	85
727.42	85.23
727.603	85.34
727.786	85.32
727.968	85.26
728.151	85.41
728.334	85.47
728.517	86.36
728.699	86.66
728.882	87.09
729.065	87.17
729.248	87.25
729.43	87.18
729.613	87.35
729.796	87.17
729.978	87.12
730.161	87.42
730.343	87.72
730.526	87.69
730.708	88.1
730.891	88.34
731.073	88.53
731.256	88.41
731.438	88.21
731.621	88.3
731.803	88.59
731.986	88.42
732.168	88.55
732.35	88.69
732.533	88.94
732.715	88.95
732.898	88.73
733.08	89.07
733.262	89.42
733.444	89.33
733.627	89.58
733.809	89.91
733.991	90.25
734.173	90.08
734.355	90.02
734.538	89.86
734.72	90.55
734.902	90.6
735.084	90.75
735.266	91.06
735.448	91.75
735.63	91.66
735.812	92.02
735.994	91.68
736.176	91.74
736.358	91.59
736.54	91.05
736.722	90.7
736.904	91.04
737.086	90.78
737.268	91.2
737.45	91.64
737.632	91.32
737.814	91.8
737.995	92.51
738.177	93.16
738.359	93.46
738.541	93.19
738.723	93.23
738.904	93.83
739.086	94.1
739.268	94.44
739.449	94.19
739.631	94.62
739.813	94.67
739.994	94.94
740.176	95.07
740.358	94.93
740.539	94.34
740.721	94.25
740.902	93.82
741.084	94.57
741.265	94.03
741.447	93.39
741.628	93.22
741.81	93.47
741.991	93.66
742.172	93.72
742.354	93.57
742.535	94.25
742.717	94.93
742.898	95.56
743.079	95.74
743.261	96.07
743.442	96.89
743.623	96.69
743.804	96.63
743.986	96.25
744.167	95.82
744.348	96
744.529	95.25
744.71	94.55
744.891	94.28
745.073	94.08
745.254	94.63
745.435	94.6
745.616	94.28
745.797	94.07
745.978	94.75
746.159	94.8
746.34	94.84
746.521	94.88
746.702	94.69
746.883	94.8
747.064	94.99
747.245	95.2
747.426	95.52
747.606	95.22
747.787	94.94
747.968	95.3
748.149	95.36
748.33	96.17
748.51	95.65
748.691	96.1
748.872	96.24
749.053	96.37
749.233	96.36
749.414	96.73
749.595	95.92
749.775	95.98
749.956	95.06
750.137	95.17
750.317	95.39
750.498	95.89
750.678	95.87
750.859	95.86
751.04	95.45
751.22	95.11
751.4	95.34
751.581	94.33
751.761	94.14
751.942	93.69
752.122	93.47
752.303	93.44
752.483	95.15
752.663	95.71
752.844	95.8
753.024	95.53
753.204	95.69
753.385	96.03
753.565	95.96
753.745	95.23
753.925	94.26
754.106	94.88
754.286	95.42
754.466	95.04
754.646	94.78
754.826	95.48
755.006	94.91
755.187	94.9
755.367	94.55
755.547	94.4
755.727	94.64
755.907	95.9
756.087	95.28
756.267	95.25
756.447	95.23
756.627	95.38
756.807	95.62
756.987	96.47
757.167	95.8
757.346	95.42
757.526	95.89
757.706	95.71
757.886	96.15
758.066	96.41
758.246	95.98
758.425	96.29
758.605	96.53
758.785	96.52
758.965	95.88
759.144	95.79
759.324	95.22
759.504	94.71
759.683	93.94
759.863	94.29
760.043	94.05
760.222	94.42
760.402	94.61
760.581	94.1
760.761	93.75
760.94	93.14
761.12	93.16
761.299	92.59
761.479	93.52
761.658	93.32
761.838	93.34
762.017	94.02
762.197	95.43
762.376	94.66
762.555	94.72
762.735	93.33
762.914	93.17
763.093	93.1
763.273	92.36
763.452	91.45
763.631	91.16
763.81	91.9
763.99	92.6
764.169	92.14
764.348	93.09
764.527	93.06
764.706	93.81
764.885	94.83
765.064	95.06
765.243	95.13
765.423	96.53
765.602	95.29
765.781	95.77
765.96	95.74
766.139	95.51
766.318	95.08
766.497	94.93
766.676	94.76
766.854	94.83
767.033	93.63
767.212	92.18
767.391	91.63
767.57	91.23
767.749	91.1
767.928	89.71
768.106	89.91
768.285	91.46
768.464	92.37
768.643	93.36
768.821	93.17
769	93.98
769.179	93.14
769.357	92.81
769.536	92.6
769.715	91.6
769.893	90.8
770.072	90.35
770.25	89.11
770.429	90.34
770.607	90.52
770.786	89.18
770.964	88.88
771.143	89.33
771.321	89.67
771.5	89.34
771.678	89.52
771.857	89.76
772.035	89.97
772.213	90.7
772.392	91.11
772.57	91.7
772.748	91.87
772.927	91.34
773.105	91.39
773.283	90.99
773.461	90.91
773.64	89.94
773.818	89.81
773.996	90.4
774.174	90.87
774.352	90.35
774.531	89.85
774.709	90.78
774.887	90.97
775.065	90.57
775.243	91.55
775.421	90.59
775.599	89.69
775.777	90.96
775.955	89.7
776.133	88.55
776.311	88.52
776.489	87.7
776.667	88.22
776.844	89.1
777.022	89.52
777.2	90.31
777.378	92.01
777.556	92.58
777.734	92.84
777.911	92.7
778.089	91.32
778.267	91.25
778.445	90.93
778.622	88.29
778.8	87.13
778.978	86.67
779.155	86.12
779.333	85.34
779.511	84.15
779.688	82.7
779.866	83.34
780.043	84.09
780.221	85.16
780.398	86.6
780.576	87.85
780.753	87.89
780.931	90.09
781.108	91.27
781.286	90.29
781.463	88.98
781.64	88.01
781.818	88.65
781.995	89.83
782.172	89.67
782.35	88.38
782.527	89.8
782.704	89.51
782.882	90.89
783.059	90.17
783.236	90.01
783.413	89.5
783.59	90.29
783.768	89.5
783.945	90.18
784.122	88.32
784.299	89.26
784.476	89.25
784.653	88.51
784.83	88.31
785.007	88.34
785.184	88.42
785.361	89.57
785.538	90.24
785.715	89.22
785.892	88.85
786.069	89.37
786.246	88.21
786.423	88.43
786.6	87.29
786.776	85.52
786.953	84.77
787.13	85.9
787.307	86.72
787.484	88.03
787.66	86.75
787.837	88.34
788.014	88.64
788.191	88.52
788.367	89.63
788.544	87.84
788.721	87.99
788.897	89.86
789.074	88.36
789.25	88.54
789.427	89.2
789.603	88.81
789.78	91.74
789.956	90.73
790.133	88.99
790.309	88.94
790.486	90.57
790.662	91.13
790.839	89.54
791.015	88.67
791.192	90.87
791.368	91.85
791.544	93.52
791.721	91.02
791.897	89.89
792.073	89.46
792.249	89.98
792.426	89.19
792.602	88.78
792.778	86.77
792.954	87.92
793.13	90.14
793.307	88.57
793.483	86.81
793.659	86.4
793.835	84.76
794.011	84.99
794.187	82.2
794.363	81.22
794.539	82.32
794.715	82.14
794.891	80.41
795.067	81.77
795.243	81.19
795.419	83.25
795.595	80.56
795.771	82.79
795.947	81.79
796.122	82.79
796.298	81.67
796.474	82.99
796.65	83.95
796.826	88.1
797.001	87.84
797.177	89.59
797.353	92.6
797.529	96.38
797.704	95.75
797.88	94.45
798.056	93.12
798.231	90.91
798.407	89.72
798.582	86.55
798.758	85.23
798.934	84.56
799.109	82.41
799.285	86.22
799.46	88.55
799.636	87.84
799.811	88.82
799.986	88.18
800.162	87.48
800.337	90.64
800.513	88
800.688	86.97
800.863	88.87
801.039	85.18
801.214	82.77
801.389	82.67
801.565	85.98
801.74	84.33
801.915	83.81
802.09	82.25
802.265	86.53
802.441	89.3
802.616	93
802.791	90.47
802.966	88.5
803.141	82.97
803.316	84.13
803.491	81.97
803.666	81.11
803.841	78.51
804.016	76.58
804.191	80.01
804.366	84.82
804.541	84.1
804.716	81.98
804.891	86.33
805.066	86.94
805.241	84.84
805.416	81.82
805.591	85.86
805.765	87.6
805.94	90.13
806.115	81.83
806.29	80.5
806.464	81.63
806.639	82.73
806.814	79.7
806.989	78.92
807.163	77.66
807.338	81.01
807.512	77.76
807.687	78.79
807.862	77.35
808.036	77.54
808.211	79.35
808.385	78.47
808.56	84.91
808.734	85.81
808.909	85.46
809.083	85.35
809.258	87.94
809.432	82.41
809.606	83.47
809.781	79.11
809.955	82.96
810.13	87.01
810.304	89.07
810.478	85.04
810.652	90.45
810.827	87.28
811.001	85.32
811.175	80.78
811.349	78.4
811.524	76.97
811.698	78.29
811.872	77.92
812.046	78.45
812.22	79.63
812.394	81.55
812.568	81.15
812.742	82.6
812.916	82.45
813.09	77.84
813.264	80.48
813.438	80.54
813.612	79.26
813.786	79.69
813.96	79.61
814.134	80.45
814.308	77.81
814.482	80.36
814.656	82.09
814.83	88.59
815.003	88.54
815.177	86.52
815.351	85.63
815.525	87.43
815.698	84.7
815.872	79.85
816.046	73.59
816.219	75.56
816.393	66.73
816.567	61.98
816.74	62.25
816.914	64.04
817.088	62
817.261	63.09
817.435	59.83
817.608	70.39
817.782	76.28
817.955	76.83
818.129	75.24
818.302	78.48
818.475	76.71
818.649	70.72
818.822	70.61
818.996	69.66
819.169	70.94
819.342	72.12
819.516	71.22
819.689	75
819.862	75.74
820.035	73.84
820.209	70.85
820.382	66.49
820.555	63.66
820.728	63.33
820.901	61.08
821.075	71.59
821.248	69.22
821.421	68.4
821.594	68.73
821.767	71.98
821.94	65.87
822.113	64.98
822.286	63.3
822.459	70.42
822.632	78.72
822.805	84.98
822.978	75.17
823.151	81.71
823.324	81.11
823.496	75.04
823.669	75.42
823.842	72.27
824.015	62.14
824.188	71.83
824.361	75.97
824.533	79.56
824.706	96.72
824.879	93.14
825.051	93.87
825.224	102.91
825.397	93.69
825.569	96.6
825.742	100.18
825.915	88.96
826.087	83.55
826.26	86.19
826.432	88.21
826.605	88.57
826.777	86.55
826.95	76.45
827.122	80.72
827.295	75.98
827.467	70.1
827.64	63.61
827.812	61.84
827.984	62.62
828.157	63.26
828.329	53.36
828.501	68.74
828.674	66.38
828.846	64.1
829.018	70.41
829.19	59.42
829.363	59.28
829.535	65.89
829.707	55.64
829.879	54.24
830.051	53.74
830.223	52.01
830.395	52.62
830.568	59.16
830.74	54.97
830.912	60.88
831.084	59.23
831.256	64.8
831.428	69.37
831.6	73.86
831.772	68.57
831.943	73.67
832.115	74.34
832.287	80.38
832.459	76.86
832.631	70.51
832.803	78.73
832.975	82.58
833.146	77.66
833.318	76.47
833.49	77.84
833.662	78.44
833.833	81.11
834.005	78.57
834.177	78.8
834.348	81.54
834.52	82.24
834.692	83.86
834.863	87.2
835.035	75.98
835.206	75.08
835.378	67.69
835.549	68.93
835.721	61.25
835.892	52.54
836.064	53.86
836.235	65.33
836.407	59.74
836.578	67.37
836.749	68.91
836.921	71.36
837.092	80.45
837.264	78.86
837.435	61.3
837.606	67.29
837.777	58.61
837.949	40.83
838.12	41.21
838.291	41.55
838.462	45.08
838.633	60.56
838.805	56.94
838.976	61.75
839.147	71.94
839.318	74.01
839.489	76.53
839.66	79.29
839.831	69.59
840.002	76.31
840.173	83.7
840.344	85.71
840.515	80.53
840.686	83.41
840.857	73.27
841.028	78.3
841.199	71.71
841.369	63.1
841.54	71.69
841.711	82.16
841.882	69.66
842.053	75.85
842.223	81.16
842.394	81.83
842.565	83.67
842.736	83.45
842.906	65.21
843.077	73.36
843.248	81.86
843.418	76.35
843.589	77.89
843.759	72.35
843.93	65.27
844.101	65.68
844.271	73.4
844.442	66.62
844.612	56.75
844.783	42.48
844.953	42.1
845.123	49.77
845.294	58.67
845.464	46.63
845.635	40.48
845.805	43.59
845.975	45.21
846.146	41.55
846.316	40.69
846.486	49.64
846.656	63.02
846.827	66
846.997	78.59
847.167	80.2
847.337	89.37
847.507	81.09
847.677	76.61
847.848	72.97
848.018	75.2
848.188	68.89
848.358	76.96
848.528	72.8
848.698	57.52
848.868	55.4
849.038	65.08
849.208	76.68
849.378	76.92
849.548	89.39
849.718	95.01
849.887	102.99
850.057	111.42
850.227	98.51
850.397	73.6
850.567	89.93
850.737	70.22
850.906	50.98
851.076	56.59
851.246	41.97
851.415	47.02
851.585	62.08
851.755	53.53
851.924	69.34
852.094	81.84
852.264	88.82
852.433	103.12
852.603	117.03
852.772	105.62
852.942	91.63
853.111	83.24
853.281	80.16
853.45	61.79
853.62	51.96
853.789	36.4
853.959	28.58
854.128	31.6
854.297	35.27
854.467	33.53
854.636	50.96
854.805	51.77
854.975	71.1
855.144	83.15
855.313	87.74
855.482	79.63
855.652	87.24
855.821	80.28
855.99	96.36
856.159	81.17
856.328	69.35
856.497	61.76
856.667	70.66
856.836	56.12
857.005	55.23
857.174	54.63
857.343	48.78
857.512	39.64
857.681	45.32
857.85	26.91
858.019	47.37
858.188	47.76
858.356	20.79
858.525	28.46
858.694	48.96
858.863	49.92
859.032	50.44
859.201	53.63
859.369	58.06
859.538	56.21
859.707	76.86
859.876	67.8
860.044	69.58
860.213	70.31
860.382	63.07
860.55	87.81
860.719	99.64
860.888	89.84
861.056	94.25
861.225	104.47
861.393	111.59
861.562	86.71
861.73	56.22
861.899	48.76
862.067	44.87
862.236	35.64
862.404	27.83
862.572	24.23
862.741	35.8
862.909	43.72
863.078	44.32
863.246	44.45
863.414	56.08
863.582	71.02
863.751	71.74
863.919	68.66
864.087	61.53
864.255	69.56
864.424	77.05
864.592	68.51
864.76	67.57
864.928	66.52
865.096	58.34
865.264	63.9
865.432	55.02
865.6	41.73
865.768	40.85
865.936	37.2
866.104	11.05
866.272	19.94
866.44	-10.75
866.608	2.87
866.776	24.74
866.944	41.06
867.112	17.34
867.28	27.48
867.448	35.04
867.615	39.68
867.783	29.46
867.951	36.21
868.119	35.75
868.286	51.67
868.454	51.37
868.622	41.69
868.789	56.47
868.957	59.46
869.125	48.46
869.292	52.14
869.46	41.31
869.627	18.35
869.795	19.87
869.963	6.52
870.13	13.78
870.298	20.38
870.465	-13.13
870.632	4.44
870.8	34.37
870.967	46.27
871.135	50.32
871.302	54.52
871.469	41.54
871.637	40.67
871.804	50.98
871.971	49.1
872.139	46.69
872.306	42.08
872.473	5
872.64	17.26
872.807	27.92
872.975	28.05
873.142	10.56
873.309	13.5
873.476	-3.18
873.643	129.01
873.81	171.18
873.977	116.44
874.144	126.46
874.311	128.88
874.478	60.21
874.645	68.12
874.812	54.34
874.979	7.49
875.146	7.26
875.313	-44.31
875.48	30.19
875.647	9.9
875.813	39.45
875.98	40.24
876.147	83.25
876.314	75.04
876.481	64.34
876.647	64.29
876.814	79.81
876.981	66.99
877.147	56.08
877.314	40.85
877.481	48.94
877.647	53.4
877.814	25.74
877.98	6.66
878.147	43.23
878.314	64
878.48	69.1
878.647	90.77
878.813	122.68
878.979	182.5
879.146	125.02
879.312	121.85
879.479	96.28
879.645	71.41
879.811	71.52
879.978	57.98
880.144	56.51
880.31	62.61
880.477	42.17
880.643	54.02
880.809	139.6
880.975	56.07
881.142	23.57
881.308	18.36
881.474	65.82
881.64	54.93
881.806	76.97
881.972	106.81
882.138	122.74
882.304	156.2
882.47	111.91
882.636	43.24
882.802	7.05
882.968	-77.05
883.134	-199.08
883.3	-56.56
883.466	-5.06
883.632	5.63
883.798	49.09
883.964	74.8
884.129	79
884.295	68.12
884.461	63.3
884.627	54.26
884.793	68.2
884.958	53.3
885.124	45.82
885.29	49.35
885.455	58.14
885.621	47.13
885.787	52.18
885.952	21.84
886.118	24.3
886.283	21.2
886.449	-14.68
886.614	-26.6
886.78	18.1
886.945	4.46
887.111	28.91
887.276	20.11
887.442	34.6
887.607	39.55
887.773	12.38
887.938	-16.56
888.103	6.66
888.269	11.76
888.434	13.13
888.599	25.97
888.764	61.24
888.93	82.19
889.095	106.93
889.26	140.69
889.425	169.39
889.59	126.95
889.756	125.5
889.921	86.59
890.086	109.6
890.251	81.21
890.416	39.76
890.581	-23.97
890.746	-25.64
890.911	-49.51
891.076	-65.32
891.241	-195.25
891.406	-58.89
891.571	-19.04
891.736	11.35
891.901	49.13
892.065	55.33
892.23	44.38
892.395	35.4
892.56	28.69
892.725	39.12
892.889	24.87
893.054	-2.57
893.219	-11.28
893.384	-10.4
893.548	88.33
893.713	-101.98
893.878	80.43
