Data from Ofra_PS_T2_2A_2GT10_Reflection_2.txt Node
Date: Wed Jul 21 17:01:21 EDT 2021
User: Adam
Spectrometer: FLMT01687
Trigger mode: 0
Integration Time (sec): 1.100000E0
Scans to average: 2
Electric dark correction enabled: true
Nonlinearity correction enabled: false
Boxcar width: 2
XAxis mode: Wavelengths
Number of Pixels in Spectrum: 3648
>>>>>Begin Spectral Data<<<<<
179.494	283.2
179.716	392.47
179.937	397.98
180.158	427.5
180.38	778.12
180.601	371.27
180.823	100.51
181.044	39.81
181.265	138.97
181.486	57.1
181.708	89.38
181.929	391.84
182.15	-21.13
182.372	89.19
182.593	66.9
182.814	46.47
183.035	49.04
183.257	41.8
183.478	15.32
183.699	14.53
183.92	-15.24
184.141	-3.49
184.363	-45.73
184.584	-18.8
184.805	-4.62
185.026	8.5
185.247	13.5
185.468	8.85
185.689	9.68
185.91	17.63
186.132	23.44
186.353	21.13
186.574	75.94
186.795	69.57
187.016	34.45
187.237	37.29
187.458	54.55
187.679	25.21
187.9	33.9
188.121	39.48
188.342	55.95
188.563	65.43
188.784	79.29
189.005	45.04
189.226	79.77
189.447	71.88
189.667	8.74
189.888	-229.06
190.109	-845.45
190.33	-590.32
190.551	-1133.63
190.772	-292.74
190.993	-215.51
191.214	-187.34
191.434	-123.48
191.655	-58.16
191.876	-93.78
192.097	-110.14
192.318	-101.43
192.538	-157.48
192.759	-112.2
192.98	-65.04
193.201	-28.64
193.421	-20.87
193.642	10.42
193.863	-0.18
194.083	-7.41
194.304	-21.18
194.525	-27.86
194.745	-57.53
194.966	-58.02
195.187	-66.64
195.407	-84.89
195.628	-116.1
195.848	-130.76
196.069	-104.4
196.29	-43.83
196.51	-75.08
196.731	-74.55
196.951	-87.7
197.172	-107.46
197.392	-142.14
197.613	-124.31
197.833	-139.73
198.054	-115.25
198.274	-47.17
198.495	-73.96
198.715	-18.32
198.936	-41.91
199.156	-23.49
199.377	-113.78
199.597	-62.1
199.817	-116.69
200.038	-34.22
200.258	-101.32
200.479	-43.03
200.699	-87.46
200.919	-22.81
201.14	-27.37
201.36	-31.42
201.58	6.98
201.801	29.65
202.021	3.04
202.241	-13.84
202.461	-15.62
202.682	-126.39
202.902	-168.75
203.122	-116.74
203.342	-95.59
203.563	-55.49
203.783	-7.19
204.003	-43.25
204.223	-24.31
204.443	11.35
204.663	-10.43
204.884	-14.97
205.104	-18.61
205.324	-2.21
205.544	12.99
205.764	35.06
205.984	19.42
206.204	39.74
206.424	19.51
206.644	-35.86
206.864	-34.07
207.084	-81.9
207.304	-115.19
207.525	-260.63
207.745	-119.32
207.964	-37.45
208.184	-62.37
208.404	-80.25
208.624	-56.51
208.844	-64.08
209.064	-300
209.284	-331.09
209.504	-164.92
209.724	-63.71
209.944	-35.28
210.164	-2.87
210.384	7.11
210.604	6.47
210.823	-37.37
211.043	-59.04
211.263	-61.52
211.483	-43.98
211.703	-94.7
211.922	-79.74
212.142	-6.05
212.362	19.6
212.582	-4.56
212.801	6.5
213.021	-4.7
213.241	-27.49
213.461	-50.29
213.68	-48.76
213.9	-37.47
214.12	-16.72
214.339	-57.28
214.559	-59.33
214.779	-34.47
214.998	-16.16
215.218	-63.86
215.438	-39.38
215.657	-34.94
215.877	-23.49
216.096	-15.43
216.316	1.51
216.535	-7.5
216.755	-17.29
216.974	-81.86
217.194	-127.13
217.413	-137.63
217.633	-123.34
217.852	-202.11
218.072	-89.08
218.291	-33.43
218.511	10.98
218.73	-22.95
218.95	-5.25
219.169	-9.73
219.389	-51.56
219.608	-41.7
219.827	-27.92
220.047	-33.43
220.266	-32.25
220.485	-24.08
220.705	-27.37
220.924	-35.81
221.143	2.37
221.363	-17.37
221.582	-24.84
221.801	-24.44
222.021	-5.43
222.24	-99.72
222.459	-38.73
222.678	10.19
222.897	-9.02
223.117	-52.13
223.336	3.8
223.555	-7.54
223.774	23.52
223.993	9.54
224.213	54.63
224.432	41.56
224.651	56.37
224.87	21.34
225.089	35.76
225.308	30.14
225.527	31.52
225.746	18.28
225.965	7
226.184	-33.12
226.404	-22.18
226.623	-33.67
226.842	-28.06
227.061	12.52
227.28	26.35
227.499	26.88
227.718	23.76
227.936	21.56
228.155	11.07
228.374	-20.98
228.593	-7.45
228.812	0.87
229.031	-4.18
229.25	-36.37
229.469	-18.08
229.688	-9.32
229.907	2.97
230.125	10.84
230.344	16.81
230.563	18.42
230.782	21.44
231.001	-71.34
231.22	-52.72
231.438	-31.8
231.657	-26.9
231.876	-48.21
232.095	18.59
232.313	31.59
232.532	13.18
232.751	-0.31
232.969	-3.57
233.188	-78.63
233.407	-52.67
233.625	-24.68
233.844	-62.32
234.063	-63.15
234.281	-29.31
234.5	-48.62
234.719	-49.94
234.937	-9.33
235.156	6.33
235.374	2.47
235.593	-11.48
235.811	-29.66
236.03	-41.89
236.249	-90.42
236.467	-77.18
236.686	-12.28
236.904	16.95
237.123	2.95
237.341	5.86
237.559	7.35
237.778	-22.37
237.996	-55.63
238.215	-8.02
238.433	0.16
238.652	-1.88
238.87	-9.75
239.088	2.9
239.307	-9.13
239.525	-10.86
239.743	-25.83
239.962	-5.17
240.18	-31.17
240.398	-73.69
240.617	-79.97
240.835	-54.57
241.053	-34.32
241.271	29.25
241.49	43.51
241.708	34.51
241.926	3.85
242.144	-5.13
242.363	-108.99
242.581	-149.48
242.799	-76.83
243.017	-26.27
243.235	-48.55
243.453	-10.08
243.672	-8.79
243.89	-23.95
244.108	-48.86
244.326	-20.17
244.544	-20.01
244.762	-10.01
244.98	16.04
245.198	43.81
245.416	30.58
245.634	-0.21
245.852	-12.48
246.07	-61.07
246.288	-97.65
246.506	-150.47
246.724	-99.79
246.942	-65.84
247.16	-13.92
247.378	9.12
247.596	23.56
247.814	18.74
248.032	-15.9
248.25	-31.33
248.468	-31.12
248.685	-10.65
248.903	17.76
249.121	21.17
249.339	2.08
249.557	-5.38
249.775	-9.97
249.992	-76.08
250.21	-63.64
250.428	-45.26
250.646	-73.36
250.863	-94.57
251.081	-57.95
251.299	-55.14
251.517	-25.87
251.734	-10.53
251.952	-3.84
252.17	-4.34
252.387	-4.8
252.605	-17.52
252.823	-3.2
253.04	16.48
253.258	31.14
253.475	36.92
253.693	63.2
253.911	62.2
254.128	46.9
254.346	36.43
254.563	13.77
254.781	-11.26
254.998	-23.98
255.216	-23.06
255.433	-13.52
255.651	31.87
255.868	22.94
256.086	23.52
256.303	17.71
256.521	13.83
256.738	-1.85
256.956	-14.73
257.173	-31.2
257.39	-50.47
257.608	-77.07
257.825	-53.68
258.043	-39.84
258.26	-15.68
258.477	37.99
258.695	37.45
258.912	8.53
259.129	20.44
259.346	-16.48
259.564	-70.55
259.781	-83.08
259.998	-24.52
260.216	-11.25
260.433	30.36
260.65	27.55
260.867	39.15
261.084	8.29
261.302	0.9
261.519	-11.39
261.736	-29.41
261.953	-39.01
262.17	9.31
262.387	-36.3
262.604	-82.76
262.822	-79.63
263.039	-47.46
263.256	-125.92
263.473	-42.5
263.69	2.68
263.907	32.73
264.124	25.41
264.341	23.86
264.558	3.35
264.775	-0.98
264.992	-25.63
265.209	-18.25
265.426	14.1
265.643	20.46
265.86	19.16
266.077	31.5
266.294	1.92
266.51	-43.27
266.727	-58.02
266.944	-50.99
267.161	-60.58
267.378	-45.41
267.595	-6.62
267.812	-32.87
268.028	-50.17
268.245	-43.45
268.462	-53.63
268.679	-54.31
268.896	3.97
269.112	-6.93
269.329	5.26
269.546	14.71
269.763	-2.49
269.979	-30.53
270.196	-23.01
270.413	-63.82
270.629	-76.21
270.846	-78.54
271.063	-65.62
271.279	-63.79
271.496	-47.04
271.712	-4.08
271.929	19.38
272.146	-3.73
272.362	17.73
272.579	45.17
272.795	13.1
273.012	27.08
273.228	36
273.445	14.13
273.661	-27.64
273.878	-51.98
274.094	-87.19
274.311	-101.34
274.527	-40.68
274.744	-19.02
274.96	-25.07
275.177	8.59
275.393	17.01
275.609	0.37
275.826	8.58
276.042	12.68
276.259	-22.96
276.475	-4.48
276.691	-1.91
276.908	-20.01
277.124	-1.98
277.34	7.81
277.557	-12.58
277.773	-12.01
277.989	-19.91
278.205	-34.56
278.422	-11.65
278.638	4.51
278.854	17.48
279.07	36.09
279.286	60.19
279.503	33.43
279.719	11.83
279.935	8.65
280.151	9.54
280.367	18.84
280.583	4.77
280.799	2.78
281.016	-45.21
281.232	-27.23
281.448	-51.5
281.664	-16.68
281.88	-31.41
282.096	9.82
282.312	37.5
282.528	46.59
282.744	43.85
282.96	30.37
283.176	20.78
283.392	5.83
283.608	9.6
283.824	1.52
284.04	2.07
284.256	-0.69
284.471	-11.45
284.687	-29.77
284.903	0.57
285.119	25.72
285.335	23.04
285.551	46.37
285.767	52.2
285.982	23.09
286.198	0.24
286.414	27.49
286.63	17.81
286.846	21.49
287.061	1.32
287.277	34.56
287.493	-5.49
287.709	6.18
287.924	-8.52
288.14	26.69
288.356	11.29
288.571	41.61
288.787	12.18
289.003	10.25
289.218	-15.39
289.434	-53.67
289.65	-52.65
289.865	-43.82
290.081	-19.01
290.296	-17.39
290.512	6.7
290.727	-33.36
290.943	-19.18
291.159	-21.6
291.374	-8.9
291.59	-16.68
291.805	11.57
292.021	3
292.236	-6.19
292.451	2.33
292.667	10.63
292.882	15.14
293.098	12.77
293.313	-3.25
293.529	-14.46
293.744	-41.82
293.959	-50.41
294.175	-46.58
294.39	-7.29
294.605	5.81
294.821	24.54
295.036	25.51
295.251	40.49
295.467	39.37
295.682	13.37
295.897	-37.33
296.112	-49.82
296.328	-49.93
296.543	-97.22
296.758	-74.53
296.973	-13.88
297.188	15.03
297.404	-5.67
297.619	-19.42
297.834	-13.18
298.049	-34.47
298.264	-48.87
298.479	-11.43
298.694	8.72
298.909	26.18
299.125	23.58
299.34	18.42
299.555	-1.75
299.77	-3.29
299.985	-54.4
300.2	-97.5
300.415	-101.24
300.63	-79.45
300.845	-72.5
301.06	-63.08
301.275	-20.84
301.49	4.71
301.704	-4.05
301.919	-17.85
302.134	-34.59
302.349	-31.58
302.564	-98.19
302.779	-130.93
302.994	-150.47
303.209	-96.43
303.423	-87
303.638	-3.43
303.853	-15.23
304.068	-15.01
304.283	-6.12
304.497	-9.61
304.712	-27.64
304.927	-16.46
305.142	-16.1
305.356	-16.26
305.571	-18.62
305.786	-23.27
306	-39.17
306.215	-34.62
306.43	-49.45
306.644	-43.24
306.859	-19.04
307.074	-7.66
307.288	-39.9
307.503	-45.7
307.717	-48.23
307.932	-54.64
308.147	-56.25
308.361	-16.62
308.576	-14.86
308.79	-37.32
309.005	-22.13
309.219	-6.49
309.434	-34.42
309.648	-26.49
309.863	-5.19
310.077	-4.93
310.292	1.8
310.506	10.2
310.72	13.06
310.935	13.97
311.149	14.42
311.364	17.56
311.578	32.35
311.792	28.91
312.007	25.81
312.221	5.09
312.435	12.06
312.649	-6.93
312.864	-6.1
313.078	10.39
313.292	73.69
313.507	27.04
313.721	21.57
313.935	30.8
314.149	18.21
314.363	6.43
314.578	9.1
314.792	19.45
315.006	-5.47
315.22	14.27
315.434	10.66
315.648	24.62
315.862	18.85
316.077	18.78
316.291	2.25
316.505	1.7
316.719	-32.83
316.933	-34.66
317.147	-23.66
317.361	-66.55
317.575	-90.2
317.789	-103.46
318.003	-141.78
318.217	-115.36
318.431	-35.55
318.645	26.96
318.859	20.88
319.073	31.09
319.287	28.4
319.5	-0.81
319.714	-54.5
319.928	-76.14
320.142	-105.23
320.356	-75
320.57	-36.4
320.784	-39.17
320.997	-51.76
321.211	-30.73
321.425	-87.11
321.639	-91.42
321.853	-43.87
322.066	-18.37
322.28	-20.67
322.494	-11.94
322.707	-10.08
322.921	-14.14
323.135	-23.6
323.349	-20.74
323.562	-18.18
323.776	-36.57
323.989	-37.97
324.203	-49.93
324.417	-59.88
324.63	-82.1
324.844	-56.84
325.057	-54.85
325.271	-31.03
325.485	9.6
325.698	32.75
325.912	32.35
326.125	9.88
326.339	9.38
326.552	-22.04
326.766	-18.18
326.979	0.77
327.193	31.32
327.406	27.7
327.619	21.7
327.833	29.33
328.046	5.71
328.26	-24.22
328.473	-12.29
328.686	-40.55
328.9	-50.44
329.113	-35.22
329.326	-43.96
329.54	-36.64
329.753	-23.13
329.966	-44.39
330.179	-32.37
330.393	-14.63
330.606	-6.75
330.819	22.63
331.032	38.15
331.246	31.03
331.459	56.1
331.672	56.32
331.885	32.85
332.098	6.23
332.311	3.99
332.525	-60.92
332.738	-69.91
332.951	-38.59
333.164	-0.53
333.377	16.36
333.59	39.54
333.803	40.53
334.016	22.81
334.229	23.47
334.442	16.9
334.655	19.67
334.868	21.99
335.081	26.25
335.294	5.45
335.507	1.17
335.72	6.8
335.933	-3.24
336.146	-0.76
336.359	-1
336.572	-38.44
336.785	-67.83
336.997	-49.24
337.21	-29.15
337.423	-24.06
337.636	-2.46
337.849	4.84
338.062	-9.82
338.274	-11.57
338.487	-30.04
338.7	-51.14
338.913	-90.45
339.125	-105.68
339.338	-191.2
339.551	-162.87
339.763	-102.92
339.976	-58.89
340.189	-28.96
340.402	-17.47
340.614	-14.34
340.827	-15.34
341.039	-23.18
341.252	-22.86
341.465	4.08
341.677	5.87
341.89	-27.27
342.102	-12.85
342.315	-28.24
342.527	-65.15
342.74	-58
342.952	-31.49
343.165	-35.32
343.377	-12.41
343.59	-1.7
343.802	5.49
344.015	7.87
344.227	13.5
344.44	8.01
344.652	11.9
344.864	1.69
345.077	20.48
345.289	18.77
345.502	13.6
345.714	2.14
345.926	8.49
346.139	4.99
346.351	26.71
346.563	34
346.775	36.94
346.988	24.49
347.2	5.69
347.412	-51.9
347.624	-75.92
347.837	-83.17
348.049	-73.22
348.261	-28.3
348.473	-5.03
348.685	6.36
348.897	-7.68
349.11	-18.68
349.322	-43.35
349.534	-41.55
349.746	-36.35
349.958	-15.12
350.17	-8.68
350.382	2.77
350.594	7.63
350.806	11.78
351.018	7.53
351.23	11.9
351.442	-17
351.654	-26.91
351.866	-20.72
352.078	-8.1
352.29	-8.49
352.502	13.11
352.714	14.86
352.926	-0.14
353.138	-1.99
353.35	-12.29
353.561	-21.94
353.773	-27.83
353.985	-10.75
354.197	-18.65
354.409	-16.09
354.621	-31.43
354.832	-16.14
355.044	-30.66
355.256	-30.36
355.468	-2.09
355.679	-0.51
355.891	1.88
356.103	-4.25
356.314	1.82
356.526	-8.88
356.738	3.61
356.949	-26.8
357.161	-11.2
357.373	-31.58
357.584	-49.32
357.796	-37.45
358.008	-33.08
358.219	-17.98
358.431	3.24
358.642	13.41
358.854	12.82
359.065	0.16
359.277	-34.26
359.488	-54.97
359.7	-82.69
359.911	-97.61
360.123	-59.13
360.334	-69.65
360.546	-73.53
360.757	-45.89
360.969	-28.25
361.18	-30.59
361.391	-17.93
361.603	-33.77
361.814	-37.45
362.025	-30.89
362.237	-28.13
362.448	9.92
362.659	24.87
362.871	23.6
363.082	15.53
363.293	2.68
363.504	-29.58
363.716	-47.39
363.927	-56.95
364.138	-75
364.349	-79.09
364.56	-57.01
364.772	-44.74
364.983	-25.78
365.194	-15.67
365.405	-2.25
365.616	0.47
365.827	-8.39
366.038	-23.33
366.25	-38.07
366.461	-43.7
366.672	-20.66
366.883	1.05
367.094	8.29
367.305	3.51
367.516	0.81
367.727	-22.86
367.938	-30.49
368.149	-33.6
368.36	-15.12
368.571	-11.95
368.781	-16.09
368.992	-29.88
369.203	-39.84
369.414	-70.62
369.625	-76.21
369.836	-65.54
370.047	-84.16
370.258	-68.75
370.468	-51.51
370.679	-66.75
370.89	-70.05
371.101	-46
371.312	-49.25
371.522	-46.84
371.733	-35.91
371.944	-17.41
372.155	-15.21
372.365	-21.61
372.576	-24.32
372.787	-24.71
372.997	-54.9
373.208	-46.4
373.419	-27.2
373.629	-54.72
373.84	-59.33
374.05	-59.02
374.261	-53.41
374.472	-67.98
374.682	-13.31
374.893	-6.38
375.103	22.12
375.314	19.67
375.524	15.7
375.735	11.7
375.945	15.67
376.156	-6.07
376.366	-8.59
376.577	2.28
376.787	-11.5
376.997	-10.7
377.208	-7.97
377.418	-22.53
377.629	-16.79
377.839	-19.45
378.049	-16.24
378.26	1.71
378.47	14.79
378.68	2.91
378.89	1.63
379.101	0.58
379.311	-30.16
379.521	-63.07
379.732	-58.71
379.942	-46.72
380.152	-68.85
380.362	-27.57
380.572	-21.79
380.783	-9.84
380.993	-0.89
381.203	9.28
381.413	7.51
381.623	25.14
381.833	23.81
382.043	11.9
382.253	11.79
382.463	7.02
382.674	-4.12
382.884	-23.47
383.094	-18.66
383.304	-17.19
383.514	-7.34
383.724	4.11
383.934	2.62
384.144	-11.49
384.353	-19.84
384.563	-28.72
384.773	-29.36
384.983	-37.08
385.193	-19.14
385.403	-14.83
385.613	-9.18
385.823	-15.95
386.033	-5.94
386.242	-5.07
386.452	-2.99
386.662	-15.13
386.872	0.75
387.082	-5.36
387.291	-14.05
387.501	-17.32
387.711	-13.38
387.921	-26.5
388.13	-21.33
388.34	-10.22
388.55	-12.3
388.759	-9.64
388.969	-4.66
389.179	-5.79
389.388	-8.09
389.598	1.58
389.807	-2.17
390.017	-8.26
390.227	-8.41
390.436	-9.92
390.646	-11.82
390.855	-9.62
391.065	-4.91
391.274	-3.5
391.484	-5.17
391.693	-5.43
391.903	-3.06
392.112	1.5
392.322	1.49
392.531	6.07
392.74	5.57
392.95	2.97
393.159	0.22
393.369	0.56
393.578	-0.72
393.787	-0.4
393.997	1.65
394.206	-0.8
394.415	-0.82
394.625	0.03
394.834	-0.79
395.043	-1.31
395.252	2.37
395.462	4.61
395.671	5.06
395.88	5.53
396.089	6.39
396.298	4.24
396.508	3.91
396.717	2.38
396.926	3.1
397.135	2.22
397.344	2.05
397.553	2.35
397.762	4.27
397.971	3.38
398.181	4.09
398.39	4.05
398.599	3.56
398.808	3.31
399.017	4.12
399.226	4.88
399.435	5.94
399.644	5.65
399.853	4.78
400.062	4.73
400.27	3.94
400.479	3.27
400.688	2.96
400.897	3.18
401.106	3.35
401.315	3.37
401.524	3.49
401.733	3.71
401.941	4.05
402.15	4.14
402.359	3.88
402.568	4.05
402.777	4.32
402.985	4.04
403.194	3.81
403.403	4.07
403.612	3.85
403.82	3.69
404.029	4.09
404.238	3.99
404.446	4.03
404.655	3.76
404.864	3.91
405.072	3.62
405.281	3.61
405.489	3.42
405.698	3.52
405.906	3.27
406.115	3.07
406.324	3.22
406.532	3.35
406.741	3.66
406.949	3.82
407.158	3.91
407.366	3.82
407.574	3.72
407.783	3.65
407.991	3.4
408.2	3.41
408.408	3.44
408.617	3.38
408.825	3.15
409.033	3.26
409.242	3.4
409.45	3.45
409.658	3.32
409.867	3.55
410.075	3.55
410.283	3.42
410.491	3.38
410.7	3.52
410.908	3.29
411.116	3.51
411.324	3.63
411.533	3.62
411.741	3.69
411.949	3.84
412.157	3.48
412.365	3.33
412.573	3.24
412.781	3.28
412.99	3.21
413.198	3.52
413.406	3.54
413.614	3.57
413.822	3.43
414.03	3.37
414.238	3.12
414.446	3.15
414.654	2.94
414.862	3.06
415.07	3.09
415.278	3.28
415.486	3.14
415.694	3.32
415.902	3.09
416.109	3.08
416.317	3.11
416.525	3.13
416.733	3.04
416.941	3.26
417.149	3.2
417.357	3.11
417.564	3.23
417.772	3.53
417.98	3.35
418.188	3.27
418.395	3.22
418.603	3.3
418.811	2.83
419.019	2.85
419.226	3.13
419.434	3.18
419.642	2.91
419.849	3.17
420.057	3.21
420.265	3.12
420.472	2.94
420.68	3.03
420.887	2.9
421.095	2.95
421.302	2.91
421.51	3.06
421.717	3.19
421.925	3.28
422.132	3.14
422.34	3.05
422.547	3.1
422.755	2.84
422.962	2.74
423.17	2.63
423.377	2.59
423.585	2.51
423.792	2.5
423.999	2.55
424.207	2.64
424.414	2.8
424.621	2.75
424.829	2.81
425.036	2.76
425.243	2.85
425.451	2.62
425.658	2.52
425.865	2.62
426.072	2.6
426.28	2.68
426.487	2.72
426.694	2.7
426.901	2.56
427.108	2.61
427.315	2.6
427.523	2.8
427.73	2.9
427.937	2.95
428.144	2.8
428.351	2.63
428.558	2.69
428.765	2.64
428.972	2.56
429.179	2.78
429.386	3.04
429.593	2.79
429.8	2.74
430.007	2.89
430.214	3.05
430.421	2.81
430.628	2.82
430.835	2.74
431.042	2.79
431.249	2.75
431.456	2.86
431.662	2.86
431.869	3.05
432.076	3.02
432.283	2.93
432.49	2.83
432.697	2.92
432.903	2.79
433.11	2.79
433.317	2.96
433.524	3.23
433.73	3.16
433.937	3.34
434.144	3.21
434.35	2.96
434.557	2.79
434.764	2.84
434.97	2.6
435.177	2.8
435.384	2.88
435.59	2.89
435.797	3.17
436.003	3.39
436.21	3.35
436.416	3.37
436.623	3.47
436.829	3.34
437.036	3.34
437.242	3.41
437.449	3.3
437.655	3.23
437.862	3.22
438.068	3.17
438.275	3.17
438.481	3.51
438.687	3.57
438.894	3.57
439.1	3.65
439.307	3.82
439.513	3.74
439.719	3.69
439.926	3.79
440.132	3.72
440.338	3.49
440.544	3.57
440.751	3.56
440.957	3.52
441.163	3.51
441.369	3.56
441.575	3.38
441.782	3.4
441.988	3.35
442.194	3.34
442.4	3.35
442.606	3.63
442.812	3.74
443.018	3.79
443.224	3.85
443.431	3.97
443.637	3.77
443.843	3.7
444.049	3.73
444.255	3.7
444.461	3.76
444.667	3.74
444.873	3.79
445.079	3.76
445.284	3.87
445.49	3.64
445.696	3.51
445.902	3.46
446.108	3.5
446.314	3.47
446.52	3.62
446.726	3.94
446.931	4.04
447.137	4.01
447.343	4.06
447.549	3.97
447.755	3.74
447.96	3.65
448.166	3.63
448.372	3.54
448.578	3.6
448.783	3.66
448.989	3.77
449.195	3.93
449.4	4.02
449.606	4.02
449.812	3.95
450.017	3.91
450.223	3.85
450.428	3.76
450.634	3.84
450.84	4.13
451.045	4.08
451.251	3.96
451.456	4.2
451.662	4.24
451.867	4.2
452.073	4.28
452.278	4.41
452.483	4.37
452.689	4.29
452.894	4.27
453.1	4.24
453.305	4.19
453.51	4.2
453.716	4.15
453.921	4.08
454.127	4.05
454.332	4.01
454.537	3.87
454.742	3.97
454.948	3.94
455.153	4.02
455.358	4.09
455.563	4.25
455.769	4.19
455.974	4.22
456.179	4.09
456.384	4.08
456.589	4.02
456.795	3.94
457	3.95
457.205	4.08
457.41	4.07
457.615	4
457.82	4.07
458.025	4.06
458.23	3.95
458.435	3.99
458.64	3.98
458.845	4.08
459.05	4.16
459.255	4.25
459.46	4.31
459.665	4.41
459.87	4.38
460.075	4.31
460.28	4.31
460.485	4.32
460.69	4.28
460.895	4.2
461.099	4.2
461.304	4.25
461.509	4.29
461.714	4.25
461.919	4.35
462.123	4.33
462.328	4.41
462.533	4.33
462.738	4.44
462.942	4.37
463.147	4.48
463.352	4.42
463.556	4.52
463.761	4.54
463.966	4.56
464.17	4.55
464.375	4.48
464.58	4.38
464.784	4.33
464.989	4.28
465.193	4.31
465.398	4.38
465.602	4.56
465.807	4.57
466.011	4.72
466.216	4.82
466.42	4.91
466.625	4.89
466.829	4.95
467.034	4.96
467.238	5.01
467.443	4.93
467.647	4.87
467.851	4.94
468.056	4.92
468.26	4.83
468.464	4.85
468.669	4.9
468.873	5.04
469.077	5.11
469.282	5.26
469.486	5.27
469.69	5.32
469.894	5.13
470.099	5.1
470.303	5.09
470.507	5.11
470.711	4.99
470.915	5.03
471.119	5.05
471.324	5.03
471.528	5.11
471.732	5.26
471.936	5.31
472.14	5.38
472.344	5.43
472.548	5.44
472.752	5.59
472.956	5.77
473.16	5.78
473.364	5.71
473.568	5.75
473.772	5.72
473.976	5.6
474.18	5.63
474.384	5.69
474.588	5.65
474.792	5.57
474.995	5.65
475.199	5.73
475.403	5.81
475.607	5.87
475.811	5.94
476.015	5.94
476.218	5.98
476.422	5.98
476.626	6.04
476.83	6.09
477.033	6.08
477.237	5.97
477.441	6.06
477.644	6.11
477.848	6.04
478.052	6.07
478.255	6.13
478.459	6.05
478.663	6.09
478.866	6.26
479.07	6.29
479.273	6.43
479.477	6.48
479.681	6.48
479.884	6.42
480.088	6.43
480.291	6.34
480.495	6.33
480.698	6.31
480.901	6.38
481.105	6.44
481.308	6.49
481.512	6.54
481.715	6.61
481.919	6.6
482.122	6.63
482.325	6.63
482.529	6.65
482.732	6.64
482.935	6.6
483.138	6.51
483.342	6.59
483.545	6.68
483.748	6.82
483.952	6.86
484.155	7
484.358	7.01
484.561	6.97
484.764	6.83
484.967	6.89
485.171	6.94
485.374	6.81
485.577	6.86
485.78	6.85
485.983	6.84
486.186	6.79
486.389	6.86
486.592	6.85
486.795	6.88
486.998	6.89
487.201	6.92
487.404	7
487.607	7.03
487.81	7.04
488.013	7.07
488.216	7.04
488.419	6.97
488.622	6.95
488.825	6.96
489.028	6.91
489.231	6.92
489.433	6.84
489.636	6.79
489.839	6.79
490.042	6.76
490.245	6.79
490.447	6.94
490.65	6.95
490.853	6.98
491.056	7.05
491.258	7.07
491.461	7.06
491.664	7.09
491.866	7.07
492.069	7.1
492.272	7.06
492.474	7.11
492.677	7.18
492.879	7.25
493.082	7.37
493.285	7.53
493.487	7.55
493.69	7.46
493.892	7.42
494.095	7.32
494.297	7.24
494.5	7.21
494.702	7.29
494.905	7.35
495.107	7.34
495.309	7.34
495.512	7.44
495.714	7.49
495.917	7.52
496.119	7.49
496.321	7.56
496.524	7.55
496.726	7.55
496.928	7.55
497.13	7.63
497.333	7.59
497.535	7.59
497.737	7.61
497.939	7.66
498.142	7.72
498.344	7.77
498.546	7.73
498.748	7.77
498.95	7.87
499.152	7.85
499.355	7.87
499.557	7.97
499.759	8.09
499.961	7.99
500.163	8.05
500.365	8.03
500.567	8.1
500.769	7.96
500.971	8.05
501.173	8.04
501.375	8.13
501.577	8.05
501.779	8.03
501.981	8.03
502.183	8.06
502.385	8.05
502.587	8.03
502.788	8.22
502.99	8.26
503.192	8.36
503.394	8.44
503.596	8.5
503.798	8.52
503.999	8.54
504.201	8.49
504.403	8.53
504.605	8.56
504.806	8.5
505.008	8.52
505.21	8.57
505.411	8.54
505.613	8.54
505.815	8.65
506.016	8.71
506.218	8.82
506.42	8.82
506.621	8.92
506.823	8.95
507.024	8.87
507.226	8.82
507.427	8.87
507.629	8.91
507.83	8.98
508.032	9.06
508.233	9.12
508.435	9.19
508.636	9.21
508.838	9.18
509.039	9.19
509.24	9.18
509.442	9.23
509.643	9.24
509.845	9.27
510.046	9.4
510.247	9.46
510.448	9.42
510.65	9.46
510.851	9.6
511.052	9.58
511.254	9.58
511.455	9.68
511.656	9.68
511.857	9.68
512.058	9.73
512.26	9.76
512.461	9.82
512.662	9.91
512.863	9.84
513.064	9.81
513.265	9.87
513.466	9.85
513.667	9.88
513.868	9.94
514.069	10.05
514.27	10.11
514.471	10.1
514.672	10.18
514.873	10.18
515.074	10.27
515.275	10.17
515.476	10.23
515.677	10.21
515.878	10.37
516.079	10.31
516.28	10.38
516.481	10.48
516.682	10.51
516.882	10.41
517.083	10.41
517.284	10.41
517.485	10.43
517.686	10.44
517.886	10.49
518.087	10.55
518.288	10.65
518.488	10.6
518.689	10.67
518.89	10.68
519.091	10.69
519.291	10.7
519.492	10.77
519.692	10.7
519.893	10.81
520.094	10.89
520.294	10.89
520.495	10.88
520.695	10.99
520.896	10.9
521.096	10.89
521.297	10.96
521.497	11.03
521.698	11.02
521.898	11.08
522.099	11.08
522.299	11.09
522.499	11.08
522.7	11.12
522.9	11.12
523.101	11.21
523.301	11.3
523.501	11.35
523.702	11.4
523.902	11.49
524.102	11.55
524.302	11.51
524.503	11.54
524.703	11.55
524.903	11.6
525.103	11.54
525.304	11.63
525.504	11.68
525.704	11.73
525.904	11.63
526.104	11.68
526.304	11.6
526.504	11.66
526.705	11.64
526.905	11.75
527.105	11.79
527.305	11.87
527.505	11.79
527.705	11.79
527.905	11.8
528.105	11.82
528.305	11.78
528.505	11.86
528.705	11.95
528.905	11.97
529.105	11.96
529.304	12
529.504	12.09
529.704	12.05
529.904	12.1
530.104	12.16
530.304	12.29
530.503	12.21
530.703	12.2
530.903	12.16
531.103	12.22
531.303	12.16
531.502	12.28
531.702	12.38
531.902	12.45
532.101	12.38
532.301	12.4
532.501	12.36
532.7	12.29
532.9	12.36
533.1	12.45
533.299	12.49
533.499	12.56
533.698	12.6
533.898	12.58
534.097	12.63
534.297	12.69
534.496	12.7
534.696	12.79
534.895	12.9
535.095	12.98
535.294	12.96
535.494	12.95
535.693	13.05
535.892	13.08
536.092	13.02
536.291	13.05
536.491	13.11
536.69	13.16
536.889	13.13
537.088	13.17
537.288	13.29
537.487	13.39
537.686	13.41
537.886	13.5
538.085	13.55
538.284	13.6
538.483	13.62
538.682	13.59
538.882	13.65
539.081	13.71
539.28	13.63
539.479	13.59
539.678	13.63
539.877	13.68
540.076	13.7
540.275	13.76
540.474	13.89
540.673	13.92
540.872	13.92
541.071	13.96
541.27	14.09
541.469	14.11
541.668	14.17
541.867	14.19
542.066	14.25
542.265	14.32
542.464	14.31
542.663	14.41
542.862	14.59
543.06	14.73
543.259	14.74
543.458	14.86
543.657	14.93
543.856	14.89
544.054	14.8
544.253	14.83
544.452	14.85
544.651	14.92
544.849	14.94
545.048	15.07
545.247	15.17
545.445	15.25
545.644	15.31
545.843	15.38
546.041	15.46
546.24	15.53
546.438	15.64
546.637	15.65
546.836	15.81
547.034	15.87
547.233	15.93
547.431	15.89
547.63	15.98
547.828	16
548.027	16.07
548.225	16.04
548.423	16.13
548.622	16.21
548.82	16.2
549.019	16.31
549.217	16.51
549.415	16.61
549.614	16.74
549.812	16.86
550.01	16.85
550.209	16.9
550.407	17
550.605	16.98
550.803	17.11
551.002	17.21
551.2	17.26
551.398	17.38
551.596	17.55
551.794	17.69
551.993	17.78
552.191	17.89
552.389	18
552.587	18.13
552.785	18.14
552.983	18.26
553.181	18.34
553.379	18.43
553.577	18.4
553.775	18.59
553.973	18.68
554.171	18.84
554.369	18.81
554.567	18.97
554.765	18.98
554.963	19.1
555.161	19.09
555.359	19.28
555.557	19.39
555.755	19.52
555.952	19.6
556.15	19.72
556.348	19.79
556.546	19.92
556.744	19.95
556.941	20.05
557.139	20.2
557.337	20.36
557.535	20.42
557.732	20.52
557.93	20.7
558.128	20.82
558.325	20.92
558.523	20.95
558.721	21.06
558.918	21.02
559.116	21.15
559.313	21.27
559.511	21.56
559.708	21.65
559.906	21.83
560.104	21.92
560.301	21.95
560.498	22
560.696	22.14
560.893	22.28
561.091	22.37
561.288	22.56
561.486	22.62
561.683	22.71
561.88	22.79
562.078	22.98
562.275	23.02
562.473	23.11
562.67	23.21
562.867	23.36
563.064	23.41
563.262	23.53
563.459	23.66
563.656	23.91
563.853	23.94
564.051	24.09
564.248	24.24
564.445	24.4
564.642	24.44
564.839	24.65
565.036	24.79
565.234	24.95
565.431	25.12
565.628	25.19
565.825	25.22
566.022	25.3
566.219	25.34
566.416	25.31
566.613	25.45
566.81	25.6
567.007	25.64
567.204	25.68
567.401	25.74
567.598	25.76
567.795	25.8
567.991	25.83
568.188	26.06
568.385	26.21
568.582	26.41
568.779	26.5
568.976	26.67
569.172	26.76
569.369	26.81
569.566	26.84
569.763	26.95
569.96	26.94
570.156	26.88
570.353	26.98
570.55	27.06
570.746	27.13
570.943	27.26
571.14	27.35
571.336	27.39
571.533	27.46
571.729	27.42
571.926	27.44
572.123	27.58
572.319	27.63
572.516	27.63
572.712	27.74
572.909	27.76
573.105	27.79
573.302	27.86
573.498	27.97
573.695	28.02
573.891	28.09
574.087	28.09
574.284	28.01
574.48	27.89
574.677	27.92
574.873	27.94
575.069	28.02
575.266	28.19
575.462	28.25
575.658	28.27
575.854	28.41
576.051	28.33
576.247	28.29
576.443	28.34
576.639	28.37
576.835	28.27
577.032	28.29
577.228	28.39
577.424	28.39
577.62	28.35
577.816	28.4
578.012	28.5
578.208	28.51
578.404	28.53
578.6	28.67
578.796	28.66
578.993	28.53
579.189	28.47
579.384	28.4
579.58	28.2
579.776	28.23
579.972	28.25
580.168	28.12
580.364	28.22
580.56	28.28
580.756	28.26
580.952	28.32
581.148	28.43
581.343	28.4
581.539	28.46
581.735	28.52
581.931	28.61
582.127	28.66
582.322	28.68
582.518	28.65
582.714	28.56
582.909	28.43
583.105	28.39
583.301	28.32
583.496	28.34
583.692	28.27
583.888	28.14
584.083	28.17
584.279	28.21
584.474	28.15
584.67	28.22
584.866	28.34
585.061	28.23
585.257	28.26
585.452	28.35
585.648	28.35
585.843	28.44
586.039	28.48
586.234	28.38
586.429	28.38
586.625	28.4
586.82	28.37
587.015	28.41
587.211	28.4
587.406	28.45
587.601	28.45
587.797	28.37
587.992	28.3
588.187	28.43
588.383	28.28
588.578	28.18
588.773	28.24
588.968	28.23
589.163	28.27
589.359	28.4
589.554	28.45
589.749	28.48
589.944	28.56
590.139	28.49
590.334	28.4
590.529	28.34
590.724	28.4
590.919	28.46
591.114	28.49
591.309	28.72
591.504	28.86
591.699	28.95
591.894	29.1
592.089	29.11
592.284	29.05
592.479	29.19
592.674	29.19
592.869	29.18
593.064	29.34
593.259	29.45
593.454	29.5
593.648	29.47
593.843	29.41
594.038	29.46
594.233	29.39
594.428	29.31
594.622	29.35
594.817	29.68
595.012	29.77
595.206	29.82
595.401	29.93
595.596	29.99
595.79	29.83
595.985	29.89
596.18	30.07
596.374	30.2
596.569	30.32
596.763	30.45
596.958	30.48
597.153	30.49
597.347	30.53
597.542	30.69
597.736	30.64
597.931	30.78
598.125	30.78
598.319	30.81
598.514	30.8
598.708	30.93
598.903	30.9
599.097	31.08
599.291	31.11
599.486	31.07
599.68	31.11
599.874	31.16
600.069	31.12
600.263	31.17
600.457	31.33
600.651	31.38
600.846	31.43
601.04	31.52
601.234	31.66
601.428	31.77
601.622	31.82
601.817	31.8
602.011	31.86
602.205	31.78
602.399	31.69
602.593	31.76
602.787	31.8
602.981	31.77
603.175	31.85
603.369	31.83
603.563	31.78
603.757	31.87
603.951	31.94
604.145	31.84
604.339	31.88
604.533	31.82
604.727	31.69
604.921	31.52
605.115	31.69
605.309	31.72
605.502	31.7
605.696	31.69
605.89	31.71
606.084	31.58
606.278	31.44
606.471	31.35
606.665	31.32
606.859	31.32
607.053	31.18
607.246	31.2
607.44	31.23
607.634	31.23
607.827	31.18
608.021	31.19
608.214	31.16
608.408	31.04
608.602	30.96
608.795	30.92
608.989	30.94
609.182	30.82
609.376	30.93
609.569	30.81
609.763	30.73
609.956	30.57
610.15	30.51
610.343	30.32
610.537	30.24
610.73	30.19
610.923	30.13
611.117	30.1
611.31	30.03
611.504	30
611.697	29.85
611.89	29.81
612.083	29.63
612.277	29.57
612.47	29.48
612.663	29.45
612.856	29.34
613.05	29.25
613.243	29.16
613.436	29.07
613.629	28.98
613.822	28.87
614.015	28.88
614.209	28.83
614.402	28.82
614.595	28.76
614.788	28.75
614.981	28.63
615.174	28.44
615.367	28.37
615.56	28.33
615.753	28.27
615.946	28.24
616.139	28.26
616.332	28.29
616.525	28.23
616.718	28.26
616.911	28.18
617.103	28.16
617.296	28.04
617.489	27.99
617.682	27.8
617.875	27.84
618.067	27.69
618.26	27.63
618.453	27.69
618.646	27.68
618.838	27.55
619.031	27.71
619.224	27.7
619.417	27.59
619.609	27.6
619.802	27.68
619.994	27.64
620.187	27.57
620.38	27.57
620.572	27.49
620.765	27.53
620.957	27.37
621.15	27.31
621.342	27.22
621.535	27.2
621.727	27.08
621.92	27.04
622.112	26.97
622.305	27.04
622.497	27.01
622.69	26.91
622.882	26.88
623.074	27.02
623.267	26.85
623.459	26.77
623.651	26.82
623.844	26.89
624.036	26.77
624.228	26.81
624.42	26.8
624.613	26.88
624.805	26.78
624.997	26.76
625.189	26.65
625.381	26.74
625.574	26.61
625.766	26.6
625.958	26.59
626.15	26.63
626.342	26.54
626.534	26.46
626.726	26.45
626.918	26.44
627.11	26.38
627.302	26.3
627.494	26.31
627.686	26.28
627.878	26.2
628.07	26.26
628.262	26.24
628.454	26.26
628.646	26.24
628.838	26.22
629.029	26.11
629.221	26.21
629.413	26.11
629.605	25.99
629.797	25.94
629.989	25.94
630.18	25.81
630.372	25.77
630.564	25.74
630.755	25.73
630.947	25.73
631.139	25.68
631.33	25.51
631.522	25.59
631.714	25.57
631.905	25.42
632.097	25.36
632.289	25.45
632.48	25.34
632.672	25.29
632.863	25.26
633.055	25.17
633.246	25.14
633.438	25.15
633.629	25.06
633.821	25.13
634.012	25.21
634.203	25.16
634.395	25.08
634.586	25.17
634.777	25.18
634.969	25.08
635.16	25.11
635.351	25.04
635.543	24.98
635.734	24.85
635.925	24.88
636.117	24.89
636.308	24.97
636.499	24.97
636.69	24.92
636.881	24.89
637.073	24.92
637.264	24.84
637.455	24.83
637.646	24.92
637.837	25.01
638.028	24.87
638.219	24.86
638.41	24.82
638.601	24.73
638.792	24.68
638.983	24.69
639.174	24.69
639.365	24.69
639.556	24.68
639.747	24.59
639.938	24.55
640.129	24.47
640.32	24.34
640.511	24.29
640.701	24.31
640.892	24.23
641.083	24.34
641.274	24.46
641.465	24.42
641.655	24.3
641.846	24.3
642.037	24.1
642.228	23.93
642.418	23.92
642.609	23.93
642.8	23.95
642.99	24.04
643.181	24.07
643.372	24.1
643.562	24.07
643.753	23.97
643.943	23.84
644.134	23.7
644.324	23.63
644.515	23.59
644.705	23.68
644.896	23.74
645.086	23.75
645.277	23.7
645.467	23.69
645.658	23.54
645.848	23.52
646.038	23.5
646.229	23.45
646.419	23.38
646.61	23.36
646.8	23.22
646.99	23.15
647.18	23.12
647.371	23.01
647.561	22.91
647.751	22.94
647.941	22.89
648.132	22.88
648.322	22.83
648.512	22.88
648.702	22.88
648.892	22.92
649.082	22.87
649.272	22.81
649.462	22.66
649.653	22.56
649.843	22.44
650.033	22.42
650.223	22.49
650.413	22.58
650.603	22.53
650.793	22.54
650.983	22.49
651.172	22.34
651.362	22.28
651.552	22.27
651.742	22.17
651.932	22.07
652.122	22.13
652.312	22.06
652.502	22.01
652.691	21.92
652.881	21.86
653.071	21.66
653.261	21.48
653.45	21.3
653.64	21.29
653.83	21.17
654.019	21.14
654.209	21.09
654.399	21.02
654.588	20.89
654.778	20.86
654.968	20.69
655.157	20.59
655.347	20.43
655.536	20.25
655.726	20.04
655.915	19.93
656.105	19.74
656.294	19.68
656.484	19.55
656.673	19.39
656.863	19.35
657.052	19.27
657.241	18.96
657.431	18.7
657.62	18.5
657.809	18.1
657.999	17.89
658.188	17.68
658.377	17.54
658.567	17.37
658.756	17.24
658.945	17.06
659.134	16.91
659.324	16.72
659.513	16.56
659.702	16.4
659.891	16.13
660.08	15.98
660.269	15.89
660.458	15.77
660.648	15.52
660.837	15.42
661.026	15.22
661.215	14.96
661.404	14.69
661.593	14.55
661.782	14.28
661.971	14.15
662.16	13.96
662.349	13.75
662.538	13.55
662.726	13.39
662.915	13.1
663.104	12.92
663.293	12.91
663.482	12.84
663.671	12.77
663.86	12.66
664.048	12.55
664.237	12.37
664.426	12.16
664.615	12.02
664.803	11.85
664.992	11.66
665.181	11.48
665.369	11.28
665.558	11.13
665.747	11.02
665.935	11.06
666.124	11.01
666.312	10.96
666.501	10.81
666.69	10.67
666.878	10.46
667.067	10.29
667.255	10.31
667.444	10.48
667.632	10.6
667.82	10.68
668.009	10.6
668.197	10.51
668.386	10.27
668.574	10.27
668.762	10.11
668.951	9.97
669.139	9.88
669.327	9.83
669.516	9.74
669.704	9.7
669.892	9.89
670.08	9.91
670.269	9.76
670.457	9.63
670.645	9.49
670.833	9.5
671.021	9.43
671.21	9.52
671.398	9.63
671.586	9.66
671.774	9.44
671.962	9.51
672.15	9.47
672.338	9.3
672.526	9.34
672.714	9.36
672.902	9.26
673.09	9.52
673.278	9.68
673.466	9.76
673.654	9.93
673.842	9.97
674.03	9.81
674.218	9.63
674.405	9.65
674.593	9.54
674.781	9.63
674.969	9.66
675.157	9.86
675.344	9.89
675.532	9.94
675.72	10.1
675.908	10.2
676.095	10.22
676.283	10.29
676.471	10.52
676.658	10.44
676.846	10.45
677.033	10.54
677.221	10.61
677.409	10.47
677.596	10.54
677.784	10.62
677.971	10.66
678.159	10.65
678.346	10.89
678.534	11.02
678.721	11.13
678.909	11.19
679.096	11.36
679.283	11.49
679.471	11.66
679.658	11.8
679.846	12.04
680.033	12.37
680.22	12.41
680.408	12.35
680.595	12.56
680.782	12.57
680.969	12.63
681.157	12.81
681.344	13.15
681.531	13.32
681.718	13.46
681.905	13.59
682.093	13.77
682.28	13.99
682.467	14.17
682.654	14.46
682.841	14.69
683.028	15.02
683.215	15.19
683.402	15.23
683.589	15.55
683.776	15.85
683.963	15.84
684.15	16.11
684.337	16.46
684.524	16.46
684.711	16.71
684.898	16.96
685.085	17.15
685.271	17.55
685.458	18.07
685.645	18.24
685.832	18.74
686.019	19.17
686.205	19.49
686.392	19.77
686.579	20.23
686.766	20.68
686.952	20.98
687.139	21.47
687.326	21.82
687.512	22.16
687.699	22.48
687.886	22.94
688.072	23.25
688.259	23.9
688.445	24.53
688.632	24.86
688.818	25.6
689.005	26.13
689.191	26.54
689.378	27.04
689.564	27.91
689.751	28.34
689.937	28.86
690.124	29.39
690.31	29.76
690.496	30.07
690.683	30.63
690.869	31.2
691.055	31.8
691.242	32.66
691.428	33.28
691.614	33.77
691.8	34.61
691.987	35.28
692.173	35.8
692.359	36.43
692.545	36.99
692.731	37.4
692.918	38
693.104	38.55
693.29	39.23
693.476	39.82
693.662	40.44
693.848	41.02
694.034	41.53
694.22	41.99
694.406	42.62
694.592	43.22
694.778	43.75
694.964	44.23
695.15	44.83
695.336	45.41
695.522	46.05
695.708	46.69
695.894	47.47
696.08	48.17
696.265	48.77
696.451	49.11
696.637	49.42
696.823	49.82
697.009	49.95
697.194	50.29
697.38	50.82
697.566	51.59
697.751	52.19
697.937	53.08
698.123	53.82
698.308	54.43
698.494	54.9
698.68	55.42
698.865	55.84
699.051	56.2
699.236	56.34
699.422	56.77
699.607	56.88
699.793	57.3
699.978	57.54
700.164	57.96
700.349	58.38
700.535	58.95
700.72	59.09
700.906	59.82
701.091	60.03
701.276	60.34
701.462	61.01
701.647	61.84
701.832	62.09
702.018	62.83
702.203	63.06
702.388	62.79
702.573	62.73
702.759	63.29
702.944	63.34
703.129	63.58
703.314	64.18
703.499	64.43
703.684	64.25
703.87	65.01
704.055	65.45
704.24	65.84
704.425	66.21
704.61	66.67
704.795	66.71
704.98	66.83
705.165	66.81
705.35	67.08
705.535	67.37
705.72	67.71
705.905	68.32
706.09	68.83
706.275	68.96
706.459	68.83
706.644	68.72
706.829	68.55
707.014	68.28
707.199	68.58
707.384	68.84
707.568	69.22
707.753	69.63
707.938	70.17
708.123	70.21
708.307	70.48
708.492	70.6
708.677	70.58
708.861	70.42
709.046	70.7
709.231	71.23
709.415	71.65
709.6	71.69
709.784	71.87
709.969	71.95
710.153	71.69
710.338	71.46
710.522	71.53
710.707	71.95
710.891	72.02
711.076	72.25
711.26	72.47
711.445	72.82
711.629	73.07
711.813	73.22
711.998	73.39
712.182	73.22
712.366	73.28
712.551	73.77
712.735	74.05
712.919	73.72
713.103	74.06
713.288	73.81
713.472	73.11
713.656	73.28
713.84	73.41
714.024	73.59
714.208	73.96
714.393	74.61
714.577	74.79
714.761	75.2
714.945	75.34
715.129	75.8
715.313	75.57
715.497	75.19
715.681	75.69
715.865	75.71
716.049	75.33
716.233	75.18
716.417	75.41
716.601	74.94
716.785	74.78
716.968	75.11
717.152	75.55
717.336	75.74
717.52	75.51
717.704	75.6
717.888	75.75
718.071	75.63
718.255	75.76
718.439	75.94
718.622	75.99
718.806	75.99
718.99	75.59
719.174	75.23
719.357	75.41
719.541	75.53
719.724	75.17
719.908	75.98
720.092	76.36
720.275	76.21
720.459	76.14
720.642	76.47
720.826	76.09
721.009	75.71
721.193	75.63
721.376	76.02
721.559	76.08
721.743	76.51
721.926	76.77
722.11	77.46
722.293	76.89
722.476	76.8
722.66	76.94
722.843	76.91
723.026	76.07
723.21	76.49
723.393	77.08
723.576	76.92
723.759	76.66
723.942	77.22
724.126	77.01
724.309	76.39
724.492	76.5
724.675	76.47
724.858	77.08
725.041	77.21
725.224	77.7
725.407	77.84
725.59	78.55
725.774	78.18
725.957	77.84
726.14	77.46
726.322	76.59
726.505	76.13
726.688	76.51
726.871	76.76
727.054	77.07
727.237	77.73
727.42	78.4
727.603	78.15
727.786	78.64
727.968	78.61
728.151	78.12
728.334	77.73
728.517	77.64
728.699	77.69
728.882	77.72
729.065	78.66
729.248	79.19
729.43	79.71
729.613	80.55
729.796	81.32
729.978	80.43
730.161	80.08
730.343	79.41
730.526	78.94
730.708	78.29
730.891	78.54
731.073	78.4
731.256	78.38
731.438	78.25
731.621	78.46
731.803	78.63
731.986	78.75
732.168	78.13
732.35	78.03
732.533	78.1
732.715	78.45
732.898	78.5
733.08	79.44
733.262	80.06
733.444	79.96
733.627	80.1
733.809	80.43
733.991	80.94
734.173	80.11
734.355	80.19
734.538	80.42
734.72	80.17
734.902	79.89
735.084	80.54
735.266	80.86
735.448	81.09
735.63	80.99
735.812	81.04
735.994	81.2
736.176	80.57
736.358	80.12
736.54	80.92
736.722	80.58
736.904	79.77
737.086	80.15
737.268	80.25
737.45	79.88
737.632	80.16
737.814	79.86
737.995	79.52
738.177	79.35
738.359	78.93
738.541	78.87
738.723	79.03
738.904	79.65
739.086	79.58
739.268	79.65
739.449	79.54
739.631	79.71
739.813	79.75
739.994	80.35
740.176	80.49
740.358	81.01
740.539	82.25
740.721	81.76
740.902	82.03
741.084	81.98
741.265	81.24
741.447	81.12
741.628	81.91
741.81	81.18
741.991	82.06
742.172	83.27
742.354	83.23
742.535	83.12
742.717	83.51
742.898	83.88
743.079	83.9
743.261	83.69
743.442	82.96
743.623	83.38
743.804	82.62
743.986	82.79
744.167	81.42
744.348	81.48
744.529	81.1
744.71	79.98
744.891	79.07
745.073	79.56
745.254	79.93
745.435	79.52
745.616	79.88
745.797	80.05
745.978	80.55
746.159	79.95
746.34	79.38
746.521	81.6
746.702	81.19
746.883	79.67
747.064	79.58
747.245	80.3
747.426	78.46
747.606	78.87
747.787	80.75
747.968	81.2
748.149	80.54
748.33	81.63
748.51	82.13
748.691	81.41
748.872	81.77
749.053	82.35
749.233	80.87
749.414	79.93
749.595	78.95
749.775	78.86
749.956	78.23
750.137	79.57
750.317	80.09
750.498	82.02
750.678	82.34
750.859	82.94
751.04	81.67
751.22	80.59
751.4	79.19
751.581	77.64
751.761	78.8
751.942	79.72
752.122	79.61
752.303	79.41
752.483	79.7
752.663	78.98
752.844	78.08
753.024	79.56
753.204	80.41
753.385	80.03
753.565	79.02
753.745	78.59
753.925	77.8
754.106	77.73
754.286	77.55
754.466	78.79
754.646	80.47
754.826	80.06
755.006	79.99
755.187	81.04
755.367	81.52
755.547	80.24
755.727	80.73
755.907	80.67
756.087	81.24
756.267	78.88
756.447	79.81
756.627	79.46
756.807	79.49
756.987	77.91
757.167	79.08
757.346	78.36
757.526	77.99
757.706	77.71
757.886	78.73
758.066	77.59
758.246	78.54
758.425	78.98
758.605	79.61
758.785	79.58
758.965	80.03
759.144	78.91
759.324	79.18
759.504	78.64
759.683	79.31
759.863	78.37
760.043	77.08
760.222	75.73
760.402	74.72
760.581	74.17
760.761	76.4
760.94	76.62
761.12	79.27
761.299	80.62
761.479	79.82
761.658	77.59
761.838	78.01
762.017	76.4
762.197	76.03
762.376	76.5
762.555	78.91
762.735	79.52
762.914	78.93
763.093	78.72
763.273	77.61
763.452	75.8
763.631	75.18
763.81	75.86
763.99	75.88
764.169	76.05
764.348	74.8
764.527	74.8
764.706	76.02
764.885	76.63
765.064	76.37
765.243	78.18
765.423	78.74
765.602	77.58
765.781	75.62
765.96	75.75
766.139	74.41
766.318	74.44
766.497	74.23
766.676	74.58
766.854	76.08
767.033	77.36
767.212	75.97
767.391	76.11
767.57	78.74
767.749	77.63
767.928	78.57
768.106	78.6
768.285	76.54
768.464	74.76
768.643	74.22
768.821	73.73
769	75.93
769.179	76.6
769.357	76.1
769.536	75.56
769.715	75.66
769.893	75.56
770.072	75.42
770.25	75.59
770.429	76.74
770.607	75.79
770.786	75.38
770.964	77.03
771.143	75.82
771.321	77.31
771.5	78.25
771.678	76.7
771.857	75.28
772.035	76.9
772.213	75.87
772.392	73.34
772.57	74.72
772.748	75.03
772.927	74.1
773.105	74.09
773.283	74.38
773.461	75.06
773.64	76.64
773.818	76.4
773.996	76.97
774.174	77.36
774.352	74.25
774.531	70.63
774.709	73.12
774.887	71.06
775.065	71.27
775.243	72.43
775.421	74.19
775.599	73.56
775.777	72.79
775.955	70.91
776.133	69.79
776.311	69.68
776.489	67.4
776.667	68.34
776.844	70.5
777.022	70.3
777.2	69.11
777.378	70.34
777.556	71.31
777.734	73.49
777.911	76.18
778.089	76.62
778.267	77.36
778.445	75.6
778.622	73.19
778.8	72.23
778.978	73.06
779.155	70.44
779.333	70.61
779.511	71.45
779.688	72.24
779.866	69.1
780.043	69.57
780.221	70
780.398	66.4
780.576	67.11
780.753	70.01
780.931	68.98
781.108	69.29
781.286	73.29
781.463	70.45
781.64	69.02
781.818	70.25
781.995	69.55
782.172	68.68
782.35	68.98
782.527	71.22
782.704	70.95
782.882	73.1
783.059	71.64
783.236	73.55
783.413	74.09
783.59	74.47
783.768	72.1
783.945	74.26
784.122	71.81
784.299	70.7
784.476	68.54
784.653	67.49
784.83	65.25
785.007	62.09
785.184	62.24
785.361	62.09
785.538	64.7
785.715	66.01
785.892	70.63
786.069	73.24
786.246	78.48
786.423	76.82
786.6	75.97
786.776	74.76
786.953	70.86
787.13	69.25
787.307	72.02
787.484	71.88
787.66	72.53
787.837	74.61
788.014	69.81
788.191	65.56
788.367	63.75
788.544	64.5
788.721	59.86
788.897	63.23
789.074	66.5
789.25	65.08
789.427	64.24
789.603	64.75
789.78	65.05
789.956	61.36
790.133	62.75
790.309	64.91
790.486	71.92
790.662	70.23
790.839	70.03
791.015	69.55
791.192	67.04
791.368	65.18
791.544	63.84
791.721	64.04
791.897	66.91
792.073	63.37
792.249	56.13
792.426	58.34
792.602	61.88
792.778	62.19
792.954	63.71
793.13	65.75
793.307	64.19
793.483	58.26
793.659	59.29
793.835	58.19
794.011	55.91
794.187	56.66
794.363	60.03
794.539	57.69
794.715	57.26
794.891	62.08
795.067	61.13
795.243	64.25
795.419	60.2
795.595	62.31
795.771	59.71
795.947	59.73
796.122	53.93
796.298	59.29
796.474	64.05
796.65	65.41
796.826	64.72
797.001	67.83
797.177	62.79
797.353	60.69
797.529	62.96
797.704	62.95
797.88	62.23
798.056	61.96
798.231	57.84
798.407	58.79
798.582	62.54
798.758	67.23
798.934	74.33
799.109	75.34
799.285	71.73
799.46	70.05
799.636	64.36
799.811	61.54
799.986	62.77
800.162	64.78
800.337	63.39
800.513	64.83
800.688	65.87
800.863	68.42
801.039	61.22
801.214	51.99
801.389	50.39
801.565	47.18
801.74	42.24
801.915	49.67
802.09	57.27
802.265	64.33
802.441	61.59
802.616	65.5
802.791	68.44
802.966	71.7
803.141	67.35
803.316	66.2
803.491	65.33
803.666	65.63
803.841	62.18
804.016	58.56
804.191	66.45
804.366	63.9
804.541	59.27
804.716	55.76
804.891	54.88
805.066	55.39
805.241	49.65
805.416	49.77
805.591	51.16
805.765	55.43
805.94	52.14
806.115	58.85
806.29	54.44
806.464	56.73
806.639	51.73
806.814	46.26
806.989	38.08
807.163	53.48
807.338	54.42
807.512	50.51
807.687	40.58
807.862	57.16
808.036	52.12
808.211	54.82
808.385	57.21
808.56	71.66
808.734	66.8
808.909	56.32
809.083	43.43
809.258	55.12
809.432	56.6
809.606	41.7
809.781	45.36
809.955	50.01
810.13	50.4
810.304	43.28
810.478	43.55
810.652	48.23
810.827	47.16
811.001	44.94
811.175	46.37
811.349	46.73
811.524	43.65
811.698	41.02
811.872	39.58
812.046	50.47
812.22	61.78
812.394	61.47
812.568	69.81
812.742	73.2
812.916	62.19
813.09	55.92
813.264	49.5
813.438	51.17
813.612	44.83
813.786	41.94
813.96	47.68
814.134	50.1
814.308	51.05
814.482	53.93
814.656	46.22
814.83	47.61
815.003	49.89
815.177	47.12
815.351	44.69
815.525	47.63
815.698	44.73
815.872	37.96
816.046	25.61
816.219	30.13
816.393	46.03
816.567	52.6
816.74	58.41
816.914	69.73
817.088	75.26
817.261	67.26
817.435	51.34
817.608	49.27
817.782	42.3
817.955	37.08
818.129	34.28
818.302	51.32
818.475	53.14
818.649	58.51
818.822	47.96
818.996	70.83
819.169	70.74
819.342	58.95
819.516	63.14
819.689	72.79
819.862	52.36
820.035	42.81
820.209	41.08
820.382	33.55
820.555	36.05
820.728	26.41
820.901	30.89
821.075	46.08
821.248	52.55
821.421	39.71
821.594	48.3
821.767	53.35
821.94	47.3
822.113	28.09
822.286	29.41
822.459	30.5
822.632	22.08
822.805	18.65
822.978	22.59
823.151	21.99
823.324	11.81
823.496	-14.44
823.669	-17.27
823.842	2.36
824.015	-0.31
824.188	0
824.361	20.12
824.533	16.73
824.706	27.63
824.879	31.7
825.051	52.3
825.224	46.87
825.397	45.13
825.569	24.31
825.742	41.56
825.915	39.5
826.087	61.09
826.26	57.23
826.432	55
826.605	48.26
826.777	43.17
826.95	33.06
827.122	15.42
827.295	9.22
827.467	14.31
827.64	-11.26
827.812	-13.64
827.984	-3.12
828.157	6.44
828.329	-37.01
828.501	-35.86
828.674	-4.31
828.846	-0.83
829.018	11.88
829.19	5.94
829.363	44.83
829.535	45.73
829.707	52.46
829.879	44.98
830.051	54.7
830.223	33.48
830.395	2.38
830.568	-5.38
830.74	-27.63
830.912	-0.74
831.084	-8.75
831.256	3.02
831.428	-6.8
831.6	-5.95
831.772	-29.87
831.943	-51.03
832.115	-34.4
832.287	-6.16
832.459	9.79
832.631	18.67
832.803	39.1
832.975	60.37
833.146	50.55
833.318	34.39
833.49	40.83
833.662	31.1
833.833	3.32
834.005	-2.52
834.177	-3.97
834.348	-9.89
834.52	-20.28
834.692	-29.36
834.863	-36.1
835.035	-14.22
835.206	-58.81
835.378	-44.21
835.549	-22.64
835.721	-21.8
835.892	-19.16
836.064	-11.29
836.235	-17.14
836.407	-26.06
836.578	-45.33
836.749	-49.69
836.921	-41.16
837.092	-58.47
837.264	-46
837.435	-44.21
837.606	-10.5
837.777	16.49
837.949	35.62
838.12	27.98
838.291	36.7
838.462	15.3
838.633	-2.95
838.805	-5.32
838.976	1.7
839.147	-41.16
839.318	-32.89
839.489	-91.54
839.66	-106.42
839.831	-81.26
840.002	-74.61
840.173	-93.63
840.344	-21.81
840.515	-6.13
840.686	-68.59
840.857	-38.22
841.028	-41.82
841.199	-62.23
841.369	-102.67
841.54	-86.15
841.711	-30.32
841.882	-20.18
842.053	-15.23
842.223	4.01
842.394	19.02
842.565	7.44
842.736	13.93
842.906	14.81
843.077	26.29
843.248	27.18
843.418	33.09
843.589	16.82
843.759	85.4
843.93	61.36
844.101	49.41
844.271	33.22
844.442	41.79
844.612	42.81
844.783	10.4
844.953	-10.63
845.123	-20.41
845.294	-23.29
845.464	-154.93
845.635	-39.13
845.805	-12.46
845.975	10.89
846.146	-22.18
846.316	-31.95
846.486	-3.58
846.656	19.07
846.827	7.84
846.997	3.88
847.167	7.95
847.337	-16.6
847.507	-53.62
847.677	-25.09
847.848	19.82
848.018	30.86
848.188	38.24
848.358	15.09
848.528	-11.14
848.698	-55.46
848.868	-174.62
849.038	-264.08
849.208	-99.4
849.378	-54.69
849.548	-27.39
849.718	-12.48
849.887	7.18
850.057	1.82
850.227	-12.51
850.397	-18.01
850.567	-57.76
850.737	-150
850.906	-573.75
851.076	-667.97
851.246	-367.54
851.415	-60.66
851.585	-57.58
851.755	-85.56
851.924	-31.17
852.094	-74.68
852.264	-165.27
852.433	-1015.38
852.603	-210.15
852.772	-152.56
852.942	-63.61
853.111	-51.94
853.281	-18.62
853.45	-2.55
853.62	-83.69
853.789	-72.55
853.959	-53.82
854.128	-63.13
854.297	-70.09
854.467	-86.49
854.636	-102.94
854.805	-55.04
854.975	-47.21
855.144	-65.75
855.313	130.07
855.482	-194.89
855.652	-130.99
855.821	-150
855.99	-22.33
856.159	1.7
856.328	9.76
856.497	-3.64
856.667	-13.13
856.836	-26.37
857.005	-63.83
857.174	-97.71
857.343	-143.63
857.512	-74.49
857.681	-109.8
857.85	-130.39
858.019	-37.46
858.188	-22.18
858.356	-66.89
858.525	-110.02
858.694	-105.6
858.863	-248.64
859.032	-167.65
859.201	-209.55
859.369	-133.16
859.538	-57.45
859.707	-36.46
859.876	-47.89
860.044	-76.81
860.213	-12.39
860.382	-37.07
860.55	-39.87
860.719	-10.1
860.888	18.68
861.056	-14.1
861.225	-23.37
861.393	8.8
861.562	-32.21
861.73	-124.8
861.899	-343.98
862.067	-2255.17
862.236	-135.78
862.404	-236.02
862.572	-125.4
862.741	-15.85
862.909	-36.14
863.078	-124.83
863.246	-85.55
863.414	-86.17
863.582	-64.51
863.751	-75.88
863.919	-67.15
864.087	-24.84
864.255	-7.81
864.424	-341.83
864.592	-52.31
864.76	-129.04
864.928	-434.4
865.096	-252.23
865.264	-143.13
865.432	-2059.09
865.6	-249
865.768	-159.75
865.936	-176.01
866.104	-211.14
866.272	-272.81
866.44	-388.58
866.608	583.7
866.776	287.74
866.944	2979.07
867.112	-551.69
867.28	-256.7
867.448	-137.07
867.615	-69.46
867.783	-51.33
867.951	-46.13
868.119	-12.65
868.286	-53.79
868.454	-157.43
868.622	-158.23
868.789	-140.98
868.957	-4285.71
869.125	-1871.05
869.292	-120.88
869.46	-213.75
869.627	-50.29
869.795	-20.84
869.963	-4.42
870.13	13.5
870.298	24.69
870.465	-45.29
870.632	-77.51
870.8	-63.4
870.967	-109.43
871.135	-140.56
871.302	-100.17
871.469	-102.21
871.637	-179.36
871.804	-117.64
871.971	-180.24
872.139	-595.81
872.306	-114.47
872.473	-89.14
872.64	-368.24
872.807	-93.51
872.975	24.24
873.142	-117.82
873.309	1289.19
873.476	34.7
873.643	61.66
873.81	8.26
873.977	47.44
874.144	42.52
874.311	-71.29
874.478	-114.92
874.645	-120.93
874.812	-85.71
874.979	-55.25
875.146	-37.99
875.313	-32.7
875.48	30.68
875.647	-4.31
875.813	-21.63
875.98	-11.71
876.147	-32.02
876.314	-104.17
876.481	748.76
876.647	-964.04
876.814	425.91
876.981	-105
877.147	-66.61
877.314	-10.41
877.481	6.76
877.647	16.99
877.814	-3.75
877.98	-11.34
878.147	-4.19
878.314	40.05
878.48	-13.26
878.647	22.07
878.813	48.79
878.979	20.45
879.146	-33.87
879.312	-26.01
879.479	-112.13
879.645	-222.13
879.811	-387.07
879.978	-815.27
880.144	-191.29
880.31	-63.18
880.477	-252.58
880.643	-225
880.809	-90.7
880.975	-99.61
881.142	-1033.64
881.308	-135.35
881.474	-70.16
881.64	-80.39
881.806	-119.72
881.972	-29.72
882.138	-6.48
882.304	-8.65
882.47	-150.4
882.636	-563.11
882.802	-142.36
882.968	-55.43
883.134	-43.38
883.3	-29.33
883.466	4.27
883.632	17.77
883.798	-1.21
883.964	-20.53
884.129	-16.19
884.295	18.78
884.461	-14.3
884.627	-48.52
884.793	-65.58
884.958	-47.19
885.124	-146.79
885.29	-242.83
885.455	-441.26
885.621	-131.78
885.787	-150.39
885.952	-61.29
886.118	-64.05
886.283	-50.22
886.449	-131.69
886.614	-214.29
886.78	-535.38
886.945	2134.43
887.111	-797.69
887.276	-732.95
887.442	-949.09
887.607	-468.4
887.773	-303.82
887.938	-309.4
888.103	-341.8
888.269	-285.54
888.434	-343.78
888.599	-153.55
888.764	-39.84
888.93	-23.4
889.095	-34.14
889.26	-62.7
889.425	-53.03
889.59	-54.2
889.756	-97.5
889.921	-52.26
890.086	-35.32
890.251	-25.89
890.416	-210.07
890.581	-1669.35
890.746	293.57
890.911	535.03
891.076	216.54
891.241	-642.54
891.406	-24.49
891.571	-51.9
891.736	-221.56
891.901	-387.61
892.065	240.66
892.23	96.32
892.395	183.17
892.56	288.73
892.725	-400.78
892.889	-1587.8
893.054	-269.72
893.219	-92.23
893.384	-24.83
893.548	-54.1
893.713	-42.14
893.878	-7.01
