Data from Ofra_1a_PS_2HS9_Reflection_2.txt Node
Date: Tue Jul 20 10:54:35 EDT 2021
User: Adam
Spectrometer: FLMT01687
Trigger mode: 0
Integration Time (sec): 1.004000E0
Scans to average: 2
Electric dark correction enabled: true
Nonlinearity correction enabled: false
Boxcar width: 2
XAxis mode: Wavelengths
Number of Pixels in Spectrum: 3648
>>>>>Begin Spectral Data<<<<<
179.494	-420.81
179.716	-660.31
179.937	1466.56
180.158	-1516.56
180.38	194.11
180.601	141.18
180.823	55.34
181.044	-85.1
181.265	210.26
181.486	29.09
181.708	16.74
181.929	8227.27
182.15	-229.2
182.372	386.7
182.593	131.75
182.814	-114.94
183.035	-4.14
183.257	-3.14
183.478	-22.87
183.699	-71.87
183.92	-119.97
184.141	-129.44
184.363	-95.03
184.584	-126.98
184.805	-42.96
185.026	12.18
185.247	10.28
185.468	-20.65
185.689	-0.84
185.91	-63.19
186.132	-41.8
186.353	-34.28
186.574	-14.38
186.795	-14.17
187.016	11.97
187.237	-6.33
187.458	-20.28
187.679	-28.92
187.9	-31.44
188.121	-19.18
188.342	-13.79
188.563	1.99
188.784	26.62
189.005	27.67
189.226	15.31
189.447	9.11
189.667	-18.52
189.888	-46.81
190.109	-87.36
190.33	-78.44
190.551	-85.33
190.772	-59.42
190.993	-45.32
191.214	-38.57
191.434	-45.09
191.655	-51.19
191.876	-6.16
192.097	-15.78
192.318	14.42
192.538	-41.25
192.759	-25.67
192.98	-6.14
193.201	-3.35
193.421	-1.7
193.642	22.41
193.863	26.31
194.083	-2.26
194.304	14.21
194.525	-14.53
194.745	-21.67
194.966	-15.68
195.187	-21.55
195.407	-50.08
195.628	-26.73
195.848	-23.88
196.069	-47.04
196.29	-27.44
196.51	-25.82
196.731	-25.83
196.951	-41.15
197.172	-27.68
197.392	-52.67
197.613	-24.21
197.833	-31.46
198.054	-31.99
198.274	-19.91
198.495	2.31
198.715	-8.42
198.936	3.78
199.156	28.48
199.377	33.54
199.597	31.72
199.817	35.5
200.038	16.73
200.258	15.66
200.479	9.94
200.699	-12.04
200.919	-13.96
201.14	-12.13
201.36	-27.9
201.58	-57.83
201.801	-53.41
202.021	-51.4
202.241	-42.93
202.461	-40.57
202.682	-24.97
202.902	-20.84
203.122	-21.45
203.342	-30.7
203.563	-38.13
203.783	-31.25
204.003	-35.29
204.223	-23.61
204.443	-11.1
204.663	-21.49
204.884	-22.72
205.104	-13.2
205.324	10.41
205.544	-35.4
205.764	3.36
205.984	5.8
206.204	20.48
206.424	-1.52
206.644	12.24
206.864	-22.32
207.084	-17.29
207.304	-40.85
207.525	-48.87
207.745	-33.75
207.964	-19.67
208.184	-16.37
208.404	-19.77
208.624	-9.75
208.844	-9.21
209.064	-14.85
209.284	-14.66
209.504	-20.28
209.724	-24.61
209.944	-45.66
210.164	-34.3
210.384	-70.84
210.604	-121.61
210.823	-129.19
211.043	-73.8
211.263	-159.94
211.483	-62.14
211.703	-18.77
211.922	-30.46
212.142	-53.15
212.362	-15.54
212.582	-28.27
212.801	-49.66
213.021	-49.97
213.241	-49.18
213.461	-60.13
213.68	-45.98
213.9	-42.53
214.12	-41.46
214.339	-29.15
214.559	-28.12
214.779	-35
214.998	-11.35
215.218	-9.04
215.438	-8.04
215.657	-16.9
215.877	-26.01
216.096	-7.3
216.316	1.97
216.535	-4.6
216.755	6.21
216.974	11.38
217.194	-27.65
217.413	-20.04
217.633	-26.61
217.852	-21.68
218.072	-8.5
218.291	-13.54
218.511	-25.46
218.73	-36.62
218.95	-79.24
219.169	-85.18
219.389	-56.34
219.608	-50.1
219.827	-26.65
220.047	-16.68
220.266	-49.57
220.485	-53.8
220.705	-57.17
220.924	-95.72
221.143	-31.45
221.363	-2.06
221.582	-13.33
221.801	-10.58
222.021	-4.04
222.24	-15.87
222.459	-1.54
222.678	2.92
222.897	6.35
223.117	6.77
223.336	16.25
223.555	6
223.774	5.99
223.993	9.85
224.213	49.3
224.432	27.25
224.651	11.87
224.87	21.14
225.089	9.26
225.308	12.56
225.527	4.63
225.746	-5.25
225.965	-6.83
226.184	-24.77
226.404	-47.11
226.623	-40.98
226.842	-24.35
227.061	-15.74
227.28	12.42
227.499	15.23
227.718	17.92
227.936	22.44
228.155	10.5
228.374	8.31
228.593	9.24
228.812	8.32
229.031	1.59
229.25	-15.3
229.469	-27.46
229.688	-36.48
229.907	-7.49
230.125	-10.42
230.344	14.43
230.563	21.79
230.782	33.07
231.001	8.15
231.22	23
231.438	29
231.657	18.4
231.876	6
232.095	15.38
232.313	-5.78
232.532	-25.62
232.751	-23.15
232.969	-15.09
233.188	-33.21
233.407	-26.36
233.625	-25.11
233.844	-19.4
234.063	-19.06
234.281	-0.37
234.5	-5.45
234.719	-4.25
234.937	-38.38
235.156	-41.73
235.374	-67.85
235.593	-26.68
235.811	-12.58
236.03	12.25
236.249	18.31
236.467	31.03
236.686	10.34
236.904	12.77
237.123	-3.91
237.341	-1.27
237.559	-12.45
237.778	20.96
237.996	-9.45
238.215	-6.61
238.433	-55.83
238.652	-15.45
238.87	-60.68
239.088	-64.07
239.307	-40.89
239.525	-34.52
239.743	-46.29
239.962	-56
240.18	-27.47
240.398	-32.56
240.617	-49.74
240.835	-46.95
241.053	-20.25
241.271	-21.48
241.49	-10.49
241.708	-13.49
241.926	-11.27
242.144	4.48
242.363	2.08
242.581	-5.8
242.799	-5.33
243.017	-15.84
243.235	-28.71
243.453	-53.82
243.672	-36.83
243.89	-23.94
244.108	-8.93
244.326	-10.89
244.544	5.84
244.762	-4.74
244.98	-9.25
245.198	-14.32
245.416	-9.63
245.634	-13.59
245.852	-27.49
246.07	2.96
246.288	-5.5
246.506	-14.57
246.724	-13.78
246.942	1.48
247.16	-16.82
247.378	-41.34
247.596	-21.42
247.814	-34.3
248.032	-34.59
248.25	4.5
248.468	28.09
248.685	26.17
248.903	18.54
249.121	22.77
249.339	13.43
249.557	-2.24
249.775	3.01
249.992	2.48
250.21	-11.74
250.428	-9.73
250.646	-12.68
250.863	-40.33
251.081	-34.18
251.299	-18.9
251.517	-16.52
251.734	-11.94
251.952	1.81
252.17	2.73
252.387	-29.5
252.605	-39.77
252.823	-71.45
253.04	-57.85
253.258	-51.36
253.475	-19.2
253.693	-21.35
253.911	-7.17
254.128	-14
254.346	-11.99
254.563	-4.95
254.781	-5.62
254.998	0.92
255.216	-24.06
255.433	-33
255.651	-25.91
255.868	-25.63
256.086	-19.39
256.303	-3.56
256.521	13.88
256.738	2.83
256.956	9.65
257.173	-13.52
257.39	-15.06
257.608	-35.06
257.825	-24.18
258.043	-15.98
258.26	-0.47
258.477	7.88
258.695	15.71
258.912	4.12
259.129	-21.17
259.346	-53.8
259.564	-51.96
259.781	-69.64
259.998	-48.43
260.216	-6.1
260.433	-15.22
260.65	-33.5
260.867	-34.21
261.084	-34.31
261.302	-79.66
261.519	-28.12
261.736	-12.61
261.953	-9.95
262.17	8.28
262.387	14.33
262.604	-0.5
262.822	9.45
263.039	8.96
263.256	-5.11
263.473	1.9
263.69	5.75
263.907	-7.13
264.124	-9.66
264.341	-5.73
264.558	-27.67
264.775	-36.63
264.992	-38.03
265.209	-49.02
265.426	-83.84
265.643	-41.53
265.86	-53.65
266.077	-41.93
266.294	-30.71
266.51	15.68
266.727	6.53
266.944	24.39
267.161	20.54
267.378	35.11
267.595	13.79
267.812	-8.67
268.028	-39.04
268.245	-31.12
268.462	-25.03
268.679	-20.67
268.896	3.63
269.112	4.24
269.329	-14.86
269.546	-14.72
269.763	-7.54
269.979	-18.84
270.196	-12.59
270.413	-8.63
270.629	-16.38
270.846	-21.37
271.063	0.85
271.279	4.59
271.496	-1.52
271.712	-2.1
271.929	17.85
272.146	13.83
272.362	10.18
272.579	29.38
272.795	42.66
273.012	28.91
273.228	21.82
273.445	19.35
273.661	-0.88
273.878	-20.75
274.094	-22.78
274.311	-9.92
274.527	-3.1
274.744	1.29
274.96	9.4
275.177	11.58
275.393	18.59
275.609	22.16
275.826	24.5
276.042	5.6
276.259	13.59
276.475	-4.42
276.691	-5.72
276.908	-3.63
277.124	16.74
277.34	-6.81
277.557	-6.79
277.773	-25.1
277.989	-25.14
278.205	-26.97
278.422	-8.05
278.638	-8.06
278.854	-7.03
279.07	5.42
279.286	3.73
279.503	1.24
279.719	4.51
279.935	11.95
280.151	-5.2
280.367	3.05
280.583	-1.65
280.799	-12.49
281.016	-45.26
281.232	-30.41
281.448	-36.48
281.664	-27.1
281.88	-6.27
282.096	9.61
282.312	10.37
282.528	-0.18
282.744	-9.73
282.96	-31.93
283.176	-68.99
283.392	-113.42
283.608	-51.05
283.824	-68.13
284.04	-113.86
284.256	-40.69
284.471	-17.8
284.687	-19.22
284.903	-2.88
285.119	15.28
285.335	13.65
285.551	7.79
285.767	-8.83
285.982	-15.48
286.198	-42.36
286.414	-36.19
286.63	-53.45
286.846	-39.11
287.061	-29.22
287.277	-10.15
287.493	-37.38
287.709	-34.02
287.924	-9.01
288.14	0.99
288.356	22.24
288.571	27.17
288.787	22.41
289.003	23.24
289.218	4.58
289.434	-22.56
289.65	-5.35
289.865	-2.67
290.081	-10.76
290.296	-1.4
290.512	3.29
290.727	-12.55
290.943	-8.01
291.159	1.58
291.374	-14.46
291.59	-19.13
291.805	-23.59
292.021	-20.48
292.236	-41.92
292.451	-18.04
292.667	-15.39
292.882	-4
293.098	-15.93
293.313	-15.14
293.529	-17.39
293.744	-27.57
293.959	-15.14
294.175	-2.49
294.39	-11.66
294.605	-0.84
294.821	9.02
295.036	-3.41
295.251	-8.07
295.467	-1.4
295.682	-9.71
295.897	-19.71
296.112	-20.94
296.328	-13.26
296.543	-23.67
296.758	-28.43
296.973	-23.82
297.188	-33.68
297.404	-63.35
297.619	-66.68
297.834	-93.84
298.049	-69.79
298.264	-51.69
298.479	-42.92
298.694	7.71
298.909	21.92
299.125	17.21
299.34	25.35
299.555	33.48
299.77	32.02
299.985	24.85
300.2	27.95
300.415	23.58
300.63	20.09
300.845	-3.52
301.06	-7.09
301.275	-6.24
301.49	-7.56
301.704	-1.97
301.919	-6.56
302.134	-9.58
302.349	-5.9
302.564	-5.05
302.779	-3.16
302.994	9.92
303.209	11.95
303.423	0.61
303.638	4.69
303.853	-16.75
304.068	-41
304.283	-13.36
304.497	-30.02
304.712	-15.07
304.927	0.78
305.142	15.16
305.356	15.77
305.571	23.9
305.786	13.27
306	11.17
306.215	1.09
306.43	-9.36
306.644	-7.44
306.859	-19.9
307.074	-4.1
307.288	-2.28
307.503	3.35
307.717	-9.21
307.932	14.84
308.147	1.29
308.361	15.23
308.576	14.15
308.79	13.54
309.005	-5.1
309.219	6.48
309.434	-3.31
309.648	-13.78
309.863	-5.44
310.077	-15.58
310.292	-6.35
310.506	-14.39
310.72	-7.18
310.935	-0.56
311.149	8.09
311.364	0.65
311.578	6.94
311.792	-10.37
312.007	-25.7
312.221	-43.43
312.435	-46.89
312.649	-51.86
312.864	-39.43
313.078	-39.91
313.292	-32.6
313.507	-10.85
313.721	-8.79
313.935	-4.9
314.149	-4.34
314.363	16.27
314.578	-9.12
314.792	-46.7
315.006	-35.79
315.22	-22.99
315.434	-28.52
315.648	-22.37
315.862	-8.37
316.077	-7.62
316.291	-6.41
316.505	-26.56
316.719	-11.48
316.933	8.49
317.147	-4.3
317.361	-4.19
317.575	8.68
317.789	2.47
318.003	-8.18
318.217	-0.75
318.431	-11.72
318.645	-24.61
318.859	-20.09
319.073	-15.49
319.287	-16.95
319.5	-2.56
319.714	-2.88
319.928	-8.1
320.142	7.23
320.356	16.34
320.57	-6.29
320.784	-1.9
320.997	-14.43
321.211	-20.66
321.425	-34.09
321.639	-14.13
321.853	-1.56
322.066	-3.91
322.28	-23.49
322.494	-19.59
322.707	-25.4
322.921	-31.65
323.135	-28.24
323.349	-16.68
323.562	-5.52
323.776	-3.21
323.989	0.88
324.203	-9.41
324.417	-14.36
324.63	-31.76
324.844	-43.19
325.057	-78.38
325.271	-48.77
325.485	-51.72
325.698	-22.04
325.912	-0.22
326.125	-8.1
326.339	-11.35
326.552	-10.8
326.766	-30.24
326.979	-42.61
327.193	-19.56
327.406	-20.11
327.619	-6.66
327.833	-3.7
328.046	8.95
328.26	-0.62
328.473	0.9
328.686	-8.68
328.9	-1.46
329.113	-17.71
329.326	-11.14
329.54	-5.11
329.753	11.32
329.966	11.17
330.179	11.1
330.393	1.21
330.606	1.25
330.819	-24.98
331.032	-17.65
331.246	-12.25
331.459	2.55
331.672	0.43
331.885	8.35
332.098	-9.24
332.311	-11.31
332.525	-7.57
332.738	-1.69
332.951	-11.52
333.164	-5.68
333.377	-1.89
333.59	-19.91
333.803	-34.3
334.016	-15.12
334.229	-17.04
334.442	-19.74
334.655	-4.88
334.868	1.03
335.081	-6.8
335.294	-5.86
335.507	0.44
335.72	-5.37
335.933	-19.26
336.146	-12.02
336.359	4.01
336.572	3.61
336.785	1.21
336.997	10.6
337.21	12.13
337.423	-22.64
337.636	-17.2
337.849	-12.72
338.062	-2.04
338.274	-1.87
338.487	-15.32
338.7	-34.91
338.913	-17.86
339.125	-44.62
339.338	-40.68
339.551	-22.52
339.763	-17.89
339.976	-33
340.189	-34.75
340.402	-24.98
340.614	-14.41
340.827	-1.43
341.039	12.04
341.252	28.75
341.465	21.88
341.677	28.31
341.89	20.95
342.102	12.12
342.315	12.31
342.527	15.75
342.74	-16.02
342.952	-18.29
343.165	-13.4
343.377	-8.25
343.59	-10.52
343.802	14.85
344.015	18.75
344.227	19.7
344.44	7.22
344.652	-6.34
344.864	-7.26
345.077	-6.77
345.289	-4.54
345.502	7.03
345.714	14.97
345.926	7.62
346.139	-14.17
346.351	-8.18
346.563	0.85
346.775	-5.4
346.988	-1.01
347.2	8.18
347.412	11.63
347.624	-2.94
347.837	23.78
348.049	21.57
348.261	14.21
348.473	-9.81
348.685	-14.98
348.897	-42.82
349.11	-37.64
349.322	-28.63
349.534	-25.83
349.746	-9.37
349.958	-25.29
350.17	-43.41
350.382	-49.37
350.594	-31.98
350.806	-26.04
351.018	-15.14
351.23	5
351.442	20.78
351.654	23.04
351.866	15.57
352.078	23.35
352.29	14.31
352.502	-6.44
352.714	-6.72
352.926	-4.3
353.138	3.25
353.35	-10.24
353.561	-0.44
353.773	-11.92
353.985	-8.03
354.197	-2.18
354.409	9.77
354.621	-6.28
354.832	-6.13
355.044	-26.21
355.256	-43.19
355.468	-57.69
355.679	0.34
355.891	10.55
356.103	10.02
356.314	1.38
356.526	-5.45
356.738	-35.72
356.949	-39.06
357.161	-17.47
357.373	-13.09
357.584	0.41
357.796	13.98
358.008	14.01
358.219	6.83
358.431	5.77
358.642	13.11
358.854	22.02
359.065	9.29
359.277	9.31
359.488	6.62
359.7	-13.5
359.911	-50.47
360.123	-26.94
360.334	-35.26
360.546	-31.36
360.757	-15.11
360.969	0.76
361.18	-5.48
361.391	8.72
361.603	19.29
361.814	18.46
362.025	17.77
362.237	17.99
362.448	14.04
362.659	16.01
362.871	1.52
363.082	-4.68
363.293	-10.18
363.504	-28.74
363.716	-54.47
363.927	-30.33
364.138	-57.29
364.349	-52.46
364.56	-61.31
364.772	-44.1
364.983	-20.75
365.194	-5.75
365.405	-4.65
365.616	12.13
365.827	5.4
366.038	3.2
366.25	14.32
366.461	12.29
366.672	5.36
366.883	-0.94
367.094	-13.12
367.305	-26.34
367.516	-27.74
367.727	-37.36
367.938	-29.56
368.149	-41.99
368.36	-40
368.571	-56.36
368.781	-43.14
368.992	-37.84
369.203	-23.77
369.414	-38.62
369.625	-23.75
369.836	-14.48
370.047	-7.1
370.258	-2.72
370.468	-4.06
370.679	-10.92
370.89	-11.64
371.101	-16.28
371.312	-22.02
371.522	0.85
371.733	-5.35
371.944	-21.48
372.155	-13.04
372.365	-16.1
372.576	-32.68
372.787	-8.46
372.997	-6.7
373.208	-0.63
373.419	4.28
373.629	1.46
373.84	-8.39
374.05	-4.77
374.261	-21.84
374.472	-14.83
374.682	3.57
374.893	-16.47
375.103	-4.61
375.314	2.89
375.524	-8.13
375.735	-6.88
375.945	4.94
376.156	-0.51
376.366	-3.46
376.577	4.82
376.787	1.95
376.997	9.91
377.208	4.91
377.418	4
377.629	8.34
377.839	8.95
378.049	3.82
378.26	3.27
378.47	5.63
378.68	-2.49
378.89	-4.91
379.101	-2.95
379.311	1.23
379.521	-9.01
379.732	-11.29
379.942	-18.8
380.152	-24.5
380.362	-31.28
380.572	-12.99
380.783	-1.4
380.993	7.21
381.203	8.6
381.413	12.02
381.623	9.41
381.833	3.85
382.043	1.08
382.253	1.68
382.463	9.95
382.674	6.12
382.884	-0.2
383.094	5.41
383.304	7.38
383.514	5.11
383.724	8.15
383.934	5.41
384.144	0.64
384.353	-2.31
384.563	-3.79
384.773	-3.38
384.983	0.71
385.193	-5.45
385.403	-3.13
385.613	-6.84
385.823	-10.94
386.033	-15.38
386.242	-17.45
386.452	-20.52
386.662	-17.34
386.872	-9.14
387.082	-2.48
387.291	4.3
387.501	5.05
387.711	8.54
387.921	2.85
388.13	3
388.34	2.66
388.55	0.95
388.759	-5.32
388.969	-5.45
389.179	-7.25
389.388	-9.84
389.598	-13.33
389.807	-16.76
390.017	-15.88
390.227	-16.43
390.436	-13.61
390.646	-9.42
390.855	-4.41
391.065	-3.71
391.274	-3.52
391.484	-3.52
391.693	-3.15
391.903	-4.97
392.112	-5.06
392.322	-4.93
392.531	-5.16
392.74	-5.38
392.95	-2.84
393.159	-3.25
393.369	-2.61
393.578	-3.97
393.787	-4.78
393.997	-4.2
394.206	-4.51
394.415	-4.07
394.625	-3.32
394.834	-3.9
395.043	-4.25
395.252	-2.28
395.462	-1.08
395.671	-0.62
395.88	1.93
396.089	0.69
396.298	0.29
396.508	0.46
396.717	0.61
396.926	0.07
397.135	1.23
397.344	0.93
397.553	0.09
397.762	1.7
397.971	1.26
398.181	1.32
398.39	0.96
398.599	1.75
398.808	0.64
399.017	1.75
399.226	1.77
399.435	2.08
399.644	2.35
399.853	2.44
400.062	1.76
400.27	1.27
400.479	1.66
400.688	1.34
400.897	1.49
401.106	1.49
401.315	1.76
401.524	1.65
401.733	1.26
401.941	1.38
402.15	1.44
402.359	1.56
402.568	1.47
402.777	2.07
402.985	1.47
403.194	1.45
403.403	1.53
403.612	1.44
403.82	0.77
404.029	0.97
404.238	0.97
404.446	1.11
404.655	1.35
404.864	1.67
405.072	1.85
405.281	1.76
405.489	1.56
405.698	1.64
405.906	1.78
406.115	1.78
406.324	1.8
406.532	1.9
406.741	1.79
406.949	1.63
407.158	1.53
407.366	1.42
407.574	1.46
407.783	1.33
407.991	1.37
408.2	1.53
408.408	1.77
408.617	1.68
408.825	1.68
409.033	1.64
409.242	1.64
409.45	1.46
409.658	1.47
409.867	1.52
410.075	1.61
410.283	1.46
410.491	1.41
410.7	1.33
410.908	1.36
411.116	1.36
411.324	1.38
411.533	1.39
411.741	1.41
411.949	1.38
412.157	1.25
412.365	1.25
412.573	1.33
412.781	1.29
412.99	1.3
413.198	1.29
413.406	1.4
413.614	1.47
413.822	1.6
414.03	1.64
414.238	1.73
414.446	1.7
414.654	1.53
414.862	1.45
415.07	1.35
415.278	1.35
415.486	1.22
415.694	1.39
415.902	1.31
416.109	1.29
416.317	1.3
416.525	1.23
416.733	1.31
416.941	1.41
417.149	1.41
417.357	1.35
417.564	1.38
417.772	1.26
417.98	1.24
418.188	1.23
418.395	1.03
418.603	1.02
418.811	0.99
419.019	0.92
419.226	0.99
419.434	1.21
419.642	1.09
419.849	1.04
420.057	1.01
420.265	1.03
420.472	1.05
420.68	1.24
420.887	1.29
421.095	1.37
421.302	1.32
421.51	1.14
421.717	1.21
421.925	1.21
422.132	1.16
422.34	1.07
422.547	0.99
422.755	0.98
422.962	0.96
423.17	0.88
423.377	0.89
423.585	1.2
423.792	1.05
423.999	1.11
424.207	1.07
424.414	1.18
424.621	1.04
424.829	1.15
425.036	1.23
425.243	1.35
425.451	1.26
425.658	1.36
425.865	1.28
426.072	1.21
426.28	1.21
426.487	1.2
426.694	1.08
426.901	1.2
427.108	1.12
427.315	1.04
427.523	0.97
427.73	1.02
427.937	0.75
428.144	0.79
428.351	0.82
428.558	0.99
428.765	1.02
428.972	1.25
429.179	1.14
429.386	1.21
429.593	1.1
429.8	1.05
430.007	1.1
430.214	1.14
430.421	1.16
430.628	1.14
430.835	1.16
431.042	1.06
431.249	1.11
431.456	1.04
431.662	1.21
431.869	1.29
432.076	1.29
432.283	1.42
432.49	1.45
432.697	1.33
432.903	1.21
433.11	1.34
433.317	1.31
433.524	1.25
433.73	1.19
433.937	1.34
434.144	1.18
434.35	1.06
434.557	1.13
434.764	1.24
434.97	1.01
435.177	1.24
435.384	1.32
435.59	1.3
435.797	1.35
436.003	1.49
436.21	1.31
436.416	1.31
436.623	1.36
436.829	1.33
437.036	1.29
437.242	1.36
437.449	1.31
437.655	1.4
437.862	1.43
438.068	1.41
438.275	1.47
438.481	1.67
438.687	1.61
438.894	1.69
439.1	1.62
439.307	1.72
439.513	1.7
439.719	1.64
439.926	1.54
440.132	1.81
440.338	1.65
440.544	1.5
440.751	1.5
440.957	1.58
441.163	1.37
441.369	1.38
441.575	1.35
441.782	1.41
441.988	1.4
442.194	1.45
442.4	1.46
442.606	1.59
442.812	1.66
443.018	1.59
443.224	1.69
443.431	1.72
443.637	1.59
443.843	1.56
444.049	1.69
444.255	1.71
444.461	1.61
444.667	1.75
444.873	1.82
445.079	1.7
445.284	1.62
445.49	1.67
445.696	1.57
445.902	1.51
446.108	1.54
446.314	1.59
446.52	1.68
446.726	1.76
446.931	1.69
447.137	1.72
447.343	1.78
447.549	1.82
447.755	1.71
447.96	1.83
448.166	1.86
448.372	1.8
448.578	1.65
448.783	1.79
448.989	1.84
449.195	1.8
449.4	1.95
449.606	2.02
449.812	1.92
450.017	1.83
450.223	1.9
450.428	1.71
450.634	1.7
450.84	1.77
451.045	1.74
451.251	1.72
451.456	1.82
451.662	1.89
451.867	1.85
452.073	1.92
452.278	1.93
452.483	1.86
452.689	1.84
452.894	1.99
453.1	1.96
453.305	1.98
453.51	2.06
453.716	2
453.921	1.97
454.127	1.92
454.332	1.91
454.537	1.86
454.742	1.93
454.948	1.84
455.153	1.91
455.358	1.91
455.563	1.96
455.769	1.94
455.974	1.94
456.179	1.93
456.384	1.86
456.589	1.81
456.795	1.75
457	1.83
457.205	1.84
457.41	1.83
457.615	1.89
457.82	2.05
458.025	1.94
458.23	1.89
458.435	1.99
458.64	1.91
458.845	1.9
459.05	1.93
459.255	1.99
459.46	1.9
459.665	1.94
459.87	1.85
460.075	1.97
460.28	1.96
460.485	2.06
460.69	2
460.895	2.02
461.099	1.8
461.304	1.82
461.509	1.79
461.714	1.93
461.919	1.97
462.123	2.14
462.328	1.99
462.533	1.93
462.738	1.81
462.942	1.72
463.147	1.67
463.352	1.83
463.556	1.94
463.761	1.96
463.966	2.02
464.17	2.06
464.375	2.09
464.58	1.94
464.784	1.99
464.989	1.98
465.193	1.99
465.398	1.98
465.602	2.13
465.807	2.15
466.011	2.19
466.216	2.12
466.42	2.17
466.625	2.18
466.829	2.13
467.034	2.14
467.238	2.3
467.443	2.3
467.647	2.29
467.851	2.34
468.056	2.35
468.26	2.26
468.464	2.26
468.669	2.26
468.873	2.2
469.077	2.14
469.282	2.2
469.486	2.1
469.69	2.09
469.894	2.19
470.099	2.29
470.303	2.24
470.507	2.44
470.711	2.45
470.915	2.47
471.119	2.45
471.324	2.54
471.528	2.5
471.732	2.62
471.936	2.61
472.14	2.55
472.344	2.68
472.548	2.75
472.752	2.58
472.956	2.66
473.16	2.76
473.364	2.61
473.568	2.47
473.772	2.51
473.976	2.56
474.18	2.58
474.384	2.61
474.588	2.77
474.792	2.83
474.995	2.73
475.199	2.73
475.403	2.74
475.607	2.68
475.811	2.64
476.015	2.6
476.218	2.56
476.422	2.52
476.626	2.58
476.83	2.69
477.033	2.88
477.237	2.95
477.441	3.03
477.644	3.01
477.848	3
478.052	2.94
478.255	2.89
478.459	2.79
478.663	2.83
478.866	2.86
479.07	2.85
479.273	2.92
479.477	3.02
479.681	3.06
479.884	3.03
480.088	3.08
480.291	3.04
480.495	3.04
480.698	2.99
480.901	3.04
481.105	3.03
481.308	3.1
481.512	3.1
481.715	3.22
481.919	3.29
482.122	3.27
482.325	3.32
482.529	3.32
482.732	3.25
482.935	3.19
483.138	3.22
483.342	3.23
483.545	3.38
483.748	3.45
483.952	3.51
484.155	3.54
484.358	3.51
484.561	3.41
484.764	3.29
484.967	3.23
485.171	3.29
485.374	3.26
485.577	3.27
485.78	3.35
485.983	3.37
486.186	3.32
486.389	3.38
486.592	3.39
486.795	3.45
486.998	3.38
487.201	3.43
487.404	3.48
487.607	3.55
487.81	3.46
488.013	3.55
488.216	3.49
488.419	3.39
488.622	3.32
488.825	3.36
489.028	3.39
489.231	3.4
489.433	3.42
489.636	3.49
489.839	3.54
490.042	3.52
490.245	3.53
490.447	3.52
490.65	3.51
490.853	3.5
491.056	3.44
491.258	3.46
491.461	3.5
491.664	3.51
491.866	3.51
492.069	3.61
492.272	3.56
492.474	3.6
492.677	3.61
492.879	3.61
493.082	3.64
493.285	3.81
493.487	3.79
493.69	3.77
493.892	3.76
494.095	3.72
494.297	3.7
494.5	3.72
494.702	3.81
494.905	3.87
495.107	3.91
495.309	3.91
495.512	3.89
495.714	3.82
495.917	3.87
496.119	3.91
496.321	3.88
496.524	3.89
496.726	3.93
496.928	3.89
497.13	3.78
497.333	3.77
497.535	3.84
497.737	3.85
497.939	3.88
498.142	3.95
498.344	3.98
498.546	3.94
498.748	4
498.95	3.99
499.152	4.02
499.355	4
499.557	4.01
499.759	4.06
499.961	4.09
500.163	4.11
500.365	4.2
500.567	4.24
500.769	4.21
500.971	4.18
501.173	4.17
501.375	4.2
501.577	4.18
501.779	4.16
501.981	4.17
502.183	4.17
502.385	4.18
502.587	4.21
502.788	4.29
502.99	4.41
503.192	4.47
503.394	4.46
503.596	4.46
503.798	4.35
503.999	4.31
504.201	4.3
504.403	4.3
504.605	4.42
504.806	4.55
505.008	4.57
505.21	4.61
505.411	4.66
505.613	4.64
505.815	4.66
506.016	4.69
506.218	4.75
506.42	4.7
506.621	4.7
506.823	4.68
507.024	4.67
507.226	4.65
507.427	4.75
507.629	4.78
507.83	4.82
508.032	4.81
508.233	4.84
508.435	4.84
508.636	4.92
508.838	4.91
509.039	4.94
509.24	5.02
509.442	4.99
509.643	4.92
509.845	4.93
510.046	4.98
510.247	4.94
510.448	4.96
510.65	5.01
510.851	5.06
511.052	5.15
511.254	5.23
511.455	5.27
511.656	5.22
511.857	5.26
512.058	5.21
512.26	5.1
512.461	5.13
512.662	5.17
512.863	5.1
513.064	5.1
513.265	5.12
513.466	5.13
513.667	5.17
513.868	5.24
514.069	5.26
514.27	5.32
514.471	5.26
514.672	5.29
514.873	5.31
515.074	5.38
515.275	5.34
515.476	5.45
515.677	5.42
515.878	5.43
516.079	5.41
516.28	5.48
516.481	5.51
516.682	5.54
516.882	5.51
517.083	5.47
517.284	5.5
517.485	5.46
517.686	5.54
517.886	5.57
518.087	5.63
518.288	5.62
518.488	5.64
518.689	5.59
518.89	5.6
519.091	5.67
519.291	5.71
519.492	5.73
519.692	5.7
519.893	5.77
520.094	5.71
520.294	5.7
520.495	5.66
520.695	5.77
520.896	5.72
521.096	5.78
521.297	5.78
521.497	5.87
521.698	5.82
521.898	5.85
522.099	5.82
522.299	5.86
522.499	5.81
522.7	5.85
522.9	5.85
523.101	5.83
523.301	5.8
523.501	5.84
523.702	5.91
523.902	5.95
524.102	6.1
524.302	6.19
524.503	6.2
524.703	6.16
524.903	6.11
525.103	6.05
525.304	5.98
525.504	6.08
525.704	6.07
525.904	6.07
526.104	6.11
526.304	6.16
526.504	6.08
526.705	6.1
526.905	6.17
527.105	6.12
527.305	6.14
527.505	6.16
527.705	6.18
527.905	6.21
528.105	6.23
528.305	6.26
528.505	6.29
528.705	6.32
528.905	6.34
529.105	6.4
529.304	6.39
529.504	6.43
529.704	6.38
529.904	6.42
530.104	6.42
530.304	6.43
530.503	6.47
530.703	6.53
530.903	6.49
531.103	6.55
531.303	6.59
531.502	6.63
531.702	6.64
531.902	6.73
532.101	6.73
532.301	6.76
532.501	6.81
532.7	6.87
532.9	6.86
533.1	6.86
533.299	6.85
533.499	6.77
533.698	6.75
533.898	6.76
534.097	6.77
534.297	6.78
534.496	6.84
534.696	6.86
534.895	6.91
535.095	6.97
535.294	7.02
535.494	7.04
535.693	7.03
535.892	7.03
536.092	6.97
536.291	6.96
536.491	6.96
536.69	6.99
536.889	7
537.088	7.07
537.288	7.08
537.487	7.12
537.686	7.13
537.886	7.18
538.085	7.19
538.284	7.28
538.483	7.25
538.682	7.31
538.882	7.32
539.081	7.37
539.28	7.31
539.479	7.35
539.678	7.38
539.877	7.46
540.076	7.5
540.275	7.58
540.474	7.63
540.673	7.64
540.872	7.62
541.071	7.65
541.27	7.72
541.469	7.73
541.668	7.77
541.867	7.86
542.066	7.85
542.265	7.86
542.464	7.89
542.663	7.88
542.862	7.89
543.06	7.94
543.259	7.96
543.458	8.03
543.657	8.13
543.856	8.13
544.054	8.15
544.253	8.18
544.452	8.21
544.651	8.24
544.849	8.29
545.048	8.35
545.247	8.4
545.445	8.46
545.644	8.48
545.843	8.48
546.041	8.54
546.24	8.6
546.438	8.65
546.637	8.7
546.836	8.78
547.034	8.82
547.233	8.89
547.431	8.99
547.63	9.03
547.828	9.11
548.027	9.16
548.225	9.12
548.423	9.14
548.622	9.24
548.82	9.33
549.019	9.36
549.217	9.52
549.415	9.56
549.614	9.65
549.812	9.66
550.01	9.77
550.209	9.84
550.407	9.93
550.605	9.85
550.803	9.92
551.002	10
551.2	10.03
551.398	10.13
551.596	10.33
551.794	10.43
551.993	10.46
552.191	10.52
552.389	10.51
552.587	10.53
552.785	10.56
552.983	10.67
553.181	10.74
553.379	10.88
553.577	10.98
553.775	11.12
553.973	11.2
554.171	11.29
554.369	11.32
554.567	11.38
554.765	11.42
554.963	11.51
555.161	11.55
555.359	11.73
555.557	11.85
555.755	11.94
555.952	12.06
556.15	12.22
556.348	12.22
556.546	12.36
556.744	12.43
556.941	12.43
557.139	12.5
557.337	12.62
557.535	12.55
557.732	12.64
557.93	12.75
558.128	12.84
558.325	12.93
558.523	13.14
558.721	13.21
558.918	13.31
559.116	13.45
559.313	13.54
559.511	13.64
559.708	13.76
559.906	13.9
560.104	13.94
560.301	14.04
560.498	14.16
560.696	14.29
560.893	14.37
561.091	14.53
561.288	14.68
561.486	14.69
561.683	14.7
561.88	14.91
562.078	14.97
562.275	15.02
562.473	15.13
562.67	15.25
562.867	15.29
563.064	15.43
563.262	15.55
563.459	15.73
563.656	15.86
563.853	15.88
564.051	16.02
564.248	16.17
564.445	16.28
564.642	16.42
564.839	16.59
565.036	16.73
565.234	16.81
565.431	16.93
565.628	16.95
565.825	17.06
566.022	17.07
566.219	17.12
566.416	17.22
566.613	17.43
566.81	17.52
567.007	17.57
567.204	17.66
567.401	17.68
567.598	17.74
567.795	17.84
567.991	17.95
568.188	18.05
568.385	18.18
568.582	18.28
568.779	18.35
568.976	18.41
569.172	18.49
569.369	18.58
569.566	18.67
569.763	18.66
569.96	18.79
570.156	18.85
570.353	18.89
570.55	18.96
570.746	19.18
570.943	19.22
571.14	19.3
571.336	19.39
571.533	19.45
571.729	19.46
571.926	19.61
572.123	19.77
572.319	19.82
572.516	19.89
572.712	19.86
572.909	19.82
573.105	19.88
573.302	19.88
573.498	19.78
573.695	19.89
573.891	19.92
574.087	19.8
574.284	19.84
574.48	19.95
574.677	19.91
574.873	19.97
575.069	20.15
575.266	20.22
575.462	20.23
575.658	20.4
575.854	20.41
576.051	20.35
576.247	20.25
576.443	20.35
576.639	20.29
576.835	20.26
577.032	20.2
577.228	20.37
577.424	20.32
577.62	20.31
577.816	20.39
578.012	20.49
578.208	20.48
578.404	20.51
578.6	20.63
578.796	20.62
578.993	20.58
579.189	20.62
579.384	20.7
579.58	20.62
579.776	20.62
579.972	20.72
580.168	20.73
580.364	20.73
580.56	20.68
580.756	20.66
580.952	20.59
581.148	20.53
581.343	20.51
581.539	20.58
581.735	20.63
581.931	20.62
582.127	20.6
582.322	20.62
582.518	20.62
582.714	20.6
582.909	20.61
583.105	20.65
583.301	20.71
583.496	20.67
583.692	20.65
583.888	20.7
584.083	20.68
584.279	20.51
584.474	20.53
584.67	20.49
584.866	20.49
585.061	20.56
585.257	20.63
585.452	20.62
585.648	20.59
585.843	20.57
586.039	20.53
586.234	20.59
586.429	20.59
586.625	20.75
586.82	20.79
587.015	20.81
587.211	20.77
587.406	20.79
587.601	20.78
587.797	20.75
587.992	20.79
588.187	20.77
588.383	20.92
588.578	20.97
588.773	21.01
588.968	21.02
589.163	21.17
589.359	21.06
589.554	21.07
589.749	21.06
589.944	21.1
590.139	21.03
590.334	21.1
590.529	21.1
590.724	21.16
590.919	21.19
591.114	21.27
591.309	21.35
591.504	21.41
591.699	21.52
591.894	21.52
592.089	21.53
592.284	21.55
592.479	21.6
592.674	21.6
592.869	21.69
593.064	21.8
593.259	21.93
593.454	21.95
593.648	21.98
593.843	22.01
594.038	22.08
594.233	22.16
594.428	22.29
594.622	22.42
594.817	22.53
595.012	22.62
595.206	22.66
595.401	22.66
595.596	22.65
595.79	22.66
595.985	22.72
596.18	22.77
596.374	23.01
596.569	23.14
596.763	23.29
596.958	23.37
597.153	23.54
597.347	23.39
597.542	23.44
597.736	23.55
597.931	23.63
598.125	23.69
598.319	23.88
598.514	23.95
598.708	23.9
598.903	23.96
599.097	23.93
599.291	23.92
599.486	24.1
599.68	24.24
599.874	24.33
600.069	24.48
600.263	24.59
600.457	24.54
600.651	24.61
600.846	24.62
601.04	24.67
601.234	24.68
601.428	24.78
601.622	24.8
601.817	24.87
602.011	24.89
602.205	24.94
602.399	24.92
602.593	25.01
602.787	24.95
602.981	24.88
603.175	24.98
603.369	24.96
603.563	24.96
603.757	24.96
603.951	25.08
604.145	25.08
604.339	25.14
604.533	25.1
604.727	25.17
604.921	25.09
605.115	25.05
605.309	25.02
605.502	25.05
605.696	25.05
605.89	25.03
606.084	24.93
606.278	24.98
606.471	24.93
606.665	24.91
606.859	24.85
607.053	24.86
607.246	24.78
607.44	24.69
607.634	24.62
607.827	24.66
608.021	24.58
608.214	24.48
608.408	24.49
608.602	24.42
608.795	24.37
608.989	24.3
609.182	24.29
609.376	24.23
609.569	24.2
609.763	24.09
609.956	24.05
610.15	23.94
610.343	23.84
610.537	23.77
610.73	23.66
610.923	23.62
611.117	23.61
611.31	23.5
611.504	23.42
611.697	23.43
611.89	23.32
612.083	23.27
612.277	23.26
612.47	23.14
612.663	23.16
612.856	23.06
613.05	23.01
613.243	22.93
613.436	22.98
613.629	22.82
613.822	22.8
614.015	22.69
614.209	22.59
614.402	22.49
614.595	22.46
614.788	22.41
614.981	22.3
615.174	22.2
615.367	22.11
615.56	21.98
615.753	21.87
615.946	21.78
616.139	21.8
616.332	21.75
616.525	21.68
616.718	21.75
616.911	21.74
617.103	21.7
617.296	21.61
617.489	21.52
617.682	21.44
617.875	21.41
618.067	21.42
618.26	21.47
618.453	21.54
618.646	21.47
618.838	21.51
619.031	21.48
619.224	21.4
619.417	21.38
619.609	21.31
619.802	21.18
619.994	21.12
620.187	21.06
620.38	20.98
620.572	20.98
620.765	21.04
620.957	20.95
621.15	20.95
621.342	20.97
621.535	20.98
621.727	20.89
621.92	20.9
622.112	20.86
622.305	20.78
622.497	20.72
622.69	20.66
622.882	20.65
623.074	20.67
623.267	20.66
623.459	20.54
623.651	20.51
623.844	20.54
624.036	20.51
624.228	20.48
624.42	20.56
624.613	20.55
624.805	20.42
624.997	20.38
625.189	20.41
625.381	20.4
625.574	20.38
625.766	20.37
625.958	20.35
626.15	20.34
626.342	20.31
626.534	20.37
626.726	20.4
626.918	20.39
627.11	20.29
627.302	20.29
627.494	20.21
627.686	20.02
627.878	19.91
628.07	19.89
628.262	19.84
628.454	19.81
628.646	19.83
628.838	19.92
629.029	19.81
629.221	19.7
629.413	19.7
629.605	19.67
629.797	19.54
629.989	19.57
630.18	19.58
630.372	19.5
630.564	19.49
630.755	19.52
630.947	19.48
631.139	19.37
631.33	19.27
631.522	19.23
631.714	19.15
631.905	19.21
632.097	19.17
632.289	19.17
632.48	19.16
632.672	19.15
632.863	18.96
633.055	18.97
633.246	18.99
633.438	18.95
633.629	19.01
633.821	19.05
634.012	19.01
634.203	18.99
634.395	18.97
634.586	18.95
634.777	18.94
634.969	18.96
635.16	18.92
635.351	18.85
635.543	18.72
635.734	18.66
635.925	18.72
636.117	18.75
636.308	18.82
636.499	18.8
636.69	18.82
636.881	18.75
637.073	18.71
637.264	18.61
637.455	18.6
637.646	18.58
637.837	18.51
638.028	18.49
638.219	18.53
638.41	18.51
638.601	18.49
638.792	18.49
638.983	18.44
639.174	18.41
639.365	18.42
639.556	18.29
639.747	18.34
639.938	18.37
640.129	18.37
640.32	18.34
640.511	18.39
640.701	18.32
640.892	18.23
641.083	18.22
641.274	18.18
641.465	18.23
641.655	18.15
641.846	18.15
642.037	18.05
642.228	18
642.418	17.96
642.609	18.05
642.8	18.05
642.99	18.05
643.181	18.06
643.372	17.94
643.562	17.87
643.753	17.78
643.943	17.64
644.134	17.48
644.324	17.5
644.515	17.45
644.705	17.45
644.896	17.64
645.086	17.8
645.277	17.7
645.467	17.67
645.658	17.55
645.848	17.39
646.038	17.37
646.229	17.42
646.419	17.32
646.61	17.37
646.8	17.3
646.99	17.22
647.18	17.17
647.371	17.23
647.561	17.17
647.751	17.15
647.941	17.14
648.132	17.15
648.322	17.04
648.512	17
648.702	17.04
648.892	16.99
649.082	17
649.272	17.06
649.462	17.13
649.653	17.08
649.843	17.02
650.033	16.97
650.223	16.9
650.413	16.85
650.603	16.84
650.793	16.9
650.983	16.86
651.172	16.84
651.362	16.72
651.552	16.65
651.742	16.51
651.932	16.47
652.122	16.43
652.312	16.47
652.502	16.38
652.691	16.39
652.881	16.31
653.071	16.28
653.261	16.23
653.45	16.21
653.64	16.06
653.83	16.04
654.019	15.87
654.209	15.75
654.399	15.65
654.588	15.62
654.778	15.4
654.968	15.33
655.157	15.18
655.347	15.06
655.536	14.95
655.726	14.75
655.915	14.57
656.105	14.39
656.294	14.24
656.484	14.05
656.673	14.06
656.863	14.01
657.052	13.83
657.241	13.68
657.431	13.54
657.62	13.37
657.809	13.02
657.999	13
658.188	12.83
658.377	12.59
658.567	12.45
658.756	12.41
658.945	12.15
659.134	11.98
659.324	11.83
659.513	11.65
659.702	11.42
659.891	11.34
660.08	11.17
660.269	11.05
660.458	10.79
660.648	10.68
660.837	10.47
661.026	10.22
661.215	10.01
661.404	9.88
661.593	9.76
661.782	9.58
661.971	9.39
662.16	9.26
662.349	9.04
662.538	8.79
662.726	8.69
662.915	8.67
663.104	8.45
663.293	8.4
663.482	8.36
663.671	8.26
663.86	8.11
664.048	8.12
664.237	8
664.426	7.9
664.615	7.86
664.803	7.71
664.992	7.65
665.181	7.59
665.369	7.41
665.558	7.24
665.747	7.28
665.935	7.2
666.124	7.19
666.312	7.12
666.501	7.11
666.69	6.99
666.878	7
667.067	6.85
667.255	6.89
667.444	6.87
667.632	6.94
667.82	6.85
668.009	6.81
668.197	6.66
668.386	6.56
668.574	6.45
668.762	6.32
668.951	6.3
669.139	6.35
669.327	6.3
669.516	6.32
669.704	6.4
669.892	6.43
670.08	6.42
670.269	6.45
670.457	6.39
670.645	6.29
670.833	6.33
671.021	6.51
671.21	6.58
671.398	6.68
671.586	6.87
671.774	6.94
671.962	6.9
672.15	6.9
672.338	6.99
672.526	7.07
672.714	7.04
672.902	7.06
673.09	7.13
673.278	7.1
673.466	7.09
673.654	7.21
673.842	7.27
674.03	7.31
674.218	7.34
674.405	7.36
674.593	7.43
674.781	7.52
674.969	7.67
675.157	7.86
675.344	7.89
675.532	7.87
675.72	7.87
675.908	7.85
676.095	7.87
676.283	7.96
676.471	8.12
676.658	8.29
676.846	8.32
677.033	8.3
677.221	8.42
677.409	8.53
677.596	8.56
677.784	8.73
677.971	8.89
678.159	8.94
678.346	8.94
678.534	9.1
678.721	9.31
678.909	9.39
679.096	9.5
679.283	9.64
679.471	9.76
679.658	9.75
679.846	9.8
680.033	10.17
680.22	10.45
680.408	10.42
680.595	10.55
680.782	10.87
680.969	10.85
681.157	10.9
681.344	11.08
681.531	11.22
681.718	11.31
681.905	11.48
682.093	11.59
682.28	11.92
682.467	12.16
682.654	12.3
682.841	12.55
683.028	12.75
683.215	13.04
683.402	13.14
683.589	13.42
683.776	13.48
683.963	13.81
684.15	13.96
684.337	14.31
684.524	14.65
684.711	15.06
684.898	15.09
685.085	15.31
685.271	15.64
685.458	15.74
685.645	15.9
685.832	16.33
686.019	16.69
686.205	17.11
686.392	17.62
686.579	18.12
686.766	18.45
686.952	18.79
687.139	19.18
687.326	19.6
687.512	19.96
687.699	20.56
687.886	21.02
688.072	21.38
688.259	21.84
688.445	22.5
688.632	23.04
688.818	23.5
689.005	24.09
689.191	24.69
689.378	25.12
689.564	25.71
689.751	26.48
689.937	27.18
690.124	27.81
690.31	28.13
690.496	28.65
690.683	29.23
690.869	29.74
691.055	30.25
691.242	31.14
691.428	31.77
691.614	32.46
691.8	33.16
691.987	34.01
692.173	34.86
692.359	35.82
692.545	36.7
692.731	37.35
692.918	37.99
693.104	38.7
693.29	39.13
693.476	39.69
693.662	40.43
693.848	41.06
694.034	41.75
694.22	42.6
694.406	43.34
694.592	44.06
694.778	44.76
694.964	45.39
695.15	46.06
695.336	46.57
695.522	47.3
695.708	48.06
695.894	48.74
696.08	49.44
696.265	50.16
696.451	50.62
696.637	51.5
696.823	51.95
697.009	52.43
697.194	52.99
697.38	53.6
697.566	53.78
697.751	54.5
697.937	55.3
698.123	56.11
698.308	56.65
698.494	57.55
698.68	58.36
698.865	58.67
699.051	58.89
699.236	59.56
699.422	59.7
699.607	60.15
699.793	60.87
699.978	61.3
700.164	61.8
700.349	62.37
700.535	62.55
700.72	62.9
700.906	63.52
701.091	64
701.276	64.53
701.462	64.98
701.647	65.35
701.832	65.82
702.018	66.23
702.203	66.66
702.388	67.24
702.573	67.88
702.759	68.41
702.944	68.53
703.129	68.73
703.314	68.8
703.499	68.87
703.684	69
703.87	69.21
704.055	69.58
704.24	70.02
704.425	70.44
704.61	71.05
704.795	71.76
704.98	71.71
705.165	72.01
705.35	71.97
705.535	71.64
705.72	71.72
705.905	72.4
706.09	72.85
706.275	73.39
706.459	74
706.644	74.27
706.829	74.6
707.014	74.94
707.199	75.08
707.384	74.99
707.568	75.05
707.753	75.24
707.938	75.11
708.123	75.19
708.307	75.76
708.492	75.94
708.677	75.91
708.861	76.25
709.046	76.49
709.231	76.4
709.415	76.5
709.6	76.7
709.784	76.83
709.969	77.26
710.153	77.42
710.338	78.22
710.522	78.61
710.707	78.62
710.891	78.63
711.076	78.54
711.26	78.51
711.445	78.61
711.629	78.76
711.813	78.98
711.998	79.64
712.182	79.45
712.366	79.65
712.551	79.66
712.735	79.68
712.919	79.89
713.103	80.1
713.288	79.88
713.472	80.46
713.656	80.57
713.84	80.41
714.024	80.59
714.208	80.58
714.393	80.43
714.577	80.62
714.761	80.77
714.945	80.69
715.129	81.1
715.313	81.44
715.497	81.41
715.681	81.04
715.865	81.1
716.049	81.34
716.233	81.01
716.417	80.94
716.601	81.34
716.785	81.64
716.968	81.55
717.152	81.83
717.336	82.03
717.52	82.11
717.704	82.34
717.888	82.62
718.071	82.26
718.255	82.56
718.439	82.98
718.622	82.83
718.806	82.43
718.99	83.01
719.174	83.19
719.357	83.29
719.541	84.04
719.724	84.08
719.908	83.88
720.092	83.55
720.275	83.1
720.459	82.42
720.642	82.9
720.826	83.07
721.009	82.95
721.193	82.98
721.376	83.7
721.559	83.89
721.743	84.4
721.926	84.87
722.11	85.41
722.293	85.1
722.476	84.13
722.66	84.32
722.843	84.49
723.026	84.58
723.21	84.5
723.393	85.83
723.576	85.48
723.759	85.45
723.942	85.26
724.126	85.03
724.309	84.52
724.492	84.81
724.675	84.77
724.858	85.27
725.041	86.08
725.224	86.75
725.407	86.25
725.59	86.26
725.774	86
725.957	85.84
726.14	85.25
726.322	86.25
726.505	86.17
726.688	86.13
726.871	85.82
727.054	86.08
727.237	85.57
727.42	85.76
727.603	85.83
727.786	86.55
727.968	86.8
728.151	86.63
728.334	87.26
728.517	87.69
728.699	87.44
728.882	87.45
729.065	87.53
729.248	87.19
729.43	87.26
729.613	87.54
729.796	87.85
729.978	87.95
730.161	88.13
730.343	88.62
730.526	88.73
730.708	88.31
730.891	89.04
731.073	88.8
731.256	88.31
731.438	88.7
731.621	88.71
731.803	88.08
731.986	88.79
732.168	89.27
732.35	88.96
732.533	89.24
732.715	89.51
732.898	89.55
733.08	89.14
733.262	88.42
733.444	88.62
733.627	88.95
733.809	89.1
733.991	89.67
734.173	90.28
734.355	90.34
734.538	89.94
734.72	89.34
734.902	89.11
735.084	89.48
735.266	90.25
735.448	90.57
735.63	91.44
735.812	91.16
735.994	90.51
736.176	90.15
736.358	90.52
736.54	90.21
736.722	90.06
736.904	90.97
737.086	90.43
737.268	90.36
737.45	90.92
737.632	91.76
737.814	90.88
737.995	90.84
738.177	90.37
738.359	89.82
738.541	89.13
738.723	89.56
738.904	90.35
739.086	90.76
739.268	90.56
739.449	90.38
739.631	90.53
739.813	89.63
739.994	89.13
740.176	89.61
740.358	90.91
740.539	90.3
740.721	91.24
740.902	91.48
741.084	91.41
741.265	90.91
741.447	91.53
741.628	92
741.81	92.52
741.991	92.47
742.172	92.34
742.354	92.2
742.535	91.34
742.717	90.75
742.898	90.82
743.079	91.58
743.261	92.76
743.442	92.46
743.623	93.51
743.804	93.11
743.986	92.81
744.167	91.16
744.348	91.23
744.529	90.35
744.71	90.76
744.891	89.65
745.073	90.28
745.254	90.06
745.435	90.56
745.616	90.83
745.797	90.86
745.978	90.11
746.159	89.61
746.34	89.43
746.521	89.41
746.702	90.91
746.883	91.51
747.064	92.91
747.245	93.6
747.426	93.69
747.606	92.38
747.787	92.64
747.968	92.19
748.149	90.68
748.33	88.78
748.51	89.03
748.691	89.3
748.872	90.32
749.053	90.98
749.233	92.39
749.414	91.78
749.595	91.83
749.775	90.46
749.956	90.42
750.137	91.1
750.317	91.4
750.498	91.38
750.678	90.98
750.859	91.59
751.04	91.26
751.22	90.73
751.4	90.81
751.581	92.05
751.761	92.2
751.942	92.41
752.122	92.08
752.303	91.62
752.483	91.31
752.663	91.09
752.844	89.9
753.024	91.52
753.204	91.62
753.385	91.44
753.565	90.72
753.745	90.3
753.925	89.49
754.106	89.33
754.286	88.71
754.466	88.99
754.646	90.58
754.826	90.81
755.006	90.52
755.187	91.85
755.367	90.52
755.547	90.01
755.727	90.18
755.907	89.3
756.087	87
756.267	87.48
756.447	87.9
756.627	87.57
756.807	88.56
756.987	89.53
757.167	90.29
757.346	88.69
757.526	88.65
757.706	89.22
757.886	90.28
758.066	89.78
758.246	90.14
758.425	89.63
758.605	88.33
758.785	87.5
758.965	88.02
759.144	87.27
759.324	89.58
759.504	91.38
759.683	90.9
759.863	90.27
760.043	90.69
760.222	88.58
760.402	85.83
760.581	86.73
760.761	86.94
760.94	88.16
761.12	87.73
761.299	90.49
761.479	89.16
761.658	89
761.838	88.89
762.017	90.22
762.197	87.44
762.376	87.27
762.555	88.23
762.735	87.07
762.914	86.1
763.093	88.45
763.273	89.43
763.452	88.32
763.631	87.38
763.81	87.61
763.99	86.76
764.169	87.44
764.348	86.46
764.527	87.57
764.706	87.26
764.885	87.83
765.064	86.99
765.243	85.72
765.423	86.68
765.602	87.33
765.781	85.32
765.96	85.67
766.139	87.17
766.318	87.72
766.497	86.2
766.676	86.38
766.854	87.08
767.033	87.88
767.212	86.96
767.391	89.06
767.57	91.32
767.749	89.32
767.928	88.99
768.106	88.34
768.285	87.52
768.464	87.15
768.643	87.04
768.821	87.72
769	88.15
769.179	87.79
769.357	87.54
769.536	86.34
769.715	84.58
769.893	83.86
770.072	82.27
770.25	80.89
770.429	82.23
770.607	84.1
770.786	83.89
770.964	85.45
771.143	85.73
771.321	83.87
771.5	83.59
771.678	83.72
771.857	82.13
772.035	83.55
772.213	86.17
772.392	85.01
772.57	85.1
772.748	85.37
772.927	84.68
773.105	85.22
773.283	86.76
773.461	86.81
773.64	86.78
773.818	87.9
773.996	87.69
774.174	87.1
774.352	85.91
774.531	87.32
774.709	84.49
774.887	83.15
775.065	82.76
775.243	84.63
775.421	83.34
775.599	84.59
775.777	83.41
775.955	82.68
776.133	81.42
776.311	82.13
776.489	81.89
776.667	82.54
776.844	81.8
777.022	80.94
777.2	80.73
777.378	80.54
777.556	83.05
777.734	84.8
777.911	87.26
778.089	88.01
778.267	88.66
778.445	87.86
778.622	86.87
778.8	84.8
778.978	86.03
779.155	86.22
779.333	86.91
779.511	86.45
779.688	88.65
779.866	86.16
780.043	87.2
780.221	86.12
780.398	85.56
780.576	82.9
780.753	83.36
780.931	81.95
781.108	81.5
781.286	83.61
781.463	82.4
781.64	81.24
781.818	80.55
781.995	81.63
782.172	80.24
782.35	83.63
782.527	82.33
782.704	80.76
782.882	75.72
783.059	75
783.236	74.19
783.413	75.35
783.59	78.21
783.768	80.2
783.945	79.93
784.122	79.61
784.299	81.65
784.476	79.39
784.653	78.56
784.83	76.1
785.007	75.95
785.184	74.56
785.361	76.21
785.538	77.79
785.715	83.42
785.892	81.82
786.069	82.37
786.246	81.15
786.423	81.26
786.6	80.36
786.776	82.6
786.953	82.89
787.13	81.87
787.307	81.74
787.484	78.42
787.66	75.56
787.837	74.35
788.014	75.29
788.191	73.86
788.367	75.78
788.544	74.75
788.721	74.32
788.897	75.99
789.074	79.37
789.25	77.24
789.427	77.23
789.603	75.23
789.78	70.43
789.956	66.09
790.133	63.91
790.309	69.28
790.486	73.77
790.662	76.51
790.839	79.33
791.015	84.2
791.192	81.13
791.368	76.94
791.544	79.04
791.721	78.25
791.897	76.52
792.073	76.87
792.249	77.79
792.426	75.76
792.602	77.17
792.778	74.79
792.954	74.62
793.13	78.68
793.307	77.45
793.483	73.76
793.659	77.04
793.835	77.51
794.011	79.65
794.187	79.08
794.363	77.12
794.539	76.87
794.715	77.29
794.891	70.89
795.067	71.53
795.243	75.67
795.419	74.95
795.595	77.56
795.771	77.35
795.947	74.85
796.122	72.44
796.298	69.64
796.474	68.18
796.65	69.64
796.826	72.14
797.001	75.65
797.177	74.3
797.353	70.69
797.529	67.44
797.704	66.68
797.88	65.66
798.056	67.52
798.231	67.31
798.407	71.52
798.582	69.26
798.758	67.96
798.934	75.12
799.109	76.26
799.285	75.55
799.46	75.76
799.636	76.61
799.811	72.56
799.986	69.34
800.162	65.02
800.337	69.98
800.513	70.71
800.688	66.87
800.863	75.35
801.039	77.12
801.214	68.42
801.389	65.98
801.565	67.44
801.74	63.52
801.915	65.1
802.09	65.95
802.265	66.16
802.441	63.63
802.616	62.26
802.791	61.91
802.966	63.23
803.141	65.76
803.316	64
803.491	66.2
803.666	63.45
803.841	64
804.016	58.55
804.191	61.49
804.366	54.88
804.541	57.27
804.716	57.38
804.891	61.52
805.066	63.2
805.241	67.53
805.416	70.33
805.591	72.11
805.765	77.82
805.94	77.01
806.115	75.69
806.29	77.06
806.464	75.05
806.639	70.67
806.814	69.14
806.989	65.4
807.163	63.07
807.338	59.1
807.512	57.77
807.687	56.82
807.862	65.57
808.036	67.43
808.211	75.85
808.385	76.53
808.56	76.01
808.734	68.84
808.909	65.84
809.083	66.27
809.258	67.7
809.432	73.43
809.606	76.98
809.781	80.41
809.955	75.48
810.13	69.17
810.304	60.86
810.478	62.93
810.652	57.38
810.827	58.28
811.001	55.74
811.175	59.77
811.349	59.3
811.524	64.74
811.698	59.5
811.872	66.06
812.046	62.12
812.22	58.7
812.394	51.35
812.568	57.61
812.742	55.02
812.916	58.94
813.09	61.07
813.264	60.58
813.438	58.35
813.612	61.02
813.786	61.41
813.96	65.89
814.134	72.3
814.308	77.14
814.482	78.35
814.656	73.26
814.83	74.36
815.003	71.62
815.177	64.98
815.351	59.67
815.525	64.4
815.698	52.95
815.872	47.87
816.046	50.78
816.219	56.59
816.393	60.12
816.567	64.8
816.74	65.38
816.914	66.46
817.088	79.2
817.261	65.47
817.435	70.75
817.608	71.41
817.782	74.07
817.955	57.04
818.129	68.31
818.302	64.61
818.475	72.58
818.649	58.53
818.822	55.16
818.996	61.87
819.169	64.38
819.342	65.7
819.516	79.76
819.689	76.9
819.862	65.87
820.035	64.76
820.209	57.71
820.382	50.16
820.555	49.24
820.728	54.48
820.901	46.97
821.075	52.1
821.248	50.96
821.421	48.44
821.594	44.81
821.767	40.62
821.94	34.31
822.113	41.7
822.286	51.5
822.459	58.57
822.632	69.55
822.805	81.99
822.978	81.92
823.151	70.11
823.324	51.5
823.496	38.94
823.669	40.1
823.842	36.95
824.015	41.45
824.188	49.17
824.361	49.8
824.533	30.6
824.706	31.44
824.879	29.97
825.051	39.05
825.224	43.58
825.397	57.24
825.569	55.39
825.742	70.51
825.915	69.72
826.087	56.83
826.26	46.52
826.432	40.48
826.605	38.47
826.777	38.55
826.95	51.21
827.122	44.3
827.295	54.01
827.467	41.49
827.64	39.23
827.812	38.03
827.984	46.56
828.157	42.66
828.329	48.31
828.501	37.3
828.674	41.67
828.846	54.41
829.018	54.32
829.19	52.29
829.363	59.99
829.535	69.45
829.707	56.83
829.879	54.57
830.051	57.52
830.223	62.48
830.395	52.45
830.568	40.81
830.74	36.25
830.912	46.91
831.084	36.4
831.256	35.28
831.428	50.01
831.6	51.58
831.772	34.05
831.943	27.32
832.115	32.91
832.287	39.4
832.459	47.1
832.631	53.13
832.803	54.04
832.975	53.72
833.146	45.8
833.318	46.19
833.49	57.73
833.662	69.67
833.833	62.04
834.005	56.76
834.177	59.44
834.348	30.33
834.52	29.59
834.692	27.41
834.863	20.08
835.035	8.33
835.206	23.69
835.378	23.81
835.549	22.28
835.721	24.39
835.892	26.79
836.064	28.81
836.235	32.5
836.407	31.69
836.578	36.29
836.749	40.09
836.921	21.2
837.092	20.55
837.264	22.07
837.435	2.22
837.606	1.25
837.777	11.88
837.949	21.72
838.12	29.05
838.291	46.59
838.462	62.35
838.633	71.31
838.805	59.36
838.976	59.21
839.147	66.7
839.318	60.67
839.489	36.78
839.66	48.07
839.831	37.76
840.002	24.29
840.173	19.28
840.344	31.56
840.515	25.01
840.686	36.16
840.857	43.59
841.028	44.49
841.199	44.62
841.369	35.01
841.54	25.22
841.711	33.86
841.882	39.93
842.053	33.75
842.223	31.11
842.394	40.39
842.565	23.24
842.736	28.39
842.906	28.1
843.077	49.72
843.248	59.91
843.418	57.36
843.589	46.68
843.759	37.51
843.93	15.46
844.101	-10.07
844.271	-8.24
844.442	-2.31
844.612	28.02
844.783	54.43
844.953	56.91
845.123	49.74
845.294	50.4
845.464	45.21
845.635	28.95
845.805	45.78
845.975	62.46
846.146	59.32
846.316	67.23
846.486	65.99
846.656	48.63
846.827	42.88
846.997	40.7
847.167	28.29
847.337	19.93
847.507	20.67
847.677	7.64
847.848	17.45
848.018	14.47
848.188	15.49
848.358	3.23
848.528	8.47
848.698	-9.58
848.868	-4.3
849.038	-20.29
849.208	4.47
849.378	18.26
849.548	11.79
849.718	11.15
849.887	12.48
850.057	-34.62
850.227	-33.07
850.397	-12.75
850.567	-16.94
850.737	12.59
850.906	0.6
851.076	-0.12
851.246	16.63
851.415	15.85
851.585	56.34
851.755	83.1
851.924	86.29
852.094	77.7
852.264	61.58
852.433	34.85
852.603	9.82
852.772	26.36
852.942	50.59
853.111	42.77
853.281	44.39
853.45	39.32
853.62	25.49
853.789	6.22
853.959	25.22
854.128	10.3
854.297	11.55
854.467	14
854.636	19.99
854.805	31.1
854.975	26.01
855.144	26.44
855.313	27.34
855.482	-3.53
855.652	-39.17
855.821	-11.13
855.99	-16.28
856.159	0.95
856.328	23.85
856.497	29.3
856.667	12.46
856.836	25.82
857.005	13.28
857.174	29.43
857.343	1.86
857.512	22.45
857.681	0.19
857.85	-22.06
858.019	-89.81
858.188	-83.05
858.356	-47.73
858.525	-7.87
858.694	1.49
858.863	10.75
859.032	34.04
859.201	0.2
859.369	-14.85
859.538	5.47
859.707	-1.01
859.876	-3.21
860.044	26.13
860.213	38.81
860.382	55.13
860.55	43.54
860.719	38.73
860.888	24.09
861.056	-22.51
861.225	-56.74
861.393	-38.36
861.562	-33.35
861.73	-33.99
861.899	-32.39
862.067	-53
862.236	-55.8
862.404	-56.87
862.572	-73.02
862.741	-74.75
862.909	-64
863.078	-54.22
863.246	-58.74
863.414	-3.82
863.582	6.89
863.751	25.38
863.919	33.3
864.087	48.53
864.255	-1.72
864.424	-36.87
864.592	-20.49
864.76	-23.87
864.928	-24.26
865.096	-3.17
865.264	6.85
865.432	-20.28
865.6	-22.07
865.768	-41.57
865.936	-64.76
866.104	-25.48
866.272	-28.25
866.44	-41.38
866.608	-19.28
866.776	12.35
866.944	7.41
867.112	15.96
867.28	20.38
867.448	24.16
867.615	12.97
867.783	-3.22
867.951	-1.5
868.119	-5.79
868.286	-7.17
868.454	3.89
868.622	-3.76
868.789	13.71
868.957	10.87
869.125	4.52
869.292	-36.75
869.46	3.11
869.627	-23.37
869.795	-45.82
869.963	-9.27
870.13	25.31
870.298	-1.41
870.465	4.87
870.632	-2.01
870.8	-3.08
870.967	-9.91
871.135	-2.11
871.302	-11.64
871.469	0.18
871.637	-9.69
871.804	12.44
871.971	-4.48
872.139	-11.14
872.306	-12.02
872.473	-26.22
872.64	-140.86
872.807	-166.38
872.975	-443.35
873.142	-137.53
873.309	-102.25
873.476	-28.79
873.643	-9.27
873.81	5.28
873.977	-27.78
874.144	-30.22
874.311	-125.48
874.478	-158.63
874.645	-186.36
874.812	-50.89
874.979	-44.69
875.146	-72
875.313	-20.9
875.48	29.98
875.647	-22.29
875.813	-91.92
875.98	-69.86
876.147	-182.08
876.314	-91.95
876.481	-89.11
876.647	-37.72
876.814	-23.48
876.981	-14.9
877.147	-32.52
877.314	-13.66
877.481	39.68
877.647	71.32
877.814	98.1
877.98	96.55
878.147	95.14
878.314	67.01
878.48	57.55
878.647	42.98
878.813	36.37
878.979	16.39
879.146	40.75
879.312	59.3
879.479	53.06
879.645	40.1
879.811	16.06
879.978	4.49
880.144	-10.21
880.31	-27.94
880.477	-11.07
880.643	-12.93
880.809	-68.53
880.975	-51.16
881.142	-96.11
881.308	475.5
881.474	594.65
881.64	-110.58
881.806	-160.81
881.972	-78.57
882.138	0.17
882.304	12.48
882.47	-2.86
882.636	-21.26
882.802	-9.42
882.968	-34.25
883.134	-28.61
883.3	-25.99
883.466	-4.92
883.632	11.76
883.798	-63.39
883.964	-85.63
884.129	-767.25
884.295	-101.16
884.461	-169.14
884.627	-61.66
884.793	-87.48
884.958	-27.31
885.124	-53.25
885.29	-61.03
885.455	-119.8
885.621	-69.03
885.787	-22.62
885.952	-14.15
886.118	-0.73
886.283	28.25
886.449	25.02
886.614	28.52
886.78	29.35
886.945	-4.44
887.111	-47.25
887.276	-67.26
887.442	-160.31
887.607	-105.24
887.773	-50.32
887.938	-49.78
888.103	-15.62
888.269	8.83
888.434	5.23
888.599	3.53
888.764	27.06
888.93	27.37
889.095	4.12
889.26	-13.74
889.425	-18.43
889.59	-49.92
889.756	-94.02
889.921	-67.7
890.086	-108.18
890.251	-26.05
890.416	-44.88
890.581	-15.12
890.746	74.2
890.911	50.15
891.076	38.59
891.241	58.32
891.406	49.51
891.571	2.86
891.736	-81.9
891.901	-0.19
892.065	-11.52
892.23	2.34
892.395	-40.44
892.56	-3.3
892.725	-47.08
892.889	5.19
893.054	-68.29
893.219	-73.4
893.384	-142.87
893.548	-168.15
893.713	-260
893.878	-308.18
