Data from Ofra_PS_T2_2A_2GT03_Reflection_2.txt Node
Date: Wed Jul 21 17:29:04 EDT 2021
User: Adam
Spectrometer: FLMT01687
Trigger mode: 0
Integration Time (sec): 1.100000E0
Scans to average: 2
Electric dark correction enabled: true
Nonlinearity correction enabled: false
Boxcar width: 2
XAxis mode: Wavelengths
Number of Pixels in Spectrum: 3648
>>>>>Begin Spectral Data<<<<<
179.494	638.4
179.716	718.59
179.937	662.9
180.158	699.75
180.38	1168.12
180.601	522.1
180.823	153.45
181.044	45.5
181.265	24.26
181.486	0
181.708	40.18
181.929	244.9
182.15	-118.31
182.372	126.69
182.593	61.67
182.814	42.34
183.035	85.04
183.257	49.2
183.478	-38.3
183.699	19.72
183.92	11.32
184.141	39.59
184.363	-5.03
184.584	59.46
184.805	62.22
185.026	66.36
185.247	33.28
185.468	28.02
185.689	26.74
185.91	6.71
186.132	-2.21
186.353	12.23
186.574	63.34
186.795	43.19
187.016	14.95
187.237	-0.84
187.458	-39.48
187.679	-48.28
187.9	-51.81
188.121	-72.85
188.342	-41.35
188.563	30.78
188.784	62.48
189.005	88.59
189.226	176.94
189.447	116.45
189.667	34.95
189.888	-297.04
190.109	-1281.82
190.33	-706.45
190.551	-1085.84
190.772	-260.77
190.993	-188.31
191.214	-130.35
191.434	-105.64
191.655	-20.25
191.876	-45.83
192.097	-94.93
192.318	-151.23
192.538	-207.62
192.759	-204.65
192.98	-80.02
193.201	-30.06
193.421	-4.51
193.642	10.76
193.863	47.11
194.083	26.53
194.304	22.15
194.525	26.85
194.745	31.2
194.966	-31.26
195.187	-42.5
195.407	-63.85
195.628	-141.8
195.848	-143.46
196.069	-112.5
196.29	-92.49
196.51	-107.45
196.731	-101.3
196.951	-114.01
197.172	-130.93
197.392	-178.32
197.613	-163.98
197.833	-176.41
198.054	-143.17
198.274	-101.52
198.495	-96.66
198.715	-56.79
198.936	-82.44
199.156	-70.2
199.377	-168.39
199.597	-147.96
199.817	-158.11
200.038	-60.74
200.258	-95.36
200.479	-20.91
200.699	-28.09
200.919	21.65
201.14	-12.47
201.36	-49.02
201.58	8.97
201.801	32.35
202.021	-3.23
202.241	-11.83
202.461	-10.03
202.682	-95.15
202.902	-140.43
203.122	-70.92
203.342	-61.62
203.563	-35.1
203.783	-0.62
204.003	-52.32
204.223	-58.85
204.443	12.28
204.663	0.33
204.884	11.92
205.104	54.7
205.324	56.21
205.544	53.22
205.764	69.67
205.984	62.91
206.204	63.13
206.424	57.06
206.644	21.41
206.864	35.12
207.084	-3.56
207.304	17.03
207.525	-124.69
207.745	-24.2
207.964	-5.19
208.184	-72.04
208.404	-84.63
208.624	-72.82
208.844	-84.8
209.064	-414.75
209.284	-415.03
209.504	-264.54
209.724	-65.98
209.944	-39.6
210.164	5.95
210.384	22.09
210.604	0
210.823	-51.22
211.043	-78.29
211.263	-58.27
211.483	-64.17
211.703	-103.17
211.922	-83.32
212.142	1.4
212.362	-3.62
212.582	-10.39
212.801	4.33
213.021	-47.9
213.241	-86.74
213.461	-105.31
213.68	-105.23
213.9	-82.04
214.12	-19.81
214.339	-85.05
214.559	-66.27
214.779	-26.46
214.998	-31.19
215.218	-70.69
215.438	-34.36
215.657	-36.32
215.877	-53.12
216.096	-9.92
216.316	1.73
216.535	6.8
216.755	6.82
216.974	-46.15
217.194	-84.75
217.413	-115.98
217.633	-145.73
217.852	-264.88
218.072	-101.29
218.291	-54.36
218.511	-11.81
218.73	-16.36
218.95	-14.32
219.169	-16.76
219.389	-72.35
219.608	-57.54
219.827	-48.04
220.047	-35.62
220.266	-31.87
220.485	-22.5
220.705	-10.07
220.924	-24.39
221.143	13.24
221.363	-16.2
221.582	10.38
221.801	14.62
222.021	14
222.24	-45.25
222.459	46.47
222.678	-15.07
222.897	-62.66
223.117	-71.04
223.336	-57.44
223.555	-35.53
223.774	3.92
223.993	-0.79
224.213	45.15
224.432	31.55
224.651	56.6
224.87	37.13
225.089	49.51
225.308	33.12
225.527	43.86
225.746	26.95
225.965	8.89
226.184	-15.45
226.404	13.04
226.623	-15.88
226.842	-3.04
227.061	31.46
227.28	35.29
227.499	24.45
227.718	46.93
227.936	39.85
228.155	36.04
228.374	13.33
228.593	29.46
228.812	5.01
229.031	-9.4
229.25	-51.73
229.469	-51.8
229.688	-67.94
229.907	-3.66
230.125	7.15
230.344	37.53
230.563	46.93
230.782	62.68
231.001	-23.52
231.22	-16.56
231.438	-1.78
231.657	-1.69
231.876	-17.36
232.095	46.82
232.313	48.61
232.532	20.47
232.751	4.03
232.969	-9.53
233.188	-93.66
233.407	-27.56
233.625	-9.51
233.844	-17.43
234.063	-14.54
234.281	6.16
234.5	-6.25
234.719	-8.89
234.937	4.32
235.156	1.54
235.374	11.63
235.593	10.05
235.811	13.26
236.03	-1.25
236.249	-35.52
236.467	-51.93
236.686	-18.67
236.904	-1.26
237.123	-17.36
237.341	-3.66
237.559	-1.6
237.778	-21.66
237.996	-48.18
238.215	-8.4
238.433	0.65
238.652	0.21
238.87	-23.02
239.088	-12.15
239.307	-9.5
239.525	-5.55
239.743	-42.11
239.962	-5.69
240.18	-49.43
240.398	-110.25
240.617	-120.72
240.835	-77.92
241.053	-47.76
241.271	15.08
241.49	42.2
241.708	12.12
241.926	-1.93
242.144	-10.85
242.363	-61.66
242.581	-90.1
242.799	-36.52
243.017	-16.04
243.235	-45.99
243.453	-14.27
243.672	-29.19
243.89	-11.44
244.108	-28.25
244.326	-2.9
244.544	-15.32
244.762	-0.91
244.98	-12.62
245.198	-5.81
245.416	-25.64
245.634	-7.92
245.852	-2.64
246.07	-1.19
246.288	20.51
246.506	-4.38
246.724	-22
246.942	-50.05
247.16	-17.67
247.378	-8.45
247.596	6.88
247.814	7.27
248.032	2.69
248.25	-14.43
248.468	-16.16
248.685	-15.04
248.903	23.63
249.121	37.5
249.339	11.45
249.557	1.79
249.775	13.93
249.992	-63.76
250.21	-59.73
250.428	-26.04
250.646	-37.19
250.863	-78.28
251.081	-42.95
251.299	-53.57
251.517	-63.82
251.734	-57.02
251.952	-36.7
252.17	-17.18
252.387	-2.68
252.605	-19.02
252.823	-8.16
253.04	8.84
253.258	20.04
253.475	6.23
253.693	55.3
253.911	61.14
254.128	57.76
254.346	65.49
254.563	42.78
254.781	26.06
254.998	-3.43
255.216	-0
255.433	-20.87
255.651	31.03
255.868	37.86
256.086	63.18
256.303	46.7
256.521	43.66
256.738	14.65
256.956	-15.86
257.173	-33.43
257.39	-60.6
257.608	-88.71
257.825	-53.22
258.043	-12.96
258.26	-7.02
258.477	46.65
258.695	46.62
258.912	13.37
259.129	23.49
259.346	-8.54
259.564	-58.83
259.781	-80.19
259.998	-18.34
260.216	-3.9
260.433	34.95
260.65	43.62
260.867	58.98
261.084	42.49
261.302	12.99
261.519	-5.56
261.736	-37.16
261.953	-56.19
262.17	-14.73
262.387	-41.37
262.604	-47.59
262.822	-63.08
263.039	-33.28
263.256	-115.22
263.473	-78.01
263.69	-57.36
263.907	1.39
264.124	-1.78
264.341	4.45
264.558	1.37
264.775	7.53
264.992	-21.15
265.209	-15.04
265.426	16.48
265.643	14.54
265.86	12.83
266.077	10.76
266.294	3.11
266.51	-38.84
266.727	-44.48
266.944	-41.22
267.161	-40.52
267.378	-34.29
267.595	1
267.812	-15.17
268.028	-32.28
268.245	6.21
268.462	-35.55
268.679	-66.5
268.896	-9.16
269.112	0.48
269.329	-12.37
269.546	1.24
269.763	6.39
269.979	-23.37
270.196	-23.35
270.413	-53.38
270.629	-70.94
270.846	-67.87
271.063	-49.62
271.279	-63.11
271.496	-32.5
271.712	18.79
271.929	50.78
272.146	39.4
272.362	56.18
272.579	69.88
272.795	49.7
273.012	40.94
273.228	40.53
273.445	5.89
273.661	-22.99
273.878	-76.87
274.094	-73.83
274.311	-93.53
274.527	-18.12
274.744	-29.3
274.96	-18.9
275.177	-3.63
275.393	10.11
275.609	0.37
275.826	39.54
276.042	40.43
276.259	21.39
276.475	42.51
276.691	24.38
276.908	-15.01
277.124	0.61
277.34	-4.72
277.557	-34.31
277.773	-23.87
277.989	-25.48
278.205	-38.34
278.422	-20.01
278.638	-12.94
278.854	0
279.07	0.78
279.286	3.48
279.503	-35.82
279.719	-34.57
279.935	-58.58
280.151	-58.73
280.367	-29.94
280.583	-24.07
280.799	-34.16
281.016	-53.79
281.232	-4.27
281.448	-2.76
281.664	20.11
281.88	7.79
282.096	36.02
282.312	28.46
282.528	45.11
282.744	56.75
282.96	46.39
283.176	18.27
283.392	8.19
283.608	-11.2
283.824	-26.01
284.04	-13.74
284.256	-1.91
284.471	-5.97
284.687	-12.55
284.903	21.79
285.119	50.21
285.335	29.72
285.551	44.53
285.767	28.47
285.982	1.62
286.198	-60.15
286.414	6.06
286.63	17.81
286.846	42.55
287.061	21.6
287.277	63.13
287.493	33.21
287.709	45.86
287.924	24.72
288.14	51.09
288.356	33.88
288.571	47.41
288.787	9.24
289.003	4.84
289.218	-10.66
289.434	-50.41
289.65	-44.51
289.865	-34.44
290.081	13.97
290.296	30.28
290.512	41.61
290.727	-15.02
290.943	-21.26
291.159	-37.99
291.374	-49.17
291.59	-78.07
291.805	-45.79
292.021	-30.93
292.236	-39.03
292.451	-15.87
292.667	-4.68
292.882	13.7
293.098	-0.94
293.313	-0.23
293.529	-17.96
293.744	-26.78
293.959	-53.05
294.175	-43.22
294.39	-8.7
294.605	-1.78
294.821	22.8
295.036	33.17
295.251	31.1
295.467	14.5
295.682	11.14
295.897	-38.01
296.112	-47.61
296.328	-29.75
296.543	-63.62
296.758	-61.17
296.973	-19.74
297.188	2.37
297.404	-31.18
297.619	-43.36
297.834	-35.58
298.049	-53.06
298.264	-63.26
298.479	-14.89
298.694	0.28
298.909	19.93
299.125	25.95
299.34	35.9
299.555	17.17
299.77	31.16
299.985	-30.5
300.2	-77.92
300.415	-90.06
300.63	-43.69
300.845	-60.69
301.06	-61.32
301.275	-29.46
301.49	-15.64
301.704	-36.65
301.919	-66.93
302.134	-76.24
302.349	-72.74
302.564	-147.16
302.779	-181.54
302.994	-105.33
303.209	-29.56
303.423	-0.69
303.638	46.71
303.853	17.93
304.068	15.19
304.283	11.08
304.497	11.21
304.712	0.85
304.927	-0
305.142	-13.21
305.356	-3.41
305.571	-8.74
305.786	-13.63
306	-22.3
306.215	-13.09
306.43	-57.89
306.644	-73.45
306.859	-40.84
307.074	-21.25
307.288	-52.9
307.503	-50.3
307.717	-42.53
307.932	-34.42
308.147	-41.53
308.361	-9.03
308.576	-17.01
308.79	-72.13
309.005	-72.72
309.219	-40.4
309.434	-39.83
309.648	-32.56
309.863	10.54
310.077	18.85
310.292	5.05
310.506	-7.26
310.72	2.49
310.935	7.55
311.149	-4.81
311.364	4.92
311.578	25.88
311.792	17.43
312.007	29.96
312.221	21.68
312.435	26.33
312.649	0.27
312.864	42.3
313.078	46.08
313.292	111.37
313.507	120.71
313.721	201.49
313.935	92.78
314.149	60.77
314.363	33.25
314.578	20.54
314.792	8.06
315.006	-1.87
315.22	23.41
315.434	24.16
315.648	30.55
315.862	33.2
316.077	30.05
316.291	4.29
316.505	33.93
316.719	36.08
316.933	24.95
317.147	14.42
317.361	-41.4
317.575	-71.17
317.789	-111.59
318.003	-176.18
318.217	-134.92
318.431	-31.01
318.645	15.13
318.859	19.79
319.073	42.64
319.287	23.25
319.5	-0.16
319.714	-58.14
319.928	-90.73
320.142	-131.48
320.356	-76.33
320.57	-49.39
320.784	-61.55
320.997	-50.4
321.211	-31.34
321.425	-100.36
321.639	-130.04
321.853	-52.02
322.066	-30.26
322.28	-32.15
322.494	0.9
322.707	18.92
322.921	-0.87
323.135	-3.62
323.349	6.75
323.562	-14.51
323.776	-27.39
323.989	-28.07
324.203	-65.19
324.417	-75.91
324.63	-100.7
324.844	-106.27
325.057	-115.35
325.271	-60.5
325.485	-28.67
325.698	3.02
325.912	28.36
326.125	15.45
326.339	14.38
326.552	-3.18
326.766	-15.24
326.979	-7.94
327.193	30.71
327.406	11.77
327.619	14.13
327.833	40.95
328.046	6.79
328.26	-34.41
328.473	-6.86
328.686	-32.57
328.9	-43.29
329.113	-8.81
329.326	-21.85
329.54	-30.23
329.753	-29.46
329.966	-50.48
330.179	-38.35
330.393	-18.92
330.606	-8.48
330.819	-1.3
331.032	10.05
331.246	11.23
331.459	41.87
331.672	32.4
331.885	26.72
332.098	-3.04
332.311	-18.26
332.525	-77.4
332.738	-70.62
332.951	-30.74
333.164	16.33
333.377	22.08
333.59	47.23
333.803	50.1
334.016	43.99
334.229	38.67
334.442	41
334.655	38.06
334.868	42.95
335.081	23.59
335.294	0.54
335.507	-1.56
335.72	0.72
335.933	-16.05
336.146	-20.16
336.359	-9.41
336.572	-46.58
336.785	-67.2
336.997	-45.88
337.21	3.71
337.423	-1.74
337.636	7.56
337.849	11.86
338.062	9.25
338.274	-6.48
338.487	-19.15
338.7	-16.91
338.913	-60
339.125	-85.41
339.338	-155.8
339.551	-112.25
339.763	-62.7
339.976	-18.14
340.189	-10.99
340.402	14.43
340.614	-5.01
340.827	-13.43
341.039	-37.12
341.252	-25.3
341.465	0.16
341.677	15.01
341.89	-31.26
342.102	9.55
342.315	2.81
342.527	-36.11
342.74	-38.19
342.952	15.74
343.165	-8.28
343.377	15.98
343.59	18
343.802	36.51
344.015	32.21
344.227	57.2
344.44	41.62
344.652	39.18
344.864	19
345.077	37
345.289	32.67
345.502	33.2
345.714	19.04
345.926	26.25
346.139	22.45
346.351	21.86
346.563	23.02
346.775	28.73
346.988	9.96
347.2	-18.97
347.412	-76.17
347.624	-80.83
347.837	-95.57
348.049	-70.84
348.261	-50.65
348.473	-23.66
348.685	-41.26
348.897	-42.26
349.11	-57.05
349.322	-50.5
349.534	-31.91
349.746	-25.84
349.958	-12.9
350.17	5.71
350.382	3.81
350.594	-3.12
350.806	3.17
351.018	2.22
351.23	-32.68
351.442	-102.75
351.654	-106.01
351.866	-93.51
352.078	-71.01
352.29	-35.63
352.502	-0
352.714	5.64
352.926	-13.61
353.138	-17.77
353.35	-21.18
353.561	-31.59
353.773	-44.79
353.985	-19.96
354.197	-31.99
354.409	-41
354.621	-42.53
354.832	-27.1
355.044	-41.23
355.256	-36.71
355.468	-14.85
355.679	-14.54
355.891	-7.53
356.103	-18.12
356.314	-10.75
356.526	-13.41
356.738	-8.85
356.949	-32.87
357.161	-5.69
357.373	-11.28
357.584	-23.96
357.796	-5.11
358.008	-5.58
358.219	5
358.431	6.07
358.642	25.05
358.854	18.6
359.065	15.99
359.277	-5.11
359.488	-16.93
359.7	-54.04
359.911	-65.39
360.123	-51.19
360.334	-65.89
360.546	-74.95
360.757	-77.12
360.969	-78.88
361.18	-69.26
361.391	-42.8
361.603	-40.24
361.814	-13.59
362.025	-6.69
362.237	-11.93
362.448	-3.59
362.659	18.69
362.871	11.25
363.082	11.4
363.293	9.75
363.504	-5.07
363.716	-35.99
363.927	-37.79
364.138	-59.75
364.349	-66.58
364.56	-64
364.772	-50.58
364.983	-35.64
365.194	-24.05
365.405	-6.18
365.616	19.75
365.827	18.99
366.038	4.38
366.25	-1.63
366.461	-35.53
366.672	-32.95
366.883	-7.49
367.094	-1.68
367.305	-8.59
367.516	2.32
367.727	-25.87
367.938	-53.13
368.149	-47.59
368.36	-32.43
368.571	-29.62
368.781	-45.25
368.992	-52.92
369.203	-66.9
369.414	-92.35
369.625	-97.91
369.836	-75.7
370.047	-91.08
370.258	-78.69
370.468	-79.65
370.679	-100.79
370.89	-92.51
371.101	-67.7
371.312	-81.08
371.522	-68.15
371.733	-47.28
371.944	-24.38
372.155	-8.27
372.365	-3.88
372.576	-8.68
372.787	-9.32
372.997	-39.43
373.208	-52.05
373.419	-16.49
373.629	-42.14
373.84	-37.2
374.05	-38.84
374.261	-16.23
374.472	-44.74
374.682	10.49
374.893	10.87
375.103	32.16
375.314	20.75
375.524	21.27
375.735	8.68
375.945	17.67
376.156	-6.55
376.366	1.95
376.577	4.68
376.787	-3.72
376.997	-10.44
377.208	-5.54
377.418	-24.54
377.629	-21.4
377.839	-20.15
378.049	-9.46
378.26	6.92
378.47	8.19
378.68	0.7
378.89	-3.65
379.101	-16.72
379.311	-55.11
379.521	-83.56
379.732	-79.69
379.942	-70.92
380.152	-81.15
380.362	-40.17
380.572	-26.23
380.783	-12.14
380.993	3.76
381.203	25.55
381.413	30.18
381.623	42.07
381.833	28.18
382.043	6.79
382.253	-8.97
382.463	-8.96
382.674	-22.6
382.884	-39.63
383.094	-30.61
383.304	-20.45
383.514	-16.66
383.724	4.89
383.934	5.33
384.144	-6.05
384.353	-18.48
384.563	-22.6
384.773	-29.12
384.983	-39.06
385.193	-8.51
385.403	-1.84
385.613	-0.91
385.823	-9.04
386.033	3.77
386.242	-12.68
386.452	-13.08
386.662	-24.88
386.872	-13.52
387.082	-19.73
387.291	-23.19
387.501	-21.42
387.711	-10.02
387.921	-19.53
388.13	-12.52
388.34	-3.52
388.55	-11.59
388.759	-12.92
388.969	-4.45
389.179	-11.78
389.388	-14.52
389.598	-6.89
389.807	-13.63
390.017	-18.7
390.227	-13.81
390.436	-11.4
390.646	-8.78
390.855	0.59
391.065	1.13
391.274	0.56
391.484	-2.19
391.693	-1.64
391.903	-1.83
392.112	3.47
392.322	3.98
392.531	6.39
392.74	7.18
392.95	3.17
393.159	1.7
393.369	1.38
393.578	1.94
393.787	-0.71
393.997	0.17
394.206	-1.86
394.415	-0.41
394.625	-2.3
394.834	-2.53
395.043	-0.64
395.252	2.42
395.462	3.41
395.671	5.14
395.88	6.47
396.089	6.54
396.298	3.67
396.508	2.7
396.717	2.12
396.926	2.83
397.135	1.78
397.344	1.79
397.553	2.72
397.762	4.31
397.971	3.18
398.181	4.21
398.39	4.07
398.599	3.16
398.808	2.09
399.017	3.59
399.226	4.27
399.435	5.7
399.644	6.68
399.853	6.12
400.062	5.04
400.27	4.34
400.479	3.74
400.688	2.62
400.897	3.54
401.106	4.14
401.315	4.13
401.524	4.16
401.733	5.13
401.941	5.25
402.15	5.3
402.359	5.22
402.568	5.6
402.777	5.51
402.985	5.45
403.194	5.06
403.403	5.16
403.612	4.67
403.82	4.39
404.029	4.49
404.238	4.53
404.446	4.76
404.655	4.68
404.864	4.64
405.072	4.35
405.281	4.64
405.489	4.5
405.698	4.58
405.906	4.64
406.115	4.62
406.324	4.39
406.532	4.51
406.741	4.85
406.949	4.87
407.158	4.79
407.366	4.89
407.574	4.66
407.783	4.62
407.991	4.39
408.2	4.67
408.408	4.58
408.617	4.49
408.825	4.2
409.033	4.44
409.242	4.38
409.45	4.57
409.658	4.61
409.867	4.8
410.075	4.7
410.283	4.53
410.491	4.29
410.7	4.21
410.908	4.17
411.116	4.38
411.324	4.28
411.533	4.27
411.741	4.54
411.949	4.55
412.157	4.15
412.365	4.31
412.573	4.31
412.781	4.22
412.99	4.14
413.198	4.44
413.406	4.39
413.614	4.42
413.822	4.24
414.03	4.23
414.238	4
414.446	4.18
414.654	3.89
414.862	4.06
415.07	4.08
415.278	4.32
415.486	4
415.694	4.13
415.902	3.91
416.109	3.89
416.317	3.79
416.525	3.68
416.733	3.9
416.941	4.25
417.149	4.17
417.357	4.21
417.564	4.38
417.772	4.43
417.98	4.2
418.188	4.18
418.395	4.26
418.603	4.45
418.811	4
419.019	3.97
419.226	4.21
419.434	4.15
419.642	3.86
419.849	4.05
420.057	4.01
420.265	3.89
420.472	3.58
420.68	3.78
420.887	3.61
421.095	3.73
421.302	3.7
421.51	3.93
421.717	3.88
421.925	4.19
422.132	4.06
422.34	3.71
422.547	3.77
422.755	3.66
422.962	3.37
423.17	3.28
423.377	3.63
423.585	3.69
423.792	3.52
423.999	3.57
424.207	3.62
424.414	3.61
424.621	3.46
424.829	3.72
425.036	3.7
425.243	3.78
425.451	3.62
425.658	3.39
425.865	3.5
426.072	3.47
426.28	3.67
426.487	3.75
426.694	3.86
426.901	3.51
427.108	3.58
427.315	3.29
427.523	3.45
427.73	3.48
427.937	3.46
428.144	3.39
428.351	3.38
428.558	3.53
428.765	3.42
428.972	3.41
429.179	3.61
429.386	3.9
429.593	3.48
429.8	3.44
430.007	3.63
430.214	3.55
430.421	3.27
430.628	3.16
430.835	3.12
431.042	3.31
431.249	3.38
431.456	3.38
431.662	3.58
431.869	3.71
432.076	3.69
432.283	3.79
432.49	3.87
432.697	3.92
432.903	3.78
433.11	3.68
433.317	3.55
433.524	3.76
433.73	3.73
433.937	4.01
434.144	3.92
434.35	3.92
434.557	3.59
434.764	3.58
434.97	3.42
435.177	3.57
435.384	3.58
435.59	3.72
435.797	3.87
436.003	3.94
436.21	3.94
436.416	4.12
436.623	4.11
436.829	4.12
437.036	4.21
437.242	4.18
437.449	4.07
437.655	4.06
437.862	4.02
438.068	3.86
438.275	3.97
438.481	4.15
438.687	4.17
438.894	4.13
439.1	4.24
439.307	4.33
439.513	4.2
439.719	4.23
439.926	4.3
440.132	4.35
440.338	4.2
440.544	4.36
440.751	4.31
440.957	4.4
441.163	4.17
441.369	4.28
441.575	3.89
441.782	3.91
441.988	3.77
442.194	3.94
442.4	3.88
442.606	4.32
442.812	4.37
443.018	4.53
443.224	4.6
443.431	4.65
443.637	4.33
443.843	4.28
444.049	4.19
444.255	4.08
444.461	4.08
444.667	4.08
444.873	4.23
445.079	4.24
445.284	4.29
445.49	4.09
445.696	3.96
445.902	3.87
446.108	3.86
446.314	3.82
446.52	3.94
446.726	4.28
446.931	4.29
447.137	4.27
447.343	4.32
447.549	4.23
447.755	4
447.96	4.09
448.166	4.03
448.372	4.07
448.578	4.16
448.783	4.28
448.989	4.34
449.195	4.55
449.4	4.53
449.606	4.49
449.812	4.42
450.017	4.41
450.223	4.3
450.428	4.19
450.634	4.36
450.84	4.53
451.045	4.45
451.251	4.34
451.456	4.6
451.662	4.57
451.867	4.55
452.073	4.5
452.278	4.6
452.483	4.67
452.689	4.62
452.894	4.67
453.1	4.65
453.305	4.59
453.51	4.45
453.716	4.37
453.921	4.31
454.127	4.31
454.332	4.3
454.537	4.24
454.742	4.29
454.948	4.31
455.153	4.4
455.358	4.47
455.563	4.66
455.769	4.79
455.974	4.73
456.179	4.63
456.384	4.7
456.589	4.61
456.795	4.39
457	4.47
457.205	4.71
457.41	4.62
457.615	4.53
457.82	4.6
458.025	4.59
458.23	4.39
458.435	4.36
458.64	4.33
458.845	4.51
459.05	4.51
459.255	4.5
459.46	4.54
459.665	4.6
459.87	4.52
460.075	4.44
460.28	4.53
460.485	4.69
460.69	4.7
460.895	4.61
461.099	4.63
461.304	4.76
461.509	4.74
461.714	4.65
461.919	4.88
462.123	4.84
462.328	4.75
462.533	4.58
462.738	4.74
462.942	4.58
463.147	4.73
463.352	4.89
463.556	4.99
463.761	4.97
463.966	5.02
464.17	4.93
464.375	4.77
464.58	4.84
464.784	4.88
464.989	4.87
465.193	4.95
465.398	5.01
465.602	5.06
465.807	4.96
466.011	4.98
466.216	5.09
466.42	5.1
466.625	5.13
466.829	5.21
467.034	5.38
467.238	5.44
467.443	5.43
467.647	5.31
467.851	5.37
468.056	5.34
468.26	5.23
468.464	5.3
468.669	5.47
468.873	5.65
469.077	5.62
469.282	5.73
469.486	5.73
469.69	5.65
469.894	5.46
470.099	5.51
470.303	5.53
470.507	5.45
470.711	5.41
470.915	5.43
471.119	5.26
471.324	5.13
471.528	5.16
471.732	5.29
471.936	5.31
472.14	5.47
472.344	5.63
472.548	5.71
472.752	5.8
472.956	6.03
473.16	5.95
473.364	5.78
473.568	5.8
473.772	5.84
473.976	5.68
474.18	5.74
474.384	5.83
474.588	5.81
474.792	5.7
474.995	5.77
475.199	5.9
475.403	6.02
475.607	6.05
475.811	6.06
476.015	6.12
476.218	6.12
476.422	5.99
476.626	6.05
476.83	6.12
477.033	6.03
477.237	5.89
477.441	5.98
477.644	5.89
477.848	5.88
478.052	5.82
478.255	5.96
478.459	6
478.663	6.15
478.866	6.19
479.07	6.24
479.273	6.29
479.477	6.32
479.681	6.3
479.884	6.25
480.088	6.35
480.291	6.33
480.495	6.28
480.698	6.26
480.901	6.33
481.105	6.35
481.308	6.3
481.512	6.32
481.715	6.4
481.919	6.41
482.122	6.39
482.325	6.4
482.529	6.39
482.732	6.36
482.935	6.31
483.138	6.24
483.342	6.34
483.545	6.43
483.748	6.44
483.952	6.5
484.155	6.67
484.358	6.62
484.561	6.57
484.764	6.55
484.967	6.62
485.171	6.65
485.374	6.62
485.577	6.74
485.78	6.77
485.983	6.76
486.186	6.58
486.389	6.63
486.592	6.55
486.795	6.62
486.998	6.53
487.201	6.59
487.404	6.65
487.607	6.67
487.81	6.68
488.013	6.79
488.216	6.82
488.419	6.79
488.622	6.78
488.825	6.64
489.028	6.57
489.231	6.51
489.433	6.46
489.636	6.39
489.839	6.43
490.042	6.35
490.245	6.34
490.447	6.39
490.65	6.38
490.853	6.42
491.056	6.42
491.258	6.51
491.461	6.48
491.664	6.55
491.866	6.46
492.069	6.55
492.272	6.46
492.474	6.49
492.677	6.56
492.879	6.63
493.082	6.68
493.285	6.84
493.487	6.8
493.69	6.66
493.892	6.56
494.095	6.51
494.297	6.43
494.5	6.53
494.702	6.58
494.905	6.7
495.107	6.67
495.309	6.71
495.512	6.7
495.714	6.76
495.917	6.8
496.119	6.85
496.321	6.89
496.524	6.89
496.726	6.91
496.928	6.94
497.13	6.91
497.333	6.87
497.535	6.92
497.737	6.86
497.939	6.86
498.142	6.87
498.344	6.89
498.546	6.78
498.748	6.83
498.95	6.9
499.152	6.93
499.355	6.91
499.557	7.05
499.759	7.15
499.961	7.08
500.163	7.11
500.365	7.12
500.567	7.24
500.769	7.14
500.971	7.13
501.173	7.07
501.375	7.12
501.577	6.96
501.779	6.98
501.981	7
502.183	7.05
502.385	6.98
502.587	6.91
502.788	6.91
502.99	6.92
503.192	6.97
503.394	7.03
503.596	7.12
503.798	7.23
503.999	7.31
504.201	7.23
504.403	7.25
504.605	7.27
504.806	7.14
505.008	7.07
505.21	7.19
505.411	7.13
505.613	7.15
505.815	7.22
506.016	7.28
506.218	7.37
506.42	7.41
506.621	7.45
506.823	7.45
507.024	7.42
507.226	7.33
507.427	7.35
507.629	7.41
507.83	7.47
508.032	7.42
508.233	7.52
508.435	7.55
508.636	7.53
508.838	7.47
509.039	7.56
509.24	7.55
509.442	7.55
509.643	7.51
509.845	7.63
510.046	7.73
510.247	7.76
510.448	7.78
510.65	7.84
510.851	7.89
511.052	7.79
511.254	7.74
511.455	7.86
511.656	7.88
511.857	7.89
512.058	7.91
512.26	7.91
512.461	7.82
512.662	7.8
512.863	7.7
513.064	7.72
513.265	7.77
513.466	7.81
513.667	7.79
513.868	7.86
514.069	7.9
514.27	7.9
514.471	7.89
514.672	7.96
514.873	7.91
515.074	7.93
515.275	7.85
515.476	7.86
515.677	7.91
515.878	8.01
516.079	7.98
516.28	8.12
516.481	8.22
516.682	8.18
516.882	8.11
517.083	8.16
517.284	8.05
517.485	8
517.686	7.96
517.886	7.97
518.087	8.02
518.288	8.1
518.488	8.1
518.689	8.12
518.89	8.14
519.091	8.15
519.291	8.17
519.492	8.23
519.692	8.31
519.893	8.39
520.094	8.43
520.294	8.41
520.495	8.36
520.695	8.39
520.896	8.42
521.096	8.39
521.297	8.4
521.497	8.45
521.698	8.34
521.898	8.32
522.099	8.33
522.299	8.39
522.499	8.37
522.7	8.37
522.9	8.32
523.101	8.39
523.301	8.47
523.501	8.51
523.702	8.61
523.902	8.73
524.102	8.8
524.302	8.71
524.503	8.77
524.703	8.76
524.903	8.72
525.103	8.59
525.304	8.67
525.504	8.71
525.704	8.79
525.904	8.8
526.104	8.8
526.304	8.8
526.504	8.79
526.705	8.78
526.905	8.9
527.105	8.92
527.305	8.9
527.505	8.87
527.705	8.84
527.905	8.78
528.105	8.78
528.305	8.77
528.505	8.83
528.705	8.87
528.905	8.89
529.105	8.94
529.304	9.02
529.504	9.08
529.704	9.06
529.904	9.05
530.104	9.08
530.304	9.17
530.503	9.09
530.703	9.07
530.903	9.1
531.103	9.18
531.303	9.08
531.502	9.12
531.702	9.28
531.902	9.31
532.101	9.24
532.301	9.28
532.501	9.34
532.7	9.26
532.9	9.27
533.1	9.34
533.299	9.41
533.499	9.4
533.698	9.37
533.898	9.39
534.097	9.37
534.297	9.42
534.496	9.41
534.696	9.52
534.895	9.65
535.095	9.75
535.294	9.66
535.494	9.7
535.693	9.71
535.892	9.69
536.092	9.58
536.291	9.6
536.491	9.63
536.69	9.7
536.889	9.63
537.088	9.67
537.288	9.77
537.487	9.86
537.686	9.83
537.886	9.92
538.085	10.02
538.284	10.11
538.483	10.07
538.682	10.17
538.882	10.19
539.081	10.23
539.28	10.1
539.479	10.1
539.678	10.06
539.877	10.2
540.076	10.23
540.275	10.31
540.474	10.44
540.673	10.5
540.872	10.37
541.071	10.43
541.27	10.47
541.469	10.47
541.668	10.53
541.867	10.61
542.066	10.67
542.265	10.76
542.464	10.76
542.663	10.79
542.862	10.94
543.06	10.91
543.259	10.94
543.458	11
543.657	11.07
543.856	11.07
544.054	11.08
544.253	11.05
544.452	11.09
544.651	11.14
544.849	11.14
545.048	11.2
545.247	11.29
545.445	11.35
545.644	11.4
545.843	11.41
546.041	11.51
546.24	11.58
546.438	11.73
546.637	11.74
546.836	11.94
547.034	11.97
547.233	12.01
547.431	11.95
547.63	12.03
547.828	12.01
548.027	12.07
548.225	12.11
548.423	12.14
548.622	12.24
548.82	12.24
549.019	12.33
549.217	12.46
549.415	12.56
549.614	12.64
549.812	12.68
550.01	12.69
550.209	12.75
550.407	12.88
550.605	12.87
550.803	13.01
551.002	13.12
551.2	13.11
551.398	13.19
551.596	13.33
551.794	13.41
551.993	13.54
552.191	13.68
552.389	13.76
552.587	13.88
552.785	13.93
552.983	13.98
553.181	14.1
553.379	14.22
553.577	14.22
553.775	14.43
553.973	14.53
554.171	14.58
554.369	14.51
554.567	14.62
554.765	14.6
554.963	14.66
555.161	14.63
555.359	14.86
555.557	15.03
555.755	15.09
555.952	15.26
556.15	15.44
556.348	15.5
556.546	15.63
556.744	15.78
556.941	15.83
557.139	15.93
557.337	15.98
557.535	15.99
557.732	16.16
557.93	16.33
558.128	16.47
558.325	16.66
558.523	16.78
558.721	16.86
558.918	16.92
559.116	17.04
559.313	17.11
559.511	17.27
559.708	17.28
559.906	17.34
560.104	17.45
560.301	17.62
560.498	17.66
560.696	17.8
560.893	17.98
561.091	18.03
561.288	18.15
561.486	18.29
561.683	18.42
561.88	18.48
562.078	18.63
562.275	18.64
562.473	18.74
562.67	18.93
562.867	19.15
563.064	19.32
563.262	19.48
563.459	19.62
563.656	19.73
563.853	19.7
564.051	19.78
564.248	19.96
564.445	20.12
564.642	20.17
564.839	20.44
565.036	20.65
565.234	20.8
565.431	20.78
565.628	20.96
565.825	21.05
566.022	21.12
566.219	21.25
566.416	21.49
566.613	21.59
566.81	21.73
567.007	21.75
567.204	21.72
567.401	21.81
567.598	21.84
567.795	21.91
567.991	22.02
568.188	22.18
568.385	22.33
568.582	22.48
568.779	22.56
568.976	22.63
569.172	22.78
569.369	22.72
569.566	22.83
569.763	22.94
569.96	22.96
570.156	22.96
570.353	23.09
570.55	23.08
570.746	23.07
570.943	23.22
571.14	23.3
571.336	23.35
571.533	23.5
571.729	23.54
571.926	23.63
572.123	23.82
572.319	23.87
572.516	23.83
572.712	23.96
572.909	24.03
573.105	24.06
573.302	24.15
573.498	24.35
573.695	24.35
573.891	24.37
574.087	24.22
574.284	24.18
574.48	24.07
574.677	24.18
574.873	24.11
575.069	24.34
575.266	24.46
575.462	24.44
575.658	24.53
575.854	24.74
576.051	24.62
576.247	24.63
576.443	24.66
576.639	24.6
576.835	24.5
577.032	24.54
577.228	24.68
577.424	24.82
577.62	24.76
577.816	24.8
578.012	24.85
578.208	24.67
578.404	24.63
578.6	24.67
578.796	24.66
578.993	24.6
579.189	24.61
579.384	24.51
579.58	24.45
579.776	24.42
579.972	24.38
580.168	24.35
580.364	24.39
580.56	24.45
580.756	24.43
580.952	24.42
581.148	24.41
581.343	24.43
581.539	24.49
581.735	24.51
581.931	24.64
582.127	24.72
582.322	24.7
582.518	24.68
582.714	24.68
582.909	24.6
583.105	24.52
583.301	24.47
583.496	24.45
583.692	24.33
583.888	24.32
584.083	24.38
584.279	24.4
584.474	24.35
584.67	24.44
584.866	24.47
585.061	24.28
585.257	24.34
585.452	24.37
585.648	24.32
585.843	24.38
586.039	24.49
586.234	24.38
586.429	24.29
586.625	24.42
586.82	24.35
587.015	24.4
587.211	24.33
587.406	24.39
587.601	24.3
587.797	24.21
587.992	24.1
588.187	24.25
588.383	24.23
588.578	24.22
588.773	24.31
588.968	24.32
589.163	24.35
589.359	24.34
589.554	24.29
589.749	24.35
589.944	24.41
590.139	24.37
590.334	24.41
590.529	24.42
590.724	24.48
590.919	24.59
591.114	24.63
591.309	24.7
591.504	24.87
591.699	24.85
591.894	24.91
592.089	24.86
592.284	24.86
592.479	24.89
592.674	24.86
592.869	24.96
593.064	25.13
593.259	25.29
593.454	25.33
593.648	25.46
593.843	25.43
594.038	25.59
594.233	25.5
594.428	25.57
594.622	25.55
594.817	25.69
595.012	25.66
595.206	25.8
595.401	25.88
595.596	25.96
595.79	26.05
595.985	26.15
596.18	26.25
596.374	26.39
596.569	26.52
596.763	26.47
596.958	26.59
597.153	26.69
597.347	26.67
597.542	26.8
597.736	26.93
597.931	26.94
598.125	26.97
598.319	27.18
598.514	27.2
598.708	27.34
598.903	27.41
599.097	27.48
599.291	27.42
599.486	27.43
599.68	27.4
599.874	27.52
600.069	27.57
600.263	27.57
600.457	27.7
600.651	27.75
600.846	27.8
601.04	27.88
601.234	28.03
601.428	28.09
601.622	28.09
601.817	28.13
602.011	28.26
602.205	28.27
602.399	28.24
602.593	28.32
602.787	28.29
602.981	28.18
603.175	28.22
603.369	28.16
603.563	28.19
603.757	28.32
603.951	28.39
604.145	28.35
604.339	28.38
604.533	28.29
604.727	28.12
604.921	28.12
605.115	28.14
605.309	28.33
605.502	28.36
605.696	28.36
605.89	28.26
606.084	28.23
606.278	28.06
606.471	27.95
606.665	27.88
606.859	27.74
607.053	27.66
607.246	27.55
607.44	27.53
607.634	27.4
607.827	27.41
608.021	27.25
608.214	27.26
608.408	27.14
608.602	27.17
608.795	27.11
608.989	27.08
609.182	26.96
609.376	26.94
609.569	26.87
609.763	26.67
609.956	26.58
610.15	26.38
610.343	26.33
610.537	26.19
610.73	26.22
610.923	26.21
611.117	26.28
611.31	26.15
611.504	26.08
611.697	25.92
611.89	25.82
612.083	25.7
612.277	25.68
612.47	25.54
612.663	25.51
612.856	25.32
613.05	25.18
613.243	25.04
613.436	24.86
613.629	24.78
613.822	24.7
614.015	24.64
614.209	24.55
614.402	24.6
614.595	24.57
614.788	24.51
614.981	24.37
615.174	24.2
615.367	24.06
615.56	23.85
615.753	23.78
615.946	23.68
616.139	23.78
616.332	23.84
616.525	23.91
616.718	23.95
616.911	23.93
617.103	23.81
617.296	23.75
617.489	23.65
617.682	23.59
617.875	23.59
618.067	23.48
618.26	23.34
618.453	23.32
618.646	23.21
618.838	23.16
619.031	23.3
619.224	23.3
619.417	23.28
619.609	23.38
619.802	23.32
619.994	23.23
620.187	23.2
620.38	23.07
620.572	22.89
620.765	22.89
620.957	22.71
621.15	22.68
621.342	22.67
621.535	22.65
621.727	22.54
621.92	22.52
622.112	22.41
622.305	22.45
622.497	22.35
622.69	22.43
622.882	22.45
623.074	22.5
623.267	22.35
623.459	22.38
623.651	22.26
623.844	22.28
624.036	22.26
624.228	22.16
624.42	22.11
624.613	22.26
624.805	22.17
624.997	22.06
625.189	22.1
625.381	22.15
625.574	21.91
625.766	21.84
625.958	21.91
626.15	22.04
626.342	21.97
626.534	22.01
626.726	22.02
626.918	21.95
627.11	21.82
627.302	21.79
627.494	21.71
627.686	21.69
627.878	21.62
628.07	21.61
628.262	21.56
628.454	21.57
628.646	21.57
628.838	21.57
629.029	21.46
629.221	21.5
629.413	21.39
629.605	21.27
629.797	21.16
629.989	21.21
630.18	21.06
630.372	21.11
630.564	21.11
630.755	21.17
630.947	21.2
631.139	21.12
631.33	20.95
631.522	20.98
631.714	20.93
631.905	20.86
632.097	20.89
632.289	20.94
632.48	20.93
632.672	20.8
632.863	20.63
633.055	20.6
633.246	20.54
633.438	20.48
633.629	20.5
633.821	20.47
634.012	20.45
634.203	20.38
634.395	20.32
634.586	20.26
634.777	20.26
634.969	20.21
635.16	20.28
635.351	20.29
635.543	20.27
635.734	20.23
635.925	20.23
636.117	20.15
636.308	20.07
636.499	20
636.69	19.89
636.881	19.83
637.073	19.91
637.264	19.95
637.455	20.08
637.646	20.25
637.837	20.3
638.028	20.18
638.219	20.21
638.41	20.11
638.601	19.97
638.792	19.99
638.983	20.02
639.174	19.95
639.365	19.96
639.556	20.01
639.747	19.9
639.938	19.96
640.129	19.86
640.32	19.78
640.511	19.78
640.701	19.85
640.892	19.66
641.083	19.79
641.274	19.91
641.465	19.86
641.655	19.73
641.846	19.83
642.037	19.67
642.228	19.51
642.418	19.56
642.609	19.6
642.8	19.56
642.99	19.5
643.181	19.49
643.372	19.41
643.562	19.4
643.753	19.38
643.943	19.44
644.134	19.33
644.324	19.29
644.515	19.2
644.705	19.2
644.896	19.18
645.086	19.23
645.277	19.16
645.467	19.14
645.658	19.02
645.848	19.04
646.038	19.07
646.229	19.03
646.419	18.96
646.61	18.97
646.8	18.85
646.99	18.8
647.18	18.85
647.371	18.86
647.561	18.8
647.751	18.77
647.941	18.65
648.132	18.62
648.322	18.53
648.512	18.58
648.702	18.64
648.892	18.7
649.082	18.66
649.272	18.55
649.462	18.44
649.653	18.29
649.843	18.15
650.033	18.08
650.223	18.07
650.413	17.95
650.603	18.06
650.793	18.11
650.983	18.06
651.172	18.09
651.362	18.1
651.552	17.9
651.742	17.8
651.932	17.79
652.122	17.68
652.312	17.75
652.502	17.75
652.691	17.7
652.881	17.58
653.071	17.57
653.261	17.29
653.45	17.06
653.64	16.91
653.83	16.74
654.019	16.7
654.209	16.72
654.399	16.7
654.588	16.67
654.778	16.59
654.968	16.38
655.157	16.21
655.347	16.07
655.536	15.86
655.726	15.8
655.915	15.62
656.105	15.52
656.294	15.36
656.484	15.14
656.673	15.01
656.863	14.94
657.052	14.64
657.241	14.44
657.431	14.34
657.62	14.09
657.809	13.77
657.999	13.67
658.188	13.52
658.377	13.23
658.567	13.09
658.756	12.9
658.945	12.69
659.134	12.47
659.324	12.39
659.513	12.2
659.702	12.07
659.891	11.9
660.08	11.76
660.269	11.64
660.458	11.39
660.648	11.21
660.837	11.1
661.026	10.96
661.215	10.69
661.404	10.58
661.593	10.5
661.782	10.19
661.971	10.08
662.16	9.92
662.349	9.84
662.538	9.66
662.726	9.71
662.915	9.55
663.104	9.51
663.293	9.39
663.482	9.36
663.671	9.18
663.86	8.94
664.048	8.75
664.237	8.62
664.426	8.41
664.615	8.33
664.803	8.36
664.992	8.27
665.181	8.1
665.369	7.96
665.558	7.82
665.747	7.58
665.935	7.63
666.124	7.61
666.312	7.71
666.501	7.6
666.69	7.6
666.878	7.38
667.067	7.23
667.255	7.14
667.444	7.39
667.632	7.4
667.82	7.51
668.009	7.5
668.197	7.45
668.386	7.26
668.574	7.34
668.762	7.25
668.951	7.22
669.139	7.16
669.327	7.03
669.516	6.93
669.704	6.85
669.892	6.97
670.08	7.04
670.269	6.92
670.457	6.84
670.645	6.73
670.833	6.72
671.021	6.61
671.21	6.72
671.398	7.01
671.586	7.12
671.774	6.9
671.962	6.92
672.15	6.98
672.338	6.72
672.526	6.82
672.714	6.89
672.902	6.98
673.09	7.13
673.278	7.38
673.466	7.43
673.654	7.67
673.842	7.65
674.03	7.63
674.218	7.42
674.405	7.39
674.593	7.26
674.781	7.4
674.969	7.38
675.157	7.63
675.344	7.81
675.532	7.9
675.72	7.94
675.908	7.97
676.095	7.86
676.283	7.86
676.471	8.03
676.658	7.99
676.846	8.1
677.033	8.28
677.221	8.37
677.409	8.25
677.596	8.27
677.784	8.21
677.971	8.3
678.159	8.28
678.346	8.39
678.534	8.6
678.721	8.92
678.909	8.78
679.096	8.82
679.283	9.05
679.471	9.14
679.658	9.22
679.846	9.65
680.033	9.89
680.22	9.84
680.408	9.85
680.595	9.84
680.782	9.66
680.969	9.8
681.157	9.87
681.344	10.02
681.531	10.07
681.718	10.26
681.905	10.43
682.093	10.72
682.28	10.89
682.467	11.14
682.654	11.32
682.841	11.37
683.028	11.52
683.215	11.73
683.402	11.79
683.589	11.95
683.776	12.26
683.963	12.37
684.15	12.63
684.337	12.92
684.524	13.15
684.711	13.42
684.898	13.64
685.085	13.95
685.271	14.35
685.458	14.68
685.645	14.92
685.832	15.42
686.019	15.69
686.205	15.94
686.392	16.23
686.579	16.48
686.766	16.9
686.952	17.26
687.139	17.79
687.326	18.26
687.512	18.66
687.699	18.9
687.886	19.24
688.072	19.67
688.259	20.11
688.445	20.74
688.632	21.07
688.818	21.86
689.005	22.27
689.191	22.8
689.378	23.53
689.564	24.42
689.751	24.82
689.937	25.4
690.124	26.05
690.31	26.32
690.496	26.77
690.683	27.48
690.869	28.12
691.055	28.72
691.242	29.64
691.428	30.31
691.614	31.07
691.8	32
691.987	32.84
692.173	33.56
692.359	34.57
692.545	35.22
692.731	35.69
692.918	36.44
693.104	37.05
693.29	37.57
693.476	38.31
693.662	39.33
693.848	40.2
694.034	41.06
694.22	41.71
694.406	42.64
694.592	43.36
694.778	43.9
694.964	44.61
695.15	45.56
695.336	46.04
695.522	46.79
695.708	47.67
695.894	48.23
696.08	49.08
696.265	50.02
696.451	50.66
696.637	51.47
696.823	52.6
697.009	53.04
697.194	53.8
697.38	54.46
697.566	54.93
697.751	55.47
697.937	56.58
698.123	57.23
698.308	58.14
698.494	58.77
698.68	59.31
698.865	59.48
699.051	60.2
699.236	60.48
699.422	61.19
699.607	61.71
699.793	62.57
699.978	62.86
700.164	63.52
700.349	64.4
700.535	65.1
700.72	65.48
700.906	66.33
701.091	66.82
701.276	67.1
701.462	67.93
701.647	68.87
701.832	69.32
702.018	69.91
702.203	70.59
702.388	70.66
702.573	70.97
702.759	71.84
702.944	72.33
703.129	72.4
703.314	73.07
703.499	73.52
703.684	73.57
703.87	74.74
704.055	75.68
704.24	76.09
704.425	76.79
704.61	77.24
704.795	76.79
704.98	76.59
705.165	76.81
705.35	76.67
705.535	76.75
705.72	77.27
705.905	78.07
706.09	78.76
706.275	79.37
706.459	79.47
706.644	79.91
706.829	80.33
707.014	80.21
707.199	80.42
707.384	80.96
707.568	80.96
707.753	81.26
707.938	81.87
708.123	81.83
708.307	82.08
708.492	82.43
708.677	82.62
708.861	82.54
709.046	83.03
709.231	83.93
709.415	84.57
709.6	84.4
709.784	84.52
709.969	84.7
710.153	84.23
710.338	84.07
710.522	84.5
710.707	84.99
710.891	85.37
711.076	85.42
711.26	85.5
711.445	85.61
711.629	85.9
711.813	85.96
711.998	86.58
712.182	86.52
712.366	87.54
712.551	87.82
712.735	87.77
712.919	87.78
713.103	88.48
713.288	87.65
713.472	87.36
713.656	88.46
713.84	88.42
714.024	88.17
714.208	87.93
714.393	88.35
714.577	87.83
714.761	88.42
714.945	88.74
715.129	89.33
715.313	89.4
715.497	89.16
715.681	89.16
715.865	89.04
716.049	89.38
716.233	88.99
716.417	89.08
716.601	89.05
716.785	89.08
716.968	89.12
717.152	89.64
717.336	90.14
717.52	90.13
717.704	90.44
717.888	90.7
718.071	90.72
718.255	90.59
718.439	90.8
718.622	91.08
718.806	90.94
718.99	90.81
719.174	90.74
719.357	90.74
719.541	90.76
719.724	90.47
719.908	91.24
720.092	91.75
720.275	91.83
720.459	91.8
720.642	92.05
720.826	91.38
721.009	91.38
721.193	91.21
721.376	91.78
721.559	91.99
721.743	92.59
721.926	92.89
722.11	93.24
722.293	92.6
722.476	92.36
722.66	92.41
722.843	91.88
723.026	91.6
723.21	91.84
723.393	93.18
723.576	93.09
723.759	92.62
723.942	93.1
724.126	93.13
724.309	92.24
724.492	92.24
724.675	92.55
724.858	92.68
725.041	93.35
725.224	93.73
725.407	94.03
725.59	95.06
725.774	94.3
725.957	93.24
726.14	93.21
726.322	93.03
726.505	92.18
726.688	93.22
726.871	93.46
727.054	93.57
727.237	94.14
727.42	94.78
727.603	94.65
727.786	95.12
727.968	95.01
728.151	94.72
728.334	94.67
728.517	95.21
728.699	95.75
728.882	95.89
729.065	96.29
729.248	96.46
729.43	96.7
729.613	97.27
729.796	98.16
729.978	97.41
730.161	97.32
730.343	96.98
730.526	97.08
730.708	96.42
730.891	96.66
731.073	96.65
731.256	96.09
731.438	95.6
731.621	96.3
731.803	96.59
731.986	96.37
732.168	96.41
732.35	96.49
732.533	95.59
732.715	95.5
732.898	96.69
733.08	96.74
733.262	97.5
733.444	97.4
733.627	98.34
733.809	98.23
733.991	99.26
734.173	98.07
734.355	98.48
734.538	98.74
734.72	98.27
734.902	98.08
735.084	98.41
735.266	98.42
735.448	98.13
735.63	97.92
735.812	97.33
735.994	97.83
736.176	98.43
736.358	97.9
736.54	99.15
736.722	99.1
736.904	98.53
737.086	98.27
737.268	99.22
737.45	98.78
737.632	99.85
737.814	99.41
737.995	99.75
738.177	99.92
738.359	99.52
738.541	98.91
738.723	99.95
738.904	100.21
739.086	99.41
739.268	99.95
739.449	100.47
739.631	100.25
739.813	100.24
739.994	101.11
740.176	101.55
740.358	101.15
740.539	102.63
740.721	102.36
740.902	102.92
741.084	101.97
741.265	102.56
741.447	101.77
741.628	101.43
741.81	99.95
741.991	101.11
742.172	101.64
742.354	102.25
742.535	103.03
742.717	103.72
742.898	103.6
743.079	104.23
743.261	103.94
743.442	102.76
743.623	104.89
743.804	104.35
743.986	104.16
744.167	102.78
744.348	103.24
744.529	101.4
744.71	101.36
744.891	100.03
745.073	100.51
745.254	100.79
745.435	100.43
745.616	99.78
745.797	100.12
745.978	99.65
746.159	99.95
746.34	98.42
746.521	100.31
746.702	98.28
746.883	98.19
747.064	97.13
747.245	98.35
747.426	97.26
747.606	99.55
747.787	100.26
747.968	100.77
748.149	101.6
748.33	100.77
748.51	100.16
748.691	99.11
748.872	100.23
749.053	98.75
749.233	98.42
749.414	97.83
749.595	97.23
749.775	95.46
749.956	95.43
750.137	95.44
750.317	97.09
750.498	99.52
750.678	100.73
750.859	101.88
751.04	102.14
751.22	100.37
751.4	99.97
751.581	97.63
751.761	98.19
751.942	99.94
752.122	99.7
752.303	97.28
752.483	97.92
752.663	97.17
752.844	95.33
753.024	97.57
753.204	99.82
753.385	100.23
753.565	99.13
753.745	99.8
753.925	97.5
754.106	96.51
754.286	96.57
754.466	97.61
754.646	98.07
754.826	98.19
755.006	96.62
755.187	97.56
755.367	97.81
755.547	97.1
755.727	97.47
755.907	99.39
756.087	98.55
756.267	97.51
756.447	97.38
756.627	97.32
756.807	97.48
756.987	96.55
757.167	97.79
757.346	98.42
757.526	97.24
757.706	97.93
757.886	99.13
758.066	98.39
758.246	99.81
758.425	99.64
758.605	98.8
758.785	99.76
758.965	99.72
759.144	96.47
759.324	97.35
759.504	97.46
759.683	96.87
759.863	94.6
760.043	94.39
760.222	94.4
760.402	94.02
760.581	93.18
760.761	97.63
760.94	97.78
761.12	99.55
761.299	99.96
761.479	100.08
761.658	96.41
761.838	97.12
762.017	95.52
762.197	96.07
762.376	95.83
762.555	97.79
762.735	97.53
762.914	96.67
763.093	96
763.273	94.88
763.452	93.48
763.631	94.11
763.81	94.22
763.99	94.19
764.169	96.1
764.348	94.7
764.527	93.6
764.706	95.94
764.885	97.16
765.064	94.72
765.243	95.98
765.423	98.56
765.602	96.5
765.781	94.02
765.96	94.25
766.139	92.56
766.318	92.35
766.497	93.21
766.676	93.61
766.854	95.85
767.033	98.01
767.212	95.97
767.391	95.65
767.57	96
767.749	95.26
767.928	94.64
768.106	94.47
768.285	92.85
768.464	92
768.643	91.04
768.821	93.15
769	95.32
769.179	95.59
769.357	94.75
769.536	95.39
769.715	92.06
769.893	91.91
770.072	92.08
770.25	94.64
770.429	93.98
770.607	93.29
770.786	92.89
770.964	93.84
771.143	91.55
771.321	93.44
771.5	96.65
771.678	94.58
771.857	92.46
772.035	92.69
772.213	91.35
772.392	89.73
772.57	92.37
772.748	93.51
772.927	93.36
773.105	92.12
773.283	93.28
773.461	92.24
773.64	93.35
773.818	92.47
773.996	94.19
774.174	91.9
774.352	88.5
774.531	85.2
774.709	88.73
774.887	87.91
775.065	88.67
775.243	88.6
775.421	89.29
775.599	88.98
775.777	87.87
775.955	85.24
776.133	85.85
776.311	85.05
776.489	82.77
776.667	83.82
776.844	87.08
777.022	85.95
777.2	87.95
777.378	88.01
777.556	88.59
777.734	89.96
777.911	91.92
778.089	90.01
778.267	90.72
778.445	89.31
778.622	85.58
778.8	86.18
778.978	88.78
779.155	86.99
779.333	87.76
779.511	87.76
779.688	90
779.866	85.06
780.043	84.03
780.221	85.77
780.398	83.18
780.576	82.96
780.753	86.46
780.931	83.35
781.108	82.78
781.286	85.62
781.463	81.03
781.64	77.45
781.818	83.19
781.995	81.75
782.172	83.27
782.35	87.66
782.527	90.99
782.704	88.98
782.882	89.99
783.059	88.29
783.236	87.36
783.413	90.31
783.59	91.87
783.768	88.59
783.945	91.49
784.122	90.15
784.299	89.32
784.476	86.8
784.653	84.59
784.83	82.8
785.007	79.33
785.184	78.23
785.361	80.1
785.538	89.61
785.715	90.22
785.892	93.07
786.069	94.88
786.246	94.55
786.423	89.08
786.6	87.35
786.776	87.7
786.953	84.21
787.13	85.8
787.307	84.79
787.484	85.37
787.66	83.63
787.837	84.59
788.014	79.79
788.191	78.84
788.367	76.43
788.544	80.58
788.721	78.81
788.897	81.41
789.074	83.6
789.25	81.8
789.427	76.1
789.603	76.38
789.78	77.32
789.956	74.72
790.133	73.37
790.309	77.46
790.486	79.02
790.662	77.29
790.839	76.04
791.015	79.66
791.192	75.57
791.368	74.27
791.544	72.95
791.721	74.25
791.897	74.53
792.073	74.12
792.249	70.05
792.426	75.78
792.602	77.98
792.778	78.92
792.954	81.61
793.13	85.27
793.307	75.73
793.483	67.05
793.659	66.05
793.835	69.58
794.011	66.48
794.187	70.86
794.363	75.43
794.539	79.07
794.715	71.25
794.891	71.01
795.067	70.72
795.243	76.17
795.419	72.65
795.595	76.2
795.771	76.64
795.947	76.34
796.122	72.4
796.298	77.47
796.474	72.26
796.65	75.25
796.826	75.09
797.001	73.16
797.177	64.64
797.353	76.25
797.529	78.22
797.704	75.36
797.88	76.91
798.056	74.81
798.231	66.96
798.407	70.39
798.582	73.66
798.758	80.5
798.934	90.37
799.109	86.5
799.285	78.27
799.46	83.72
799.636	77.16
799.811	73.23
799.986	81.78
800.162	85.54
800.337	81.18
800.513	78.61
800.688	78.74
800.863	80.91
801.039	75.29
801.214	72.3
801.389	75.3
801.565	72.72
801.74	59.86
801.915	68.06
802.09	69.84
802.265	75.37
802.441	76.64
802.616	77.35
802.791	76.35
802.966	77.38
803.141	79.08
803.316	73.91
803.491	80.57
803.666	82.16
803.841	79.44
804.016	69.33
804.191	72.47
804.366	67.42
804.541	56.62
804.716	51.39
804.891	44.38
805.066	52.22
805.241	51.16
805.416	56.65
805.591	64.36
805.765	77.87
805.94	74.61
806.115	76.33
806.29	70.87
806.464	68.63
806.639	54.88
806.814	48.47
806.989	42.03
807.163	59.04
807.338	63.56
807.512	66.08
807.687	56.19
807.862	73.43
808.036	70.74
808.211	74.27
808.385	83.02
808.56	103.62
808.734	111.9
808.909	101.57
809.083	89.66
809.258	96.77
809.432	93.44
809.606	66.11
809.781	68.16
809.955	74.69
810.13	68.96
810.304	57.62
810.478	64.58
810.652	73.23
810.827	69.59
811.001	65.32
811.175	61.34
811.349	59.71
811.524	53.21
811.698	43.06
811.872	38.21
812.046	50.22
812.22	55.21
812.394	46.88
812.568	53.16
812.742	64.94
812.916	62.02
813.09	50.24
813.264	51.74
813.438	58.51
813.612	51.41
813.786	46.65
813.96	62.57
814.134	66.74
814.308	68.79
814.482	70.48
814.656	64.64
814.83	65.7
815.003	68.91
815.177	57.8
815.351	51.54
815.525	61.7
815.698	56.83
815.872	52.34
816.046	44.48
816.219	50.91
816.393	56.37
816.567	62.95
816.74	62.04
816.914	72.63
817.088	70.41
817.261	48.75
817.435	35.9
817.608	36.72
817.782	29.46
817.955	36.31
818.129	48.98
818.302	57.28
818.475	73
818.649	75.39
818.822	59.73
818.996	79.65
819.169	73.66
819.342	47.64
819.516	53.61
819.689	62.87
819.862	46.65
820.035	38.38
820.209	38.42
820.382	41.74
820.555	50.35
820.728	36.29
820.901	41.95
821.075	52.94
821.248	58.59
821.421	41.11
821.594	51.22
821.767	67.57
821.94	79.6
822.113	53.34
822.286	58.82
822.459	65.73
822.632	63.58
822.805	50.31
822.978	39.99
823.151	35.34
823.324	21.89
823.496	-5.91
823.669	-9.08
823.842	11.51
824.015	-2.16
824.188	17.68
824.361	30
824.533	25.7
824.706	26.36
824.879	33.62
825.051	20.65
825.224	20.74
825.397	15.38
825.569	14.51
825.742	50.12
825.915	77.24
826.087	97.81
826.26	74.07
826.432	73.76
826.605	68.95
826.777	41.76
826.95	31.46
827.122	28.76
827.295	47.11
827.467	37.75
827.64	26.98
827.812	16.87
827.984	19.56
828.157	-13.09
828.329	-65.5
828.501	-52.4
828.674	-13.12
828.846	-25.54
829.018	-0.36
829.19	14.67
829.363	45.76
829.535	26.15
829.707	26.23
829.879	0.17
830.051	-6.35
830.223	-19.59
830.395	-26.37
830.568	-33.7
830.74	-33.15
830.912	9.8
831.084	-10.65
831.256	-7.72
831.428	-14.35
831.6	-19.89
831.772	-83.21
831.943	-94.55
832.115	-59.8
832.287	-24.46
832.459	-0.83
832.631	24.27
832.803	61.74
832.975	71.21
833.146	52.82
833.318	45.04
833.49	48.59
833.662	7.66
833.833	-11.98
834.005	5.03
834.177	15.71
834.348	7.18
834.52	8.69
834.692	-7.4
834.863	-29.63
835.035	-40.86
835.206	-94.82
835.378	-65.34
835.549	-44.77
835.721	-21.56
835.892	-12.4
836.064	2.58
836.235	11.35
836.407	38.26
836.578	28.02
836.749	29.3
836.921	10.18
837.092	-45.44
837.264	-52.28
837.435	-80.94
837.606	-31.69
837.777	1.13
837.949	19.05
838.12	19.92
838.291	40.95
838.462	29.29
838.633	4.52
838.805	12.6
838.976	23.86
839.147	-5.19
839.318	-29.17
839.489	-66.86
839.66	-49.71
839.831	-12.65
840.002	-27.3
840.173	-32.07
840.344	6.57
840.515	-4.09
840.686	-146.23
840.857	-128.57
841.028	-158
841.199	-78.19
841.369	-100.75
841.54	-81.41
841.711	-24.39
841.882	26.18
842.053	8.22
842.223	-15.81
842.394	-5.19
842.565	-10.56
842.736	-15.63
842.906	-19.51
843.077	6.61
843.248	34.76
843.418	38.92
843.589	21.02
843.759	64.6
843.93	38.29
844.101	-6.81
844.271	-7.31
844.442	7.48
844.612	23.62
844.783	-7.85
844.953	-38.89
845.123	-60.46
845.294	-82.92
845.464	-355.52
845.635	-142.11
845.805	-11.42
845.975	1.81
846.146	-28.17
846.316	-2.66
846.486	16.39
846.656	33.3
846.827	30.17
846.997	28.51
847.167	48.87
847.337	20.02
847.507	-18.77
847.677	-23.7
847.848	37.36
848.018	39.88
848.188	38.1
848.358	11.98
848.528	-13.11
848.698	-59.41
848.868	-180.83
849.038	-307.56
849.208	-85.35
849.378	6.93
849.548	6.32
849.718	18.41
849.887	46.77
850.057	3.18
850.227	-48.18
850.397	-85.22
850.567	-243.42
850.737	-600
850.906	-1612.5
851.076	-1141.41
851.246	-640.84
851.415	-94.51
851.585	-78.54
851.755	-117.87
851.924	-66.06
852.094	-98.85
852.264	-262.83
852.433	-1318.27
852.603	-274.75
852.772	-207.85
852.942	-128.12
853.111	-94.48
853.281	-52.69
853.45	-24.76
853.62	-102.04
853.789	-90.69
853.959	-79.01
854.128	-115.35
854.297	-132.86
854.467	-148.44
854.636	-159.63
854.805	-77.25
854.975	-112.94
855.144	-196.44
855.313	-127.97
855.482	-472.99
855.652	-295.77
855.821	-178.78
855.99	2.23
856.159	23.38
856.328	32.62
856.497	33.54
856.667	47.13
856.836	65.5
857.005	33.37
857.174	25.46
857.343	-9.66
857.512	6.16
857.681	-77.18
857.85	-120.85
858.019	-67.76
858.188	-33.84
858.356	-68.16
858.525	-113.56
858.694	-91.72
858.863	-224.84
859.032	-161.42
859.201	-244.22
859.369	-178.32
859.538	-125.11
859.707	-74.77
859.876	-126.61
860.044	-81.26
860.213	-5.2
860.382	-24.62
860.55	-15.95
860.719	27.08
860.888	45.31
861.056	23.06
861.225	8.52
861.393	50.22
861.562	24.71
861.73	-69.73
861.899	-259.16
862.067	-2637.93
862.236	-217.54
862.404	-371.76
862.572	-222
862.741	-94.36
862.909	-85.39
863.078	-184.93
863.246	-128.91
863.414	-140.75
863.582	-113.59
863.751	-105.88
863.919	-89.14
864.087	-13.8
864.255	7.35
864.424	-326.29
864.592	-42.92
864.76	-100.22
864.928	-343.2
865.096	-228.34
865.264	-122.1
865.432	-1486.36
865.6	34.5
865.768	-120.76
865.936	-151.22
866.104	-201.11
866.272	-297.19
866.44	-555.12
866.608	862.5
866.776	349.86
866.944	3104.65
867.112	-634.32
867.28	-288.52
867.448	-85.34
867.615	-37.06
867.783	-6.84
867.951	-15.65
868.119	28.19
868.286	-50.54
868.454	-180.45
868.622	-180.43
868.789	-222.18
868.957	-5014.29
869.125	-3118.42
869.292	-266.83
869.46	-277.5
869.627	-44.65
869.795	-51.16
869.963	2.76
870.13	21.65
870.298	20.39
870.465	-74.38
870.632	-85.05
870.8	-64.74
870.967	-101.55
871.135	-193.01
871.302	-103.27
871.469	-113.5
871.637	-180.43
871.804	-126.64
871.971	-136.96
872.139	-523.26
872.306	-109.54
872.473	-105.24
872.64	-408.15
872.807	-150.97
872.975	-26.07
873.142	-139.64
873.309	1427.03
873.476	73.88
873.643	113.83
873.81	80.37
873.977	77.31
874.144	104.8
874.311	-49.41
874.478	-128.14
874.645	-168.17
874.812	-96.29
874.979	-122.59
875.146	-103.69
875.313	-119.75
875.48	-35.2
875.647	-59.09
875.813	-97.48
875.98	-58.98
876.147	-86.37
876.314	-185.1
876.481	1361.16
876.647	-1870.79
876.814	825.39
876.981	-211.15
877.147	-85.2
877.314	-14.08
877.481	30.44
877.647	58.94
877.814	-3.75
877.98	-58.58
878.147	-26.82
878.314	25.2
878.48	-50.57
878.647	-29.43
878.813	27.07
878.979	18.6
879.146	-35.66
879.312	-55.65
879.479	-85.22
879.645	-186.38
879.811	-392.74
879.978	-984.73
880.144	-229.21
880.31	-142.28
880.477	-387.54
880.643	-380.28
880.809	-128.12
880.975	-114.09
881.142	-957.27
881.308	-123.63
881.474	-58.55
881.64	-79.22
881.806	-169.84
881.972	-35.01
882.138	-58.35
882.304	-162.54
882.47	-282.49
882.636	-912.3
882.802	-281.85
882.968	-56.83
883.134	-31.24
883.3	-30.67
883.466	26.76
883.632	64.54
883.798	23.69
883.964	22.14
884.129	28.98
884.295	40.24
884.461	-63.24
884.627	-71.22
884.793	-61.6
884.958	-2.36
885.124	-118.97
885.29	-202.25
885.455	-348.06
885.621	-80.61
885.787	-176.61
885.952	-71.65
886.118	-87.24
886.283	-74.01
886.449	-216.1
886.614	-198.75
886.78	-378.46
886.945	1514.75
887.111	-792.49
887.276	-634.09
887.442	-1393.64
887.607	-554.72
887.773	-382.17
887.938	-305.48
888.103	-383.59
888.269	-243.07
888.434	-536.76
888.599	-221.09
888.764	-65.63
888.93	-15.35
889.095	-29.17
889.26	-59.24
889.425	-15.83
889.59	-29.01
889.756	-64.29
889.921	-55.45
890.086	-19.53
890.251	-27.41
890.416	-196.34
890.581	-1766.13
890.746	282.86
890.911	550.32
891.076	247.56
891.241	-745.52
891.406	-64.56
891.571	-105.92
891.736	-433.49
891.901	-560.18
892.065	827.47
892.23	185.62
892.395	335.23
892.56	437.86
892.725	-653.91
892.889	-1412.2
893.054	-263.09
893.219	-75.8
893.384	-44.78
893.548	-132.03
893.713	-157.56
893.878	-103.74
