Data from Ofra_2a_PS_1GT36B_Reflection_3.txt Node
Date: Tue Jul 20 09:32:25 EDT 2021
User: Adam
Spectrometer: FLMT01687
Trigger mode: 0
Integration Time (sec): 9.450000E-1
Scans to average: 3
Electric dark correction enabled: true
Nonlinearity correction enabled: false
Boxcar width: 3
XAxis mode: Wavelengths
Number of Pixels in Spectrum: 3648
>>>>>Begin Spectral Data<<<<<
179.494	531.36
179.716	312.32
179.937	343.96
180.158	1060.94
180.38	-520.93
180.601	-40.52
180.823	6.3
181.044	49.8
181.265	66.99
181.486	47.43
181.708	-813.04
181.929	53.95
182.15	-227.27
182.372	48.01
182.593	44.52
182.814	83.83
183.035	33.06
183.257	69.44
183.478	30.73
183.699	62.72
183.92	47.53
184.141	48.26
184.363	38.98
184.584	28.34
184.805	23.98
185.026	20.15
185.247	-2.45
185.468	11.38
185.689	24.89
185.91	30.4
186.132	53.35
186.353	43.24
186.574	33.2
186.795	30.81
187.016	24.38
187.237	23.58
187.458	6.62
187.679	-3.8
187.9	30.38
188.121	45.35
188.342	42.01
188.563	52.38
188.784	33.68
189.005	32.85
189.226	34.03
189.447	14.14
189.667	20.48
189.888	29.59
190.109	21.67
190.33	23.02
190.551	27.92
190.772	18.46
190.993	26.7
191.214	18.15
191.434	20.82
191.655	16.94
191.876	28.26
192.097	39.22
192.318	46.4
192.538	51.1
192.759	56.24
192.98	36.7
193.201	59.5
193.421	55.1
193.642	43.62
193.863	29.99
194.083	25.66
194.304	11.02
194.525	30.89
194.745	-1.12
194.966	3.78
195.187	19.35
195.407	26.98
195.628	24.16
195.848	32.41
196.069	28.65
196.29	31.68
196.51	31.31
196.731	29.37
196.951	35.29
197.172	26.6
197.392	33.92
197.613	29.14
197.833	33.54
198.054	35.27
198.274	12.06
198.495	0.68
198.715	-0.5
198.936	-39.27
199.156	-20.43
199.377	-20.07
199.597	-45.01
199.817	-33.74
200.038	-13.51
200.258	-4.41
200.479	15.46
200.699	27.42
200.919	18.33
201.14	33.35
201.36	44.72
201.58	37.07
201.801	37.71
202.021	34.2
202.241	28.8
202.461	35.05
202.682	33.77
202.902	32.98
203.122	33.73
203.342	43.64
203.563	36.46
203.783	38.52
204.003	35.59
204.223	42.31
204.443	44
204.663	47.27
204.884	40.71
205.104	42.61
205.324	47.62
205.544	50.74
205.764	41.92
205.984	43.64
206.204	31.42
206.424	31.42
206.644	34.35
206.864	22.34
207.084	32.83
207.304	32.67
207.525	19.46
207.745	23.88
207.964	17.29
208.184	3.02
208.404	13.91
208.624	-4.12
208.844	-17.16
209.064	-4.92
209.284	-0.9
209.504	-6.08
209.724	-16.17
209.944	-22.68
210.164	-5.15
210.384	-6.01
210.604	-21.49
210.823	-25.41
211.043	-17.39
211.263	4.11
211.483	10.9
211.703	10.24
211.922	22.8
212.142	30.87
212.362	34.66
212.582	30.51
212.801	26.85
213.021	23.69
213.241	26.19
213.461	26.89
213.68	31.14
213.9	38.53
214.12	30.36
214.339	25.43
214.559	37.3
214.779	37.48
214.998	36.49
215.218	35.49
215.438	49.06
215.657	58.1
215.877	65.54
216.096	56.65
216.316	49.7
216.535	45.12
216.755	33.97
216.974	26.09
217.194	23.81
217.413	32.5
217.633	21.06
217.852	16.37
218.072	18.98
218.291	50.29
218.511	48.25
218.73	51.53
218.95	53.51
219.169	72.14
219.389	60.15
219.608	60.54
219.827	31.98
220.047	29.95
220.266	21.39
220.485	22.8
220.705	18.82
220.924	29.12
221.143	23.31
221.363	18.74
221.582	8.65
221.801	12.39
222.021	8.47
222.24	-6.56
222.459	-7.31
222.678	-13.06
222.897	-1.3
223.117	5.85
223.336	8.07
223.555	3.69
223.774	18.79
223.993	27.72
224.213	25.98
224.432	44.9
224.651	31.59
224.87	24.51
225.089	27.72
225.308	19.05
225.527	9.79
225.746	10.24
225.965	-5.65
226.184	8.07
226.404	9.47
226.623	21.17
226.842	20.61
227.061	19.85
227.28	26.69
227.499	37.42
227.718	26.75
227.936	26.4
228.155	21.94
228.374	19.59
228.593	23.8
228.812	15.22
229.031	5.34
229.25	24.04
229.469	29.53
229.688	33.25
229.907	41.73
230.125	36.56
230.344	39.59
230.563	55.75
230.782	46.18
231.001	53.26
231.22	46.5
231.438	43.28
231.657	47.99
231.876	47.02
232.095	35.27
232.313	45.79
232.532	41.06
232.751	53.6
232.969	57.08
233.188	54.68
233.407	60.04
233.625	61.37
233.844	53.43
234.063	44.84
234.281	31.83
234.5	26.64
234.719	32.46
234.937	36.54
235.156	29.99
235.374	22.45
235.593	31.58
235.811	39.61
236.03	48.12
236.249	43.93
236.467	47.69
236.686	52.83
236.904	57.31
237.123	47.75
237.341	36.06
237.559	31.24
237.778	31.57
237.996	20.48
238.215	16.85
238.433	22.05
238.652	23.66
238.87	32.99
239.088	33.54
239.307	32.8
239.525	26.23
239.743	21.86
239.962	24.19
240.18	29.46
240.398	30.61
240.617	38.96
240.835	35.44
241.053	48.15
241.271	59.93
241.49	46.64
241.708	38.37
241.926	20.9
242.144	14.41
242.363	18.52
242.581	13.14
242.799	6.53
243.017	17.3
243.235	7.01
243.453	15.87
243.672	24.39
243.89	20.96
244.108	33.84
244.326	26.24
244.544	29.28
244.762	45.22
244.98	44.95
245.198	28.26
245.416	29.7
245.634	24.68
245.852	29.1
246.07	25.25
246.288	23.6
246.506	35.79
246.724	54.98
246.942	64.53
247.16	63.95
247.378	52.26
247.596	54.63
247.814	44.71
248.032	38.17
248.25	31.05
248.468	20.98
248.685	20.63
248.903	33.94
249.121	27.64
249.339	31.6
249.557	35.07
249.775	25.9
249.992	23.36
250.21	14.93
250.428	12.7
250.646	22.46
250.863	20.21
251.081	10.86
251.299	28.81
251.517	41.89
251.734	46.68
251.952	56.71
252.17	38.75
252.387	47.41
252.605	49
252.823	31.02
253.04	15
253.258	13.69
253.475	-8.25
253.693	15.18
253.911	9.72
254.128	14.43
254.346	17.99
254.563	13.76
254.781	11.67
254.998	16.29
255.216	12.08
255.433	10.79
255.651	15.6
255.868	20.48
256.086	29.92
256.303	27.11
256.521	22.94
256.738	21.2
256.956	12.35
257.173	8.8
257.39	17.86
257.608	20.1
257.825	15.45
258.043	26.67
258.26	20.11
258.477	26.85
258.695	22.03
258.912	24.23
259.129	16.01
259.346	29.84
259.564	27.36
259.781	39.64
259.998	36.96
260.216	47.63
260.433	31.57
260.65	45.2
260.867	33.03
261.084	37.02
261.302	30.85
261.519	30.5
261.736	15.21
261.953	14.8
262.17	5.24
262.387	22.31
262.604	11
262.822	23
263.039	33.75
263.256	41.8
263.473	42.02
263.69	46.15
263.907	34.31
264.124	22.5
264.341	2.26
264.558	-0.99
264.775	-5.6
264.992	-5.22
265.209	10.7
265.426	16.58
265.643	28.29
265.86	41.4
266.077	43.24
266.294	41.47
266.51	37.88
266.727	12.92
266.944	-44.63
267.161	-62.31
267.378	-80.87
267.595	-82.05
267.812	-81.79
268.028	-62.91
268.245	-35.11
268.462	4.52
268.679	11.3
268.896	6.71
269.112	21.41
269.329	28.98
269.546	20.8
269.763	20.89
269.979	28.36
270.196	34.05
270.413	43.06
270.629	33.65
270.846	33.25
271.063	37.17
271.279	31.87
271.496	23.77
271.712	19.81
271.929	20.05
272.146	21.69
272.362	7.92
272.579	-0.03
272.795	5.26
273.012	12.11
273.228	8.22
273.445	10.77
273.661	6.82
273.878	15.47
274.094	28.4
274.311	28.23
274.527	34.64
274.744	33.63
274.96	32.23
275.177	40.98
275.393	48.19
275.609	45.9
275.826	41.72
276.042	45.41
276.259	43.19
276.475	37.96
276.691	31.7
276.908	18.29
277.124	10.64
277.34	18.51
277.557	16.4
277.773	20.57
277.989	15.76
278.205	13.44
278.422	24.51
278.638	25.96
278.854	5.37
279.07	-3.16
279.286	-1.12
279.503	1.66
279.719	10.87
279.935	0.7
280.151	10.3
280.367	23.54
280.583	20.05
280.799	17.78
281.016	17.3
281.232	7.25
281.448	4.1
281.664	-0.49
281.88	0.49
282.096	11.55
282.312	-6.62
282.528	-12.2
282.744	-4.55
282.96	11.35
283.176	8.86
283.392	17.53
283.608	11.69
283.824	21.03
284.04	30.26
284.256	33.74
284.471	30.36
284.687	27.44
284.903	19.3
285.119	7.47
285.335	16.63
285.551	14.77
285.767	13.68
285.982	6.07
286.198	13.15
286.414	22.7
286.63	36.21
286.846	37.47
287.061	32.96
287.277	29.02
287.493	34.9
287.709	30.94
287.924	25.5
288.14	14.77
288.356	19.3
288.571	17.01
288.787	24.44
289.003	25
289.218	22.12
289.434	24.78
289.65	28.88
289.865	28.53
290.081	26.16
290.296	23.03
290.512	24.95
290.727	35.84
290.943	25.67
291.159	21.89
291.374	20.45
291.59	24.06
291.805	24.88
292.021	14.18
292.236	6.66
292.451	14.09
292.667	22.31
292.882	16.7
293.098	20.38
293.313	18.96
293.529	22.45
293.744	23.15
293.959	28.36
294.175	26.57
294.39	37.37
294.605	29.11
294.821	29.97
295.036	35.89
295.251	30.17
295.467	29.37
295.682	27.17
295.897	25.07
296.112	30.38
296.328	38.68
296.543	31.22
296.758	25.81
296.973	34.06
297.188	27.38
297.404	19.09
297.619	16.27
297.834	13.57
298.049	13.86
298.264	22.01
298.479	-1.18
298.694	15.62
298.909	21.78
299.125	27.7
299.34	22.22
299.555	29.46
299.77	28.99
299.985	38.44
300.2	27.34
300.415	24.6
300.63	19.45
300.845	17.69
301.06	12.27
301.275	16
301.49	19.38
301.704	22.67
301.919	18.35
302.134	13.54
302.349	14.67
302.564	19.91
302.779	19.07
302.994	14.18
303.209	11.96
303.423	17.9
303.638	33.38
303.853	41.49
304.068	38.49
304.283	32.79
304.497	29.06
304.712	30.73
304.927	28.2
305.142	19.81
305.356	18.43
305.571	15.07
305.786	19.38
306	31.68
306.215	28.33
306.43	42.42
306.644	47.47
306.859	51.67
307.074	60.63
307.288	53.51
307.503	42.55
307.717	45.23
307.932	37.12
308.147	32.87
308.361	18.91
308.576	20.81
308.79	18.93
309.005	25.45
309.219	24.69
309.434	20.08
309.648	18.1
309.863	27.41
310.077	18.24
310.292	20.81
310.506	25.18
310.72	12.02
310.935	11.06
311.149	18.18
311.364	15.39
311.578	12.09
311.792	8.67
312.007	0.34
312.221	11.42
312.435	13.84
312.649	-28.33
312.864	-45.15
313.078	-43.31
313.292	-36.64
313.507	-32.82
313.721	-35.85
313.935	-16.27
314.149	21.56
314.363	29.95
314.578	45.6
314.792	40.83
315.006	40.02
315.22	43.53
315.434	32.23
315.648	26.28
315.862	32.12
316.077	27.42
316.291	32.66
316.505	31.95
316.719	11.15
316.933	10.55
317.147	12.32
317.361	6.03
317.575	5.87
317.789	7.81
318.003	12.02
318.217	24.75
318.431	31.47
318.645	38.07
318.859	35.8
319.073	32.29
319.287	32.99
319.5	30.67
319.714	27.38
319.928	29.6
320.142	22.64
320.356	32.59
320.57	28.18
320.784	29.83
320.997	29.22
321.211	31.33
321.425	19.39
321.639	25.42
321.853	18.27
322.066	19.62
322.28	14.52
322.494	7.21
322.707	5.38
322.921	12.22
323.135	18.07
323.349	14.02
323.562	20.49
323.776	19.61
323.989	31.65
324.203	36.71
324.417	33.29
324.63	21.76
324.844	22.09
325.057	16.4
325.271	17.51
325.485	13.58
325.698	5.02
325.912	11.58
326.125	7.16
326.339	17.16
326.552	21.1
326.766	27.71
326.979	25.86
327.193	23.75
327.406	16.94
327.619	18.16
327.833	2.26
328.046	-3.48
328.26	-10.44
328.473	-12.15
328.686	-2.18
328.9	-11.97
329.113	-1
329.326	11.17
329.54	24.78
329.753	21.85
329.966	22.34
330.179	31.76
330.393	36.58
330.606	36.82
330.819	44.65
331.032	31.23
331.246	37.36
331.459	30.33
331.672	26.24
331.885	26.17
332.098	24.28
332.311	-4.01
332.525	20.98
332.738	18.51
332.951	30.22
333.164	12.08
333.377	2.76
333.59	6.17
333.803	17.76
334.016	-9.1
334.229	-14.35
334.442	-8.08
334.655	8.69
334.868	26.8
335.081	26.04
335.294	28.92
335.507	33.52
335.72	31.21
335.933	25.07
336.146	28.73
336.359	23.99
336.572	21.08
336.785	24.9
336.997	24.94
337.21	29.72
337.423	26.45
337.636	23.33
337.849	22
338.062	26.42
338.274	19.12
338.487	10.93
338.7	12.32
338.913	15.05
339.125	13.09
339.338	17.08
339.551	17.92
339.763	21.39
339.976	24.19
340.189	20.49
340.402	19.42
340.614	27.08
340.827	18.34
341.039	13.15
341.252	12.6
341.465	9.08
341.677	11.26
341.89	10.23
342.102	6.61
342.315	25.78
342.527	26.64
342.74	24.96
342.952	36.19
343.165	44.63
343.377	47.77
343.59	50.2
343.802	37.1
344.015	32.67
344.227	29.41
344.44	22.34
344.652	17.96
344.864	16.98
345.077	3.3
345.289	3.39
345.502	7.81
345.714	-0.78
345.926	-3.7
346.139	-0.66
346.351	-15.22
346.563	-10.57
346.775	-11.06
346.988	-12.56
347.2	3.59
347.412	5.43
347.624	0.95
347.837	5.95
348.049	8.05
348.261	10.96
348.473	7.35
348.685	3.24
348.897	2.34
349.11	1.43
349.322	7.28
349.534	3.64
349.746	10.82
349.958	17.02
350.17	17.9
350.382	14.01
350.594	10.55
350.806	13.99
351.018	21.51
351.23	15.35
351.442	18.36
351.654	24.45
351.866	27.35
352.078	28.64
352.29	25.65
352.502	19.78
352.714	23.53
352.926	15.77
353.138	11.49
353.35	8.82
353.561	14.61
353.773	14.09
353.985	17.03
354.197	12.34
354.409	19.82
354.621	27.3
354.832	29.98
355.044	29.07
355.256	26.35
355.468	28.42
355.679	34.67
355.891	30.1
356.103	24.04
356.314	26.2
356.526	18.81
356.738	16.73
356.949	19.03
357.161	12.32
357.373	11.81
357.584	14.22
357.796	6.64
358.008	16.07
358.219	32.11
358.431	28.48
358.642	29
358.854	30.35
359.065	28.04
359.277	31
359.488	28.46
359.7	21.16
359.911	18.66
360.123	19.65
360.334	16.09
360.546	8.38
360.757	10.37
360.969	13.86
361.18	10.11
361.391	14.38
361.603	22.82
361.814	24.91
362.025	27.97
362.237	32.09
362.448	33.44
362.659	29.88
362.871	35.06
363.082	29.57
363.293	33.61
363.504	33.53
363.716	31.15
363.927	31.26
364.138	36.59
364.349	33.81
364.56	27.96
364.772	24.06
364.983	20.98
365.194	22.81
365.405	20.37
365.616	12.25
365.827	12.04
366.038	24.09
366.25	29.72
366.461	35.64
366.672	36.9
366.883	39.21
367.094	36.24
367.305	32.11
367.516	27.67
367.727	15.8
367.938	19.13
368.149	19.44
368.36	21.33
368.571	25.39
368.781	21.99
368.992	20.77
369.203	24.23
369.414	18.92
369.625	8.21
369.836	-0.45
370.047	-2.86
370.258	-5.35
370.468	-6.2
370.679	0.79
370.89	4.08
371.101	8.6
371.312	9.51
371.522	16.85
371.733	15.7
371.944	14.38
372.155	1.33
372.365	0.81
372.576	4.66
372.787	7.01
372.997	2.89
373.208	9.82
373.419	5.26
373.629	12.32
373.84	9.31
374.05	5.81
374.261	1.74
374.472	-5.85
374.682	-7.42
374.893	-1.1
375.103	7.77
375.314	7.23
375.524	-0.3
375.735	3.51
375.945	8.37
376.156	14.77
376.366	15.81
376.577	14.38
376.787	21.97
376.997	32.25
377.208	34.55
377.418	39.33
377.629	35.17
377.839	33.66
378.049	33.18
378.26	33.92
378.47	30.65
378.68	25.42
378.89	18.6
379.101	9.11
379.311	5.47
379.521	5.53
379.732	-0.58
379.942	4.05
380.152	12.98
380.362	15.78
380.572	26.92
380.783	29.36
380.993	26.97
381.203	22.49
381.413	23.25
381.623	17.2
381.833	16.21
382.043	8.59
382.253	10.39
382.463	13.72
382.674	17.37
382.884	13.57
383.094	13.77
383.304	11.72
383.514	11.34
383.724	8.49
383.934	7.32
384.144	10.51
384.353	13.85
384.563	11.17
384.773	12.03
384.983	16.96
385.193	19.59
385.403	18.92
385.613	12.85
385.823	8.37
386.033	11.84
386.242	14.2
386.452	11.29
386.662	10.48
386.872	5.37
387.082	9.27
387.291	11.21
387.501	10.94
387.711	7.17
387.921	3.98
388.13	1.58
388.34	1.74
388.55	0.85
388.759	-1.61
388.969	-4.77
389.179	-0.94
389.388	-0.2
389.598	-0.49
389.807	0.32
390.017	1.2
390.227	3.01
390.436	6.29
390.646	6.13
390.855	8.17
391.065	8.98
391.274	9.76
391.484	8.52
391.693	7.58
391.903	6.34
392.112	4.74
392.322	6.01
392.531	5.81
392.74	4.96
392.95	4.7
393.159	4.9
393.369	4.25
393.578	4.96
393.787	4.07
393.997	5.22
394.206	5.14
394.415	5.11
394.625	4.15
394.834	3.61
395.043	3.6
395.252	3.95
395.462	3.44
395.671	4.23
395.88	4.69
396.089	5.33
396.298	6.13
396.508	5.59
396.717	4.95
396.926	4.56
397.135	3.98
397.344	3.56
397.553	3.91
397.762	3.63
397.971	3.66
398.181	3.5
398.39	3.71
398.599	3.65
398.808	3.91
399.017	3.89
399.226	4.11
399.435	4.02
399.644	4.06
399.853	3.88
400.062	3.87
400.27	3.78
400.479	3.57
400.688	3.66
400.897	3.75
401.106	3.93
401.315	3.93
401.524	3.98
401.733	4.07
401.941	4.05
402.15	3.65
402.359	3.7
402.568	3.53
402.777	3.47
402.985	3.5
403.194	3.41
403.403	3.18
403.612	3.28
403.82	3.31
404.029	3.34
404.238	3.37
404.446	3.28
404.655	3.16
404.864	3.31
405.072	3.29
405.281	3.2
405.489	3.24
405.698	3.15
405.906	3.13
406.115	3.25
406.324	3.18
406.532	3.16
406.741	3.21
406.949	3.09
407.158	3.2
407.366	3.28
407.574	3.33
407.783	3.27
407.991	3.14
408.2	3.09
408.408	3.16
408.617	3.06
408.825	3.03
409.033	2.93
409.242	2.95
409.45	3.07
409.658	3.03
409.867	2.97
410.075	2.96
410.283	2.9
410.491	2.86
410.7	2.86
410.908	2.81
411.116	2.75
411.324	2.72
411.533	2.7
411.741	2.71
411.949	2.74
412.157	2.82
412.365	2.81
412.573	2.88
412.781	2.93
412.99	2.99
413.198	2.95
413.406	2.91
413.614	2.82
413.822	2.79
414.03	2.7
414.238	2.72
414.446	2.65
414.654	2.67
414.862	2.65
415.07	2.75
415.278	2.75
415.486	2.87
415.694	2.74
415.902	2.74
416.109	2.8
416.317	2.82
416.525	2.79
416.733	2.88
416.941	2.7
417.149	2.88
417.357	2.96
417.564	2.87
417.772	2.85
417.98	2.8
418.188	2.67
418.395	2.78
418.603	2.61
418.811	2.44
419.019	2.49
419.226	2.53
419.434	2.45
419.642	2.49
419.849	2.48
420.057	2.52
420.265	2.61
420.472	2.57
420.68	2.48
420.887	2.52
421.095	2.54
421.302	2.6
421.51	2.64
421.717	2.66
421.925	2.59
422.132	2.59
422.34	2.5
422.547	2.52
422.755	2.46
422.962	2.39
423.17	2.3
423.377	2.42
423.585	2.46
423.792	2.54
423.999	2.47
424.207	2.41
424.414	2.52
424.621	2.54
424.829	2.46
425.036	2.41
425.243	2.49
425.451	2.47
425.658	2.52
425.865	2.33
426.072	2.38
426.28	2.43
426.487	2.43
426.694	2.28
426.901	2.31
427.108	2.38
427.315	2.44
427.523	2.37
427.73	2.4
427.937	2.47
428.144	2.49
428.351	2.56
428.558	2.33
428.765	2.26
428.972	2.24
429.179	2.09
429.386	2.14
429.593	2.13
429.8	2.11
430.007	2.28
430.214	2.31
430.421	2.36
430.628	2.35
430.835	2.28
431.042	2.33
431.249	2.28
431.456	2.34
431.662	2.38
431.869	2.44
432.076	2.51
432.283	2.46
432.49	2.45
432.697	2.48
432.903	2.51
433.11	2.57
433.317	2.6
433.524	2.6
433.73	2.68
433.937	2.68
434.144	2.76
434.35	2.69
434.557	2.61
434.764	2.56
434.97	2.63
435.177	2.67
435.384	2.69
435.59	2.67
435.797	2.72
436.003	2.73
436.21	2.68
436.416	2.63
436.623	2.64
436.829	2.59
437.036	2.56
437.242	2.55
437.449	2.61
437.655	2.68
437.862	2.72
438.068	2.71
438.275	2.75
438.481	2.87
438.687	2.93
438.894	2.89
439.1	2.91
439.307	2.89
439.513	2.87
439.719	2.94
439.926	2.89
440.132	2.86
440.338	2.95
440.544	2.91
440.751	2.89
440.957	2.88
441.163	2.87
441.369	2.89
441.575	2.88
441.782	2.87
441.988	2.89
442.194	2.99
442.4	3.05
442.606	3.04
442.812	3.07
443.018	3.06
443.224	3.05
443.431	3.07
443.637	3.02
443.843	3.05
444.049	3.01
444.255	2.95
444.461	2.95
444.667	2.94
444.873	2.96
445.079	2.99
445.284	2.93
445.49	2.95
445.696	2.97
445.902	3.04
446.108	3.06
446.314	3.09
446.52	3.16
446.726	3.23
446.931	3.26
447.137	3.26
447.343	3.25
447.549	3.22
447.755	3.19
447.96	3.13
448.166	3.18
448.372	3.15
448.578	3.2
448.783	3.16
448.989	3.23
449.195	3.26
449.4	3.28
449.606	3.2
449.812	3.24
450.017	3.25
450.223	3.32
450.428	3.3
450.634	3.31
450.84	3.29
451.045	3.32
451.251	3.36
451.456	3.34
451.662	3.3
451.867	3.33
452.073	3.31
452.278	3.31
452.483	3.29
452.689	3.3
452.894	3.31
453.1	3.26
453.305	3.25
453.51	3.29
453.716	3.32
453.921	3.37
454.127	3.36
454.332	3.39
454.537	3.53
454.742	3.5
454.948	3.49
455.153	3.5
455.358	3.47
455.563	3.48
455.769	3.41
455.974	3.38
456.179	3.35
456.384	3.33
456.589	3.36
456.795	3.34
457	3.34
457.205	3.3
457.41	3.32
457.615	3.42
457.82	3.46
458.025	3.46
458.23	3.48
458.435	3.46
458.64	3.54
458.845	3.48
459.05	3.42
459.255	3.41
459.46	3.39
459.665	3.43
459.87	3.45
460.075	3.47
460.28	3.52
460.485	3.57
460.69	3.54
460.895	3.51
461.099	3.51
461.304	3.55
461.509	3.45
461.714	3.45
461.919	3.45
462.123	3.5
462.328	3.57
462.533	3.57
462.738	3.55
462.942	3.62
463.147	3.57
463.352	3.63
463.556	3.65
463.761	3.64
463.966	3.65
464.17	3.67
464.375	3.69
464.58	3.7
464.784	3.65
464.989	3.63
465.193	3.6
465.398	3.62
465.602	3.62
465.807	3.64
466.011	3.68
466.216	3.72
466.42	3.78
466.625	3.86
466.829	3.91
467.034	3.89
467.238	3.93
467.443	3.97
467.647	4.01
467.851	3.99
468.056	3.94
468.26	3.91
468.464	3.97
468.669	3.97
468.873	3.93
469.077	3.91
469.282	3.95
469.486	3.99
469.69	4.01
469.894	4.05
470.099	4.08
470.303	4.1
470.507	4.13
470.711	4.11
470.915	4.12
471.119	4.11
471.324	4.06
471.528	4.08
471.732	4.09
471.936	4.11
472.14	4.18
472.344	4.2
472.548	4.28
472.752	4.34
472.956	4.4
473.16	4.44
473.364	4.41
473.568	4.41
473.772	4.46
473.976	4.44
474.18	4.47
474.384	4.4
474.588	4.42
474.792	4.44
474.995	4.41
475.199	4.4
475.403	4.39
475.607	4.4
475.811	4.48
476.015	4.51
476.218	4.51
476.422	4.59
476.626	4.61
476.83	4.67
477.033	4.73
477.237	4.7
477.441	4.74
477.644	4.83
477.848	4.81
478.052	4.83
478.255	4.85
478.459	4.84
478.663	4.87
478.866	4.89
479.07	4.92
479.273	4.88
479.477	4.96
479.681	4.93
479.884	4.89
480.088	4.91
480.291	4.89
480.495	4.87
480.698	4.91
480.901	4.87
481.105	4.93
481.308	4.97
481.512	5
481.715	5.01
481.919	5.01
482.122	5.04
482.325	5.08
482.529	5.1
482.732	5.12
482.935	5.11
483.138	5.1
483.342	5.15
483.545	5.16
483.748	5.19
483.952	5.19
484.155	5.24
484.358	5.25
484.561	5.31
484.764	5.31
484.967	5.35
485.171	5.31
485.374	5.32
485.577	5.3
485.78	5.32
485.983	5.33
486.186	5.34
486.389	5.31
486.592	5.34
486.795	5.31
486.998	5.29
487.201	5.31
487.404	5.36
487.607	5.31
487.81	5.33
488.013	5.33
488.216	5.35
488.419	5.38
488.622	5.37
488.825	5.31
489.028	5.34
489.231	5.34
489.433	5.31
489.636	5.33
489.839	5.34
490.042	5.37
490.245	5.4
490.447	5.39
490.65	5.42
490.853	5.45
491.056	5.43
491.258	5.44
491.461	5.4
491.664	5.37
491.866	5.44
492.069	5.43
492.272	5.42
492.474	5.41
492.677	5.41
492.879	5.43
493.082	5.46
493.285	5.45
493.487	5.45
493.69	5.47
493.892	5.53
494.095	5.5
494.297	5.51
494.5	5.53
494.702	5.54
494.905	5.55
495.107	5.57
495.309	5.52
495.512	5.56
495.714	5.57
495.917	5.57
496.119	5.57
496.321	5.58
496.524	5.58
496.726	5.61
496.928	5.65
497.13	5.68
497.333	5.73
497.535	5.75
497.737	5.77
497.939	5.79
498.142	5.82
498.344	5.82
498.546	5.89
498.748	5.86
498.95	5.86
499.152	5.85
499.355	5.85
499.557	5.88
499.759	5.91
499.961	5.89
500.163	5.92
500.365	5.94
500.567	5.99
500.769	6.01
500.971	6.01
501.173	6.02
501.375	6.02
501.577	6.02
501.779	6.06
501.981	6.1
502.183	6.14
502.385	6.15
502.587	6.15
502.788	6.16
502.99	6.18
503.192	6.21
503.394	6.22
503.596	6.24
503.798	6.32
503.999	6.34
504.201	6.38
504.403	6.4
504.605	6.42
504.806	6.45
505.008	6.47
505.21	6.46
505.411	6.52
505.613	6.52
505.815	6.55
506.016	6.57
506.218	6.54
506.42	6.58
506.621	6.59
506.823	6.61
507.024	6.66
507.226	6.67
507.427	6.63
507.629	6.67
507.83	6.65
508.032	6.7
508.233	6.74
508.435	6.76
508.636	6.79
508.838	6.86
509.039	6.85
509.24	6.89
509.442	6.85
509.643	6.8
509.845	6.75
510.046	6.75
510.247	6.78
510.448	6.82
510.65	6.83
510.851	6.9
511.052	6.97
511.254	7
511.455	7.02
511.656	7.01
511.857	7.05
512.058	7.09
512.26	7.07
512.461	7.09
512.662	7.14
512.863	7.18
513.064	7.19
513.265	7.22
513.466	7.25
513.667	7.28
513.868	7.26
514.069	7.28
514.27	7.29
514.471	7.31
514.672	7.29
514.873	7.3
515.074	7.31
515.275	7.32
515.476	7.36
515.677	7.39
515.878	7.45
516.079	7.54
516.28	7.53
516.481	7.52
516.682	7.57
516.882	7.55
517.083	7.56
517.284	7.51
517.485	7.49
517.686	7.51
517.886	7.58
518.087	7.58
518.288	7.62
518.488	7.64
518.689	7.66
518.89	7.71
519.091	7.74
519.291	7.74
519.492	7.74
519.692	7.79
519.893	7.78
520.094	7.83
520.294	7.78
520.495	7.81
520.695	7.82
520.896	7.83
521.096	7.8
521.297	7.81
521.497	7.79
521.698	7.85
521.898	7.83
522.099	7.83
522.299	7.86
522.499	7.88
522.7	7.92
522.9	7.94
523.101	7.94
523.301	7.97
523.501	8.01
523.702	8.04
523.902	8.06
524.102	8.07
524.302	8.13
524.503	8.14
524.703	8.15
524.903	8.19
525.103	8.21
525.304	8.23
525.504	8.22
525.704	8.19
525.904	8.23
526.104	8.26
526.304	8.25
526.504	8.22
526.705	8.23
526.905	8.27
527.105	8.28
527.305	8.26
527.505	8.27
527.705	8.28
527.905	8.34
528.105	8.37
528.305	8.4
528.505	8.45
528.705	8.5
528.905	8.5
529.105	8.51
529.304	8.53
529.504	8.53
529.704	8.55
529.904	8.56
530.104	8.55
530.304	8.58
530.503	8.63
530.703	8.68
530.903	8.73
531.103	8.73
531.303	8.77
531.502	8.79
531.702	8.82
531.902	8.82
532.101	8.81
532.301	8.79
532.501	8.82
532.7	8.83
532.9	8.87
533.1	8.88
533.299	8.96
533.499	8.99
533.698	9.05
533.898	9.05
534.097	9.04
534.297	9.07
534.496	9.08
534.696	9.04
534.895	9.08
535.095	9.09
535.294	9.1
535.494	9.14
535.693	9.19
535.892	9.23
536.092	9.29
536.291	9.31
536.491	9.29
536.69	9.35
536.889	9.37
537.088	9.37
537.288	9.4
537.487	9.42
537.686	9.46
537.886	9.52
538.085	9.57
538.284	9.62
538.483	9.68
538.682	9.71
538.882	9.73
539.081	9.78
539.28	9.8
539.479	9.82
539.678	9.87
539.877	9.86
540.076	9.86
540.275	9.91
540.474	9.89
540.673	9.94
540.872	9.95
541.071	9.97
541.27	9.99
541.469	10.07
541.668	10.13
541.867	10.17
542.066	10.22
542.265	10.31
542.464	10.36
542.663	10.46
542.862	10.53
543.06	10.6
543.259	10.66
543.458	10.69
543.657	10.69
543.856	10.72
544.054	10.74
544.253	10.75
544.452	10.72
544.651	10.77
544.849	10.82
545.048	10.91
545.247	10.92
545.445	10.93
545.644	10.98
545.843	11.07
546.041	11.07
546.24	11.13
546.438	11.18
546.637	11.29
546.836	11.35
547.034	11.42
547.233	11.46
547.431	11.54
547.63	11.58
547.828	11.64
548.027	11.66
548.225	11.75
548.423	11.79
548.622	11.88
548.82	11.96
549.019	12.02
549.217	12.08
549.415	12.18
549.614	12.22
549.812	12.29
550.01	12.33
550.209	12.42
550.407	12.51
550.605	12.56
550.803	12.61
551.002	12.67
551.2	12.75
551.398	12.83
551.596	12.88
551.794	12.95
551.993	12.99
552.191	13.12
552.389	13.22
552.587	13.26
552.785	13.34
552.983	13.41
553.181	13.46
553.379	13.57
553.577	13.6
553.775	13.71
553.973	13.82
554.171	13.89
554.369	14
554.567	14.09
554.765	14.15
554.963	14.23
555.161	14.3
555.359	14.39
555.557	14.46
555.755	14.57
555.952	14.65
556.15	14.74
556.348	14.85
556.546	14.94
556.744	15
556.941	15.11
557.139	15.18
557.337	15.24
557.535	15.36
557.732	15.46
557.93	15.52
558.128	15.62
558.325	15.71
558.523	15.8
558.721	15.96
558.918	16.02
559.116	16.09
559.313	16.24
559.511	16.35
559.708	16.46
559.906	16.56
560.104	16.69
560.301	16.77
560.498	16.89
560.696	16.95
560.893	17.05
561.091	17.12
561.288	17.23
561.486	17.32
561.683	17.45
561.88	17.58
562.078	17.66
562.275	17.77
562.473	17.86
562.67	17.93
562.867	17.99
563.064	18.12
563.262	18.24
563.459	18.42
563.656	18.62
563.853	18.76
564.051	18.86
564.248	19.01
564.445	19.09
564.642	19.15
564.839	19.25
565.036	19.26
565.234	19.35
565.431	19.49
565.628	19.66
565.825	19.77
566.022	19.87
566.219	19.93
566.416	20.05
566.613	20.18
566.81	20.28
567.007	20.32
567.204	20.4
567.401	20.53
567.598	20.65
567.795	20.74
567.991	20.79
568.188	20.94
568.385	21.06
568.582	21.2
568.779	21.25
568.976	21.37
569.172	21.5
569.369	21.58
569.566	21.56
569.763	21.65
569.96	21.67
570.156	21.71
570.353	21.78
570.55	21.81
570.746	21.87
570.943	22.03
571.14	22.05
571.336	22.11
571.533	22.22
571.729	22.25
571.926	22.27
572.123	22.33
572.319	22.39
572.516	22.43
572.712	22.54
572.909	22.66
573.105	22.77
573.302	22.83
573.498	22.88
573.695	22.87
573.891	22.92
574.087	22.92
574.284	22.89
574.48	22.89
574.677	22.93
574.873	23.04
575.069	23.16
575.266	23.22
575.462	23.29
575.658	23.39
575.854	23.41
576.051	23.47
576.247	23.44
576.443	23.45
576.639	23.46
576.835	23.48
577.032	23.46
577.228	23.45
577.424	23.5
577.62	23.56
577.816	23.56
578.012	23.6
578.208	23.63
578.404	23.7
578.6	23.78
578.796	23.8
578.993	23.84
579.189	23.87
579.384	23.86
579.58	23.9
579.776	23.9
579.972	23.91
580.168	23.91
580.364	23.87
580.56	23.87
580.756	23.87
580.952	23.85
581.148	23.85
581.343	23.84
581.539	23.8
581.735	23.81
581.931	23.83
582.127	23.84
582.322	23.84
582.518	23.83
582.714	23.82
582.909	23.87
583.105	23.82
583.301	23.74
583.496	23.75
583.692	23.76
583.888	23.75
584.083	23.81
584.279	23.81
584.474	23.84
584.67	23.89
584.866	23.9
585.061	23.9
585.257	23.97
585.452	23.9
585.648	23.88
585.843	23.91
586.039	23.93
586.234	23.94
586.429	23.91
586.625	23.87
586.82	23.87
587.015	23.89
587.211	23.89
587.406	23.92
587.601	23.93
587.797	23.95
587.992	23.97
588.187	24.06
588.383	24.06
588.578	24.04
588.773	23.99
588.968	24.05
589.163	24.08
589.359	24.08
589.554	24.05
589.749	24.07
589.944	24.16
590.139	24.26
590.334	24.27
590.529	24.36
590.724	24.38
590.919	24.49
591.114	24.57
591.309	24.61
591.504	24.6
591.699	24.63
591.894	24.64
592.089	24.69
592.284	24.68
592.479	24.68
592.674	24.72
592.869	24.78
593.064	24.92
593.259	24.97
593.454	25.03
593.648	25.05
593.843	25.13
594.038	25.21
594.233	25.32
594.428	25.32
594.622	25.41
594.817	25.49
595.012	25.6
595.206	25.71
595.401	25.77
595.596	25.86
595.79	25.88
595.985	25.93
596.18	26.03
596.374	26.12
596.569	26.21
596.763	26.29
596.958	26.35
597.153	26.47
597.347	26.61
597.542	26.64
597.736	26.7
597.931	26.76
598.125	26.86
598.319	26.88
598.514	26.96
598.708	27.02
598.903	27.16
599.097	27.24
599.291	27.33
599.486	27.41
599.68	27.52
599.874	27.61
600.069	27.61
600.263	27.61
600.457	27.66
600.651	27.72
600.846	27.7
601.04	27.77
601.234	27.78
601.428	27.83
601.622	27.92
601.817	28.01
602.011	28.03
602.205	28.11
602.399	28.13
602.593	28.16
602.787	28.14
602.981	28.16
603.175	28.11
603.369	28.12
603.563	28.1
603.757	28.06
603.951	28.07
604.145	28.12
604.339	28.05
604.533	28.03
604.727	27.97
604.921	27.96
605.115	27.93
605.309	27.92
605.502	27.92
605.696	27.87
605.89	27.94
606.084	27.94
606.278	27.95
606.471	27.91
606.665	27.86
606.859	27.76
607.053	27.77
607.246	27.65
607.44	27.58
607.634	27.45
607.827	27.41
608.021	27.27
608.214	27.25
608.408	27.18
608.602	27.13
608.795	27.03
608.989	27.02
609.182	26.98
609.376	26.96
609.569	26.89
609.763	26.86
609.956	26.74
610.15	26.69
610.343	26.61
610.537	26.53
610.73	26.51
610.923	26.44
611.117	26.3
611.31	26.27
611.504	26.23
611.697	26.15
611.89	26.07
612.083	25.94
612.277	25.8
612.47	25.75
612.663	25.67
612.856	25.57
613.05	25.48
613.243	25.43
613.436	25.31
613.629	25.34
613.822	25.31
614.015	25.2
614.209	25.12
614.402	25.09
614.595	24.97
614.788	24.91
614.981	24.8
615.174	24.64
615.367	24.59
615.56	24.5
615.753	24.38
615.946	24.32
616.139	24.28
616.332	24.26
616.525	24.29
616.718	24.22
616.911	24.17
617.103	24.13
617.296	24.09
617.489	24.08
617.682	24
617.875	23.9
618.067	23.85
618.26	23.83
618.453	23.77
618.646	23.73
618.838	23.65
619.031	23.6
619.224	23.58
619.417	23.5
619.609	23.43
619.802	23.41
619.994	23.36
620.187	23.35
620.38	23.31
620.572	23.27
620.765	23.26
620.957	23.2
621.15	23.16
621.342	23.15
621.535	23.14
621.727	23.08
621.92	23.03
622.112	23.02
622.305	23.02
622.497	22.99
622.69	22.95
622.882	22.91
623.074	22.9
623.267	22.84
623.459	22.83
623.651	22.86
623.844	22.85
624.036	22.81
624.228	22.75
624.42	22.75
624.613	22.73
624.805	22.67
624.997	22.59
625.189	22.54
625.381	22.52
625.574	22.49
625.766	22.44
625.958	22.5
626.15	22.53
626.342	22.46
626.534	22.43
626.726	22.47
626.918	22.45
627.11	22.43
627.302	22.4
627.494	22.35
627.686	22.35
627.878	22.32
628.07	22.24
628.262	22.16
628.454	22.16
628.646	22.09
628.838	22.05
629.029	21.98
629.221	21.95
629.413	21.93
629.605	21.94
629.797	21.91
629.989	21.83
630.18	21.74
630.372	21.73
630.564	21.75
630.755	21.65
630.947	21.58
631.139	21.45
631.33	21.46
631.522	21.47
631.714	21.46
631.905	21.36
632.097	21.37
632.289	21.31
632.48	21.32
632.672	21.27
632.863	21.22
633.055	21.24
633.246	21.24
633.438	21.25
633.629	21.31
633.821	21.33
634.012	21.33
634.203	21.37
634.395	21.34
634.586	21.36
634.777	21.3
634.969	21.24
635.16	21.22
635.351	21.15
635.543	21.14
635.734	21.11
635.925	21.07
636.117	21.12
636.308	21.07
636.499	21.05
636.69	21.15
636.881	21.13
637.073	21.1
637.264	21.05
637.455	21
637.646	21.05
637.837	21.08
638.028	21.06
638.219	21.04
638.41	21.06
638.601	21.11
638.792	21.09
638.983	21.02
639.174	20.97
639.365	20.91
639.556	20.87
639.747	20.86
639.938	20.84
640.129	20.8
640.32	20.8
640.511	20.77
640.701	20.72
640.892	20.74
641.083	20.7
641.274	20.65
641.465	20.65
641.655	20.7
641.846	20.66
642.037	20.68
642.228	20.64
642.418	20.58
642.609	20.53
642.8	20.55
642.99	20.47
643.181	20.49
643.372	20.49
643.562	20.46
643.753	20.49
643.943	20.54
644.134	20.48
644.324	20.51
644.515	20.46
644.705	20.44
644.896	20.36
645.086	20.28
645.277	20.27
645.467	20.27
645.658	20.22
645.848	20.22
646.038	20.17
646.229	20.2
646.419	20.24
646.61	20.15
646.8	20.1
646.99	20.07
647.18	20.05
647.371	20.06
647.561	20
647.751	19.94
647.941	19.9
648.132	19.92
648.322	19.96
648.512	19.94
648.702	19.91
648.892	19.97
649.082	19.96
649.272	19.94
649.462	19.92
649.653	19.85
649.843	19.81
650.033	19.76
650.223	19.71
650.413	19.71
650.603	19.74
650.793	19.6
650.983	19.59
651.172	19.54
651.362	19.46
651.552	19.43
651.742	19.33
651.932	19.23
652.122	19.2
652.312	19.07
652.502	18.98
652.691	18.93
652.881	18.85
653.071	18.73
653.261	18.65
653.45	18.57
653.64	18.53
653.83	18.44
654.019	18.24
654.209	18.1
654.399	18.01
654.588	17.88
654.778	17.75
654.968	17.56
655.157	17.39
655.347	17.27
655.536	17.12
655.726	16.97
655.915	16.8
656.105	16.67
656.294	16.55
656.484	16.43
656.673	16.32
656.863	16.16
657.052	15.95
657.241	15.81
657.431	15.61
657.62	15.39
657.809	15.19
657.999	15.04
658.188	14.84
658.377	14.72
658.567	14.47
658.756	14.29
658.945	14.12
659.134	13.91
659.324	13.71
659.513	13.5
659.702	13.31
659.891	13.17
660.08	13.02
660.269	12.82
660.458	12.65
660.648	12.51
660.837	12.42
661.026	12.24
661.215	12.09
661.404	11.89
661.593	11.75
661.782	11.6
661.971	11.44
662.16	11.18
662.349	11.03
662.538	10.89
662.726	10.73
662.915	10.61
663.104	10.38
663.293	10.23
663.482	10.14
663.671	10.01
663.86	9.85
664.048	9.71
664.237	9.6
664.426	9.54
664.615	9.42
664.803	9.27
664.992	9.2
665.181	9.1
665.369	8.99
665.558	8.82
665.747	8.81
665.935	8.75
666.124	8.71
666.312	8.57
666.501	8.49
666.69	8.45
666.878	8.4
667.067	8.28
667.255	8.18
667.444	8.17
667.632	8.09
667.82	8
668.009	7.98
668.197	7.94
668.386	7.87
668.574	7.82
668.762	7.73
668.951	7.71
669.139	7.75
669.327	7.68
669.516	7.7
669.704	7.71
669.892	7.66
670.08	7.61
670.269	7.61
670.457	7.55
670.645	7.58
670.833	7.57
671.021	7.58
671.21	7.65
671.398	7.68
671.586	7.72
671.774	7.7
671.962	7.67
672.15	7.66
672.338	7.64
672.526	7.65
672.714	7.68
672.902	7.71
673.09	7.84
673.278	7.89
673.466	8
673.654	8.05
673.842	8.08
674.03	8.12
674.218	8.13
674.405	8.11
674.593	8.15
674.781	8.19
674.969	8.28
675.157	8.33
675.344	8.39
675.532	8.47
675.72	8.52
675.908	8.57
676.095	8.66
676.283	8.69
676.471	8.76
676.658	8.83
676.846	8.9
677.033	9.02
677.221	9.16
677.409	9.16
677.596	9.3
677.784	9.43
677.971	9.57
678.159	9.7
678.346	9.78
678.534	9.8
678.721	9.95
678.909	10.01
679.096	10.1
679.283	10.14
679.471	10.2
679.658	10.3
679.846	10.5
680.033	10.63
680.22	10.71
680.408	10.9
680.595	11
680.782	11.13
680.969	11.25
681.157	11.35
681.344	11.48
681.531	11.62
681.718	11.66
681.905	11.89
682.093	12.11
682.28	12.34
682.467	12.45
682.654	12.53
682.841	12.8
683.028	13.07
683.215	13.27
683.402	13.36
683.589	13.53
683.776	13.79
683.963	14.09
684.15	14.28
684.337	14.48
684.524	14.79
684.711	15.09
684.898	15.31
685.085	15.65
685.271	15.9
685.458	16.17
685.645	16.48
685.832	16.76
686.019	17.1
686.205	17.57
686.392	17.83
686.579	18.18
686.766	18.65
686.952	19.06
687.139	19.47
687.326	19.91
687.512	20.29
687.699	20.75
687.886	21.18
688.072	21.64
688.259	22.09
688.445	22.52
688.632	23.07
688.818	23.49
689.005	24.22
689.191	24.83
689.378	25.34
689.564	25.9
689.751	26.52
689.937	27.03
690.124	27.78
690.31	28.16
690.496	28.78
690.683	29.44
690.869	30.05
691.055	30.77
691.242	31.39
691.428	31.99
691.614	32.67
691.8	33.42
691.987	34.11
692.173	34.83
692.359	35.56
692.545	36.26
692.731	36.99
692.918	37.74
693.104	38.34
693.29	39.05
693.476	39.65
693.662	40.25
693.848	40.96
694.034	41.45
694.22	42.08
694.406	42.72
694.592	43.27
694.778	44.06
694.964	44.67
695.15	45.19
695.336	46.21
695.522	47.01
695.708	47.65
695.894	48.44
696.08	49.02
696.265	49.75
696.451	50.66
696.637	51.16
696.823	51.8
697.009	52.55
697.194	53.28
697.38	53.86
697.566	54.45
697.751	55.03
697.937	55.68
698.123	56.08
698.308	56.45
698.494	56.9
698.68	57.66
698.865	58.3
699.051	58.88
699.236	59.43
699.422	60.16
699.607	60.87
699.793	61.31
699.978	61.63
700.164	62.2
700.349	62.67
700.535	63.13
700.72	63.48
700.906	63.94
701.091	64.58
701.276	65.12
701.462	65.35
701.647	65.63
701.832	65.93
702.018	66.37
702.203	66.87
702.388	67.09
702.573	67.47
702.759	68.04
702.944	68.68
703.129	69.07
703.314	69.52
703.499	69.82
703.684	70.12
703.87	70.53
704.055	70.79
704.24	71.05
704.425	71.59
704.61	71.7
704.795	71.98
704.98	72.41
705.165	72.6
705.35	72.79
705.535	73.08
705.72	73.23
705.905	73.64
706.09	73.79
706.275	73.95
706.459	74.45
706.644	74.78
706.829	74.82
707.014	74.87
707.199	74.91
707.384	75.27
707.568	75.59
707.753	75.69
707.938	75.81
708.123	75.96
708.307	76.49
708.492	76.66
708.677	77.01
708.861	77.11
709.046	77.13
709.231	77.42
709.415	77.9
709.6	77.97
709.784	78.46
709.969	78.55
710.153	79.1
710.338	79.24
710.522	79.27
710.707	79.08
710.891	79.3
711.076	79.41
711.26	79.58
711.445	79.4
711.629	79.85
711.813	79.93
711.998	80.22
712.182	80.13
712.366	80.34
712.551	80.31
712.735	80.54
712.919	80.59
713.103	80.91
713.288	81.34
713.472	81.52
713.656	81.43
713.84	81.76
714.024	82.02
714.208	82.02
714.393	82.16
714.577	81.95
714.761	82.37
714.945	82.31
715.129	82.28
715.313	82.27
715.497	82.48
715.681	82.68
715.865	82.91
716.049	82.89
716.233	83.4
716.417	83.74
716.601	83.83
716.785	84.09
716.968	84.12
717.152	84.15
717.336	84.12
717.52	84.26
717.704	84.18
717.888	84.46
718.071	84.29
718.255	84.39
718.439	84.32
718.622	84.38
718.806	84.06
718.99	83.92
719.174	83.84
719.357	84
719.541	84.17
719.724	84.47
719.908	84.72
720.092	85.15
720.275	85.37
720.459	85.44
720.642	85.7
720.826	85.73
721.009	85.68
721.193	85.69
721.376	85.73
721.559	85.8
721.743	85.71
721.926	85.55
722.11	85.67
722.293	85.49
722.476	85.38
722.66	85.43
722.843	85.5
723.026	85.81
723.21	85.96
723.393	85.98
723.576	86.07
723.759	86.35
723.942	86.38
724.126	86.64
724.309	86.79
724.492	87.15
724.675	87.3
724.858	87.92
725.041	87.95
725.224	88
725.407	87.7
725.59	87.53
725.774	87.53
725.957	87.5
726.14	87.37
726.322	87.72
726.505	88.08
726.688	88.7
726.871	88.78
727.054	88.69
727.237	88.28
727.42	88.55
727.603	88.48
727.786	88.33
727.968	88.44
728.151	88.63
728.334	88.45
728.517	89.1
728.699	89.26
728.882	89.58
729.065	89.75
729.248	89.3
729.43	89.29
729.613	89.6
729.796	89.47
729.978	89.46
730.161	89.38
730.343	89.52
730.526	89.9
730.708	90.38
730.891	90.51
731.073	90.55
731.256	90.47
731.438	91.01
731.621	91.58
731.803	91.88
731.986	91.88
732.168	92.13
732.35	92.32
732.533	92.56
732.715	92.33
732.898	92
733.08	92.43
733.262	92.41
733.444	92.35
733.627	92.33
733.809	92.49
733.991	92.53
734.173	92.3
734.355	91.97
734.538	92.03
734.72	92.55
734.902	92.76
735.084	92.82
735.266	92.71
735.448	93.07
735.63	93.21
735.812	93.08
735.994	92.36
736.176	92.39
736.358	92.62
736.54	92.79
736.722	92.76
736.904	92.52
737.086	92.59
737.268	93.48
737.45	93.82
737.632	93.53
737.814	93.74
737.995	93.67
738.177	94.01
738.359	94.52
738.541	94.05
738.723	93.84
738.904	93.77
739.086	93.56
739.268	94.15
739.449	94
739.631	93.76
739.813	93.73
739.994	94.08
740.176	94.27
740.358	94.38
740.539	93.97
740.721	93.98
740.902	93.79
741.084	94.02
741.265	93.63
741.447	93.31
741.628	92.94
741.81	93.33
741.991	93.51
742.172	94.06
742.354	94.68
742.535	95.04
742.717	95.18
742.898	95.9
743.079	95.53
743.261	95.83
743.442	95.46
743.623	94.74
743.804	94.84
743.986	94.97
744.167	94.71
744.348	94.79
744.529	94.26
744.71	94.19
744.891	94.35
745.073	93.69
745.254	94.32
745.435	93.71
745.616	93.61
745.797	93.46
745.978	93.82
746.159	93.71
746.34	94.07
746.521	93.63
746.702	93.6
746.883	94.31
747.064	94.83
747.245	95.42
747.426	95.51
747.606	95.6
747.787	95.75
747.968	96.97
748.149	96.97
748.33	97.44
748.51	96.32
748.691	96.15
748.872	96.43
749.053	96.33
749.233	96.16
749.414	95.49
749.595	94.16
749.775	94.38
749.956	93.84
750.137	93.29
750.317	93.25
750.498	93.05
750.678	92.97
750.859	93.62
751.04	93.75
751.22	93.26
751.4	93.57
751.581	93.07
751.761	93.1
751.942	93.46
752.122	93.35
752.303	93.33
752.483	94.83
752.663	95.11
752.844	95.51
753.024	95.51
753.204	95
753.385	95.15
753.565	94.41
753.745	93.52
753.925	93.15
754.106	93.33
754.286	93.05
754.466	93.54
754.646	93.24
754.826	93.65
755.006	94.07
755.187	94.47
755.367	94.22
755.547	94.25
755.727	94.04
755.907	94.71
756.087	95.29
756.267	95.43
756.447	95.06
756.627	94.79
756.807	95.38
756.987	95.53
757.167	95.59
757.346	94.08
757.526	94.19
757.706	94.2
757.886	94.41
758.066	93.14
758.246	92.92
758.425	92.53
758.605	93.11
758.785	93.21
758.965	92.34
759.144	92.73
759.324	93.76
759.504	93.6
759.683	93.4
759.863	93.27
760.043	92.72
760.222	93.08
760.402	93.17
760.581	92.22
760.761	92.35
760.94	91.47
761.12	91.51
761.299	91.13
761.479	92.02
761.658	90.63
761.838	91.4
762.017	91.25
762.197	93
762.376	92.64
762.555	93.32
762.735	91.93
762.914	92.89
763.093	91.87
763.273	91.63
763.452	90.66
763.631	90.75
763.81	91.2
763.99	92.15
764.169	92.1
764.348	93.28
764.527	93.71
764.706	93.76
764.885	94.74
765.064	93.44
765.243	93.31
765.423	93.56
765.602	92.83
765.781	93.14
765.96	92.78
766.139	92.22
766.318	93.09
766.497	92.96
766.676	93.34
766.854	92.7
767.033	91.85
767.212	92.09
767.391	91.99
767.57	91.47
767.749	91.46
767.928	90.86
768.106	91.86
768.285	92.81
768.464	93.06
768.643	93.81
768.821	94.06
769	94.34
769.179	93.1
769.357	92.77
769.536	91.84
769.715	91.25
769.893	90.48
770.072	90.74
770.25	90.14
770.429	91.71
770.607	92.33
770.786	92.87
770.964	92.86
771.143	92.85
771.321	91.92
771.5	91.65
771.678	92.26
771.857	90.15
772.035	89.43
772.213	89.91
772.392	89.99
772.57	89.32
772.748	89.5
772.927	87.33
773.105	87.91
773.283	87.11
773.461	86.55
773.64	86.07
773.818	86.43
773.996	86.73
774.174	87.81
774.352	87.89
774.531	87.09
774.709	87.44
774.887	86.84
775.065	86.93
775.243	87.36
775.421	85.91
775.599	85.87
775.777	87.42
775.955	86.34
776.133	86.41
776.311	86.33
776.489	85.63
776.667	86.09
776.844	85.77
777.022	85.43
777.2	86.09
777.378	88.19
777.556	89.58
777.734	89.43
777.911	91.4
778.089	90.49
778.267	91.52
778.445	91.86
778.622	89.94
778.8	88.57
778.978	88.36
779.155	86.14
779.333	86.12
779.511	85.26
779.688	84.27
779.866	84.8
780.043	85.59
780.221	85.44
780.398	87.03
780.576	88.07
780.753	88.02
780.931	89.03
781.108	89.79
781.286	89.1
781.463	90.72
781.64	89.69
781.818	90.03
781.995	90.66
782.172	90.07
782.35	89.51
782.527	91.38
782.704	89.65
782.882	91.28
783.059	89.86
783.236	89.39
783.413	91.02
783.59	89.77
783.768	88.3
783.945	89.87
784.122	87.3
784.299	88.41
784.476	89.2
784.653	88.81
784.83	88.95
785.007	89.55
785.184	88.98
785.361	88.52
785.538	89.9
785.715	87.41
785.892	84.78
786.069	85.3
786.246	82.98
786.423	83.61
786.6	84.1
786.776	81.09
786.953	82.38
787.13	85.59
787.307	83.65
787.484	85.98
787.66	84.38
787.837	86.15
788.014	87.87
788.191	88.22
788.367	85.19
788.544	86.96
788.721	86.79
788.897	87.96
789.074	86.73
789.25	87.45
789.427	88.54
789.603	89.81
789.78	91.43
789.956	89.53
790.133	89.72
790.309	89.97
790.486	91.28
790.662	91.47
790.839	94.12
791.015	94.57
791.192	95.1
791.368	95.91
791.544	94.74
791.721	92.87
791.897	91.78
792.073	88.96
792.249	89.01
792.426	88.35
792.602	85.45
792.778	85.92
792.954	85.04
793.13	86.59
793.307	84.42
793.483	83.23
793.659	85.31
793.835	85.01
794.011	85.55
794.187	85.96
794.363	84.87
794.539	86.47
794.715	84.67
794.891	82.92
795.067	84.56
795.243	84.35
795.419	85.45
795.595	82.58
795.771	85.4
795.947	86.43
796.122	85.79
796.298	83.28
796.474	83.13
796.65	82.42
796.826	86
797.001	85.28
797.177	84.12
797.353	86.37
797.529	89.09
797.704	89.5
797.88	88
798.056	89.71
798.231	86.8
798.407	87.7
798.582	86.57
798.758	86.34
798.934	84.7
799.109	82.74
799.285	80.07
799.46	82.59
799.636	83.39
799.811	85.45
799.986	83.73
800.162	86.46
800.337	89.3
800.513	88.75
800.688	87
800.863	86.17
801.039	81.77
801.214	83.59
801.389	83.3
801.565	82.62
801.74	79.09
801.915	80.43
802.09	80.73
802.265	83.07
802.441	83.19
802.616	81.9
802.791	84.08
802.966	87.17
803.141	81.5
803.316	81.48
803.491	82.08
803.666	81.92
803.841	83.98
804.016	82.88
804.191	83.29
804.366	85.95
804.541	84.18
804.716	78.1
804.891	80.18
805.066	77.44
805.241	71.79
805.416	70.67
805.591	72.75
805.765	70.8
805.94	76.47
806.115	70.17
806.29	72.25
806.464	76.12
806.639	78.1
806.814	73.59
806.989	76.6
807.163	76.69
807.338	79.76
807.512	73.33
807.687	72.99
807.862	72.49
808.036	74.53
808.211	76.57
808.385	74.53
808.56	73.13
808.734	75.29
808.909	73.27
809.083	71.47
809.258	74.75
809.432	70.56
809.606	72.66
809.781	72.9
809.955	77.19
810.13	80.23
810.304	81.77
810.478	79.21
810.652	83.85
810.827	82.14
811.001	84.81
811.175	83.62
811.349	83.77
811.524	83.5
811.698	85.36
811.872	85.06
812.046	83.69
812.22	84.53
812.394	83.83
812.568	84.84
812.742	85.61
812.916	84.57
813.09	83.61
813.264	85.18
813.438	90.56
813.612	89.74
813.786	89.51
813.96	91.01
814.134	94.66
814.308	89.75
814.482	91.14
814.656	88.03
814.83	91.01
815.003	92.04
815.177	89.27
815.351	89.74
815.525	89.66
815.698	87.92
815.872	83.53
816.046	82.21
816.219	80.77
816.393	79.91
816.567	72.48
816.74	75.28
816.914	77.05
817.088	74.87
817.261	73.99
817.435	70.42
817.608	66.14
817.782	65.65
817.955	63.59
818.129	66.52
818.302	68.89
818.475	69.34
818.649	70.32
818.822	77.68
818.996	80.98
819.169	79.21
819.342	71.98
819.516	72.16
819.689	69.8
819.862	67.3
820.035	64.27
820.209	63.46
820.382	58.67
820.555	61.37
820.728	51.54
820.901	50.66
821.075	57.73
821.248	56.74
821.421	59.35
821.594	65.27
821.767	63.12
821.94	66.82
822.113	66.63
822.286	71.01
822.459	77.73
822.632	74.71
822.805	82.82
822.978	84.31
823.151	88.62
823.324	89.61
823.496	73.4
823.669	74.97
823.842	81.37
824.015	73.55
824.188	78.86
824.361	74.89
824.533	79.79
824.706	97.23
824.879	97.29
825.051	88.35
825.224	86.33
825.397	72.87
825.569	76.31
825.742	71.37
825.915	64.28
826.087	55.3
826.26	60.43
826.432	67.37
826.605	71.33
826.777	70.3
826.95	70.62
827.122	72.28
827.295	75.81
827.467	63.22
827.64	55.99
827.812	57.89
827.984	62.27
828.157	65.13
828.329	71.89
828.501	65.26
828.674	72.41
828.846	69.96
829.018	69.17
829.19	62.1
829.363	58.81
829.535	52.79
829.707	48.22
829.879	47.34
830.051	48.45
830.223	44.66
830.395	47.7
830.568	53.71
830.74	62.9
830.912	67.92
831.084	60.21
831.256	59.56
831.428	63.81
831.6	56.8
831.772	53.6
831.943	47.33
832.115	53.93
832.287	62.14
832.459	68.57
832.631	73.13
832.803	76.69
832.975	80.94
833.146	76.58
833.318	74.05
833.49	78.91
833.662	75.67
833.833	75.91
834.005	79.14
834.177	81.37
834.348	82.33
834.52	87.13
834.692	84.63
834.863	78.95
835.035	69.9
835.206	65.64
835.378	61.26
835.549	63.32
835.721	58.67
835.892	54.79
836.064	60.95
836.235	63.5
836.407	65.4
836.578	67.89
836.749	72.41
836.921	74.05
837.092	77.16
837.264	76.11
837.435	65.72
837.606	64.34
837.777	58.7
837.949	53.64
838.12	53.5
838.291	61.17
838.462	56.3
838.633	62.33
838.805	60.99
838.976	56.2
839.147	48.52
839.318	49.03
839.489	39.34
839.66	46.03
839.831	49.63
840.002	56.7
840.173	58.09
840.344	68.56
840.515	69.18
840.686	75.21
840.857	66.98
841.028	70.42
841.199	65.34
841.369	65.21
841.54	71.03
841.711	71.03
841.882	61.81
842.053	76.75
842.223	78.08
842.394	81.45
842.565	98.07
842.736	92.92
842.906	91.93
843.077	88.61
843.248	101.71
843.418	98.98
843.589	96.01
843.759	86.57
843.93	93.52
844.101	92.53
844.271	89.23
844.442	66.83
844.612	59.06
844.783	42.26
844.953	44.64
845.123	46.55
845.294	43.09
845.464	58.02
845.635	63.49
845.805	70.18
845.975	70.53
846.146	67.73
846.316	57.68
846.486	64.96
846.656	64.65
846.827	50.19
846.997	54.02
847.167	74.71
847.337	77.61
847.507	76.49
847.677	81.85
847.848	78.95
848.018	81.3
848.188	75.28
848.358	71.76
848.528	60.83
848.698	60.29
848.868	52.19
849.038	45.27
849.208	57.86
849.378	58.38
849.548	62.98
849.718	82.47
849.887	77.57
850.057	70.63
850.227	72.07
850.397	61.07
850.567	68.52
850.737	57.9
850.906	47.92
851.076	42.19
851.246	45.84
851.415	62.6
851.585	67.36
851.755	71.35
851.924	85.17
852.094	96.69
852.264	96.81
852.433	103.34
852.603	107.95
852.772	105.15
852.942	89.79
853.111	81.56
853.281	59.9
853.45	61.98
853.62	58.95
853.789	51.97
853.959	52.5
854.128	29.29
854.297	18.45
854.467	26.93
854.636	33.09
854.805	37.15
854.975	48.06
855.144	51.98
855.313	77.97
855.482	78.84
855.652	83.06
855.821	83.18
855.99	76.87
856.159	64.73
856.328	53.62
856.497	48.58
856.667	61.01
856.836	59.28
857.005	57.21
857.174	64.57
857.343	71.22
857.512	73.32
857.681	63.62
857.85	63.52
858.019	60.62
858.188	69.6
858.356	62.8
858.525	39.22
858.694	66.61
858.863	69.91
859.032	48.25
859.201	46.63
859.369	52.87
859.538	50.44
859.707	66.06
859.876	52.26
860.044	47.95
860.213	62.12
860.382	51.71
860.55	50.4
860.719	58.7
860.888	53.37
861.056	54.77
861.225	63.72
861.393	91.42
861.562	80.15
861.73	63.96
861.899	40.88
862.067	53.93
862.236	47.64
862.404	45.61
862.572	27.93
862.741	35.69
862.909	42.26
863.078	52.28
863.246	30.6
863.414	27.49
863.582	28.12
863.751	25.5
863.919	28.98
864.087	29.23
864.255	42.12
864.424	51.07
864.592	58.87
864.76	62.84
864.928	62.95
865.096	69.44
865.264	69.88
865.432	65.72
865.6	67.9
865.768	63.37
865.936	60.75
866.104	73.27
866.272	63.42
866.44	44.63
866.608	20.09
866.776	59.4
866.944	27.66
867.112	23.29
867.28	7.63
867.448	24.29
867.615	39.08
867.783	50.86
867.951	6.85
868.119	39.87
868.286	54.22
868.454	51.78
868.622	27.72
868.789	43.94
868.957	40.78
869.125	45.68
869.292	44.64
869.46	35.02
869.627	40.2
869.795	56.66
869.963	42.99
870.13	46.51
870.298	62.88
870.465	59.69
870.632	83.15
870.8	54.34
870.967	52.47
871.135	52.37
871.302	47.98
871.469	34.99
871.637	41.03
871.804	39.2
871.971	43.28
872.139	43.81
872.306	48.94
872.473	47.22
872.64	43.14
872.807	53.69
872.975	88.98
873.142	77.64
873.309	118.04
873.476	184.1
873.643	202.37
873.81	234.97
873.977	157.91
874.144	97.17
874.311	128.42
874.478	61.5
874.645	41.02
874.812	38.25
874.979	19.77
875.146	-0.82
875.313	-13.35
875.48	36.01
875.647	18.96
875.813	4.86
875.98	32.32
876.147	72.83
876.314	75.04
876.481	53.43
876.647	54.28
876.814	69.38
876.981	66.77
877.147	57.65
877.314	45.45
877.481	54.79
877.647	79.36
877.814	55.99
877.98	73.08
878.147	63.44
878.314	81.29
878.48	92.46
878.647	104.52
878.813	104.37
878.979	149.91
879.146	111.49
879.312	139.68
879.479	103.13
879.645	82.85
879.811	79.11
879.978	72.12
880.144	78.25
880.31	56.28
880.477	15.46
880.643	51.01
880.809	87.42
880.975	39.05
881.142	35.84
881.308	29.7
881.474	65.82
881.64	70.81
881.806	42.22
881.972	66.82
882.138	62.8
882.304	31.97
882.47	20.17
882.636	-13.2
882.802	-13.7
882.968	-51.84
883.134	-204.6
883.3	-48.3
883.466	47.31
883.632	39.4
883.798	49.59
883.964	50.32
884.129	79.23
884.295	58.02
884.461	67.7
884.627	55.7
884.793	83.58
884.958	75.93
885.124	79.8
885.29	45.62
885.455	46.31
885.621	38.99
885.787	22.77
885.952	-4.11
886.118	21.3
886.283	35.96
886.449	34.56
886.614	72.95
886.78	79.8
886.945	98.62
887.111	127.17
887.276	81.88
887.442	77.48
887.607	76
887.773	36.02
887.938	28.34
888.103	37.77
888.269	54.24
888.434	62.57
888.599	62.37
888.764	70.89
888.93	92.39
889.095	85.73
889.26	93.45
889.425	64.59
889.59	49.6
889.756	43.43
889.921	14.19
890.086	8.32
890.251	1.96
890.416	-43.26
890.581	-21.02
890.746	-9.31
890.911	-70.12
891.076	-46.33
891.241	-60.81
891.406	0.48
891.571	31.76
891.736	16.6
891.901	22.5
892.065	62.99
892.23	61.24
892.395	33.54
892.56	46.42
892.725	15.57
892.889	-0.63
893.054	-13.42
893.219	-38.87
893.384	-76.4
893.548	-100
893.713	385.15
893.878	42.93
