Data from Ofra_PS_T2_2A_6EV18_Reflection_1.txt Node
Date: Wed Jul 21 17:16:36 EDT 2021
User: Adam
Spectrometer: FLMT01687
Trigger mode: 0
Integration Time (sec): 1.100000E0
Scans to average: 2
Electric dark correction enabled: true
Nonlinearity correction enabled: false
Boxcar width: 2
XAxis mode: Wavelengths
Number of Pixels in Spectrum: 3648
>>>>>Begin Spectral Data<<<<<
179.494	536.8
179.716	611.76
179.937	595.97
180.158	588.25
180.38	880
180.601	353.59
180.823	100.77
181.044	-42.18
181.265	22.79
181.486	84.72
181.708	133.95
181.929	1024.49
182.15	-546.48
182.372	31.08
182.593	38.33
182.814	44.75
183.035	81.74
183.257	90.86
183.478	24.68
183.699	59
183.92	45.57
184.141	37.9
184.363	-21.19
184.584	62.4
184.805	61.19
185.026	90.13
185.247	93.25
185.468	53.86
185.689	50.59
185.91	45.36
186.132	28.86
186.353	33.27
186.574	125.54
186.795	95.86
187.016	70.1
187.237	71.12
187.458	69.88
187.679	44.62
187.9	37.63
188.121	31.6
188.342	22.57
188.563	57.86
188.784	70.77
189.005	59.06
189.226	123.76
189.447	112.94
189.667	-31.07
189.888	-188.18
190.109	-928.57
190.33	-741.94
190.551	-1370.8
190.772	-315.5
190.993	-285.92
191.214	-188.21
191.434	-104.42
191.655	16.07
191.876	12.61
192.097	-40.56
192.318	-142.21
192.538	-181.52
192.759	-194.7
192.98	-80.51
193.201	-33.55
193.421	0.63
193.642	14.63
193.863	28.97
194.083	9.88
194.304	-1.23
194.525	-8.61
194.745	-37.49
194.966	-55.41
195.187	-63.16
195.407	-82.47
195.628	-118.91
195.848	-126.4
196.069	-125.85
196.29	-36.33
196.51	-45.83
196.731	-31.66
196.951	-13.64
197.172	-21.03
197.392	-114.86
197.613	-93.45
197.833	-147.92
198.054	-137.33
198.274	-80.77
198.495	-66.97
198.715	-25.5
198.936	-37.59
199.156	-19.84
199.377	-96.08
199.597	-103.28
199.817	-118.87
200.038	-5.8
200.258	-50.2
200.479	14.34
200.699	35.87
200.919	37.76
201.14	-36.14
201.36	-19.79
201.58	33.02
201.801	61.63
202.021	47.78
202.241	53.88
202.461	33.87
202.682	-55.5
202.902	-122.21
203.122	-78.56
203.342	-49.7
203.563	-15.97
203.783	23.97
204.003	-10.99
204.223	-19.94
204.443	28.19
204.663	12.28
204.884	32.9
205.104	75.47
205.324	108.53
205.544	98.1
205.764	110.43
205.984	83.11
206.204	78.55
206.424	62.46
206.644	48.35
206.864	48.24
207.084	28.78
207.304	50.42
207.525	18.44
207.745	-24.39
207.964	-11.25
208.184	-40.33
208.404	-89.69
208.624	-106.65
208.844	-110.73
209.064	-415.67
209.284	-412.95
209.504	-221.95
209.724	-53.09
209.944	-10.16
210.164	39.6
210.384	33.16
210.604	24.51
210.823	4.09
211.043	-16.55
211.263	-23.47
211.483	-8.38
211.703	-61.16
211.922	-41.06
212.142	16.21
212.362	48.44
212.582	31.84
212.801	49.72
213.021	18.1
213.241	-1.16
213.461	-67.05
213.68	-90.78
213.9	-66.82
214.12	-50
214.339	-108.58
214.559	-65.53
214.779	5.93
214.998	3.96
215.218	-24.46
215.438	11.96
215.657	5.45
215.877	-19.66
216.096	9.63
216.316	24.35
216.535	14.22
216.755	15.62
216.974	-51.09
217.194	-141.25
217.413	-147.42
217.633	-178.02
217.852	-267.37
218.072	-115.09
218.291	-34.65
218.511	12.98
218.73	8.43
218.95	4.56
219.169	2.66
219.389	-41.24
219.608	-39.66
219.827	-31.42
220.047	-26.29
220.266	-9.2
220.485	5.07
220.705	25.77
220.924	1.48
221.143	27.4
221.363	2.12
221.582	13.05
221.801	25
222.021	44.22
222.24	6.56
222.459	107.23
222.678	59.68
222.897	-48.1
223.117	-68.14
223.336	-34.81
223.555	-23.8
223.774	28.74
223.993	39.6
224.213	88.22
224.432	66.63
224.651	65.26
224.87	39.62
225.089	51.52
225.308	38.32
225.527	65.66
225.746	59.2
225.965	52.33
226.184	69.34
226.404	70.54
226.623	32.65
226.842	40.68
227.061	62.72
227.28	57.37
227.499	42.43
227.718	54.99
227.936	54.28
228.155	71.21
228.374	33.36
228.593	42.27
228.812	40.26
229.031	18.73
229.25	-47.29
229.469	-36.78
229.688	-16.93
229.907	4.49
230.125	25.52
230.344	40.94
230.563	55.98
230.782	49.79
231.001	-12.37
231.22	-4.28
231.438	14.6
231.657	19.87
231.876	12.72
232.095	57.58
232.313	47.23
232.532	29.63
232.751	-11.57
232.969	-21.85
233.188	-99.33
233.407	-36.74
233.625	-1.66
233.844	-21.48
234.063	-0.32
234.281	24.02
234.5	21.72
234.719	11.1
234.937	41.94
235.156	36.89
235.374	28.3
235.593	20.23
235.811	23.79
236.03	1.67
236.249	-26.59
236.467	-16.05
236.686	9.36
236.904	16.35
237.123	14.68
237.341	13.13
237.559	20.26
237.778	16.23
237.996	-6.04
238.215	11.01
238.433	29.83
238.652	16.85
238.87	-2.41
239.088	33.66
239.307	28.82
239.525	29.04
239.743	-4.41
239.962	12.84
240.18	-24.43
240.398	-61.61
240.617	-79.79
240.835	-52.04
241.053	-27.26
241.271	1.11
241.49	12.33
241.708	0.83
241.926	20.28
242.144	9.55
242.363	-22.18
242.581	-14.27
242.799	4.24
243.017	14.77
243.235	-12.89
243.453	-2.16
243.672	6.62
243.89	7.27
244.108	-5.71
244.326	25.77
244.544	24.1
244.762	12.13
244.98	12.33
245.198	20.69
245.416	-25.49
245.634	-17.58
245.852	-20.96
246.07	-20.06
246.288	-13.88
246.506	-18.87
246.724	1.49
246.942	7.94
247.16	29.09
247.378	34.17
247.596	47.46
247.814	36.3
248.032	12.91
248.25	10.07
248.468	18.85
248.685	21.87
248.903	47.69
249.121	54.9
249.339	24.57
249.557	1.73
249.775	14.73
249.992	-45.03
250.21	-45.89
250.428	-22.18
250.646	-31.92
250.863	-52.96
251.081	-29.45
251.299	-12.37
251.517	5.53
251.734	-3.28
251.952	6.33
252.17	9.45
252.387	13.94
252.605	-2.37
252.823	4.61
253.04	17.77
253.258	32.58
253.475	40.62
253.693	58.68
253.911	67.83
254.128	76.27
254.346	80.63
254.563	31.52
254.781	11.19
254.998	-4.73
255.216	-18.95
255.433	-1.74
255.651	66.45
255.868	67.88
256.086	78.79
256.303	64.8
256.521	44.15
256.738	23.69
256.956	3.15
257.173	-14.12
257.39	-31.34
257.608	-50
257.825	13.57
258.043	63.28
258.26	58.73
258.477	89.28
258.695	84.4
258.912	5.92
259.129	16.8
259.346	-21.91
259.564	-43.78
259.781	-70.77
259.998	15.39
260.216	19.43
260.433	72.04
260.65	61.73
260.867	86.48
261.084	44.12
261.302	15.15
261.519	-10.94
261.736	-28.57
261.953	-37.69
262.17	7.73
262.387	-1.16
262.604	-21.03
262.822	-8.79
263.039	-1.12
263.256	-54.56
263.473	-22.74
263.69	-21.73
263.907	4.43
264.124	15.4
264.341	32.52
264.558	18.98
264.775	36.3
264.992	33.29
265.209	32.73
265.426	52.05
265.643	57.81
265.86	79.73
266.077	74.68
266.294	34.88
266.51	-24.33
266.727	-41.66
266.944	-52.74
267.161	-47.83
267.378	-36.91
267.595	2.14
267.812	-10.6
268.028	-25.91
268.245	4.57
268.462	-9.73
268.679	-22.74
268.896	29.32
269.112	30.56
269.329	10.46
269.546	14.97
269.763	5.09
269.979	-11.93
270.196	-15.57
270.413	-33.95
270.629	-38.28
270.846	-50.92
271.063	-41.9
271.279	-62.28
271.496	-57.59
271.712	-1.5
271.929	22.98
272.146	23.6
272.362	54.45
272.579	90.52
272.795	62.5
273.012	69.89
273.228	49.96
273.445	22.06
273.661	-11.74
273.878	-41.84
274.094	-48.36
274.311	-50.25
274.527	23.65
274.744	27.14
274.96	10.28
275.177	23.89
275.393	34.88
275.609	15.78
275.826	56.48
276.042	61.79
276.259	41.73
276.475	47.1
276.691	55.07
276.908	14.33
277.124	24.16
277.34	37.53
277.557	31.19
277.773	-2.74
277.989	-6.47
278.205	-8.78
278.422	1.29
278.638	3.73
278.854	32.15
279.07	22.76
279.286	16.97
279.503	-19.39
279.719	-37.6
279.935	-68.86
280.151	-68.35
280.367	-45.92
280.583	-43.21
280.799	-43.69
281.016	-55.36
281.232	-11.29
281.448	-9.07
281.664	14.56
281.88	26.22
282.096	48.84
282.312	58.21
282.528	72.39
282.744	62.6
282.96	52.57
283.176	28.77
283.392	17.28
283.608	17.26
283.824	10.75
284.04	16.5
284.256	34.1
284.471	29.48
284.687	17.51
284.903	52.62
285.119	76.39
285.335	50.06
285.551	62.36
285.767	38.51
285.982	8.44
286.198	-30.76
286.414	23.18
286.63	30.74
286.846	50.77
287.061	32.13
287.277	47.69
287.493	16.7
287.709	21.41
287.924	9.63
288.14	44
288.356	62.06
288.571	75.06
288.787	62.15
289.003	49.76
289.218	27.18
289.434	-25.49
289.65	-29.19
289.865	-25.75
290.081	17.1
290.296	24.41
290.512	33.42
290.727	12.61
290.943	-3.17
291.159	-24.7
291.374	-23
291.59	-40.01
291.805	-29.39
292.021	-19.78
292.236	-18.62
292.451	-3.79
292.667	8.74
292.882	21.14
293.098	25.28
293.313	18.03
293.529	-11.51
293.744	-34.85
293.959	-38.2
294.175	-40.39
294.39	8.27
294.605	27.73
294.821	61.5
295.036	58.64
295.251	72.57
295.467	44.06
295.682	46.35
295.897	-11.99
296.112	-17.71
296.328	-26.7
296.543	-66.8
296.758	-68.98
296.973	-3.58
297.188	31.4
297.404	5.45
297.619	7.98
297.834	-9.63
298.049	-47.28
298.264	-72
298.479	-1.71
298.694	4.38
298.909	32.13
299.125	47.23
299.34	53.64
299.555	18.69
299.77	40.97
299.985	-10.94
300.2	-64.73
300.415	-81.88
300.63	-35.25
300.845	-64.68
301.06	-73.26
301.275	-42.28
301.49	-12.84
301.704	-28.92
301.919	-29.23
302.134	-24.94
302.349	-20.82
302.564	-74.61
302.779	-123.72
302.994	-73.98
303.209	-25.25
303.423	7.48
303.638	36.14
303.853	21.92
304.068	1.42
304.283	-9.98
304.497	-17.96
304.712	-26.34
304.927	-10.24
305.142	-14.77
305.356	-6.71
305.571	-7.66
305.786	-22.49
306	-42.92
306.215	-31.58
306.43	-57.27
306.644	-37.71
306.859	11.87
307.074	31.3
307.288	4.56
307.503	21.87
307.717	-5.76
307.932	-11.59
308.147	-30.72
308.361	-7.28
308.576	-21.19
308.79	-52.61
309.005	-42.28
309.219	-15.81
309.434	-21.88
309.648	-21.4
309.863	5.61
310.077	15.44
310.292	11.3
310.506	2.71
310.72	16.38
310.935	27.41
311.149	16.99
311.364	43.33
311.578	62.14
311.792	57.06
312.007	59.88
312.221	50.24
312.435	40
312.649	14.91
312.864	59.01
313.078	65.89
313.292	135.47
313.507	107.73
313.721	176.12
313.935	81.14
314.149	55.34
314.363	21.12
314.578	21.43
314.792	17.32
315.006	-1.63
315.22	8.97
315.434	20.42
315.648	40.18
315.862	36.64
316.077	47.72
316.291	52.21
316.505	49.84
316.719	47.35
316.933	11
317.147	-0.63
317.361	-54.59
317.575	-62.36
317.789	-111.4
318.003	-154.9
318.217	-109.5
318.431	-5.88
318.645	27.08
318.859	27.78
319.073	65.21
319.287	44.38
319.5	10.27
319.714	-35.05
319.928	-48.63
320.142	-81.28
320.356	-1.42
320.57	33.97
320.784	27.88
320.997	42.79
321.211	39.15
321.425	-57.98
321.639	-87.83
321.853	-23.47
322.066	-10.2
322.28	-14.16
322.494	1.57
322.707	27.7
322.921	16.36
323.135	2.15
323.349	16.9
323.562	0.25
323.776	-18.9
323.989	-18.22
324.203	-36.92
324.417	-46.35
324.63	-56.27
324.844	-52.7
325.057	-49.69
325.271	-29.15
325.485	-11.08
325.698	13.38
325.912	29.03
326.125	9.19
326.339	24.17
326.552	6.09
326.766	20.65
326.979	24.71
327.193	53.02
327.406	33.01
327.619	34.03
327.833	33.79
328.046	9.83
328.26	-28.85
328.473	11.28
328.686	-5.46
328.9	-1.7
329.113	16.14
329.326	7.12
329.54	0.61
329.753	-13.47
329.966	-38.1
330.179	-15.87
330.393	12.81
330.606	24.52
330.819	39.6
331.032	49.98
331.246	46.62
331.459	61.68
331.672	43.68
331.885	44.39
332.098	10.75
332.311	1.46
332.525	-46.79
332.738	-19.95
332.951	-11.85
333.164	33.65
333.377	28.06
333.59	52.21
333.803	39.43
334.016	47.07
334.229	39.55
334.442	56.67
334.655	64.93
334.868	83.15
335.081	70.13
335.294	56.05
335.507	50.55
335.72	29.47
335.933	-0.23
336.146	-13.95
336.359	-6.67
336.572	-37.69
336.785	-57.22
336.997	-43.57
337.21	-16.4
337.423	-19.58
337.636	0.64
337.849	7.29
338.062	7.49
338.274	13.96
338.487	10.45
338.7	-2.68
338.913	-37.91
339.125	-70.38
339.338	-142.26
339.551	-113.76
339.763	-62.3
339.976	-6.26
340.189	15.91
340.402	26.52
340.614	12.73
340.827	-0.37
341.039	-21.92
341.252	-16.55
341.465	4.97
341.677	-3.68
341.89	-42.66
342.102	-13.78
342.315	-26.25
342.527	-52.01
342.74	-22.53
342.952	10.79
343.165	7.04
343.377	26.47
343.59	3.21
343.802	4.35
344.015	-0.2
344.227	16.65
344.44	16.44
344.652	32.04
344.864	9.45
345.077	33.35
345.289	30.91
345.502	28.22
345.714	19.79
345.926	36.58
346.139	24.38
346.351	19.74
346.563	22.06
346.775	25.48
346.988	11.99
347.2	-1.79
347.412	-39.83
347.624	-55.73
347.837	-62.28
348.049	-24.56
348.261	22.28
348.473	45.03
348.685	50.45
348.897	44.64
349.11	-0.23
349.322	-26.36
349.534	-29.23
349.746	-25.47
349.958	-11.19
350.17	19.12
350.382	33.01
350.594	21.97
350.806	30.19
351.018	28.16
351.23	9.41
351.442	-35.3
351.654	-33.45
351.866	-26.37
352.078	-4.37
352.29	33.72
352.502	33.21
352.714	40.44
352.926	25.95
353.138	18.85
353.35	-3.81
353.561	-6.52
353.773	-27.47
353.985	-9.25
354.197	-24.95
354.409	-16.98
354.621	-18.21
354.832	-7.56
355.044	-20
355.256	-20.33
355.468	-13.79
355.679	-17.24
355.891	-9.31
356.103	-19.43
356.314	-0.5
356.526	9.55
356.738	12.76
356.949	-4.05
357.161	18.96
357.373	8
357.584	-4.75
357.796	4.79
358.008	7
358.219	16.45
358.431	24.63
358.642	23.36
358.854	17.99
359.065	6.28
359.277	-20.17
359.488	-45.64
359.7	-53.53
359.911	-54.9
360.123	-30.08
360.334	-40.11
360.546	-31.47
360.757	-31.47
360.969	-17.14
361.18	-12.18
361.391	-2.38
361.603	-7.25
361.814	9.49
362.025	5.61
362.237	10.34
362.448	20.81
362.659	32.58
362.871	15.05
363.082	8.79
363.293	11.26
363.504	3.43
363.716	-21.68
363.927	-6.27
364.138	-23.31
364.349	-50.46
364.56	-43.09
364.772	-32.98
364.983	-13.47
365.194	-2.75
365.405	19.05
365.616	35.67
365.827	38.49
366.038	14.82
366.25	8.24
366.461	-22.74
366.672	-13.89
366.883	1.9
367.094	10.84
367.305	5.04
367.516	20.22
367.727	3.51
367.938	-16.77
368.149	-23.62
368.36	4.21
368.571	-0.43
368.781	-14.69
368.992	-22.82
369.203	-30.16
369.414	-73.83
369.625	-81.29
369.836	-73.83
370.047	-76.56
370.258	-68.47
370.468	-56.63
370.679	-73.31
370.89	-65.77
371.101	-43.31
371.312	-44.48
371.522	-30.55
371.733	-16.9
371.944	-3.66
372.155	-1.11
372.365	-10.91
372.576	-14.9
372.787	-13.95
372.997	-26.49
373.208	-26.73
373.419	10.94
373.629	-17.64
373.84	-18.81
374.05	-24.31
374.261	-21.01
374.472	-42.89
374.682	6.95
374.893	12.13
375.103	35.93
375.314	32.87
375.524	40.52
375.735	38.34
375.945	37.55
376.156	12.94
376.366	19.21
376.577	11.72
376.787	4.61
376.997	8.39
377.208	9.66
377.418	-12.75
377.629	2.92
377.839	6.6
378.049	8.91
378.26	26.8
378.47	41.97
378.68	27.88
378.89	22.82
379.101	18.24
379.311	-10.58
379.521	-38.75
379.732	-26.88
379.942	-23.41
380.152	-40.25
380.362	-16.26
380.572	-10.37
380.783	1.6
380.993	7.38
381.203	16.23
381.413	21.62
381.623	26.76
381.833	20.45
382.043	8.42
382.253	2.47
382.463	-0.86
382.674	-15.3
382.884	-35.36
383.094	-33.61
383.304	-24.71
383.514	-17.55
383.724	-2.86
383.934	-5.77
384.144	-8.28
384.353	-13.5
384.563	-15.97
384.773	-9.73
384.983	-8.65
385.193	5.13
385.403	8.5
385.613	8.4
385.823	-1.2
386.033	5.92
386.242	-6.79
386.452	-6.49
386.662	-18.5
386.872	-9.65
387.082	-15.9
387.291	-15.41
387.501	-15.49
387.711	-1.12
387.921	-12.01
388.13	-7.76
388.34	2.58
388.55	-3.39
388.759	-6.22
388.969	4.49
389.179	-1.75
389.388	-4.47
389.598	-1.64
389.807	-7.44
390.017	-13.68
390.227	-10.76
390.436	-13.1
390.646	-10.81
390.855	-6.14
391.065	-6.2
391.274	-6.81
391.484	-6.28
391.693	-4.12
391.903	-0.86
392.112	6.32
392.322	8.04
392.531	11.14
392.74	12.34
392.95	5.78
393.159	1.93
393.369	2.84
393.578	0.08
393.787	-1.28
393.997	0.35
394.206	-1.7
394.415	-2.78
394.625	-2.64
394.834	-4.89
395.043	-3.06
395.252	0.3
395.462	2.84
395.671	5.24
395.88	6.4
396.089	6.49
396.298	4.67
396.508	3.61
396.717	1.51
396.926	2.03
397.135	1.98
397.344	1.85
397.553	2.94
397.762	4.89
397.971	4.34
398.181	3.65
398.39	2.71
398.599	1.58
398.808	0.78
399.017	1.81
399.226	3.89
399.435	5.29
399.644	5.68
399.853	4.84
400.062	4.39
400.27	3.23
400.479	2.89
400.688	2.21
400.897	2.66
401.106	2.52
401.315	2.01
401.524	1.93
401.733	2.6
401.941	3.02
402.15	3.04
402.359	3.14
402.568	3.73
402.777	3.6
402.985	3.21
403.194	3.12
403.403	3.35
403.612	2.57
403.82	2.5
404.029	2.76
404.238	2.7
404.446	2.95
404.655	2.94
404.864	3.02
405.072	2.77
405.281	2.89
405.489	2.59
405.698	2.72
405.906	2.49
406.115	2.45
406.324	2.5
406.532	2.72
406.741	2.81
406.949	2.95
407.158	2.99
407.366	2.73
407.574	2.57
407.783	2.54
407.991	2.28
408.2	2.64
408.408	2.8
408.617	2.76
408.825	2.62
409.033	2.78
409.242	2.62
409.45	2.77
409.658	2.56
409.867	2.72
410.075	2.59
410.283	2.38
410.491	2.15
410.7	2.24
410.908	2.29
411.116	2.51
411.324	2.57
411.533	2.62
411.741	2.86
411.949	2.83
412.157	2.52
412.365	2.54
412.573	2.52
412.781	2.45
412.99	2.26
413.198	2.56
413.406	2.61
413.614	2.54
413.822	2.44
414.03	2.39
414.238	2.16
414.446	2.25
414.654	2.18
414.862	2.27
415.07	2.46
415.278	2.71
415.486	2.36
415.694	2.56
415.902	2.37
416.109	2.27
416.317	2.06
416.525	2.06
416.733	1.93
416.941	2.19
417.149	2.23
417.357	2.32
417.564	2.55
417.772	2.79
417.98	2.72
418.188	2.61
418.395	2.75
418.603	2.87
418.811	2.49
419.019	2.46
419.226	2.7
419.434	2.66
419.642	2.4
419.849	2.63
420.057	2.64
420.265	2.51
420.472	2.34
420.68	2.35
420.887	2.22
421.095	2.28
421.302	2.27
421.51	2.42
421.717	2.55
421.925	2.66
422.132	2.32
422.34	2.09
422.547	2.26
422.755	2.14
422.962	1.95
423.17	2.09
423.377	2.2
423.585	2.1
423.792	1.91
423.999	1.94
424.207	1.95
424.414	2.19
424.621	2.06
424.829	2.16
425.036	2.28
425.243	2.35
425.451	2.12
425.658	1.99
425.865	2.19
426.072	1.99
426.28	2.3
426.487	2.28
426.694	2.41
426.901	2.19
427.108	2.39
427.315	1.99
427.523	2.27
427.73	2.19
427.937	2.2
428.144	2.01
428.351	2.06
428.558	2.19
428.765	2.21
428.972	2.24
429.179	2.38
429.386	2.71
429.593	2.35
429.8	2.17
430.007	2.12
430.214	2.27
430.421	2.03
430.628	1.89
430.835	1.85
431.042	2.12
431.249	2.03
431.456	1.93
431.662	2.18
431.869	2.37
432.076	2.26
432.283	2.32
432.49	2.36
432.697	2.34
432.903	2.2
433.11	2.13
433.317	2.17
433.524	2.24
433.73	2.12
433.937	2.42
434.144	2.32
434.35	2.19
434.557	2.14
434.764	2.19
434.97	2.04
435.177	2.25
435.384	2.2
435.59	2.24
435.797	2.37
436.003	2.41
436.21	2.4
436.416	2.54
436.623	2.47
436.829	2.58
437.036	2.63
437.242	2.55
437.449	2.46
437.655	2.5
437.862	2.35
438.068	2.21
438.275	2.43
438.481	2.66
438.687	2.68
438.894	2.64
439.1	2.69
439.307	2.7
439.513	2.5
439.719	2.45
439.926	2.54
440.132	2.56
440.338	2.37
440.544	2.56
440.751	2.55
440.957	2.58
441.163	2.47
441.369	2.55
441.575	2.25
441.782	2.27
441.988	2.14
442.194	2.23
442.4	2.13
442.606	2.42
442.812	2.5
443.018	2.63
443.224	2.66
443.431	2.89
443.637	2.7
443.843	2.53
444.049	2.51
444.255	2.36
444.461	2.3
444.667	2.21
444.873	2.41
445.079	2.37
445.284	2.56
445.49	2.3
445.696	2.26
445.902	2.18
446.108	2.13
446.314	2.07
446.52	2.18
446.726	2.4
446.931	2.42
447.137	2.45
447.343	2.49
447.549	2.48
447.755	2.37
447.96	2.46
448.166	2.44
448.372	2.36
448.578	2.41
448.783	2.43
448.989	2.46
449.195	2.68
449.4	2.69
449.606	2.67
449.812	2.55
450.017	2.48
450.223	2.29
450.428	2.2
450.634	2.38
450.84	2.53
451.045	2.48
451.251	2.41
451.456	2.74
451.662	2.62
451.867	2.66
452.073	2.65
452.278	2.83
452.483	2.76
452.689	2.71
452.894	2.74
453.1	2.77
453.305	2.67
453.51	2.58
453.716	2.49
453.921	2.47
454.127	2.39
454.332	2.33
454.537	2.18
454.742	2.28
454.948	2.17
455.153	2.24
455.358	2.38
455.563	2.63
455.769	2.76
455.974	2.78
456.179	2.71
456.384	2.66
456.589	2.61
456.795	2.33
457	2.33
457.205	2.58
457.41	2.49
457.615	2.43
457.82	2.64
458.025	2.64
458.23	2.4
458.435	2.52
458.64	2.47
458.845	2.55
459.05	2.58
459.255	2.62
459.46	2.55
459.665	2.54
459.87	2.52
460.075	2.46
460.28	2.48
460.485	2.6
460.69	2.65
460.895	2.46
461.099	2.39
461.304	2.57
461.509	2.59
461.714	2.52
461.919	2.72
462.123	2.7
462.328	2.62
462.533	2.48
462.738	2.6
462.942	2.45
463.147	2.57
463.352	2.56
463.556	2.63
463.761	2.59
463.966	2.68
464.17	2.64
464.375	2.6
464.58	2.59
464.784	2.5
464.989	2.39
465.193	2.42
465.398	2.4
465.602	2.5
465.807	2.53
466.011	2.65
466.216	2.69
466.42	2.75
466.625	2.73
466.829	2.83
467.034	2.87
467.238	3.02
467.443	2.98
467.647	2.82
467.851	2.9
468.056	2.88
468.26	2.71
468.464	2.76
468.669	3
468.873	3.07
469.077	3.09
469.282	3.13
469.486	3.17
469.69	3.09
469.894	2.91
470.099	2.96
470.303	3.12
470.507	3.04
470.711	2.91
470.915	2.92
471.119	2.83
471.324	2.68
471.528	2.72
471.732	2.84
471.936	2.82
472.14	2.89
472.344	3.03
472.548	3.06
472.752	3.24
472.956	3.47
473.16	3.36
473.364	3.23
473.568	3.18
473.772	3.08
473.976	2.94
474.18	3.01
474.384	3.11
474.588	3.08
474.792	3
474.995	3.08
475.199	3.14
475.403	3.14
475.607	3.23
475.811	3.22
476.015	3.26
476.218	3.24
476.422	3.18
476.626	3.18
476.83	3.32
477.033	3.23
477.237	3.16
477.441	3.2
477.644	3.23
477.848	3.16
478.052	3.12
478.255	3.18
478.459	3.22
478.663	3.3
478.866	3.33
479.07	3.41
479.273	3.63
479.477	3.67
479.681	3.63
479.884	3.61
480.088	3.55
480.291	3.4
480.495	3.38
480.698	3.38
480.901	3.46
481.105	3.61
481.308	3.55
481.512	3.52
481.715	3.57
481.919	3.57
482.122	3.48
482.325	3.52
482.529	3.6
482.732	3.64
482.935	3.58
483.138	3.52
483.342	3.58
483.545	3.59
483.748	3.55
483.952	3.65
484.155	3.82
484.358	3.82
484.561	3.81
484.764	3.75
484.967	3.8
485.171	3.87
485.374	3.85
485.577	3.93
485.78	3.99
485.983	3.95
486.186	3.79
486.389	3.76
486.592	3.75
486.795	3.86
486.998	3.8
487.201	3.87
487.404	3.95
487.607	4
487.81	3.92
488.013	3.97
488.216	3.93
488.419	3.87
488.622	3.76
488.825	3.68
489.028	3.65
489.231	3.68
489.433	3.68
489.636	3.61
489.839	3.65
490.042	3.57
490.245	3.5
490.447	3.55
490.65	3.58
490.853	3.61
491.056	3.68
491.258	3.77
491.461	3.75
491.664	3.81
491.866	3.77
492.069	3.85
492.272	3.77
492.474	3.8
492.677	3.88
492.879	3.99
493.082	4.03
493.285	4.19
493.487	4.17
493.69	4.09
493.892	3.95
494.095	3.87
494.297	3.75
494.5	3.8
494.702	3.76
494.905	3.85
495.107	3.83
495.309	3.89
495.512	3.92
495.714	4.01
495.917	4.01
496.119	4.01
496.321	4.07
496.524	4.09
496.726	4.05
496.928	4.09
497.13	4.17
497.333	4.13
497.535	4.11
497.737	4.13
497.939	4.13
498.142	4.16
498.344	4.16
498.546	4.09
498.748	4.14
498.95	4.3
499.152	4.21
499.355	4.29
499.557	4.42
499.759	4.5
499.961	4.35
500.163	4.47
500.365	4.47
500.567	4.55
500.769	4.47
500.971	4.51
501.173	4.43
501.375	4.43
501.577	4.31
501.779	4.29
501.981	4.3
502.183	4.32
502.385	4.29
502.587	4.24
502.788	4.36
502.99	4.4
503.192	4.46
503.394	4.48
503.596	4.5
503.798	4.57
503.999	4.63
504.201	4.71
504.403	4.76
504.605	4.88
504.806	4.79
505.008	4.76
505.21	4.77
505.411	4.79
505.613	4.79
505.815	4.84
506.016	4.94
506.218	5.03
506.42	5.06
506.621	5.1
506.823	5.15
507.024	5.1
507.226	5.02
507.427	5.04
507.629	5.07
507.83	5.16
508.032	5.14
508.233	5.3
508.435	5.37
508.636	5.46
508.838	5.36
509.039	5.38
509.24	5.33
509.442	5.34
509.643	5.25
509.845	5.34
510.046	5.44
510.247	5.41
510.448	5.4
510.65	5.49
510.851	5.56
511.052	5.56
511.254	5.62
511.455	5.75
511.656	5.78
511.857	5.84
512.058	5.87
512.26	5.9
512.461	5.87
512.662	5.95
512.863	5.83
513.064	5.8
513.265	5.84
513.466	5.86
513.667	5.84
513.868	5.9
514.069	5.99
514.27	6.03
514.471	6.01
514.672	5.98
514.873	5.96
515.074	6
515.275	5.89
515.476	5.93
515.677	5.98
515.878	6.15
516.079	6.1
516.28	6.18
516.481	6.27
516.682	6.29
516.882	6.15
517.083	6.13
517.284	6.14
517.485	6.06
517.686	6.01
517.886	6.03
518.087	6.12
518.288	6.16
518.488	6.13
518.689	6.19
518.89	6.19
519.091	6.17
519.291	6.12
519.492	6.21
519.692	6.25
519.893	6.32
520.094	6.32
520.294	6.31
520.495	6.27
520.695	6.25
520.896	6.2
521.096	6.23
521.297	6.28
521.497	6.31
521.698	6.28
521.898	6.28
522.099	6.28
522.299	6.37
522.499	6.36
522.7	6.35
522.9	6.41
523.101	6.49
523.301	6.48
523.501	6.49
523.702	6.51
523.902	6.55
524.102	6.6
524.302	6.53
524.503	6.59
524.703	6.64
524.903	6.66
525.103	6.51
525.304	6.6
525.504	6.69
525.704	6.71
525.904	6.66
526.104	6.68
526.304	6.67
526.504	6.6
526.705	6.58
526.905	6.7
527.105	6.74
527.305	6.72
527.505	6.67
527.705	6.66
527.905	6.64
528.105	6.65
528.305	6.61
528.505	6.66
528.705	6.73
528.905	6.67
529.105	6.68
529.304	6.79
529.504	6.86
529.704	6.81
529.904	6.85
530.104	6.83
530.304	6.9
530.503	6.87
530.703	6.83
530.903	6.82
531.103	6.89
531.303	6.82
531.502	6.91
531.702	7
531.902	7.06
532.101	7.01
532.301	7.05
532.501	6.98
532.7	6.97
532.9	6.9
533.1	6.95
533.299	6.93
533.499	7
533.698	6.96
533.898	6.99
534.097	7.01
534.297	7.06
534.496	6.99
534.696	7.02
534.895	7.14
535.095	7.27
535.294	7.25
535.494	7.27
535.693	7.33
535.892	7.36
536.092	7.2
536.291	7.18
536.491	7.31
536.69	7.36
536.889	7.27
537.088	7.3
537.288	7.37
537.487	7.43
537.686	7.43
537.886	7.52
538.085	7.62
538.284	7.74
538.483	7.64
538.682	7.65
538.882	7.66
539.081	7.73
539.28	7.59
539.479	7.59
539.678	7.61
539.877	7.68
540.076	7.67
540.275	7.72
540.474	7.85
540.673	7.87
540.872	7.81
541.071	7.87
541.27	7.94
541.469	7.94
541.668	7.99
541.867	8
542.066	8
542.265	8.04
542.464	8.04
542.663	8.05
542.862	8.25
543.06	8.34
543.259	8.39
543.458	8.5
543.657	8.57
543.856	8.55
544.054	8.49
544.253	8.47
544.452	8.45
544.651	8.53
544.849	8.52
545.048	8.66
545.247	8.68
545.445	8.72
545.644	8.72
545.843	8.73
546.041	8.69
546.24	8.81
546.438	8.97
546.637	9.01
546.836	9.1
547.034	9.2
547.233	9.21
547.431	9.13
547.63	9.16
547.828	9.22
548.027	9.29
548.225	9.29
548.423	9.34
548.622	9.43
548.82	9.47
549.019	9.51
549.217	9.64
549.415	9.74
549.614	9.79
549.812	9.78
550.01	9.79
550.209	9.85
550.407	9.92
550.605	9.95
550.803	10.12
551.002	10.24
551.2	10.28
551.398	10.35
551.596	10.47
551.794	10.47
551.993	10.58
552.191	10.66
552.389	10.77
552.587	10.81
552.785	10.9
552.983	10.88
553.181	10.97
553.379	11.01
553.577	11.06
553.775	11.15
553.973	11.28
554.171	11.4
554.369	11.39
554.567	11.49
554.765	11.56
554.963	11.62
555.161	11.57
555.359	11.73
555.557	11.88
555.755	11.91
555.952	12.09
556.15	12.22
556.348	12.33
556.546	12.38
556.744	12.44
556.941	12.42
557.139	12.56
557.337	12.57
557.535	12.61
557.732	12.75
557.93	12.92
558.128	12.99
558.325	13.12
558.523	13.21
558.721	13.33
558.918	13.29
559.116	13.37
559.313	13.46
559.511	13.62
559.708	13.62
559.906	13.79
560.104	13.93
560.301	14.03
560.498	14.12
560.696	14.23
560.893	14.3
561.091	14.31
561.288	14.41
561.486	14.43
561.683	14.55
561.88	14.68
562.078	14.88
562.275	14.9
562.473	15.02
562.67	15.26
562.867	15.38
563.064	15.45
563.262	15.61
563.459	15.76
563.656	15.83
563.853	15.85
564.051	15.98
564.248	16.12
564.445	16.19
564.642	16.2
564.839	16.4
565.036	16.55
565.234	16.73
565.431	16.79
565.628	16.9
565.825	17.02
566.022	17.01
566.219	17.07
566.416	17.25
566.613	17.4
566.81	17.49
567.007	17.58
567.204	17.61
567.401	17.61
567.598	17.62
567.795	17.57
567.991	17.65
568.188	17.74
568.385	17.9
568.582	18
568.779	18.18
568.976	18.3
569.172	18.45
569.369	18.38
569.566	18.39
569.763	18.41
569.96	18.42
570.156	18.39
570.353	18.45
570.55	18.57
570.746	18.67
570.943	18.78
571.14	18.82
571.336	18.92
571.533	18.99
571.729	18.93
571.926	18.95
572.123	19.09
572.319	19.21
572.516	19.21
572.712	19.36
572.909	19.36
573.105	19.31
573.302	19.27
573.498	19.34
573.695	19.34
573.891	19.45
574.087	19.55
574.284	19.59
574.48	19.57
574.677	19.6
574.873	19.58
575.069	19.59
575.266	19.68
575.462	19.65
575.658	19.78
575.854	19.84
576.051	19.84
576.247	19.83
576.443	19.84
576.639	19.74
576.835	19.74
577.032	19.7
577.228	19.8
577.424	19.98
577.62	19.88
577.816	19.88
578.012	19.94
578.208	19.92
578.404	19.85
578.6	19.93
578.796	19.99
578.993	20.06
579.189	19.95
579.384	19.82
579.58	19.79
579.776	19.72
579.972	19.61
580.168	19.63
580.364	19.77
580.56	19.73
580.756	19.74
580.952	19.71
581.148	19.7
581.343	19.68
581.539	19.81
581.735	19.81
581.931	19.84
582.127	19.93
582.322	19.8
582.518	19.75
582.714	19.69
582.909	19.71
583.105	19.57
583.301	19.67
583.496	19.63
583.692	19.57
583.888	19.5
584.083	19.6
584.279	19.64
584.474	19.66
584.67	19.77
584.866	19.74
585.061	19.59
585.257	19.54
585.452	19.52
585.648	19.43
585.843	19.49
586.039	19.51
586.234	19.53
586.429	19.49
586.625	19.59
586.82	19.55
587.015	19.62
587.211	19.47
587.406	19.49
587.601	19.42
587.797	19.43
587.992	19.45
588.187	19.62
588.383	19.64
588.578	19.61
588.773	19.71
588.968	19.62
589.163	19.66
589.359	19.62
589.554	19.69
589.749	19.61
589.944	19.77
590.139	19.7
590.334	19.83
590.529	19.82
590.724	19.89
590.919	19.91
591.114	19.95
591.309	19.98
591.504	20.14
591.699	20.11
591.894	20.09
592.089	20.06
592.284	20.05
592.479	20.04
592.674	20.06
592.869	20.19
593.064	20.31
593.259	20.43
593.454	20.5
593.648	20.57
593.843	20.51
594.038	20.57
594.233	20.46
594.428	20.5
594.622	20.56
594.817	20.77
595.012	20.84
595.206	21
595.401	21.06
595.596	21.16
595.79	21.21
595.985	21.29
596.18	21.37
596.374	21.48
596.569	21.55
596.763	21.49
596.958	21.58
597.153	21.65
597.347	21.57
597.542	21.66
597.736	21.75
597.931	21.84
598.125	21.98
598.319	22.12
598.514	22.17
598.708	22.32
598.903	22.24
599.097	22.17
599.291	22.26
599.486	22.24
599.68	22.26
599.874	22.33
600.069	22.39
600.263	22.39
600.457	22.47
600.651	22.47
600.846	22.63
601.04	22.73
601.234	22.72
601.428	22.88
601.622	22.99
601.817	23.02
602.011	23.01
602.205	23.12
602.399	23.06
602.593	23.03
602.787	23.04
602.981	23.06
603.175	23.11
603.369	23.02
603.563	23.07
603.757	23.07
603.951	23.13
604.145	23.09
604.339	23.21
604.533	23
604.727	22.95
604.921	22.88
605.115	22.94
605.309	22.96
605.502	23
605.696	22.94
605.89	22.87
606.084	22.87
606.278	22.77
606.471	22.82
606.665	22.78
606.859	22.72
607.053	22.58
607.246	22.49
607.44	22.43
607.634	22.34
607.827	22.34
608.021	22.14
608.214	22.05
608.408	21.98
608.602	21.95
608.795	21.86
608.989	21.95
609.182	21.95
609.376	21.94
609.569	21.9
609.763	21.83
609.956	21.73
610.15	21.69
610.343	21.58
610.537	21.48
610.73	21.4
610.923	21.27
611.117	21.13
611.31	21.09
611.504	21.04
611.697	20.88
611.89	20.91
612.083	20.9
612.277	20.85
612.47	20.79
612.663	20.83
612.856	20.73
613.05	20.58
613.243	20.47
613.436	20.35
613.629	20.22
613.822	20.05
614.015	19.96
614.209	19.83
614.402	19.88
614.595	19.86
614.788	19.85
614.981	19.82
615.174	19.77
615.367	19.6
615.56	19.51
615.753	19.4
615.946	19.29
616.139	19.26
616.332	19.32
616.525	19.32
616.718	19.4
616.911	19.4
617.103	19.36
617.296	19.3
617.489	19.19
617.682	19.13
617.875	19.13
618.067	19.02
618.26	18.86
618.453	18.87
618.646	18.82
618.838	18.82
619.031	18.96
619.224	19
619.417	18.93
619.609	18.99
619.802	18.88
619.994	18.75
620.187	18.75
620.38	18.73
620.572	18.57
620.765	18.54
620.957	18.48
621.15	18.38
621.342	18.35
621.535	18.43
621.727	18.39
621.92	18.31
622.112	18.26
622.305	18.26
622.497	18.13
622.69	18.13
622.882	18.19
623.074	18.21
623.267	18.17
623.459	18.06
623.651	18.03
623.844	18
624.036	17.98
624.228	17.84
624.42	17.89
624.613	17.95
624.805	17.82
624.997	17.77
625.189	17.83
625.381	17.81
625.574	17.69
625.766	17.66
625.958	17.71
626.15	17.76
626.342	17.77
626.534	17.8
626.726	17.74
626.918	17.66
627.11	17.57
627.302	17.55
627.494	17.41
627.686	17.48
627.878	17.44
628.07	17.44
628.262	17.35
628.454	17.45
628.646	17.36
628.838	17.39
629.029	17.28
629.221	17.3
629.413	17.11
629.605	17.01
629.797	16.91
629.989	16.93
630.18	16.89
630.372	16.91
630.564	16.96
630.755	16.92
630.947	16.92
631.139	16.77
631.33	16.68
631.522	16.7
631.714	16.65
631.905	16.52
632.097	16.52
632.289	16.57
632.48	16.49
632.672	16.41
632.863	16.34
633.055	16.32
633.246	16.31
633.438	16.34
633.629	16.35
633.821	16.42
634.012	16.43
634.203	16.33
634.395	16.3
634.586	16.36
634.777	16.23
634.969	16.27
635.16	16.29
635.351	16.21
635.543	16.17
635.734	16.23
635.925	16.2
636.117	16.28
636.308	16.34
636.499	16.29
636.69	16.25
636.881	16.2
637.073	16.18
637.264	16.15
637.455	16.18
637.646	16.31
637.837	16.37
638.028	16.26
638.219	16.3
638.41	16.19
638.601	16.03
638.792	15.99
638.983	15.95
639.174	15.83
639.365	15.94
639.556	15.98
639.747	15.96
639.938	16.05
640.129	16.1
640.32	16.04
640.511	16.08
640.701	16.17
640.892	16.06
641.083	16.13
641.274	16.16
641.465	16.16
641.655	15.98
641.846	16.03
642.037	15.95
642.228	15.87
642.418	15.85
642.609	16
642.8	16.04
642.99	15.94
643.181	16.02
643.372	15.99
643.562	15.85
643.753	15.8
643.943	15.8
644.134	15.64
644.324	15.61
644.515	15.63
644.705	15.68
644.896	15.74
645.086	15.81
645.277	15.83
645.467	15.8
645.658	15.69
645.848	15.65
646.038	15.62
646.229	15.54
646.419	15.52
646.61	15.47
646.8	15.4
646.99	15.36
647.18	15.31
647.371	15.33
647.561	15.36
647.751	15.34
647.941	15.31
648.132	15.29
648.322	15.21
648.512	15.25
648.702	15.26
648.892	15.32
649.082	15.34
649.272	15.23
649.462	15.04
649.653	14.96
649.843	14.81
650.033	14.75
650.223	14.83
650.413	14.86
650.603	14.92
650.793	15.01
650.983	14.95
651.172	14.73
651.362	14.65
651.552	14.54
651.742	14.41
651.932	14.44
652.122	14.57
652.312	14.58
652.502	14.57
652.691	14.49
652.881	14.42
653.071	14.32
653.261	14.12
653.45	13.92
653.64	13.95
653.83	13.81
654.019	13.72
654.209	13.72
654.399	13.74
654.588	13.6
654.778	13.47
654.968	13.35
655.157	13.31
655.347	13.22
655.536	13.06
655.726	12.91
655.915	12.76
656.105	12.58
656.294	12.51
656.484	12.26
656.673	12.18
656.863	12.09
657.052	11.94
657.241	11.67
657.431	11.49
657.62	11.29
657.809	11.04
657.999	10.82
658.188	10.73
658.377	10.67
658.567	10.61
658.756	10.46
658.945	10.32
659.134	10.16
659.324	10.07
659.513	9.93
659.702	9.77
659.891	9.67
660.08	9.46
660.269	9.39
660.458	9.19
660.648	9.13
660.837	8.97
661.026	8.94
661.215	8.7
661.404	8.62
661.593	8.49
661.782	8.3
661.971	8.32
662.16	8.23
662.349	8.09
662.538	7.94
662.726	7.97
662.915	7.62
663.104	7.41
663.293	7.35
663.482	7.34
663.671	7.14
663.86	7.08
664.048	7.06
664.237	6.94
664.426	6.76
664.615	6.79
664.803	6.79
664.992	6.66
665.181	6.57
665.369	6.55
665.558	6.34
665.747	6.23
665.935	6.29
666.124	6.36
666.312	6.33
666.501	6.34
666.69	6.28
666.878	6.18
667.067	5.98
667.255	5.96
667.444	6.24
667.632	6.25
667.82	6.33
668.009	6.36
668.197	6.32
668.386	6.15
668.574	6.22
668.762	6.12
668.951	6.13
669.139	6.09
669.327	5.86
669.516	5.97
669.704	5.98
669.892	6.08
670.08	6.13
670.269	6.06
670.457	5.86
670.645	5.78
670.833	5.84
671.021	5.9
671.21	6.07
671.398	6.28
671.586	6.3
671.774	6.15
671.962	6.11
672.15	6.22
672.338	6.13
672.526	6.25
672.714	6.18
672.902	6.2
673.09	6.32
673.278	6.57
673.466	6.64
673.654	6.9
673.842	6.9
674.03	6.82
674.218	6.63
674.405	6.69
674.593	6.68
674.781	6.89
674.969	7.01
675.157	7.22
675.344	7.32
675.532	7.44
675.72	7.56
675.908	7.53
676.095	7.43
676.283	7.46
676.471	7.68
676.658	7.63
676.846	7.74
677.033	7.89
677.221	7.97
677.409	7.8
677.596	7.89
677.784	7.98
677.971	7.96
678.159	7.96
678.346	8.05
678.534	8.06
678.721	8.39
678.909	8.51
679.096	8.68
679.283	8.89
679.471	9.09
679.658	8.92
679.846	9.16
680.033	9.41
680.22	9.39
680.408	9.48
680.595	9.68
680.782	9.64
680.969	9.6
681.157	9.77
681.344	9.72
681.531	9.72
681.718	9.84
681.905	10.04
682.093	10.31
682.28	10.66
682.467	11.06
682.654	11.33
682.841	11.39
683.028	11.53
683.215	11.66
683.402	11.55
683.589	11.6
683.776	11.89
683.963	11.88
684.15	12.16
684.337	12.45
684.524	12.7
684.711	12.97
684.898	13.21
685.085	13.33
685.271	13.81
685.458	14.06
685.645	14.22
685.832	14.6
686.019	15.01
686.205	15.08
686.392	15.35
686.579	15.63
686.766	16.03
686.952	16.2
687.139	16.79
687.326	17.04
687.512	17.51
687.699	17.71
687.886	18.07
688.072	18.17
688.259	18.76
688.445	19.01
688.632	19.39
688.818	20.04
689.005	20.44
689.191	20.73
689.378	21.38
689.564	22.03
689.751	22.44
689.937	22.92
690.124	23.62
690.31	23.93
690.496	24.38
690.683	24.92
690.869	25.57
691.055	25.99
691.242	26.77
691.428	27.38
691.614	27.81
691.8	28.56
691.987	29.22
692.173	29.61
692.359	30.29
692.545	31.22
692.731	31.72
692.918	32.39
693.104	32.96
693.29	33.47
693.476	34
693.662	34.66
693.848	35.1
694.034	35.87
694.22	36.32
694.406	36.79
694.592	37.35
694.778	37.97
694.964	38.59
695.15	39.36
695.336	40.07
695.522	40.95
695.708	41.56
695.894	42.16
696.08	42.79
696.265	43.39
696.451	43.82
696.637	44.64
696.823	45.06
697.009	45.56
697.194	45.95
697.38	46.18
697.566	46.42
697.751	47.21
697.937	47.97
698.123	48.44
698.308	49.31
698.494	50
698.68	50.26
698.865	50.7
699.051	51.4
699.236	51.57
699.422	52.06
699.607	52.51
699.793	52.95
699.978	53.21
700.164	53.68
700.349	54.49
700.535	54.87
700.72	55.14
700.906	55.98
701.091	56.64
701.276	56.77
701.462	57.78
701.647	58.49
701.832	58.52
702.018	58.87
702.203	59.27
702.388	59.09
702.573	59.13
702.759	59.86
702.944	60.06
703.129	60.31
703.314	60.83
703.499	61.23
703.684	61.37
703.87	62.52
704.055	63.19
704.24	63.41
704.425	64.07
704.61	64.33
704.795	63.89
704.98	63.93
705.165	64.25
705.35	64.37
705.535	64.78
705.72	65.33
705.905	65.94
706.09	66.35
706.275	66.47
706.459	66.42
706.644	66.48
706.829	66.65
707.014	66.91
707.199	67.28
707.384	67.85
707.568	68.02
707.753	68.2
707.938	68.28
708.123	68.44
708.307	68.44
708.492	68.78
708.677	68.66
708.861	68.61
709.046	68.57
709.231	68.99
709.415	69.02
709.6	69.25
709.784	69.5
709.969	69.84
710.153	69.8
710.338	69.93
710.522	70.1
710.707	70.48
710.891	70.63
711.076	70.69
711.26	70.64
711.445	71.07
711.629	70.97
711.813	71.15
711.998	71.6
712.182	71.69
712.366	71.68
712.551	72.19
712.735	72.16
712.919	71.98
713.103	72.34
713.288	72.34
713.472	72.06
713.656	73.01
713.84	73.55
714.024	73.67
714.208	73.38
714.393	73.82
714.577	73.28
714.761	73.42
714.945	73.58
715.129	73.87
715.313	74.15
715.497	74.1
715.681	74.79
715.865	74.6
716.049	74.84
716.233	74.16
716.417	74.46
716.601	73.47
716.785	73.91
716.968	74.15
717.152	74.51
717.336	74.68
717.52	74.94
717.704	74.9
717.888	75.4
718.071	76.2
718.255	76.28
718.439	75.94
718.622	76.61
718.806	76.51
718.99	76.14
719.174	75.87
719.357	76.65
719.541	76.12
719.724	75.93
719.908	76.53
720.092	77.04
720.275	76.9
720.459	77.27
720.642	76.96
720.826	76.37
721.009	76.1
721.193	75.55
721.376	75.64
721.559	76.13
721.743	76.66
721.926	77.3
722.11	77.95
722.293	77.4
722.476	76.82
722.66	76.44
722.843	76.22
723.026	75.86
723.21	75.99
723.393	76.92
723.576	77.08
723.759	76.67
723.942	76.91
724.126	76.83
724.309	76.78
724.492	76.99
724.675	77.3
724.858	77.74
725.041	79.12
725.224	78.92
725.407	79.19
725.59	79.5
725.774	79.03
725.957	77.85
726.14	77.96
726.322	77.85
726.505	77.97
726.688	78.88
726.871	78.92
727.054	79.31
727.237	79.13
727.42	79.22
727.603	79.17
727.786	79.8
727.968	79.78
728.151	79.83
728.334	79.56
728.517	79.55
728.699	80.15
728.882	80.11
729.065	80.49
729.248	81.22
729.43	81.52
729.613	81.52
729.796	82.15
729.978	81.36
730.161	80.7
730.343	80.19
730.526	80.44
730.708	79.34
730.891	80.4
731.073	80.98
731.256	80.86
731.438	81
731.621	82.74
731.803	82.22
731.986	82.02
732.168	81.46
732.35	81.31
732.533	80.29
732.715	80.79
732.898	81.5
733.08	82.45
733.262	82.43
733.444	82.73
733.627	82.76
733.809	83.3
733.991	84.41
734.173	83.98
734.355	84.07
734.538	84.83
734.72	83.9
734.902	83.13
735.084	83.47
735.266	83.54
735.448	83.77
735.63	84.12
735.812	84.29
735.994	85.82
736.176	86.47
736.358	85.79
736.54	86.5
736.722	85.92
736.904	84.66
737.086	84.39
737.268	85.41
737.45	84.68
737.632	85.26
737.814	84.27
737.995	84.19
738.177	83.5
738.359	83.29
738.541	84.08
738.723	85.49
738.904	86.22
739.086	86.27
739.268	86.34
739.449	86.67
739.631	86.12
739.813	86.03
739.994	86.58
740.176	87.92
740.358	87.29
740.539	89.31
740.721	88.94
740.902	89.54
741.084	88.32
741.265	88.21
741.447	87.45
741.628	88.34
741.81	86.84
741.991	87.59
742.172	88.44
742.354	88.75
742.535	87.96
742.717	89.07
742.898	89
743.079	88.89
743.261	89.14
743.442	89.24
743.623	90.12
743.804	90.01
743.986	90.74
744.167	88.48
744.348	88.1
744.529	87.18
744.71	86.48
744.891	85.41
745.073	85.53
745.254	85.28
745.435	84.5
745.616	84.06
745.797	83.35
745.978	83.71
746.159	84.04
746.34	83.19
746.521	85.11
746.702	84.48
746.883	84.72
747.064	84.88
747.245	85.93
747.426	85.47
747.606	87.12
747.787	87.31
747.968	87.6
748.149	88.44
748.33	88.76
748.51	88.5
748.691	88.56
748.872	89.11
749.053	88.18
749.233	86.66
749.414	85.44
749.595	84.18
749.775	83
749.956	82.97
750.137	83.71
750.317	85.05
750.498	87.33
750.678	87.28
750.859	87.73
751.04	87.72
751.22	86.17
751.4	85.27
751.581	85.2
751.761	84.25
751.942	84.65
752.122	85.01
752.303	84.14
752.483	83.64
752.663	83.46
752.844	82.27
753.024	84.08
753.204	84.92
753.385	85.16
753.565	85.58
753.745	85.79
753.925	84.47
754.106	83.48
754.286	83.86
754.466	84.59
754.646	85.49
754.826	84.47
755.006	83.91
755.187	84.4
755.367	84.82
755.547	84.55
755.727	87.24
755.907	88.13
756.087	88.1
756.267	86.49
756.447	87.26
756.627	84.3
756.807	85.04
756.987	84.81
757.167	86.24
757.346	85.54
757.526	86.69
757.706	86.4
757.886	86.59
758.066	86.78
758.246	89.29
758.425	88.41
758.605	87.66
758.785	88.06
758.965	86.9
759.144	83.18
759.324	83.75
759.504	84.88
759.683	84.53
759.863	83.48
760.043	83.1
760.222	81.86
760.402	80.95
760.581	80.24
760.761	83.38
760.94	84.07
761.12	86.88
761.299	87.46
761.479	86.89
761.658	83.44
761.838	83.19
762.017	82.24
762.197	81.41
762.376	82.52
762.555	84.34
762.735	84.35
762.914	81.71
763.093	82.98
763.273	81.85
763.452	81.17
763.631	81.77
763.81	82.02
763.99	80.2
764.169	79.66
764.348	78.04
764.527	75.8
764.706	77.78
764.885	79.63
765.064	79.52
765.243	80.9
765.423	83.66
765.602	83.27
765.781	80.16
765.96	79.45
766.139	78.08
766.318	77.8
766.497	77.39
766.676	79.04
766.854	81.34
767.033	83.1
767.212	80.86
767.391	81.31
767.57	82.41
767.749	81.56
767.928	82.4
768.106	83.06
768.285	80.9
768.464	79.31
768.643	78.77
768.821	77.6
769	80.12
769.179	80.92
769.357	79.83
769.536	79.54
769.715	78.43
769.893	76.74
770.072	74.97
770.25	76.44
770.429	77.17
770.607	77.91
770.786	77.07
770.964	81.01
771.143	78.67
771.321	80.15
771.5	81.42
771.678	82.86
771.857	79.33
772.035	80.72
772.213	78.22
772.392	75.6
772.57	77.36
772.748	76.98
772.927	76.13
773.105	76.55
773.283	78.13
773.461	76.97
773.64	78.52
773.818	79.01
773.996	79.87
774.174	77.13
774.352	72.7
774.531	71.61
774.709	73.1
774.887	70.58
775.065	70.91
775.243	72.72
775.421	74.13
775.599	75.21
775.777	74.93
775.955	74.55
776.133	73.95
776.311	74.28
776.489	70.79
776.667	72.25
776.844	73.87
777.022	73.47
777.2	73.54
777.378	74.68
777.556	75.12
777.734	79.05
777.911	82.38
778.089	81.02
778.267	80.3
778.445	79.01
778.622	74.38
778.8	72.63
778.978	75.15
779.155	76.45
779.333	77.02
779.511	77.49
779.688	80.75
779.866	76.44
780.043	73.11
780.221	73.29
780.398	70.65
780.576	68.06
780.753	69.88
780.931	70.53
781.108	70.81
781.286	75.06
781.463	72.03
781.64	70.02
781.818	74.41
781.995	74.78
782.172	72.85
782.35	75.28
782.527	79.19
782.704	75.7
782.882	75.69
783.059	76.22
783.236	76.09
783.413	76.4
783.59	77.66
783.768	76.5
783.945	77.57
784.122	79.62
784.299	80.09
784.476	78.4
784.653	76.02
784.83	70.83
785.007	64.64
785.184	64.14
785.361	63.25
785.538	70.22
785.715	76.65
785.892	80.57
786.069	79.4
786.246	81.93
786.423	77.36
786.6	73.66
786.776	74.28
786.953	72.6
787.13	75.37
787.307	74.17
787.484	74.96
787.66	72.92
787.837	74.22
788.014	68.12
788.191	68.79
788.367	65.25
788.544	69.47
788.721	67.97
788.897	72.04
789.074	73.47
789.25	73.23
789.427	73.68
789.603	72.48
789.78	70.74
789.956	68.66
790.133	69.15
790.309	67.81
790.486	74.41
790.662	72.43
790.839	72.51
791.015	74.73
791.192	70.68
791.368	70.51
791.544	68.71
791.721	68.44
791.897	65.29
792.073	63.77
792.249	53.27
792.426	57.73
792.602	61.2
792.778	64.58
792.954	64.52
793.13	71.69
793.307	65.34
793.483	56.24
793.659	55.62
793.835	58.62
794.011	51.21
794.187	53.99
794.363	54.6
794.539	58.25
794.715	55.44
794.891	56.31
795.067	57.27
795.243	65.81
795.419	62.7
795.595	61.14
795.771	62.89
795.947	64.04
796.122	59.36
796.298	60.06
796.474	63.66
796.65	66.37
796.826	63.13
797.001	65.88
797.177	61.02
797.353	62.79
797.529	62.94
797.704	65.78
797.88	65.07
798.056	61.4
798.231	62.1
798.407	63.79
798.582	61.33
798.758	65.98
798.934	79.16
799.109	75.22
799.285	71.16
799.46	76.52
799.636	74.09
799.811	71.91
799.986	73.75
800.162	76.65
800.337	75.23
800.513	69.77
800.688	69.62
800.863	82.05
801.039	75.21
801.214	74.85
801.389	81.07
801.565	78.89
801.74	59.84
801.915	70.68
802.09	69.82
802.265	72.06
802.441	69.49
802.616	72.4
802.791	67.6
802.966	63.69
803.141	59.7
803.316	55.15
803.491	59.52
803.666	62.73
803.841	60.97
804.016	59.89
804.191	66.81
804.366	65.12
804.541	62.21
804.716	63.46
804.891	59.44
805.066	64.46
805.241	64.15
805.416	61.84
805.591	58.24
805.765	62.22
805.94	61.22
806.115	58.19
806.29	56.72
806.464	60.36
806.639	55.77
806.814	47.16
806.989	42.77
807.163	50.61
807.338	48.88
807.512	50.4
807.687	41.69
807.862	57.65
808.036	55.69
808.211	61.71
808.385	65.09
808.56	76.4
808.734	69.5
808.909	65.63
809.083	55.73
809.258	67.46
809.432	68.28
809.606	64.12
809.781	65.48
809.955	69.34
810.13	62.57
810.304	57.2
810.478	48.88
810.652	58.84
810.827	62.32
811.001	60.46
811.175	59.01
811.349	61.51
811.524	48.41
811.698	33.06
811.872	30.04
812.046	39.02
812.22	51.19
812.394	50.98
812.568	68.56
812.742	74.5
812.916	65.66
813.09	60.06
813.264	63.92
813.438	55.03
813.612	47.91
813.786	51.03
813.96	50.74
814.134	50.32
814.308	67.64
814.482	73.36
814.656	67.05
814.83	70.87
815.003	72.52
815.177	49.67
815.351	44.66
815.525	48.09
815.698	41.3
815.872	38.54
816.046	38.48
816.219	50.61
816.393	65.26
816.567	75.41
816.74	79.38
816.914	87.97
817.088	93.19
817.261	81.85
817.435	75.85
817.608	77.44
817.782	75.61
817.955	71.03
818.129	64.69
818.302	63.51
818.475	64.75
818.649	67.48
818.822	52.71
818.996	69.84
819.169	77.59
819.342	68.44
819.516	77.22
819.689	93.38
819.862	76.22
820.035	62.71
820.209	58.92
820.382	55.59
820.555	44.41
820.728	31.47
820.901	32.85
821.075	36.87
821.248	28.55
821.421	30.05
821.594	36.31
821.767	50.7
821.94	64.8
822.113	46.31
822.286	38.78
822.459	52.29
822.632	47.88
822.805	23.55
822.978	32.93
823.151	26.39
823.324	10.31
823.496	-14.22
823.669	-14.34
823.842	-1.23
824.015	-9.18
824.188	-13.14
824.361	-2.83
824.533	15.61
824.706	18.8
824.879	27.95
825.051	43.27
825.224	48.53
825.397	21.92
825.569	-2.89
825.742	21.59
825.915	38.03
826.087	55.03
826.26	50.33
826.432	69.3
826.605	60.74
826.777	39.67
826.95	32.4
827.122	25.1
827.295	26.49
827.467	34.47
827.64	20.67
827.812	8.64
827.984	28.68
828.157	11.21
828.329	-17.61
828.501	1.86
828.674	35.61
828.846	13.22
829.018	39.35
829.19	34.87
829.363	57.03
829.535	55.96
829.707	76.9
829.879	46.98
830.051	49.78
830.223	28.66
830.395	11.17
830.568	-9.79
830.74	-2.73
830.912	32.31
831.084	8.88
831.256	11.86
831.428	19.76
831.6	13.47
831.772	-40.61
831.943	-41.61
832.115	-26.06
832.287	-7.72
832.459	8.24
832.631	29.51
832.803	54.09
832.975	78.51
833.146	57.7
833.318	47.63
833.49	52.96
833.662	15.93
833.833	-9.46
834.005	15.05
834.177	24.68
834.348	26.31
834.52	42.27
834.692	60.94
834.863	21.68
835.035	22.16
835.206	-31.17
835.378	-23.17
835.549	-36.88
835.721	-9.22
835.892	-21.94
836.064	-5.02
836.235	-5.17
836.407	37.34
836.578	13.43
836.749	1.36
836.921	-28.15
837.092	-59.53
837.264	-87.36
837.435	-91.79
837.606	-32.11
837.777	-0.86
837.949	24.42
838.12	39.36
838.291	53.49
838.462	49.64
838.633	21.13
838.805	16.97
838.976	27.44
839.147	-10.14
839.318	-49
839.489	-80.69
839.66	-54.73
839.831	-36.08
840.002	-23.22
840.173	-14.36
840.344	57.87
840.515	75.47
840.686	-28.14
840.857	-12.93
841.028	-39.93
841.199	-41.22
841.369	-87.42
841.54	-53.62
841.711	-20.36
841.882	43.82
842.053	26.27
842.223	18.33
842.394	16.57
842.565	5.2
842.736	1.81
842.906	15.29
843.077	47.26
843.248	84.06
843.418	72.47
843.589	12.48
843.759	74.27
843.93	47.03
844.101	10.5
844.271	39.42
844.442	67.6
844.612	60.96
844.783	24.46
844.953	3.54
845.123	-37.48
845.294	-28.57
845.464	-218.81
845.635	-45.54
845.805	46.02
845.975	54.64
846.146	-29.47
846.316	-30.47
846.486	4.65
846.656	35.83
846.827	28.41
846.997	36.97
847.167	87.05
847.337	24.03
847.507	-32.87
847.677	-19.89
847.848	39.39
848.018	29.69
848.188	47.22
848.358	36.05
848.528	12.16
848.698	-16.6
848.868	-83.31
849.038	-189.29
849.208	-35.41
849.378	57.25
849.548	24.67
849.718	44.15
849.887	63.45
850.057	34.04
850.227	-11.8
850.397	-11.89
850.567	-121.61
850.737	-219.57
850.906	-1028.75
851.076	-612.5
851.246	-228.27
851.415	-0.63
851.585	1.97
851.755	17.28
851.924	25.64
852.094	-0.58
852.264	-67.26
852.433	-947.12
852.603	-223.76
852.772	-127.3
852.942	-85.41
853.111	-80.68
853.281	-7.14
853.45	5.34
853.62	-86.11
853.789	-71.95
853.959	-27.1
854.128	-75.16
854.297	-66.37
854.467	-102.99
854.636	-126.79
854.805	-54.51
854.975	-74.71
855.144	-175.34
855.313	24.48
855.482	-175.91
855.652	-172.54
855.821	-159.01
855.99	8.81
856.159	5.76
856.328	23
856.497	20.45
856.667	25.97
856.836	27.98
857.005	10.93
857.174	-23.51
857.343	-49.78
857.512	16.27
857.681	-44.26
857.85	-104.59
858.019	-47.11
858.188	-28.82
858.356	-39.61
858.525	-95.28
858.694	-64.8
858.863	-149.9
859.032	-130.45
859.201	-311.56
859.369	-176.28
859.538	-103.62
859.707	-37.08
859.876	-12.84
860.044	58.81
860.213	56.65
860.382	47.84
860.55	27.68
860.719	55.24
860.888	62.42
861.056	37.88
861.225	23.01
861.393	93.15
861.562	77.5
861.73	-16.6
861.899	-99.48
862.067	-1317.24
862.236	-130.33
862.404	-318.44
862.572	-177.2
862.741	-58.46
862.909	-41.04
863.078	-148.63
863.246	-76.22
863.414	-67.37
863.582	-29.02
863.751	-40.74
863.919	-31.15
864.087	24.31
864.255	50.84
864.424	-208.37
864.592	15.05
864.76	42.36
864.928	188.8
865.096	17.83
865.264	72.51
865.432	-247.73
865.6	181
865.768	-35.38
865.936	-57.05
866.104	-32.96
866.272	-5.94
866.44	-256.69
866.608	430.98
866.776	227.52
866.944	2437.21
867.112	-512.71
867.28	-207.83
867.448	-70.69
867.615	-21.69
867.783	-12.93
867.951	-40.29
868.119	13.25
868.286	-21.48
868.454	-117.57
868.622	-131.26
868.789	-55.64
868.957	-1228.57
869.125	-1668.42
869.292	-134.4
869.46	-147.5
869.627	-7.51
869.795	-36.74
869.963	-12.53
870.13	32
870.298	49.02
870.465	-30.06
870.632	-63.28
870.8	-19.8
870.967	-59.51
871.135	-145.98
871.302	-113.25
871.469	-55.31
871.637	18.86
871.804	-22.14
871.971	-50.59
872.139	-166.51
872.306	37.34
872.473	-44.5
872.64	-238.63
872.807	-23.7
872.975	51.52
873.142	-181.45
873.309	1364.86
873.476	106.16
873.643	188.34
873.81	129.17
873.977	144.36
874.144	104.69
874.311	-4.47
874.478	-91.69
874.645	-112.28
874.812	-72.54
874.979	17.99
875.146	-2.11
875.313	-35.29
875.48	36.71
875.647	18.04
875.813	-53
875.98	-21.5
876.147	-39.91
876.314	-119.08
876.481	1076.86
876.647	-1100
876.814	452.85
876.981	20.38
877.147	16.87
877.314	43.98
877.481	69.9
877.647	68.67
877.814	31.56
877.98	21.1
878.147	68.16
878.314	83.77
878.48	46.97
878.647	69.35
878.813	102.2
878.979	71.18
879.146	34.07
879.312	49.8
879.479	13.29
879.645	-60.85
879.811	-159.31
879.978	-415.27
880.144	-157.87
880.31	-71.29
880.477	-305.78
880.643	-374.3
880.809	-111.21
880.975	-52.9
881.142	-614.55
881.308	-47.07
881.474	4.19
881.64	-29.32
881.806	-93.5
881.972	-9.91
882.138	-11.39
882.304	-11.53
882.47	-127.59
882.636	-600.82
882.802	-135.99
882.968	-1.09
883.134	-8.29
883.3	-1.12
883.466	28.04
883.632	59.3
883.798	19.26
883.964	9.52
884.129	24.72
884.295	75.41
884.461	-20.83
884.627	-36.65
884.793	-47.56
884.958	-46.29
885.124	-139.66
885.29	-230.74
885.455	-285.92
885.621	-47.2
885.787	-33.42
885.952	-41.15
886.118	-31.04
886.283	-58.59
886.449	-123.73
886.614	-145.89
886.78	-149.23
886.945	449.18
887.111	-369.94
887.276	-356.82
887.442	-560
887.607	-301.89
887.773	-252.55
887.938	-185.9
888.103	-240.87
888.269	-115.96
888.434	-221.08
888.599	-42.89
888.764	74.8
888.93	82.74
889.095	19.45
889.26	-10.16
889.425	36.28
889.59	73.72
889.756	34.64
889.921	28.59
890.086	70.5
890.251	23.48
890.416	-144.39
890.581	-1153.23
890.746	130
890.911	336.94
891.076	167.11
891.241	-332.09
891.406	-11.87
891.571	-94.08
891.736	-278.44
891.901	-462.83
892.065	578.02
892.23	117.06
892.395	182.19
892.56	262.14
892.725	-373.44
892.889	-1165.85
893.054	-248.26
893.219	-68.02
893.384	-16.82
893.548	-32.44
893.713	-41.98
893.878	-5.14
