Data from Ofra_1a_PS_2CX8_Reflection_2.txt Node
Date: Tue Jul 20 10:47:48 EDT 2021
User: Adam
Spectrometer: FLMT01687
Trigger mode: 0
Integration Time (sec): 1.004000E0
Scans to average: 2
Electric dark correction enabled: true
Nonlinearity correction enabled: false
Boxcar width: 2
XAxis mode: Wavelengths
Number of Pixels in Spectrum: 3648
>>>>>Begin Spectral Data<<<<<
179.494	-246.19
179.716	-367.94
179.937	682.61
180.158	-635.03
180.38	123.11
180.601	61.64
180.823	-28.97
181.044	66.32
181.265	174.94
181.486	131.86
181.708	85.7
181.929	1645.45
182.15	-28.91
182.372	112.81
182.593	207.52
182.814	-144.82
183.035	-38.02
183.257	21.14
183.478	-0.02
183.699	-16.79
183.92	-36.66
184.141	-55.49
184.363	-56.43
184.584	-71.28
184.805	-26.16
185.026	0.81
185.247	12.94
185.468	15.38
185.689	20.12
185.91	-3.1
186.132	8.99
186.353	25.32
186.574	12.33
186.795	19.82
187.016	15.55
187.237	12.12
187.458	-7.86
187.679	23.07
187.9	34.8
188.121	52
188.342	54.66
188.563	81.53
188.784	56.81
189.005	37.29
189.226	31.61
189.447	10.83
189.667	-6.29
189.888	-5.32
190.109	-4.18
190.33	11.98
190.551	41.68
190.772	74.83
190.993	63.73
191.214	84.64
191.434	139.69
191.655	104.35
191.876	63.62
192.097	97.76
192.318	58.56
192.538	11.12
192.759	22.3
192.98	25.84
193.201	11.73
193.421	17.46
193.642	26.28
193.863	28.42
194.083	30.26
194.304	52.94
194.525	36.43
194.745	44.06
194.966	39.54
195.187	29.9
195.407	6.68
195.628	19.3
195.848	1.98
196.069	-26.42
196.29	-35.97
196.51	-34.24
196.731	-45.68
196.951	-37.48
197.172	-6.67
197.392	-1.83
197.613	30.11
197.833	28.22
198.054	32.59
198.274	23.07
198.495	9.35
198.715	-16.14
198.936	0.84
199.156	5.49
199.377	10.05
199.597	38.74
199.817	27.41
200.038	-6.88
200.258	17.27
200.479	23.75
200.699	6.87
200.919	22.9
201.14	41.48
201.36	32.22
201.58	14.15
201.801	17.21
202.021	-11.88
202.241	-9.61
202.461	0.26
202.682	4.9
202.902	8.37
203.122	29.25
203.342	26.32
203.563	8.28
203.783	14.55
204.003	6.27
204.223	17.43
204.443	34.42
204.663	59.95
204.884	61.42
205.104	77.4
205.324	78.81
205.544	27.16
205.764	15.75
205.984	-16.21
206.204	-42.56
206.424	-70.32
206.644	-58.72
206.864	-93.66
207.084	-28.4
207.304	-17.44
207.525	-19.28
207.745	-4.3
207.964	13.65
208.184	8.78
208.404	10.86
208.624	40.67
208.844	41.26
209.064	38.16
209.284	34.07
209.504	18.05
209.724	-8.68
209.944	-32.76
210.164	-33
210.384	-36.45
210.604	-84.77
210.823	-87.99
211.043	-51
211.263	-101
211.483	-84.95
211.703	-39.91
211.922	-55.35
212.142	-16.32
212.362	4.88
212.582	-1.57
212.801	-11.07
213.021	-14.3
213.241	-25.6
213.461	-33.42
213.68	-8.59
213.9	-12.87
214.12	-14.67
214.339	-29.27
214.559	-13
214.779	-15.12
214.998	19.73
215.218	26.2
215.438	33.68
215.657	26.05
215.877	8.83
216.096	13.93
216.316	18.15
216.535	0.77
216.755	2.5
216.974	0.2
217.194	-4.53
217.413	-10.21
217.633	1.5
217.852	13.76
218.072	32.65
218.291	28.89
218.511	34.4
218.73	37.8
218.95	6.26
219.169	-39.12
219.389	-39.01
219.608	-46.09
219.827	-34.53
220.047	-3.22
220.266	-3.21
220.485	-4.01
220.705	5.08
220.924	-11.27
221.143	-6.01
221.363	7.42
221.582	-1.39
221.801	9.62
222.021	21.87
222.24	8.42
222.459	36.43
222.678	55.46
222.897	33.7
223.117	41.66
223.336	53.74
223.555	21.81
223.774	-9.81
223.993	30.45
224.213	24.4
224.432	25.68
224.651	31.11
224.87	33.19
225.089	18.85
225.308	29.4
225.527	21.14
225.746	35.03
225.965	43.12
226.184	38.37
226.404	3.87
226.623	-0.92
226.842	-11.86
227.061	-20.26
227.28	2.97
227.499	15.83
227.718	25.16
227.936	24.04
228.155	12.4
228.374	13.41
228.593	22.86
228.812	7.48
229.031	21.51
229.25	25.91
229.469	4.21
229.688	-1.93
229.907	27.54
230.125	18.51
230.344	31.21
230.563	42.18
230.782	50.5
231.001	36.91
231.22	44.48
231.438	40.58
231.657	42.24
231.876	24.71
232.095	16.41
232.313	10.11
232.532	-2.72
232.751	-19.05
232.969	-2.55
233.188	-1.18
233.407	-5.71
233.625	13.99
233.844	6.37
234.063	-3.88
234.281	0.9
234.5	11.37
234.719	-0.63
234.937	-8.5
235.156	-4.79
235.374	1.63
235.593	-4.91
235.811	14.7
236.03	28.7
236.249	32.29
236.467	18.33
236.686	18.99
236.904	14.29
237.123	9.92
237.341	-4.76
237.559	16.53
237.778	18.4
237.996	-24.8
238.215	-81.55
238.433	-105.66
238.652	-69.32
238.87	-73.72
239.088	-48.96
239.307	-33.34
239.525	-15.21
239.743	-12.67
239.962	-40.55
240.18	-22.6
240.398	-2.56
240.617	-15.47
240.835	-8.93
241.053	21.17
241.271	20.76
241.49	22.03
241.708	21.29
241.926	4.46
242.144	5.28
242.363	-19.47
242.581	-34.6
242.799	-36.07
243.017	-12.38
243.235	-5
243.453	-1.76
243.672	19.8
243.89	26.01
244.108	54.77
244.326	54.6
244.544	56.01
244.762	36.57
244.98	33.99
245.198	25.19
245.416	17.23
245.634	4.07
245.852	-12.84
246.07	-6.42
246.288	-14.32
246.506	-24.47
246.724	-5.94
246.942	6.87
247.16	15.54
247.378	-2.34
247.596	28.66
247.814	17.05
248.032	17.87
248.25	17.37
248.468	28.6
248.685	27.61
248.903	16.02
249.121	19.28
249.339	13.48
249.557	13.48
249.775	3.06
249.992	22.29
250.21	16.07
250.428	22.31
250.646	20.13
250.863	8.1
251.081	0.62
251.299	5.85
251.517	14.7
251.734	15.69
251.952	20.42
252.17	17.88
252.387	2.77
252.605	-1.54
252.823	-7.05
253.04	23.07
253.258	30.53
253.475	38.41
253.693	24.52
253.911	16.29
254.128	3.02
254.346	15.11
254.563	24.54
254.781	24.93
254.998	8.45
255.216	-34.39
255.433	-69.98
255.651	-63.17
255.868	-42.22
256.086	-3.67
256.303	18.09
256.521	40.48
256.738	23.8
256.956	12.96
257.173	-8.46
257.39	4.13
257.608	-3.76
257.825	-1.62
258.043	10.24
258.26	17.96
258.477	23.24
258.695	23
258.912	31.97
259.129	25.87
259.346	39.87
259.564	59.51
259.781	45.37
259.998	20.2
260.216	41.47
260.433	20.94
260.65	13.11
260.867	22.69
261.084	41.51
261.302	25.27
261.519	47.06
261.736	42.28
261.953	31.82
262.17	33.7
262.387	19.52
262.604	19.14
262.822	18.87
263.039	26.02
263.256	17.7
263.473	30.6
263.69	21.36
263.907	17.95
264.124	30.18
264.341	34.77
264.558	28.91
264.775	33.49
264.992	49.89
265.209	19.87
265.426	12.37
265.643	-0.02
265.86	-9.18
266.077	-38.14
266.294	-1.08
266.51	35.31
266.727	46.09
266.944	72.45
267.161	67.08
267.378	62.4
267.595	36.61
267.812	26.3
268.028	-18.14
268.245	-17.26
268.462	-14.95
268.679	6.32
268.896	12.15
269.112	18.78
269.329	-4.47
269.546	17.09
269.763	9.46
269.979	6.63
270.196	21.97
270.413	38.77
270.629	17.44
270.846	15.17
271.063	22.56
271.279	13.79
271.496	-2.47
271.712	14.32
271.929	32.88
272.146	20.06
272.362	27.49
272.579	13.74
272.795	6.37
273.012	-1.34
273.228	28.98
273.445	8.54
273.661	20.98
273.878	13.17
274.094	-1.45
274.311	-6.51
274.527	-19.47
274.744	-16.38
274.96	-9.48
275.177	1.98
275.393	-3.1
275.609	17.76
275.826	12.01
276.042	13.63
276.259	14.35
276.475	11.69
276.691	-9.77
276.908	3.04
277.124	7.93
277.34	2.92
277.557	3.03
277.773	20.81
277.989	14.7
278.205	9.07
278.422	11.3
278.638	12.48
278.854	7.26
279.07	24.83
279.286	22.93
279.503	23.28
279.719	32.81
279.935	26.1
280.151	11.44
280.367	17.81
280.583	4.42
280.799	2.26
281.016	-10.86
281.232	6.95
281.448	-3.29
281.664	6.29
281.88	16.4
282.096	22.67
282.312	27.53
282.528	34.45
282.744	44.1
282.96	28.94
283.176	36.47
283.392	19.08
283.608	20.16
283.824	-18.2
284.04	-48.87
284.256	-5.59
284.471	-4.57
284.687	-14.13
284.903	-9.05
285.119	18.49
285.335	10.53
285.551	13.02
285.767	26.24
285.982	33.31
286.198	-14.1
286.414	-6.91
286.63	-36.99
286.846	-47.81
287.061	-13.57
287.277	7.52
287.493	-10.14
287.709	-1.28
287.924	3.3
288.14	15.35
288.356	14.54
288.571	22.58
288.787	15.69
289.003	25.2
289.218	-5.29
289.434	-6.22
289.65	4.63
289.865	15.37
290.081	15.9
290.296	22.88
290.512	24.92
290.727	11.16
290.943	2.25
291.159	1.63
291.374	-18.43
291.59	-7.82
291.805	-12.35
292.021	-2.76
292.236	-8.72
292.451	15.13
292.667	14.6
292.882	18.41
293.098	19.6
293.313	13
293.529	6.27
293.744	-7.99
293.959	-6.55
294.175	-18.66
294.39	-31.67
294.605	-18.68
294.821	-9.82
295.036	-4.62
295.251	8.4
295.467	11.7
295.682	21.09
295.897	18.82
296.112	11.64
296.328	22.46
296.543	26.38
296.758	17.66
296.973	7.63
297.188	4.21
297.404	-43.89
297.619	-51.14
297.834	-69.32
298.049	-46.47
298.264	-33.61
298.479	-4.4
298.694	15.68
298.909	20.77
299.125	16.68
299.34	13.14
299.555	2
299.77	8.37
299.985	10.63
300.2	16.11
300.415	21.3
300.63	30.14
300.845	19.53
301.06	24.58
301.275	29.98
301.49	32.04
301.704	26.9
301.919	33.42
302.134	28.68
302.349	16.88
302.564	6.1
302.779	-12.54
302.994	-12.09
303.209	-0.87
303.423	10.17
303.638	33.95
303.853	32.29
304.068	24.98
304.283	5.17
304.497	-14.73
304.712	-15.2
304.927	0.82
305.142	16.54
305.356	27.76
305.571	34.7
305.786	27.56
306	39
306.215	30.45
306.43	19.65
306.644	5.14
306.859	-8.37
307.074	-20.31
307.288	0.72
307.503	16.26
307.717	21.94
307.932	34.61
308.147	31.97
308.361	11.49
308.576	-10.98
308.79	-3.74
309.005	-25.72
309.219	-8.57
309.434	3.98
309.648	1.99
309.863	-3.46
310.077	8.56
310.292	16.45
310.506	1.77
310.72	5.11
310.935	30.13
311.149	23.18
311.364	16.04
311.578	32.8
311.792	32.15
312.007	-10.89
312.221	-21.81
312.435	-20.63
312.649	-4.29
312.864	5.41
313.078	24.01
313.292	35.74
313.507	47.44
313.721	28.66
313.935	37.27
314.149	36.39
314.363	24.6
314.578	22.04
314.792	7.04
315.006	-0.49
315.22	-1.57
315.434	10.11
315.648	4.84
315.862	24.22
316.077	8.03
316.291	4.21
316.505	-13.8
316.719	-5.5
316.933	-8.21
317.147	-2.55
317.361	-10.57
317.575	-3.19
317.789	8.72
318.003	3.73
318.217	11.98
318.431	21.16
318.645	30.3
318.859	19.56
319.073	24.82
319.287	22.37
319.5	22.83
319.714	15.54
319.928	20.84
320.142	22.5
320.356	35.69
320.57	29.9
320.784	36.65
320.997	13.9
321.211	9.58
321.425	-21.49
321.639	-0.87
321.853	15.15
322.066	24.52
322.28	33.7
322.494	38.94
322.707	28.52
322.921	2.76
323.135	6.34
323.349	3.54
323.562	10.02
323.776	19.67
323.989	34.48
324.203	21.23
324.417	20.82
324.63	-1.32
324.844	-16.31
325.057	-49.8
325.271	-38.49
325.485	-55.81
325.698	-12.45
325.912	0.92
326.125	7.12
326.339	16.19
326.552	16.39
326.766	-10.87
326.979	2.75
327.193	7.82
327.406	-5.5
327.619	8.55
327.833	7.42
328.046	-1.17
328.26	3.22
328.473	5.02
328.686	6.97
328.9	16.97
329.113	15.97
329.326	10.3
329.54	19.48
329.753	18.85
329.966	25.68
330.179	23.78
330.393	28.18
330.606	22.54
330.819	20.73
331.032	3.66
331.246	11.8
331.459	24.22
331.672	20.86
331.885	11.5
332.098	42.78
332.311	24.48
332.525	12.26
332.738	14.02
332.951	6.92
333.164	-2.64
333.377	4.19
333.59	-1.7
333.803	-13.57
334.016	-6.84
334.229	-5.78
334.442	-2.45
334.655	6.31
334.868	19.23
335.081	15.29
335.294	11.11
335.507	25.11
335.72	18.5
335.933	19.98
336.146	36.52
336.359	37.52
336.572	28.76
336.785	23.33
336.997	8.12
337.21	-2.86
337.423	-37.32
337.636	-29.57
337.849	-0.97
338.062	6.93
338.274	29.39
338.487	30.5
338.7	12.14
338.913	1.32
339.125	-7.28
339.338	-31.24
339.551	-19.68
339.763	-5.38
339.976	-6.09
340.189	-3.91
340.402	19.52
340.614	12.22
340.827	22.36
341.039	11.56
341.252	10.13
341.465	-9.44
341.677	-12.06
341.89	-28.58
342.102	-1.58
342.315	10.44
342.527	23.24
342.74	17.09
342.952	23.24
343.165	6.19
343.377	12.02
343.59	21.85
343.802	29.06
344.015	36.98
344.227	33.41
344.44	17.13
344.652	7.42
344.864	20.28
345.077	20.72
345.289	28.16
345.502	44.02
345.714	40.28
345.926	33.61
346.139	4.55
346.351	6.76
346.563	14.16
346.775	38.83
346.988	31.76
347.2	45.38
347.412	48.22
347.624	32.4
347.837	28.6
348.049	26.96
348.261	18.06
348.473	7.48
348.685	7.03
348.897	-9.62
349.11	-1.45
349.322	6.17
349.534	2.42
349.746	2.47
349.958	-2.76
350.17	-10.8
350.382	-5.83
350.594	1.68
350.806	16.35
351.018	20.5
351.23	22.01
351.442	27.43
351.654	28.79
351.866	22.73
352.078	22.52
352.29	20.7
352.502	9.78
352.714	13.26
352.926	7.15
353.138	10.69
353.35	7.8
353.561	14.85
353.773	0.46
353.985	3.8
354.197	7.75
354.409	12.64
354.621	1
354.832	1.35
355.044	-14.39
355.256	-32.85
355.468	-44.66
355.679	-9.89
355.891	6.3
356.103	0.58
356.314	18.71
356.526	12.38
356.738	5.45
356.949	2.33
357.161	20.71
357.373	-1.47
357.584	9.83
357.796	13.79
358.008	14.62
358.219	16.65
358.431	25.38
358.642	32.11
358.854	20.09
359.065	10.96
359.277	10.01
359.488	6.18
359.7	-4.87
359.911	-10.73
360.123	-1.93
360.334	-5.02
360.546	-8.2
360.757	-0.64
360.969	13.85
361.18	5.89
361.391	15.8
361.603	22.85
361.814	17.61
362.025	16.96
362.237	20.39
362.448	20.53
362.659	17.53
362.871	9.16
363.082	3.68
363.293	-5.25
363.504	-25.17
363.716	-30.14
363.927	-7.43
364.138	-28.72
364.349	-25.3
364.56	-39.93
364.772	-22.65
364.983	-20.53
365.194	1.74
365.405	7.73
365.616	22.8
365.827	10.46
366.038	16.47
366.25	19.21
366.461	24.42
366.672	23.91
366.883	25.02
367.094	16.75
367.305	-0.95
367.516	4.53
367.727	0.94
367.938	4.85
368.149	4.06
368.36	7.29
368.571	-28.53
368.781	-31.4
368.992	-22.23
369.203	-27.21
369.414	-34.33
369.625	-12.3
369.836	17.48
370.047	11.4
370.258	22.44
370.468	24.57
370.679	14.47
370.89	-10.43
371.101	10.34
371.312	2.92
371.522	6.97
371.733	6.95
371.944	-2.91
372.155	-11.25
372.365	-6.04
372.576	-6.75
372.787	1.13
372.997	1.46
373.208	-10.9
373.419	-15.64
373.629	-16.52
373.84	-23.52
374.05	-26.88
374.261	-44.04
374.472	-23.3
374.682	-23.49
374.893	-36.13
375.103	-15.79
375.314	0.79
375.524	1.55
375.735	11.79
375.945	21.39
376.156	13.32
376.366	14.24
376.577	2.76
376.787	4.43
376.997	0.95
377.208	6.3
377.418	7.56
377.629	15.63
377.839	16.79
378.049	30.81
378.26	28.22
378.47	24.56
378.68	15.23
378.89	9.27
379.101	1.28
379.311	-2.14
379.521	-4.34
379.732	-0.01
379.942	3.08
380.152	-10.49
380.362	-1.5
380.572	16.22
380.783	24.41
380.993	20.27
381.203	24.4
381.413	31.86
381.623	30.44
381.833	25.58
382.043	25.88
382.253	33.56
382.463	29.53
382.674	25.69
382.884	27.23
383.094	21.84
383.304	16.61
383.514	9.03
383.724	3.33
383.934	-7.76
384.144	2.08
384.353	6.13
384.563	7.74
384.773	13.68
384.983	9.53
385.193	4.53
385.403	2.21
385.613	5.53
385.823	3.09
386.033	8.88
386.242	5.78
386.452	6.15
386.662	-0.08
386.872	5.45
387.082	4.83
387.291	2.75
387.501	3.64
387.711	13.47
387.921	9
388.13	11.34
388.34	13.69
388.55	11.83
388.759	-2.89
388.969	-1.37
389.179	-1.74
389.388	-2.28
389.598	0.34
389.807	-0.05
390.017	-0.75
390.227	-1.7
390.436	1.97
390.646	2.06
390.855	7.49
391.065	5.98
391.274	6.84
391.484	3.47
391.693	-0.09
391.903	-2.92
392.112	-1.15
392.322	-3.86
392.531	-2.29
392.74	-1.67
392.95	-0.22
393.159	-1.49
393.369	0.36
393.578	-0.25
393.787	0.68
393.997	1.74
394.206	2
394.415	1.82
394.625	2.77
394.834	2.01
395.043	1.96
395.252	3.27
395.462	3.81
395.671	2.82
395.88	3.48
396.089	3.98
396.298	2.68
396.508	2.97
396.717	3.65
396.926	4.17
397.135	4.18
397.344	4.37
397.553	3.86
397.762	4.39
397.971	3.15
398.181	2.35
398.39	2.32
398.599	2.63
398.808	2.36
399.017	3.95
399.226	4.25
399.435	4.72
399.644	4.39
399.853	4.36
400.062	4.18
400.27	3.94
400.479	3.43
400.688	3.62
400.897	3.37
401.106	2.95
401.315	3.24
401.524	3.42
401.733	3.07
401.941	3.31
402.15	3.42
402.359	3.27
402.568	3.67
402.777	4.01
402.985	3.84
403.194	3.78
403.403	4.03
403.612	3.49
403.82	3.23
404.029	3.41
404.238	3.4
404.446	3.52
404.655	3.77
404.864	3.95
405.072	3.82
405.281	3.81
405.489	3.42
405.698	3.52
405.906	3.67
406.115	3.63
406.324	3.58
406.532	3.72
406.741	3.58
406.949	3.37
407.158	3.53
407.366	3.5
407.574	3.42
407.783	3.45
407.991	3.38
408.2	3.26
408.408	3.21
408.617	3.19
408.825	3.1
409.033	3.12
409.242	3.2
409.45	3.25
409.658	3.27
409.867	3.34
410.075	3.43
410.283	3.35
410.491	3.27
410.7	3.17
410.908	3.12
411.116	3.16
411.324	3.12
411.533	3.17
411.741	3.22
411.949	3.23
412.157	3.1
412.365	3.09
412.573	3.07
412.781	3.09
412.99	3.14
413.198	3.2
413.406	3.33
413.614	3.49
413.822	3.63
414.03	3.57
414.238	3.58
414.446	3.55
414.654	3.45
414.862	3.25
415.07	3.21
415.278	3.39
415.486	3.14
415.694	3.1
415.902	3.17
416.109	3.03
416.317	2.76
416.525	2.9
416.733	2.88
416.941	2.93
417.149	2.96
417.357	3.05
417.564	3.03
417.772	3.05
417.98	3.06
418.188	3.11
418.395	2.88
418.603	2.79
418.811	2.67
419.019	2.56
419.226	2.59
419.434	2.79
419.642	2.71
419.849	2.77
420.057	2.74
420.265	2.74
420.472	2.58
420.68	2.76
420.887	2.77
421.095	2.78
421.302	2.87
421.51	2.86
421.717	2.84
421.925	2.81
422.132	2.83
422.34	2.64
422.547	2.66
422.755	2.58
422.962	2.62
423.17	2.45
423.377	2.54
423.585	2.74
423.792	2.85
423.999	2.71
424.207	2.74
424.414	2.74
424.621	2.68
424.829	2.79
425.036	2.89
425.243	2.99
425.451	2.93
425.658	2.9
425.865	2.76
426.072	2.71
426.28	2.88
426.487	2.83
426.694	2.75
426.901	2.67
427.108	2.6
427.315	2.33
427.523	2.3
427.73	2.27
427.937	2.19
428.144	2.23
428.351	2.4
428.558	2.63
428.765	2.63
428.972	2.8
429.179	2.81
429.386	2.78
429.593	2.64
429.8	2.82
430.007	2.83
430.214	2.89
430.421	3
430.628	3.03
430.835	2.86
431.042	2.81
431.249	2.82
431.456	2.75
431.662	2.92
431.869	3.13
432.076	3.16
432.283	3.27
432.49	3.29
432.697	3.14
432.903	3.08
433.11	3.16
433.317	3.13
433.524	3.08
433.73	2.9
433.937	2.97
434.144	2.86
434.35	2.82
434.557	2.95
434.764	3.07
434.97	3
435.177	3.06
435.384	3.07
435.59	2.97
435.797	3.04
436.003	2.95
436.21	2.91
436.416	2.98
436.623	3
436.829	2.92
437.036	2.97
437.242	3
437.449	2.92
437.655	2.88
437.862	2.96
438.068	2.93
438.275	3.03
438.481	3.16
438.687	3.18
438.894	3.3
439.1	3.37
439.307	3.47
439.513	3.48
439.719	3.52
439.926	3.42
440.132	3.52
440.338	3.38
440.544	3.32
440.751	3.35
440.957	3.42
441.163	3.32
441.369	3.35
441.575	3.28
441.782	3.42
441.988	3.44
442.194	3.36
442.4	3.35
442.606	3.54
442.812	3.44
443.018	3.41
443.224	3.61
443.431	3.57
443.637	3.38
443.843	3.38
444.049	3.41
444.255	3.38
444.461	3.49
444.667	3.61
444.873	3.66
445.079	3.63
445.284	3.61
445.49	3.55
445.696	3.42
445.902	3.35
446.108	3.32
446.314	3.35
446.52	3.41
446.726	3.51
446.931	3.46
447.137	3.51
447.343	3.45
447.549	3.45
447.755	3.44
447.96	3.49
448.166	3.52
448.372	3.58
448.578	3.47
448.783	3.48
448.989	3.52
449.195	3.53
449.4	3.51
449.606	3.65
449.812	3.61
450.017	3.55
450.223	3.55
450.428	3.46
450.634	3.37
450.84	3.49
451.045	3.62
451.251	3.67
451.456	3.75
451.662	3.79
451.867	3.72
452.073	3.62
452.278	3.57
452.483	3.54
452.689	3.54
452.894	3.68
453.1	3.73
453.305	3.76
453.51	3.87
453.716	3.81
453.921	3.8
454.127	3.8
454.332	3.76
454.537	3.7
454.742	3.72
454.948	3.68
455.153	3.72
455.358	3.69
455.563	3.78
455.769	3.86
455.974	3.81
456.179	3.78
456.384	3.84
456.589	3.71
456.795	3.65
457	3.63
457.205	3.64
457.41	3.6
457.615	3.62
457.82	3.74
458.025	3.77
458.23	3.84
458.435	3.9
458.64	4
458.845	3.92
459.05	4.04
459.255	4.04
459.46	4.03
459.665	3.99
459.87	4.02
460.075	4.01
460.28	4.02
460.485	4.16
460.69	4.25
460.895	4.31
461.099	4.27
461.304	4.2
461.509	4.15
461.714	4.23
461.919	4.21
462.123	4.23
462.328	4.19
462.533	4.12
462.738	4.08
462.942	4.07
463.147	4.03
463.352	4.15
463.556	4.24
463.761	4.18
463.966	4.23
464.17	4.42
464.375	4.56
464.58	4.57
464.784	4.65
464.989	4.69
465.193	4.62
465.398	4.5
465.602	4.76
465.807	4.83
466.011	4.86
466.216	4.83
466.42	4.94
466.625	4.92
466.829	4.84
467.034	4.93
467.238	5.03
467.443	5.07
467.647	5.01
467.851	5.11
468.056	5.09
468.26	5.16
468.464	5.21
468.669	5.26
468.873	5.33
469.077	5.28
469.282	5.24
469.486	5.18
469.69	5.17
469.894	5.15
470.099	5.15
470.303	5.28
470.507	5.35
470.711	5.29
470.915	5.35
471.119	5.47
471.324	5.47
471.528	5.53
471.732	5.61
471.936	5.65
472.14	5.65
472.344	5.7
472.548	5.66
472.752	5.65
472.956	5.62
473.16	5.66
473.364	5.58
473.568	5.58
473.772	5.6
473.976	5.7
474.18	5.69
474.384	5.76
474.588	5.8
474.792	5.78
474.995	5.8
475.199	5.82
475.403	5.81
475.607	5.84
475.811	5.93
476.015	5.86
476.218	5.88
476.422	5.92
476.626	6.01
476.83	6.12
477.033	6.19
477.237	6.27
477.441	6.26
477.644	6.22
477.848	6.19
478.052	6.17
478.255	6.18
478.459	6.16
478.663	6.2
478.866	6.24
479.07	6.2
479.273	6.26
479.477	6.37
479.681	6.35
479.884	6.32
480.088	6.4
480.291	6.31
480.495	6.31
480.698	6.3
480.901	6.29
481.105	6.29
481.308	6.4
481.512	6.37
481.715	6.45
481.919	6.49
482.122	6.51
482.325	6.45
482.529	6.48
482.732	6.53
482.935	6.5
483.138	6.44
483.342	6.42
483.545	6.46
483.748	6.46
483.952	6.54
484.155	6.56
484.358	6.57
484.561	6.52
484.764	6.46
484.967	6.41
485.171	6.44
485.374	6.4
485.577	6.4
485.78	6.42
485.983	6.4
486.186	6.38
486.389	6.43
486.592	6.48
486.795	6.46
486.998	6.42
487.201	6.46
487.404	6.55
487.607	6.53
487.81	6.5
488.013	6.51
488.216	6.47
488.419	6.39
488.622	6.33
488.825	6.33
489.028	6.37
489.231	6.4
489.433	6.42
489.636	6.47
489.839	6.48
490.042	6.47
490.245	6.45
490.447	6.4
490.65	6.4
490.853	6.38
491.056	6.39
491.258	6.47
491.461	6.41
491.664	6.38
491.866	6.42
492.069	6.47
492.272	6.34
492.474	6.41
492.677	6.42
492.879	6.38
493.082	6.37
493.285	6.51
493.487	6.52
493.69	6.55
493.892	6.55
494.095	6.52
494.297	6.44
494.5	6.41
494.702	6.38
494.905	6.44
495.107	6.38
495.309	6.38
495.512	6.39
495.714	6.39
495.917	6.37
496.119	6.5
496.321	6.51
496.524	6.45
496.726	6.45
496.928	6.46
497.13	6.37
497.333	6.33
497.535	6.47
497.737	6.46
497.939	6.47
498.142	6.52
498.344	6.55
498.546	6.46
498.748	6.52
498.95	6.57
499.152	6.5
499.355	6.5
499.557	6.57
499.759	6.65
499.961	6.64
500.163	6.73
500.365	6.83
500.567	6.81
500.769	6.71
500.971	6.71
501.173	6.63
501.375	6.62
501.577	6.59
501.779	6.57
501.981	6.57
502.183	6.65
502.385	6.65
502.587	6.67
502.788	6.76
502.99	6.78
503.192	6.8
503.394	6.81
503.596	6.86
503.798	6.82
503.999	6.8
504.201	6.81
504.403	6.83
504.605	6.83
504.806	6.88
505.008	6.91
505.21	6.9
505.411	6.96
505.613	7.02
505.815	7.08
506.016	7.15
506.218	7.2
506.42	7.23
506.621	7.22
506.823	7.2
507.024	7.19
507.226	7.23
507.427	7.25
507.629	7.27
507.83	7.33
508.032	7.3
508.233	7.34
508.435	7.3
508.636	7.37
508.838	7.34
509.039	7.42
509.24	7.43
509.442	7.43
509.643	7.4
509.845	7.42
510.046	7.36
510.247	7.34
510.448	7.37
510.65	7.46
510.851	7.52
511.052	7.6
511.254	7.68
511.455	7.67
511.656	7.61
511.857	7.6
512.058	7.6
512.26	7.59
512.461	7.64
512.662	7.71
512.863	7.7
513.064	7.67
513.265	7.61
513.466	7.67
513.667	7.63
513.868	7.56
514.069	7.61
514.27	7.71
514.471	7.66
514.672	7.72
514.873	7.83
515.074	7.86
515.275	7.77
515.476	7.82
515.677	7.81
515.878	7.79
516.079	7.76
516.28	7.79
516.481	7.78
516.682	7.79
516.882	7.8
517.083	7.77
517.284	7.81
517.485	7.75
517.686	7.73
517.886	7.76
518.087	7.77
518.288	7.75
518.488	7.82
518.689	7.88
518.89	7.87
519.091	7.97
519.291	7.94
519.492	7.91
519.692	7.9
519.893	7.98
520.094	7.94
520.294	8
520.495	7.99
520.695	8.02
520.896	7.98
521.096	8.01
521.297	8.05
521.497	8.1
521.698	8.07
521.898	8.06
522.099	8.06
522.299	8.01
522.499	7.99
522.7	8.04
522.9	8.09
523.101	8.08
523.301	8.13
523.501	8.15
523.702	8.13
523.902	8.14
524.102	8.25
524.302	8.24
524.503	8.27
524.703	8.29
524.903	8.25
525.103	8.18
525.304	8.2
525.504	8.28
525.704	8.21
525.904	8.27
526.104	8.29
526.304	8.3
526.504	8.29
526.705	8.42
526.905	8.44
527.105	8.42
527.305	8.44
527.505	8.33
527.705	8.28
527.905	8.37
528.105	8.44
528.305	8.48
528.505	8.62
528.705	8.73
528.905	8.7
529.105	8.7
529.304	8.7
529.504	8.73
529.704	8.65
529.904	8.68
530.104	8.64
530.304	8.67
530.503	8.68
530.703	8.7
530.903	8.66
531.103	8.74
531.303	8.75
531.502	8.81
531.702	8.89
531.902	8.99
532.101	9
532.301	9.04
532.501	9.03
532.7	9.01
532.9	9
533.1	8.99
533.299	9.02
533.499	8.99
533.698	9
533.898	9.04
534.097	9.1
534.297	9.1
534.496	9.15
534.696	9.18
534.895	9.2
535.095	9.2
535.294	9.2
535.494	9.24
535.693	9.31
535.892	9.3
536.092	9.34
536.291	9.36
536.491	9.39
536.69	9.43
536.889	9.43
537.088	9.46
537.288	9.45
537.487	9.47
537.686	9.41
537.886	9.47
538.085	9.46
538.284	9.56
538.483	9.59
538.682	9.65
538.882	9.71
539.081	9.78
539.28	9.8
539.479	9.77
539.678	9.78
539.877	9.84
540.076	9.86
540.275	9.9
540.474	9.99
540.673	10.14
540.872	10.14
541.071	10.19
541.27	10.21
541.469	10.23
541.668	10.21
541.867	10.32
542.066	10.44
542.265	10.55
542.464	10.61
542.663	10.66
542.862	10.72
543.06	10.77
543.259	10.78
543.458	10.9
543.657	10.98
543.856	10.98
544.054	11.04
544.253	11.17
544.452	11.17
544.651	11.26
544.849	11.34
545.048	11.34
545.247	11.36
545.445	11.35
545.644	11.4
545.843	11.45
546.041	11.46
546.24	11.48
546.438	11.59
546.637	11.62
546.836	11.65
547.034	11.79
547.233	11.91
547.431	11.93
547.63	11.99
547.828	12.04
548.027	12.07
548.225	12.14
548.423	12.22
548.622	12.31
548.82	12.38
549.019	12.4
549.217	12.54
549.415	12.64
549.614	12.78
549.812	12.85
550.01	12.96
550.209	13.02
550.407	13.08
550.605	13.06
550.803	13.17
551.002	13.3
551.2	13.28
551.398	13.44
551.596	13.61
551.794	13.73
551.993	13.76
552.191	13.96
552.389	14.04
552.587	14.06
552.785	14.15
552.983	14.32
553.181	14.4
553.379	14.47
553.577	14.55
553.775	14.72
553.973	14.82
554.171	14.87
554.369	14.96
554.567	15.1
554.765	15.1
554.963	15.17
555.161	15.25
555.359	15.4
555.557	15.51
555.755	15.68
555.952	15.82
556.15	15.93
556.348	15.92
556.546	16.05
556.744	16.14
556.941	16.22
557.139	16.43
557.337	16.64
557.535	16.73
557.732	16.76
557.93	16.96
558.128	17.02
558.325	17.08
558.523	17.18
558.721	17.38
558.918	17.43
559.116	17.55
559.313	17.75
559.511	17.93
559.708	18.09
559.906	18.22
560.104	18.34
560.301	18.46
560.498	18.59
560.696	18.66
560.893	18.79
561.091	18.92
561.288	19
561.486	19.12
561.683	19.27
561.88	19.43
562.078	19.58
562.275	19.74
562.473	19.87
562.67	19.94
562.867	20.02
563.064	20.15
563.262	20.2
563.459	20.35
563.656	20.48
563.853	20.56
564.051	20.72
564.248	20.93
564.445	21.1
564.642	21.2
564.839	21.42
565.036	21.62
565.234	21.77
565.431	21.88
565.628	22.05
565.825	22.17
566.022	22.26
566.219	22.34
566.416	22.38
566.613	22.53
566.81	22.64
567.007	22.71
567.204	22.85
567.401	22.98
567.598	23.16
567.795	23.21
567.991	23.29
568.188	23.26
568.385	23.38
568.582	23.41
568.779	23.57
568.976	23.69
569.172	23.86
569.369	23.94
569.566	24.02
569.763	24
569.96	24.09
570.156	24.18
570.353	24.25
570.55	24.32
570.746	24.45
570.943	24.46
571.14	24.52
571.336	24.55
571.533	24.6
571.729	24.65
571.926	24.7
572.123	24.76
572.319	24.84
572.516	24.99
572.712	25
572.909	24.99
573.105	25.17
573.302	25.19
573.498	25.03
573.695	25.1
573.891	25.13
574.087	25.01
574.284	24.99
574.48	25.13
574.677	25.12
574.873	25.2
575.069	25.27
575.266	25.36
575.462	25.36
575.658	25.51
575.854	25.59
576.051	25.65
576.247	25.62
576.443	25.58
576.639	25.4
576.835	25.33
577.032	25.23
577.228	25.36
577.424	25.38
577.62	25.47
577.816	25.42
578.012	25.49
578.208	25.45
578.404	25.49
578.6	25.5
578.796	25.59
578.993	25.58
579.189	25.57
579.384	25.55
579.58	25.56
579.776	25.49
579.972	25.45
580.168	25.44
580.364	25.41
580.56	25.26
580.756	25.21
580.952	25.13
581.148	25.09
581.343	25.09
581.539	25.2
581.735	25.22
581.931	25.15
582.127	25.15
582.322	25.18
582.518	25.08
582.714	25.02
582.909	25.09
583.105	24.97
583.301	24.96
583.496	24.99
583.692	24.98
583.888	25.01
584.083	25.03
584.279	24.92
584.474	24.86
584.67	24.89
584.866	24.89
585.061	24.84
585.257	24.87
585.452	24.91
585.648	24.83
585.843	24.72
586.039	24.73
586.234	24.73
586.429	24.65
586.625	24.76
586.82	24.85
587.015	24.88
587.211	24.88
587.406	24.91
587.601	24.91
587.797	24.89
587.992	24.82
588.187	24.79
588.383	24.85
588.578	24.9
588.773	24.94
588.968	25.01
589.163	25.05
589.359	24.95
589.554	24.77
589.749	24.75
589.944	24.78
590.139	24.81
590.334	24.95
590.529	25.05
590.724	25.16
590.919	25.24
591.114	25.29
591.309	25.32
591.504	25.34
591.699	25.3
591.894	25.17
592.089	25.17
592.284	25.07
592.479	25.09
592.674	25.22
592.869	25.34
593.064	25.45
593.259	25.59
593.454	25.69
593.648	25.61
593.843	25.67
594.038	25.74
594.233	25.76
594.428	25.87
594.622	26.06
594.817	26.24
595.012	26.29
595.206	26.47
595.401	26.55
595.596	26.66
595.79	26.7
595.985	26.68
596.18	26.68
596.374	26.82
596.569	26.89
596.763	27.03
596.958	27.17
597.153	27.26
597.347	27.34
597.542	27.38
597.736	27.45
597.931	27.52
598.125	27.62
598.319	27.66
598.514	27.7
598.708	27.81
598.903	27.9
599.097	28.05
599.291	28.06
599.486	28.26
599.68	28.23
599.874	28.35
600.069	28.37
600.263	28.51
600.457	28.46
600.651	28.57
600.846	28.58
601.04	28.61
601.234	28.56
601.428	28.7
601.622	28.72
601.817	28.75
602.011	28.8
602.205	28.98
602.399	28.89
602.593	28.92
602.787	28.91
602.981	28.92
603.175	28.9
603.369	28.96
603.563	29
603.757	29
603.951	28.97
604.145	28.86
604.339	28.92
604.533	28.83
604.727	28.86
604.921	28.79
605.115	28.77
605.309	28.72
605.502	28.73
605.696	28.73
605.89	28.81
606.084	28.93
606.278	28.92
606.471	28.86
606.665	28.72
606.859	28.65
607.053	28.52
607.246	28.4
607.44	28.25
607.634	28.22
607.827	28.09
608.021	27.98
608.214	27.86
608.408	27.8
608.602	27.74
608.795	27.77
608.989	27.66
609.182	27.7
609.376	27.68
609.569	27.53
609.763	27.42
609.956	27.37
610.15	27.2
610.343	27.08
610.537	27.02
610.73	26.8
610.923	26.66
611.117	26.68
611.31	26.59
611.504	26.52
611.697	26.63
611.89	26.54
612.083	26.26
612.277	26.2
612.47	26.09
612.663	25.91
612.856	25.84
613.05	25.85
613.243	25.7
613.436	25.61
613.629	25.48
613.822	25.4
614.015	25.23
614.209	25.18
614.402	25.03
614.595	24.96
614.788	24.86
614.981	24.87
615.174	24.77
615.367	24.71
615.56	24.6
615.753	24.57
615.946	24.39
616.139	24.23
616.332	24.31
616.525	24.24
616.718	24.2
616.911	24.18
617.103	24.26
617.296	24.07
617.489	23.96
617.682	23.83
617.875	23.79
618.067	23.76
618.26	23.65
618.453	23.73
618.646	23.75
618.838	23.59
619.031	23.49
619.224	23.42
619.417	23.3
619.609	23.22
619.802	23.23
619.994	23.14
620.187	23.1
620.38	23.04
620.572	23.02
620.765	22.95
620.957	22.83
621.15	22.82
621.342	22.77
621.535	22.68
621.727	22.67
621.92	22.74
622.112	22.75
622.305	22.72
622.497	22.68
622.69	22.66
622.882	22.63
623.074	22.61
623.267	22.57
623.459	22.57
623.651	22.59
623.844	22.54
624.036	22.46
624.228	22.5
624.42	22.39
624.613	22.25
624.805	22.17
624.997	22.16
625.189	22.07
625.381	22.02
625.574	21.96
625.766	21.95
625.958	21.95
626.15	21.87
626.342	21.9
626.534	21.95
626.726	21.98
626.918	21.97
627.11	21.96
627.302	21.81
627.494	21.73
627.686	21.59
627.878	21.42
628.07	21.36
628.262	21.46
628.454	21.48
628.646	21.5
628.838	21.59
629.029	21.49
629.221	21.37
629.413	21.19
629.605	21.17
629.797	21.02
629.989	21.02
630.18	20.99
630.372	21.1
630.564	21.06
630.755	21.03
630.947	21.07
631.139	21.09
631.33	21.03
631.522	21
631.714	20.99
631.905	20.88
632.097	20.74
632.289	20.66
632.48	20.59
632.672	20.53
632.863	20.5
633.055	20.57
633.246	20.56
633.438	20.6
633.629	20.63
633.821	20.65
634.012	20.54
634.203	20.5
634.395	20.39
634.586	20.37
634.777	20.31
634.969	20.37
635.16	20.35
635.351	20.43
635.543	20.37
635.734	20.35
635.925	20.38
636.117	20.38
636.308	20.36
636.499	20.4
636.69	20.43
636.881	20.28
637.073	20.3
637.264	20.2
637.455	20.1
637.646	20.11
637.837	20.19
638.028	20.11
638.219	20.15
638.41	20.18
638.601	20.12
638.792	19.99
638.983	19.96
639.174	19.85
639.365	19.81
639.556	19.73
639.747	19.8
639.938	19.88
640.129	19.92
640.32	19.82
640.511	19.84
640.701	19.84
640.892	19.69
641.083	19.57
641.274	19.55
641.465	19.51
641.655	19.48
641.846	19.56
642.037	19.64
642.228	19.62
642.418	19.58
642.609	19.51
642.8	19.38
642.99	19.25
643.181	19.29
643.372	19.27
643.562	19.24
643.753	19.21
643.943	19.18
644.134	19.03
644.324	19.05
644.515	19.03
644.705	19.1
644.896	19.16
645.086	19.24
645.277	19.14
645.467	19.14
645.658	19
645.848	18.95
646.038	18.92
646.229	18.94
646.419	18.88
646.61	18.92
646.8	18.87
646.99	18.8
647.18	18.75
647.371	18.75
647.561	18.65
647.751	18.6
647.941	18.6
648.132	18.65
648.322	18.59
648.512	18.65
648.702	18.68
648.892	18.68
649.082	18.63
649.272	18.62
649.462	18.6
649.653	18.54
649.843	18.51
650.033	18.4
650.223	18.37
650.413	18.28
650.603	18.29
650.793	18.26
650.983	18.18
651.172	18.12
651.362	17.97
651.552	17.87
651.742	17.85
651.932	17.78
652.122	17.78
652.312	17.86
652.502	17.72
652.691	17.66
652.881	17.7
653.071	17.58
653.261	17.46
653.45	17.4
653.64	17.18
653.83	17.06
654.019	16.89
654.209	16.79
654.399	16.63
654.588	16.51
654.778	16.26
654.968	16.19
655.157	16
655.347	15.89
655.536	15.75
655.726	15.62
655.915	15.45
656.105	15.25
656.294	15.08
656.484	14.94
656.673	14.84
656.863	14.69
657.052	14.48
657.241	14.37
657.431	14.22
657.62	14.04
657.809	13.74
657.999	13.64
658.188	13.45
658.377	13.15
658.567	12.97
658.756	12.86
658.945	12.64
659.134	12.42
659.324	12.27
659.513	12.09
659.702	11.91
659.891	11.79
660.08	11.61
660.269	11.39
660.458	11.11
660.648	10.91
660.837	10.73
661.026	10.5
661.215	10.39
661.404	10.32
661.593	10.24
661.782	10.03
661.971	9.87
662.16	9.75
662.349	9.54
662.538	9.35
662.726	9.26
662.915	9.23
663.104	9.07
663.293	9.06
663.482	8.83
663.671	8.65
663.86	8.56
664.048	8.51
664.237	8.39
664.426	8.44
664.615	8.42
664.803	8.24
664.992	8.08
665.181	7.98
665.369	7.82
665.558	7.68
665.747	7.77
665.935	7.77
666.124	7.73
666.312	7.72
666.501	7.75
666.69	7.62
666.878	7.49
667.067	7.4
667.255	7.39
667.444	7.39
667.632	7.41
667.82	7.5
668.009	7.52
668.197	7.4
668.386	7.33
668.574	7.28
668.762	7.21
668.951	7.23
669.139	7.26
669.327	7.3
669.516	7.25
669.704	7.26
669.892	7.26
670.08	7.31
670.269	7.31
670.457	7.28
670.645	7.26
670.833	7.26
671.021	7.43
671.21	7.32
671.398	7.5
671.586	7.62
671.774	7.75
671.962	7.59
672.15	7.83
672.338	7.87
672.526	7.86
672.714	7.83
672.902	7.98
673.09	8.07
673.278	8.16
673.466	8.34
673.654	8.4
673.842	8.45
674.03	8.41
674.218	8.43
674.405	8.48
674.593	8.52
674.781	8.51
674.969	8.7
675.157	8.83
675.344	8.83
675.532	9
675.72	9.17
675.908	9.06
676.095	9.02
676.283	9.13
676.471	9.15
676.658	9.17
676.846	9.34
677.033	9.38
677.221	9.47
677.409	9.58
677.596	9.69
677.784	9.89
677.971	9.98
678.159	10.08
678.346	10.07
678.534	10.18
678.721	10.25
678.909	10.52
679.096	10.58
679.283	10.7
679.471	10.77
679.658	10.74
679.846	10.74
680.033	11.13
680.22	11.39
680.408	11.49
680.595	11.77
680.782	11.96
680.969	12.1
681.157	12.25
681.344	12.51
681.531	12.63
681.718	12.78
681.905	12.69
682.093	12.81
682.28	12.96
682.467	13.15
682.654	13.46
682.841	13.75
683.028	13.88
683.215	14.16
683.402	14.28
683.589	14.35
683.776	14.44
683.963	14.76
684.15	14.96
684.337	15.29
684.524	15.57
684.711	16.05
684.898	16.26
685.085	16.6
685.271	16.99
685.458	17.17
685.645	17.35
685.832	17.78
686.019	18.06
686.205	18.3
686.392	19.01
686.579	19.49
686.766	19.73
686.952	20
687.139	20.33
687.326	20.74
687.512	21.09
687.699	21.74
687.886	22.2
688.072	22.76
688.259	23.24
688.445	23.88
688.632	24.32
688.818	25.15
689.005	25.8
689.191	26.35
689.378	26.95
689.564	27.67
689.751	28.32
689.937	29.01
690.124	29.73
690.31	30.19
690.496	30.97
690.683	31.44
690.869	32.14
691.055	32.87
691.242	33.86
691.428	34.45
691.614	35.34
691.8	36.13
691.987	36.96
692.173	37.79
692.359	38.57
692.545	39.47
692.731	40.24
692.918	40.63
693.104	41.28
693.29	41.87
693.476	42.52
693.662	43.13
693.848	44.21
694.034	45.01
694.22	45.96
694.406	46.59
694.592	47.53
694.778	48.02
694.964	48.72
695.15	49.54
695.336	50.48
695.522	51.23
695.708	52.23
695.894	52.95
696.08	53.89
696.265	54.83
696.451	55.36
696.637	56.11
696.823	57.04
697.009	57.56
697.194	58.08
697.38	58.94
697.566	59.62
697.751	60.24
697.937	61.17
698.123	61.73
698.308	62.37
698.494	63.26
698.68	63.74
698.865	64.09
699.051	64.78
699.236	65.41
699.422	65.56
699.607	66.19
699.793	67.26
699.978	67.61
700.164	67.73
700.349	68.41
700.535	68.84
700.72	68.66
700.906	69.42
701.091	70.28
701.276	70.55
701.462	71.09
701.647	71.67
701.832	72.1
702.018	72.72
702.203	73.33
702.388	73.68
702.573	73.97
702.759	74.84
702.944	74.77
703.129	75.05
703.314	75.62
703.499	76
703.684	75.82
703.87	76.39
704.055	76.79
704.24	77.16
704.425	77.62
704.61	78.13
704.795	78.87
704.98	79.14
705.165	79.23
705.35	79.61
705.535	79.48
705.72	79.19
705.905	79.48
706.09	80.12
706.275	80.18
706.459	80.79
706.644	81.46
706.829	82
707.014	82.23
707.199	82.83
707.384	82.86
707.568	82.89
707.753	83.09
707.938	83.24
708.123	83.29
708.307	83.86
708.492	84.26
708.677	84.24
708.861	84.26
709.046	84
709.231	83.67
709.415	83.67
709.6	84.36
709.784	84.69
709.969	85.34
710.153	85.47
710.338	86.03
710.522	86.05
710.707	86.12
710.891	86.17
711.076	86.34
711.26	86.74
711.445	86.53
711.629	86.64
711.813	86.95
711.998	87.36
712.182	86.49
712.366	86.92
712.551	87.47
712.735	87.48
712.919	87.98
713.103	88.72
713.288	88.73
713.472	88.4
713.656	88.27
713.84	87.93
714.024	87.83
714.208	87.64
714.393	87.68
714.577	88.17
714.761	88.47
714.945	88.81
715.129	89.1
715.313	89.43
715.497	89.14
715.681	88.79
715.865	88.74
716.049	88.76
716.233	88.56
716.417	88.95
716.601	89.35
716.785	89.4
716.968	89.34
717.152	89.89
717.336	90.02
717.52	90.4
717.704	90.71
717.888	91
718.071	90.83
718.255	91.34
718.439	91
718.622	90.65
718.806	90.91
718.99	90.55
719.174	90.27
719.357	90.92
719.541	91.58
719.724	91.89
719.908	92.31
720.092	92.25
720.275	92.19
720.459	91.85
720.642	92.05
720.826	91.93
721.009	91.93
721.193	91.38
721.376	91.86
721.559	91.45
721.743	92.22
721.926	92.68
722.11	93.68
722.293	93.98
722.476	93.89
722.66	93.83
722.843	93.93
723.026	93.83
723.21	93.43
723.393	94.21
723.576	94.22
723.759	94.04
723.942	93.67
724.126	93.56
724.309	93.08
724.492	92.41
724.675	92.42
724.858	92.75
725.041	92.9
725.224	93.72
725.407	94.29
725.59	94.5
725.774	94.72
725.957	95.04
726.14	94.44
726.322	94.78
726.505	94.91
726.688	94.83
726.871	94.83
727.054	95.03
727.237	94.84
727.42	94.3
727.603	94.07
727.786	94.13
727.968	93.55
728.151	93.18
728.334	93.97
728.517	94.39
728.699	93.88
728.882	94.72
729.065	94.89
729.248	94.45
729.43	94.45
729.613	94.92
729.796	94.76
729.978	94.94
730.161	95.54
730.343	96.06
730.526	96.29
730.708	95.76
730.891	96.32
731.073	95.89
731.256	95.61
731.438	96.51
731.621	97.04
731.803	96.74
731.986	96.59
732.168	96.74
732.35	96.1
732.533	96.13
732.715	96.25
732.898	96.28
733.08	96.34
733.262	96.21
733.444	97.26
733.627	97.29
733.809	98.3
733.991	97.88
734.173	97.86
734.355	97.01
734.538	97.28
734.72	96.7
734.902	97.26
735.084	97.2
735.266	97.65
735.448	97.72
735.63	97.62
735.812	97.57
735.994	97.69
736.176	98.21
736.358	98.84
736.54	99.94
736.722	99.07
736.904	98.92
737.086	97.03
737.268	96.64
737.45	96.52
737.632	97.33
737.814	98.21
737.995	99.31
738.177	99.2
738.359	99.01
738.541	98.49
738.723	98.19
738.904	97.72
739.086	98.2
739.268	97.11
739.449	97.44
739.631	97.29
739.813	97.54
739.994	96.89
740.176	97.29
740.358	97.86
740.539	97.51
740.721	98.38
740.902	98.72
741.084	100.24
741.265	99.91
741.447	100.25
741.628	100.14
741.81	100.14
741.991	99.35
742.172	99.95
742.354	99.74
742.535	98.88
742.717	98.55
742.898	97.94
743.079	97.92
743.261	97.87
743.442	98.13
743.623	98.1
743.804	98.66
743.986	98.08
744.167	97.9
744.348	97.26
744.529	97.64
744.71	97.23
744.891	96.72
745.073	97.09
745.254	97.7
745.435	97.07
745.616	97.07
745.797	97
745.978	97.11
746.159	96.72
746.34	97.3
746.521	97.33
746.702	97.93
746.883	98.1
747.064	98.51
747.245	98.55
747.426	98.72
747.606	98.98
747.787	99.09
747.968	98.79
748.149	98.51
748.33	97.49
748.51	96.36
748.691	96.24
748.872	98.18
749.053	97.6
749.233	97.93
749.414	99.02
749.595	98.91
749.775	96.11
749.956	96.08
750.137	95.87
750.317	94.1
750.498	94.07
750.678	94.88
750.859	94.85
751.04	94.83
751.22	95.14
751.4	95.26
751.581	95.36
751.761	95.88
751.942	96.28
752.122	95.66
752.303	95.62
752.483	95.2
752.663	95.73
752.844	94.89
753.024	97.34
753.204	98.15
753.385	97.59
753.565	96.19
753.745	96.18
753.925	94.42
754.106	92.97
754.286	92.79
754.466	92.57
754.646	93.08
754.826	94.92
755.006	94.16
755.187	95.35
755.367	95.4
755.547	95.8
755.727	94.24
755.907	96.5
756.087	96.49
756.267	96.08
756.447	95.97
756.627	96.59
756.807	95.8
756.987	95.86
757.167	94.58
757.346	93.82
757.526	93.97
757.706	93.76
757.886	93.55
758.066	95.41
758.246	95.97
758.425	94.66
758.605	94.24
758.785	93.66
758.965	94.57
759.144	92.84
759.324	95.12
759.504	95.21
759.683	95.47
759.863	95.38
760.043	96.39
760.222	95.01
760.402	93.49
760.581	94.06
760.761	93.98
760.94	94.27
761.12	94.55
761.299	97.36
761.479	97.09
761.658	94.97
761.838	95.64
762.017	94.9
762.197	92.02
762.376	91.31
762.555	92.56
762.735	92.46
762.914	92.35
763.093	92.74
763.273	92.5
763.452	92.01
763.631	90.22
763.81	90.49
763.99	90.39
764.169	90.35
764.348	90.32
764.527	92.73
764.706	91.34
764.885	93.16
765.064	94.19
765.243	94.35
765.423	93.44
765.602	94.18
765.781	90.88
765.96	89.97
766.139	90.65
766.318	91.94
766.497	91.49
766.676	91.88
766.854	92.56
767.033	93.36
767.212	92.58
767.391	93.85
767.57	96.04
767.749	94.44
767.928	89.58
768.106	89.18
768.285	87.54
768.464	87.32
768.643	87.57
768.821	89.61
769	88.91
769.179	89.15
769.357	87.81
769.536	86.92
769.715	87.75
769.893	88.1
770.072	86.41
770.25	86.56
770.429	87.31
770.607	86.99
770.786	85.79
770.964	89.33
771.143	90.33
771.321	90.13
771.5	89.99
771.678	90.83
771.857	87.86
772.035	89.02
772.213	88.93
772.392	88.23
772.57	87.34
772.748	86.89
772.927	86.1
773.105	86.62
773.283	87.15
773.461	89.26
773.64	89.98
773.818	88.31
773.996	88.76
774.174	90.22
774.352	88.66
774.531	89.33
774.709	89.97
774.887	87.59
775.065	85.99
775.243	84.69
775.421	83.82
775.599	84.07
775.777	84.56
775.955	83.67
776.133	84.91
776.311	85.2
776.489	85.02
776.667	86.41
776.844	88.88
777.022	88.79
777.2	90.59
777.378	89.34
777.556	91.29
777.734	90.48
777.911	90.9
778.089	90.76
778.267	91.11
778.445	90.4
778.622	89.37
778.8	86.55
778.978	85.97
779.155	87.53
779.333	87.47
779.511	88.24
779.688	88.75
779.866	88.55
780.043	88.28
780.221	86.8
780.398	84.5
780.576	86.45
780.753	84.17
780.931	84.46
781.108	86.71
781.286	87.93
781.463	87.83
781.64	90.26
781.818	88.43
781.995	85.15
782.172	86.48
782.35	86.77
782.527	87.37
782.704	86.64
782.882	83.53
783.059	83.22
783.236	84.12
783.413	81.93
783.59	82.65
783.768	85.35
783.945	84.77
784.122	83.85
784.299	85.09
784.476	83.33
784.653	82.43
784.83	78.77
785.007	77.9
785.184	78.98
785.361	81.07
785.538	80.97
785.715	84.52
785.892	83.44
786.069	83.85
786.246	83.28
786.423	84.86
786.6	86.95
786.776	87.82
786.953	83.75
787.13	82.02
787.307	79.87
787.484	73.07
787.66	71.3
787.837	71.42
788.014	74.56
788.191	76.39
788.367	80.24
788.544	77.94
788.721	77.36
788.897	74.95
789.074	76.13
789.25	77.75
789.427	81.21
789.603	80.04
789.78	79.9
789.956	77.92
790.133	75.19
790.309	76.28
790.486	79.32
790.662	79.48
790.839	79.03
791.015	79.95
791.192	79.21
791.368	78.9
791.544	80.94
791.721	79.64
791.897	79.01
792.073	77.67
792.249	77.66
792.426	73.64
792.602	75.17
792.778	72.5
792.954	75.83
793.13	75.23
793.307	77.13
793.483	76.18
793.659	80.87
793.835	78.89
794.011	83.31
794.187	83.51
794.363	85.08
794.539	79.44
794.715	77.26
794.891	75.88
795.067	75.86
795.243	74.62
795.419	81.57
795.595	88.15
795.771	83.74
795.947	79.37
796.122	75.27
796.298	70.66
796.474	72.27
796.65	74.6
796.826	78.74
797.001	82.03
797.177	80.13
797.353	73.62
797.529	73.55
797.704	74.16
797.88	73.04
798.056	77.35
798.231	78.29
798.407	77.52
798.582	73.92
798.758	75.9
798.934	75.88
799.109	75.72
799.285	77.82
799.46	80.33
799.636	79.57
799.811	77.43
799.986	73.36
800.162	69.91
800.337	73.15
800.513	73.46
800.688	72.28
800.863	77.87
801.039	79.39
801.214	76.76
801.389	74.44
801.565	78.2
801.74	80.07
801.915	78.16
802.09	71.88
802.265	75.62
802.441	74.06
802.616	69.54
802.791	74.23
802.966	85.13
803.141	83.6
803.316	85.78
803.491	85.45
803.666	86.51
803.841	78.67
804.016	80.49
804.191	81.87
804.366	81.24
804.541	78.19
804.716	82.64
804.891	83.24
805.066	80.48
805.241	79.92
805.416	85.64
805.591	82.62
805.765	86.65
805.94	79.76
806.115	80.38
806.29	72.86
806.464	70.09
806.639	60.19
806.814	65.57
806.989	68.05
807.163	69.1
807.338	68.25
807.512	73.62
807.687	71.25
807.862	70.83
808.036	75.32
808.211	81.69
808.385	81.1
808.56	77.41
808.734	67.38
808.909	65.36
809.083	65.6
809.258	68.23
809.432	78.25
809.606	87.53
809.781	89.64
809.955	95.17
810.13	87.18
810.304	80.43
810.478	77.56
810.652	78.16
810.827	73.03
811.001	74.62
811.175	73.52
811.349	77.98
811.524	76.76
811.698	75.58
811.872	77.38
812.046	76.69
812.22	75.74
812.394	71.54
812.568	74.62
812.742	73.81
812.916	80.29
813.09	81.11
813.264	76.18
813.438	69.8
813.612	71.39
813.786	62.76
813.96	62.98
814.134	63.33
814.308	67.8
814.482	61.83
814.656	64.02
814.83	64.98
815.003	65.81
815.177	64.43
815.351	70.79
815.525	85.59
815.698	77.33
815.872	72.29
816.046	74.84
816.219	73.83
816.393	60.95
816.567	68.45
816.74	75.03
816.914	74.91
817.088	72.59
817.261	70.75
817.435	71.52
817.608	70.5
817.782	61.91
817.955	67.44
818.129	74.86
818.302	70.37
818.475	76.71
818.649	76.32
818.822	68.58
818.996	75.57
819.169	82.15
819.342	73.15
819.516	80.76
819.689	80.73
819.862	73.26
820.035	70
820.209	70.32
820.382	57.7
820.555	64.22
820.728	64.44
820.901	55.58
821.075	66.79
821.248	77.68
821.421	69.03
821.594	68.48
821.767	68.87
821.94	54.99
822.113	59.12
822.286	70.79
822.459	69.92
822.632	79
822.805	83.15
822.978	82.18
823.151	72.66
823.324	63.84
823.496	60.03
823.669	71.1
823.842	73.1
824.015	66.03
824.188	67.72
824.361	63.84
824.533	51.17
824.706	40.45
824.879	50.98
825.051	58.76
825.224	60.24
825.397	61.45
825.569	71.49
825.742	78.6
825.915	78.19
826.087	74.2
826.26	71.43
826.432	63.9
826.605	54.92
826.777	56.87
826.95	64.95
827.122	59.37
827.295	62.24
827.467	60.46
827.64	37.7
827.812	19.84
827.984	46.4
828.157	40.37
828.329	52.31
828.501	66.98
828.674	64.25
828.846	57.19
829.018	59.92
829.19	48.48
829.363	49.07
829.535	62.04
829.707	64.16
829.879	62.4
830.051	65.35
830.223	63.52
830.395	46.15
830.568	53.16
830.74	55.91
830.912	62.25
831.084	58.67
831.256	60.01
831.428	53.87
831.6	51.63
831.772	44.52
831.943	39.42
832.115	53.17
832.287	61.6
832.459	62.93
832.631	68.55
832.803	84.17
832.975	79.58
833.146	71.66
833.318	71.98
833.49	73.73
833.662	72.08
833.833	59.07
834.005	64.57
834.177	69.74
834.348	65.03
834.52	57.46
834.692	55.15
834.863	47.4
835.035	36.26
835.206	27.79
835.378	37.73
835.549	37.57
835.721	46.86
835.892	55.52
836.064	65.09
836.235	64.28
836.407	68.77
836.578	62.36
836.749	48.35
836.921	47.16
837.092	22.71
837.264	31.44
837.435	35.1
837.606	49.4
837.777	55.95
837.949	72.88
838.12	73.91
838.291	69.95
838.462	68.72
838.633	55.94
838.805	48.65
838.976	37.28
839.147	50.3
839.318	47.65
839.489	45.66
839.66	52.65
839.831	56.99
840.002	48.28
840.173	46.25
840.344	52.81
840.515	36.75
840.686	38.67
840.857	33.72
841.028	30.09
841.199	25.18
841.369	21.25
841.54	10.44
841.711	36.7
841.882	47.8
842.053	36.5
842.223	57.6
842.394	36.28
842.565	27.62
842.736	25.71
842.906	18.71
843.077	18.8
843.248	43.46
843.418	34.48
843.589	20.68
843.759	34.38
843.93	42.2
844.101	47.05
844.271	77.47
844.442	84.73
844.612	100.97
844.783	77.23
844.953	54.35
845.123	37.57
845.294	54.2
845.464	28.77
845.635	35.57
845.805	75.34
845.975	108.88
846.146	77.4
846.316	67.95
846.486	59.47
846.656	49.63
846.827	35.2
846.997	42.99
847.167	45.37
847.337	50.06
847.507	50.62
847.677	53.15
847.848	47.29
848.018	60.14
848.188	68.49
848.358	62.29
848.528	72.27
848.698	61.59
848.868	48.69
849.038	26.39
849.208	38.31
849.378	48.1
849.548	50.93
849.718	32.55
849.887	39.77
850.057	19.28
850.227	-38.91
850.397	4.39
850.567	10.78
850.737	44.15
850.906	23.73
851.076	26.02
851.246	10.5
851.415	-19.17
851.585	-33.36
851.755	14.18
851.924	13.82
852.094	28.54
852.264	43.05
852.433	26.47
852.603	33.3
852.772	78.81
852.942	69.59
853.111	85.75
853.281	86.57
853.45	65.89
853.62	51.88
853.789	35.98
853.959	51.63
854.128	67.29
854.297	81.63
854.467	81.93
854.636	89.09
854.805	77.55
854.975	52.56
855.144	44.88
855.313	34.15
855.482	9.35
855.652	-2.57
855.821	9.5
855.99	14.3
856.159	8.99
856.328	47.96
856.497	51.82
856.667	46.28
856.836	48.17
857.005	49.97
857.174	48.07
857.343	24.33
857.512	37.82
857.681	19.64
857.85	8.59
858.019	-35.97
858.188	-10.12
858.356	5.33
858.525	15.31
858.694	36.87
858.863	37.2
859.032	29.74
859.201	16.18
859.369	-0.77
859.538	12.57
859.707	-2.69
859.876	24.62
860.044	29.04
860.213	50.35
860.382	53.06
860.55	55.45
860.719	60.4
860.888	74.6
861.056	64.02
861.225	25.73
861.393	54.21
861.562	39.41
861.73	15.68
861.899	-7.52
862.067	-7.08
862.236	-8.11
862.404	22.91
862.572	37.69
862.741	48.39
862.909	52.14
863.078	51.43
863.246	8.19
863.414	31.14
863.582	39.16
863.751	31.85
863.919	30.5
864.087	56.04
864.255	36.28
864.424	42.92
864.592	60.16
864.76	38.38
864.928	19.4
865.096	6.36
865.264	26.71
865.432	34.68
865.6	81.61
865.768	97.13
865.936	113.1
866.104	60.94
866.272	41.88
866.44	-27.81
866.608	9.55
866.776	24.62
866.944	82.42
867.112	66.29
867.28	68.81
867.448	57.05
867.615	43.15
867.783	1.42
867.951	6.04
868.119	39.43
868.286	69.58
868.454	53.52
868.622	65.23
868.789	59.33
868.957	31.3
869.125	16.02
869.292	4.75
869.46	34.05
869.627	50.46
869.795	38.14
869.963	54.7
870.13	48.6
870.298	3.26
870.465	5.7
870.632	28.58
870.8	21.86
870.967	21.38
871.135	-5.87
871.302	-4.87
871.469	5.09
871.637	-13.15
871.804	17.1
871.971	43.86
872.139	47.96
872.306	5.1
872.473	0.39
872.64	-40.66
872.807	-81.63
872.975	-196.89
873.142	-26.8
873.309	-9.25
873.476	39.71
873.643	88.72
873.81	38.89
873.977	43.38
874.144	72.13
874.311	-10.63
874.478	-74.33
874.645	14.31
874.812	40.63
874.979	42.94
875.146	79.66
875.313	100.38
875.48	75.68
875.647	61.01
875.813	28.53
875.98	11.99
876.147	-50.03
876.314	-22.56
876.481	11.05
876.647	20.21
876.814	30.95
876.981	15.79
877.147	15.55
877.314	6.43
877.481	26.51
877.647	15.02
877.814	59.61
877.98	59.82
878.147	77.46
878.314	64.8
878.48	101.41
878.647	72.98
878.813	88.84
878.979	72.97
879.146	80.54
879.312	107.94
879.479	101.08
879.645	62.28
879.811	68.57
879.978	66.09
880.144	36.41
880.31	34.75
880.477	76.29
880.643	74.05
880.809	102.68
880.975	68.24
881.142	125.68
881.308	169.72
881.474	213.49
881.64	53.07
881.806	144.77
881.972	108.09
882.138	77.04
882.304	91.02
882.47	39.23
882.636	2.19
882.802	-35.16
882.968	-63.31
883.134	-44.14
883.3	-27.74
883.466	-16.42
883.632	48.66
883.798	66.54
883.964	16.74
884.129	-79.04
884.295	34.69
884.461	-20.22
884.627	6.24
884.793	24.34
884.958	35.93
885.124	11.77
885.29	-46.54
885.455	-89.52
885.621	-39.44
885.787	-35.07
885.952	-40.56
886.118	35.22
886.283	32.87
886.449	7.11
886.614	25.84
886.78	22.16
886.945	-31.16
887.111	-12.38
887.276	-1.77
887.442	-44.97
887.607	17.36
887.773	31.1
887.938	32.03
888.103	41.95
888.269	49.49
888.434	37.24
888.599	49.86
888.764	50.27
888.93	43.58
889.095	32.4
889.26	9.07
889.425	-14.08
889.59	4.4
889.756	39.94
889.921	62.22
890.086	180.5
890.251	187.85
890.416	41.42
890.581	1.14
890.746	38.55
890.911	34.4
891.076	28.47
891.241	47.25
891.406	46.27
891.571	56.79
891.736	72.67
891.901	69.24
892.065	61.68
892.23	89.47
892.395	31.62
892.56	25.06
892.725	52.32
892.889	102.65
893.054	-24.05
893.219	-16.47
893.384	-25.63
893.548	-68.64
893.713	-143.12
893.878	-135.69
