Data from Ofra_2a_PS_9GT30_Reflection_2.txt Node
Date: Tue Jul 20 10:00:17 EDT 2021
User: Adam
Spectrometer: FLMT01687
Trigger mode: 0
Integration Time (sec): 9.450000E-1
Scans to average: 3
Electric dark correction enabled: true
Nonlinearity correction enabled: false
Boxcar width: 3
XAxis mode: Wavelengths
Number of Pixels in Spectrum: 3648
>>>>>Begin Spectral Data<<<<<
179.494	1336.09
179.716	814.52
179.937	967.58
180.158	3510.55
180.38	-2124.13
180.601	-425.93
180.823	-191.44
181.044	-144.52
181.265	-166.39
181.486	33
181.708	-1838.04
181.929	41.98
182.15	-156.25
182.372	-110.56
182.593	-140.84
182.814	513.92
183.035	401.76
183.257	180.13
183.478	113.09
183.699	124.5
183.92	69.21
184.141	52.19
184.363	28.39
184.584	21.52
184.805	29.88
185.026	5.88
185.247	-22.57
185.468	-4.81
185.689	18.64
185.91	34.15
186.132	34.69
186.353	15.62
186.574	16.15
186.795	11.68
187.016	-1.63
187.237	-8.57
187.458	-26.18
187.679	-37.53
187.9	-6.3
188.121	-3.83
188.342	27
188.563	40.12
188.784	25.71
189.005	33.31
189.226	38.42
189.447	29.26
189.667	25.45
189.888	18.58
190.109	13.83
190.33	13.49
190.551	17.91
190.772	2.57
190.993	10.56
191.214	15.17
191.434	15.92
191.655	21.57
191.876	37.04
192.097	20.78
192.318	26.64
192.538	33.35
192.759	40.11
192.98	41.58
193.201	43.85
193.421	34.59
193.642	42.91
193.863	52.17
194.083	39.6
194.304	23.9
194.525	32.3
194.745	23.74
194.966	32.08
195.187	42.7
195.407	31.36
195.628	30.8
195.848	35.25
196.069	23.92
196.29	24.53
196.51	20.39
196.731	22.11
196.951	34.31
197.172	33.25
197.392	30.08
197.613	20.26
197.833	23.17
198.054	17.34
198.274	-0.74
198.495	0.01
198.715	-19.18
198.936	-41.45
199.156	-14.07
199.377	-1.16
199.597	5.42
199.817	17.82
200.038	29.64
200.258	58.59
200.479	69.41
200.699	74.85
200.919	42.48
201.14	44.75
201.36	62.54
201.58	47.88
201.801	23.53
202.021	24.27
202.241	17.78
202.461	32.85
202.682	32.23
202.902	19.61
203.122	13.9
203.342	21.55
203.563	19.98
203.783	26.04
204.003	28.17
204.223	31.02
204.443	32.63
204.663	38.74
204.884	29.94
205.104	26.25
205.324	39.57
205.544	26.34
205.764	27.94
205.984	27.4
206.204	20.74
206.424	37.78
206.644	37.52
206.864	20.57
207.084	43.65
207.304	34.91
207.525	29.08
207.745	34.22
207.964	29.36
208.184	18.98
208.404	24.28
208.624	5.77
208.844	-11.09
209.064	-10.3
209.284	1.53
209.504	-0.82
209.724	-10.21
209.944	-4.13
210.164	5.88
210.384	30.36
210.604	39.76
210.823	-0.27
211.043	-4.39
211.263	4.77
211.483	2.44
211.703	-1.21
211.922	2.57
212.142	12.66
212.362	23.53
212.582	18.9
212.801	19.03
213.021	8.94
213.241	2.99
213.461	-7.42
213.68	-5.09
213.9	2.62
214.12	-3.33
214.339	2.61
214.559	28.03
214.779	35.48
214.998	36.08
215.218	39.51
215.438	43.73
215.657	47.38
215.877	49.82
216.096	31.39
216.316	15.77
216.535	17.83
216.755	6.48
216.974	-11.7
217.194	1.69
217.413	9.85
217.633	10.5
217.852	24
218.072	17.81
218.291	37.75
218.511	34.63
218.73	19.76
218.95	15.24
219.169	20.67
219.389	22.46
219.608	32.99
219.827	16.08
220.047	19.21
220.266	32.92
220.485	28.15
220.705	18.3
220.924	19.15
221.143	6.87
221.363	11.47
221.582	13.79
221.801	21.3
222.021	25.21
222.24	31.03
222.459	28.36
222.678	43.96
222.897	28.97
223.117	32.77
223.336	25.93
223.555	19.89
223.774	26.91
223.993	34.97
224.213	21.12
224.432	32.58
224.651	21.22
224.87	27.07
225.089	34.98
225.308	31.15
225.527	28.25
225.746	42.73
225.965	33.79
226.184	41.67
226.404	32.89
226.623	38.12
226.842	30.98
227.061	31.88
227.28	39.23
227.499	44.44
227.718	36.27
227.936	30.54
228.155	28.93
228.374	40.13
228.593	34.86
228.812	21.97
229.031	9.93
229.25	21.21
229.469	33.94
229.688	40.31
229.907	31.93
230.125	34.01
230.344	41.27
230.563	40.41
230.782	31.79
231.001	22.74
231.22	13.36
231.438	17.74
231.657	15.48
231.876	10.99
232.095	18.41
232.313	28.27
232.532	29.03
232.751	32.86
232.969	28.73
233.188	31.11
233.407	42.26
233.625	30.99
233.844	29.96
234.063	38.71
234.281	35.89
234.5	40.61
234.719	35.79
234.937	37
235.156	41.72
235.374	41.43
235.593	35.9
235.811	17.73
236.03	11.45
236.249	16.93
236.467	17.56
236.686	16.52
236.904	4.25
237.123	15.61
237.341	24.3
237.559	28.21
237.778	38.51
237.996	32.16
238.215	23.79
238.433	41.24
238.652	26.44
238.87	34.43
239.088	25.6
239.307	26.98
239.525	20.25
239.743	26.74
239.962	19.46
240.18	40.69
240.398	40.56
240.617	48.57
240.835	40.23
241.053	52.12
241.271	56.27
241.49	52.03
241.708	35.99
241.926	20.11
242.144	9.21
242.363	11.08
242.581	8.72
242.799	-7.06
243.017	-4.92
243.235	-1.78
243.453	17.02
243.672	21.61
243.89	26.61
244.108	27.65
244.326	41.84
244.544	41.62
244.762	44.99
244.98	34.59
245.198	30.49
245.416	26.09
245.634	28.01
245.852	18.17
246.07	26.2
246.288	13.79
246.506	19.58
246.724	34.69
246.942	32.51
247.16	23.28
247.378	20
247.596	21.13
247.814	13.97
248.032	11.58
248.25	2.27
248.468	14.46
248.685	23.85
248.903	29.13
249.121	32.97
249.339	44.45
249.557	43.44
249.775	25.25
249.992	8.45
250.21	6.79
250.428	-0.33
250.646	5.45
250.863	-1
251.081	-2.09
251.299	29.68
251.517	51.4
251.734	50.28
251.952	69.32
252.17	30.37
252.387	30.28
252.605	26.76
252.823	10.36
253.04	9.95
253.258	12.48
253.475	-6.13
253.693	24.58
253.911	28.72
254.128	25.15
254.346	19.84
254.563	17.42
254.781	17.1
254.998	17.98
255.216	14.72
255.433	18.77
255.651	20.31
255.868	33.8
256.086	31.43
256.303	28.23
256.521	31.24
256.738	24.43
256.956	2.57
257.173	-0.44
257.39	-4.46
257.608	1.43
257.825	-4.65
258.043	3.32
258.26	1.35
258.477	10.18
258.695	17.74
258.912	18.02
259.129	11.65
259.346	20.11
259.564	15.53
259.781	30.14
259.998	43.75
260.216	45.68
260.433	49.23
260.65	50.77
260.867	43.13
261.084	41.02
261.302	35.32
261.519	11.89
261.736	-5.93
261.953	-9.58
262.17	-7.71
262.387	-6.84
262.604	-8.3
262.822	-4.87
263.039	7.31
263.256	8.02
263.473	-1.05
263.69	4.28
263.907	7.75
264.124	-0.16
264.341	-6.77
264.558	1.41
264.775	9.69
264.992	18.19
265.209	22.03
265.426	27.3
265.643	38.99
265.86	34.06
266.077	40.15
266.294	38.91
266.51	34.98
266.727	29.01
266.944	20.8
267.161	14.44
267.378	31.06
267.595	9.71
267.812	8.76
268.028	17.18
268.245	11.27
268.462	14.57
268.679	8.44
268.896	1.65
269.112	13.88
269.329	23.18
269.546	22.69
269.763	38.38
269.979	31.57
270.196	34.29
270.413	36.62
270.629	25.16
270.846	20.36
271.063	16.92
271.279	4.27
271.496	-5.15
271.712	-13.78
271.929	-15.05
272.146	-5.92
272.362	-14
272.579	-9.2
272.795	-6.65
273.012	1.73
273.228	1.86
273.445	9.82
273.661	3.59
273.878	8.38
274.094	7.94
274.311	19.74
274.527	19.06
274.744	23.3
274.96	22.11
275.177	33.07
275.393	30.69
275.609	27.31
275.826	16.46
276.042	32
276.259	40.43
276.475	30.75
276.691	26.59
276.908	28.08
277.124	24.23
277.34	22.65
277.557	12.69
277.773	9.09
277.989	11.98
278.205	0.34
278.422	0.09
278.638	14.12
278.854	14.8
279.07	7.76
279.286	1.86
279.503	3.93
279.719	29.82
279.935	28.6
280.151	32.12
280.367	33.24
280.583	36.57
280.799	37.58
281.016	36.28
281.232	24.09
281.448	22.57
281.664	18.72
281.88	17.74
282.096	24.89
282.312	22.9
282.528	12.4
282.744	11.24
282.96	12.02
283.176	8.55
283.392	10.98
283.608	6.77
283.824	-1.38
284.04	10.25
284.256	12.1
284.471	11.63
284.687	7.36
284.903	7.66
285.119	-3.91
285.335	7.07
285.551	0.45
285.767	0.66
285.982	1.35
286.198	2.76
286.414	13.06
286.63	20.16
286.846	13.89
287.061	21.29
287.277	21.51
287.493	18.3
287.709	28.39
287.924	25.45
288.14	28.28
288.356	37.15
288.571	29.47
288.787	38.19
289.003	45.45
289.218	33.93
289.434	27.53
289.65	32.92
289.865	35.98
290.081	32.98
290.296	24.98
290.512	32
290.727	37.4
290.943	39.47
291.159	26.97
291.374	22.93
291.59	26.49
291.805	32.18
292.021	2.02
292.236	-0.97
292.451	6.84
292.667	16.32
292.882	12.18
293.098	10.26
293.313	-2.19
293.529	11.5
293.744	10.79
293.959	12.7
294.175	15.29
294.39	20.22
294.605	23.79
294.821	22.39
295.036	29.78
295.251	28.55
295.467	15.38
295.682	16.78
295.897	15.19
296.112	21.3
296.328	29.19
296.543	21.59
296.758	25.43
296.973	32.81
297.188	36.04
297.404	35.79
297.619	28.92
297.834	39.76
298.049	42.09
298.264	38.32
298.479	25.47
298.694	36.01
298.909	36.52
299.125	39.48
299.34	26
299.555	28
299.77	26.68
299.985	26.92
300.2	17.34
300.415	13.6
300.63	4.77
300.845	15.19
301.06	10.38
301.275	17.59
301.49	23.46
301.704	16.7
301.919	13.45
302.134	22
302.349	8.94
302.564	4.69
302.779	-3.79
302.994	-9.46
303.209	-7.21
303.423	19.34
303.638	11.73
303.853	25.07
304.068	34.58
304.283	28.26
304.497	26.25
304.712	28.33
304.927	17.06
305.142	19.63
305.356	20.49
305.571	22
305.786	33.16
306	41.92
306.215	40.88
306.43	45.32
306.644	40.73
306.859	40.16
307.074	26.71
307.288	22.93
307.503	21.9
307.717	21.41
307.932	21.19
308.147	20.79
308.361	17.86
308.576	27.95
308.79	28.49
309.005	28.8
309.219	27.1
309.434	23.32
309.648	11.99
309.863	21.24
310.077	18.45
310.292	13.23
310.506	23.92
310.72	30.87
310.935	33.51
311.149	35.25
311.364	29.52
311.578	24.72
311.792	25.01
312.007	14.31
312.221	9.47
312.435	11.75
312.649	20.21
312.864	3.78
313.078	23.6
313.292	26.83
313.507	26.66
313.721	30.25
313.935	34.48
314.149	27.83
314.363	34.74
314.578	48.86
314.792	47.23
315.006	51.39
315.22	56.62
315.434	43.7
315.648	43.79
315.862	42.88
316.077	26.21
316.291	25.37
316.505	25.22
316.719	8.07
316.933	20.29
317.147	18.68
317.361	19.54
317.575	13.28
317.789	14.18
318.003	11.9
318.217	27.73
318.431	25.28
318.645	26.14
318.859	19.93
319.073	17.06
319.287	21.89
319.5	22.24
319.714	17
319.928	17.32
320.142	13.06
320.356	30.18
320.57	26.71
320.784	24.84
320.997	26.95
321.211	23.02
321.425	12.41
321.639	15.95
321.853	1.63
322.066	8.82
322.28	10.76
322.494	4.38
322.707	5.75
322.921	12.19
323.135	19.1
323.349	22.75
323.562	23.08
323.776	23.1
323.989	25.98
324.203	31.02
324.417	26.97
324.63	18.97
324.844	10.82
325.057	12.67
325.271	-0.73
325.485	6.9
325.698	3.84
325.912	20.11
326.125	25.98
326.339	27.57
326.552	24.59
326.766	34.55
326.979	33.98
327.193	29.64
327.406	24.24
327.619	11.02
327.833	12.32
328.046	5.4
328.26	-0.18
328.473	-2.32
328.686	9.59
328.9	3.52
329.113	11.34
329.326	25.01
329.54	27.93
329.753	25.11
329.966	25.55
330.179	16.53
330.393	24.98
330.606	27.11
330.819	23.78
331.032	30.61
331.246	31.67
331.459	23.65
331.672	26.49
331.885	14.29
332.098	28.82
332.311	12.04
332.525	7.8
332.738	9.86
332.951	21.29
333.164	24.81
333.377	36.46
333.59	22.49
333.803	37.6
334.016	45.76
334.229	37.82
334.442	31.01
334.655	26.35
334.868	31.64
335.081	36.68
335.294	34.14
335.507	43.18
335.72	38.14
335.933	44.46
336.146	51.82
336.359	46.44
336.572	36.64
336.785	39.42
336.997	25.52
337.21	32.74
337.423	19.8
337.636	16.52
337.849	16.47
338.062	20.25
338.274	17.22
338.487	25.65
338.7	25.39
338.913	27.55
339.125	22.33
339.338	24.39
339.551	30.23
339.763	23.87
339.976	22.29
340.189	13.97
340.402	15.41
340.614	16.83
340.827	6.64
341.039	-2.07
341.252	-1.38
341.465	-12.26
341.677	-7.45
341.89	-5.96
342.102	6.22
342.315	12.87
342.527	8.17
342.74	11.59
342.952	23.67
343.165	32.24
343.377	32.76
343.59	24.14
343.802	26.88
344.015	29.95
344.227	20.27
344.44	15.67
344.652	16.22
344.864	9.93
345.077	-6.17
345.289	-12.74
345.502	-9.17
345.714	-10.47
345.926	-10.04
346.139	-14.03
346.351	-21.87
346.563	-1.31
346.775	-0.43
346.988	-4.85
347.2	9.47
347.412	15.39
347.624	22.57
347.837	27.61
348.049	25.38
348.261	24.25
348.473	24.55
348.685	20.97
348.897	16.74
349.11	16.17
349.322	10.49
349.534	5.89
349.746	16.02
349.958	20.06
350.17	20.66
350.382	17.22
350.594	16.45
350.806	32.75
351.018	36.33
351.23	29.12
351.442	28.73
351.654	33.6
351.866	35.14
352.078	32.43
352.29	30.85
352.502	26.52
352.714	31.25
352.926	30.21
353.138	20.27
353.35	15.29
353.561	5.26
353.773	0.49
353.985	7.17
354.197	1.3
354.409	5.76
354.621	8.65
354.832	7.28
355.044	16.42
355.256	18.33
355.468	7.01
355.679	11.38
355.891	11.05
356.103	11.88
356.314	13.34
356.526	12.96
356.738	5.16
356.949	8.77
357.161	7.73
357.373	4.05
357.584	15.89
357.796	13.48
358.008	18.71
358.219	28.88
358.431	30.63
358.642	29.92
358.854	30.18
359.065	24.79
359.277	29.38
359.488	19.5
359.7	13.7
359.911	11.31
360.123	17.4
360.334	18.87
360.546	5.04
360.757	9.92
360.969	17.67
361.18	18.99
361.391	21.35
361.603	14.74
361.814	13.02
362.025	18.9
362.237	15.17
362.448	14.89
362.659	2.47
362.871	4.91
363.082	10.31
363.293	13.2
363.504	15.3
363.716	17.24
363.927	17.99
364.138	24.71
364.349	24.83
364.56	19.42
364.772	14.39
364.983	12.04
365.194	15.8
365.405	14.36
365.616	9.23
365.827	10.7
366.038	17.35
366.25	22.97
366.461	32.58
366.672	26.56
366.883	25.85
367.094	25.53
367.305	25.34
367.516	22.12
367.727	24.4
367.938	15.34
368.149	23.28
368.36	26.97
368.571	30.29
368.781	23.9
368.992	19.98
369.203	18.39
369.414	16.47
369.625	10.17
369.836	7.31
370.047	5.16
370.258	4.04
370.468	8.06
370.679	1.37
370.89	11.35
371.101	7.98
371.312	0.71
371.522	-1.9
371.733	-3.85
371.944	1.97
372.155	-5.23
372.365	-11.3
372.576	-10.07
372.787	-8.19
372.997	-9.96
373.208	-4.92
373.419	-10.36
373.629	-1.61
373.84	-7.32
374.05	-4.61
374.261	-4.91
374.472	2.86
374.682	-1.73
374.893	0.77
375.103	5.01
375.314	12.55
375.524	15.72
375.735	19.39
375.945	16.91
376.156	28.25
376.366	32.77
376.577	35.92
376.787	37.83
376.997	36.02
377.208	32.11
377.418	28.54
377.629	18.21
377.839	19.78
378.049	22.19
378.26	25.57
378.47	24.87
378.68	26.88
378.89	25.29
379.101	19.87
379.311	11.99
379.521	7.67
379.732	-9.57
379.942	-10.69
380.152	0.17
380.362	9.38
380.572	19.66
380.783	19.19
380.993	19.67
381.203	27.84
381.413	30.22
381.623	22.91
381.833	20.81
382.043	14.91
382.253	16.72
382.463	15.98
382.674	12.23
382.884	6.7
383.094	7.24
383.304	3.05
383.514	6.17
383.724	4.83
383.934	4.81
384.144	10.02
384.353	13.35
384.563	10.92
384.773	11.65
384.983	11.47
385.193	11.85
385.403	10
385.613	8.85
385.823	9.97
386.033	11.54
386.242	12.03
386.452	11.57
386.662	12.48
386.872	11.88
387.082	6.96
387.291	5.42
387.501	6.76
387.711	5.27
387.921	3
388.13	3.23
388.34	4.7
388.55	9.65
388.759	7.85
388.969	3.87
389.179	8.36
389.388	9.81
389.598	7.59
389.807	7.17
390.017	5.87
390.227	5.56
390.436	6.69
390.646	4.97
390.855	4.82
391.065	5.72
391.274	3.81
391.484	3.46
391.693	4.25
391.903	2.92
392.112	2.48
392.322	2.42
392.531	2.88
392.74	2.5
392.95	2.03
393.159	2.05
393.369	3.15
393.578	4.25
393.787	4.49
393.997	5.59
394.206	6.65
394.415	6.33
394.625	5.64
394.834	4.21
395.043	4.02
395.252	4.61
395.462	4.03
395.671	4.03
395.88	5.29
396.089	5.79
396.298	6.26
396.508	5.62
396.717	4.85
396.926	4.13
397.135	3.59
397.344	3.24
397.553	3.4
397.762	3.91
397.971	3.82
398.181	3.62
398.39	4
398.599	4.37
398.808	4.55
399.017	4.63
399.226	4.66
399.435	4.44
399.644	4.49
399.853	4.55
400.062	4.55
400.27	4.4
400.479	4.1
400.688	3.92
400.897	4.37
401.106	4.51
401.315	4.38
401.524	4.4
401.733	4.43
401.941	4.45
402.15	4.22
402.359	4.02
402.568	4.02
402.777	3.83
402.985	3.66
403.194	3.4
403.403	3.23
403.612	3.29
403.82	3.26
404.029	3.06
404.238	3.09
404.446	3.05
404.655	3.02
404.864	3.06
405.072	3.12
405.281	2.99
405.489	3.07
405.698	3.12
405.906	3.17
406.115	3.29
406.324	3.2
406.532	3.15
406.741	3.24
406.949	3.12
407.158	3.09
407.366	3.18
407.574	3.11
407.783	3.12
407.991	3.1
408.2	3.04
408.408	3.07
408.617	3.04
408.825	3.01
409.033	2.95
409.242	2.94
409.45	2.92
409.658	2.99
409.867	2.95
410.075	2.88
410.283	2.78
410.491	2.81
410.7	2.88
410.908	2.88
411.116	2.76
411.324	2.84
411.533	2.8
411.741	2.77
411.949	2.78
412.157	2.78
412.365	2.74
412.573	2.79
412.781	2.77
412.99	2.89
413.198	2.95
413.406	2.94
413.614	2.9
413.822	2.92
414.03	2.81
414.238	2.85
414.446	2.79
414.654	2.74
414.862	2.72
415.07	2.79
415.278	2.78
415.486	2.91
415.694	2.82
415.902	2.73
416.109	2.82
416.317	2.81
416.525	2.78
416.733	2.85
416.941	2.75
417.149	2.9
417.357	2.98
417.564	2.88
417.772	2.95
417.98	2.9
418.188	2.76
418.395	2.77
418.603	2.57
418.811	2.5
419.019	2.49
419.226	2.52
419.434	2.45
419.642	2.5
419.849	2.52
420.057	2.65
420.265	2.68
420.472	2.61
420.68	2.47
420.887	2.48
421.095	2.47
421.302	2.47
421.51	2.53
421.717	2.63
421.925	2.58
422.132	2.54
422.34	2.55
422.547	2.55
422.755	2.53
422.962	2.4
423.17	2.27
423.377	2.45
423.585	2.56
423.792	2.59
423.999	2.51
424.207	2.42
424.414	2.46
424.621	2.47
424.829	2.43
425.036	2.33
425.243	2.32
425.451	2.33
425.658	2.44
425.865	2.31
426.072	2.35
426.28	2.3
426.487	2.35
426.694	2.35
426.901	2.37
427.108	2.34
427.315	2.4
427.523	2.43
427.73	2.42
427.937	2.45
428.144	2.41
428.351	2.5
428.558	2.46
428.765	2.5
428.972	2.46
429.179	2.48
429.386	2.49
429.593	2.51
429.8	2.51
430.007	2.56
430.214	2.59
430.421	2.56
430.628	2.46
430.835	2.45
431.042	2.47
431.249	2.39
431.456	2.43
431.662	2.44
431.869	2.52
432.076	2.64
432.283	2.6
432.49	2.57
432.697	2.66
432.903	2.58
433.11	2.65
433.317	2.64
433.524	2.55
433.73	2.62
433.937	2.59
434.144	2.62
434.35	2.64
434.557	2.5
434.764	2.52
434.97	2.65
435.177	2.56
435.384	2.65
435.59	2.56
435.797	2.62
436.003	2.65
436.21	2.59
436.416	2.49
436.623	2.6
436.829	2.6
437.036	2.63
437.242	2.62
437.449	2.66
437.655	2.65
437.862	2.69
438.068	2.71
438.275	2.63
438.481	2.68
438.687	2.71
438.894	2.76
439.1	2.77
439.307	2.81
439.513	2.76
439.719	2.82
439.926	2.84
440.132	2.8
440.338	2.74
440.544	2.79
440.751	2.75
440.957	2.72
441.163	2.74
441.369	2.7
441.575	2.65
441.782	2.66
441.988	2.64
442.194	2.73
442.4	2.74
442.606	2.79
442.812	2.81
443.018	2.85
443.224	2.89
443.431	2.91
443.637	2.83
443.843	2.91
444.049	2.82
444.255	2.78
444.461	2.82
444.667	2.82
444.873	2.79
445.079	2.83
445.284	2.74
445.49	2.77
445.696	2.83
445.902	2.86
446.108	2.89
446.314	2.93
446.52	2.94
446.726	3
446.931	3.04
447.137	3
447.343	2.98
447.549	2.89
447.755	2.9
447.96	2.91
448.166	2.9
448.372	2.87
448.578	2.89
448.783	2.84
448.989	2.9
449.195	2.9
449.4	2.84
449.606	2.8
449.812	2.8
450.017	2.88
450.223	2.89
450.428	2.87
450.634	2.87
450.84	2.87
451.045	2.9
451.251	3
451.456	2.92
451.662	2.93
451.867	2.94
452.073	2.93
452.278	2.99
452.483	3
452.689	2.95
452.894	2.98
453.1	2.92
453.305	2.9
453.51	2.86
453.716	2.84
453.921	2.81
454.127	2.77
454.332	2.78
454.537	2.92
454.742	2.94
454.948	2.98
455.153	2.99
455.358	3.05
455.563	3.07
455.769	3.03
455.974	2.9
456.179	2.86
456.384	2.91
456.589	2.93
456.795	2.88
457	2.95
457.205	2.9
457.41	2.96
457.615	3.05
457.82	3.06
458.025	3.01
458.23	3.04
458.435	2.92
458.64	3
458.845	2.96
459.05	2.9
459.255	2.85
459.46	2.86
459.665	2.89
459.87	2.94
460.075	2.92
460.28	2.93
460.485	3
460.69	2.96
460.895	3.01
461.099	2.97
461.304	2.98
461.509	2.93
461.714	2.99
461.919	2.95
462.123	2.98
462.328	2.92
462.533	2.96
462.738	3
462.942	3.1
463.147	3.07
463.352	3.11
463.556	3.16
463.761	3.2
463.966	3.2
464.17	3.19
464.375	3.13
464.58	3.11
464.784	3.1
464.989	3.1
465.193	3.12
465.398	3.07
465.602	3.08
465.807	3.14
466.011	3.18
466.216	3.19
466.42	3.19
466.625	3.17
466.829	3.25
467.034	3.26
467.238	3.24
467.443	3.25
467.647	3.27
467.851	3.29
468.056	3.31
468.26	3.31
468.464	3.33
468.669	3.38
468.873	3.35
469.077	3.36
469.282	3.38
469.486	3.39
469.69	3.41
469.894	3.5
470.099	3.51
470.303	3.55
470.507	3.57
470.711	3.56
470.915	3.61
471.119	3.66
471.324	3.53
471.528	3.55
471.732	3.53
471.936	3.55
472.14	3.56
472.344	3.54
472.548	3.51
472.752	3.61
472.956	3.64
473.16	3.69
473.364	3.68
473.568	3.73
473.772	3.76
473.976	3.77
474.18	3.76
474.384	3.71
474.588	3.71
474.792	3.71
474.995	3.72
475.199	3.72
475.403	3.75
475.607	3.79
475.811	3.81
476.015	3.85
476.218	3.85
476.422	3.87
476.626	3.85
476.83	3.82
477.033	3.79
477.237	3.84
477.441	3.85
477.644	3.91
477.848	3.88
478.052	3.91
478.255	3.98
478.459	4.06
478.663	4.06
478.866	4.03
479.07	4.04
479.273	4.05
479.477	4.09
479.681	4.05
479.884	3.99
480.088	4.01
480.291	4.05
480.495	4.09
480.698	4.16
480.901	4.15
481.105	4.21
481.308	4.21
481.512	4.19
481.715	4.22
481.919	4.19
482.122	4.14
482.325	4.19
482.529	4.24
482.732	4.27
482.935	4.3
483.138	4.29
483.342	4.36
483.545	4.41
483.748	4.43
483.952	4.41
484.155	4.45
484.358	4.44
484.561	4.43
484.764	4.4
484.967	4.43
485.171	4.39
485.374	4.42
485.577	4.42
485.78	4.49
485.983	4.48
486.186	4.47
486.389	4.43
486.592	4.47
486.795	4.45
486.998	4.46
487.201	4.45
487.404	4.53
487.607	4.54
487.81	4.54
488.013	4.52
488.216	4.53
488.419	4.49
488.622	4.47
488.825	4.45
489.028	4.47
489.231	4.51
489.433	4.51
489.636	4.48
489.839	4.49
490.042	4.47
490.245	4.46
490.447	4.4
490.65	4.43
490.853	4.4
491.056	4.43
491.258	4.43
491.461	4.44
491.664	4.42
491.866	4.49
492.069	4.43
492.272	4.48
492.474	4.48
492.677	4.49
492.879	4.5
493.082	4.57
493.285	4.55
493.487	4.56
493.69	4.55
493.892	4.58
494.095	4.54
494.297	4.61
494.5	4.64
494.702	4.65
494.905	4.67
495.107	4.7
495.309	4.66
495.512	4.71
495.714	4.7
495.917	4.67
496.119	4.66
496.321	4.71
496.524	4.7
496.726	4.73
496.928	4.76
497.13	4.76
497.333	4.77
497.535	4.8
497.737	4.78
497.939	4.83
498.142	4.82
498.344	4.82
498.546	4.88
498.748	4.86
498.95	4.9
499.152	4.87
499.355	4.87
499.557	4.92
499.759	5
499.961	4.98
500.163	5.05
500.365	5.05
500.567	5.08
500.769	5.15
500.971	5.15
501.173	5.13
501.375	5.13
501.577	5.11
501.779	5.14
501.981	5.18
502.183	5.14
502.385	5.16
502.587	5.18
502.788	5.19
502.99	5.19
503.192	5.23
503.394	5.25
503.596	5.29
503.798	5.33
503.999	5.35
504.201	5.37
504.403	5.44
504.605	5.45
504.806	5.45
505.008	5.43
505.21	5.44
505.411	5.47
505.613	5.52
505.815	5.54
506.016	5.59
506.218	5.61
506.42	5.7
506.621	5.7
506.823	5.73
507.024	5.7
507.226	5.7
507.427	5.66
507.629	5.7
507.83	5.67
508.032	5.73
508.233	5.74
508.435	5.77
508.636	5.79
508.838	5.88
509.039	5.9
509.24	5.96
509.442	5.93
509.643	5.94
509.845	5.99
510.046	6.03
510.247	6.04
510.448	6.06
510.65	6.1
510.851	6.14
511.052	6.15
511.254	6.16
511.455	6.16
511.656	6.18
511.857	6.17
512.058	6.16
512.26	6.19
512.461	6.24
512.662	6.23
512.863	6.25
513.064	6.23
513.265	6.27
513.466	6.32
513.667	6.33
513.868	6.32
514.069	6.37
514.27	6.4
514.471	6.48
514.672	6.5
514.873	6.53
515.074	6.56
515.275	6.58
515.476	6.59
515.677	6.62
515.878	6.6
516.079	6.6
516.28	6.58
516.481	6.57
516.682	6.59
516.882	6.6
517.083	6.6
517.284	6.62
517.485	6.64
517.686	6.64
517.886	6.66
518.087	6.67
518.288	6.67
518.488	6.7
518.689	6.71
518.89	6.75
519.091	6.78
519.291	6.81
519.492	6.83
519.692	6.89
519.893	6.9
520.094	6.95
520.294	6.93
520.495	6.93
520.695	6.95
520.896	6.95
521.096	6.96
521.297	6.98
521.497	6.95
521.698	6.95
521.898	7
522.099	7.02
522.299	7.04
522.499	7.05
522.7	7.05
522.9	7.07
523.101	7.1
523.301	7.07
523.501	7.08
523.702	7.1
523.902	7.13
524.102	7.16
524.302	7.19
524.503	7.21
524.703	7.27
524.903	7.3
525.103	7.31
525.304	7.3
525.504	7.31
525.704	7.29
525.904	7.3
526.104	7.29
526.304	7.31
526.504	7.34
526.705	7.38
526.905	7.41
527.105	7.44
527.305	7.44
527.505	7.48
527.705	7.49
527.905	7.46
528.105	7.42
528.305	7.44
528.505	7.46
528.705	7.5
528.905	7.49
529.105	7.5
529.304	7.56
529.504	7.6
529.704	7.6
529.904	7.64
530.104	7.64
530.304	7.69
530.503	7.69
530.703	7.69
530.903	7.72
531.103	7.73
531.303	7.76
531.502	7.79
531.702	7.78
531.902	7.77
532.101	7.78
532.301	7.77
532.501	7.78
532.7	7.77
532.9	7.8
533.1	7.81
533.299	7.89
533.499	7.94
533.698	8
533.898	8.02
534.097	8.07
534.297	8.08
534.496	8.11
534.696	8.11
534.895	8.16
535.095	8.19
535.294	8.23
535.494	8.25
535.693	8.29
535.892	8.32
536.092	8.33
536.291	8.32
536.491	8.33
536.69	8.33
536.889	8.31
537.088	8.31
537.288	8.39
537.487	8.43
537.686	8.45
537.886	8.48
538.085	8.52
538.284	8.59
538.483	8.64
538.682	8.62
538.882	8.66
539.081	8.65
539.28	8.69
539.479	8.77
539.678	8.84
539.877	8.83
540.076	8.87
540.275	8.91
540.474	8.91
540.673	8.94
540.872	8.96
541.071	8.96
541.27	9
541.469	9.05
541.668	9.06
541.867	9.2
542.066	9.24
542.265	9.25
542.464	9.32
542.663	9.41
542.862	9.45
543.06	9.54
543.259	9.54
543.458	9.58
543.657	9.64
543.856	9.65
544.054	9.66
544.253	9.67
544.452	9.66
544.651	9.69
544.849	9.71
545.048	9.75
545.247	9.78
545.445	9.78
545.644	9.85
545.843	9.94
546.041	9.98
546.24	10.07
546.438	10.1
546.637	10.19
546.836	10.27
547.034	10.31
547.233	10.37
547.431	10.41
547.63	10.46
547.828	10.54
548.027	10.58
548.225	10.66
548.423	10.73
548.622	10.77
548.82	10.86
549.019	10.89
549.217	10.98
549.415	11.07
549.614	11.06
549.812	11.11
550.01	11.19
550.209	11.27
550.407	11.35
550.605	11.41
550.803	11.43
551.002	11.53
551.2	11.65
551.398	11.69
551.596	11.76
551.794	11.83
551.993	11.85
552.191	11.98
552.389	12.1
552.587	12.11
552.785	12.2
552.983	12.25
553.181	12.33
553.379	12.43
553.577	12.5
553.775	12.57
553.973	12.66
554.171	12.71
554.369	12.82
554.567	12.91
554.765	12.95
554.963	12.99
555.161	13.09
555.359	13.17
555.557	13.29
555.755	13.34
555.952	13.42
556.15	13.51
556.348	13.62
556.546	13.66
556.744	13.78
556.941	13.93
557.139	14.05
557.337	14.16
557.535	14.27
557.732	14.35
557.93	14.43
558.128	14.49
558.325	14.51
558.523	14.6
558.721	14.7
558.918	14.82
559.116	14.87
559.313	14.99
559.511	15.08
559.708	15.17
559.906	15.24
560.104	15.3
560.301	15.39
560.498	15.51
560.696	15.59
560.893	15.7
561.091	15.8
561.288	15.89
561.486	16
561.683	16.08
561.88	16.2
562.078	16.28
562.275	16.42
562.473	16.5
562.67	16.58
562.867	16.69
563.064	16.83
563.262	16.97
563.459	17.08
563.656	17.17
563.853	17.28
564.051	17.41
564.248	17.54
564.445	17.63
564.642	17.71
564.839	17.82
565.036	17.94
565.234	18.1
565.431	18.19
565.628	18.3
565.825	18.41
566.022	18.43
566.219	18.47
566.416	18.53
566.613	18.6
566.81	18.73
567.007	18.8
567.204	18.88
567.401	18.99
567.598	19.07
567.795	19.14
567.991	19.22
568.188	19.25
568.385	19.29
568.582	19.35
568.779	19.49
568.976	19.63
569.172	19.73
569.369	19.76
569.566	19.81
569.763	19.87
569.96	19.93
570.156	19.96
570.353	20
570.55	20.06
570.746	20.15
570.943	20.3
571.14	20.37
571.336	20.41
571.533	20.49
571.729	20.57
571.926	20.59
572.123	20.61
572.319	20.59
572.516	20.62
572.712	20.68
572.909	20.69
573.105	20.7
573.302	20.71
573.498	20.8
573.695	20.81
573.891	20.83
574.087	20.88
574.284	20.91
574.48	20.91
574.677	20.99
574.873	21.02
575.069	21.1
575.266	21.12
575.462	21.13
575.658	21.21
575.854	21.24
576.051	21.22
576.247	21.13
576.443	21.14
576.639	21.15
576.835	21.17
577.032	21.15
577.228	21.21
577.424	21.25
577.62	21.36
577.816	21.34
578.012	21.35
578.208	21.37
578.404	21.43
578.6	21.44
578.796	21.47
578.993	21.47
579.189	21.47
579.384	21.47
579.58	21.49
579.776	21.45
579.972	21.41
580.168	21.39
580.364	21.37
580.56	21.4
580.756	21.37
580.952	21.32
581.148	21.29
581.343	21.3
581.539	21.29
581.735	21.27
581.931	21.25
582.127	21.25
582.322	21.19
582.518	21.16
582.714	21.13
582.909	21.07
583.105	21.06
583.301	21.05
583.496	21.07
583.692	21.12
583.888	21.11
584.083	21.16
584.279	21.26
584.474	21.25
584.67	21.23
584.866	21.26
585.061	21.29
585.257	21.36
585.452	21.28
585.648	21.18
585.843	21.23
586.039	21.21
586.234	21.13
586.429	21.07
586.625	21
586.82	20.99
587.015	21.02
587.211	20.99
587.406	21.07
587.601	21.13
587.797	21.16
587.992	21.14
588.187	21.22
588.383	21.19
588.578	21.14
588.773	21.09
588.968	21.09
589.163	21.13
589.359	21.17
589.554	21.18
589.749	21.27
589.944	21.36
590.139	21.4
590.334	21.41
590.529	21.42
590.724	21.48
590.919	21.51
591.114	21.5
591.309	21.55
591.504	21.57
591.699	21.55
591.894	21.6
592.089	21.69
592.284	21.67
592.479	21.68
592.674	21.7
592.869	21.75
593.064	21.87
593.259	21.91
593.454	21.89
593.648	21.99
593.843	22.08
594.038	22.13
594.233	22.22
594.428	22.33
594.622	22.42
594.817	22.53
595.012	22.6
595.206	22.65
595.401	22.74
595.596	22.78
595.79	22.8
595.985	22.83
596.18	22.91
596.374	22.98
596.569	23.08
596.763	23.22
596.958	23.27
597.153	23.4
597.347	23.52
597.542	23.6
597.736	23.71
597.931	23.82
598.125	23.88
598.319	23.98
598.514	23.97
598.708	24.04
598.903	24.13
599.097	24.22
599.291	24.28
599.486	24.31
599.68	24.37
599.874	24.5
600.069	24.48
600.263	24.44
600.457	24.44
600.651	24.44
600.846	24.46
601.04	24.48
601.234	24.5
601.428	24.54
601.622	24.62
601.817	24.67
602.011	24.78
602.205	24.85
602.399	24.91
602.593	24.96
602.787	25.05
602.981	25.06
603.175	24.97
603.369	24.91
603.563	24.92
603.757	24.92
603.951	24.88
604.145	24.83
604.339	24.83
604.533	24.94
604.727	24.94
604.921	24.87
605.115	24.86
605.309	24.89
605.502	24.94
605.696	24.89
605.89	24.87
606.084	24.84
606.278	24.83
606.471	24.75
606.665	24.67
606.859	24.59
607.053	24.61
607.246	24.54
607.44	24.46
607.634	24.43
607.827	24.38
608.021	24.28
608.214	24.24
608.408	24.1
608.602	24.03
608.795	23.96
608.989	23.89
609.182	23.89
609.376	23.86
609.569	23.75
609.763	23.76
609.956	23.68
610.15	23.63
610.343	23.58
610.537	23.46
610.73	23.41
610.923	23.34
611.117	23.16
611.31	23.08
611.504	23.07
611.697	23.02
611.89	22.94
612.083	22.87
612.277	22.81
612.47	22.82
612.663	22.78
612.856	22.65
613.05	22.48
613.243	22.4
613.436	22.28
613.629	22.21
613.822	22.13
614.015	22.08
614.209	22.09
614.402	22.05
614.595	21.97
614.788	21.93
614.981	21.82
615.174	21.72
615.367	21.61
615.56	21.47
615.753	21.43
615.946	21.43
616.139	21.46
616.332	21.42
616.525	21.42
616.718	21.39
616.911	21.4
617.103	21.36
617.296	21.28
617.489	21.22
617.682	21.23
617.875	21.14
618.067	21.09
618.26	21.04
618.453	21
618.646	20.95
618.838	20.83
619.031	20.76
619.224	20.76
619.417	20.74
619.609	20.66
619.802	20.62
619.994	20.62
620.187	20.64
620.38	20.62
620.572	20.59
620.765	20.52
620.957	20.48
621.15	20.42
621.342	20.39
621.535	20.32
621.727	20.24
621.92	20.22
622.112	20.18
622.305	20.16
622.497	20.14
622.69	20.04
622.882	20.02
623.074	20.02
623.267	19.98
623.459	20
623.651	19.99
623.844	20
624.036	20.05
624.228	20.03
624.42	20.01
624.613	20.02
624.805	19.99
624.997	19.97
625.189	19.9
625.381	19.83
625.574	19.82
625.766	19.79
625.958	19.75
626.15	19.74
626.342	19.74
626.534	19.73
626.726	19.76
626.918	19.72
627.11	19.69
627.302	19.64
627.494	19.59
627.686	19.51
627.878	19.43
628.07	19.36
628.262	19.28
628.454	19.26
628.646	19.24
628.838	19.18
629.029	19.1
629.221	19.06
629.413	19.03
629.605	19
629.797	18.97
629.989	18.93
630.18	18.89
630.372	18.92
630.564	18.92
630.755	18.85
630.947	18.82
631.139	18.73
631.33	18.7
631.522	18.68
631.714	18.66
631.905	18.62
632.097	18.61
632.289	18.61
632.48	18.57
632.672	18.49
632.863	18.51
633.055	18.48
633.246	18.53
633.438	18.53
633.629	18.55
633.821	18.57
634.012	18.59
634.203	18.62
634.395	18.62
634.586	18.57
634.777	18.53
634.969	18.48
635.16	18.47
635.351	18.47
635.543	18.36
635.734	18.28
635.925	18.31
636.117	18.34
636.308	18.3
636.499	18.28
636.69	18.32
636.881	18.39
637.073	18.39
637.264	18.35
637.455	18.3
637.646	18.31
637.837	18.31
638.028	18.28
638.219	18.19
638.41	18.15
638.601	18.12
638.792	18.15
638.983	18.13
639.174	18.11
639.365	18.04
639.556	18.04
639.747	18.08
639.938	18.07
640.129	18.03
640.32	18.03
640.511	18
640.701	17.95
640.892	17.94
641.083	17.92
641.274	17.92
641.465	17.86
641.655	17.83
641.846	17.78
642.037	17.77
642.228	17.72
642.418	17.65
642.609	17.63
642.8	17.6
642.99	17.62
643.181	17.67
643.372	17.71
643.562	17.71
643.753	17.71
643.943	17.64
644.134	17.67
644.324	17.64
644.515	17.59
644.705	17.53
644.896	17.49
645.086	17.45
645.277	17.47
645.467	17.43
645.658	17.38
645.848	17.31
646.038	17.28
646.229	17.28
646.419	17.26
646.61	17.21
646.8	17.18
646.99	17.15
647.18	17.16
647.371	17.11
647.561	17.09
647.751	17.06
647.941	17.02
648.132	16.97
648.322	16.98
648.512	16.98
648.702	16.96
648.892	16.97
649.082	16.92
649.272	16.9
649.462	16.91
649.653	16.9
649.843	16.83
650.033	16.81
650.223	16.74
650.413	16.78
650.603	16.77
650.793	16.68
650.983	16.62
651.172	16.59
651.362	16.55
651.552	16.49
651.742	16.4
651.932	16.37
652.122	16.36
652.312	16.23
652.502	16.16
652.691	16.13
652.881	16.06
653.071	15.98
653.261	15.84
653.45	15.74
653.64	15.7
653.83	15.58
654.019	15.41
654.209	15.33
654.399	15.19
654.588	15.11
654.778	15
654.968	14.86
655.157	14.72
655.347	14.57
655.536	14.38
655.726	14.3
655.915	14.15
656.105	14.03
656.294	13.9
656.484	13.8
656.673	13.72
656.863	13.57
657.052	13.39
657.241	13.23
657.431	13.06
657.62	12.83
657.809	12.63
657.999	12.48
658.188	12.38
658.377	12.27
658.567	12.1
658.756	11.93
658.945	11.85
659.134	11.73
659.324	11.53
659.513	11.34
659.702	11.1
659.891	10.93
660.08	10.82
660.269	10.66
660.458	10.48
660.648	10.32
660.837	10.2
661.026	10.12
661.215	10.01
661.404	9.88
661.593	9.72
661.782	9.59
661.971	9.5
662.16	9.32
662.349	9.17
662.538	9.09
662.726	8.9
662.915	8.81
663.104	8.68
663.293	8.5
663.482	8.4
663.671	8.28
663.86	8.12
664.048	8.06
664.237	8.01
664.426	7.97
664.615	7.91
664.803	7.8
664.992	7.78
665.181	7.71
665.369	7.61
665.558	7.5
665.747	7.47
665.935	7.44
666.124	7.43
666.312	7.26
666.501	7.18
666.69	7.13
666.878	7.03
667.067	6.96
667.255	6.93
667.444	6.9
667.632	6.94
667.82	6.9
668.009	6.91
668.197	6.92
668.386	6.82
668.574	6.73
668.762	6.63
668.951	6.56
669.139	6.57
669.327	6.49
669.516	6.5
669.704	6.51
669.892	6.51
670.08	6.53
670.269	6.55
670.457	6.51
670.645	6.54
670.833	6.53
671.021	6.54
671.21	6.62
671.398	6.63
671.586	6.66
671.774	6.67
671.962	6.65
672.15	6.66
672.338	6.7
672.526	6.67
672.714	6.73
672.902	6.76
673.09	6.87
673.278	6.94
673.466	7.02
673.654	7.05
673.842	7.15
674.03	7.18
674.218	7.24
674.405	7.28
674.593	7.31
674.781	7.34
674.969	7.38
675.157	7.45
675.344	7.53
675.532	7.61
675.72	7.63
675.908	7.72
676.095	7.9
676.283	7.99
676.471	8.06
676.658	8.17
676.846	8.24
677.033	8.38
677.221	8.46
677.409	8.46
677.596	8.65
677.784	8.7
677.971	8.75
678.159	8.88
678.346	8.95
678.534	9.07
678.721	9.17
678.909	9.13
679.096	9.25
679.283	9.35
679.471	9.48
679.658	9.64
679.846	9.8
680.033	9.93
680.22	10.05
680.408	10.15
680.595	10.24
680.782	10.34
680.969	10.35
681.157	10.39
681.344	10.5
681.531	10.66
681.718	10.81
681.905	10.94
682.093	11.13
682.28	11.34
682.467	11.49
682.654	11.62
682.841	11.81
683.028	12.08
683.215	12.32
683.402	12.41
683.589	12.62
683.776	12.92
683.963	13.17
684.15	13.41
684.337	13.53
684.524	13.8
684.711	14.03
684.898	14.19
685.085	14.43
685.271	14.68
685.458	14.93
685.645	15.17
685.832	15.47
686.019	15.87
686.205	16.29
686.392	16.59
686.579	16.88
686.766	17.25
686.952	17.77
687.139	18.07
687.326	18.47
687.512	18.86
687.699	19.29
687.886	19.69
688.072	20.22
688.259	20.54
688.445	20.97
688.632	21.45
688.818	21.86
689.005	22.43
689.191	22.99
689.378	23.38
689.564	23.94
689.751	24.69
689.937	25.14
690.124	25.84
690.31	26.36
690.496	26.99
690.683	27.7
690.869	28.31
691.055	28.88
691.242	29.41
691.428	30.02
691.614	30.6
691.8	31.05
691.987	31.73
692.173	32.53
692.359	33.13
692.545	33.86
692.731	34.52
692.918	35.24
693.104	36.13
693.29	36.85
693.476	37.36
693.662	38
693.848	38.82
694.034	39.4
694.22	40.19
694.406	40.81
694.592	41.36
694.778	42.12
694.964	42.76
695.15	43.36
695.336	44.23
695.522	44.85
695.708	45.58
695.894	46.25
696.08	46.79
696.265	47.51
696.451	48.21
696.637	48.77
696.823	49.37
697.009	50.04
697.194	50.72
697.38	51.45
697.566	52.04
697.751	52.59
697.937	53.11
698.123	53.74
698.308	54.24
698.494	54.8
698.68	55.49
698.865	56.19
699.051	56.77
699.236	57.45
699.422	57.97
699.607	58.54
699.793	59.15
699.978	59.41
700.164	59.9
700.349	60.27
700.535	60.68
700.72	61.27
700.906	61.9
701.091	62.25
701.276	63
701.462	63.43
701.647	64.01
701.832	64.48
702.018	64.8
702.203	64.9
702.388	65.2
702.573	65.45
702.759	65.87
702.944	66.24
703.129	66.57
703.314	66.98
703.499	67.63
703.684	68.17
703.87	68.5
704.055	68.93
704.24	69.48
704.425	70.08
704.61	70.22
704.795	70.45
704.98	70.72
705.165	71.03
705.35	71.32
705.535	71.58
705.72	71.67
705.905	72.21
706.09	72.44
706.275	72.78
706.459	73.31
706.644	73.39
706.829	73.6
707.014	73.84
707.199	74.05
707.384	74.42
707.568	74.62
707.753	74.8
707.938	74.97
708.123	74.95
708.307	75.29
708.492	75.5
708.677	75.69
708.861	75.91
709.046	75.83
709.231	76.46
709.415	76.98
709.6	77.09
709.784	77.11
709.969	77.23
710.153	77.59
710.338	77.83
710.522	77.63
710.707	77.38
710.891	77.64
711.076	78.01
711.26	78.14
711.445	78.09
711.629	78.5
711.813	78.62
711.998	78.92
712.182	79.08
712.366	79.21
712.551	79.48
712.735	79.57
712.919	79.67
713.103	79.99
713.288	80.18
713.472	80.14
713.656	80.16
713.84	80.21
714.024	80.58
714.208	80.55
714.393	80.56
714.577	80.6
714.761	80.9
714.945	81.09
715.129	81.25
715.313	81.17
715.497	81.29
715.681	81.49
715.865	81.54
716.049	81.77
716.233	82.05
716.417	82.38
716.601	82.29
716.785	82.61
716.968	82.72
717.152	83.24
717.336	83.1
717.52	83.14
717.704	83.08
717.888	83.42
718.071	83.47
718.255	83.55
718.439	83.39
718.622	83.7
718.806	83.27
718.99	83.29
719.174	83.4
719.357	83.28
719.541	83.47
719.724	83.73
719.908	83.72
720.092	84.48
720.275	84.71
720.459	84.71
720.642	84.8
720.826	84.9
721.009	84.66
721.193	84.53
721.376	84.25
721.559	84.19
721.743	84.4
721.926	84.24
722.11	84.35
722.293	84.39
722.476	84.45
722.66	84.7
722.843	84.69
723.026	84.83
723.21	84.85
723.393	84.78
723.576	84.93
723.759	85.39
723.942	85.36
724.126	85.41
724.309	85.26
724.492	85.55
724.675	85.68
724.858	86.01
725.041	85.62
725.224	85.81
725.407	85.7
725.59	85.79
725.774	86.04
725.957	86.12
726.14	86.2
726.322	86.25
726.505	86.5
726.688	86.72
726.871	87.1
727.054	87.15
727.237	86.92
727.42	87.48
727.603	87.82
727.786	87.87
727.968	87.97
728.151	88.05
728.334	88.25
728.517	88.77
728.699	88.47
728.882	88.58
729.065	88.84
729.248	89.02
729.43	89.2
729.613	89.27
729.796	89.05
729.978	88.9
730.161	89.28
730.343	88.76
730.526	89.02
730.708	88.89
730.891	88.82
731.073	89.23
731.256	89.32
731.438	89.24
731.621	89.43
731.803	89.64
731.986	89.71
732.168	89.76
732.35	89.53
732.533	89.87
732.715	89.69
732.898	89.89
733.08	90.08
733.262	89.79
733.444	89.98
733.627	90.17
733.809	90.26
733.991	90.58
734.173	90.33
734.355	90.04
734.538	90.09
734.72	90.52
734.902	90.16
735.084	90.54
735.266	90.43
735.448	90.7
735.63	90.55
735.812	91.02
735.994	90.8
736.176	91.54
736.358	91.66
736.54	91.76
736.722	91.63
736.904	92.24
737.086	92.51
737.268	92.62
737.45	92.16
737.632	91.06
737.814	90.71
737.995	91.12
738.177	91.09
738.359	91.02
738.541	90.49
738.723	90.7
738.904	90.87
739.086	91.21
739.268	91.44
739.449	91.18
739.631	91.21
739.813	91.4
739.994	91.78
740.176	92.11
740.358	92.18
740.539	91.94
740.721	91.87
740.902	91.15
741.084	91.45
741.265	91.06
741.447	90.78
741.628	90.84
741.81	91.21
741.991	91.23
742.172	91.79
742.354	92.33
742.535	92.89
742.717	93.17
742.898	93.46
743.079	93.47
743.261	94.02
743.442	93.85
743.623	93.3
743.804	92.88
743.986	92.79
744.167	92.2
744.348	92.11
744.529	91.44
744.71	91.35
744.891	91.31
745.073	91.1
745.254	91.48
745.435	91.84
745.616	91.65
745.797	91.92
745.978	92.46
746.159	91.87
746.34	92.03
746.521	92.11
746.702	91.77
746.883	91.79
747.064	91.37
747.245	91.62
747.426	92.44
747.606	92.63
747.787	92.72
747.968	93.65
748.149	93.36
748.33	94.23
748.51	93.26
748.691	93.01
748.872	92.57
749.053	91.55
749.233	91.38
749.414	91.06
749.595	90.26
749.775	90.44
749.956	89.84
750.137	90.07
750.317	91.19
750.498	90.81
750.678	91.5
750.859	91.17
751.04	91.41
751.22	91.66
751.4	91.9
751.581	91.04
751.761	91.34
751.942	90.54
752.122	90.84
752.303	90.5
752.483	91.05
752.663	91.12
752.844	91.19
753.024	90.5
753.204	90.59
753.385	90.62
753.565	90.35
753.745	89.76
753.925	88.76
754.106	88.73
754.286	88.76
754.466	88.98
754.646	89.34
754.826	89.75
755.006	89.55
755.187	90.68
755.367	91.12
755.547	91.01
755.727	91.07
755.907	91.28
756.087	91.2
756.267	91.59
756.447	91.37
756.627	91.54
756.807	92.1
756.987	92.81
757.167	92.83
757.346	92.38
757.526	92.67
757.706	92.17
757.886	91.54
758.066	91.15
758.246	90.58
758.425	90.06
758.605	90.42
758.785	90.04
758.965	89.28
759.144	89.82
759.324	90.62
759.504	90.57
759.683	90.24
759.863	90.53
760.043	90.42
760.222	90.71
760.402	91.13
760.581	89.28
760.761	89.12
760.94	88.86
761.12	88.24
761.299	88.34
761.479	89.14
761.658	86.99
761.838	87.5
762.017	87.89
762.197	88.94
762.376	88.89
762.555	89.19
762.735	88.02
762.914	89.64
763.093	89.76
763.273	89.04
763.452	88.42
763.631	88.04
763.81	87.13
763.99	87.66
764.169	87.08
764.348	87.84
764.527	87.53
764.706	87.97
764.885	89.09
765.064	89.74
765.243	90.09
765.423	90.98
765.602	89.63
765.781	89.89
765.96	89.32
766.139	88.39
766.318	88.32
766.497	88.03
766.676	88.54
766.854	88.69
767.033	88.4
767.212	87.84
767.391	88.26
767.57	88.14
767.749	87.66
767.928	85.52
768.106	85.88
768.285	87.16
768.464	86.85
768.643	87.02
768.821	86.64
769	87.66
769.179	87.36
769.357	86.8
769.536	85.58
769.715	86.64
769.893	86.31
770.072	85.99
770.25	85.56
770.429	86.86
770.607	87.86
770.786	88.35
770.964	87.68
771.143	87.1
771.321	86.98
771.5	85.67
771.678	85.44
771.857	83.67
772.035	83.07
772.213	82.88
772.392	83.3
772.57	83.63
772.748	83.79
772.927	83.71
773.105	85.34
773.283	85.47
773.461	85.55
773.64	84.63
773.818	84.57
773.996	85.92
774.174	85.78
774.352	85.33
774.531	84.17
774.709	84.38
774.887	85.32
775.065	85.05
775.243	85
775.421	84.79
775.599	83.86
775.777	85.09
775.955	84.3
776.133	83.12
776.311	82.73
776.489	81.08
776.667	81.3
776.844	81.27
777.022	79.56
777.2	79.57
777.378	80.54
777.556	81.86
777.734	82.89
777.911	84.14
778.089	83.89
778.267	84.98
778.445	85.16
778.622	84
778.8	83.56
778.978	82.88
779.155	80.89
779.333	80.19
779.511	80.2
779.688	78.35
779.866	77.98
780.043	78.13
780.221	78.59
780.398	78.8
780.576	79.92
780.753	79.23
780.931	81.4
781.108	83.13
781.286	81.88
781.463	81.37
781.64	81.44
781.818	80.61
781.995	81.48
782.172	81.6
782.35	81.24
782.527	83.05
782.704	83.18
782.882	84.71
783.059	84.79
783.236	85.17
783.413	85.69
783.59	84.47
783.768	83.43
783.945	83.84
784.122	82.63
784.299	84.28
784.476	84.57
784.653	83.01
784.83	83.03
785.007	82.83
785.184	82.8
785.361	82.38
785.538	81.21
785.715	79.87
785.892	80.53
786.069	81.19
786.246	79.85
786.423	81.82
786.6	80.3
786.776	80.5
786.953	81.33
787.13	81.28
787.307	81.39
787.484	82.26
787.66	78.71
787.837	79.4
788.014	79.8
788.191	79.3
788.367	80.04
788.544	81.32
788.721	81.16
788.897	84.25
789.074	84.86
789.25	84.89
789.427	85.29
789.603	86.45
789.78	84.84
789.956	83.72
790.133	82.3
790.309	81.56
790.486	82.54
790.662	84.02
790.839	84.02
791.015	85.6
791.192	85.68
791.368	88.61
791.544	88.69
791.721	86.54
791.897	85.29
792.073	81.3
792.249	81.82
792.426	84.24
792.602	78.49
792.778	76.91
792.954	78.06
793.13	77.5
793.307	76.53
793.483	73.87
793.659	73.28
793.835	74.13
794.011	74.23
794.187	70.3
794.363	68.86
794.539	72.43
794.715	71.49
794.891	69.48
795.067	71.03
795.243	72.62
795.419	76.04
795.595	75.73
795.771	75.76
795.947	77.54
796.122	78.98
796.298	78.06
796.474	79.13
796.65	79.49
796.826	82.52
797.001	80.79
797.177	79.88
797.353	81.79
797.529	82.64
797.704	80.27
797.88	80.63
798.056	80.93
798.231	81.29
798.407	82.93
798.582	82.51
798.758	83.14
798.934	84.31
799.109	82.79
799.285	81.71
799.46	82.55
799.636	80.43
799.811	80.62
799.986	82.62
800.162	81.78
800.337	81.73
800.513	83.53
800.688	85.18
800.863	88.25
801.039	82.64
801.214	79.55
801.389	80.21
801.565	82.79
801.74	77.55
801.915	75.97
802.09	72.56
802.265	75.72
802.441	76.43
802.616	77.49
802.791	75.99
802.966	77.51
803.141	73.01
803.316	77.99
803.491	76.9
803.666	76.75
803.841	77.41
804.016	77.89
804.191	81.1
804.366	84.09
804.541	80.34
804.716	78.05
804.891	78.54
805.066	73.94
805.241	68.17
805.416	65.72
805.591	67.43
805.765	68.47
805.94	71.04
806.115	67.99
806.29	71.87
806.464	76.88
806.639	76.94
806.814	72.84
806.989	70.04
807.163	68.62
807.338	70.01
807.512	65.16
807.687	62.84
807.862	60.8
808.036	63.48
808.211	66.75
808.385	66.43
808.56	70.26
808.734	69.28
808.909	71.09
809.083	70.93
809.258	72.73
809.432	70.18
809.606	73.59
809.781	68.86
809.955	73.49
810.13	77.52
810.304	76.25
810.478	75.07
810.652	76.27
810.827	74.47
811.001	76.47
811.175	73.19
811.349	66.51
811.524	66.75
811.698	68.74
811.872	70.19
812.046	69.87
812.22	66.04
812.394	66.58
812.568	71.23
812.742	70.47
812.916	66.7
813.09	63.9
813.264	64.02
813.438	70.91
813.612	76.72
813.786	76.26
813.96	81.27
814.134	85.93
814.308	83.05
814.482	82.42
814.656	81.38
814.83	79.48
815.003	80.18
815.177	78.04
815.351	76.16
815.525	78.82
815.698	73.53
815.872	69.14
816.046	65.58
816.219	67.6
816.393	67.15
816.567	64.14
816.74	66.75
816.914	72.87
817.088	71.73
817.261	73.39
817.435	68.56
817.608	67.95
817.782	72.36
817.955	65.17
818.129	66.65
818.302	72.55
818.475	72.28
818.649	68.11
818.822	73.84
818.996	70.74
819.169	73.85
819.342	70.07
819.516	67.02
819.689	69.86
819.862	72.83
820.035	67.63
820.209	65.43
820.382	63.62
820.555	68.11
820.728	68.64
820.901	63.98
821.075	66.33
821.248	66.38
821.421	65.19
821.594	71.57
821.767	71
821.94	68.83
822.113	69.42
822.286	65.74
822.459	76.53
822.632	81.16
822.805	73.45
822.978	71.52
823.151	74.59
823.324	72.02
823.496	66.21
823.669	65.06
823.842	67.97
824.015	71.36
824.188	72.52
824.361	72.51
824.533	81.6
824.706	103.23
824.879	92.49
825.051	88.85
825.224	88.76
825.397	84.57
825.569	85.07
825.742	81.08
825.915	70.26
826.087	62.17
826.26	56.47
826.432	57.74
826.605	49.75
826.777	52.55
826.95	46.85
827.122	48.85
827.295	55.71
827.467	52.8
827.64	39.19
827.812	44.91
827.984	45.81
828.157	48.15
828.329	45.7
828.501	48.28
828.674	45.61
828.846	47.63
829.018	42.59
829.19	38.03
829.363	43.13
829.535	43.46
829.707	35.67
829.879	39.96
830.051	46.62
830.223	38
830.395	32.82
830.568	39.12
830.74	41.1
830.912	44.57
831.084	46.38
831.256	39.13
831.428	47.64
831.6	51.39
831.772	46.53
831.943	54.25
832.115	65.07
832.287	62.24
832.459	77.63
832.631	78.47
832.803	91.35
832.975	86.41
833.146	76.78
833.318	61.65
833.49	73.5
833.662	71.91
833.833	76.03
834.005	64.45
834.177	70.66
834.348	70.32
834.52	78.4
834.692	75.39
834.863	76.15
835.035	77.2
835.206	77.01
835.378	70.64
835.549	73.61
835.721	70.62
835.892	68.56
836.064	66.71
836.235	67.99
836.407	65.23
836.578	72.78
836.749	72.85
836.921	67.77
837.092	76.61
837.264	66.52
837.435	53.22
837.606	58.89
837.777	44.36
837.949	37.02
838.12	34.54
838.291	34.53
838.462	43.47
838.633	43.57
838.805	44.66
838.976	46.42
839.147	45.46
839.318	44.13
839.489	36.31
839.66	40.57
839.831	36.62
840.002	31.54
840.173	33.77
840.344	45.84
840.515	49.39
840.686	51.79
840.857	44.65
841.028	52.34
841.199	44.4
841.369	43.26
841.54	40.9
841.711	45.4
841.882	41.81
842.053	41.79
842.223	43.4
842.394	50.93
842.565	57.4
842.736	62.62
842.906	53.58
843.077	54.7
843.248	64.8
843.418	63.28
843.589	76.69
843.759	75.06
843.93	72.08
844.101	75.5
844.271	82.71
844.442	70.31
844.612	64.28
844.783	42.74
844.953	31.24
845.123	34.46
845.294	37.48
845.464	39.42
845.635	40.53
845.805	46.95
845.975	50.44
846.146	60.25
846.316	75.3
846.486	70.89
846.656	69.72
846.827	62.84
846.997	79.99
847.167	78.66
847.337	81.22
847.507	69.17
847.677	78.45
847.848	90.2
848.018	91.28
848.188	72.7
848.358	80.53
848.528	71.88
848.698	48.44
848.868	13.91
849.038	-1.56
849.208	12.47
849.378	3.35
849.548	7.31
849.718	2.43
849.887	22.45
850.057	42.98
850.227	52.27
850.397	46.41
850.567	58.64
850.737	54.03
850.906	45.03
851.076	40.36
851.246	47.32
851.415	40.52
851.585	43.42
851.755	51.04
851.924	62.12
852.094	64.62
852.264	65.9
852.433	65.05
852.603	71.16
852.772	64.27
852.942	49.82
853.111	46.94
853.281	52.99
853.45	52.05
853.62	31.93
853.789	27.37
853.959	27.71
854.128	15.77
854.297	4.63
854.467	5.24
854.636	10.79
854.805	33.05
854.975	41.45
855.144	45.39
855.313	70.3
855.482	66.63
855.652	55.33
855.821	52.7
855.99	42.63
856.159	41.6
856.328	46.04
856.497	30.58
856.667	36.73
856.836	40.91
857.005	32.59
857.174	42.06
857.343	36.54
857.512	19.13
857.681	39.27
857.85	34.34
858.019	52.77
858.188	55.31
858.356	35.13
858.525	48.02
858.694	65.03
858.863	42.21
859.032	58.1
859.201	34.71
859.369	44.73
859.538	52.2
859.707	57.21
859.876	61.91
860.044	75.59
860.213	57.79
860.382	58.1
860.55	79.65
860.719	75.83
860.888	59.02
861.056	52.92
861.225	61.05
861.393	67.67
861.562	63.64
861.73	41.11
861.899	28.06
862.067	37.14
862.236	26.95
862.404	19.12
862.572	14.81
862.741	19.82
862.909	20.6
863.078	21.74
863.246	22.12
863.414	33.51
863.582	28.35
863.751	19.28
863.919	35.07
864.087	34.12
864.255	43.3
864.424	34.13
864.592	35.44
864.76	52.23
864.928	60.54
865.096	53.41
865.264	63.51
865.432	72.82
865.6	70.02
865.768	47.23
865.936	33.11
866.104	26.53
866.272	14.05
866.44	-38.45
866.608	-65.9
866.776	-14.34
866.944	-8.53
867.112	-37.67
867.28	-51.54
867.448	4.63
867.615	53.55
867.783	43.81
867.951	49.67
868.119	50.38
868.286	73.47
868.454	75.88
868.622	63.5
868.789	50.42
868.957	65.42
869.125	56.03
869.292	59.8
869.46	56.82
869.627	37.47
869.795	38.48
869.963	44.54
870.13	43.04
870.298	33.19
870.465	16.74
870.632	33.47
870.8	36.54
870.967	28.92
871.135	27.85
871.302	35.21
871.469	48.39
871.637	50.09
871.804	50.12
871.971	57.14
872.139	72.47
872.306	68.83
872.473	52.49
872.64	39.88
872.807	50.35
872.975	60.96
873.142	54.06
873.309	69.97
873.476	105.62
873.643	175.78
873.81	188.27
873.977	121.82
874.144	109.65
874.311	31.72
874.478	-36.87
874.645	-44.61
874.812	-20.56
874.979	-47.28
875.146	-75.5
875.313	-91.46
875.48	35.35
875.647	-6
875.813	18.7
875.98	-27.67
876.147	40.09
876.314	48.87
876.481	31.67
876.647	25.72
876.814	46.44
876.981	37.7
877.147	42.1
877.314	28.6
877.481	33.66
877.647	46.74
877.814	32.82
877.98	50.16
878.147	65.64
878.314	61.85
878.48	72.3
878.647	101.02
878.813	110.49
878.979	144.85
879.146	87.11
879.312	105.64
879.479	96.49
879.645	70.05
879.811	45.4
879.978	34.97
880.144	35.11
880.31	10.38
880.477	-39.6
880.643	-114.51
880.809	5.63
880.975	-43.5
881.142	6.01
881.308	10.39
881.474	81.16
881.64	20.72
881.806	36.44
881.972	41.14
882.138	70.3
882.304	-24.05
882.47	-7.38
882.636	-68.27
882.802	-17.52
882.968	-108.15
883.134	-327.53
883.3	-109.36
883.466	27.92
883.632	-3.46
883.798	19.14
883.964	10.82
884.129	31.96
884.295	50.2
884.461	35.26
884.627	-20.5
884.793	21.13
884.958	8.12
885.124	-3.34
885.29	14.28
885.455	0.77
885.621	8.62
885.787	1.94
885.952	-16.04
886.118	11.26
886.283	27.9
886.449	-12.59
886.614	14.36
886.78	24.66
886.945	24.98
887.111	1.83
887.276	-6.98
887.442	-17.22
887.607	-2.02
887.773	-10.83
887.938	-19.8
888.103	29.89
888.269	52.5
888.434	67.58
888.599	52.42
888.764	63.14
888.93	59.59
889.095	31
889.26	51.23
889.425	62.57
889.59	40.82
889.756	41.59
889.921	-0.2
890.086	11.54
890.251	22.89
890.416	-39.54
890.581	-63.31
890.746	-106.65
890.911	-143.59
891.076	-145.43
891.241	-204
891.406	-78.27
891.571	-62.41
891.736	-39.74
891.901	22.13
892.065	27.17
892.23	-2.39
892.395	-13.72
892.56	-28.55
892.725	-44.6
892.889	-73.23
893.054	-159.95
893.219	-211.39
893.384	-266.95
893.548	-624.17
893.713	888.37
893.878	418.48
