Data from Ofra_2a_PS_1GT43_Reflection_2.txt Node
Date: Tue Jul 20 09:36:37 EDT 2021
User: Adam
Spectrometer: FLMT01687
Trigger mode: 0
Integration Time (sec): 9.450000E-1
Scans to average: 3
Electric dark correction enabled: true
Nonlinearity correction enabled: false
Boxcar width: 3
XAxis mode: Wavelengths
Number of Pixels in Spectrum: 3648
>>>>>Begin Spectral Data<<<<<
179.494	948.52
179.716	512.5
179.937	519.78
180.158	2146.09
180.38	-798.26
180.601	-71.19
180.823	46.16
181.044	140.04
181.265	30.38
181.486	23.25
181.708	171.74
181.929	-15.12
182.15	-442.05
182.372	102.71
182.593	60.45
182.814	138.62
183.035	204.75
183.257	113.87
183.478	87.14
183.699	99
183.92	87.24
184.141	74.84
184.363	60.48
184.584	47.24
184.805	55.66
185.026	67.76
185.247	46.48
185.468	40.41
185.689	48.29
185.91	51.16
186.132	55.78
186.353	20.03
186.574	15.52
186.795	4.07
187.016	3.78
187.237	9.26
187.458	-16.57
187.679	-44.79
187.9	-4.8
188.121	-2.85
188.342	36.63
188.563	32.32
188.784	35.19
189.005	62.84
189.226	70.97
189.447	60.05
189.667	60.12
189.888	53
190.109	67.44
190.33	41.62
190.551	29.85
190.772	22.47
190.993	28.13
191.214	21.76
191.434	7.56
191.655	16.89
191.876	38.07
192.097	34.09
192.318	34.65
192.538	36.84
192.759	46.24
192.98	51.66
193.201	53.07
193.421	52.32
193.642	61
193.863	72.17
194.083	65.95
194.304	31.04
194.525	42.5
194.745	8.52
194.966	10.04
195.187	21.3
195.407	13.04
195.628	14.88
195.848	31.85
196.069	19.64
196.29	29.18
196.51	20.26
196.731	11.55
196.951	25.37
197.172	32.59
197.392	23.63
197.613	22.44
197.833	19.36
198.054	15.1
198.274	7.38
198.495	6.28
198.715	-7.83
198.936	-22.66
199.156	-8.09
199.377	-7.03
199.597	0.37
199.817	-1.59
200.038	17.53
200.258	19
200.479	33.41
200.699	26.29
200.919	20.3
201.14	25.55
201.36	46.92
201.58	25.97
201.801	38.68
202.021	35.28
202.241	47.55
202.461	55.44
202.682	61.88
202.902	54
203.122	56.45
203.342	65.23
203.563	68.33
203.783	59.85
204.003	58.29
204.223	48.06
204.443	37.51
204.663	47.71
204.884	42.96
205.104	32.63
205.324	40.71
205.544	39.17
205.764	33.93
205.984	51.28
206.204	30.15
206.424	20.8
206.644	24.55
206.864	20.1
207.084	22.37
207.304	27.65
207.525	10.16
207.745	26.54
207.964	25.67
208.184	21.23
208.404	20.32
208.624	11.26
208.844	-0.25
209.064	14.99
209.284	18.14
209.504	26.81
209.724	8.52
209.944	-0.61
210.164	17.89
210.384	31.29
210.604	26.12
210.823	20.06
211.043	15.3
211.263	40.21
211.483	43.35
211.703	30.44
211.922	23.21
212.142	29.52
212.362	26.01
212.582	18.19
212.801	14.02
213.021	11.88
213.241	9.68
213.461	18.18
213.68	12.77
213.9	9.09
214.12	13.49
214.339	16.46
214.559	20.79
214.779	24.35
214.998	24.12
215.218	27.7
215.438	37.59
215.657	37.48
215.877	40.85
216.096	37.48
216.316	42.71
216.535	44.16
216.755	29.85
216.974	10.9
217.194	16.39
217.413	21.56
217.633	12.57
217.852	6.05
218.072	7.7
218.291	34.57
218.511	38.55
218.73	35.82
218.95	29.82
219.169	38.73
219.389	42.34
219.608	34.29
219.827	19.83
220.047	30.78
220.266	35.77
220.485	32.83
220.705	31.27
220.924	26.62
221.143	26.69
221.363	29.13
221.582	30.21
221.801	34.96
222.021	38.47
222.24	35.76
222.459	30.65
222.678	47.73
222.897	34.12
223.117	33.6
223.336	36.56
223.555	31.96
223.774	48.31
223.993	56.12
224.213	45.33
224.432	61.65
224.651	59.27
224.87	50.61
225.089	53.98
225.308	35.32
225.527	32.37
225.746	34.81
225.965	32.61
226.184	30.42
226.404	18.35
226.623	20.58
226.842	36.15
227.061	38.64
227.28	51.35
227.499	46.36
227.718	38.93
227.936	33.53
228.155	35.31
228.374	37.73
228.593	33.9
228.812	25.91
229.031	23.13
229.25	38.76
229.469	45.66
229.688	40.13
229.907	27.48
230.125	29.86
230.344	25.82
230.563	34.01
230.782	23
231.001	24.87
231.22	23.09
231.438	26.38
231.657	26.26
231.876	25.49
232.095	24.38
232.313	24.71
232.532	25.9
232.751	31.17
232.969	37.67
233.188	41.83
233.407	39.4
233.625	33.17
233.844	34.19
234.063	39.46
234.281	32.88
234.5	34.6
234.719	35.96
234.937	51.6
235.156	37.31
235.374	40.95
235.593	41.32
235.811	48.96
236.03	37.04
236.249	41.27
236.467	23.6
236.686	58.36
236.904	53.02
237.123	49.06
237.341	40.88
237.559	42.58
237.778	44.98
237.996	56.16
238.215	35.68
238.433	43.72
238.652	36.91
238.87	42.23
239.088	35.33
239.307	27.39
239.525	14.32
239.743	8.53
239.962	-0.99
240.18	10.03
240.398	14.88
240.617	32.34
240.835	32.29
241.053	33.3
241.271	44.88
241.49	40.39
241.708	34
241.926	12.65
242.144	4.17
242.363	3.81
242.581	8.16
242.799	5.55
243.017	12.6
243.235	11.47
243.453	18.14
243.672	16.87
243.89	20.06
244.108	28.01
244.326	33.36
244.544	38.5
244.762	36.38
244.98	37.89
245.198	28.66
245.416	25.55
245.634	22.33
245.852	19.56
246.07	24.75
246.288	13.46
246.506	21.65
246.724	43.15
246.942	41.75
247.16	37.26
247.378	27.28
247.596	18.99
247.814	24.51
248.032	15.57
248.25	13.91
248.468	18.33
248.685	26.4
248.903	24.29
249.121	38.89
249.339	41.15
249.557	52.49
249.775	24.31
249.992	24.37
250.21	18.89
250.428	24.1
250.646	21.88
250.863	18.51
251.081	8.61
251.299	45.66
251.517	64.6
251.734	65.33
251.952	75.27
252.17	48.94
252.387	48.53
252.605	50.36
252.823	23.35
253.04	4.48
253.258	3.93
253.475	-1.41
253.693	15.22
253.911	10.23
254.128	14.23
254.346	20.06
254.563	21.21
254.781	29.14
254.998	33.82
255.216	33.64
255.433	38.86
255.651	31.1
255.868	44.23
256.086	43.8
256.303	42.62
256.521	25.42
256.738	29.57
256.956	19.68
257.173	29.08
257.39	23.7
257.608	24.55
257.825	11.64
258.043	20.58
258.26	13.43
258.477	17.74
258.695	18.34
258.912	24.28
259.129	17.16
259.346	23.54
259.564	16.55
259.781	34.24
259.998	36.05
260.216	36.64
260.433	28.61
260.65	37.36
260.867	30.18
261.084	40.06
261.302	26.77
261.519	21.78
261.736	18.64
261.953	21.88
262.17	19.78
262.387	23.41
262.604	13.33
262.822	18.7
263.039	14.42
263.256	16.12
263.473	11.28
263.69	5.64
263.907	3.84
264.124	4.57
264.341	5.19
264.558	15.41
264.775	17.45
264.992	15.12
265.209	29.23
265.426	35.15
265.643	46.08
265.86	45.39
266.077	48.66
266.294	48.18
266.51	56.62
266.727	47.25
266.944	0.42
267.161	-32.31
267.378	-52.05
267.595	-60.67
267.812	-72.43
268.028	-64.52
268.245	-46.88
268.462	-7.45
268.679	5.64
268.896	15.47
269.112	30.36
269.329	40.76
269.546	38.68
269.763	37.52
269.979	41.47
270.196	47.65
270.413	44.94
270.629	33.47
270.846	31.46
271.063	25.52
271.279	26.94
271.496	19.37
271.712	13.88
271.929	18.39
272.146	21.98
272.362	12.7
272.579	11.36
272.795	7.36
273.012	13.1
273.228	2.37
273.445	3.12
273.661	4.31
273.878	12.57
274.094	17.02
274.311	19.6
274.527	14.98
274.744	24.55
274.96	26.3
275.177	28.17
275.393	31.66
275.609	30.38
275.826	31.66
276.042	46.6
276.259	45.1
276.475	35.74
276.691	41.73
276.908	38
277.124	39.4
277.34	40.64
277.557	37.3
277.773	36.36
277.989	39.67
278.205	21.51
278.422	33.58
278.638	35.07
278.854	35.78
279.07	28.16
279.286	19.45
279.503	18.36
279.719	36.94
279.935	13.14
280.151	17.79
280.367	8.64
280.583	16.95
280.799	25.18
281.016	29.84
281.232	18.4
281.448	26.37
281.664	23.99
281.88	42.97
282.096	44.37
282.312	46.3
282.528	32.58
282.744	38.44
282.96	46.16
283.176	39.72
283.392	40.01
283.608	34.5
283.824	35.74
284.04	37.33
284.256	41.05
284.471	38.09
284.687	31.92
284.903	20.05
285.119	4.44
285.335	6.44
285.551	19.9
285.767	15.02
285.982	17.49
286.198	23.03
286.414	33.54
286.63	47.12
286.846	42.71
287.061	42.06
287.277	42.71
287.493	37.32
287.709	28.64
287.924	18.66
288.14	18.18
288.356	33.77
288.571	22.45
288.787	25.91
289.003	26.24
289.218	36.51
289.434	43.87
289.65	45.64
289.865	37.64
290.081	38.04
290.296	33.56
290.512	31.28
290.727	40.02
290.943	35.33
291.159	30.25
291.374	29.59
291.59	17.27
291.805	20.51
292.021	22.08
292.236	15.1
292.451	19.24
292.667	20.34
292.882	13.92
293.098	22.9
293.313	22.52
293.529	29.3
293.744	20.56
293.959	18.69
294.175	25.81
294.39	40.66
294.605	47.87
294.821	36.52
295.036	31.84
295.251	36.99
295.467	29.13
295.682	25.88
295.897	23.01
296.112	13.97
296.328	21.92
296.543	13.03
296.758	10.2
296.973	21
297.188	13.27
297.404	11.97
297.619	15.05
297.834	22.41
298.049	28.53
298.264	28.03
298.479	15.79
298.694	20.14
298.909	12.08
299.125	16.16
299.34	7.8
299.555	10.31
299.77	13.62
299.985	15.86
300.2	13.83
300.415	18.34
300.63	18.37
300.845	22.79
301.06	23.67
301.275	29.62
301.49	28.99
301.704	34.13
301.919	28.97
302.134	25.36
302.349	18.02
302.564	20.3
302.779	9.79
302.994	4.66
303.209	-0.51
303.423	7.19
303.638	3.2
303.853	7.99
304.068	7.28
304.283	3.44
304.497	22.93
304.712	26.72
304.927	28.43
305.142	27.08
305.356	29.44
305.571	36.41
305.786	44.33
306	34.4
306.215	32.68
306.43	36.72
306.644	43.87
306.859	45.76
307.074	34.99
307.288	31.55
307.503	36.38
307.717	35.74
307.932	38.88
308.147	36.32
308.361	32.99
308.576	33.83
308.79	36.29
309.005	32.12
309.219	37.29
309.434	30.93
309.648	22.98
309.863	23.79
310.077	19.8
310.292	18.34
310.506	33.06
310.72	22.51
310.935	20.38
311.149	28.31
311.364	36.88
311.578	43.07
311.792	41.46
312.007	32.42
312.221	37.05
312.435	40.4
312.649	61.66
312.864	50.49
313.078	50.67
313.292	53.97
313.507	63.2
313.721	65.27
313.935	73.28
314.149	52.35
314.363	53.33
314.578	53.81
314.792	47.63
315.006	49.2
315.22	48.14
315.434	38.51
315.648	37.78
315.862	34.39
316.077	34.01
316.291	45.42
316.505	31.16
316.719	12.2
316.933	11.8
317.147	10.27
317.361	17.5
317.575	13.48
317.789	13.35
318.003	26.66
318.217	47.67
318.431	46.54
318.645	45.82
318.859	32.28
319.073	34.18
319.287	30.96
319.5	27.2
319.714	18.28
319.928	26.27
320.142	24.86
320.356	47.33
320.57	41.87
320.784	37.13
320.997	39.57
321.211	46.18
321.425	30.21
321.639	31.06
321.853	16.81
322.066	15.35
322.28	19.73
322.494	13.91
322.707	13.66
322.921	21.72
323.135	25.02
323.349	28.43
323.562	27.72
323.776	23.84
323.989	29.31
324.203	32.72
324.417	28.87
324.63	20.69
324.844	4.84
325.057	19.17
325.271	8.47
325.485	4.64
325.698	-6
325.912	2.96
326.125	11.53
326.339	24.07
326.552	15.61
326.766	32.48
326.979	35.6
327.193	35.44
327.406	33.44
327.619	23.47
327.833	25.12
328.046	20.14
328.26	5.79
328.473	-3.06
328.686	-1.23
328.9	-6.57
329.113	8.03
329.326	19.77
329.54	18.78
329.753	23.31
329.966	27.37
330.179	36.98
330.393	46.26
330.606	39.35
330.819	24.9
331.032	32.83
331.246	32.45
331.459	37.98
331.672	36.3
331.885	24.25
332.098	27.04
332.311	34.24
332.525	33.73
332.738	37.42
332.951	33.9
333.164	21.73
333.377	13.97
333.59	11.59
333.803	14.27
334.016	2.02
334.229	1.03
334.442	11.03
334.655	28.83
334.868	37.76
335.081	47.68
335.294	50.75
335.507	52.1
335.72	43.38
335.933	38.06
336.146	35.37
336.359	32
336.572	25.57
336.785	23.13
336.997	16.68
337.21	27.42
337.423	16.4
337.636	14.2
337.849	12.45
338.062	13.24
338.274	10.68
338.487	13.29
338.7	9.46
338.913	16.35
339.125	14.58
339.338	22.14
339.551	26.53
339.763	26.57
339.976	26.38
340.189	27.12
340.402	25.9
340.614	31.99
340.827	29.73
341.039	25.98
341.252	28.39
341.465	27.59
341.677	21.78
341.89	26.49
342.102	29.77
342.315	36.61
342.527	31.78
342.74	25.15
342.952	26.9
343.165	38.88
343.377	36.16
343.59	30.42
343.802	33.77
344.015	39.94
344.227	38.61
344.44	36.69
344.652	37.4
344.864	47
345.077	49.24
345.289	38.08
345.502	30.8
345.714	26.37
345.926	26.49
346.139	27.29
346.351	11
346.563	12.4
346.775	9.64
346.988	11.01
347.2	22.55
347.412	26.06
347.624	25.31
347.837	29.17
348.049	31.45
348.261	34.26
348.473	37.37
348.685	42.47
348.897	46.8
349.11	44.82
349.322	45.86
349.534	41.51
349.746	43.4
349.958	39.5
350.17	31.13
350.382	17.48
350.594	20.83
350.806	26.25
351.018	26.61
351.23	28.25
351.442	23.19
351.654	27.82
351.866	29.29
352.078	25.93
352.29	25.55
352.502	24.4
352.714	21.35
352.926	21.74
353.138	21.27
353.35	24.91
353.561	25.02
353.773	19.2
353.985	21.26
354.197	22.31
354.409	29.85
354.621	29.53
354.832	28.65
355.044	34.49
355.256	27.78
355.468	25.23
355.679	32.89
355.891	32.77
356.103	32.64
356.314	37.65
356.526	32.33
356.738	36.49
356.949	35.64
357.161	24.64
357.373	23.25
357.584	29.47
357.796	23.97
358.008	22.4
358.219	27.61
358.431	24.47
358.642	26.52
358.854	26.55
359.065	16.51
359.277	16.66
359.488	15.43
359.7	17.95
359.911	20.48
360.123	25.82
360.334	25.64
360.546	26.89
360.757	26.76
360.969	36.46
361.18	35.18
361.391	35.7
361.603	35.01
361.814	37.34
362.025	33.72
362.237	30.7
362.448	23.07
362.659	10
362.871	15.04
363.082	18.18
363.293	18.56
363.504	23.71
363.716	23.97
363.927	25.84
364.138	35.61
364.349	34.64
364.56	33.81
364.772	28.67
364.983	23.65
365.194	30.48
365.405	24.43
365.616	15.65
365.827	11.19
366.038	9.76
366.25	18.75
366.461	25.97
366.672	15.82
366.883	26.92
367.094	28.16
367.305	25.67
367.516	18.93
367.727	8.58
367.938	12.04
368.149	15.3
368.36	6.24
368.571	11.38
368.781	11.29
368.992	16.21
369.203	20.84
369.414	14.37
369.625	10.9
369.836	16.34
370.047	10.32
370.258	13.86
370.468	7.35
370.679	2.93
370.89	12.8
371.101	17.19
371.312	13.46
371.522	24.13
371.733	8.64
371.944	10.6
372.155	3.09
372.365	-4.74
372.576	-6.05
372.787	-6.29
372.997	-13.67
373.208	3.11
373.419	2.72
373.629	20.37
373.84	14.42
374.05	21.23
374.261	18.84
374.472	23.72
374.682	15.84
374.893	20.7
375.103	20.96
375.314	26.83
375.524	27.01
375.735	35.72
375.945	33.87
376.156	38.34
376.366	34.67
376.577	35.54
376.787	38.57
376.997	32.16
377.208	22.11
377.418	26.42
377.629	24.1
377.839	29.03
378.049	25.15
378.26	20.64
378.47	25.02
378.68	29.16
378.89	17.6
379.101	12.59
379.311	8.57
379.521	9.56
379.732	9.59
379.942	9.02
380.152	13.34
380.362	21.87
380.572	26.75
380.783	24.36
380.993	22.61
381.203	21.33
381.413	20.03
381.623	17.27
381.833	14.6
382.043	11.32
382.253	13.44
382.463	16.24
382.674	14.51
382.884	12.94
383.094	12.87
383.304	11.6
383.514	12.7
383.724	8.99
383.934	9.47
384.144	12.52
384.353	12.52
384.563	8.2
384.773	11.72
384.983	11.87
385.193	17.79
385.403	16.44
385.613	12.07
385.823	14.4
386.033	20.85
386.242	19.04
386.452	19.19
386.662	18.22
386.872	14.98
387.082	17.25
387.291	16.4
387.501	10.9
387.711	10.46
387.921	11.46
388.13	11.46
388.34	11.74
388.55	13.21
388.759	12.33
388.969	12.38
389.179	13.62
389.388	13.41
389.598	13.13
389.807	11.97
390.017	12.14
390.227	11.47
390.436	10.75
390.646	9.42
390.855	8.99
391.065	7.32
391.274	9.01
391.484	8.39
391.693	8.52
391.903	8.46
392.112	7.53
392.322	8.24
392.531	8.86
392.74	7.25
392.95	7.15
393.159	7.02
393.369	7.19
393.578	7.65
393.787	6.69
393.997	7.22
394.206	8.19
394.415	7.44
394.625	6.73
394.834	5.5
395.043	6.51
395.252	7.21
395.462	6.77
395.671	6.64
395.88	7.05
396.089	7.01
396.298	7.55
396.508	6.52
396.717	5.77
396.926	5.68
397.135	5.3
397.344	4.92
397.553	5.12
397.762	5.15
397.971	5.43
398.181	5.52
398.39	5.32
398.599	5.51
398.808	6
399.017	6.24
399.226	6.6
399.435	6.44
399.644	6.26
399.853	6.54
400.062	6.2
400.27	5.78
400.479	5.57
400.688	5.41
400.897	5.42
401.106	5.51
401.315	5.28
401.524	5.53
401.733	5.77
401.941	5.72
402.15	5.53
402.359	5.56
402.568	5.47
402.777	5.3
402.985	5.12
403.194	4.92
403.403	4.73
403.612	4.85
403.82	4.95
404.029	5
404.238	5.13
404.446	5.08
404.655	4.93
404.864	5
405.072	4.97
405.281	4.82
405.489	4.75
405.698	4.69
405.906	4.68
406.115	4.8
406.324	4.82
406.532	4.88
406.741	4.93
406.949	4.81
407.158	4.85
407.366	4.83
407.574	4.84
407.783	4.78
407.991	4.6
408.2	4.43
408.408	4.47
408.617	4.36
408.825	4.41
409.033	4.33
409.242	4.23
409.45	4.24
409.658	4.31
409.867	4.35
410.075	4.37
410.283	4.24
410.491	4.24
410.7	4.32
410.908	4.3
411.116	4.19
411.324	4.08
411.533	3.95
411.741	3.99
411.949	4.06
412.157	4.03
412.365	4.07
412.573	4.06
412.781	4.13
412.99	4.26
413.198	4.24
413.406	4.22
413.614	4.17
413.822	4.06
414.03	4.05
414.238	4.11
414.446	4.01
414.654	3.93
414.862	3.83
415.07	3.91
415.278	3.93
415.486	3.99
415.694	3.88
415.902	3.94
416.109	4.05
416.317	4
416.525	4.04
416.733	4.08
416.941	4.07
417.149	4.1
417.357	4.11
417.564	4.05
417.772	4.13
417.98	3.94
418.188	3.75
418.395	3.67
418.603	3.59
418.811	3.41
419.019	3.4
419.226	3.44
419.434	3.38
419.642	3.49
419.849	3.54
420.057	3.57
420.265	3.69
420.472	3.6
420.68	3.47
420.887	3.57
421.095	3.58
421.302	3.53
421.51	3.65
421.717	3.65
421.925	3.65
422.132	3.64
422.34	3.64
422.547	3.59
422.755	3.56
422.962	3.4
423.17	3.33
423.377	3.44
423.585	3.52
423.792	3.47
423.999	3.46
424.207	3.45
424.414	3.56
424.621	3.62
424.829	3.48
425.036	3.38
425.243	3.48
425.451	3.54
425.658	3.67
425.865	3.44
426.072	3.37
426.28	3.43
426.487	3.41
426.694	3.3
426.901	3.25
427.108	3.22
427.315	3.28
427.523	3.32
427.73	3.37
427.937	3.49
428.144	3.56
428.351	3.63
428.558	3.55
428.765	3.6
428.972	3.54
429.179	3.47
429.386	3.55
429.593	3.54
429.8	3.5
430.007	3.64
430.214	3.64
430.421	3.77
430.628	3.73
430.835	3.59
431.042	3.61
431.249	3.63
431.456	3.59
431.662	3.59
431.869	3.64
432.076	3.73
432.283	3.78
432.49	3.69
432.697	3.72
432.903	3.7
433.11	3.75
433.317	3.69
433.524	3.58
433.73	3.61
433.937	3.69
434.144	3.73
434.35	3.75
434.557	3.67
434.764	3.61
434.97	3.76
435.177	3.75
435.384	3.77
435.59	3.68
435.797	3.67
436.003	3.66
436.21	3.66
436.416	3.68
436.623	3.69
436.829	3.71
437.036	3.75
437.242	3.82
437.449	3.92
437.655	4
437.862	3.91
438.068	3.91
438.275	3.9
438.481	4.01
438.687	4.07
438.894	4.06
439.1	4.08
439.307	4.13
439.513	4.17
439.719	4.2
439.926	4.17
440.132	4.1
440.338	4.14
440.544	4.12
440.751	4.18
440.957	4.18
441.163	4.18
441.369	4.14
441.575	4.16
441.782	4.12
441.988	4.15
442.194	4.16
442.4	4.14
442.606	4.22
442.812	4.28
443.018	4.28
443.224	4.35
443.431	4.37
443.637	4.36
443.843	4.45
444.049	4.38
444.255	4.36
444.461	4.34
444.667	4.37
444.873	4.37
445.079	4.41
445.284	4.39
445.49	4.41
445.696	4.47
445.902	4.53
446.108	4.53
446.314	4.59
446.52	4.62
446.726	4.64
446.931	4.66
447.137	4.63
447.343	4.64
447.549	4.64
447.755	4.62
447.96	4.57
448.166	4.61
448.372	4.63
448.578	4.67
448.783	4.62
448.989	4.61
449.195	4.61
449.4	4.65
449.606	4.56
449.812	4.59
450.017	4.59
450.223	4.65
450.428	4.68
450.634	4.68
450.84	4.68
451.045	4.72
451.251	4.73
451.456	4.69
451.662	4.7
451.867	4.69
452.073	4.67
452.278	4.67
452.483	4.7
452.689	4.66
452.894	4.7
453.1	4.65
453.305	4.66
453.51	4.7
453.716	4.67
453.921	4.67
454.127	4.68
454.332	4.69
454.537	4.81
454.742	4.81
454.948	4.79
455.153	4.84
455.358	4.86
455.563	4.87
455.769	4.9
455.974	4.83
456.179	4.79
456.384	4.81
456.589	4.85
456.795	4.81
457	4.8
457.205	4.77
457.41	4.83
457.615	4.91
457.82	4.97
458.025	4.92
458.23	4.98
458.435	4.97
458.64	5.04
458.845	4.99
459.05	5.03
459.255	4.98
459.46	5
459.665	5.03
459.87	5.07
460.075	5.05
460.28	5.09
460.485	5.07
460.69	5.05
460.895	5.11
461.099	5.08
461.304	5.09
461.509	5.04
461.714	5.05
461.919	5.05
462.123	5.12
462.328	5.13
462.533	5.19
462.738	5.22
462.942	5.28
463.147	5.29
463.352	5.32
463.556	5.3
463.761	5.31
463.966	5.34
464.17	5.36
464.375	5.4
464.58	5.46
464.784	5.53
464.989	5.57
465.193	5.57
465.398	5.53
465.602	5.52
465.807	5.49
466.011	5.47
466.216	5.44
466.42	5.44
466.625	5.5
466.829	5.57
467.034	5.66
467.238	5.7
467.443	5.7
467.647	5.73
467.851	5.76
468.056	5.71
468.26	5.7
468.464	5.65
468.669	5.68
468.873	5.66
469.077	5.65
469.282	5.68
469.486	5.7
469.69	5.69
469.894	5.79
470.099	5.82
470.303	5.89
470.507	5.93
470.711	5.91
470.915	6.02
471.119	6.06
471.324	6
471.528	6.05
471.732	6.05
471.936	6.07
472.14	6.1
472.344	6.08
472.548	6.11
472.752	6.18
472.956	6.18
473.16	6.16
473.364	6.18
473.568	6.24
473.772	6.3
473.976	6.32
474.18	6.32
474.384	6.32
474.588	6.41
474.792	6.4
474.995	6.4
475.199	6.42
475.403	6.44
475.607	6.5
475.811	6.54
476.015	6.57
476.218	6.61
476.422	6.63
476.626	6.59
476.83	6.63
477.033	6.67
477.237	6.7
477.441	6.73
477.644	6.72
477.848	6.73
478.052	6.8
478.255	6.79
478.459	6.83
478.663	6.81
478.866	6.82
479.07	6.9
479.273	6.93
479.477	6.95
479.681	6.97
479.884	6.92
480.088	6.96
480.291	6.98
480.495	6.99
480.698	6.97
480.901	7
481.105	7.01
481.308	7.01
481.512	7.03
481.715	7.02
481.919	7.01
482.122	7.02
482.325	7.02
482.529	7.06
482.732	7.08
482.935	7.11
483.138	7.18
483.342	7.23
483.545	7.28
483.748	7.31
483.952	7.3
484.155	7.35
484.358	7.36
484.561	7.34
484.764	7.32
484.967	7.33
485.171	7.34
485.374	7.36
485.577	7.37
485.78	7.37
485.983	7.38
486.186	7.39
486.389	7.39
486.592	7.38
486.795	7.37
486.998	7.36
487.201	7.36
487.404	7.42
487.607	7.43
487.81	7.45
488.013	7.46
488.216	7.44
488.419	7.45
488.622	7.45
488.825	7.4
489.028	7.39
489.231	7.42
489.433	7.44
489.636	7.45
489.839	7.47
490.042	7.5
490.245	7.51
490.447	7.55
490.65	7.52
490.853	7.51
491.056	7.53
491.258	7.52
491.461	7.49
491.664	7.48
491.866	7.49
492.069	7.5
492.272	7.49
492.474	7.46
492.677	7.45
492.879	7.45
493.082	7.5
493.285	7.48
493.487	7.47
493.69	7.48
493.892	7.55
494.095	7.57
494.297	7.63
494.5	7.65
494.702	7.68
494.905	7.74
495.107	7.74
495.309	7.71
495.512	7.75
495.714	7.76
495.917	7.77
496.119	7.81
496.321	7.86
496.524	7.87
496.726	7.89
496.928	7.92
497.13	7.92
497.333	7.97
497.535	7.96
497.737	7.9
497.939	7.93
498.142	7.96
498.344	7.96
498.546	8
498.748	7.95
498.95	7.95
499.152	7.96
499.355	8
499.557	8.06
499.759	8.13
499.961	8.16
500.163	8.23
500.365	8.27
500.567	8.29
500.769	8.33
500.971	8.34
501.173	8.36
501.375	8.38
501.577	8.41
501.779	8.47
501.981	8.51
502.183	8.49
502.385	8.52
502.587	8.52
502.788	8.51
502.99	8.54
503.192	8.54
503.394	8.61
503.596	8.7
503.798	8.77
503.999	8.82
504.201	8.88
504.403	8.87
504.605	8.96
504.806	8.96
505.008	9.01
505.21	9.01
505.411	9.06
505.613	9.07
505.815	9.11
506.016	9.12
506.218	9.13
506.42	9.13
506.621	9.19
506.823	9.21
507.024	9.23
507.226	9.3
507.427	9.31
507.629	9.37
507.83	9.37
508.032	9.42
508.233	9.42
508.435	9.47
508.636	9.5
508.838	9.53
509.039	9.58
509.24	9.62
509.442	9.61
509.643	9.63
509.845	9.67
510.046	9.7
510.247	9.73
510.448	9.78
510.65	9.82
510.851	9.85
511.052	9.93
511.254	9.94
511.455	9.94
511.656	9.98
511.857	9.98
512.058	10.01
512.26	10.03
512.461	10.03
512.662	10.04
512.863	10.09
513.064	10.1
513.265	10.17
513.466	10.19
513.667	10.23
513.868	10.24
514.069	10.31
514.27	10.36
514.471	10.4
514.672	10.4
514.873	10.47
515.074	10.5
515.275	10.53
515.476	10.5
515.677	10.51
515.878	10.57
516.079	10.6
516.28	10.6
516.481	10.6
516.682	10.63
516.882	10.69
517.083	10.69
517.284	10.68
517.485	10.69
517.686	10.66
517.886	10.71
518.087	10.73
518.288	10.74
518.488	10.8
518.689	10.8
518.89	10.86
519.091	10.92
519.291	10.94
519.492	10.97
519.692	11.05
519.893	11.05
520.094	11.11
520.294	11.11
520.495	11.14
520.695	11.14
520.896	11.17
521.096	11.16
521.297	11.15
521.497	11.17
521.698	11.18
521.898	11.23
522.099	11.3
522.299	11.3
522.499	11.3
522.7	11.36
522.9	11.36
523.101	11.43
523.301	11.41
523.501	11.41
523.702	11.46
523.902	11.5
524.102	11.52
524.302	11.56
524.503	11.54
524.703	11.59
524.903	11.6
525.103	11.59
525.304	11.64
525.504	11.69
525.704	11.66
525.904	11.69
526.104	11.72
526.304	11.75
526.504	11.76
526.705	11.76
526.905	11.76
527.105	11.8
527.305	11.81
527.505	11.81
527.705	11.81
527.905	11.82
528.105	11.82
528.305	11.83
528.505	11.87
528.705	11.9
528.905	11.89
529.105	11.95
529.304	12.02
529.504	12.05
529.704	12.08
529.904	12.14
530.104	12.13
530.304	12.2
530.503	12.19
530.703	12.23
530.903	12.23
531.103	12.26
531.303	12.29
531.502	12.33
531.702	12.32
531.902	12.36
532.101	12.36
532.301	12.38
532.501	12.4
532.7	12.39
532.9	12.42
533.1	12.44
533.299	12.47
533.499	12.51
533.698	12.58
533.898	12.6
534.097	12.6
534.297	12.65
534.496	12.66
534.696	12.71
534.895	12.76
535.095	12.8
535.294	12.86
535.494	12.94
535.693	13
535.892	13.05
536.092	13.07
536.291	13.08
536.491	13.07
536.69	13.09
536.889	13.1
537.088	13.13
537.288	13.15
537.487	13.18
537.686	13.2
537.886	13.25
538.085	13.28
538.284	13.33
538.483	13.32
538.682	13.37
538.882	13.43
539.081	13.47
539.28	13.47
539.479	13.49
539.678	13.54
539.877	13.63
540.076	13.67
540.275	13.7
540.474	13.71
540.673	13.77
540.872	13.84
541.071	13.88
541.27	13.88
541.469	13.94
541.668	14
541.867	14.04
542.066	14.11
542.265	14.17
542.464	14.24
542.663	14.34
542.862	14.4
543.06	14.43
543.259	14.51
543.458	14.55
543.657	14.6
543.856	14.62
544.054	14.66
544.253	14.67
544.452	14.7
544.651	14.71
544.849	14.75
545.048	14.79
545.247	14.85
545.445	14.86
545.644	14.93
545.843	15
546.041	15.1
546.24	15.17
546.438	15.22
546.637	15.31
546.836	15.39
547.034	15.44
547.233	15.54
547.431	15.59
547.63	15.68
547.828	15.76
548.027	15.77
548.225	15.83
548.423	15.94
548.622	15.99
548.82	16.06
549.019	16.1
549.217	16.18
549.415	16.27
549.614	16.36
549.812	16.4
550.01	16.44
550.209	16.55
550.407	16.67
550.605	16.75
550.803	16.87
551.002	16.96
551.2	17.09
551.398	17.19
551.596	17.24
551.794	17.33
551.993	17.37
552.191	17.43
552.389	17.5
552.587	17.53
552.785	17.68
552.983	17.77
553.181	17.82
553.379	17.91
553.577	18.03
553.775	18.13
553.973	18.22
554.171	18.27
554.369	18.37
554.567	18.47
554.765	18.48
554.963	18.56
555.161	18.65
555.359	18.76
555.557	18.88
555.755	19.02
555.952	19.13
556.15	19.34
556.348	19.44
556.546	19.56
556.744	19.7
556.941	19.78
557.139	19.87
557.337	19.96
557.535	20.07
557.732	20.21
557.93	20.32
558.128	20.4
558.325	20.5
558.523	20.6
558.721	20.74
558.918	20.91
559.116	20.95
559.313	21.09
559.511	21.16
559.708	21.28
559.906	21.35
560.104	21.48
560.301	21.5
560.498	21.66
560.696	21.73
560.893	21.87
561.091	21.97
561.288	22.12
561.486	22.16
561.683	22.31
561.88	22.36
562.078	22.43
562.275	22.57
562.473	22.68
562.67	22.76
562.867	22.9
563.064	23.01
563.262	23.16
563.459	23.28
563.656	23.38
563.853	23.46
564.051	23.62
564.248	23.71
564.445	23.79
564.642	23.9
564.839	24.06
565.036	24.15
565.234	24.32
565.431	24.37
565.628	24.47
565.825	24.56
566.022	24.6
566.219	24.65
566.416	24.71
566.613	24.78
566.81	24.88
567.007	24.98
567.204	25.06
567.401	25.2
567.598	25.27
567.795	25.36
567.991	25.42
568.188	25.48
568.385	25.56
568.582	25.7
568.779	25.72
568.976	25.8
569.172	25.9
569.369	25.96
569.566	26.02
569.763	26.07
569.96	26.11
570.156	26.15
570.353	26.2
570.55	26.24
570.746	26.3
570.943	26.4
571.14	26.45
571.336	26.45
571.533	26.55
571.729	26.59
571.926	26.63
572.123	26.63
572.319	26.61
572.516	26.64
572.712	26.67
572.909	26.72
573.105	26.79
573.302	26.81
573.498	26.84
573.695	26.9
573.891	26.91
574.087	27.01
574.284	26.97
574.48	26.98
574.677	27.01
574.873	27.02
575.069	27.04
575.266	27.12
575.462	27.1
575.658	27.18
575.854	27.21
576.051	27.21
576.247	27.25
576.443	27.3
576.639	27.22
576.835	27.26
577.032	27.27
577.228	27.27
577.424	27.29
577.62	27.3
577.816	27.24
578.012	27.25
578.208	27.22
578.404	27.24
578.6	27.25
578.796	27.23
578.993	27.21
579.189	27.17
579.384	27.19
579.58	27.14
579.776	27.09
579.972	27.03
580.168	27.04
580.364	27.06
580.56	27.08
580.756	27.08
580.952	27.14
581.148	27.12
581.343	27.16
581.539	27.1
581.735	27.12
581.931	27.14
582.127	27.14
582.322	27.11
582.518	27.11
582.714	27.03
582.909	27.03
583.105	27
583.301	26.99
583.496	26.94
583.692	26.91
583.888	26.82
584.083	26.92
584.279	26.95
584.474	26.83
584.67	26.86
584.866	26.86
585.061	26.84
585.257	26.93
585.452	26.87
585.648	26.86
585.843	26.92
586.039	26.91
586.234	26.9
586.429	26.94
586.625	26.89
586.82	26.83
587.015	26.77
587.211	26.79
587.406	26.81
587.601	26.82
587.797	26.79
587.992	26.82
588.187	26.92
588.383	27.02
588.578	27.03
588.773	26.97
588.968	27
589.163	27.06
589.359	27.04
589.554	27.03
589.749	27.01
589.944	27.01
590.139	27.02
590.334	27.1
590.529	27.15
590.724	27.19
590.919	27.24
591.114	27.24
591.309	27.25
591.504	27.3
591.699	27.28
591.894	27.26
592.089	27.35
592.284	27.39
592.479	27.47
592.674	27.53
592.869	27.58
593.064	27.68
593.259	27.75
593.454	27.76
593.648	27.76
593.843	27.81
594.038	27.88
594.233	27.93
594.428	28
594.622	28.05
594.817	28.19
595.012	28.28
595.206	28.34
595.401	28.4
595.596	28.56
595.79	28.59
595.985	28.69
596.18	28.68
596.374	28.75
596.569	28.88
596.763	29.04
596.958	29.04
597.153	29.09
597.347	29.1
597.542	29.29
597.736	29.43
597.931	29.5
598.125	29.54
598.319	29.59
598.514	29.69
598.708	29.8
598.903	29.84
599.097	29.87
599.291	29.9
599.486	29.92
599.68	29.99
599.874	30.02
600.069	30.09
600.263	30.04
600.457	30.1
600.651	30.14
600.846	30.24
601.04	30.27
601.234	30.39
601.428	30.42
601.622	30.48
601.817	30.49
602.011	30.53
602.205	30.54
602.399	30.55
602.593	30.52
602.787	30.54
602.981	30.65
603.175	30.66
603.369	30.65
603.563	30.67
603.757	30.7
603.951	30.71
604.145	30.7
604.339	30.68
604.533	30.68
604.727	30.68
604.921	30.65
605.115	30.64
605.309	30.66
605.502	30.7
605.696	30.6
605.89	30.6
606.084	30.58
606.278	30.53
606.471	30.49
606.665	30.39
606.859	30.31
607.053	30.38
607.246	30.31
607.44	30.28
607.634	30.21
607.827	30.19
608.021	30.18
608.214	30.12
608.408	30.02
608.602	29.96
608.795	29.85
608.989	29.83
609.182	29.81
609.376	29.66
609.569	29.59
609.763	29.54
609.956	29.47
610.15	29.49
610.343	29.43
610.537	29.25
610.73	29.27
610.923	29.21
611.117	29.03
611.31	28.95
611.504	28.83
611.697	28.74
611.89	28.71
612.083	28.6
612.277	28.49
612.47	28.46
612.663	28.39
612.856	28.28
613.05	28.23
613.243	28.2
613.436	28.11
613.629	28.06
613.822	27.96
614.015	27.87
614.209	27.82
614.402	27.76
614.595	27.62
614.788	27.56
614.981	27.47
615.174	27.42
615.367	27.37
615.56	27.31
615.753	27.2
615.946	27.21
616.139	27.18
616.332	27.14
616.525	27.18
616.718	27.07
616.911	27.04
617.103	26.97
617.296	26.89
617.489	26.82
617.682	26.83
617.875	26.68
618.067	26.65
618.26	26.6
618.453	26.5
618.646	26.46
618.838	26.38
619.031	26.29
619.224	26.29
619.417	26.24
619.609	26.24
619.802	26.24
619.994	26.2
620.187	26.2
620.38	26.16
620.572	26.15
620.765	26.15
620.957	26.03
621.15	26
621.342	25.98
621.535	25.92
621.727	25.88
621.92	25.81
622.112	25.81
622.305	25.78
622.497	25.77
622.69	25.68
622.882	25.69
623.074	25.68
623.267	25.61
623.459	25.58
623.651	25.57
623.844	25.52
624.036	25.53
624.228	25.45
624.42	25.42
624.613	25.41
624.805	25.35
624.997	25.35
625.189	25.35
625.381	25.3
625.574	25.28
625.766	25.25
625.958	25.27
626.15	25.3
626.342	25.26
626.534	25.24
626.726	25.21
626.918	25.22
627.11	25.13
627.302	25.06
627.494	24.99
627.686	24.95
627.878	24.9
628.07	24.87
628.262	24.81
628.454	24.84
628.646	24.83
628.838	24.76
629.029	24.7
629.221	24.68
629.413	24.61
629.605	24.5
629.797	24.47
629.989	24.45
630.18	24.35
630.372	24.35
630.564	24.27
630.755	24.27
630.947	24.21
631.139	24.09
631.33	23.99
631.522	23.98
631.714	23.95
631.905	23.96
632.097	23.92
632.289	23.91
632.48	23.89
632.672	23.84
632.863	23.81
633.055	23.75
633.246	23.72
633.438	23.71
633.629	23.76
633.821	23.81
634.012	23.82
634.203	23.89
634.395	23.91
634.586	23.86
634.777	23.78
634.969	23.74
635.16	23.72
635.351	23.72
635.543	23.65
635.734	23.63
635.925	23.65
636.117	23.7
636.308	23.69
636.499	23.64
636.69	23.7
636.881	23.71
637.073	23.62
637.264	23.57
637.455	23.56
637.646	23.58
637.837	23.54
638.028	23.47
638.219	23.4
638.41	23.37
638.601	23.37
638.792	23.27
638.983	23.17
639.174	23.13
639.365	23.07
639.556	23.09
639.747	23.17
639.938	23.1
640.129	23.07
640.32	23.07
640.511	23.07
640.701	23.02
640.892	22.94
641.083	22.83
641.274	22.83
641.465	22.81
641.655	22.82
641.846	22.76
642.037	22.78
642.228	22.8
642.418	22.76
642.609	22.69
642.8	22.66
642.99	22.63
643.181	22.63
643.372	22.58
643.562	22.49
643.753	22.44
643.943	22.42
644.134	22.42
644.324	22.35
644.515	22.31
644.705	22.32
644.896	22.26
645.086	22.25
645.277	22.3
645.467	22.26
645.658	22.22
645.848	22.18
646.038	22.08
646.229	22.13
646.419	22.11
646.61	21.97
646.8	21.89
646.99	21.87
647.18	21.8
647.371	21.83
647.561	21.82
647.751	21.75
647.941	21.75
648.132	21.83
648.322	21.88
648.512	21.93
648.702	21.83
648.892	21.82
649.082	21.81
649.272	21.77
649.462	21.7
649.653	21.57
649.843	21.48
650.033	21.45
650.223	21.37
650.413	21.34
650.603	21.36
650.793	21.25
650.983	21.25
651.172	21.22
651.362	21.17
651.552	21.13
651.742	21.02
651.932	20.93
652.122	20.85
652.312	20.72
652.502	20.57
652.691	20.57
652.881	20.5
653.071	20.45
653.261	20.31
653.45	20.29
653.64	20.31
653.83	20.29
654.019	20.1
654.209	19.98
654.399	19.85
654.588	19.81
654.778	19.64
654.968	19.48
655.157	19.33
655.347	19.23
655.536	19.01
655.726	18.88
655.915	18.68
656.105	18.57
656.294	18.41
656.484	18.3
656.673	18.16
656.863	18.06
657.052	17.89
657.241	17.77
657.431	17.59
657.62	17.36
657.809	17.14
657.999	16.97
658.188	16.77
658.377	16.65
658.567	16.47
658.756	16.26
658.945	16.12
659.134	15.99
659.324	15.78
659.513	15.64
659.702	15.42
659.891	15.21
660.08	15.12
660.269	14.95
660.458	14.77
660.648	14.65
660.837	14.46
661.026	14.25
661.215	14.11
661.404	13.89
661.593	13.7
661.782	13.49
661.971	13.27
662.16	13.1
662.349	12.93
662.538	12.76
662.726	12.6
662.915	12.44
663.104	12.24
663.293	12.07
663.482	11.91
663.671	11.81
663.86	11.64
664.048	11.52
664.237	11.45
664.426	11.39
664.615	11.3
664.803	11.21
664.992	11.14
665.181	11.11
665.369	11
665.558	10.86
665.747	10.78
665.935	10.74
666.124	10.68
666.312	10.51
666.501	10.37
666.69	10.29
666.878	10.21
667.067	10.17
667.255	10.12
667.444	10.07
667.632	10.04
667.82	10
668.009	10.03
668.197	9.95
668.386	9.87
668.574	9.73
668.762	9.63
668.951	9.61
669.139	9.63
669.327	9.56
669.516	9.58
669.704	9.58
669.892	9.59
670.08	9.57
670.269	9.57
670.457	9.48
670.645	9.5
670.833	9.49
671.021	9.48
671.21	9.52
671.398	9.56
671.586	9.58
671.774	9.59
671.962	9.6
672.15	9.6
672.338	9.58
672.526	9.62
672.714	9.63
672.902	9.64
673.09	9.73
673.278	9.77
673.466	9.87
673.654	9.93
673.842	9.95
674.03	10.03
674.218	10.08
674.405	10.1
674.593	10.1
674.781	10.09
674.969	10.14
675.157	10.24
675.344	10.29
675.532	10.39
675.72	10.41
675.908	10.5
676.095	10.64
676.283	10.7
676.471	10.75
676.658	10.82
676.846	10.89
677.033	11.09
677.221	11.21
677.409	11.26
677.596	11.41
677.784	11.48
677.971	11.59
678.159	11.66
678.346	11.73
678.534	11.8
678.721	11.87
678.909	11.93
679.096	12.06
679.283	12.17
679.471	12.35
679.658	12.47
679.846	12.6
680.033	12.82
680.22	12.91
680.408	13.01
680.595	13.08
680.782	13.16
680.969	13.21
681.157	13.38
681.344	13.47
681.531	13.72
681.718	13.91
681.905	14.22
682.093	14.49
682.28	14.73
682.467	14.84
682.654	15.01
682.841	15.23
683.028	15.48
683.215	15.62
683.402	15.76
683.589	16.05
683.776	16.39
683.963	16.62
684.15	16.82
684.337	17.06
684.524	17.34
684.711	17.67
684.898	17.88
685.085	18.12
685.271	18.54
685.458	18.88
685.645	19.24
685.832	19.66
686.019	19.94
686.205	20.28
686.392	20.61
686.579	20.84
686.766	21.23
686.952	21.63
687.139	21.87
687.326	22.39
687.512	22.87
687.699	23.37
687.886	23.85
688.072	24.33
688.259	24.86
688.445	25.37
688.632	25.86
688.818	26.39
689.005	27.03
689.191	27.66
689.378	28.22
689.564	28.61
689.751	29.25
689.937	29.72
690.124	30.41
690.31	30.85
690.496	31.43
690.683	31.99
690.869	32.72
691.055	33.48
691.242	34.05
691.428	34.5
691.614	35.23
691.8	35.93
691.987	36.56
692.173	37.23
692.359	37.79
692.545	38.53
692.731	39.28
692.918	39.91
693.104	40.56
693.29	41.39
693.476	41.92
693.662	42.55
693.848	43.19
694.034	43.79
694.22	44.47
694.406	45.06
694.592	45.61
694.778	46.26
694.964	46.83
695.15	47.54
695.336	48.3
695.522	49.03
695.708	49.65
695.894	50.35
696.08	51.2
696.265	51.86
696.451	52.54
696.637	53.13
696.823	53.7
697.009	54.39
697.194	54.86
697.38	55.28
697.566	55.92
697.751	56.61
697.937	57.21
698.123	57.73
698.308	58.16
698.494	58.8
698.68	59.47
698.865	60.2
699.051	60.62
699.236	61.15
699.422	61.76
699.607	62.36
699.793	62.84
699.978	63.2
700.164	63.66
700.349	64.13
700.535	64.5
700.72	64.92
700.906	65.33
701.091	65.78
701.276	66.35
701.462	66.77
701.647	67.06
701.832	67.55
702.018	67.8
702.203	68.43
702.388	68.88
702.573	69.25
702.759	69.59
702.944	70.14
703.129	70.47
703.314	71.06
703.499	71.4
703.684	71.93
703.87	72.3
704.055	72.62
704.24	73.02
704.425	73.52
704.61	73.6
704.795	73.96
704.98	74.24
705.165	74.5
705.35	74.53
705.535	74.9
705.72	75.19
705.905	75.64
706.09	75.71
706.275	75.74
706.459	76.23
706.644	76.87
706.829	77.09
707.014	77.23
707.199	77.41
707.384	77.73
707.568	78.21
707.753	78.47
707.938	78.59
708.123	78.61
708.307	79.18
708.492	79.5
708.677	79.86
708.861	80.05
709.046	79.92
709.231	80.28
709.415	80.58
709.6	80.53
709.784	80.74
709.969	81.06
710.153	81.3
710.338	81.69
710.522	82.01
710.707	81.73
710.891	81.96
711.076	81.97
711.26	82.02
711.445	81.99
711.629	82.31
711.813	82.05
711.998	82.41
712.182	82.66
712.366	83.21
712.551	83.38
712.735	83.37
712.919	83.46
713.103	83.86
713.288	84.43
713.472	84.45
713.656	84.36
713.84	84.51
714.024	84.87
714.208	84.89
714.393	84.79
714.577	84.75
714.761	84.97
714.945	84.88
715.129	84.78
715.313	84.85
715.497	85.01
715.681	85.44
715.865	85.5
716.049	85.54
716.233	85.99
716.417	86.42
716.601	86.62
716.785	86.86
716.968	86.57
717.152	86.85
717.336	86.9
717.52	87.07
717.704	87.08
717.888	86.96
718.071	87.01
718.255	87.11
718.439	86.9
718.622	87.15
718.806	86.97
718.99	86.91
719.174	87.21
719.357	87.29
719.541	87.69
719.724	87.88
719.908	87.78
720.092	88.15
720.275	88.26
720.459	88.36
720.642	88.37
720.826	88.46
721.009	88.7
721.193	88.79
721.376	88.54
721.559	88.54
721.743	88.44
721.926	88.55
722.11	88.58
722.293	88.43
722.476	88.36
722.66	88.48
722.843	88.73
723.026	89.13
723.21	88.89
723.393	89.12
723.576	89.27
723.759	89.61
723.942	89.74
724.126	89.84
724.309	89.84
724.492	90.32
724.675	90.32
724.858	90.61
725.041	90.65
725.224	90.88
725.407	90.55
725.59	90.55
725.774	90.53
725.957	90.53
726.14	90.46
726.322	90.52
726.505	90.78
726.688	90.99
726.871	91.23
727.054	91.14
727.237	91.1
727.42	91.39
727.603	91.5
727.786	91.27
727.968	91.67
728.151	91.59
728.334	91.72
728.517	91.92
728.699	92.07
728.882	92.39
729.065	92.36
729.248	91.98
729.43	91.93
729.613	92.14
729.796	91.85
729.978	91.81
730.161	91.62
730.343	91.61
730.526	91.71
730.708	92.35
730.891	92.37
731.073	92.56
731.256	92.33
731.438	92.67
731.621	93.18
731.803	93.72
731.986	93.2
732.168	93.06
732.35	93.2
732.533	93.56
732.715	93.55
732.898	93.47
733.08	93.6
733.262	94.15
733.444	94.32
733.627	94.58
733.809	94.42
733.991	94.58
734.173	94.09
734.355	94.15
734.538	93.64
734.72	93.87
734.902	93.99
735.084	94.21
735.266	94.09
735.448	94.33
735.63	94.04
735.812	93.93
735.994	93.87
736.176	93.63
736.358	93.84
736.54	93.83
736.722	94.27
736.904	94.77
737.086	95.18
737.268	95.51
737.45	95.87
737.632	95.64
737.814	95.33
737.995	95.6
738.177	95.72
738.359	95.98
738.541	95.82
738.723	95.67
738.904	95.52
739.086	96.15
739.268	96.51
739.449	96.29
739.631	96.51
739.813	96.19
739.994	96.6
740.176	96.64
740.358	96.4
740.539	95.64
740.721	95.55
740.902	94.82
741.084	95.19
741.265	94.82
741.447	95.15
741.628	94.61
741.81	95.09
741.991	95.32
742.172	95.38
742.354	95.92
742.535	96.22
742.717	96.15
742.898	97.23
743.079	96.94
743.261	96.92
743.442	97.01
743.623	96.56
743.804	96.64
743.986	96.33
744.167	95.99
744.348	96.37
744.529	96.15
744.71	95.92
744.891	96.27
745.073	96.08
745.254	95.94
745.435	95.65
745.616	95.4
745.797	95.54
745.978	96.48
746.159	95.91
746.34	95.86
746.521	96.05
746.702	95.71
746.883	95.74
747.064	95.37
747.245	94.8
747.426	95.25
747.606	95.64
747.787	96.49
747.968	97.47
748.149	97.62
748.33	97.85
748.51	97.94
748.691	97.76
748.872	97.19
749.053	96.52
749.233	96.13
749.414	95.86
749.595	95.5
749.775	95.52
749.956	94.9
750.137	95.05
750.317	95.06
750.498	95.18
750.678	95.32
750.859	95.4
751.04	95.15
751.22	95.3
751.4	95.89
751.581	95.89
751.761	95.79
751.942	95.51
752.122	95.82
752.303	95.88
752.483	96.37
752.663	96.25
752.844	95.9
753.024	96.19
753.204	96.09
753.385	95.79
753.565	95.77
753.745	95.15
753.925	94.21
754.106	94.44
754.286	94.05
754.466	94.08
754.646	94.38
754.826	94.7
755.006	94.97
755.187	95.43
755.367	95.14
755.547	95.29
755.727	95.36
755.907	95.23
756.087	95.04
756.267	94.94
756.447	95.23
756.627	95.48
756.807	94.83
756.987	95.46
757.167	95.15
757.346	94.58
757.526	94.35
757.706	94.38
757.886	93.82
758.066	93.88
758.246	93.4
758.425	93.76
758.605	94.3
758.785	94.48
758.965	92.71
759.144	93.73
759.324	94.11
759.504	93.97
759.683	93.81
759.863	93.62
760.043	93.71
760.222	94.4
760.402	93.97
760.581	93.25
760.761	92.47
760.94	91.56
761.12	91.08
761.299	90.37
761.479	91.48
761.658	91.5
761.838	91.86
762.017	93.09
762.197	94.23
762.376	94.37
762.555	95.06
762.735	93.16
762.914	93.07
763.093	92.77
763.273	92.6
763.452	91.85
763.631	92.1
763.81	92.84
763.99	94.14
764.169	94.38
764.348	95.46
764.527	94.69
764.706	95.69
764.885	95.76
765.064	94.97
765.243	94.84
765.423	95.25
765.602	93.59
765.781	93.38
765.96	93.13
766.139	92.81
766.318	92.92
766.497	92.53
766.676	92.25
766.854	91.88
767.033	91.38
767.212	90.44
767.391	90.37
767.57	90.33
767.749	90.33
767.928	89.99
768.106	90.8
768.285	91.81
768.464	93.12
768.643	93.79
768.821	93.65
769	94.68
769.179	93.3
769.357	93.3
769.536	92.79
769.715	91.97
769.893	91.26
770.072	91.38
770.25	90.27
770.429	90.92
770.607	91.98
770.786	91.2
770.964	90.35
771.143	90.17
771.321	89.04
771.5	88.69
771.678	88.98
771.857	87.27
772.035	88.51
772.213	89.32
772.392	89.87
772.57	90.9
772.748	91.96
772.927	92.06
773.105	93.3
773.283	92.64
773.461	92.2
773.64	91.71
773.818	89.94
773.996	89.37
774.174	89.56
774.352	89.34
774.531	89.17
774.709	88.92
774.887	88.12
775.065	88.62
775.243	89.14
775.421	89.33
775.599	87.7
775.777	88.52
775.955	87.85
776.133	88.06
776.311	88.89
776.489	87.92
776.667	86.73
776.844	87.98
777.022	87.2
777.2	87.73
777.378	89.87
777.556	91.59
777.734	92.04
777.911	94.19
778.089	93.87
778.267	94.02
778.445	92.85
778.622	90.81
778.8	90.22
778.978	89.7
779.155	87.58
779.333	86.94
779.511	87.16
779.688	88.58
779.866	89.05
780.043	88.95
780.221	88.31
780.398	89.22
780.576	89.24
780.753	88.37
780.931	89.08
781.108	88.26
781.286	85.15
781.463	86.68
781.64	86.2
781.818	86.56
781.995	87.55
782.172	86.21
782.35	84.94
782.527	87.81
782.704	86.86
782.882	86.83
783.059	86.21
783.236	86.27
783.413	85.74
783.59	85.89
783.768	84.79
783.945	85.41
784.122	85.55
784.299	86.04
784.476	85.5
784.653	86.25
784.83	86.62
785.007	85.81
785.184	84.73
785.361	84.79
785.538	85.45
785.715	85.27
785.892	85.38
786.069	84.84
786.246	85.44
786.423	87.27
786.6	85.87
786.776	84.94
786.953	84.91
787.13	86.58
787.307	88.69
787.484	88.29
787.66	85.26
787.837	86.29
788.014	86.18
788.191	85.38
788.367	83.41
788.544	84.82
788.721	86.08
788.897	89.79
789.074	89.38
789.25	91.74
789.427	92.12
789.603	94.9
789.78	93.66
789.956	91.71
790.133	88.63
790.309	88.78
790.486	88.71
790.662	90.14
790.839	87.74
791.015	87.27
791.192	89.24
791.368	89.78
791.544	90.02
791.721	85.6
791.897	84.56
792.073	83.31
792.249	85.41
792.426	85.48
792.602	85.17
792.778	83.85
792.954	86.27
793.13	87.54
793.307	87.35
793.483	84.81
793.659	84.13
793.835	83.78
794.011	82.63
794.187	80.41
794.363	78.78
794.539	77.93
794.715	76.27
794.891	72.71
795.067	73.58
795.243	75.86
795.419	79.3
795.595	78.77
795.771	81.56
795.947	82.15
796.122	83.95
796.298	84.27
796.474	85.32
796.65	84.72
796.826	86.41
797.001	85.12
797.177	87.66
797.353	92.77
797.529	93.17
797.704	90.49
797.88	88.13
798.056	89.53
798.231	91.4
798.407	89.92
798.582	87.64
798.758	88.48
798.934	89.31
799.109	88.01
799.285	87.76
799.46	85.64
799.636	87.48
799.811	85.04
799.986	81.8
800.162	83.08
800.337	85.47
800.513	83.18
800.688	86.12
800.863	83.67
801.039	83.59
801.214	84.35
801.389	82.99
801.565	85.56
801.74	83.95
801.915	80.66
802.09	80.14
802.265	82.09
802.441	84
802.616	84.79
802.791	81.88
802.966	84.96
803.141	80.84
803.316	83.4
803.491	78.77
803.666	80.07
803.841	81.19
804.016	79.88
804.191	77.79
804.366	83.95
804.541	81.43
804.716	82.1
804.891	84.92
805.066	82.51
805.241	81.41
805.416	82.24
805.591	83.87
805.765	81.11
805.94	85.56
806.115	75.97
806.29	78.56
806.464	79.55
806.639	82
806.814	78.3
806.989	79.03
807.163	79.12
807.338	86
807.512	80.57
807.687	80.84
807.862	77.59
808.036	77.33
808.211	80.26
808.385	73.13
808.56	73.47
808.734	77.45
808.909	77.9
809.083	78.26
809.258	84.27
809.432	80.77
809.606	85.59
809.781	82.64
809.955	82.34
810.13	83.28
810.304	81.43
810.478	78.78
810.652	81.91
810.827	79.18
811.001	78.63
811.175	74.52
811.349	74.12
811.524	75.04
811.698	75.01
811.872	77.33
812.046	78.76
812.22	78.4
812.394	83.78
812.568	87.84
812.742	86.18
812.916	85.45
813.09	79.61
813.264	83.23
813.438	90.41
813.612	88.13
813.786	87.64
813.96	95.04
814.134	93.95
814.308	95.79
814.482	92.4
814.656	89.12
814.83	91.14
815.003	87.76
815.177	85.65
815.351	85.83
815.525	81.53
815.698	83.2
815.872	80.06
816.046	79.7
816.219	83.59
816.393	77.84
816.567	74.72
816.74	83.77
816.914	85.97
817.088	84.73
817.261	79.58
817.435	73.58
817.608	75.68
817.782	77.53
817.955	72.43
818.129	75.06
818.302	78.61
818.475	83.7
818.649	77.17
818.822	78.76
818.996	78.95
819.169	81.22
819.342	72.05
819.516	72.95
819.689	71.51
819.862	74.97
820.035	79.02
820.209	77.92
820.382	72.28
820.555	76.19
820.728	72.36
820.901	76.08
821.075	83.87
821.248	78.64
821.421	78.22
821.594	86.43
821.767	85.02
821.94	82.27
822.113	81.06
822.286	80.92
822.459	85.4
822.632	88.1
822.805	83.53
822.978	79.15
823.151	86.21
823.324	76.02
823.496	65.72
823.669	66.3
823.842	59.9
824.015	57.99
824.188	62.65
824.361	63.85
824.533	73.58
824.706	88.45
824.879	89.86
825.051	96.9
825.224	90.35
825.397	82.99
825.569	77.16
825.742	74.51
825.915	72.6
826.087	66.95
826.26	68.12
826.432	77.13
826.605	85.56
826.777	95.5
826.95	87.61
827.122	83.77
827.295	85.72
827.467	76.95
827.64	69.35
827.812	66.37
827.984	60.5
828.157	66.84
828.329	68.64
828.501	66
828.674	71.87
828.846	74.51
829.018	69.51
829.19	67.69
829.363	63.13
829.535	64.08
829.707	58.42
829.879	60.88
830.051	56.14
830.223	56.54
830.395	51.49
830.568	64.1
830.74	63.07
830.912	70.51
831.084	65.26
831.256	68.45
831.428	76.28
831.6	84.49
831.772	81.42
831.943	92.21
832.115	91.68
832.287	91.99
832.459	87.9
832.631	78.79
832.803	79.31
832.975	75.38
833.146	70.03
833.318	70.61
833.49	83.89
833.662	82.63
833.833	95.72
834.005	91.45
834.177	92.76
834.348	85.83
834.52	90.8
834.692	81.27
834.863	84.49
835.035	73.73
835.206	64.44
835.378	57.79
835.549	60.56
835.721	52.47
835.892	55.66
836.064	61.3
836.235	62.85
836.407	65.82
836.578	72.27
836.749	72.92
836.921	73.55
837.092	77.79
837.264	73.23
837.435	68.21
837.606	69.51
837.777	58.83
837.949	56.04
838.12	55.97
838.291	52.81
838.462	52.65
838.633	56.73
838.805	60.32
838.976	63.85
839.147	59.77
839.318	56.92
839.489	59.87
839.66	67.56
839.831	71.28
840.002	68.26
840.173	73.85
840.344	89.54
840.515	83.55
840.686	83.46
840.857	71.97
841.028	72.21
841.199	75.04
841.369	80.81
841.54	73.32
841.711	76.93
841.882	71.2
842.053	83.33
842.223	84.95
842.394	67.7
842.565	66.71
842.736	74.51
842.906	94.92
843.077	88.26
843.248	85.51
843.418	79.08
843.589	90.75
843.759	83.76
843.93	89.21
844.101	79.15
844.271	80.89
844.442	74.72
844.612	73.97
844.783	65.1
844.953	59.93
845.123	54.44
845.294	50.24
845.464	49.37
845.635	56.22
845.805	64.79
845.975	58.44
846.146	53.33
846.316	69.12
846.486	89.57
846.656	99.4
846.827	91.58
846.997	99
847.167	96.51
847.337	108.76
847.507	92.93
847.677	88.78
847.848	95.76
848.018	94.82
848.188	98.69
848.358	122.27
848.528	103.03
848.698	85.82
848.868	79
849.038	59.88
849.208	67.34
849.378	44.84
849.548	51.9
849.718	62.3
849.887	74.35
850.057	64.28
850.227	60.59
850.397	49.8
850.567	65.51
850.737	57.69
850.906	50.45
851.076	55.47
851.246	71.54
851.415	92.88
851.585	102.48
851.755	93.27
851.924	96.37
852.094	95.13
852.264	89.07
852.433	81.86
852.603	80.63
852.772	58.3
852.942	54.12
853.111	56.9
853.281	61.9
853.45	59.39
853.62	56.27
853.789	49.47
853.959	57.13
854.128	56.13
854.297	49.72
854.467	52.59
854.636	52.61
854.805	59.88
854.975	63.36
855.144	71.52
855.313	84.95
855.482	85.77
855.652	82.89
855.821	84.68
855.99	88.76
856.159	80.4
856.328	87.73
856.497	70.13
856.667	67.02
856.836	64.35
857.005	68.75
857.174	70.97
857.343	75.49
857.512	55.48
857.681	53.66
857.85	54.34
858.019	67.69
858.188	73.19
858.356	48.77
858.525	43.99
858.694	58.8
858.863	64.32
859.032	49.81
859.201	37.84
859.369	40.64
859.538	47.49
859.707	61.17
859.876	56.2
860.044	65.32
860.213	77.25
860.382	60.5
860.55	61.1
860.719	63.36
860.888	43.4
861.056	39.66
861.225	25.3
861.393	44.65
861.562	40.52
861.73	29.11
861.899	16.25
862.067	21.08
862.236	26.85
862.404	30.25
862.572	16.36
862.741	22.43
862.909	30.23
863.078	43.93
863.246	70.55
863.414	71.49
863.582	68.51
863.751	78.09
863.919	81.57
864.087	70.18
864.255	64.39
864.424	47.01
864.592	58.26
864.76	84.55
864.928	79.02
865.096	70.87
865.264	80.16
865.432	84.5
865.6	85.88
865.768	70.61
865.936	56.05
866.104	66.96
866.272	71.82
866.44	57.5
866.608	43.09
866.776	60.53
866.944	57.13
867.112	22.08
867.28	3.08
867.448	29.22
867.615	46.17
867.783	29.16
867.951	-3.43
868.119	28.26
868.286	18.99
868.454	35.46
868.622	32.63
868.789	22.17
868.957	49.47
869.125	53.74
869.292	46.4
869.46	47.15
869.627	40.94
869.795	34.54
869.963	47.02
870.13	50.14
870.298	52.21
870.465	43.78
870.632	55.87
870.8	44.93
870.967	39.98
871.135	41.52
871.302	31.83
871.469	28.5
871.637	30.52
871.804	40.25
871.971	48.42
872.139	51.94
872.306	41.29
872.473	27.97
872.64	39.25
872.807	41.91
872.975	64.49
873.142	34.38
873.309	15.52
873.476	77.04
873.643	141.88
873.81	159.31
873.977	112.14
874.144	91.26
874.311	99.3
874.478	76.74
874.645	44.37
874.812	69.6
874.979	40.55
875.146	26.05
875.313	36.49
875.48	125.55
875.647	101.76
875.813	61.08
875.98	39.64
876.147	58
876.314	62.23
876.481	36.6
876.647	11.83
876.814	30.3
876.981	42.4
877.147	30.18
877.314	32.56
877.481	47.57
877.647	65.49
877.814	65.37
877.98	74.06
878.147	54.87
878.314	53.32
878.48	38.11
878.647	64.86
878.813	41.85
878.979	68.32
879.146	77.67
879.312	106.23
879.479	100.97
879.645	89.28
879.811	55.47
879.978	54.33
880.144	55.15
880.31	23.92
880.477	-0.24
880.643	-82.04
880.809	26.63
880.975	43.6
881.142	35.41
881.308	26.3
881.474	78.77
881.64	46.98
881.806	60.33
881.972	68.67
882.138	65.6
882.304	88.38
882.47	15.18
882.636	-44.54
882.802	-44.22
882.968	-144.36
883.134	-251.99
883.3	-38.33
883.466	26.7
883.632	33.57
883.798	76.28
883.964	88.12
884.129	100.56
884.295	71.99
884.461	59.26
884.627	43.64
884.793	81.62
884.958	77.24
885.124	51.48
885.29	43.66
885.455	31.01
885.621	18.78
885.787	21.6
885.952	4.73
886.118	5.09
886.283	32.05
886.449	1.63
886.614	39.54
886.78	46.17
886.945	45.64
887.111	56.87
887.276	52.13
887.442	58.78
887.607	83.58
887.773	49.26
887.938	56.17
888.103	59.25
888.269	55.3
888.434	58.14
888.599	49.97
888.764	49.21
888.93	57.99
889.095	61.38
889.26	73.46
889.425	93.98
889.59	75.72
889.756	63.68
889.921	55.39
890.086	56.92
890.251	50.53
890.416	25.22
890.581	17.22
890.746	0.83
890.911	2.67
891.076	-22.37
891.241	-25.22
891.406	7.5
891.571	18.49
891.736	16.95
891.901	50.91
892.065	49.09
892.23	55
892.395	49.41
892.56	60.51
892.725	54.03
892.889	47.54
893.054	1.46
893.219	-21.29
893.384	-51.5
893.548	-208.33
893.713	505.45
893.878	235.33
