Data from Ofra_1a_PS_2GT70_Reflection_2.txt Node
Date: Tue Jul 20 10:52:15 EDT 2021
User: Adam
Spectrometer: FLMT01687
Trigger mode: 0
Integration Time (sec): 1.004000E0
Scans to average: 2
Electric dark correction enabled: true
Nonlinearity correction enabled: false
Boxcar width: 2
XAxis mode: Wavelengths
Number of Pixels in Spectrum: 3648
>>>>>Begin Spectral Data<<<<<
179.494	-196.95
179.716	-314.5
179.937	789.3
180.158	-761.78
180.38	168.63
180.601	115.97
180.823	92.2
181.044	74.52
181.265	93.56
181.486	179.24
181.708	104.29
181.929	-13018.18
182.15	141.04
182.372	-143.84
182.593	313.09
182.814	-245.84
183.035	-72.41
183.257	0.14
183.478	-6.49
183.699	-26.07
183.92	-62.2
184.141	-71.95
184.363	-56.3
184.584	-77.84
184.805	-14.73
185.026	40.39
185.247	44.77
185.468	34.14
185.689	46.26
185.91	24.4
186.132	26.85
186.353	21.47
186.574	13.64
186.795	24.45
187.016	53.79
187.237	53.19
187.458	54.42
187.679	56.1
187.9	46.59
188.121	33.1
188.342	39.4
188.563	56.88
188.784	81.47
189.005	48.87
189.226	40.91
189.447	30.2
189.667	25.15
189.888	-6.46
190.109	7.62
190.33	25.96
190.551	27.95
190.772	16.4
190.993	-2.99
191.214	-18.03
191.434	-79.39
191.655	-153.21
191.876	-57.1
192.097	25.93
192.318	66.9
192.538	49.51
192.759	78.2
192.98	65.51
193.201	35.29
193.421	11.59
193.642	34.76
193.863	38.35
194.083	38.05
194.304	59
194.525	72.47
194.745	55.75
194.966	33.81
195.187	25.01
195.407	8.85
195.628	-4.77
195.848	-0.13
196.069	-0.65
196.29	9.93
196.51	-0.89
196.731	9.53
196.951	14.96
197.172	17.81
197.392	21.22
197.613	42.52
197.833	44.62
198.054	32.69
198.274	24.25
198.495	14.01
198.715	7.39
198.936	27.38
199.156	30.27
199.377	23.18
199.597	32.47
199.817	40.2
200.038	14.38
200.258	33.98
200.479	58.4
200.699	32.18
200.919	14.69
201.14	21.57
201.36	1.95
201.58	-13.83
201.801	24.24
202.021	36.32
202.241	20.87
202.461	39.68
202.682	47.74
202.902	41.36
203.122	38.1
203.342	44.17
203.563	1.69
203.783	-11.81
204.003	-40.71
204.223	-18.95
204.443	-19.29
204.663	-15.48
204.884	-14.5
205.104	-7.41
205.324	-8.17
205.544	-28.22
205.764	15.06
205.984	16.79
206.204	17.43
206.424	-4.11
206.644	-13.95
206.864	-51.28
207.084	-3.37
207.304	3.57
207.525	16.66
207.745	35.37
207.964	45.37
208.184	22.75
208.404	19.57
208.624	10.28
208.844	-19.43
209.064	-18.07
209.284	-22.47
209.504	-61.88
209.724	-71.38
209.944	-51.47
210.164	-34.15
210.384	-45.91
210.604	-50.63
210.823	-12.27
211.043	11.62
211.263	-77.19
211.483	-33.56
211.703	-10.91
211.922	-35.21
212.142	-40.14
212.362	6.7
212.582	10.94
212.801	37.7
213.021	26.5
213.241	-1.48
213.461	-3.43
213.68	9.2
213.9	-2.14
214.12	19.84
214.339	28.55
214.559	32.43
214.779	42.4
214.998	35.08
215.218	28.64
215.438	21.17
215.657	19.03
215.877	-3.43
216.096	13.67
216.316	5.32
216.535	5.37
216.755	11.01
216.974	5.05
217.194	-10.61
217.413	-3.61
217.633	-3.19
217.852	-4.03
218.072	2.96
218.291	7.96
218.511	6.41
218.73	4.34
218.95	-10.76
219.169	-18.4
219.389	-1.17
219.608	7.42
219.827	32.28
220.047	51.75
220.266	77.73
220.485	52.54
220.705	52.94
220.924	9.77
221.143	9.78
221.363	14.73
221.582	6.24
221.801	5.42
222.021	25.15
222.24	12.74
222.459	34.86
222.678	51.54
222.897	43.53
223.117	55.24
223.336	63.29
223.555	53.12
223.774	32.82
223.993	52.5
224.213	15.43
224.432	18.24
224.651	25.43
224.87	31.05
225.089	26.25
225.308	56.37
225.527	36.4
225.746	26.95
225.965	36.46
226.184	11.88
226.404	-10.97
226.623	3.7
226.842	9.49
227.061	10.8
227.28	31.11
227.499	34.2
227.718	28.67
227.936	20.02
228.155	25.86
228.374	28.17
228.593	26.19
228.812	37.02
229.031	42.27
229.25	17.72
229.469	9.25
229.688	14.86
229.907	19.73
230.125	21.09
230.344	22.27
230.563	29.21
230.782	35.83
231.001	31.13
231.22	16.18
231.438	18.85
231.657	27.67
231.876	5.65
232.095	12.41
232.313	25.1
232.532	19.85
232.751	-8.01
232.969	4.74
233.188	-3.81
233.407	-3.8
233.625	12.49
233.844	23.25
234.063	15.52
234.281	29.71
234.5	30.36
234.719	31.52
234.937	42.5
235.156	71.21
235.374	55.36
235.593	54.1
235.811	49.86
236.03	31.16
236.249	20.55
236.467	20.91
236.686	11.79
236.904	15.39
237.123	15.92
237.341	24.96
237.559	25.48
237.778	22.94
237.996	-6.9
238.215	-14.44
238.433	-43.22
238.652	0.91
238.87	14.95
239.088	29.52
239.307	24.31
239.525	10.87
239.743	4.98
239.962	-19.47
240.18	-12.07
240.398	-10.11
240.617	-0.86
240.835	-29.21
241.053	4.59
241.271	22.49
241.49	21.58
241.708	9.79
241.926	21.51
242.144	23.69
242.363	-2.65
242.581	-7.79
242.799	22.88
243.017	27.05
243.235	10.86
243.453	17.99
243.672	9.65
243.89	1.84
244.108	-7.69
244.326	17.41
244.544	32.61
244.762	33.84
244.98	37.37
245.198	44.78
245.416	33.12
245.634	20.18
245.852	10.43
246.07	16.24
246.288	10.09
246.506	20.89
246.724	24.32
246.942	34.65
247.16	29.28
247.378	54.97
247.596	81.33
247.814	88.7
248.032	71.04
248.25	92.14
248.468	59.4
248.685	43.8
248.903	49.5
249.121	49.09
249.339	43.85
249.557	49.38
249.775	49.56
249.992	34.03
250.21	28.6
250.428	31.15
250.646	19.48
250.863	12.3
251.081	21.75
251.299	33.27
251.517	28.36
251.734	38.97
251.952	38.58
252.17	39.53
252.387	41.41
252.605	34.6
252.823	31.85
253.04	64.59
253.258	47.04
253.475	37.28
253.693	38.92
253.911	40.48
254.128	13.99
254.346	21.76
254.563	38.75
254.781	36.47
254.998	21.43
255.216	19.35
255.433	20.19
255.651	-8.94
255.868	-8.15
256.086	7.99
256.303	18.49
256.521	21.57
256.738	29.69
256.956	26
257.173	16.61
257.39	14.25
257.608	2.55
257.825	-4.92
258.043	15.28
258.26	23.09
258.477	18.43
258.695	28.31
258.912	39.25
259.129	14.89
259.346	0.34
259.564	27.44
259.781	15.9
259.998	13.92
260.216	38.53
260.433	31.1
260.65	23.33
260.867	12.36
261.084	12.08
261.302	-17.78
261.519	21.37
261.736	9.51
261.953	28.92
262.17	35.94
262.387	46.59
262.604	28.55
262.822	40.09
263.039	32.4
263.256	22.33
263.473	16.62
263.69	15.38
263.907	7.71
264.124	0.6
264.341	-0.11
264.558	5.18
264.775	15.65
264.992	17.98
265.209	30.08
265.426	35.07
265.643	17.7
265.86	5.05
266.077	7.13
266.294	9.32
266.51	41.9
266.727	59.39
266.944	44.11
267.161	31.39
267.378	26.48
267.595	8.01
267.812	-15.2
268.028	-27.22
268.245	6.74
268.462	-3.27
268.679	4.03
268.896	29.68
269.112	33.67
269.329	26.38
269.546	52.64
269.763	30.29
269.979	3.54
270.196	20.76
270.413	4.72
270.629	-17.24
270.846	-14.94
271.063	12.19
271.279	5.66
271.496	-0.14
271.712	21.57
271.929	33.93
272.146	31.67
272.362	32.92
272.579	34.35
272.795	33.52
273.012	42.26
273.228	36.37
273.445	30
273.661	25.66
273.878	12.16
274.094	2.32
274.311	-1.12
274.527	-12.38
274.744	20.81
274.96	24.47
275.177	28.17
275.393	27.81
275.609	43.37
275.826	31.94
276.042	32.12
276.259	42.29
276.475	45.7
276.691	27.28
276.908	28.02
277.124	37.76
277.34	24.65
277.557	-5.83
277.773	-0.65
277.989	5.35
278.205	-6.38
278.422	-24.07
278.638	-7.41
278.854	1.32
279.07	6.6
279.286	16.82
279.503	33.04
279.719	38.55
279.935	18.76
280.151	5.48
280.367	5
280.583	5.12
280.799	4.9
281.016	-23.42
281.232	3.76
281.448	-5.86
281.664	-17.36
281.88	-16.69
282.096	17.7
282.312	12.82
282.528	14.35
282.744	26.78
282.96	16.66
283.176	1.88
283.392	-18.31
283.608	-26.91
283.824	-39.94
284.04	-70.08
284.256	-21.96
284.471	-17.51
284.687	-3.03
284.903	3.44
285.119	26.4
285.335	23.62
285.551	27.6
285.767	15.14
285.982	11.03
286.198	-23
286.414	-22.51
286.63	-3.37
286.846	15.36
287.061	4.99
287.277	16.91
287.493	19.83
287.709	27.21
287.924	42.39
288.14	56.41
288.356	55.74
288.571	55.33
288.787	36.91
289.003	25.1
289.218	0.88
289.434	5.88
289.65	13.81
289.865	19.35
290.081	23.5
290.296	34.68
290.512	22.41
290.727	-1.15
290.943	4.2
291.159	-2.35
291.374	-23.63
291.59	-11.66
291.805	-10.96
292.021	-8.69
292.236	-5.12
292.451	10.7
292.667	16.96
292.882	25.88
293.098	13.46
293.313	11.48
293.529	3.28
293.744	-12.51
293.959	-13.73
294.175	3.17
294.39	3.15
294.605	18.26
294.821	30.5
295.036	33
295.251	27.28
295.467	12.02
295.682	16.18
295.897	15.31
296.112	7.98
296.328	15.49
296.543	8.41
296.758	-0.86
296.973	-10.08
297.188	-21.66
297.404	-61.43
297.619	-53.58
297.834	-79.74
298.049	-61.49
298.264	-30.06
298.479	-33.98
298.694	12.75
298.909	19.93
299.125	14.83
299.34	10.36
299.555	13.98
299.77	0.48
299.985	6.17
300.2	16.04
300.415	21.23
300.63	25.6
300.845	28.47
301.06	27.86
301.275	22.05
301.49	26.68
301.704	24.75
301.919	25.41
302.134	9.92
302.349	13.41
302.564	4.07
302.779	-3.02
302.994	6.49
303.209	22.56
303.423	16.18
303.638	20.86
303.853	19.98
304.068	11.66
304.283	15.83
304.497	14.29
304.712	16.17
304.927	11.43
305.142	23.54
305.356	28.24
305.571	34.48
305.786	29.29
306	62.12
306.215	52.6
306.43	25.38
306.644	32.65
306.859	38.26
307.074	11.06
307.288	14.74
307.503	27.8
307.717	9.5
307.932	18.32
308.147	11.87
308.361	16.31
308.576	-3.78
308.79	6.05
309.005	-3.95
309.219	14.27
309.434	13.56
309.648	32.33
309.863	33.77
310.077	40.38
310.292	45.04
310.506	29.88
310.72	19
310.935	28.72
311.149	35.09
311.364	23.05
311.578	25.69
311.792	26.16
312.007	11.19
312.221	-28.63
312.435	-3.21
312.649	15.44
312.864	14.88
313.078	12.85
313.292	-2.47
313.507	-13.51
313.721	-23.97
313.935	-32.77
314.149	-29.51
314.363	8.71
314.578	13.62
314.792	2.44
315.006	-1.58
315.22	27.44
315.434	28.33
315.648	26.32
315.862	37.34
316.077	44.88
316.291	26.99
316.505	0.51
316.719	3.23
316.933	-2.73
317.147	-5.36
317.361	5.25
317.575	10.39
317.789	13.54
318.003	9.26
318.217	26.24
318.431	10.56
318.645	14.22
318.859	10.89
319.073	23.4
319.287	13.49
319.5	23.75
319.714	25.71
319.928	28.21
320.142	23.09
320.356	34.01
320.57	14.84
320.784	22.05
320.997	20.74
321.211	28.85
321.425	11.93
321.639	26.3
321.853	23.62
322.066	12.46
322.28	-2.1
322.494	3.62
322.707	3.51
322.921	-1.03
323.135	13.24
323.349	15.1
323.562	13.03
323.776	12.02
323.989	23.4
324.203	4.59
324.417	-0.93
324.63	-3.7
324.844	-11.13
325.057	-43.52
325.271	-31.99
325.485	-22.9
325.698	-4.2
325.912	4.43
326.125	3.09
326.339	20.6
326.552	14.42
326.766	6.09
326.979	9.82
327.193	24.83
327.406	15.37
327.619	36.46
327.833	24.51
328.046	24.17
328.26	19.74
328.473	30.25
328.686	17.73
328.9	37.97
329.113	45.29
329.326	39.2
329.54	29.36
329.753	42.65
329.966	33.09
330.179	37.21
330.393	40.11
330.606	30.94
330.819	13.78
331.032	11.67
331.246	12.36
331.459	16.88
331.672	23.29
331.885	23.42
332.098	33.14
332.311	20.69
332.525	13.37
332.738	13.6
332.951	3.24
333.164	-7.33
333.377	-4.42
333.59	1.59
333.803	4.29
334.016	18.99
334.229	40.08
334.442	34.85
334.655	24.6
334.868	17.12
335.081	4.32
335.294	-1.2
335.507	7.02
335.72	10.06
335.933	13.92
336.146	13.43
336.359	21.05
336.572	18.52
336.785	23.59
336.997	21.47
337.21	37.62
337.423	-15.45
337.636	-5.7
337.849	-8.94
338.062	-2.64
338.274	15.25
338.487	15.61
338.7	-4.97
338.913	-0.25
339.125	-10.26
339.338	-27.45
339.551	-7.49
339.763	1.63
339.976	11.2
340.189	15.62
340.402	32.67
340.614	26.1
340.827	36.83
341.039	24.65
341.252	23.56
341.465	6.54
341.677	18.86
341.89	-4.87
342.102	5.21
342.315	13.07
342.527	29.16
342.74	7.29
342.952	9.37
343.165	8.27
343.377	5.67
343.59	-12.48
343.802	-7.56
344.015	21.28
344.227	15.03
344.44	15.37
344.652	25.62
344.864	35.96
345.077	31.3
345.289	46.29
345.502	58.26
345.714	58.54
345.926	57.65
346.139	39.68
346.351	27.74
346.563	31.96
346.775	15.61
346.988	23.85
347.2	23.14
347.412	26.01
347.624	17.08
347.837	25.66
348.049	15
348.261	17.3
348.473	9.04
348.685	-3.22
348.897	-5.01
349.11	3.87
349.322	-3.19
349.534	-4.97
349.746	0.52
349.958	-12.18
350.17	-15.23
350.382	-11.75
350.594	2.26
350.806	13.11
351.018	21.1
351.23	21.94
351.442	31.81
351.654	23.12
351.866	15.16
352.078	21.19
352.29	8.47
352.502	9.38
352.714	15.81
352.926	13.73
353.138	24.33
353.35	16.36
353.561	17.61
353.773	19.66
353.985	30.43
354.197	23.66
354.409	37.55
354.621	31.16
354.832	17.65
355.044	-4.68
355.256	-11.68
355.468	-25.03
355.679	5.45
355.891	9.64
356.103	14.14
356.314	2.9
356.526	-4.62
356.738	-29.84
356.949	-20.23
357.161	6.38
357.373	15.07
357.584	16.47
357.796	25.51
358.008	18.52
358.219	-3.22
358.431	-7.34
358.642	4.48
358.854	14.1
359.065	4.92
359.277	8.83
359.488	9.63
359.7	8.01
359.911	-16.66
360.123	9.39
360.334	4.32
360.546	7.57
360.757	9.66
360.969	22.33
361.18	17.92
361.391	30.06
361.603	27.64
361.814	32.73
362.025	36.52
362.237	33.97
362.448	37.56
362.659	26.53
362.871	7.5
363.082	-6.41
363.293	-17.09
363.504	-49.61
363.716	-28.38
363.927	8.21
364.138	14.51
364.349	8.15
364.56	20.6
364.772	32.32
364.983	11.13
365.194	5.89
365.405	6.69
365.616	12.1
365.827	-1.92
366.038	9.69
366.25	23.43
366.461	24.09
366.672	12.18
366.883	12.56
367.094	4.35
367.305	-8.5
367.516	-10.54
367.727	2.27
367.938	1.08
368.149	2.76
368.36	8.01
368.571	5.8
368.781	-3.41
368.992	-7.12
369.203	-15.45
369.414	-20.16
369.625	-12.24
369.836	11.41
370.047	14.13
370.258	30.33
370.468	20.76
370.679	17.73
370.89	5.51
371.101	10.26
371.312	-4.64
371.522	9.76
371.733	4.64
371.944	-11.09
372.155	3.22
372.365	5.77
372.576	-5.61
372.787	6.17
372.997	11.85
373.208	-3.25
373.419	3.81
373.629	5.82
373.84	2.13
374.05	2.12
374.261	-11.4
374.472	-5.43
374.682	-6.62
374.893	-15.4
375.103	-29.69
375.314	-11.21
375.524	-13.89
375.735	-7.91
375.945	-4.27
376.156	10.61
376.366	10.15
376.577	16.41
376.787	19.46
376.997	25.94
377.208	18.19
377.418	18.61
377.629	11.91
377.839	13.38
378.049	12.85
378.26	12.75
378.47	9.18
378.68	10.71
378.89	7.77
379.101	10.05
379.311	15.6
379.521	0.84
379.732	2.38
379.942	-1.72
380.152	-15.25
380.362	-13.5
380.572	12.88
380.783	15.4
380.993	28.84
381.203	33.77
381.413	38.2
381.623	30.21
381.833	25.53
382.043	5.36
382.253	9.36
382.463	10.46
382.674	7.36
382.884	10.97
383.094	20.98
383.304	22.26
383.514	20.43
383.724	15.28
383.934	7.86
384.144	8.15
384.353	3.89
384.563	3.63
384.773	15.57
384.983	16.96
385.193	14.61
385.403	11.01
385.613	6.12
385.823	1.28
386.033	1.23
386.242	-4.23
386.452	-0.99
386.662	1.09
386.872	4.23
387.082	8.23
387.291	10.56
387.501	10.89
387.711	11.52
387.921	6.6
388.13	6.28
388.34	7.69
388.55	5.17
388.759	3.38
388.969	6.66
389.179	4.4
389.388	3.41
389.598	3.22
389.807	-1.76
390.017	-5.3
390.227	-3.56
390.436	-0.03
390.646	-0.1
390.855	2.89
391.065	4.51
391.274	3.06
391.484	0.11
391.693	0.66
391.903	1.7
392.112	2.46
392.322	1.13
392.531	0.69
392.74	-0.11
392.95	-2.09
393.159	-3
393.369	-1.06
393.578	-0.03
393.787	0.23
393.997	2.71
394.206	1.97
394.415	1.64
394.625	0.88
394.834	0.49
395.043	0.77
395.252	3.62
395.462	4.03
395.671	4.99
395.88	6.35
396.089	5.39
396.298	4.32
396.508	4.35
396.717	4.04
396.926	3.44
397.135	3.06
397.344	2.52
397.553	2.58
397.762	3.49
397.971	2.75
398.181	3.51
398.39	2.98
398.599	3.1
398.808	2.53
399.017	3.76
399.226	3.84
399.435	4.3
399.644	4.45
399.853	4.38
400.062	3.76
400.27	3.23
400.479	3.24
400.688	3.21
400.897	3.24
401.106	3.35
401.315	3.6
401.524	3.94
401.733	3.48
401.941	3.7
402.15	3.6
402.359	3.44
402.568	3.48
402.777	3.86
402.985	3.4
403.194	3.38
403.403	3.65
403.612	3.31
403.82	3
404.029	3.24
404.238	3.36
404.446	3.39
404.655	3.42
404.864	3.55
405.072	3.46
405.281	3.3
405.489	3.08
405.698	3.13
405.906	3.13
406.115	3.04
406.324	3.04
406.532	3.1
406.741	3.06
406.949	3.06
407.158	3.24
407.366	3.32
407.574	3.26
407.783	3.3
407.991	3.16
408.2	3.23
408.408	3.14
408.617	2.99
408.825	2.83
409.033	2.78
409.242	2.66
409.45	2.64
409.658	2.8
409.867	2.94
410.075	3.09
410.283	2.94
410.491	2.86
410.7	2.75
410.908	2.72
411.116	2.73
411.324	2.79
411.533	2.86
411.741	2.87
411.949	2.96
412.157	2.88
412.365	2.9
412.573	2.94
412.781	3
412.99	2.94
413.198	2.92
413.406	2.92
413.614	3.04
413.822	3.08
414.03	3.01
414.238	3.07
414.446	3.08
414.654	2.81
414.862	2.67
415.07	2.7
415.278	2.78
415.486	2.54
415.694	2.6
415.902	2.74
416.109	2.71
416.317	2.59
416.525	2.83
416.733	2.86
416.941	2.82
417.149	2.62
417.357	2.52
417.564	2.47
417.772	2.55
417.98	2.5
418.188	2.53
418.395	2.44
418.603	2.39
418.811	2.21
419.019	2.29
419.226	2.53
419.434	2.72
419.642	2.57
419.849	2.64
420.057	2.56
420.265	2.44
420.472	2.42
420.68	2.65
420.887	2.64
421.095	2.61
421.302	2.68
421.51	2.64
421.717	2.63
421.925	2.62
422.132	2.56
422.34	2.35
422.547	2.43
422.755	2.35
422.962	2.33
423.17	2.26
423.377	2.44
423.585	2.31
423.792	2.28
423.999	2.32
424.207	2.39
424.414	2.16
424.621	2.2
424.829	2.38
425.036	2.41
425.243	2.42
425.451	2.56
425.658	2.73
425.865	2.63
426.072	2.58
426.28	2.82
426.487	2.78
426.694	2.54
426.901	2.54
427.108	2.57
427.315	2.39
427.523	2.38
427.73	2.38
427.937	2.19
428.144	2.16
428.351	2.2
428.558	2.35
428.765	2.38
428.972	2.6
429.179	2.51
429.386	2.48
429.593	2.34
429.8	2.29
430.007	2.31
430.214	2.35
430.421	2.35
430.628	2.41
430.835	2.49
431.042	2.38
431.249	2.52
431.456	2.45
431.662	2.51
431.869	2.63
432.076	2.68
432.283	2.79
432.49	2.86
432.697	2.88
432.903	2.78
433.11	2.84
433.317	2.71
433.524	2.75
433.73	2.52
433.937	2.71
434.144	2.61
434.35	2.58
434.557	2.57
434.764	2.75
434.97	2.5
435.177	2.62
435.384	2.74
435.59	2.75
435.797	2.79
436.003	2.91
436.21	2.85
436.416	2.78
436.623	2.85
436.829	2.82
437.036	2.84
437.242	2.92
437.449	2.99
437.655	3.08
437.862	3.13
438.068	3.11
438.275	3.19
438.481	3.27
438.687	3.1
438.894	3.18
439.1	3.18
439.307	3.28
439.513	3.2
439.719	3.32
439.926	3.25
440.132	3.39
440.338	3.27
440.544	3.28
440.751	3.2
440.957	3.21
441.163	3.05
441.369	3.1
441.575	3.11
441.782	3.28
441.988	3.3
442.194	3.34
442.4	3.29
442.606	3.41
442.812	3.31
443.018	3.37
443.224	3.53
443.431	3.49
443.637	3.39
443.843	3.42
444.049	3.5
444.255	3.41
444.461	3.36
444.667	3.32
444.873	3.3
445.079	3.2
445.284	3.24
445.49	3.33
445.696	3.42
445.902	3.39
446.108	3.47
446.314	3.43
446.52	3.53
446.726	3.57
446.931	3.66
447.137	3.64
447.343	3.78
447.549	3.8
447.755	3.78
447.96	3.77
448.166	3.83
448.372	3.77
448.578	3.67
448.783	3.65
448.989	3.65
449.195	3.6
449.4	3.64
449.606	3.63
449.812	3.64
450.017	3.7
450.223	3.64
450.428	3.61
450.634	3.75
450.84	3.71
451.045	3.74
451.251	3.9
451.456	3.94
451.662	3.88
451.867	3.97
452.073	4
452.278	3.95
452.483	3.98
452.689	3.94
452.894	3.97
453.1	3.92
453.305	3.97
453.51	3.99
453.716	3.97
453.921	4.03
454.127	4.01
454.332	3.99
454.537	3.91
454.742	3.94
454.948	3.86
455.153	3.83
455.358	3.87
455.563	3.98
455.769	4.02
455.974	3.97
456.179	3.98
456.384	3.94
456.589	3.79
456.795	3.79
457	3.83
457.205	3.83
457.41	3.8
457.615	3.84
457.82	3.92
458.025	3.96
458.23	4.01
458.435	4.08
458.64	4.12
458.845	4.11
459.05	4.17
459.255	4.16
459.46	4.17
459.665	4.22
459.87	4.24
460.075	4.28
460.28	4.39
460.485	4.49
460.69	4.46
460.895	4.55
461.099	4.4
461.304	4.35
461.509	4.28
461.714	4.37
461.919	4.21
462.123	4.35
462.328	4.25
462.533	4.17
462.738	4.18
462.942	4.23
463.147	4.2
463.352	4.31
463.556	4.46
463.761	4.42
463.966	4.47
464.17	4.52
464.375	4.67
464.58	4.59
464.784	4.65
464.989	4.72
465.193	4.67
465.398	4.58
465.602	4.81
465.807	4.83
466.011	4.78
466.216	4.73
466.42	4.87
466.625	4.82
466.829	4.83
467.034	4.93
467.238	5.08
467.443	5.04
467.647	5.01
467.851	5.02
468.056	5.03
468.26	4.97
468.464	4.97
468.669	5
468.873	4.96
469.077	4.97
469.282	5.07
469.486	5.1
469.69	5.12
469.894	5.19
470.099	5.2
470.303	5.11
470.507	5.06
470.711	5.02
470.915	5.14
471.119	5.18
471.324	5.28
471.528	5.36
471.732	5.44
471.936	5.38
472.14	5.33
472.344	5.42
472.548	5.48
472.752	5.47
472.956	5.5
473.16	5.55
473.364	5.5
473.568	5.36
473.772	5.34
473.976	5.36
474.18	5.39
474.384	5.47
474.588	5.52
474.792	5.53
474.995	5.64
475.199	5.57
475.403	5.52
475.607	5.59
475.811	5.6
476.015	5.49
476.218	5.55
476.422	5.58
476.626	5.56
476.83	5.69
477.033	5.76
477.237	5.81
477.441	5.77
477.644	5.79
477.848	5.78
478.052	5.71
478.255	5.77
478.459	5.79
478.663	5.98
478.866	5.97
479.07	5.96
479.273	5.98
479.477	6
479.681	5.88
479.884	5.88
480.088	5.97
480.291	5.93
480.495	6.01
480.698	6.01
480.901	5.97
481.105	6.01
481.308	6.01
481.512	6
481.715	6.06
481.919	6.14
482.122	6.12
482.325	6.19
482.529	6.17
482.732	6.06
482.935	5.98
483.138	5.98
483.342	5.92
483.545	6.03
483.748	6.13
483.952	6.22
484.155	6.31
484.358	6.26
484.561	6.12
484.764	6.09
484.967	6.08
485.171	6.08
485.374	6.12
485.577	6.15
485.78	6.15
485.983	6.09
486.186	6.03
486.389	6.08
486.592	6.16
486.795	6.2
486.998	6.28
487.201	6.34
487.404	6.38
487.607	6.39
487.81	6.36
488.013	6.41
488.216	6.3
488.419	6.23
488.622	6.19
488.825	6.2
489.028	6.16
489.231	6.24
489.433	6.26
489.636	6.23
489.839	6.25
490.042	6.29
490.245	6.25
490.447	6.2
490.65	6.25
490.853	6.29
491.056	6.3
491.258	6.34
491.461	6.42
491.664	6.45
491.866	6.34
492.069	6.38
492.272	6.34
492.474	6.38
492.677	6.38
492.879	6.44
493.082	6.41
493.285	6.52
493.487	6.45
493.69	6.43
493.892	6.47
494.095	6.47
494.297	6.52
494.5	6.62
494.702	6.68
494.905	6.76
495.107	6.83
495.309	6.83
495.512	6.86
495.714	6.88
495.917	6.92
496.119	6.94
496.321	6.91
496.524	6.91
496.726	6.9
496.928	6.93
497.13	6.94
497.333	6.95
497.535	7.03
497.737	7.1
497.939	7.04
498.142	7.01
498.344	7.1
498.546	7.09
498.748	7.18
498.95	7.27
499.152	7.34
499.355	7.32
499.557	7.36
499.759	7.38
499.961	7.38
500.163	7.46
500.365	7.53
500.567	7.56
500.769	7.55
500.971	7.57
501.173	7.5
501.375	7.58
501.577	7.58
501.779	7.56
501.981	7.6
502.183	7.62
502.385	7.57
502.587	7.61
502.788	7.68
502.99	7.71
503.192	7.77
503.394	7.72
503.596	7.67
503.798	7.64
503.999	7.61
504.201	7.53
504.403	7.66
504.605	7.77
504.806	7.85
505.008	7.93
505.21	7.99
505.411	7.95
505.613	7.91
505.815	7.86
506.016	7.89
506.218	7.96
506.42	7.93
506.621	7.93
506.823	7.9
507.024	7.87
507.226	7.81
507.427	7.84
507.629	7.88
507.83	7.96
508.032	7.93
508.233	7.97
508.435	7.96
508.636	7.9
508.838	7.8
509.039	7.8
509.24	7.81
509.442	7.79
509.643	7.75
509.845	7.79
510.046	7.85
510.247	7.89
510.448	7.9
510.65	7.97
510.851	8.01
511.052	7.97
511.254	7.98
511.455	7.95
511.656	7.86
511.857	7.82
512.058	7.8
512.26	7.72
512.461	7.75
512.662	7.83
512.863	7.77
513.064	7.73
513.265	7.71
513.466	7.71
513.667	7.67
513.868	7.69
514.069	7.66
514.27	7.73
514.471	7.76
514.672	7.79
514.873	7.8
515.074	7.88
515.275	7.83
515.476	7.81
515.677	7.78
515.878	7.85
516.079	7.82
516.28	7.86
516.481	7.87
516.682	7.83
516.882	7.73
517.083	7.7
517.284	7.68
517.485	7.66
517.686	7.76
517.886	7.79
518.087	7.82
518.288	7.78
518.488	7.78
518.689	7.71
518.89	7.68
519.091	7.73
519.291	7.74
519.492	7.76
519.692	7.74
519.893	7.79
520.094	7.73
520.294	7.72
520.495	7.65
520.695	7.73
520.896	7.72
521.096	7.77
521.297	7.8
521.497	7.83
521.698	7.8
521.898	7.83
522.099	7.81
522.299	7.76
522.499	7.81
522.7	7.86
522.9	7.82
523.101	7.75
523.301	7.84
523.501	7.81
523.702	7.76
523.902	7.8
524.102	7.91
524.302	7.91
524.503	7.93
524.703	7.93
524.903	7.9
525.103	7.86
525.304	7.82
525.504	7.84
525.704	7.87
525.904	7.82
526.104	7.83
526.304	7.88
526.504	7.84
526.705	7.85
526.905	7.94
527.105	7.89
527.305	7.88
527.505	7.83
527.705	7.82
527.905	7.83
528.105	7.88
528.305	7.83
528.505	7.85
528.705	7.87
528.905	7.86
529.105	7.84
529.304	7.87
529.504	7.86
529.704	7.86
529.904	7.86
530.104	7.93
530.304	8.01
530.503	8.08
530.703	8.11
530.903	8.12
531.103	8.15
531.303	8.12
531.502	8.12
531.702	8.18
531.902	8.2
532.101	8.13
532.301	8.12
532.501	8.16
532.7	8.11
532.9	8.14
533.1	8.19
533.299	8.25
533.499	8.24
533.698	8.2
533.898	8.17
534.097	8.14
534.297	8.1
534.496	8.07
534.696	8.08
534.895	8.12
535.095	8.18
535.294	8.25
535.494	8.3
535.693	8.33
535.892	8.34
536.092	8.28
536.291	8.27
536.491	8.32
536.69	8.4
536.889	8.32
537.088	8.36
537.288	8.35
537.487	8.32
537.686	8.3
537.886	8.39
538.085	8.41
538.284	8.45
538.483	8.45
538.682	8.43
538.882	8.45
539.081	8.5
539.28	8.46
539.479	8.46
539.678	8.49
539.877	8.48
540.076	8.43
540.275	8.46
540.474	8.47
540.673	8.54
540.872	8.56
541.071	8.63
541.27	8.62
541.469	8.65
541.668	8.59
541.867	8.64
542.066	8.65
542.265	8.8
542.464	8.85
542.663	8.95
542.862	8.94
543.06	9
543.259	8.99
543.458	9.01
543.657	9.01
543.856	9.08
544.054	9.06
544.253	9.07
544.452	9.13
544.651	9.11
544.849	9.07
545.048	9.12
545.247	9.18
545.445	9.13
545.644	9.22
545.843	9.26
546.041	9.27
546.24	9.17
546.438	9.25
546.637	9.25
546.836	9.35
547.034	9.45
547.233	9.55
547.431	9.56
547.63	9.63
547.828	9.61
548.027	9.54
548.225	9.56
548.423	9.65
548.622	9.68
548.82	9.72
549.019	9.78
549.217	9.87
549.415	9.89
549.614	10.02
549.812	10.07
550.01	10.13
550.209	10.19
550.407	10.26
550.605	10.19
550.803	10.23
551.002	10.32
551.2	10.31
551.398	10.4
551.596	10.49
551.794	10.56
551.993	10.61
552.191	10.68
552.389	10.68
552.587	10.78
552.785	10.77
552.983	10.82
553.181	10.89
553.379	10.92
553.577	10.92
553.775	11.07
553.973	11.17
554.171	11.19
554.369	11.29
554.567	11.36
554.765	11.37
554.963	11.38
555.161	11.46
555.359	11.49
555.557	11.55
555.755	11.66
555.952	11.8
556.15	11.88
556.348	11.99
556.546	12.16
556.744	12.17
556.941	12.13
557.139	12.21
557.337	12.35
557.535	12.32
557.732	12.41
557.93	12.58
558.128	12.7
558.325	12.65
558.523	12.69
558.721	12.81
558.918	12.89
559.116	12.94
559.313	13.07
559.511	13.25
559.708	13.31
559.906	13.45
560.104	13.5
560.301	13.62
560.498	13.66
560.696	13.74
560.893	13.73
561.091	13.83
561.288	13.94
561.486	13.99
561.683	14.08
561.88	14.21
562.078	14.34
562.275	14.41
562.473	14.52
562.67	14.61
562.867	14.7
563.064	14.79
563.262	14.78
563.459	14.93
563.656	14.99
563.853	15.01
564.051	15.1
564.248	15.26
564.445	15.3
564.642	15.4
564.839	15.59
565.036	15.69
565.234	15.74
565.431	15.86
565.628	15.95
565.825	15.99
566.022	16.05
566.219	16.14
566.416	16.2
566.613	16.24
566.81	16.39
567.007	16.41
567.204	16.5
567.401	16.59
567.598	16.74
567.795	16.76
567.991	16.9
568.188	16.99
568.385	17.09
568.582	17.18
568.779	17.28
568.976	17.29
569.172	17.4
569.369	17.4
569.566	17.46
569.763	17.43
569.96	17.5
570.156	17.55
570.353	17.59
570.55	17.69
570.746	17.83
570.943	17.9
571.14	18
571.336	18.08
571.533	18.03
571.729	18.08
571.926	18.14
572.123	18.12
572.319	18.22
572.516	18.28
572.712	18.26
572.909	18.27
573.105	18.34
573.302	18.29
573.498	18.23
573.695	18.35
573.891	18.36
574.087	18.23
574.284	18.27
574.48	18.37
574.677	18.36
574.873	18.41
575.069	18.52
575.266	18.59
575.462	18.67
575.658	18.7
575.854	18.78
576.051	18.87
576.247	18.74
576.443	18.76
576.639	18.74
576.835	18.67
577.032	18.57
577.228	18.73
577.424	18.68
577.62	18.65
577.816	18.71
578.012	18.78
578.208	18.77
578.404	18.78
578.6	18.9
578.796	18.88
578.993	18.94
579.189	19.02
579.384	19.13
579.58	19.06
579.776	19.1
579.972	19.13
580.168	19.01
580.364	19.02
580.56	19.01
580.756	19.02
580.952	18.97
581.148	19.01
581.343	18.93
581.539	18.97
581.735	18.94
581.931	18.91
582.127	18.89
582.322	18.94
582.518	18.85
582.714	18.89
582.909	18.92
583.105	18.86
583.301	18.89
583.496	18.88
583.692	18.76
583.888	18.72
584.083	18.82
584.279	18.76
584.474	18.83
584.67	18.93
584.866	18.94
585.061	18.91
585.257	18.91
585.452	18.89
585.648	18.83
585.843	18.81
586.039	18.74
586.234	18.77
586.429	18.74
586.625	18.83
586.82	18.93
587.015	19.01
587.211	19.02
587.406	18.99
587.601	19.01
587.797	18.89
587.992	18.88
588.187	18.76
588.383	18.86
588.578	18.9
588.773	18.98
588.968	19.08
589.163	19.29
589.359	19.25
589.554	19.15
589.749	19.16
589.944	19.16
590.139	19.1
590.334	19.23
590.529	19.35
590.724	19.53
590.919	19.6
591.114	19.69
591.309	19.71
591.504	19.68
591.699	19.59
591.894	19.61
592.089	19.64
592.284	19.64
592.479	19.73
592.674	19.77
592.869	19.72
593.064	19.83
593.259	19.94
593.454	19.95
593.648	20.01
593.843	20.11
594.038	20.02
594.233	20.01
594.428	20.12
594.622	20.18
594.817	20.27
595.012	20.38
595.206	20.47
595.401	20.53
595.596	20.59
595.79	20.56
595.985	20.63
596.18	20.75
596.374	20.87
596.569	21.03
596.763	21.2
596.958	21.29
597.153	21.27
597.347	21.2
597.542	21.23
597.736	21.22
597.931	21.25
598.125	21.4
598.319	21.54
598.514	21.54
598.708	21.68
598.903	21.72
599.097	21.68
599.291	21.66
599.486	21.8
599.68	21.84
599.874	21.92
600.069	22
600.263	22.13
600.457	22.17
600.651	22.21
600.846	22.26
601.04	22.29
601.234	22.31
601.428	22.29
601.622	22.27
601.817	22.29
602.011	22.34
602.205	22.41
602.399	22.5
602.593	22.61
602.787	22.63
602.981	22.6
603.175	22.61
603.369	22.53
603.563	22.5
603.757	22.57
603.951	22.59
604.145	22.61
604.339	22.64
604.533	22.64
604.727	22.61
604.921	22.58
605.115	22.64
605.309	22.59
605.502	22.61
605.696	22.53
605.89	22.66
606.084	22.54
606.278	22.62
606.471	22.62
606.665	22.65
606.859	22.43
607.053	22.3
607.246	22.21
607.44	22.05
607.634	21.95
607.827	22.01
608.021	22
608.214	21.94
608.408	21.95
608.602	21.82
608.795	21.75
608.989	21.68
609.182	21.76
609.376	21.66
609.569	21.79
609.763	21.74
609.956	21.8
610.15	21.62
610.343	21.6
610.537	21.43
610.73	21.23
610.923	21.13
611.117	21.17
611.31	21.03
611.504	21.01
611.697	21.05
611.89	21.01
612.083	20.85
612.277	20.91
612.47	20.84
612.663	20.85
612.856	20.69
613.05	20.64
613.243	20.54
613.436	20.52
613.629	20.38
613.822	20.38
614.015	20.36
614.209	20.25
614.402	20.08
614.595	20.16
614.788	20.07
614.981	19.95
615.174	19.89
615.367	19.9
615.56	19.75
615.753	19.74
615.946	19.68
616.139	19.62
616.332	19.59
616.525	19.51
616.718	19.47
616.911	19.47
617.103	19.5
617.296	19.52
617.489	19.5
617.682	19.43
617.875	19.35
618.067	19.22
618.26	19.17
618.453	19.05
618.646	18.99
618.838	18.92
619.031	18.87
619.224	18.76
619.417	18.84
619.609	18.86
619.802	18.88
619.994	19.02
620.187	19
620.38	18.92
620.572	18.8
620.765	18.74
620.957	18.57
621.15	18.49
621.342	18.53
621.535	18.52
621.727	18.47
621.92	18.49
622.112	18.49
622.305	18.46
622.497	18.4
622.69	18.41
622.882	18.41
623.074	18.41
623.267	18.37
623.459	18.39
623.651	18.38
623.844	18.38
624.036	18.4
624.228	18.32
624.42	18.23
624.613	18.2
624.805	18.2
624.997	18.11
625.189	18.17
625.381	18.24
625.574	18.26
625.766	18.14
625.958	18.19
626.15	18.11
626.342	18.06
626.534	18
626.726	18.05
626.918	17.99
627.11	17.97
627.302	17.96
627.494	17.84
627.686	17.72
627.878	17.75
628.07	17.71
628.262	17.71
628.454	17.74
628.646	17.78
628.838	17.79
629.029	17.76
629.221	17.68
629.413	17.61
629.605	17.52
629.797	17.44
629.989	17.46
630.18	17.59
630.372	17.69
630.564	17.66
630.755	17.58
630.947	17.59
631.139	17.47
631.33	17.28
631.522	17.27
631.714	17.26
631.905	17.19
632.097	17.1
632.289	17.15
632.48	17.19
632.672	17.17
632.863	17.09
633.055	17.08
633.246	17.1
633.438	17.02
633.629	17.08
633.821	17.12
634.012	17.13
634.203	17.17
634.395	17.18
634.586	17.16
634.777	17.15
634.969	17.19
635.16	17.12
635.351	17.05
635.543	16.95
635.734	16.86
635.925	16.79
636.117	16.83
636.308	16.87
636.499	16.89
636.69	16.9
636.881	17
637.073	17.02
637.264	17.03
637.455	17.1
637.646	17.17
637.837	17.07
638.028	16.96
638.219	16.96
638.41	16.96
638.601	16.95
638.792	16.97
638.983	16.97
639.174	16.98
639.365	16.92
639.556	16.85
639.747	16.85
639.938	16.96
640.129	16.95
640.32	16.99
640.511	16.97
640.701	16.99
640.892	16.87
641.083	16.83
641.274	16.78
641.465	16.76
641.655	16.71
641.846	16.72
642.037	16.72
642.228	16.64
642.418	16.61
642.609	16.57
642.8	16.51
642.99	16.5
643.181	16.55
643.372	16.58
643.562	16.57
643.753	16.53
643.943	16.39
644.134	16.3
644.324	16.32
644.515	16.32
644.705	16.36
644.896	16.51
645.086	16.56
645.277	16.55
645.467	16.5
645.658	16.41
645.848	16.38
646.038	16.35
646.229	16.38
646.419	16.32
646.61	16.41
646.8	16.33
646.99	16.27
647.18	16.11
647.371	16.1
647.561	16
647.751	16.05
647.941	16
648.132	15.97
648.322	15.96
648.512	15.99
648.702	15.91
648.892	15.99
649.082	16.09
649.272	16.05
649.462	16.02
649.653	15.95
649.843	15.85
650.033	15.79
650.223	15.73
650.413	15.66
650.603	15.7
650.793	15.68
650.983	15.62
651.172	15.63
651.362	15.54
651.552	15.48
651.742	15.45
651.932	15.37
652.122	15.36
652.312	15.36
652.502	15.22
652.691	15.1
652.881	14.99
653.071	14.95
653.261	14.9
653.45	14.89
653.64	14.82
653.83	14.8
654.019	14.67
654.209	14.61
654.399	14.46
654.588	14.46
654.778	14.31
654.968	14.23
655.157	14.12
655.347	13.99
655.536	13.87
655.726	13.65
655.915	13.47
656.105	13.33
656.294	13.16
656.484	12.99
656.673	13.05
656.863	12.96
657.052	12.77
657.241	12.78
657.431	12.65
657.62	12.51
657.809	12.23
657.999	12.21
658.188	12
658.377	11.82
658.567	11.72
658.756	11.7
658.945	11.49
659.134	11.36
659.324	11.23
659.513	11.01
659.702	10.83
659.891	10.75
660.08	10.7
660.269	10.58
660.458	10.47
660.648	10.35
660.837	10.21
661.026	9.94
661.215	9.79
661.404	9.66
661.593	9.64
661.782	9.44
661.971	9.43
662.16	9.25
662.349	9.06
662.538	8.85
662.726	8.72
662.915	8.67
663.104	8.65
663.293	8.75
663.482	8.68
663.671	8.6
663.86	8.5
664.048	8.4
664.237	8.15
664.426	8.12
664.615	8.08
664.803	7.97
664.992	7.92
665.181	7.96
665.369	7.75
665.558	7.72
665.747	7.69
665.935	7.64
666.124	7.58
666.312	7.66
666.501	7.63
666.69	7.57
666.878	7.58
667.067	7.48
667.255	7.37
667.444	7.37
667.632	7.32
667.82	7.28
668.009	7.15
668.197	7.12
668.386	7.02
668.574	6.95
668.762	6.86
668.951	6.95
669.139	6.94
669.327	6.92
669.516	6.98
669.704	7.14
669.892	7.08
670.08	7.1
670.269	7.18
670.457	7.14
670.645	7.04
670.833	7.16
671.021	7.27
671.21	7.17
671.398	7.26
671.586	7.3
671.774	7.29
671.962	7.23
672.15	7.42
672.338	7.43
672.526	7.42
672.714	7.46
672.902	7.49
673.09	7.45
673.278	7.4
673.466	7.52
673.654	7.59
673.842	7.6
674.03	7.66
674.218	7.81
674.405	7.79
674.593	7.86
674.781	7.92
674.969	8.03
675.157	8.06
675.344	8.13
675.532	8.05
675.72	8.05
675.908	7.98
676.095	7.92
676.283	8.02
676.471	8.09
676.658	8.33
676.846	8.43
677.033	8.43
677.221	8.44
677.409	8.56
677.596	8.47
677.784	8.52
677.971	8.67
678.159	8.73
678.346	8.76
678.534	8.84
678.721	8.96
678.909	9.14
679.096	9.21
679.283	9.33
679.471	9.47
679.658	9.42
679.846	9.42
680.033	9.75
680.22	9.78
680.408	9.72
680.595	9.89
680.782	9.98
680.969	9.96
681.157	10.12
681.344	10.32
681.531	10.46
681.718	10.53
681.905	10.5
682.093	10.68
682.28	10.88
682.467	11.08
682.654	11.35
682.841	11.48
683.028	11.44
683.215	11.63
683.402	11.68
683.589	11.82
683.776	12.02
683.963	12.23
684.15	12.39
684.337	12.67
684.524	12.88
684.711	13.23
684.898	13.41
685.085	13.46
685.271	13.79
685.458	13.87
685.645	13.84
685.832	14.14
686.019	14.44
686.205	14.61
686.392	14.96
686.579	15.4
686.766	15.68
686.952	15.99
687.139	16.32
687.326	16.65
687.512	16.92
687.699	17.25
687.886	17.7
688.072	18.03
688.259	18.41
688.445	18.85
688.632	19.22
688.818	19.82
689.005	20.11
689.191	20.59
689.378	21.19
689.564	21.8
689.751	22.02
689.937	22.62
690.124	23.04
690.31	23.27
690.496	23.79
690.683	24.44
690.869	24.85
691.055	25.35
691.242	25.98
691.428	26.47
691.614	26.9
691.8	27.66
691.987	28.56
692.173	29.19
692.359	29.92
692.545	30.73
692.731	31.28
692.918	31.61
693.104	32.25
693.29	32.83
693.476	33.41
693.662	33.99
693.848	34.64
694.034	35.41
694.22	35.98
694.406	36.49
694.592	37.13
694.778	37.75
694.964	38.1
695.15	38.6
695.336	39.17
695.522	40
695.708	40.79
695.894	41.45
696.08	42.25
696.265	42.97
696.451	43.34
696.637	44.03
696.823	44.75
697.009	45.4
697.194	46.05
697.38	46.65
697.566	46.85
697.751	47.43
697.937	47.97
698.123	48.43
698.308	48.8
698.494	49.76
698.68	50.25
698.865	50.55
699.051	50.87
699.236	51.48
699.422	51.63
699.607	52.06
699.793	52.85
699.978	53.34
700.164	53.78
700.349	54.28
700.535	54.61
700.72	54.79
700.906	55.31
701.091	56.02
701.276	56.32
701.462	56.57
701.647	56.94
701.832	57.39
702.018	57.68
702.203	58.35
702.388	58.92
702.573	59.42
702.759	59.84
702.944	60.04
703.129	60.01
703.314	60.11
703.499	60.33
703.684	60.7
703.87	61.5
704.055	62.09
704.24	62.75
704.425	63.2
704.61	63.26
704.795	63.14
704.98	63.39
705.165	63.78
705.35	63.77
705.535	64.05
705.72	63.99
705.905	64.51
706.09	64.98
706.275	65
706.459	65.49
706.644	65.9
706.829	65.7
707.014	65.49
707.199	66.34
707.384	66.18
707.568	66.45
707.753	67.1
707.938	67.51
708.123	67.77
708.307	68.39
708.492	68.76
708.677	68.5
708.861	68.42
709.046	68.06
709.231	67.8
709.415	67.7
709.6	67.84
709.784	68.03
709.969	68.76
710.153	68.88
710.338	69.31
710.522	69.82
710.707	69.93
710.891	69.5
711.076	69.78
711.26	69.86
711.445	69.84
711.629	70.03
711.813	70.43
711.998	70.59
712.182	70.63
712.366	70.97
712.551	70.88
712.735	70.8
712.919	71.04
713.103	71.2
713.288	70.91
713.472	71.56
713.656	71.52
713.84	71.7
714.024	71.81
714.208	71.73
714.393	71.5
714.577	72.11
714.761	72.05
714.945	72.35
715.129	72.71
715.313	72.72
715.497	72.59
715.681	72.66
715.865	72.46
716.049	72.33
716.233	72.32
716.417	72.13
716.601	72.17
716.785	72.18
716.968	72.16
717.152	72.44
717.336	72.76
717.52	73.09
717.704	73.31
717.888	73.68
718.071	73.47
718.255	73.38
718.439	73.15
718.622	73.18
718.806	73.13
718.99	73.3
719.174	73.66
719.357	73.88
719.541	73.9
719.724	73.64
719.908	73.65
720.092	73.51
720.275	73.25
720.459	73.31
720.642	73.91
720.826	73.59
721.009	73.37
721.193	73.13
721.376	73.14
721.559	73.38
721.743	74.13
721.926	74.93
722.11	75.55
722.293	76.02
722.476	75.51
722.66	76.2
722.843	75.34
723.026	75.81
723.21	75.38
723.393	76.14
723.576	75.49
723.759	75.89
723.942	75.34
724.126	75.05
724.309	74.77
724.492	74.65
724.675	74.9
724.858	75.14
725.041	75.45
725.224	75.57
725.407	75.69
725.59	75.64
725.774	75.5
725.957	75.99
726.14	75.64
726.322	76.33
726.505	76.49
726.688	76.57
726.871	76.18
727.054	76.46
727.237	75.75
727.42	75.51
727.603	75.55
727.786	75.82
727.968	75.91
728.151	76.54
728.334	77.02
728.517	77.55
728.699	77.89
728.882	78.33
729.065	77.44
729.248	77.31
729.43	76.86
729.613	76.41
729.796	76.1
729.978	76.64
730.161	76.78
730.343	76.99
730.526	77.02
730.708	77.4
730.891	77.89
731.073	78.1
731.256	78.35
731.438	79.36
731.621	78.94
731.803	78.5
731.986	78.59
732.168	79
732.35	78.39
732.533	78.52
732.715	79.12
732.898	78.58
733.08	77.93
733.262	78.4
733.444	78.6
733.627	78.79
733.809	79.56
733.991	79.72
734.173	79.42
734.355	79.71
734.538	79.35
734.72	78.89
734.902	79.76
735.084	80.11
735.266	80.33
735.448	80.48
735.63	80.93
735.812	80.49
735.994	79.86
736.176	79.41
736.358	79.48
736.54	79.85
736.722	79.98
736.904	80.28
737.086	80.46
737.268	81.67
737.45	81.56
737.632	81.73
737.814	81.6
737.995	81.88
738.177	80.79
738.359	80.47
738.541	80.2
738.723	80.49
738.904	80.11
739.086	79.93
739.268	79.89
739.449	79.94
739.631	80.47
739.813	80.11
739.994	79.96
740.176	80.32
740.358	80.45
740.539	80.05
740.721	80.7
740.902	80.66
741.084	80.56
741.265	80.61
741.447	80.91
741.628	80.75
741.81	81.37
741.991	81.57
742.172	81.06
742.354	81.34
742.535	80.86
742.717	79.94
742.898	79.74
743.079	81.11
743.261	80.2
743.442	80.37
743.623	81
743.804	81.27
743.986	79.89
744.167	80.1
744.348	80.12
744.529	79.51
744.71	79.72
744.891	79.71
745.073	80
745.254	79.97
745.435	80.19
745.616	79.93
745.797	80.35
745.978	79.82
746.159	79.41
746.34	80.27
746.521	79.85
746.702	80.12
746.883	80.27
747.064	81.5
747.245	80.85
747.426	81.2
747.606	81.31
747.787	82.21
747.968	81.73
748.149	81.03
748.33	80.63
748.51	79.9
748.691	79.58
748.872	79.88
749.053	80.22
749.233	80.12
749.414	80.91
749.595	80.4
749.775	79.52
749.956	79.9
750.137	79.58
750.317	77.92
750.498	78.45
750.678	79.73
750.859	80.33
751.04	81.43
751.22	81.44
751.4	81.44
751.581	81.62
751.761	82.05
751.942	82.04
752.122	82.8
752.303	81.72
752.483	79.91
752.663	79.27
752.844	78.77
753.024	78.98
753.204	80.18
753.385	80.71
753.565	80.36
753.745	79.65
753.925	79.4
754.106	79.44
754.286	79.01
754.466	79.06
754.646	79.16
754.826	80.34
755.006	79.85
755.187	81.74
755.367	80.86
755.547	82.27
755.727	81.16
755.907	80.89
756.087	80.03
756.267	79.62
756.447	79.32
756.627	79.87
756.807	80.86
756.987	81.14
757.167	83.12
757.346	81.71
757.526	82.17
757.706	81.57
757.886	80.29
758.066	79.28
758.246	78.86
758.425	77
758.605	76.45
758.785	77.45
758.965	77.76
759.144	77.36
759.324	79.47
759.504	79.91
759.683	78.66
759.863	78.52
760.043	78.69
760.222	77.69
760.402	76.59
760.581	77.02
760.761	77.01
760.94	78.58
761.12	77.37
761.299	79.82
761.479	79.49
761.658	78.97
761.838	78.53
762.017	79.17
762.197	76.65
762.376	77.75
762.555	78.46
762.735	77.6
762.914	77.56
763.093	78.53
763.273	77.55
763.452	76.96
763.631	77.74
763.81	77.37
763.99	76.73
764.169	77.36
764.348	77.23
764.527	76.52
764.706	76.91
764.885	77.27
765.064	79.13
765.243	78.45
765.423	79.63
765.602	80.7
765.781	80.82
765.96	78.8
766.139	79.36
766.318	79.27
766.497	77.75
766.676	76.86
766.854	77.41
767.033	77.87
767.212	77.59
767.391	78.56
767.57	81.06
767.749	79.78
767.928	80.72
768.106	80
768.285	79.29
768.464	77.32
768.643	75.48
768.821	73.56
769	73.9
769.179	73.6
769.357	73.7
769.536	75.4
769.715	74.14
769.893	75.46
770.072	75.29
770.25	73.39
770.429	74.02
770.607	76.21
770.786	75.29
770.964	75.36
771.143	77.33
771.321	75.13
771.5	76.34
771.678	75.34
771.857	76.39
772.035	76.19
772.213	77.64
772.392	74.89
772.57	74.45
772.748	72.57
772.927	72.37
773.105	73.92
773.283	75.27
773.461	76.8
773.64	78.85
773.818	79.74
773.996	79.3
774.174	79.92
774.352	77.79
774.531	76.27
774.709	77.13
774.887	74.31
775.065	74.28
775.243	75.26
775.421	76.75
775.599	75.69
775.777	77.29
775.955	76.53
776.133	77.63
776.311	74.86
776.489	74.78
776.667	74.36
776.844	75.32
777.022	73.92
777.2	75.21
777.378	73.24
777.556	74.8
777.734	73.31
777.911	72.07
778.089	72.48
778.267	74.22
778.445	74.79
778.622	74.27
778.8	74.7
778.978	75.89
779.155	75.82
779.333	75.94
779.511	74.98
779.688	76.2
779.866	75.58
780.043	77.14
780.221	74.62
780.398	74.18
780.576	74.77
780.753	74.25
780.931	73.76
781.108	75.08
781.286	76.19
781.463	76.17
781.64	75.78
781.818	75.7
781.995	73.94
782.172	74.05
782.35	73.87
782.527	74.3
782.704	70.51
782.882	70.4
783.059	70.74
783.236	71.11
783.413	70.65
783.59	72.22
783.768	73.37
783.945	73.5
784.122	73.24
784.299	72.79
784.476	70.8
784.653	69.42
784.83	69.58
785.007	67.53
785.184	67.03
785.361	70.24
785.538	70.67
785.715	72.22
785.892	71.55
786.069	72.51
786.246	71.65
786.423	75.51
786.6	73.25
786.776	74.41
786.953	72.83
787.13	73.67
787.307	71.79
787.484	69.17
787.66	69.47
787.837	71.69
788.014	71.69
788.191	70.61
788.367	71.67
788.544	72.11
788.721	69.71
788.897	68.61
789.074	70.02
789.25	72.62
789.427	72.38
789.603	70.5
789.78	70.55
789.956	69.51
790.133	66.42
790.309	65.17
790.486	66.08
790.662	65.82
790.839	62.66
791.015	66.02
791.192	66.89
791.368	68.47
791.544	71.39
791.721	73.27
791.897	72.74
792.073	71.69
792.249	70.74
792.426	68.5
792.602	68.21
792.778	66.72
792.954	67.98
793.13	67.77
793.307	66.21
793.483	66.07
793.659	68.5
793.835	72.47
794.011	75.14
794.187	75.8
794.363	76.39
794.539	76.17
794.715	70.04
794.891	70.27
795.067	69.08
795.243	70.1
795.419	70.17
795.595	75.39
795.771	72.58
795.947	72.78
796.122	71.25
796.298	67.01
796.474	70.32
796.65	75.24
796.826	77.95
797.001	80.84
797.177	74.43
797.353	67.19
797.529	63.71
797.704	59.56
797.88	55.17
798.056	60.09
798.231	61.51
798.407	62.16
798.582	65.72
798.758	69.35
798.934	74.82
799.109	73.81
799.285	75.13
799.46	69.02
799.636	67.69
799.811	68.07
799.986	69.42
800.162	62.93
800.337	67.32
800.513	66.86
800.688	60.88
800.863	65.67
801.039	75.26
801.214	70.04
801.389	73.6
801.565	78.33
801.74	71.13
801.915	69.35
802.09	69.58
802.265	64.81
802.441	62.09
802.616	61.89
802.791	63.31
802.966	70.95
803.141	78.36
803.316	78.08
803.491	79.02
803.666	80.09
803.841	74.95
804.016	70.31
804.191	73.45
804.366	64.55
804.541	58.43
804.716	56.62
804.891	56.44
805.066	57.37
805.241	62.29
805.416	67.86
805.591	73.53
805.765	75.65
805.94	75.25
806.115	77.86
806.29	71.97
806.464	68.06
806.639	64.83
806.814	69
806.989	71.98
807.163	73.11
807.338	71.18
807.512	69.53
807.687	63.58
807.862	60.99
808.036	65.33
808.211	70.87
808.385	81.38
808.56	75.23
808.734	59.54
808.909	59.22
809.083	57.03
809.258	54.14
809.432	56.85
809.606	75.03
809.781	72.85
809.955	75.79
810.13	64.27
810.304	64.29
810.478	65.18
810.652	62.04
810.827	61.51
811.001	66.87
811.175	68.74
811.349	71.58
811.524	78.13
811.698	77.07
811.872	81.62
812.046	82.36
812.22	76
812.394	66.43
812.568	62.09
812.742	51.51
812.916	53.2
813.09	49.17
813.264	53.42
813.438	53.73
813.612	56.58
813.786	51.38
813.96	61.54
814.134	59.63
814.308	66.69
814.482	68.85
814.656	70.58
814.83	67.31
815.003	71.51
815.177	62.66
815.351	73.05
815.525	80.74
815.698	74.93
815.872	69.21
816.046	69.93
816.219	62.89
816.393	54.01
816.567	57.05
816.74	57.74
816.914	65.47
817.088	68.27
817.261	69.38
817.435	65.89
817.608	63.41
817.782	48.62
817.955	43.95
818.129	48.15
818.302	58.07
818.475	62.87
818.649	70.2
818.822	61.97
818.996	68.78
819.169	82.28
819.342	77.57
819.516	83.5
819.689	89.08
819.862	78.48
820.035	60.58
820.209	54.15
820.382	40.31
820.555	40.16
820.728	44.89
820.901	42.3
821.075	59.59
821.248	76.1
821.421	70.34
821.594	69.32
821.767	73.59
821.94	56.41
822.113	58.67
822.286	68.91
822.459	77.83
822.632	82.52
822.805	96.32
822.978	91.67
823.151	85.11
823.324	62.81
823.496	50.87
823.669	55.09
823.842	46.92
824.015	55.08
824.188	61.66
824.361	64.85
824.533	57.67
824.706	59.43
824.879	54.38
825.051	59.28
825.224	65.48
825.397	66.36
825.569	68.13
825.742	71.53
825.915	74.5
826.087	62.11
826.26	63.11
826.432	65.09
826.605	68.44
826.777	73.02
826.95	82.45
827.122	66.51
827.295	81.44
827.467	72.52
827.64	48.56
827.812	34.09
827.984	59.35
828.157	31.24
828.329	40.56
828.501	49.38
828.674	61.9
828.846	61.65
829.018	57.21
829.19	51.4
829.363	55.52
829.535	63.85
829.707	65.62
829.879	73.84
830.051	65.93
830.223	63.76
830.395	52.41
830.568	53.22
830.74	51.87
830.912	59.93
831.084	57.31
831.256	43.24
831.428	35.69
831.6	25.56
831.772	26.16
831.943	18.73
832.115	44.86
832.287	57.8
832.459	62.84
832.631	61.67
832.803	67.13
832.975	63.47
833.146	56.46
833.318	63.29
833.49	59.83
833.662	73.24
833.833	65.54
834.005	57.5
834.177	48.17
834.348	41.45
834.52	39.31
834.692	31.39
834.863	37.92
835.035	53.53
835.206	56.04
835.378	54.38
835.549	61.01
835.721	56.06
835.892	45.92
836.064	51.6
836.235	49.01
836.407	49.97
836.578	56
836.749	50.31
836.921	39.82
837.092	22.43
837.264	17.98
837.435	8.51
837.606	30.75
837.777	34.66
837.949	59.8
838.12	58.71
838.291	57.48
838.462	53.88
838.633	54.05
838.805	25.38
838.976	28.39
839.147	35.49
839.318	40.73
839.489	34.97
839.66	62.3
839.831	71.06
840.002	67.66
840.173	61.1
840.344	57.75
840.515	33.84
840.686	34.32
840.857	37.08
841.028	36.69
841.199	60.74
841.369	78.05
841.54	67.29
841.711	100.09
841.882	119.66
842.053	85.8
842.223	77.97
842.394	72.64
842.565	47.89
842.736	40.72
842.906	29.51
843.077	39.03
843.248	56.75
843.418	49.1
843.589	37.02
843.759	57.95
843.93	57.62
844.101	44.75
844.271	83.81
844.442	71.81
844.612	63.51
844.783	65.93
844.953	62.46
845.123	48.61
845.294	55.07
845.464	43.28
845.635	48.45
845.805	46.89
845.975	45.64
846.146	49.12
846.316	33.93
846.486	32.04
846.656	39.38
846.827	42.2
846.997	43.3
847.167	52.71
847.337	42.65
847.507	53.36
847.677	53.67
847.848	64.86
848.018	70.46
848.188	82.52
848.358	61.96
848.528	71.54
848.698	57.84
848.868	60.53
849.038	47.41
849.208	82.4
849.378	71.45
849.548	66.28
849.718	37.52
849.887	16.43
850.057	-8.96
850.227	35.17
850.397	49.93
850.567	47.24
850.737	82.61
850.906	48.04
851.076	12.67
851.246	23.13
851.415	61.44
851.585	72.69
851.755	85.02
851.924	91.21
852.094	88.41
852.264	64.44
852.433	19.76
852.603	16.26
852.772	29.63
852.942	58.24
853.111	47.99
853.281	71.84
853.45	61.76
853.62	51.98
853.789	17.6
853.959	41.35
854.128	51.36
854.297	49.76
854.467	39.95
854.636	43.59
854.805	31.25
854.975	16.6
855.144	32.09
855.313	41.31
855.482	30.77
855.652	48.66
855.821	31.04
855.99	26.92
856.159	31.38
856.328	53.76
856.497	37.34
856.667	55.74
856.836	54.68
857.005	72.54
857.174	67.85
857.343	65.8
857.512	72
857.681	58.78
857.85	21.48
858.019	-9.36
858.188	-23.97
858.356	-20.73
858.525	4.3
858.694	24.95
858.863	39.33
859.032	61.17
859.201	71.71
859.369	98.25
859.538	76.58
859.707	86.76
859.876	68.01
860.044	74.85
860.213	67.83
860.382	75.32
860.55	62.78
860.719	69.24
860.888	56.49
861.056	32.31
861.225	14.01
861.393	19.38
861.562	9.8
861.73	0.92
861.899	7.3
862.067	3.31
862.236	-0.8
862.404	28.03
862.572	32.71
862.741	33.71
862.909	23.47
863.078	19.78
863.246	-5.85
863.414	29.37
863.582	49.16
863.751	75.15
863.919	93.75
864.087	102.15
864.255	104.39
864.424	73.54
864.592	61.23
864.76	52.28
864.928	74.38
865.096	80.32
865.264	66.36
865.432	51.14
865.6	60.27
865.768	48.04
865.936	30.99
866.104	45.35
866.272	61.74
866.44	55.69
866.608	33.03
866.776	51.49
866.944	63.33
867.112	51.86
867.28	37.32
867.448	41.05
867.615	29.98
867.783	19.98
867.951	17.56
868.119	14.03
868.286	50.39
868.454	61.39
868.622	38.18
868.789	43.6
868.957	62.03
869.125	53.03
869.292	29.4
869.46	60.81
869.627	73.16
869.795	50.9
869.963	60.69
870.13	78.1
870.298	78.3
870.465	92.92
870.632	109.76
870.8	66.76
870.967	53.3
871.135	49.14
871.302	22.22
871.469	11.24
871.637	34.98
871.804	53.6
871.971	16.66
872.139	14.11
872.306	-35.43
872.473	-63.28
872.64	-187.12
872.807	-189.34
872.975	-354.29
873.142	-48.3
873.309	-14.42
873.476	43.76
873.643	97.98
873.81	74.51
873.977	59.86
874.144	104.15
874.311	42.53
874.478	18.21
874.645	-14.74
874.812	52.35
874.979	47.15
875.146	57.84
875.313	83
875.48	116.63
875.647	96.42
875.813	43.42
875.98	44.11
876.147	3.86
876.314	-11.35
876.481	-9.58
876.647	22.92
876.814	34.59
876.981	36.81
877.147	41.53
877.314	59.16
877.481	66.75
877.647	49.31
877.814	41.48
877.98	64.89
878.147	87.85
878.314	109.87
878.48	147.5
878.647	140.83
878.813	132.45
878.979	106.92
879.146	77.7
879.312	80.28
879.479	47.64
879.645	51.64
879.811	12.18
879.978	20.14
880.144	14.98
880.31	38.35
880.477	28.79
880.643	62.47
880.809	36.83
880.975	47.39
881.142	-5.55
881.308	311.17
881.474	520.77
881.64	31.99
881.806	58.98
881.972	53.97
882.138	84.9
882.304	114.96
882.47	52.36
882.636	10.86
882.802	20.59
882.968	7.62
883.134	7.59
883.3	33.45
883.466	113.59
883.632	102.69
883.798	94.82
883.964	92.9
884.129	420.96
884.295	60.25
884.461	24.63
884.627	36.11
884.793	15.77
884.958	28.16
885.124	-1.27
885.29	-13.76
885.455	-40.3
885.621	7.25
885.787	-19.46
885.952	-8.86
886.118	20.16
886.283	43
886.449	21.54
886.614	37.17
886.78	41.73
886.945	31.75
887.111	-13.38
887.276	-18.03
887.442	-62.41
887.607	-12.73
887.773	4.88
887.938	0.46
888.103	12.39
888.269	47.66
888.434	46.36
888.599	42.7
888.764	58.14
888.93	81.19
889.095	58.38
889.26	48.81
889.425	65.78
889.59	64.51
889.756	12.99
889.921	39.61
890.086	105.48
890.251	160.73
890.416	79.85
890.581	82.9
890.746	100.58
890.911	48.17
891.076	43.9
891.241	66.86
891.406	75.26
891.571	89.54
891.736	211.04
891.901	117.78
892.065	89.05
892.23	107.63
892.395	86.54
892.56	44.04
892.725	66.35
892.889	68.52
893.054	-18.12
893.219	-27.35
893.384	-16.01
893.548	-53.35
893.713	-65
893.878	-23.79
