Data from Ofra_PS_T2_1A_1GT37_Reflection_1.txt Node
Date: Wed Jul 21 17:47:51 EDT 2021
User: Adam
Spectrometer: FLMT01687
Trigger mode: 0
Integration Time (sec): 1.100000E0
Scans to average: 2
Electric dark correction enabled: true
Nonlinearity correction enabled: false
Boxcar width: 2
XAxis mode: Wavelengths
Number of Pixels in Spectrum: 3648
>>>>>Begin Spectral Data<<<<<
179.494	584.2
179.716	654.82
179.937	592.79
180.158	561.81
180.38	778.28
180.601	301.8
180.823	70.65
181.044	48.46
181.265	229.6
181.486	124.73
181.708	94.98
181.929	422.96
182.15	20.77
182.372	184.38
182.593	80.4
182.814	46.43
183.035	94.39
183.257	81.39
183.478	27.39
183.699	122.97
183.92	71.37
184.141	50.42
184.363	14.14
184.584	32.58
184.805	13.53
185.026	52.63
185.247	67.26
185.468	44.43
185.689	67.21
185.91	67.53
186.132	63.12
186.353	36.12
186.574	106.21
186.795	58.94
187.016	24.35
187.237	-6.19
187.458	-28.93
187.679	-45.47
187.9	-3.86
188.121	-10.87
188.342	34.83
188.563	69.57
188.784	89.13
189.005	74.41
189.226	141.27
189.447	99.64
189.667	-71.48
189.888	-266.13
190.109	-962.66
190.33	-755
190.551	-1149.78
190.772	-202
190.993	-139.68
191.214	-110.75
191.434	-37.08
191.655	29.42
191.876	-5.37
192.097	-88.68
192.318	-137.76
192.538	-242.89
192.759	-202.77
192.98	-100.52
193.201	-7.11
193.421	-2.87
193.642	26.28
193.863	51.29
194.083	31
194.304	6.4
194.525	21.54
194.745	-3.93
194.966	-45.12
195.187	-36.22
195.407	-70.41
195.628	-146.27
195.848	-128.55
196.069	-139.38
196.29	-96.55
196.51	-78.78
196.731	-69.16
196.951	-93.21
197.172	-87.68
197.392	-128.29
197.613	-119.05
197.833	-127.66
198.054	-92.7
198.274	-39.29
198.495	-50.79
198.715	-34.14
198.936	-51.31
199.156	-63.01
199.377	-176.01
199.597	-141.2
199.817	-115.33
200.038	-51.64
200.258	-84.67
200.479	0.37
200.699	17.45
200.919	56.41
201.14	12.1
201.36	16.2
201.58	36.66
201.801	70.71
202.021	36.44
202.241	40.89
202.461	23.7
202.682	-55.41
202.902	-177.16
203.122	-118.02
203.342	-82.09
203.563	-34.64
203.783	-3.1
204.003	-48.71
204.223	-57.6
204.443	3.46
204.663	-12.09
204.884	-6.12
205.104	54.11
205.324	89.03
205.544	78.22
205.764	92.73
205.984	106.18
206.204	87.73
206.424	69.94
206.644	19.78
206.864	6.32
207.084	-66.36
207.304	-74.17
207.525	-259.77
207.745	-98.55
207.964	-46.76
208.184	-86.72
208.404	-110.63
208.624	-105.18
208.844	-92.8
209.064	-375.4
209.284	-414.31
209.504	-207.74
209.724	-23.1
209.944	-16.82
210.164	19.82
210.384	50.3
210.604	52.39
210.823	-16.75
211.043	-40.31
211.263	-28.18
211.483	-50.28
211.703	-105.24
211.922	-66.84
212.142	29.07
212.362	43.99
212.582	39.25
212.801	37.75
213.021	14.09
213.241	-14.17
213.461	-49.07
213.68	-54.21
213.9	-23.27
214.12	-7.74
214.339	-80.16
214.559	-70.73
214.779	-26.26
214.998	-26.5
215.218	-87.35
215.438	-31.63
215.657	-28.03
215.877	-13.44
216.096	3.07
216.316	31.75
216.535	17.32
216.755	19.54
216.974	-56.64
217.194	-91.05
217.413	-88.56
217.633	-99.76
217.852	-201.01
218.072	-69.44
218.291	-26.18
218.511	7.65
218.73	-5.33
218.95	-2.56
219.169	-22.67
219.389	-65.44
219.608	-52.87
219.827	-51.5
220.047	-30.17
220.266	1.73
220.485	20.12
220.705	33.49
220.924	23.02
221.143	45.27
221.363	10.18
221.582	7.64
221.801	3.74
222.021	14.19
222.24	-62.05
222.459	-0.04
222.678	-11.12
222.897	-85.96
223.117	-145.7
223.336	-147.67
223.555	-87.23
223.774	-44.92
223.993	3.94
224.213	88.63
224.432	57
224.651	73.83
224.87	35.83
225.089	37.29
225.308	22.94
225.527	46.07
225.746	23.43
225.965	43.11
226.184	25.25
226.404	27.24
226.623	5.34
226.842	21.28
227.061	33.69
227.28	35.91
227.499	15.94
227.718	40.72
227.936	33.11
228.155	29.98
228.374	11.13
228.593	17.59
228.812	-3.51
229.031	-8.17
229.25	-54.91
229.469	-40.49
229.688	-4.23
229.907	43.39
230.125	54.63
230.344	69.09
230.563	69.6
230.782	71.46
231.001	-19.88
231.22	-26.85
231.438	-14.03
231.657	-3.4
231.876	-10.99
232.095	47.65
232.313	52.76
232.532	49.6
232.751	22.91
232.969	-4.2
233.188	-85.18
233.407	-1.08
233.625	-2.74
233.844	-32.5
234.063	-18.13
234.281	7.27
234.5	-0.02
234.719	6.04
234.937	41.46
235.156	49.59
235.374	50.72
235.593	38.94
235.811	32.78
236.03	9.26
236.249	-37.49
236.467	-49.64
236.686	-18.85
236.904	-3.09
237.123	-22.94
237.341	-12.61
237.559	-2.28
237.778	-15.77
237.996	-26.35
238.215	17.17
238.433	20.94
238.652	25.89
238.87	-0.02
239.088	17.02
239.307	11.54
239.525	11.77
239.743	-27.37
239.962	-8.04
240.18	-61.14
240.398	-116.95
240.617	-125.64
240.835	-102.75
241.053	-74.67
241.271	-19.32
241.49	13.47
241.708	-6.55
241.926	-10.82
242.144	-6.96
242.363	-52.8
242.581	-96.35
242.799	-37.08
243.017	-7.24
243.235	-28.83
243.453	-6.29
243.672	-0.54
243.89	-7.03
244.108	-19.13
244.326	7.73
244.544	15.31
244.762	13.08
244.98	29.7
245.198	20.74
245.416	-21.83
245.634	-43.38
245.852	-60.74
246.07	-102.51
246.288	-92.78
246.506	-124.22
246.724	-81.96
246.942	-50.67
247.16	-1.34
247.378	12.44
247.596	46.89
247.814	38.56
248.032	5.35
248.25	5.17
248.468	7.21
248.685	12.73
248.903	48.38
249.121	51.39
249.339	22.18
249.557	15.13
249.775	18.9
249.992	-61.4
250.21	-55.63
250.428	-37.79
250.646	-62.48
250.863	-75.33
251.081	-42.76
251.299	-14.39
251.517	11.79
251.734	20.59
251.952	6.38
252.17	0.65
252.387	6.77
252.605	-15.89
252.823	-10.93
253.04	1.93
253.258	27.48
253.475	24.89
253.693	41.1
253.911	28.6
254.128	40.45
254.346	26.73
254.563	3.11
254.781	-16.49
254.998	-23.27
255.216	-33.82
255.433	-28.24
255.651	22.62
255.868	71.96
256.086	81.15
256.303	73.37
256.521	58.02
256.738	22.89
256.956	-25.88
257.173	-48.83
257.39	-72.27
257.608	-105.02
257.825	-50.97
258.043	-6.5
258.26	6.17
258.477	65.63
258.695	67.86
258.912	28.34
259.129	18.63
259.346	-14.51
259.564	-76.18
259.781	-100.41
259.998	-23.21
260.216	6.18
260.433	46.92
260.65	49.54
260.867	76.52
261.084	23.99
261.302	-2.48
261.519	-14.59
261.736	-43.1
261.953	-82.45
262.17	-32.08
262.387	-56.07
262.604	-93.64
262.822	-96.75
263.039	-73.02
263.256	-117.13
263.473	-67.12
263.69	-42.11
263.907	10.49
264.124	18.82
264.341	24.91
264.558	15.37
264.775	36.5
264.992	18.29
265.209	16.89
265.426	39.32
265.643	42.5
265.86	53.74
266.077	61.98
266.294	70.85
266.51	27.35
266.727	12.79
266.944	-2.4
267.161	-19.45
267.378	-24.11
267.595	9.21
267.812	-12.24
268.028	-17.16
268.245	-11.92
268.462	-38.65
268.679	-43.42
268.896	2.58
269.112	-0.82
269.329	-0.01
269.546	15.47
269.763	-4.84
269.979	-27.53
270.196	-33.93
270.413	-58.13
270.629	-73.06
270.846	-58.05
271.063	-47.39
271.279	-57.49
271.496	-38.29
271.712	-7.57
271.929	29.91
272.146	38.31
272.362	79.34
272.579	92.57
272.795	84.02
273.012	56.95
273.228	58.17
273.445	13.4
273.661	-19.81
273.878	-53.11
274.094	-50.18
274.311	-89.26
274.527	-1.75
274.744	0.17
274.96	-0.02
275.177	12.37
275.393	34.15
275.609	13.96
275.826	37.31
276.042	32.88
276.259	23.33
276.475	31.79
276.691	37.59
276.908	14.99
277.124	23.29
277.34	33.83
277.557	33.34
277.773	21.96
277.989	25.13
278.205	27.3
278.422	21.19
278.638	14.53
278.854	34.59
279.07	34.9
279.286	26.69
279.503	8.23
279.719	-11.16
279.935	-48.17
280.151	-69.76
280.367	-43.14
280.583	-62.69
280.799	-50.14
281.016	-78.66
281.232	-31.2
281.448	-32.94
281.664	-8.27
281.88	-16.34
282.096	12.88
282.312	41.1
282.528	50.02
282.744	75.3
282.96	44.5
283.176	25.46
283.392	1.56
283.608	-10.05
283.824	-26.58
284.04	-4.3
284.256	0.16
284.471	-6.15
284.687	-5.04
284.903	29.17
285.119	35.92
285.335	32.87
285.551	64.71
285.767	44.14
285.982	13.15
286.198	-14.14
286.414	23.03
286.63	8.81
286.846	28.88
287.061	6.6
287.277	38.67
287.493	5.19
287.709	27.01
287.924	30.72
288.14	78.43
288.356	67.04
288.571	81.04
288.787	59.25
289.003	51.93
289.218	19.23
289.434	-31.35
289.65	-25.71
289.865	-38.74
290.081	-29.79
290.296	-21.71
290.512	15.61
290.727	-37.66
290.943	-28.87
291.159	-32.06
291.374	-33.57
291.59	-59.39
291.805	-35.54
292.021	-21.95
292.236	-25.11
292.451	-10.44
292.667	5.09
292.882	12.73
293.098	0.36
293.313	-39.49
293.529	-56.01
293.744	-68.62
293.959	-56.28
294.175	-53.32
294.39	-4.87
294.605	12.45
294.821	35.24
295.036	32.76
295.251	46.34
295.467	7.39
295.682	-9.85
295.897	-57.37
296.112	-69.01
296.328	-71.58
296.543	-81.51
296.758	-72.91
296.973	-17.41
297.188	24.2
297.404	-13.69
297.619	-15.12
297.834	-40.47
298.049	-85.05
298.264	-105.17
298.479	-31.76
298.694	-21.18
298.909	14.32
299.125	26.31
299.34	26.52
299.555	11.03
299.77	21.85
299.985	-34.26
300.2	-85.45
300.415	-106.75
300.63	-79.84
300.845	-78.75
301.06	-62.7
301.275	-12.95
301.49	12.93
301.704	1.93
301.919	-10.83
302.134	-14.84
302.349	-26.45
302.564	-97.73
302.779	-128.39
302.994	-116.18
303.209	-93.13
303.423	-39.73
303.638	37.27
303.853	15.99
304.068	16.29
304.283	21.49
304.497	8.58
304.712	-4.93
304.927	4.65
305.142	-9.64
305.356	-4.5
305.571	-9.24
305.786	-29.76
306	-47.92
306.215	-30.2
306.43	-53.22
306.644	-63.4
306.859	13.49
307.074	12.83
307.288	-23.6
307.503	-28.36
307.717	-40.08
307.932	-36.92
308.147	-35.76
308.361	-1.1
308.576	-2.66
308.79	-24.2
309.005	-34.8
309.219	-13.54
309.434	-17.63
309.648	-14.55
309.863	15.09
310.077	9.67
310.292	1.07
310.506	-4.85
310.72	-4.27
310.935	-26.35
311.149	-24.04
311.364	10.63
311.578	31.98
311.792	30.03
312.007	50.81
312.221	41.52
312.435	22.71
312.649	-16.05
312.864	6.52
313.078	11.73
313.292	82.75
313.507	58.23
313.721	113.94
313.935	51.51
314.149	39.66
314.363	9.24
314.578	14.73
314.792	24.17
315.006	7.47
315.22	36.43
315.434	36.8
315.648	47.56
315.862	42.04
316.077	43.55
316.291	9.38
316.505	19.85
316.719	-12.7
316.933	-30.52
317.147	-40
317.361	-71.55
317.575	-80.83
317.789	-97.87
318.003	-155.96
318.217	-108.09
318.431	-38.59
318.645	-3.12
318.859	1.38
319.073	29.85
319.287	11.02
319.5	-7.76
319.714	-55.79
319.928	-96.22
320.142	-119.73
320.356	-44.33
320.57	-13.54
320.784	8.06
320.997	24.49
321.211	30.1
321.425	-45.47
321.639	-90.65
321.853	-25.5
322.066	0.51
322.28	-4.61
322.494	2.7
322.707	42.77
322.921	17.45
323.135	2.03
323.349	5.09
323.562	-14.98
323.776	-46.42
323.989	-42.94
324.203	-58.27
324.417	-61.52
324.63	-73.14
324.844	-66.66
325.057	-70.99
325.271	-42.49
325.485	-13.06
325.698	14.93
325.912	34.19
326.125	7.16
326.339	6.95
326.552	-20.27
326.766	-16.04
326.979	-12.4
327.193	40.74
327.406	23.53
327.619	21.1
327.833	49.21
328.046	16.35
328.26	-23.36
328.473	9.24
328.686	-13.82
328.9	-34.12
329.113	-10.02
329.326	-41.99
329.54	-27.04
329.753	-18.28
329.966	-55.15
330.179	-41.64
330.393	-6.06
330.606	-10.75
330.819	10.51
331.032	23.49
331.246	26.97
331.459	47.03
331.672	32.01
331.885	23.3
332.098	11.39
332.311	-12.19
332.525	-65.06
332.738	-59.18
332.951	-31.2
333.164	-4.93
333.377	20.47
333.59	40.09
333.803	53.08
334.016	48.3
334.229	38.66
334.442	37.68
334.655	52.16
334.868	50.94
335.081	35.94
335.294	31.04
335.507	24.41
335.72	17.17
335.933	-2.75
336.146	-7.24
336.359	5.59
336.572	-22.19
336.785	-51.1
336.997	-32.45
337.21	0.36
337.423	-21.8
337.636	-7.75
337.849	20.2
338.062	13.77
338.274	1.91
338.487	3.74
338.7	11.26
338.913	-28.68
339.125	-53.5
339.338	-95.48
339.551	-71.56
339.763	-55.38
339.976	-43.97
340.189	-8.8
340.402	18.59
340.614	10.7
340.827	5.1
341.039	2.06
341.252	-12.76
341.465	-8.64
341.677	-19.85
341.89	-45.75
342.102	-21.9
342.315	-29.75
342.527	-64.69
342.74	-50.05
342.952	-24.15
343.165	-33.48
343.377	-12.42
343.59	-6.25
343.802	18.79
344.015	37.1
344.227	65.12
344.44	51.66
344.652	50.62
344.864	30.32
345.077	30.21
345.289	24.44
345.502	37.62
345.714	28.83
345.926	26.35
346.139	18.63
346.351	36.1
346.563	29.41
346.775	29.23
346.988	17.56
347.2	5.2
347.412	-49.67
347.624	-71.64
347.837	-69.67
348.049	-5.25
348.261	38.33
348.473	38.37
348.685	29.1
348.897	10.99
349.11	-19.37
349.322	-67.12
349.534	-44.78
349.746	-25.64
349.958	-13.36
350.17	-19.67
350.382	-0.01
350.594	-7.12
350.806	12.65
351.018	9.56
351.23	-5.06
351.442	-62.94
351.654	-75.09
351.866	-91.76
352.078	-78.89
352.29	-30.29
352.502	3.44
352.714	15.23
352.926	1.89
353.138	2.97
353.35	-6.83
353.561	-13.36
353.773	-31.02
353.985	-13.59
354.197	-27.64
354.409	-38.21
354.621	-47.59
354.832	-38.2
355.044	-53.14
355.256	-46.65
355.468	-24.19
355.679	-14.81
355.891	1.29
356.103	-11.04
356.314	-2.74
356.526	-0.92
356.738	-2.36
356.949	-22.63
357.161	-0.9
357.373	-5.01
357.584	-24.6
357.796	-16.32
358.008	-14.36
358.219	9.72
358.431	2.82
358.642	17.78
358.854	16.19
359.065	4.74
359.277	-42.29
359.488	-48.28
359.7	-71.44
359.911	-78.22
360.123	-46.38
360.334	-45.79
360.546	-55.52
360.757	-63.59
360.969	-46.71
361.18	-50.8
361.391	-22
361.603	-22.47
361.814	0.9
362.025	-1.9
362.237	-3.08
362.448	-1.72
362.659	25.86
362.871	13.16
363.082	11.1
363.293	24.15
363.504	15.94
363.716	-16.85
363.927	-15.8
364.138	-42.87
364.349	-76.35
364.56	-64.17
364.772	-47.67
364.983	-20.09
365.194	-10.37
365.405	6.61
365.616	19.5
365.827	19.53
366.038	-4.24
366.25	-19.21
366.461	-56.18
366.672	-36.21
366.883	-13.49
367.094	1.29
367.305	-4.61
367.516	10.53
367.727	-21.22
367.938	-37.6
368.149	-44.07
368.36	-19.94
368.571	-20.15
368.781	-28.65
368.992	-43.98
369.203	-55.66
369.414	-80.27
369.625	-79.45
369.836	-66.08
370.047	-88.11
370.258	-78.37
370.468	-73.71
370.679	-86.3
370.89	-75.36
371.101	-40.14
371.312	-43.03
371.522	-26.93
371.733	-11.8
371.944	0.39
372.155	17.06
372.365	8.53
372.576	3.8
372.787	-18.24
372.997	-49.03
373.208	-54.82
373.419	-12.83
373.629	-36.7
373.84	-20.54
374.05	-14.94
374.261	-21.99
374.472	-48.92
374.682	4.56
374.893	8.83
375.103	40.79
375.314	39.7
375.524	37.34
375.735	27.67
375.945	25.21
376.156	-6.68
376.366	-9.29
376.577	-7.78
376.787	-16.97
376.997	0.87
377.208	1.72
377.418	-1.27
377.629	6.38
377.839	-0.24
378.049	-17.38
378.26	-1.34
378.47	8.53
378.68	-4.06
378.89	-0.49
379.101	-0.88
379.311	-23.39
379.521	-50.47
379.732	-46.09
379.942	-42.51
380.152	-48.01
380.362	-21.72
380.572	-23.35
380.783	-9.08
380.993	-0.89
381.203	9.27
381.413	26.41
381.623	38.08
381.833	36.18
382.043	22.44
382.253	6.25
382.463	-3.7
382.674	-14.27
382.884	-39.31
383.094	-36.74
383.304	-23.63
383.514	-20.38
383.724	-2.84
383.934	-2.14
384.144	-9.31
384.353	-18.39
384.563	-21.62
384.773	-26.66
384.983	-28.29
385.193	-2.87
385.403	4.14
385.613	7.51
385.823	-0.95
386.033	5.43
386.242	-12.68
386.452	-15.5
386.662	-24.23
386.872	-13.11
387.082	-17.38
387.291	-18.73
387.501	-15.79
387.711	-10.46
387.921	-17.84
388.13	-19.13
388.34	-3.82
388.55	-11.8
388.759	-12.77
388.969	-0.41
389.179	-1.04
389.388	-5.97
389.598	3.54
389.807	-3.95
390.017	-12.08
390.227	-9.56
390.436	-11.68
390.646	-13.36
390.855	-4.01
391.065	-0.99
391.274	-5.57
391.484	-8.19
391.693	-6.91
391.903	-9.52
392.112	-5.17
392.322	-0.26
392.531	3.9
392.74	2.32
392.95	-1.06
393.159	-4.77
393.369	-4.38
393.578	-5.04
393.787	-4.07
393.997	-2.69
394.206	-4.34
394.415	-4.51
394.625	-4.91
394.834	-6.49
395.043	-5.43
395.252	-1.45
395.462	0.85
395.671	3.42
395.88	4.06
396.089	5.14
396.298	2.1
396.508	0.6
396.717	-1.74
396.926	-0.79
397.135	-1.23
397.344	-1.07
397.553	-0.64
397.762	1.86
397.971	1.37
398.181	1.17
398.39	0.94
398.599	0.66
398.808	-0.14
399.017	0.54
399.226	1.93
399.435	3.54
399.644	3.46
399.853	2.5
400.062	2.24
400.27	1.19
400.479	0.44
400.688	0.3
400.897	0.37
401.106	0.25
401.315	0.24
401.524	0.06
401.733	0.5
401.941	1.37
402.15	1.43
402.359	1.34
402.568	1.88
402.777	1.81
402.985	1.32
403.194	1.22
403.403	1.23
403.612	0.59
403.82	0.37
404.029	0.37
404.238	0.34
404.446	0.59
404.655	0.54
404.864	0.4
405.072	0.28
405.281	0.43
405.489	0.2
405.698	0.18
405.906	0.28
406.115	0.35
406.324	0.31
406.532	0.42
406.741	0.82
406.949	0.85
407.158	0.89
407.366	0.89
407.574	0.8
407.783	0.71
407.991	0.52
408.2	0.59
408.408	0.49
408.617	0.49
408.825	0.32
409.033	0.52
409.242	0.61
409.45	0.78
409.658	0.68
409.867	0.9
410.075	0.78
410.283	0.61
410.491	0.52
410.7	0.57
410.908	0.57
411.116	0.85
411.324	0.95
411.533	0.84
411.741	1.17
411.949	1.13
412.157	0.89
412.365	0.89
412.573	1
412.781	0.97
412.99	0.84
413.198	0.93
413.406	0.8
413.614	0.92
413.822	0.74
414.03	0.65
414.238	0.55
414.446	0.7
414.654	0.34
414.862	0.4
415.07	0.51
415.278	0.69
415.486	0.47
415.694	0.72
415.902	0.52
416.109	0.45
416.317	0.43
416.525	0.35
416.733	0.28
416.941	0.53
417.149	0.57
417.357	0.42
417.564	0.75
417.772	1.04
417.98	0.94
418.188	0.94
418.395	1.17
418.603	1.21
418.811	0.81
419.019	0.76
419.226	0.94
419.434	0.94
419.642	0.75
419.849	0.88
420.057	0.98
420.265	0.89
420.472	0.7
420.68	0.82
420.887	0.76
421.095	0.76
421.302	0.74
421.51	1.01
421.717	1.11
421.925	1.19
422.132	1.04
422.34	0.81
422.547	0.74
422.755	0.5
422.962	0.35
423.17	0.29
423.377	0.55
423.585	0.57
423.792	0.47
423.999	0.57
424.207	0.66
424.414	0.72
424.621	0.54
424.829	0.58
425.036	0.68
425.243	0.79
425.451	0.6
425.658	0.46
425.865	0.77
426.072	0.71
426.28	0.89
426.487	0.83
426.694	1.04
426.901	0.85
427.108	0.89
427.315	0.63
427.523	0.88
427.73	0.8
427.937	0.68
428.144	0.49
428.351	0.45
428.558	0.8
428.765	0.74
428.972	0.7
429.179	0.89
429.386	1.26
429.593	0.72
429.8	0.61
430.007	0.77
430.214	0.8
430.421	0.5
430.628	0.4
430.835	0.44
431.042	0.56
431.249	0.52
431.456	0.51
431.662	0.56
431.869	0.8
432.076	0.75
432.283	0.83
432.49	0.83
432.697	1.01
432.903	0.69
433.11	0.63
433.317	0.75
433.524	0.94
433.73	0.8
433.937	1.23
434.144	1.11
434.35	0.95
434.557	0.8
434.764	0.93
434.97	0.69
435.177	0.97
435.384	0.87
435.59	0.91
435.797	0.99
436.003	1.05
436.21	0.89
436.416	0.96
436.623	0.89
436.829	0.88
437.036	0.98
437.242	1.04
437.449	1.04
437.655	1.15
437.862	1.02
438.068	0.9
438.275	0.94
438.481	1.18
438.687	1.08
438.894	1.04
439.1	1.1
439.307	1.26
439.513	1.1
439.719	1.22
439.926	1.42
440.132	1.4
440.338	1.19
440.544	1.27
440.751	1.12
440.957	1.07
441.163	0.95
441.369	1.02
441.575	0.76
441.782	0.73
441.988	0.62
442.194	0.59
442.4	0.61
442.606	0.96
442.812	1.04
443.018	1.21
443.224	1.33
443.431	1.39
443.637	1.16
443.843	0.99
444.049	0.93
444.255	0.93
444.461	0.9
444.667	0.87
444.873	1.13
445.079	1.15
445.284	1.2
445.49	0.93
445.696	0.79
445.902	0.63
446.108	0.54
446.314	0.42
446.52	0.59
446.726	0.89
446.931	0.87
447.137	0.91
447.343	1.03
447.549	0.94
447.755	0.77
447.96	0.83
448.166	0.83
448.372	0.69
448.578	0.81
448.783	0.81
448.989	0.89
449.195	1.09
449.4	1.19
449.606	1.07
449.812	1.05
450.017	1.12
450.223	0.91
450.428	0.82
450.634	1.04
450.84	1.24
451.045	1.11
451.251	1.05
451.456	1.31
451.662	1.34
451.867	1.27
452.073	1.21
452.278	1.39
452.483	1.41
452.689	1.24
452.894	1.22
453.1	1.29
453.305	1.15
453.51	1.01
453.716	1
453.921	1.05
454.127	0.98
454.332	0.98
454.537	0.94
454.742	0.98
454.948	0.86
455.153	0.92
455.358	1.03
455.563	1.33
455.769	1.44
455.974	1.49
456.179	1.4
456.384	1.38
456.589	1.18
456.795	0.94
457	0.89
457.205	1.18
457.41	1.09
457.615	0.99
457.82	1.16
458.025	1.23
458.23	1.02
458.435	1.02
458.64	0.94
458.845	1.01
459.05	0.96
459.255	0.96
459.46	1.09
459.665	1.23
459.87	1.22
460.075	1.22
460.28	1.32
460.485	1.33
460.69	1.33
460.895	1.17
461.099	1.14
461.304	1.29
461.509	1.26
461.714	1.19
461.919	1.32
462.123	1.29
462.328	1.25
462.533	1.16
462.738	1.32
462.942	1.24
463.147	1.32
463.352	1.29
463.556	1.33
463.761	1.3
463.966	1.33
464.17	1.27
464.375	1.18
464.58	1.15
464.784	1.05
464.989	0.99
465.193	1.02
465.398	1.05
465.602	1.14
465.807	1.11
466.011	1.21
466.216	1.31
466.42	1.35
466.625	1.39
466.829	1.5
467.034	1.51
467.238	1.62
467.443	1.55
467.647	1.46
467.851	1.46
468.056	1.46
468.26	1.36
468.464	1.39
468.669	1.5
468.873	1.66
469.077	1.68
469.282	1.75
469.486	1.86
469.69	1.82
469.894	1.61
470.099	1.67
470.303	1.77
470.507	1.55
470.711	1.4
470.915	1.41
471.119	1.27
471.324	1.08
471.528	1.13
471.732	1.21
471.936	1.15
472.14	1.2
472.344	1.34
472.548	1.39
472.752	1.64
472.956	1.87
473.16	1.82
473.364	1.71
473.568	1.68
473.772	1.59
473.976	1.51
474.18	1.56
474.384	1.6
474.588	1.59
474.792	1.49
474.995	1.54
475.199	1.61
475.403	1.64
475.607	1.7
475.811	1.68
476.015	1.67
476.218	1.71
476.422	1.63
476.626	1.64
476.83	1.7
477.033	1.61
477.237	1.45
477.441	1.56
477.644	1.55
477.848	1.58
478.052	1.55
478.255	1.59
478.459	1.57
478.663	1.69
478.866	1.67
479.07	1.71
479.273	1.87
479.477	1.87
479.681	1.81
479.884	1.79
480.088	1.79
480.291	1.68
480.495	1.65
480.698	1.66
480.901	1.78
481.105	1.88
481.308	1.87
481.512	1.85
481.715	1.87
481.919	1.86
482.122	1.83
482.325	1.83
482.529	1.92
482.732	1.96
482.935	1.83
483.138	1.76
483.342	1.83
483.545	1.88
483.748	1.88
483.952	2
484.155	2.11
484.358	2.12
484.561	2.07
484.764	2.02
484.967	2.05
485.171	2.11
485.374	2.09
485.577	2.16
485.78	2.15
485.983	2.15
486.186	2.02
486.389	1.99
486.592	1.97
486.795	2.02
486.998	1.94
487.201	1.99
487.404	2.07
487.607	2.15
487.81	2.16
488.013	2.27
488.216	2.31
488.419	2.27
488.622	2.12
488.825	2.04
489.028	1.94
489.231	1.91
489.433	1.82
489.636	1.8
489.839	1.8
490.042	1.75
490.245	1.71
490.447	1.79
490.65	1.82
490.853	1.88
491.056	1.97
491.258	2
491.461	2.03
491.664	2.15
491.866	2.05
492.069	2.14
492.272	2.08
492.474	2.12
492.677	2.15
492.879	2.23
493.082	2.24
493.285	2.45
493.487	2.37
493.69	2.24
493.892	2.15
494.095	2.12
494.297	1.96
494.5	1.96
494.702	2.02
494.905	2.16
495.107	2.09
495.309	2.12
495.512	2.2
495.714	2.25
495.917	2.24
496.119	2.25
496.321	2.31
496.524	2.33
496.726	2.3
496.928	2.29
497.13	2.25
497.333	2.22
497.535	2.2
497.737	2.2
497.939	2.22
498.142	2.31
498.344	2.3
498.546	2.19
498.748	2.14
498.95	2.27
499.152	2.24
499.355	2.29
499.557	2.48
499.759	2.62
499.961	2.52
500.163	2.54
500.365	2.5
500.567	2.54
500.769	2.4
500.971	2.41
501.173	2.39
501.375	2.45
501.577	2.33
501.779	2.32
501.981	2.32
502.183	2.31
502.385	2.21
502.587	2.15
502.788	2.25
502.99	2.24
503.192	2.31
503.394	2.33
503.596	2.41
503.798	2.43
503.999	2.52
504.201	2.49
504.403	2.63
504.605	2.65
504.806	2.6
505.008	2.57
505.21	2.67
505.411	2.59
505.613	2.61
505.815	2.66
506.016	2.69
506.218	2.74
506.42	2.73
506.621	2.76
506.823	2.77
507.024	2.66
507.226	2.55
507.427	2.53
507.629	2.54
507.83	2.57
508.032	2.62
508.233	2.71
508.435	2.75
508.636	2.82
508.838	2.78
509.039	2.82
509.24	2.82
509.442	2.87
509.643	2.76
509.845	2.79
510.046	2.82
510.247	2.81
510.448	2.78
510.65	2.86
510.851	2.94
511.052	2.94
511.254	2.9
511.455	3.05
511.656	3.11
511.857	3.14
512.058	3.17
512.26	3.19
512.461	3.07
512.662	3.09
512.863	2.96
513.064	2.91
513.265	2.93
513.466	3.01
513.667	2.95
513.868	2.98
514.069	3.07
514.27	3.11
514.471	3.05
514.672	3.03
514.873	3.05
515.074	3.07
515.275	2.98
515.476	3.04
515.677	3.06
515.878	3.18
516.079	3.12
516.28	3.18
516.481	3.28
516.682	3.29
516.882	3.16
517.083	3.15
517.284	3.07
517.485	3
517.686	3.01
517.886	3.03
518.087	3.11
518.288	3.22
518.488	3.14
518.689	3.14
518.89	3.14
519.091	3.14
519.291	3.14
519.492	3.2
519.692	3.27
519.893	3.36
520.094	3.36
520.294	3.32
520.495	3.28
520.695	3.25
520.896	3.2
521.096	3.22
521.297	3.28
521.497	3.3
521.698	3.23
521.898	3.22
522.099	3.19
522.299	3.27
522.499	3.3
522.7	3.39
522.9	3.36
523.101	3.43
523.301	3.42
523.501	3.43
523.702	3.42
523.902	3.51
524.102	3.55
524.302	3.51
524.503	3.57
524.703	3.57
524.903	3.63
525.103	3.54
525.304	3.63
525.504	3.64
525.704	3.71
525.904	3.64
526.104	3.64
526.304	3.62
526.504	3.61
526.705	3.61
526.905	3.71
527.105	3.75
527.305	3.74
527.505	3.68
527.705	3.65
527.905	3.65
528.105	3.67
528.305	3.63
528.505	3.71
528.705	3.76
528.905	3.67
529.105	3.63
529.304	3.7
529.504	3.78
529.704	3.71
529.904	3.76
530.104	3.79
530.304	3.84
530.503	3.72
530.703	3.7
530.903	3.71
531.103	3.77
531.303	3.71
531.502	3.74
531.702	3.84
531.902	3.84
532.101	3.81
532.301	3.85
532.501	3.87
532.7	3.81
532.9	3.85
533.1	3.86
533.299	3.87
533.499	3.93
533.698	3.91
533.898	3.87
534.097	3.84
534.297	3.92
534.496	3.87
534.696	3.93
534.895	4.06
535.095	4.15
535.294	4.04
535.494	4.04
535.693	4.03
535.892	4.01
536.092	3.91
536.291	3.93
536.491	4.01
536.69	4.08
536.889	4.01
537.088	4.04
537.288	4.13
537.487	4.17
537.686	4.14
537.886	4.21
538.085	4.26
538.284	4.35
538.483	4.26
538.682	4.29
538.882	4.31
539.081	4.37
539.28	4.23
539.479	4.26
539.678	4.22
539.877	4.33
540.076	4.31
540.275	4.36
540.474	4.45
540.673	4.53
540.872	4.46
541.071	4.5
541.27	4.53
541.469	4.56
541.668	4.57
541.867	4.62
542.066	4.65
542.265	4.71
542.464	4.62
542.663	4.62
542.862	4.71
543.06	4.69
543.259	4.76
543.458	4.87
543.657	4.98
543.856	4.98
544.054	4.98
544.253	4.92
544.452	4.89
544.651	4.95
544.849	4.89
545.048	4.95
545.247	4.98
545.445	5.09
545.644	5.09
545.843	5.11
546.041	5.19
546.24	5.28
546.438	5.34
546.637	5.36
546.836	5.54
547.034	5.58
547.233	5.58
547.431	5.54
547.63	5.6
547.828	5.57
548.027	5.61
548.225	5.64
548.423	5.65
548.622	5.71
548.82	5.64
549.019	5.69
549.217	5.83
549.415	5.89
549.614	5.94
549.812	6.01
550.01	6.01
550.209	5.98
550.407	6.07
550.605	6.07
550.803	6.21
551.002	6.28
551.2	6.3
551.398	6.37
551.596	6.49
551.794	6.53
551.993	6.61
552.191	6.69
552.389	6.75
552.587	6.84
552.785	6.87
552.983	6.92
553.181	7.03
553.379	7.07
553.577	7.03
553.775	7.12
553.973	7.21
554.171	7.31
554.369	7.31
554.567	7.35
554.765	7.37
554.963	7.44
555.161	7.35
555.359	7.49
555.557	7.68
555.755	7.77
555.952	7.81
556.15	7.91
556.348	7.99
556.546	8.07
556.744	8.13
556.941	8.2
557.139	8.36
557.337	8.37
557.535	8.31
557.732	8.44
557.93	8.58
558.128	8.64
558.325	8.78
558.523	8.88
558.721	8.96
558.918	8.98
559.116	9
559.313	9.02
559.511	9.21
559.708	9.19
559.906	9.32
560.104	9.48
560.301	9.62
560.498	9.61
560.696	9.66
560.893	9.72
561.091	9.78
561.288	9.85
561.486	9.89
561.683	10.04
561.88	10.1
562.078	10.17
562.275	10.2
562.473	10.32
562.67	10.45
562.867	10.6
563.064	10.75
563.262	10.81
563.459	10.88
563.656	11.02
563.853	11.05
564.051	11.07
564.248	11.25
564.445	11.45
564.642	11.43
564.839	11.61
565.036	11.79
565.234	11.91
565.431	11.92
565.628	12.08
565.825	12.14
566.022	12.26
566.219	12.26
566.416	12.32
566.613	12.39
566.81	12.46
567.007	12.37
567.204	12.4
567.401	12.47
567.598	12.42
567.795	12.42
567.991	12.54
568.188	12.72
568.385	12.79
568.582	12.95
568.779	13.06
568.976	13.14
569.172	13.23
569.369	13.27
569.566	13.35
569.763	13.39
569.96	13.37
570.156	13.32
570.353	13.37
570.55	13.38
570.746	13.52
570.943	13.58
571.14	13.6
571.336	13.67
571.533	13.8
571.729	13.74
571.926	13.85
572.123	13.98
572.319	14.01
572.516	13.93
572.712	14.06
572.909	14.07
573.105	14.12
573.302	14.15
573.498	14.3
573.695	14.24
573.891	14.28
574.087	14.23
574.284	14.28
574.48	14.21
574.677	14.24
574.873	14.32
575.069	14.45
575.266	14.5
575.462	14.53
575.658	14.57
575.854	14.68
576.051	14.71
576.247	14.66
576.443	14.71
576.639	14.72
576.835	14.59
577.032	14.54
577.228	14.64
577.424	14.61
577.62	14.56
577.816	14.64
578.012	14.59
578.208	14.54
578.404	14.62
578.6	14.67
578.796	14.69
578.993	14.69
579.189	14.71
579.384	14.58
579.58	14.51
579.776	14.48
579.972	14.49
580.168	14.46
580.364	14.56
580.56	14.59
580.756	14.5
580.952	14.51
581.148	14.52
581.343	14.41
581.539	14.48
581.735	14.52
581.931	14.53
582.127	14.57
582.322	14.56
582.518	14.54
582.714	14.52
582.909	14.47
583.105	14.43
583.301	14.45
583.496	14.43
583.692	14.39
583.888	14.36
584.083	14.41
584.279	14.47
584.474	14.46
584.67	14.55
584.866	14.55
585.061	14.41
585.257	14.39
585.452	14.39
585.648	14.28
585.843	14.32
586.039	14.44
586.234	14.37
586.429	14.3
586.625	14.41
586.82	14.29
587.015	14.22
587.211	14.14
587.406	14.23
587.601	14.22
587.797	14.31
587.992	14.28
588.187	14.41
588.383	14.33
588.578	14.25
588.773	14.28
588.968	14.33
589.163	14.39
589.359	14.4
589.554	14.46
589.749	14.45
589.944	14.52
590.139	14.47
590.334	14.54
590.529	14.54
590.724	14.56
590.919	14.61
591.114	14.61
591.309	14.65
591.504	14.74
591.699	14.76
591.894	14.85
592.089	14.98
592.284	14.98
592.479	15.05
592.674	15.02
592.869	15.07
593.064	15.12
593.259	15.36
593.454	15.47
593.648	15.57
593.843	15.54
594.038	15.55
594.233	15.41
594.428	15.31
594.622	15.38
594.817	15.54
595.012	15.52
595.206	15.58
595.401	15.69
595.596	15.78
595.79	15.78
595.985	15.98
596.18	16.09
596.374	16.18
596.569	16.22
596.763	16.25
596.958	16.26
597.153	16.34
597.347	16.26
597.542	16.41
597.736	16.41
597.931	16.41
598.125	16.42
598.319	16.62
598.514	16.55
598.708	16.7
598.903	16.76
599.097	16.92
599.291	16.98
599.486	16.98
599.68	16.95
599.874	17.05
600.069	16.95
600.263	16.94
600.457	17
600.651	17.02
600.846	17.03
601.04	17.14
601.234	17.18
601.428	17.29
601.622	17.42
601.817	17.43
602.011	17.51
602.205	17.61
602.399	17.58
602.593	17.52
602.787	17.6
602.981	17.5
603.175	17.54
603.369	17.55
603.563	17.68
603.757	17.78
603.951	17.87
604.145	17.81
604.339	17.85
604.533	17.69
604.727	17.54
604.921	17.47
605.115	17.5
605.309	17.55
605.502	17.62
605.696	17.61
605.89	17.57
606.084	17.47
606.278	17.37
606.471	17.24
606.665	17.19
606.859	17.14
607.053	17.06
607.246	17.02
607.44	17
607.634	16.98
607.827	17.04
608.021	17.02
608.214	17.01
608.408	16.98
608.602	16.92
608.795	16.77
608.989	16.74
609.182	16.59
609.376	16.62
609.569	16.55
609.763	16.47
609.956	16.35
610.15	16.36
610.343	16.22
610.537	16.19
610.73	16.19
610.923	16.26
611.117	16.19
611.31	16.12
611.504	16.1
611.697	15.96
611.89	15.79
612.083	15.64
612.277	15.63
612.47	15.53
612.663	15.51
612.856	15.5
613.05	15.49
613.243	15.37
613.436	15.21
613.629	15.09
613.822	14.97
614.015	14.93
614.209	14.8
614.402	14.8
614.595	14.79
614.788	14.76
614.981	14.61
615.174	14.52
615.367	14.42
615.56	14.26
615.753	14.22
615.946	14.18
616.139	14.2
616.332	14.4
616.525	14.45
616.718	14.44
616.911	14.44
617.103	14.42
617.296	14.2
617.489	14.12
617.682	13.98
617.875	13.93
618.067	13.84
618.26	13.74
618.453	13.8
618.646	13.85
618.838	13.87
619.031	14.01
619.224	14.01
619.417	14.01
619.609	14.01
619.802	13.93
619.994	13.88
620.187	13.83
620.38	13.74
620.572	13.61
620.765	13.62
620.957	13.4
621.15	13.35
621.342	13.27
621.535	13.38
621.727	13.29
621.92	13.3
622.112	13.27
622.305	13.33
622.497	13.13
622.69	13.12
622.882	13.08
623.074	13.16
623.267	13.07
623.459	13.07
623.651	12.94
623.844	12.96
624.036	12.94
624.228	12.86
624.42	12.91
624.613	13.12
624.805	13.13
624.997	13.05
625.189	13.07
625.381	13.03
625.574	12.84
625.766	12.71
625.958	12.72
626.15	12.78
626.342	12.76
626.534	12.9
626.726	12.96
626.918	13
627.11	12.91
627.302	12.89
627.494	12.73
627.686	12.72
627.878	12.58
628.07	12.56
628.262	12.45
628.454	12.61
628.646	12.58
628.838	12.66
629.029	12.58
629.221	12.71
629.413	12.47
629.605	12.37
629.797	12.22
629.989	12.27
630.18	12.16
630.372	12.13
630.564	12.14
630.755	12.23
630.947	12.2
631.139	12.02
631.33	12.02
631.522	12.12
631.714	12.04
631.905	11.98
632.097	11.98
632.289	12
632.48	11.83
632.672	11.73
632.863	11.62
633.055	11.67
633.246	11.66
633.438	11.65
633.629	11.66
633.821	11.73
634.012	11.73
634.203	11.61
634.395	11.61
634.586	11.6
634.777	11.49
634.969	11.41
635.16	11.48
635.351	11.43
635.543	11.37
635.734	11.42
635.925	11.44
636.117	11.46
636.308	11.47
636.499	11.46
636.69	11.33
636.881	11.38
637.073	11.46
637.264	11.42
637.455	11.45
637.646	11.58
637.837	11.51
638.028	11.32
638.219	11.42
638.41	11.32
638.601	11.18
638.792	11.16
638.983	11.12
639.174	10.88
639.365	10.99
639.556	10.99
639.747	10.94
639.938	11.03
640.129	11.1
640.32	10.99
640.511	11.05
640.701	11.17
640.892	11.1
641.083	11.16
641.274	11.19
641.465	11.18
641.655	11.03
641.846	10.99
642.037	10.84
642.228	10.76
642.418	10.82
642.609	10.79
642.8	10.79
642.99	10.75
643.181	10.86
643.372	10.75
643.562	10.8
643.753	10.7
643.943	10.62
644.134	10.45
644.324	10.37
644.515	10.32
644.705	10.38
644.896	10.51
645.086	10.57
645.277	10.51
645.467	10.49
645.658	10.35
645.848	10.35
646.038	10.31
646.229	10.35
646.419	10.3
646.61	10.32
646.8	10.29
646.99	10.23
647.18	10.14
647.371	10.19
647.561	10.12
647.751	10.11
647.941	10.07
648.132	10.14
648.322	10.07
648.512	10.22
648.702	10.2
648.892	10.18
649.082	10.19
649.272	10.08
649.462	9.91
649.653	9.75
649.843	9.73
650.033	9.7
650.223	9.74
650.413	9.73
650.603	9.79
650.793	9.86
650.983	9.77
651.172	9.7
651.362	9.72
651.552	9.62
651.742	9.52
651.932	9.48
652.122	9.51
652.312	9.59
652.502	9.6
652.691	9.61
652.881	9.62
653.071	9.55
653.261	9.35
653.45	9.22
653.64	9.17
653.83	9.01
654.019	8.9
654.209	8.89
654.399	8.94
654.588	8.87
654.778	8.83
654.968	8.75
655.157	8.68
655.347	8.61
655.536	8.46
655.726	8.42
655.915	8.36
656.105	8.23
656.294	8.12
656.484	7.9
656.673	7.76
656.863	7.72
657.052	7.56
657.241	7.43
657.431	7.34
657.62	7.23
657.809	6.95
657.999	6.87
658.188	6.68
658.377	6.52
658.567	6.44
658.756	6.34
658.945	6.19
659.134	6.05
659.324	5.99
659.513	5.87
659.702	5.8
659.891	5.72
660.08	5.68
660.269	5.69
660.458	5.54
660.648	5.56
660.837	5.43
661.026	5.41
661.215	5.26
661.404	5.1
661.593	5
661.782	4.86
661.971	4.74
662.16	4.65
662.349	4.64
662.538	4.47
662.726	4.48
662.915	4.33
663.104	4.23
663.293	4.28
663.482	4.34
663.671	4.29
663.86	4.25
664.048	4.2
664.237	4.16
664.426	3.94
664.615	3.88
664.803	3.87
664.992	3.76
665.181	3.69
665.369	3.67
665.558	3.53
665.747	3.47
665.935	3.56
666.124	3.6
666.312	3.64
666.501	3.69
666.69	3.61
666.878	3.55
667.067	3.35
667.255	3.44
667.444	3.74
667.632	3.76
667.82	3.88
668.009	3.94
668.197	3.8
668.386	3.62
668.574	3.72
668.762	3.62
668.951	3.64
669.139	3.63
669.327	3.48
669.516	3.6
669.704	3.56
669.892	3.65
670.08	3.72
670.269	3.74
670.457	3.49
670.645	3.41
670.833	3.52
671.021	3.51
671.21	3.59
671.398	3.87
671.586	3.94
671.774	3.71
671.962	3.7
672.15	3.7
672.338	3.57
672.526	3.6
672.714	3.56
672.902	3.61
673.09	3.79
673.278	4.01
673.466	4.1
673.654	4.36
673.842	4.4
674.03	4.41
674.218	4.24
674.405	4.26
674.593	4.09
674.781	4.23
674.969	4.23
675.157	4.39
675.344	4.57
675.532	4.69
675.72	4.7
675.908	4.7
676.095	4.63
676.283	4.53
676.471	4.76
676.658	4.76
676.846	4.8
677.033	4.9
677.221	5.01
677.409	4.83
677.596	4.89
677.784	4.87
677.971	4.93
678.159	4.97
678.346	5.08
678.534	5.14
678.721	5.4
678.909	5.44
679.096	5.52
679.283	5.7
679.471	5.74
679.658	5.73
679.846	5.95
680.033	6.18
680.22	6.19
680.408	6.19
680.595	6.3
680.782	6.18
680.969	6.2
681.157	6.26
681.344	6.38
681.531	6.36
681.718	6.36
681.905	6.44
682.093	6.58
682.28	6.75
682.467	7.01
682.654	7.22
682.841	7.25
683.028	7.37
683.215	7.48
683.402	7.4
683.589	7.5
683.776	7.73
683.963	7.67
684.15	7.96
684.337	8.14
684.524	8.34
684.711	8.44
684.898	8.57
685.085	8.57
685.271	8.97
685.458	9.09
685.645	9.14
685.832	9.56
686.019	9.84
686.205	9.81
686.392	10.08
686.579	10.48
686.766	10.77
686.952	11.01
687.139	11.56
687.326	11.66
687.512	11.89
687.699	12.07
687.886	12.34
688.072	12.41
688.259	13.02
688.445	13.58
688.632	13.88
688.818	14.49
689.005	14.89
689.191	15.23
689.378	15.66
689.564	16.26
689.751	16.53
689.937	17.11
690.124	17.6
690.31	17.81
690.496	18.17
690.683	18.7
690.869	19.13
691.055	19.51
691.242	20.33
691.428	21.07
691.614	21.58
691.8	22.31
691.987	22.97
692.173	23.53
692.359	24.02
692.545	24.75
692.731	25.19
692.918	25.99
693.104	26.49
693.29	27.26
693.476	27.77
693.662	28.51
693.848	28.95
694.034	29.49
694.22	29.9
694.406	30.57
694.592	31.38
694.778	32.01
694.964	32.68
695.15	33.49
695.336	34.2
695.522	35.06
695.708	35.71
695.894	36.51
696.08	37.22
696.265	37.95
696.451	38.44
696.637	39.2
696.823	39.67
697.009	39.99
697.194	40.32
697.38	40.66
697.566	41.21
697.751	42.1
697.937	43.02
698.123	43.89
698.308	44.74
698.494	45.28
698.68	45.91
698.865	46.29
699.051	46.98
699.236	47.51
699.422	47.98
699.607	48.14
699.793	48.86
699.978	49.19
700.164	49.62
700.349	50.56
700.535	50.86
700.72	51.09
700.906	51.8
701.091	52.38
701.276	52.68
701.462	53.9
701.647	55.05
701.832	55.37
702.018	55.67
702.203	55.88
702.388	55.9
702.573	55.85
702.759	56.46
702.944	56.75
703.129	57.3
703.314	57.97
703.499	58.23
703.684	58.73
703.87	59.82
704.055	60.76
704.24	61.17
704.425	62.05
704.61	62.4
704.795	62.24
704.98	62.33
705.165	62.46
705.35	62.6
705.535	62.92
705.72	63.52
705.905	63.98
706.09	64.41
706.275	64.64
706.459	64.77
706.644	64.78
706.829	65.18
707.014	65.36
707.199	65.79
707.384	66.34
707.568	66.59
707.753	67.14
707.938	67.97
708.123	68.09
708.307	68.29
708.492	68.63
708.677	68.55
708.861	68.16
709.046	68.15
709.231	68.64
709.415	69.09
709.6	69.09
709.784	69.61
709.969	70.24
710.153	69.88
710.338	69.83
710.522	70.36
710.707	70.64
710.891	70.65
711.076	70.78
711.26	70.55
711.445	70.61
711.629	70.86
711.813	70.89
711.998	71.58
712.182	72.25
712.366	73
712.551	73.71
712.735	74.43
712.919	74.13
713.103	74.79
713.288	74.17
713.472	73.56
713.656	73.85
713.84	74.57
714.024	74.48
714.208	74.56
714.393	75.13
714.577	74.98
714.761	74.87
714.945	74.79
715.129	75.19
715.313	75.04
715.497	75.65
715.681	76.19
715.865	76.55
716.049	76.52
716.233	76.38
716.417	76.14
716.601	75.8
716.785	75.72
716.968	76.05
717.152	76.52
717.336	76.84
717.52	76.7
717.704	76.55
717.888	76.82
718.071	76.95
718.255	76.74
718.439	77.1
718.622	77.61
718.806	77.71
718.99	77.38
719.174	77.56
719.357	77.92
719.541	78
719.724	77.9
719.908	78.74
720.092	79.3
720.275	79.76
720.459	79.48
720.642	78.8
720.826	78.07
721.009	77.53
721.193	76.54
721.376	77.2
721.559	78.25
721.743	78.93
721.926	79.23
722.11	79.97
722.293	79.45
722.476	79.21
722.66	79.27
722.843	78.87
723.026	78.19
723.21	79.18
723.393	80.16
723.576	79.93
723.759	80.34
723.942	80.91
724.126	80.53
724.309	80.12
724.492	80.29
724.675	80.34
724.858	80.76
725.041	81.03
725.224	81.11
725.407	81.04
725.59	81.59
725.774	81.5
725.957	80.45
726.14	80.42
726.322	81.24
726.505	81.02
726.688	81.18
726.871	81.87
727.054	82.29
727.237	81.88
727.42	82.43
727.603	82.76
727.786	83.03
727.968	82.81
728.151	82.77
728.334	82.45
728.517	82.45
728.699	82.81
728.882	82.46
729.065	83.22
729.248	83.25
729.43	83.31
729.613	84.02
729.796	84.9
729.978	83.83
730.161	83.86
730.343	83.85
730.526	84.05
730.708	83.02
730.891	83.77
731.073	83.55
731.256	83.29
731.438	82.9
731.621	84.18
731.803	84.12
731.986	84.33
732.168	84.28
732.35	84.11
732.533	84.1
732.715	83.99
732.898	84.98
733.08	84.91
733.262	85.01
733.444	84.14
733.627	84.56
733.809	84.5
733.991	85.83
734.173	85.87
734.355	85.95
734.538	86.59
734.72	85.7
734.902	85.34
735.084	85.53
735.266	86.16
735.448	85.93
735.63	86.4
735.812	85.66
735.994	86.82
736.176	87.26
736.358	86.71
736.54	87.61
736.722	87.82
736.904	86.45
737.086	85.55
737.268	86.68
737.45	86.8
737.632	87.42
737.814	86.83
737.995	87.13
738.177	87.18
738.359	86.05
738.541	85.89
738.723	87.07
738.904	87.66
739.086	87.26
739.268	86.81
739.449	87.49
739.631	87.59
739.813	87.65
739.994	87.84
740.176	89.49
740.358	88.73
740.539	89.21
740.721	89.39
740.902	89.81
741.084	88.88
741.265	88.3
741.447	88.12
741.628	88.02
741.81	86.63
741.991	87.24
742.172	89.02
742.354	89.3
742.535	89.23
742.717	89.63
742.898	89.34
743.079	89.41
743.261	89.08
743.442	88.75
743.623	90.83
743.804	90.54
743.986	90.8
744.167	88.23
744.348	88.45
744.529	87.01
744.71	87.02
744.891	85.4
745.073	87.27
745.254	86.5
745.435	86.78
745.616	86.92
745.797	87.34
745.978	86.72
746.159	88.13
746.34	86.83
746.521	87.98
746.702	86.69
746.883	87.92
747.064	86.46
747.245	86.9
747.426	85.7
747.606	87.23
747.787	86.15
747.968	87.19
748.149	87.49
748.33	88.27
748.51	87.96
748.691	88.3
748.872	88.8
749.053	87.84
749.233	86.89
749.414	86.54
749.595	84.87
749.775	83.22
749.956	83.05
750.137	83.43
750.317	84.54
750.498	87.4
750.678	88.22
750.859	89.35
751.04	89.59
751.22	89
751.4	88.06
751.581	87.01
751.761	86.73
751.942	86.97
752.122	86.19
752.303	84.12
752.483	84.77
752.663	84.72
752.844	83.82
753.024	85.39
753.204	87.55
753.385	86.62
753.565	86.62
753.745	86.83
753.925	85.31
754.106	84.12
754.286	85.3
754.466	84.48
754.646	84.81
754.826	84.07
755.006	83.69
755.187	83.68
755.367	84.9
755.547	85.74
755.727	87.84
755.907	88.84
756.087	89.22
756.267	88.15
756.447	86.97
756.627	85.56
756.807	85.92
756.987	85.06
757.167	86.03
757.346	85.44
757.526	84.2
757.706	85.25
757.886	85.79
758.066	85.65
758.246	87.38
758.425	87.46
758.605	83.7
758.785	84.28
758.965	83.97
759.144	81.6
759.324	82.9
759.504	85.96
759.683	85.18
759.863	83.15
760.043	83.3
760.222	82.18
760.402	80.22
760.581	79.14
760.761	82.81
760.94	81.36
761.12	84.25
761.299	85.98
761.479	86.37
761.658	83.64
761.838	84.25
762.017	82.33
762.197	82.5
762.376	83.78
762.555	84.95
762.735	86.73
762.914	84.93
763.093	84.95
763.273	82.87
763.452	82.26
763.631	81.44
763.81	81.69
763.99	80.5
764.169	81.77
764.348	80.09
764.527	79.24
764.706	81.88
764.885	83.44
765.064	81.31
765.243	83.06
765.423	83.9
765.602	82.57
765.781	81.43
765.96	81.38
766.139	80.93
766.318	82.41
766.497	82.5
766.676	82.18
766.854	84.32
767.033	84.33
767.212	81.92
767.391	82.06
767.57	82.08
767.749	82.99
767.928	83.28
768.106	83.56
768.285	80.56
768.464	80.34
768.643	78.6
768.821	78.31
769	79.43
769.179	80.33
769.357	79
769.536	78.77
769.715	77.9
769.893	78.44
770.072	78.34
770.25	78.24
770.429	78.62
770.607	78.82
770.786	76.82
770.964	78.38
771.143	78.65
771.321	80.84
771.5	83.11
771.678	81.72
771.857	79.95
772.035	81.75
772.213	78.79
772.392	75.19
772.57	79.03
772.748	81.1
772.927	79.28
773.105	79.49
773.283	81.74
773.461	81.65
773.64	82.52
773.818	83.61
773.996	86.2
774.174	83.1
774.352	79.45
774.531	75.59
774.709	77.23
774.887	74.45
775.065	74.77
775.243	76.51
775.421	77.85
775.599	77.58
775.777	76.47
775.955	74.98
776.133	71.1
776.311	70.66
776.489	65.92
776.667	66.66
776.844	69.27
777.022	70.67
777.2	71.99
777.378	73.13
777.556	74.87
777.734	76.45
777.911	79.52
778.089	78.08
778.267	79.11
778.445	76.94
778.622	75.52
778.8	74.74
778.978	76.12
779.155	74.72
779.333	75.57
779.511	74.84
779.688	76.5
779.866	71.33
780.043	70.75
780.221	71.29
780.398	71.57
780.576	72.19
780.753	75.91
780.931	76.39
781.108	74.11
781.286	75.44
781.463	70.03
781.64	67.1
781.818	70.25
781.995	74.74
782.172	72.91
782.35	75.18
782.527	80.36
782.704	76.29
782.882	74.06
783.059	73.2
783.236	75.97
783.413	73.77
783.59	76.44
783.768	73.71
783.945	77.89
784.122	76.89
784.299	77.43
784.476	74.69
784.653	75.02
784.83	69.59
785.007	66.29
785.184	68.26
785.361	68.49
785.538	71.69
785.715	78.46
785.892	78.41
786.069	78.77
786.246	83.07
786.423	82.06
786.6	78.31
786.776	82.49
786.953	78.11
787.13	78.15
787.307	76.54
787.484	76.29
787.66	72.34
787.837	74.13
788.014	70.95
788.191	70.77
788.367	69.55
788.544	73.56
788.721	72.27
788.897	74.26
789.074	74.77
789.25	74.37
789.427	71
789.603	70.82
789.78	69.38
789.956	70.47
790.133	68.25
790.309	70.09
790.486	72.78
790.662	70.41
790.839	68.64
791.015	71.65
791.192	69.94
791.368	69.74
791.544	69.51
791.721	70.91
791.897	70.59
792.073	67.27
792.249	62.5
792.426	66.61
792.602	66.4
792.778	65.08
792.954	67
793.13	67.3
793.307	59.52
793.483	55.73
793.659	55.76
793.835	58.23
794.011	52.32
794.187	54.5
794.363	52.15
794.539	56.63
794.715	51.57
794.891	60.72
795.067	60.09
795.243	66.58
795.419	61.79
795.595	61.7
795.771	58.76
795.947	62.93
796.122	60.11
796.298	68.53
796.474	73.31
796.65	73.88
796.826	69.21
797.001	68.93
797.177	60.56
797.353	60.35
797.529	65.53
797.704	67.8
797.88	68.38
798.056	61.61
798.231	60.18
798.407	58.42
798.582	57.82
798.758	63.16
798.934	78.66
799.109	75.54
799.285	69.26
799.46	74.22
799.636	67.88
799.811	62.62
799.986	66.01
800.162	71.85
800.337	72.58
800.513	69.56
800.688	65
800.863	76.03
801.039	66.52
801.214	57.77
801.389	61.64
801.565	64.44
801.74	46.7
801.915	59.71
802.09	63.87
802.265	71.66
802.441	71.56
802.616	73.16
802.791	72.89
802.966	72.56
803.141	61.5
803.316	53.33
803.491	61.01
803.666	62.97
803.841	59.04
804.016	64.26
804.191	71.83
804.366	64.42
804.541	54.16
804.716	55.04
804.891	53.73
805.066	58.63
805.241	60.4
805.416	63.16
805.591	62.05
805.765	64.78
805.94	66.76
806.115	64.99
806.29	55.79
806.464	55.66
806.639	49.62
806.814	43.68
806.989	30.85
807.163	49.6
807.338	52.37
807.512	54.68
807.687	44.23
807.862	67.54
808.036	63.97
808.211	74.57
808.385	76.22
808.56	91.81
808.734	94.48
808.909	89.5
809.083	68.64
809.258	81.82
809.432	74.81
809.606	56.11
809.781	56.27
809.955	68.4
810.13	61.97
810.304	58.49
810.478	55.68
810.652	62.43
810.827	58.71
811.001	46.06
811.175	45.36
811.349	49.28
811.524	41.06
811.698	26.66
811.872	35.92
812.046	45.75
812.22	60.86
812.394	55.58
812.568	69.24
812.742	73.19
812.916	65.17
813.09	50.14
813.264	50.33
813.438	57.27
813.612	45.73
813.786	42.53
813.96	52.58
814.134	56.93
814.308	56.58
814.482	69.29
814.656	66.71
814.83	68.33
815.003	70.93
815.177	74.09
815.351	65.82
815.525	66.54
815.698	59.72
815.872	51.3
816.046	23.48
816.219	32.83
816.393	42.32
816.567	50.06
816.74	55.95
816.914	67.64
817.088	67.4
817.261	57.21
817.435	40.24
817.608	44.66
817.782	35.28
817.955	36.56
818.129	33.13
818.302	50.92
818.475	59.26
818.649	64.71
818.822	49
818.996	72.1
819.169	63.73
819.342	42.27
819.516	49.89
819.689	61.09
819.862	47.56
820.035	39.35
820.209	44.21
820.382	45.2
820.555	49.96
820.728	38.57
820.901	44.33
821.075	44.97
821.248	45.72
821.421	23.4
821.594	32.1
821.767	50.08
821.94	67.85
822.113	44.56
822.286	51.49
822.459	58.9
822.632	31.29
822.805	15.25
822.978	25.81
823.151	23.64
823.324	-2.27
823.496	-11.17
823.669	-15.2
823.842	-7.24
824.015	-12.38
824.188	5.11
824.361	21.49
824.533	19.3
824.706	26.91
824.879	32.51
825.051	38.08
825.224	41.21
825.397	37
825.569	15.63
825.742	22.69
825.915	32.11
826.087	29.22
826.26	17.97
826.432	22.58
826.605	21.1
826.777	11.65
826.95	20.84
827.122	20.55
827.295	36.32
827.467	43.91
827.64	20.18
827.812	2.03
827.984	13.14
828.157	-13.71
828.329	-60.41
828.501	-19.35
828.674	14.75
828.846	-0.43
829.018	27.52
829.19	28.8
829.363	48.69
829.535	38.62
829.707	46.71
829.879	32.48
830.051	29.67
830.223	13.11
830.395	-1.96
830.568	-5.39
830.74	-20.69
830.912	16.82
831.084	3.41
831.256	3.85
831.428	9.8
831.6	-4.73
831.772	-51.65
831.943	-61.43
832.115	-24.06
832.287	-19.62
832.459	-0.18
832.631	20.99
832.803	43.68
832.975	33.13
833.146	32.79
833.318	33.04
833.49	36.59
833.662	24.55
833.833	4.96
834.005	8.32
834.177	22.02
834.348	27.52
834.52	15.81
834.692	47.21
834.863	41.17
835.035	19.89
835.206	-48.93
835.378	-8.36
835.549	-31.41
835.721	-6.35
835.892	-19.18
836.064	2.76
836.235	2.76
836.407	40.73
836.578	12.57
836.749	19.25
836.921	-14.04
837.092	-61.68
837.264	-81.25
837.435	-93.93
837.606	-19.42
837.777	29.57
837.949	51.1
838.12	56.82
838.291	67.97
838.462	49.03
838.633	9.37
838.805	-3.03
838.976	9.23
839.147	-21.54
839.318	-45.78
839.489	-60.37
839.66	-43.44
839.831	-23.92
840.002	-3.14
840.173	-14.61
840.344	30.15
840.515	67.93
840.686	-50.57
840.857	-104.87
841.028	-107.96
841.199	-92.99
841.369	-104.29
841.54	-77.53
841.711	-24.64
841.882	32.16
842.053	6.51
842.223	-19.14
842.394	7.98
842.565	19.42
842.736	10.35
842.906	25.45
843.077	42.38
843.248	57.21
843.418	48.08
843.589	21.37
843.759	82.62
843.93	72.33
844.101	31.49
844.271	16.28
844.442	51.17
844.612	62.48
844.783	40.6
844.953	23.06
845.123	65.44
845.294	24.18
845.464	-172.01
845.635	-41.93
845.805	25.91
845.975	4.81
846.146	-34.19
846.316	-19.77
846.486	11.1
846.656	43.79
846.827	48.39
846.997	49.05
847.167	66.81
847.337	31.6
847.507	-22.37
847.677	-15.64
847.848	34.67
848.018	39.44
848.188	52.2
848.358	35.93
848.528	7.17
848.698	-23.93
848.868	-118.38
849.038	-231.99
849.208	-65.58
849.378	0.74
849.548	-13.45
849.718	7.81
849.887	22.61
850.057	6.35
850.227	-21.32
850.397	-35.36
850.567	-153.29
850.737	-403.15
850.906	-1301.56
851.076	-872.07
851.246	-300.13
851.415	7.48
851.585	15.33
851.755	-20.62
851.924	22
852.094	-19.03
852.264	-117.53
852.433	-1263.7
852.603	-212.44
852.772	-246.84
852.942	-111.02
853.111	-80.21
853.281	-15.49
853.45	2.88
853.62	-69.97
853.789	-85.64
853.959	-72.19
854.128	-66.02
854.297	-60.49
854.467	-74.06
854.636	-29.77
854.805	-1.64
854.975	-28.71
855.144	-123.36
855.313	27.1
855.482	-368.07
855.652	-255.72
855.821	-170.13
855.99	1.46
856.159	26.77
856.328	32.16
856.497	27.27
856.667	29.04
856.836	27.76
857.005	-2.35
857.174	-29.27
857.343	-58.46
857.512	-37.54
857.681	-86.87
857.85	-173.37
858.019	-75.62
858.188	-65.14
858.356	-82.62
858.525	-161
858.694	-111.85
858.863	-262.47
859.032	-170.8
859.201	-180.97
859.369	-52.87
859.538	-41.54
859.707	-16.19
859.876	-58.94
860.044	-87.43
860.213	-6.96
860.382	-23.32
860.55	-12.12
860.719	24.31
860.888	37.13
861.056	5.4
861.225	-2.77
861.393	41.39
861.562	64.82
861.73	-45.75
861.899	-271.86
862.067	-2793.97
862.236	-200.53
862.404	-442.72
862.572	-177.65
862.741	-34.96
862.909	-40.64
863.078	-134.12
863.246	-66.66
863.414	-54.17
863.582	-17.05
863.751	11.88
863.919	-13.38
864.087	67.77
864.255	31.2
864.424	-249.9
864.592	14.27
864.76	96.23
864.928	93.4
865.096	52.47
865.264	79.18
865.432	-730.11
865.6	4.38
865.768	-84.52
865.936	-121.11
866.104	-164.42
866.272	-196.02
866.44	-463.09
866.608	528.4
866.776	258.38
866.944	1961.05
867.112	-317.9
867.28	-146.65
867.448	-42.52
867.615	33.54
867.783	54.73
867.951	35.05
868.119	106.23
868.286	83.89
868.454	-65.41
868.622	-79.53
868.789	-79.04
868.957	-2058.93
869.125	-1666.45
869.292	-78.93
869.46	-192.27
869.627	-10.01
869.795	-41.08
869.963	-7.76
870.13	15.77
870.298	29.23
870.465	-71.5
870.632	-74.67
870.8	-79.12
870.967	-141
871.135	-193.58
871.302	-139.46
871.469	-165.98
871.637	-228.56
871.804	-146.39
871.971	-174.36
872.139	-573.6
872.306	-68.13
872.473	-71.5
872.64	-276.93
872.807	-67.29
872.975	60.33
873.142	-74.27
873.309	1062.84
873.476	128.68
873.643	219.32
873.81	137.57
873.977	135.25
874.144	129.55
874.311	4.88
874.478	-101.23
874.645	-135.51
874.812	-80.19
874.979	-56.15
875.146	-51.09
875.313	-53.99
875.48	50.03
875.647	7.53
875.813	-22.96
875.98	-13.05
876.147	-48.18
876.314	-130.14
876.481	1001.86
876.647	-1331.74
876.814	382.51
876.981	97.98
877.147	-30.51
877.314	2.12
877.481	48
877.647	29.98
877.814	-20.46
877.98	-24.61
878.147	48.57
878.314	70.05
878.48	14.69
878.647	31.85
878.813	72.06
878.979	26.32
879.146	-27
879.312	-9.4
879.479	-48.38
879.645	-152.61
879.811	-266.01
879.978	-526.91
880.144	-141.64
880.31	-62.29
880.477	-290.05
880.643	-281.07
880.809	-102.17
880.975	-61.44
881.142	-872.95
881.308	-104.93
881.474	-81.33
881.64	-136.94
881.806	-208.87
881.972	-65.98
882.138	-19.5
882.304	-26.87
882.47	-140.92
882.636	-851.02
882.802	-260.91
882.968	-27.52
883.134	-30.06
883.3	-16.21
883.466	50.13
883.632	88.59
883.798	16.42
883.964	13.13
884.129	28.2
884.295	56.74
884.461	-9.44
884.627	-2.26
884.793	9.27
884.958	26.6
885.124	-89.48
885.29	-215.22
885.455	-393.33
885.621	-156.37
885.787	-235.28
885.952	-82.05
886.118	-86.9
886.283	-62.8
886.449	-145.97
886.614	-181.65
886.78	-399.33
886.945	1416.8
887.111	-792.63
887.276	-685.37
887.442	-1262.95
887.607	-542.1
887.773	-359.32
887.938	-260.12
888.103	-342.8
888.269	-131.1
888.434	-245
888.599	-56.22
888.764	34.52
888.93	66.72
889.095	23.18
889.26	-18.39
889.425	-20.61
889.59	-37.82
889.756	-107.19
889.921	-68.65
890.086	2.46
890.251	10.63
890.416	-150.4
890.581	-1006.85
890.746	161.87
890.911	506.53
891.076	222.23
891.241	-320.34
891.406	18.32
891.571	8.47
891.736	-251.95
891.901	-578.98
892.065	903.57
892.23	210.24
892.395	316.49
892.56	417.99
892.725	-290.82
892.889	-593.29
893.054	-63.49
893.219	16.92
893.384	76.49
893.548	-8.51
893.713	-29.16
893.878	-18.81
