Data from Ofra_PS_T2_1A_2HS17_Reflection_4.txt Node
Date: Wed Jul 21 18:02:02 EDT 2021
User: Adam
Spectrometer: FLMT01687
Trigger mode: 0
Integration Time (sec): 1.100000E0
Scans to average: 2
Electric dark correction enabled: true
Nonlinearity correction enabled: false
Boxcar width: 2
XAxis mode: Wavelengths
Number of Pixels in Spectrum: 3648
>>>>>Begin Spectral Data<<<<<
179.494	676.8
179.716	755.29
179.937	705.24
180.158	669.75
180.38	1070.62
180.601	353.04
180.823	35.29
181.044	-214.69
181.265	-33.09
181.486	12.06
181.708	65.13
181.929	734.69
182.15	-633.8
182.372	97.3
182.593	-16.72
182.814	8.26
183.035	98.61
183.257	60.09
183.478	-15.96
183.699	78.37
183.92	30.48
184.141	-20.96
184.363	-67.23
184.584	-16.5
184.805	-20.02
185.026	18.65
185.247	37.14
185.468	30.97
185.689	32.34
185.91	40.73
186.132	33.09
186.353	13.62
186.574	63.68
186.795	42.67
187.016	-23.08
187.237	-47.1
187.458	-82.23
187.679	-75.98
187.9	-47.01
188.121	-27.8
188.342	-4.46
188.563	30.5
188.784	29.96
189.005	-14.52
189.226	28.85
189.447	-4.31
189.667	-365.53
189.888	-607.39
190.109	-1827.27
190.33	-960
190.551	-1590.27
190.772	-307.99
190.993	-241.29
191.214	-128.38
191.434	-76.37
191.655	8.47
191.876	-65.01
192.097	-100.17
192.318	-173.98
192.538	-271.85
192.759	-212.36
192.98	-72.35
193.201	-25.8
193.421	4.51
193.642	23.22
193.863	41.27
194.083	10.14
194.304	-1.36
194.525	-5.29
194.745	-37.38
194.966	-72.75
195.187	-69.38
195.407	-108.83
195.628	-195.42
195.848	-198.38
196.069	-176.85
196.29	-143.57
196.51	-110.12
196.731	-81.76
196.951	-98.66
197.172	-115.16
197.392	-120.95
197.613	-157.18
197.833	-202.08
198.054	-175.84
198.274	-122.11
198.495	-122.54
198.715	-63.89
198.936	-65.9
199.156	-49.91
199.377	-134.26
199.597	-156.45
199.817	-182.62
200.038	-102.38
200.258	-154.57
200.479	-58.31
200.699	-21.2
200.919	28.22
201.14	1.39
201.36	5.87
201.58	28.11
201.801	49.95
202.021	14.81
202.241	13.44
202.461	3.86
202.682	-101.89
202.902	-187.9
203.122	-120.5
203.342	-103.11
203.563	-55.26
203.783	-13.77
204.003	-55.34
204.223	-68.76
204.443	-22.24
204.663	-86.74
204.884	-70.15
205.104	-23.12
205.324	15.16
205.544	19.32
205.764	55.92
205.984	51.3
206.204	53.63
206.424	32.08
206.644	7.76
206.864	7.66
207.084	-32.05
207.304	-51.59
207.525	-154.69
207.745	-94.56
207.964	-13.35
208.184	-51.77
208.404	-106.81
208.624	-94.75
208.844	-95.64
209.064	-413.36
209.284	-445.34
209.504	-194.18
209.724	-81.91
209.944	-51.36
210.164	-25.57
210.384	-7.68
210.604	-16.39
210.823	-41.55
211.043	-56.25
211.263	-47.65
211.483	-43.08
211.703	-101.63
211.922	-96.79
212.142	-33.98
212.362	-14.47
212.582	-20.78
212.801	-1.2
213.021	-16.04
213.241	-41.64
213.461	-94.85
213.68	-115.78
213.9	-86.96
214.12	-50.94
214.339	-101.54
214.559	-80.41
214.779	-21.57
214.998	-27.15
215.218	-73.66
215.438	-46.66
215.657	-34.1
215.877	-58.71
216.096	-22.04
216.316	-11.89
216.535	-25.31
216.755	-28.2
216.974	-117.56
217.194	-197.43
217.413	-191.75
217.633	-167.3
217.852	-285.03
218.072	-132.87
218.291	-76.42
218.511	-32.11
218.73	-48.44
218.95	-22.75
219.169	-29.2
219.389	-61.55
219.608	-48.01
219.827	-46.77
220.047	-61.18
220.266	-43.33
220.485	-45.39
220.705	-29.34
220.924	-41.03
221.143	11.15
221.363	-0
221.582	12.59
221.801	22.77
222.021	39.69
222.24	-21.79
222.459	48.02
222.678	31.46
222.897	-56.96
223.117	-95.57
223.336	-57.91
223.555	-43.06
223.774	-0.36
223.993	4.77
224.213	51.69
224.432	23.66
224.651	29.68
224.87	-2.13
225.089	15.47
225.308	11.57
225.527	30.03
225.746	17.17
225.965	17.78
226.184	-7.36
226.404	5.08
226.623	-28.51
226.842	-19.27
227.061	17
227.28	26.35
227.499	-0.17
227.718	25.09
227.936	18.98
228.155	-3.02
228.374	-30.15
228.593	3.05
228.812	-19.62
229.031	-20.06
229.25	-63.93
229.469	-81.74
229.688	-84.17
229.907	-18.28
230.125	-9.92
230.344	4.51
230.563	30.45
230.782	33.72
231.001	-62.2
231.22	-46.89
231.438	5.56
231.657	1.13
231.876	-30.16
232.095	25.52
232.313	12.3
232.532	-45.42
232.751	-76.24
232.969	-67.92
233.188	-163.27
233.407	-55.12
233.625	-36.91
233.844	-53.87
234.063	-37.89
234.281	-16.24
234.5	-26.63
234.719	-16.46
234.937	13.48
235.156	23.95
235.374	18.85
235.593	-0.62
235.811	-10.13
236.03	-21.57
236.249	-63.62
236.467	-53.38
236.686	-18.67
236.904	-6.45
237.123	-30.62
237.341	-24.61
237.559	-8.68
237.778	-27.39
237.996	-53.64
238.215	-17.19
238.433	-5.04
238.652	-28.41
238.87	-38.43
239.088	-23.56
239.307	-17.89
239.525	-21.26
239.743	-36.25
239.962	-30
240.18	-56.01
240.398	-119.83
240.617	-127.43
240.835	-104.18
241.053	-52.05
241.271	9.65
241.49	41.99
241.708	35.13
241.926	23.49
242.144	-22.01
242.363	-69.69
242.581	-104.26
242.799	-58.43
243.017	-18.65
243.235	-30.39
243.453	-25.87
243.672	-21.98
243.89	-20.89
244.108	-44.88
244.326	-16.62
244.544	-14.96
244.762	-6.91
244.98	-20.1
245.198	-0.42
245.416	-42.28
245.634	-31.9
245.852	-56.4
246.07	-67.33
246.288	-66.73
246.506	-74.14
246.724	-60.89
246.942	-45.88
247.16	-6.19
247.378	-15.34
247.596	8.13
247.814	-6.17
248.032	-31.34
248.25	-33.36
248.468	-24.07
248.685	-22.35
248.903	14.01
249.121	9.05
249.339	-23.24
249.557	-36.28
249.775	-32.15
249.992	-108.29
250.21	-84.6
250.428	-52.58
250.646	-56.51
250.863	-68.55
251.081	-33.08
251.299	-20.38
251.517	-23.34
251.734	-38.93
251.952	-48.01
252.17	-38.02
252.387	-19.08
252.605	-27.1
252.823	-21.12
253.04	2.25
253.258	20.87
253.475	11.79
253.693	49.43
253.911	50.12
254.128	49.48
254.346	35.97
254.563	11.2
254.781	-24.81
254.998	-47.47
255.216	-62.88
255.433	-47.91
255.651	-0
255.868	8.03
256.086	48.19
256.303	29.68
256.521	15.1
256.738	-13.64
256.956	-43.23
257.173	-79.57
257.39	-64.05
257.608	-76.29
257.825	-41.85
258.043	13.44
258.26	30.95
258.477	69.4
258.695	50.33
258.912	20.29
259.129	3.59
259.346	-40.7
259.564	-121.07
259.781	-122.31
259.998	-60.75
260.216	-25.48
260.433	14.38
260.65	32.91
260.867	41.25
261.084	-5.31
261.302	-35.15
261.519	-39.72
261.736	-75.68
261.953	-82.66
262.17	-4.77
262.387	-15.48
262.604	-36.98
262.822	-18.22
263.039	0.77
263.256	-62.64
263.473	-59.27
263.69	-42.92
263.907	-1.39
264.124	-3.73
264.341	9.97
264.558	11.57
264.775	15.72
264.992	-3.05
265.209	-6.42
265.426	16.77
265.643	22.06
265.86	32.55
266.077	42.06
266.294	39.51
266.51	-23.2
266.727	-33.12
266.944	-39.08
267.161	-40.94
267.378	-34.05
267.595	4.21
267.812	-20.44
268.028	-32.78
268.245	-23.02
268.462	-47.88
268.679	-60.73
268.896	-6.39
269.112	-7.73
269.329	-15.62
269.546	2.32
269.763	-5.45
269.979	-23.74
270.196	-21.65
270.413	-55.75
270.629	-65.66
270.846	-71.36
271.063	-64.59
271.279	-67.17
271.496	-44.05
271.712	-34.92
271.929	-7.11
272.146	-25.55
272.362	-30.27
272.579	16.22
272.795	15.14
273.012	5.63
273.228	5.43
273.445	-16.48
273.661	-76.82
273.878	-98.16
274.094	-73.83
274.311	-91.76
274.527	-8.29
274.744	-8.56
274.96	-10.74
275.177	-9.25
275.393	2.3
275.609	-25.53
275.826	3.49
276.042	0.51
276.259	-14.13
276.475	-9.27
276.691	-9.08
276.908	-33.77
277.124	-30.46
277.34	-36.44
277.557	-41.74
277.773	-49.47
277.989	-45.73
278.205	-51.18
278.422	-21.2
278.638	-2.47
278.854	32.04
279.07	43.69
279.286	48.39
279.503	13.02
279.719	-12.74
279.935	-72.56
280.151	-87.11
280.367	-53.8
280.583	-69.58
280.799	-47.52
281.016	-48.64
281.232	-22.16
281.448	-23.91
281.664	12.03
281.88	-23.38
282.096	25.17
282.312	65.29
282.528	71.73
282.744	52.88
282.96	48.27
283.176	10.56
283.392	-18.59
283.608	-16.58
283.824	-15.5
284.04	-6.65
284.256	9.54
284.471	4.31
284.687	-8.07
284.903	8.72
285.119	29.07
285.335	-8.97
285.551	5.05
285.767	-4.95
285.982	-30.38
286.198	-64.77
286.414	7.88
286.63	15.98
286.846	35.29
287.061	20.42
287.277	45.02
287.493	13.57
287.709	16.83
287.924	9.35
288.14	47.98
288.356	46.24
288.571	60.75
288.787	38
289.003	28.04
289.218	3.85
289.434	-35.37
289.65	-32.75
289.865	-35.67
290.081	-11.91
290.296	4.72
290.512	22.12
290.727	-18.92
290.943	-17.97
291.159	-20.15
291.374	-22.79
291.59	-53.7
291.805	-36.5
292.021	-28.25
292.236	-35.59
292.451	-18.98
292.667	-3.54
292.882	17.68
293.098	5.07
293.313	-2.55
293.529	-34.53
293.744	-47.22
293.959	-67.78
294.175	-56.19
294.39	-28.91
294.605	-2.49
294.821	21.87
295.036	26.45
295.251	38.14
295.467	7.55
295.682	-13
295.897	-65.67
296.112	-76.49
296.328	-83.43
296.543	-89.83
296.758	-100.55
296.973	-48.47
297.188	-10.3
297.404	-40.69
297.619	-51.41
297.834	-55.45
298.049	-88.16
298.264	-101.34
298.479	-29.79
298.694	-7.2
298.909	9.77
299.125	26.82
299.34	33.4
299.555	2.28
299.77	-9.87
299.985	-40.13
300.2	-98.29
300.415	-112.03
300.63	-76.8
300.845	-67.91
301.06	-58.21
301.275	-23.53
301.49	-1.68
301.704	-12.49
301.919	-23.51
302.134	-40.41
302.349	-46.48
302.564	-109.07
302.779	-116.63
302.994	-105.8
303.209	-32.88
303.423	-2.07
303.638	38.57
303.853	-10.99
304.068	-15.57
304.283	-16.87
304.497	-19.81
304.712	-36.46
304.927	-15.44
305.142	-18.17
305.356	-16.26
305.571	-19.91
305.786	-27.59
306	-45.96
306.215	-35.5
306.43	-71.25
306.644	-79.96
306.859	-45.14
307.074	-21.5
307.288	-57.75
307.503	-64.6
307.717	-57.53
307.932	-54.29
308.147	-57.13
308.361	-25.11
308.576	-19.48
308.79	-44.2
309.005	-41.66
309.219	-24.64
309.434	-45.43
309.648	-33.48
309.863	-1.57
310.077	-4.23
310.292	-13.52
310.506	-13.48
310.72	-3.81
310.935	-22.97
311.149	-21.55
311.364	7.32
311.578	20.73
311.792	-1.56
312.007	4.28
312.221	-8.36
312.435	-14.69
312.649	-20.93
312.864	8.5
313.078	38.4
313.292	103.94
313.507	88.2
313.721	116.01
313.935	49.47
314.149	28.18
314.363	15.37
314.578	9.88
314.792	3.47
315.006	-19.15
315.22	-2.75
315.434	-13.64
315.648	-8.51
315.862	-3.19
316.077	6.46
316.291	-8.99
316.505	9.94
316.719	13.33
316.933	-12.48
317.147	-30.19
317.361	-78.6
317.575	-106.51
317.789	-139.63
318.003	-216.31
318.217	-147.51
318.431	-46.64
318.645	-2.13
318.859	-5.41
319.073	13.39
319.287	1.18
319.5	-22.92
319.714	-60.69
319.928	-80.93
320.142	-98.86
320.356	-56.85
320.57	-36.92
320.784	-58.13
320.997	-55.16
321.211	-40.47
321.425	-84.4
321.639	-107.44
321.853	-45.13
322.066	-21.17
322.28	-29.2
322.494	-22.62
322.707	-10.96
322.921	-18.86
323.135	-30.68
323.349	-11.35
323.562	-28.11
323.776	-42.53
323.989	-38.8
324.203	-75.89
324.417	-111.64
324.63	-108.84
324.844	-99.47
325.057	-111.37
325.271	-57.21
325.485	-8.31
325.698	18.56
325.912	33.49
326.125	15.14
326.339	6.51
326.552	-24.42
326.766	-24.82
326.979	-4.06
327.193	35.12
327.406	29.6
327.619	25.05
327.833	13.07
328.046	-25.78
328.26	-72.67
328.473	-48.67
328.686	-72.03
328.9	-69.64
329.113	-42.83
329.326	-51.16
329.54	-44.43
329.753	-67.21
329.966	-73.11
330.179	-68.27
330.393	-50.91
330.606	-38.08
330.819	-2.74
331.032	14.53
331.246	17.83
331.459	46.58
331.672	42.43
331.885	31.89
332.098	-4.56
332.311	-13.89
332.525	-63.89
332.738	-57.99
332.951	-30.96
333.164	5.44
333.377	14.77
333.59	30.6
333.803	26.47
334.016	15.51
334.229	8.07
334.442	-6.99
334.655	22.24
334.868	23.63
335.081	25.68
335.294	2.54
335.507	8.21
335.72	-28.1
335.933	-28.69
336.146	-51.17
336.359	-28.02
336.572	-54.1
336.785	-77.88
336.997	-78.51
337.21	-30.63
337.423	-43.23
337.636	-46.95
337.849	-26.06
338.062	-41.72
338.274	-46.79
338.487	-35.29
338.7	-23.56
338.913	-59.1
339.125	-77.43
339.338	-130.56
339.551	-119.89
339.763	-73.58
339.976	-38.83
340.189	-14.98
340.402	4.18
340.614	-4.15
340.827	-19.98
341.039	-37.88
341.252	-27.73
341.465	-20.54
341.677	-28.81
341.89	-68.6
342.102	-33.01
342.315	-57.61
342.527	-115.89
342.74	-108.44
342.952	-47.58
343.165	-53.75
343.377	-21.72
343.59	-5.81
343.802	22.1
344.015	11.43
344.227	28.68
344.44	22.62
344.652	29.83
344.864	13.64
345.077	32.03
345.289	25.77
345.502	31.2
345.714	16.79
345.926	17.87
346.139	3.94
346.351	8.3
346.563	6.15
346.775	26.04
346.988	6.5
347.2	-12.96
347.412	-59.93
347.624	-72.44
347.837	-116.98
348.049	-80.59
348.261	-35.48
348.473	-15.84
348.685	-26.8
348.897	-23.22
349.11	-41.98
349.322	-63.41
349.534	-52.1
349.746	-51.02
349.958	-40.47
350.17	-28.56
350.382	-27.35
350.594	-32.95
350.806	-18.64
351.018	-9.75
351.23	-35.31
351.442	-66.8
351.654	-85.29
351.866	-70.51
352.078	-72.92
352.29	-29.35
352.502	-0.97
352.714	22.29
352.926	6.94
353.138	9.69
353.35	-5.84
353.561	-8.46
353.773	-33.39
353.985	-23.62
354.197	-33.48
354.409	-23.51
354.621	-27.25
354.832	-19.22
355.044	-26.04
355.256	-22.08
355.468	-17.8
355.679	-27.95
355.891	-14.33
356.103	-20.64
356.314	-19.37
356.526	-19.58
356.738	-9.93
356.949	-20.94
357.161	5.69
357.373	7.09
357.584	-12.53
357.796	-6.49
358.008	-15.94
358.219	-15.01
358.431	-22.11
358.642	-5.2
358.854	-1.69
359.065	-9.5
359.277	-40.4
359.488	-46.93
359.7	-69.32
359.911	-81.22
360.123	-50.26
360.334	-59.18
360.546	-64.21
360.757	-60.19
360.969	-38.65
361.18	-43.13
361.391	-12.34
361.603	-24.79
361.814	-19.83
362.025	-31.41
362.237	-42.27
362.448	-34.04
362.659	-14.09
362.871	-14.96
363.082	-18.95
363.293	-3.67
363.504	-13.77
363.716	-27.08
363.927	-37.43
364.138	-63.92
364.349	-77.07
364.56	-75.28
364.772	-66.84
364.983	-35.29
365.194	-23.68
365.405	-14.93
365.616	3.19
365.827	11.56
366.038	-15.97
366.25	-17.08
366.461	-51.67
366.672	-37.73
366.883	-30.25
367.094	-19.31
367.305	-29.4
367.516	-18.87
367.727	-55.57
367.938	-66.01
368.149	-60.41
368.36	-36.42
368.571	-29.49
368.781	-32.82
368.992	-39.36
369.203	-53.67
369.414	-87.09
369.625	-100.78
369.836	-79.91
370.047	-120.45
370.258	-101.05
370.468	-85.46
370.679	-92.5
370.89	-87.63
371.101	-53.64
371.312	-55.9
371.522	-44.97
371.733	-35.63
371.944	-23.04
372.155	-10.8
372.365	-15.92
372.576	-22.48
372.787	-17.42
372.997	-47.78
373.208	-50.02
373.419	-21.28
373.629	-58.21
373.84	-62.53
374.05	-60.03
374.261	-61.69
374.472	-87.92
374.682	-21.65
374.893	-15.37
375.103	29.49
375.314	23.49
375.524	22.75
375.735	18.5
375.945	23.8
376.156	-14.17
376.366	-15.47
376.577	-9.71
376.787	-18.82
376.997	-13.97
377.208	-10.28
377.418	-14.09
377.629	-10.41
377.839	-17.93
378.049	-25.29
378.26	-14.7
378.47	-8.37
378.68	-10.83
378.89	-10.66
379.101	-11.18
379.311	-35
379.521	-66.08
379.732	-72.75
379.942	-63.04
380.152	-78.9
380.362	-45.53
380.572	-30.57
380.783	-8.2
380.993	-0.66
381.203	13.18
381.413	13.65
381.623	19.24
381.833	7.9
382.043	-3.76
382.253	-12.83
382.463	-14.32
382.674	-23.3
382.884	-40.6
383.094	-33.28
383.304	-22.47
383.514	-6.9
383.724	1.2
383.934	-5.41
384.144	-14.21
384.353	-29.49
384.563	-34.66
384.773	-26.18
384.983	-22.09
385.193	-0.74
385.403	7.76
385.613	2.5
385.823	-13.99
386.033	-4.2
386.242	-14.79
386.452	-17.13
386.662	-22.62
386.872	-7.72
387.082	-17.37
387.291	-25.12
387.501	-26.09
387.711	-16.09
387.921	-22.77
388.13	-17.8
388.34	-8.49
388.55	-14.65
388.759	-20.1
388.969	-13.16
389.179	-19.35
389.388	-19.68
389.598	-11
389.807	-12.72
390.017	-18.25
390.227	-13.47
390.436	-15.72
390.646	-14.19
390.855	-11.25
391.065	-9.21
391.274	-10.54
391.484	-10.59
391.693	-9.94
391.903	-7.22
392.112	-2.75
392.322	-0.31
392.531	4.04
392.74	4.68
392.95	-0.83
393.159	-2.28
393.369	-2.05
393.578	-3.34
393.787	-4.98
393.997	-3.31
394.206	-5.54
394.415	-5.35
394.625	-6.92
394.834	-8.21
395.043	-5.76
395.252	-2.68
395.462	0.29
395.671	2
395.88	2.66
396.089	2.8
396.298	1.46
396.508	-0.38
396.717	-0.46
396.926	0.33
397.135	-0.36
397.344	-0.81
397.553	-0.43
397.762	0.89
397.971	1.13
398.181	1.37
398.39	1.2
398.599	1.05
398.808	0.45
399.017	0.78
399.226	1.66
399.435	3.23
399.644	3.36
399.853	2.41
400.062	2.17
400.27	1.53
400.479	0.62
400.688	-0.05
400.897	0.35
401.106	-0.06
401.315	-0.05
401.524	-0.33
401.733	0.41
401.941	0.76
402.15	1.31
402.359	1.12
402.568	1.7
402.777	1.51
402.985	1.04
403.194	0.78
403.403	0.98
403.612	0.54
403.82	0.28
404.029	0.64
404.238	0.47
404.446	0.62
404.655	0.6
404.864	0.52
405.072	0.26
405.281	0.64
405.489	0.47
405.698	0.48
405.906	0.69
406.115	0.8
406.324	0.67
406.532	0.85
406.741	1.13
406.949	1.06
407.158	1.03
407.366	0.97
407.574	0.83
407.783	0.7
407.991	0.51
408.2	0.67
408.408	0.54
408.617	0.47
408.825	0.33
409.033	0.53
409.242	0.55
409.45	0.82
409.658	0.7
409.867	0.95
410.075	0.88
410.283	0.68
410.491	0.56
410.7	0.59
410.908	0.51
411.116	0.83
411.324	0.85
411.533	0.69
411.741	1.12
411.949	1.06
412.157	0.75
412.365	0.81
412.573	1.02
412.781	0.88
412.99	0.88
413.198	1.02
413.406	1.04
413.614	1.04
413.822	0.85
414.03	0.75
414.238	0.61
414.446	0.68
414.654	0.38
414.862	0.49
415.07	0.63
415.278	0.83
415.486	0.69
415.694	0.93
415.902	0.79
416.109	0.65
416.317	0.58
416.525	0.41
416.733	0.39
416.941	0.59
417.149	0.67
417.357	0.74
417.564	1.16
417.772	1.38
417.98	1.2
418.188	1.21
418.395	1.15
418.603	1.18
418.811	0.78
419.019	0.87
419.226	1.08
419.434	1.2
419.642	0.86
419.849	1.06
420.057	1.04
420.265	0.91
420.472	0.67
420.68	0.84
420.887	0.67
421.095	0.71
421.302	0.63
421.51	0.9
421.717	0.99
421.925	1.11
422.132	0.95
422.34	0.74
422.547	0.78
422.755	0.46
422.962	0.42
423.17	0.47
423.377	0.68
423.585	0.53
423.792	0.6
423.999	0.7
424.207	0.66
424.414	0.66
424.621	0.62
424.829	0.67
425.036	0.6
425.243	0.76
425.451	0.72
425.658	0.58
425.865	0.74
426.072	0.72
426.28	0.87
426.487	0.77
426.694	0.9
426.901	0.73
427.108	0.71
427.315	0.52
427.523	0.86
427.73	0.85
427.937	0.79
428.144	0.6
428.351	0.66
428.558	0.69
428.765	0.53
428.972	0.55
429.179	0.77
429.386	0.99
429.593	0.66
429.8	0.65
430.007	0.8
430.214	0.81
430.421	0.55
430.628	0.45
430.835	0.48
431.042	0.59
431.249	0.64
431.456	0.57
431.662	0.79
431.869	1.04
432.076	0.96
432.283	1.09
432.49	1.17
432.697	1.09
432.903	0.74
433.11	0.71
433.317	0.65
433.524	0.94
433.73	0.92
433.937	1.29
434.144	1.18
434.35	1.09
434.557	0.72
434.764	0.72
434.97	0.48
435.177	0.63
435.384	0.61
435.59	0.7
435.797	0.87
436.003	1.03
436.21	0.99
436.416	1.05
436.623	1.06
436.829	1.1
437.036	1.14
437.242	1.16
437.449	1.05
437.655	1.04
437.862	1.03
438.068	0.86
438.275	0.87
438.481	1.06
438.687	1.04
438.894	0.89
439.1	0.99
439.307	1.18
439.513	1.12
439.719	1.13
439.926	1.23
440.132	1.08
440.338	0.83
440.544	1
440.751	0.98
440.957	0.98
441.163	1.01
441.369	1.23
441.575	0.86
441.782	0.93
441.988	0.83
442.194	0.87
442.4	0.83
442.606	1.19
442.812	1.24
443.018	1.44
443.224	1.43
443.431	1.44
443.637	1.12
443.843	0.97
444.049	0.85
444.255	0.8
444.461	0.83
444.667	0.91
444.873	1.06
445.079	1.09
445.284	1.24
445.49	0.92
445.696	0.75
445.902	0.63
446.108	0.56
446.314	0.45
446.52	0.66
446.726	0.95
446.931	0.94
447.137	0.95
447.343	0.96
447.549	0.95
447.755	0.82
447.96	0.85
448.166	0.78
448.372	0.7
448.578	0.66
448.783	0.67
448.989	0.74
449.195	1.03
449.4	1.15
449.606	1.14
449.812	1.09
450.017	1.14
450.223	0.91
450.428	0.86
450.634	0.98
450.84	1.16
451.045	1.07
451.251	1.04
451.456	1.25
451.662	1.26
451.867	1.29
452.073	1.3
452.278	1.45
452.483	1.55
452.689	1.44
452.894	1.35
453.1	1.32
453.305	1.23
453.51	1.04
453.716	1.01
453.921	1.02
454.127	0.96
454.332	0.87
454.537	0.77
454.742	0.8
454.948	0.78
455.153	0.88
455.358	1.07
455.563	1.27
455.769	1.36
455.974	1.39
456.179	1.3
456.384	1.26
456.589	1.11
456.795	0.94
457	0.85
457.205	1.04
457.41	0.94
457.615	0.96
457.82	0.99
458.025	1.03
458.23	0.89
458.435	1.01
458.64	0.87
458.845	1.05
459.05	1.05
459.255	1.05
459.46	0.97
459.665	1.02
459.87	0.94
460.075	0.93
460.28	0.99
460.485	1.11
460.69	1.19
460.895	1.08
461.099	1.07
461.304	1.12
461.509	1.11
461.714	1.05
461.919	1.26
462.123	1.15
462.328	1.12
462.533	0.98
462.738	1.07
462.942	0.95
463.147	1.02
463.352	1.09
463.556	1.18
463.761	1.08
463.966	1.19
464.17	1.24
464.375	1.12
464.58	1.06
464.784	1.05
464.989	0.97
465.193	0.96
465.398	0.99
465.602	1.09
465.807	1.04
466.011	1.04
466.216	1.05
466.42	1.09
466.625	1.13
466.829	1.25
467.034	1.31
467.238	1.5
467.443	1.44
467.647	1.28
467.851	1.3
468.056	1.33
468.26	1.22
468.464	1.27
468.669	1.38
468.873	1.46
469.077	1.43
469.282	1.46
469.486	1.46
469.69	1.46
469.894	1.3
470.099	1.38
470.303	1.48
470.507	1.4
470.711	1.35
470.915	1.37
471.119	1.31
471.324	1.17
471.528	1.22
471.732	1.24
471.936	1.22
472.14	1.22
472.344	1.28
472.548	1.3
472.752	1.48
472.956	1.72
473.16	1.69
473.364	1.53
473.568	1.55
473.772	1.48
473.976	1.37
474.18	1.31
474.384	1.31
474.588	1.28
474.792	1.18
474.995	1.16
475.199	1.28
475.403	1.46
475.607	1.49
475.811	1.47
476.015	1.54
476.218	1.6
476.422	1.47
476.626	1.53
476.83	1.6
477.033	1.53
477.237	1.39
477.441	1.46
477.644	1.4
477.848	1.37
478.052	1.31
478.255	1.37
478.459	1.35
478.663	1.54
478.866	1.55
479.07	1.55
479.273	1.71
479.477	1.75
479.681	1.62
479.884	1.6
480.088	1.58
480.291	1.45
480.495	1.4
480.698	1.38
480.901	1.46
481.105	1.6
481.308	1.61
481.512	1.62
481.715	1.69
481.919	1.66
482.122	1.61
482.325	1.63
482.529	1.7
482.732	1.7
482.935	1.66
483.138	1.57
483.342	1.6
483.545	1.63
483.748	1.64
483.952	1.73
484.155	1.86
484.358	1.82
484.561	1.76
484.764	1.74
484.967	1.77
485.171	1.83
485.374	1.79
485.577	1.85
485.78	1.92
485.983	1.9
486.186	1.79
486.389	1.78
486.592	1.76
486.795	1.75
486.998	1.69
487.201	1.71
487.404	1.81
487.607	1.84
487.81	1.79
488.013	1.88
488.216	1.88
488.419	1.85
488.622	1.77
488.825	1.73
489.028	1.68
489.231	1.67
489.433	1.63
489.636	1.61
489.839	1.6
490.042	1.53
490.245	1.49
490.447	1.55
490.65	1.58
490.853	1.61
491.056	1.7
491.258	1.74
491.461	1.72
491.664	1.8
491.866	1.78
492.069	1.87
492.272	1.84
492.474	1.88
492.677	1.87
492.879	1.93
493.082	1.93
493.285	2.09
493.487	2.05
493.69	1.93
493.892	1.84
494.095	1.78
494.297	1.67
494.5	1.67
494.702	1.76
494.905	1.83
495.107	1.81
495.309	1.79
495.512	1.88
495.714	1.91
495.917	1.93
496.119	1.97
496.321	2.06
496.524	2.05
496.726	2.07
496.928	2.08
497.13	2.03
497.333	2
497.535	2.02
497.737	2
497.939	2.02
498.142	2.09
498.344	2.03
498.546	1.89
498.748	1.89
498.95	1.94
499.152	1.9
499.355	1.98
499.557	2.11
499.759	2.22
499.961	2.17
500.163	2.19
500.365	2.16
500.567	2.23
500.769	2.12
500.971	2.1
501.173	2.03
501.375	2.08
501.577	1.94
501.779	1.92
501.981	1.95
502.183	2.05
502.385	2
502.587	2
502.788	2.09
502.99	2.13
503.192	2.17
503.394	2.13
503.596	2.18
503.798	2.18
503.999	2.18
504.201	2.13
504.403	2.22
504.605	2.29
504.806	2.23
505.008	2.2
505.21	2.28
505.411	2.25
505.613	2.24
505.815	2.27
506.016	2.31
506.218	2.37
506.42	2.38
506.621	2.38
506.823	2.44
507.024	2.39
507.226	2.3
507.427	2.26
507.629	2.31
507.83	2.3
508.032	2.31
508.233	2.42
508.435	2.45
508.636	2.48
508.838	2.43
509.039	2.48
509.24	2.45
509.442	2.46
509.643	2.41
509.845	2.45
510.046	2.5
510.247	2.52
510.448	2.55
510.65	2.59
510.851	2.68
511.052	2.62
511.254	2.62
511.455	2.69
511.656	2.73
511.857	2.77
512.058	2.83
512.26	2.81
512.461	2.72
512.662	2.74
512.863	2.63
513.064	2.63
513.265	2.64
513.466	2.72
513.667	2.71
513.868	2.75
514.069	2.8
514.27	2.9
514.471	2.84
514.672	2.83
514.873	2.77
515.074	2.79
515.275	2.65
515.476	2.7
515.677	2.72
515.878	2.87
516.079	2.83
516.28	2.92
516.481	3.03
516.682	3.06
516.882	3
517.083	2.96
517.284	2.92
517.485	2.84
517.686	2.76
517.886	2.75
518.087	2.81
518.288	2.85
518.488	2.85
518.689	2.93
518.89	2.93
519.091	2.99
519.291	2.99
519.492	3.03
519.692	3.06
519.893	3.15
520.094	3.09
520.294	3.11
520.495	3.09
520.695	3.07
520.896	3.04
521.096	3.12
521.297	3.14
521.497	3.13
521.698	3.13
521.898	3.14
522.099	3.13
522.299	3.21
522.499	3.28
522.7	3.33
522.9	3.31
523.101	3.35
523.301	3.28
523.501	3.23
523.702	3.25
523.902	3.31
524.102	3.35
524.302	3.35
524.503	3.41
524.703	3.41
524.903	3.41
525.103	3.32
525.304	3.41
525.504	3.43
525.704	3.48
525.904	3.46
526.104	3.49
526.304	3.43
526.504	3.46
526.705	3.41
526.905	3.54
527.105	3.53
527.305	3.53
527.505	3.44
527.705	3.47
527.905	3.37
528.105	3.41
528.305	3.36
528.505	3.47
528.705	3.54
528.905	3.51
529.105	3.51
529.304	3.61
529.504	3.65
529.704	3.55
529.904	3.62
530.104	3.62
530.304	3.69
530.503	3.62
530.703	3.62
530.903	3.62
531.103	3.7
531.303	3.63
531.502	3.69
531.702	3.8
531.902	3.81
532.101	3.72
532.301	3.67
532.501	3.66
532.7	3.62
532.9	3.65
533.1	3.75
533.299	3.82
533.499	3.83
533.698	3.8
533.898	3.76
534.097	3.71
534.297	3.78
534.496	3.83
534.696	3.9
534.895	4.01
535.095	4.13
535.294	4.01
535.494	3.9
535.693	3.93
535.892	3.88
536.092	3.79
536.291	3.82
536.491	3.92
536.69	3.9
536.889	3.9
537.088	3.91
537.288	3.98
537.487	4.08
537.686	4.07
537.886	4.11
538.085	4.16
538.284	4.26
538.483	4.16
538.682	4.21
538.882	4.21
539.081	4.3
539.28	4.18
539.479	4.25
539.678	4.25
539.877	4.35
540.076	4.33
540.275	4.34
540.474	4.42
540.673	4.46
540.872	4.37
541.071	4.41
541.27	4.48
541.469	4.43
541.668	4.47
541.867	4.51
542.066	4.54
542.265	4.56
542.464	4.56
542.663	4.52
542.862	4.65
543.06	4.67
543.259	4.7
543.458	4.78
543.657	4.89
543.856	4.87
544.054	4.86
544.253	4.86
544.452	4.81
544.651	4.88
544.849	4.85
545.048	4.92
545.247	4.97
545.445	5.06
545.644	5.05
545.843	5.06
546.041	5.11
546.24	5.17
546.438	5.25
546.637	5.27
546.836	5.38
547.034	5.4
547.233	5.38
547.431	5.34
547.63	5.37
547.828	5.38
548.027	5.41
548.225	5.44
548.423	5.46
548.622	5.51
548.82	5.55
549.019	5.59
549.217	5.7
549.415	5.73
549.614	5.79
549.812	5.76
550.01	5.77
550.209	5.78
550.407	5.9
550.605	5.9
550.803	6.08
551.002	6.17
551.2	6.19
551.398	6.27
551.596	6.37
551.794	6.37
551.993	6.41
552.191	6.43
552.389	6.5
552.587	6.55
552.785	6.59
552.983	6.67
553.181	6.79
553.379	6.81
553.577	6.85
553.775	6.9
553.973	6.93
554.171	7.03
554.369	7.02
554.567	7.06
554.765	7.15
554.963	7.24
555.161	7.13
555.359	7.21
555.557	7.37
555.755	7.45
555.952	7.52
556.15	7.65
556.348	7.77
556.546	7.79
556.744	7.78
556.941	7.78
557.139	7.97
557.337	8
557.535	7.95
557.732	8.03
557.93	8.16
558.128	8.14
558.325	8.23
558.523	8.36
558.721	8.46
558.918	8.45
559.116	8.53
559.313	8.55
559.511	8.65
559.708	8.63
559.906	8.73
560.104	8.75
560.301	8.85
560.498	8.84
560.696	8.94
560.893	9.03
561.091	9.17
561.288	9.3
561.486	9.38
561.683	9.48
561.88	9.52
562.078	9.55
562.275	9.56
562.473	9.67
562.67	9.84
562.867	9.91
563.064	10.01
563.262	10.07
563.459	10.14
563.656	10.23
563.853	10.31
564.051	10.36
564.248	10.43
564.445	10.54
564.642	10.52
564.839	10.66
565.036	10.85
565.234	11.01
565.431	10.97
565.628	11.03
565.825	11.05
566.022	10.99
566.219	10.97
566.416	11.08
566.613	11.13
566.81	11.21
567.007	11.21
567.204	11.21
567.401	11.2
567.598	11.23
567.795	11.25
567.991	11.32
568.188	11.44
568.385	11.52
568.582	11.64
568.779	11.71
568.976	11.77
569.172	11.88
569.369	11.9
569.566	11.86
569.763	11.88
569.96	11.91
570.156	11.83
570.353	11.85
570.55	11.92
570.746	11.94
570.943	11.98
571.14	12.07
571.336	12.16
571.533	12.25
571.729	12.21
571.926	12.29
572.123	12.35
572.319	12.37
572.516	12.31
572.712	12.41
572.909	12.39
573.105	12.42
573.302	12.44
573.498	12.52
573.695	12.5
573.891	12.49
574.087	12.41
574.284	12.35
574.48	12.31
574.677	12.35
574.873	12.36
575.069	12.42
575.266	12.51
575.462	12.5
575.658	12.56
575.854	12.66
576.051	12.63
576.247	12.59
576.443	12.59
576.639	12.49
576.835	12.43
577.032	12.43
577.228	12.59
577.424	12.65
577.62	12.61
577.816	12.58
578.012	12.59
578.208	12.42
578.404	12.39
578.6	12.43
578.796	12.45
578.993	12.43
579.189	12.41
579.384	12.33
579.58	12.29
579.776	12.28
579.972	12.25
580.168	12.21
580.364	12.28
580.56	12.32
580.756	12.32
580.952	12.31
581.148	12.29
581.343	12.3
581.539	12.26
581.735	12.32
581.931	12.32
582.127	12.35
582.322	12.29
582.518	12.24
582.714	12.08
582.909	12.04
583.105	12
583.301	12.02
583.496	12.08
583.692	12.07
583.888	12.03
584.083	12.06
584.279	12.07
584.474	12.09
584.67	12.13
584.866	12.13
585.061	12.06
585.257	12.03
585.452	11.9
585.648	11.82
585.843	11.82
586.039	11.92
586.234	11.93
586.429	11.93
586.625	12.09
586.82	12.04
587.015	11.92
587.211	11.76
587.406	11.8
587.601	11.72
587.797	11.71
587.992	11.71
588.187	11.85
588.383	11.8
588.578	11.73
588.773	11.78
588.968	11.84
589.163	11.85
589.359	11.83
589.554	11.87
589.749	11.9
589.944	11.95
590.139	11.89
590.334	11.92
590.529	11.93
590.724	11.98
590.919	12
591.114	12.02
591.309	12.1
591.504	12.17
591.699	12.06
591.894	12.03
592.089	12
592.284	11.97
592.479	11.94
592.674	11.98
592.869	11.99
593.064	12.13
593.259	12.24
593.454	12.39
593.648	12.44
593.843	12.44
594.038	12.5
594.233	12.46
594.428	12.38
594.622	12.46
594.817	12.59
595.012	12.51
595.206	12.56
595.401	12.62
595.596	12.63
595.79	12.67
595.985	12.9
596.18	12.94
596.374	13.01
596.569	13.1
596.763	13.08
596.958	13.02
597.153	13.15
597.347	13.24
597.542	13.41
597.736	13.44
597.931	13.47
598.125	13.47
598.319	13.47
598.514	13.38
598.708	13.44
598.903	13.48
599.097	13.53
599.291	13.62
599.486	13.61
599.68	13.66
599.874	13.74
600.069	13.81
600.263	13.79
600.457	13.92
600.651	13.94
600.846	13.99
601.04	14
601.234	14
601.428	14.02
601.622	14.1
601.817	14.04
602.011	14.06
602.205	14.12
602.399	14.1
602.593	13.99
602.787	14.1
602.981	14.07
603.175	14.12
603.369	14.02
603.563	14.2
603.757	14.18
603.951	14.22
604.145	14.16
604.339	14.33
604.533	14.14
604.727	14.08
604.921	14.04
605.115	14.04
605.309	14.06
605.502	14.07
605.696	14.01
605.89	13.98
606.084	13.91
606.278	13.73
606.471	13.71
606.665	13.69
606.859	13.59
607.053	13.58
607.246	13.57
607.44	13.59
607.634	13.53
607.827	13.6
608.021	13.52
608.214	13.45
608.408	13.32
608.602	13.29
608.795	13.21
608.989	13.19
609.182	13.18
609.376	13.23
609.569	13.18
609.763	13.06
609.956	13
610.15	12.9
610.343	12.79
610.537	12.73
610.73	12.72
610.923	12.68
611.117	12.65
611.31	12.56
611.504	12.56
611.697	12.42
611.89	12.4
612.083	12.26
612.277	12.27
612.47	12.19
612.663	12.2
612.856	12.06
613.05	12.09
613.243	12.02
613.436	11.9
613.629	11.85
613.822	11.85
614.015	11.81
614.209	11.65
614.402	11.68
614.595	11.65
614.788	11.55
614.981	11.4
615.174	11.38
615.367	11.24
615.56	11.11
615.753	11.06
615.946	11.05
616.139	11.11
616.332	11.19
616.525	11.19
616.718	11.2
616.911	11.21
617.103	11.08
617.296	10.99
617.489	10.92
617.682	10.86
617.875	10.81
618.067	10.79
618.26	10.64
618.453	10.73
618.646	10.69
618.838	10.77
619.031	10.86
619.224	10.9
619.417	10.83
619.609	10.89
619.802	10.73
619.994	10.67
620.187	10.64
620.38	10.59
620.572	10.45
620.765	10.5
620.957	10.37
621.15	10.28
621.342	10.21
621.535	10.23
621.727	10.22
621.92	10.19
622.112	10.2
622.305	10.24
622.497	10.14
622.69	10.03
622.882	10.1
623.074	10.13
623.267	10.08
623.459	10.01
623.651	9.95
623.844	9.88
624.036	9.88
624.228	9.84
624.42	9.93
624.613	10.06
624.805	10.12
624.997	10.05
625.189	10.1
625.381	10.08
625.574	9.96
625.766	9.83
625.958	9.82
626.15	9.83
626.342	9.76
626.534	9.76
626.726	9.71
626.918	9.7
627.11	9.64
627.302	9.71
627.494	9.65
627.686	9.73
627.878	9.69
628.07	9.63
628.262	9.59
628.454	9.65
628.646	9.64
628.838	9.66
629.029	9.63
629.221	9.64
629.413	9.52
629.605	9.41
629.797	9.36
629.989	9.36
630.18	9.27
630.372	9.26
630.564	9.28
630.755	9.31
630.947	9.39
631.139	9.26
631.33	9.17
631.522	9.24
631.714	9.24
631.905	9.15
632.097	9.2
632.289	9.31
632.48	9.19
632.672	9.07
632.863	8.93
633.055	8.96
633.246	8.92
633.438	8.85
633.629	8.78
633.821	8.91
634.012	8.85
634.203	8.76
634.395	8.81
634.586	8.9
634.777	8.79
634.969	8.79
635.16	8.91
635.351	8.89
635.543	8.86
635.734	8.9
635.925	8.88
636.117	8.85
636.308	8.81
636.499	8.72
636.69	8.58
636.881	8.52
637.073	8.53
637.264	8.5
637.455	8.59
637.646	8.69
637.837	8.75
638.028	8.63
638.219	8.67
638.41	8.58
638.601	8.48
638.792	8.41
638.983	8.44
639.174	8.34
639.365	8.39
639.556	8.38
639.747	8.34
639.938	8.36
640.129	8.34
640.32	8.25
640.511	8.31
640.701	8.5
640.892	8.44
641.083	8.49
641.274	8.53
641.465	8.49
641.655	8.27
641.846	8.25
642.037	8.18
642.228	8.08
642.418	8.16
642.609	8.19
642.8	8.22
642.99	8.2
643.181	8.24
643.372	8.16
643.562	8.15
643.753	8.05
643.943	7.97
644.134	7.91
644.324	7.85
644.515	7.78
644.705	7.81
644.896	7.86
645.086	7.9
645.277	7.9
645.467	7.87
645.658	7.86
645.848	7.95
646.038	7.88
646.229	7.82
646.419	7.79
646.61	7.75
646.8	7.59
646.99	7.63
647.18	7.57
647.371	7.6
647.561	7.5
647.751	7.56
647.941	7.44
648.132	7.47
648.322	7.48
648.512	7.61
648.702	7.63
648.892	7.71
649.082	7.68
649.272	7.63
649.462	7.49
649.653	7.39
649.843	7.28
650.033	7.32
650.223	7.28
650.413	7.24
650.603	7.24
650.793	7.24
650.983	7.19
651.172	7.1
651.362	7.06
651.552	6.96
651.742	6.91
651.932	6.91
652.122	6.94
652.312	7.01
652.502	7.06
652.691	7.1
652.881	7.01
653.071	6.99
653.261	6.83
653.45	6.68
653.64	6.66
653.83	6.56
654.019	6.5
654.209	6.45
654.399	6.51
654.588	6.45
654.778	6.37
654.968	6.3
655.157	6.27
655.347	6.19
655.536	6.05
655.726	6.07
655.915	5.94
656.105	5.92
656.294	5.91
656.484	5.78
656.673	5.69
656.863	5.7
657.052	5.63
657.241	5.45
657.431	5.31
657.62	5.18
657.809	4.98
657.999	4.82
658.188	4.73
658.377	4.73
658.567	4.74
658.756	4.66
658.945	4.59
659.134	4.48
659.324	4.42
659.513	4.31
659.702	4.29
659.891	4.23
660.08	4.19
660.269	4.17
660.458	3.99
660.648	3.95
660.837	3.87
661.026	3.92
661.215	3.82
661.404	3.77
661.593	3.75
661.782	3.58
661.971	3.43
662.16	3.4
662.349	3.45
662.538	3.29
662.726	3.35
662.915	3.26
663.104	3.17
663.293	3.14
663.482	3.17
663.671	3.12
663.86	3.01
664.048	2.92
664.237	2.96
664.426	2.82
664.615	2.86
664.803	2.95
664.992	2.88
665.181	2.74
665.369	2.72
665.558	2.61
665.747	2.5
665.935	2.6
666.124	2.67
666.312	2.76
666.501	2.7
666.69	2.69
666.878	2.68
667.067	2.53
667.255	2.6
667.444	2.92
667.632	2.98
667.82	2.97
668.009	3.01
668.197	2.88
668.386	2.73
668.574	2.86
668.762	2.78
668.951	2.74
669.139	2.78
669.327	2.59
669.516	2.61
669.704	2.65
669.892	2.77
670.08	2.77
670.269	2.8
670.457	2.56
670.645	2.5
670.833	2.55
671.021	2.54
671.21	2.57
671.398	2.9
671.586	2.99
671.774	2.87
671.962	2.95
672.15	3.08
672.338	2.89
672.526	3
672.714	2.93
672.902	2.92
673.09	2.97
673.278	3.19
673.466	3.13
673.654	3.44
673.842	3.44
674.03	3.39
674.218	3.19
674.405	3.2
674.593	3.04
674.781	3.09
674.969	3.18
675.157	3.4
675.344	3.55
675.532	3.59
675.72	3.74
675.908	3.77
676.095	3.64
676.283	3.62
676.471	3.76
676.658	3.69
676.846	3.65
677.033	3.82
677.221	3.9
677.409	3.73
677.596	3.75
677.784	3.76
677.971	3.75
678.159	3.74
678.346	3.93
678.534	4.05
678.721	4.28
678.909	4.21
679.096	4.23
679.283	4.31
679.471	4.35
679.658	4.3
679.846	4.62
680.033	4.79
680.22	4.85
680.408	4.81
680.595	4.81
680.782	4.6
680.969	4.55
681.157	4.57
681.344	4.7
681.531	4.71
681.718	4.81
681.905	4.93
682.093	5.05
682.28	5.06
682.467	5.4
682.654	5.51
682.841	5.52
683.028	5.57
683.215	5.61
683.402	5.35
683.589	5.54
683.776	5.74
683.963	5.7
684.15	5.88
684.337	6.13
684.524	6.17
684.711	6.24
684.898	6.29
685.085	6.37
685.271	6.46
685.458	6.47
685.645	6.48
685.832	6.68
686.019	6.82
686.205	6.95
686.392	7.2
686.579	7.5
686.766	7.93
686.952	8.08
687.139	8.56
687.326	8.62
687.512	8.79
687.699	8.78
687.886	9.03
688.072	8.93
688.259	9.31
688.445	9.52
688.632	9.66
688.818	10.21
689.005	10.51
689.191	10.77
689.378	11.23
689.564	11.78
689.751	11.89
689.937	12.37
690.124	12.73
690.31	12.95
690.496	13.24
690.683	13.67
690.869	13.95
691.055	14.4
691.242	15.03
691.428	15.55
691.614	15.93
691.8	16.61
691.987	17.03
692.173	17.43
692.359	17.94
692.545	18.61
692.731	19.02
692.918	19.64
693.104	19.99
693.29	20.61
693.476	21.09
693.662	21.84
693.848	22.3
694.034	22.97
694.22	23.32
694.406	24.01
694.592	24.48
694.778	25.07
694.964	25.59
695.15	26.27
695.336	26.64
695.522	27.26
695.708	27.89
695.894	28.51
696.08	29.07
696.265	29.76
696.451	30.3
696.637	31.16
696.823	31.8
697.009	32.56
697.194	33.09
697.38	33.67
697.566	34.1
697.751	34.9
697.937	35.66
698.123	36.43
698.308	37.28
698.494	37.82
698.68	38.29
698.865	38.85
699.051	39.53
699.236	39.88
699.422	40.35
699.607	40.83
699.793	41.14
699.978	41.42
700.164	41.79
700.349	42.9
700.535	43.49
700.72	44.1
700.906	44.94
701.091	45.72
701.276	45.97
701.462	46.9
701.647	47.72
701.832	48.21
702.018	48.62
702.203	49.03
702.388	49.26
702.573	49.53
702.759	50.33
702.944	50.93
703.129	51.31
703.314	51.68
703.499	52.12
703.684	52.4
703.87	53.24
704.055	54.38
704.24	55.15
704.425	56
704.61	56.36
704.795	56.29
704.98	56.29
705.165	56.37
705.35	56.6
705.535	57.08
705.72	57.78
705.905	58.45
706.09	59.04
706.275	59.46
706.459	59.52
706.644	59.81
706.829	59.94
707.014	60.02
707.199	60.37
707.384	60.94
707.568	61.02
707.753	61.39
707.938	62.16
708.123	62.1
708.307	62.04
708.492	62.6
708.677	62.87
708.861	62.79
709.046	63.02
709.231	63.93
709.415	64.23
709.6	64.37
709.784	64.65
709.969	65.09
710.153	65.27
710.338	65.77
710.522	66.11
710.707	66.39
710.891	66.7
711.076	66.67
711.26	66.39
711.445	66.47
711.629	66.68
711.813	66.65
711.998	67.18
712.182	67.37
712.366	68
712.551	69.02
712.735	69.49
712.919	69.32
713.103	69.81
713.288	69.69
713.472	69.02
713.656	69.49
713.84	69.77
714.024	69.74
714.208	69.49
714.393	70.28
714.577	70.21
714.761	70.18
714.945	70.41
715.129	70.97
715.313	70.68
715.497	70.63
715.681	71.34
715.865	71.4
716.049	71.75
716.233	71.72
716.417	71.87
716.601	71.45
716.785	71.65
716.968	71.59
717.152	72.1
717.336	72.29
717.52	72.39
717.704	72.46
717.888	72.56
718.071	72.4
718.255	72.53
718.439	72.75
718.622	72.83
718.806	72.75
718.99	72.57
719.174	72.56
719.357	73.18
719.541	73.45
719.724	73.51
719.908	74.7
720.092	75.57
720.275	75.51
720.459	75.46
720.642	75.5
720.826	74.67
721.009	73.56
721.193	72.83
721.376	73.19
721.559	73.86
721.743	74.09
721.926	74.74
722.11	75.29
722.293	74.53
722.476	73.81
722.66	73.94
722.843	73.96
723.026	73.39
723.21	73.95
723.393	74.62
723.576	74.6
723.759	74.09
723.942	74.33
724.126	74.57
724.309	74.6
724.492	74.84
724.675	75.32
724.858	75.94
725.041	75.98
725.224	76.39
725.407	76.53
725.59	76.85
725.774	76.67
725.957	76
726.14	75.37
726.322	75.16
726.505	74.91
726.688	75.98
726.871	76.56
727.054	76.91
727.237	77.3
727.42	77.7
727.603	77.16
727.786	77.67
727.968	77.74
728.151	77.42
728.334	77.1
728.517	77.08
728.699	77.36
728.882	77.02
729.065	77.72
729.248	78.44
729.43	78.88
729.613	79.19
729.796	80.17
729.978	79.64
730.161	79.27
730.343	78.96
730.526	79.18
730.708	77.69
730.891	78.02
731.073	78.07
731.256	77.74
731.438	76.97
731.621	78.6
731.803	78.1
731.986	77.74
732.168	78.02
732.35	78.16
732.533	77.64
732.715	78.25
732.898	79.32
733.08	78.85
733.262	79.23
733.444	78.8
733.627	78.85
733.809	78.96
733.991	79.66
734.173	79.26
734.355	79.78
734.538	80.09
734.72	79.65
734.902	79.87
735.084	80.35
735.266	80.12
735.448	79.7
735.63	79.21
735.812	79.55
735.994	79.52
736.176	80.22
736.358	80.86
736.54	81.99
736.722	81.04
736.904	80.5
737.086	79.88
737.268	80.14
737.45	79.39
737.632	79.32
737.814	79.65
737.995	80.16
738.177	79.39
738.359	79.39
738.541	80.42
738.723	80.78
738.904	81.1
739.086	81.88
739.268	81.72
739.449	82.05
739.631	81.36
739.813	81.19
739.994	80.7
740.176	81.39
740.358	80.51
740.539	81.93
740.721	82.08
740.902	82.5
741.084	82.19
741.265	82.14
741.447	81.76
741.628	82.07
741.81	81.66
741.991	82.32
742.172	83.23
742.354	83.05
742.535	82.18
742.717	81.92
742.898	81.4
743.079	81.19
743.261	80.95
743.442	80.62
743.623	81.47
743.804	81.96
743.986	82.76
744.167	81.95
744.348	81.77
744.529	81.57
744.71	80.32
744.891	79.56
745.073	79.94
745.254	80.64
745.435	79.56
745.616	79.65
745.797	79.08
745.978	78.87
746.159	79.07
746.34	79.05
746.521	80.83
746.702	80.45
746.883	80.72
747.064	80.54
747.245	81.8
747.426	80.92
747.606	81.8
747.787	82.25
747.968	81.8
748.149	82.04
748.33	82.07
748.51	80.61
748.691	79.76
748.872	81
749.053	80.23
749.233	79.11
749.414	79.6
749.595	79.23
749.775	76.98
749.956	75.5
750.137	76.14
750.317	76.38
750.498	78.85
750.678	80.13
750.859	82.48
751.04	81.59
751.22	81.02
751.4	78.96
751.581	77.94
751.761	77.42
751.942	78.42
752.122	79.2
752.303	78.88
752.483	79.26
752.663	78.47
752.844	78.13
753.024	78.66
753.204	79.77
753.385	79.01
753.565	78.66
753.745	78.68
753.925	77.44
754.106	76.21
754.286	76.5
754.466	76.96
754.646	77.52
754.826	77.42
755.006	77.4
755.187	78.25
755.367	78.12
755.547	77.14
755.727	77.79
755.907	77.86
756.087	79.24
756.267	78.58
756.447	79.73
756.627	78.11
756.807	79.86
756.987	77.87
757.167	78.88
757.346	77.71
757.526	77.23
757.706	76.38
757.886	77.73
758.066	77.04
758.246	79.44
758.425	81
758.605	79.93
758.785	79.65
758.965	80.46
759.144	77.79
759.324	78.21
759.504	78.53
759.683	78.82
759.863	77.72
760.043	77
760.222	76.75
760.402	76.4
760.581	75.56
760.761	76.8
760.94	76.36
761.12	76.9
761.299	76.8
761.479	76.72
761.658	74.43
761.838	75.52
762.017	75
762.197	75.59
762.376	75.03
762.555	76.66
762.735	77.29
762.914	76.36
763.093	76.24
763.273	76
763.452	75.98
763.631	74.3
763.81	74.47
763.99	75
764.169	75.15
764.348	72.49
764.527	72.86
764.706	74.09
764.885	74.89
765.064	74.2
765.243	76.1
765.423	76.64
765.602	75.55
765.781	72.85
765.96	73.1
766.139	72.27
766.318	74.56
766.497	74.87
766.676	75.53
766.854	76.55
767.033	77.99
767.212	75.58
767.391	74.92
767.57	76.48
767.749	75.07
767.928	75.09
768.106	74.05
768.285	72.63
768.464	71.09
768.643	72.34
768.821	71.19
769	73.01
769.179	75.59
769.357	75.09
769.536	74.95
769.715	75.57
769.893	75.25
770.072	73.46
770.25	74.65
770.429	74.43
770.607	75.13
770.786	75
770.964	77.12
771.143	74.8
771.321	75.69
771.5	75.75
771.678	73.84
771.857	71.85
772.035	73.05
772.213	71.44
772.392	67.63
772.57	70.65
772.748	72.12
772.927	71.6
773.105	72.42
773.283	75.49
773.461	74.86
773.64	74.59
773.818	75.1
773.996	76.86
774.174	75.74
774.352	73.64
774.531	69.82
774.709	71.5
774.887	68.33
775.065	68.08
775.243	69.51
775.421	71.17
775.599	71.16
775.777	69.35
775.955	66.46
776.133	65.22
776.311	66.17
776.489	63.28
776.667	67.59
776.844	71.35
777.022	70.41
777.2	70.42
777.378	70.9
777.556	69.15
777.734	70.2
777.911	72.5
778.089	70.82
778.267	72.42
778.445	68.66
778.622	66.62
778.8	66.52
778.978	69.08
779.155	67.03
779.333	68.71
779.511	69
779.688	70.04
779.866	64.88
780.043	64.64
780.221	64.9
780.398	62.07
780.576	61.47
780.753	64.13
780.931	63.61
781.108	63.89
781.286	67.06
781.463	63.72
781.64	60.53
781.818	62.76
781.995	64.73
782.172	62.87
782.35	63.86
782.527	70.53
782.704	68.93
782.882	69.42
783.059	70.93
783.236	71.12
783.413	70.07
783.59	70.35
783.768	67.18
783.945	69.49
784.122	71.09
784.299	69.96
784.476	66.93
784.653	66.23
784.83	61.64
785.007	58.06
785.184	58.54
785.361	59.39
785.538	66.6
785.715	68.72
785.892	69.73
786.069	72.45
786.246	76.28
786.423	69.83
786.6	68.75
786.776	71.37
786.953	66.13
787.13	65.38
787.307	66.64
787.484	67.9
787.66	63.64
787.837	64.06
788.014	62.43
788.191	60.11
788.367	58.33
788.544	62.93
788.721	62.42
788.897	64.39
789.074	67.62
789.25	65.11
789.427	64.44
789.603	62.57
789.78	61.16
789.956	59.03
790.133	59.41
790.309	59.48
790.486	63.25
790.662	61.48
790.839	64.17
791.015	65.8
791.192	64.89
791.368	65.46
791.544	65.45
791.721	63.79
791.897	59.83
792.073	55.81
792.249	50.75
792.426	52.63
792.602	55.57
792.778	59.29
792.954	60.24
793.13	61.88
793.307	55.55
793.483	47.33
793.659	46.48
793.835	48.72
794.011	47.23
794.187	50.56
794.363	51.92
794.539	57.01
794.715	53.61
794.891	55.83
795.067	53.85
795.243	57.68
795.419	54.55
795.595	55.85
795.771	53.59
795.947	57.24
796.122	50.4
796.298	53.67
796.474	54.62
796.65	54.33
796.826	48.36
797.001	53.48
797.177	46.85
797.353	52.38
797.529	58.52
797.704	65.01
797.88	65.48
798.056	62.66
798.231	57.06
798.407	55.5
798.582	55.11
798.758	59.64
798.934	68.6
799.109	66.42
799.285	62.07
799.46	60.34
799.636	60.94
799.811	57.86
799.986	58.84
800.162	58.28
800.337	61.06
800.513	48.59
800.688	43.46
800.863	51.35
801.039	48.83
801.214	41.26
801.389	50.7
801.565	54.47
801.74	43.94
801.915	53.37
802.09	56.33
802.265	58.64
802.441	58.22
802.616	56.74
802.791	56.25
802.966	60.25
803.141	56.96
803.316	48.79
803.491	60.58
803.666	57.56
803.841	48.76
804.016	45.69
804.191	54.41
804.366	40.93
804.541	40.44
804.716	42.67
804.891	33.81
805.066	40.33
805.241	43.75
805.416	45.09
805.591	48.24
805.765	62.89
805.94	58.48
806.115	52.64
806.29	48.08
806.464	49.81
806.639	35.82
806.814	32.75
806.989	31.47
807.163	44.28
807.338	43.48
807.512	45.59
807.687	35.7
807.862	52.88
808.036	52.12
808.211	51.05
808.385	55.87
808.56	71.82
808.734	67.51
808.909	62.94
809.083	60.52
809.258	64.91
809.432	62.21
809.606	49.97
809.781	45.84
809.955	49.2
810.13	50.86
810.304	40.5
810.478	40.96
810.652	44.74
810.827	45.08
811.001	34.55
811.175	37.15
811.349	40.24
811.524	35.11
811.698	29.77
811.872	33.04
812.046	42.44
812.22	49.14
812.394	49.1
812.568	49.16
812.742	51.97
812.916	49.12
813.09	37.46
813.264	32.54
813.438	37.36
813.612	37.42
813.786	35.51
813.96	46.81
814.134	45.11
814.308	57.28
814.482	59.11
814.656	51.64
814.83	55.29
815.003	66.54
815.177	52.58
815.351	43.78
815.525	43.83
815.698	28.29
815.872	20.49
816.046	9.15
816.219	16.82
816.393	34.26
816.567	48.02
816.74	51.24
816.914	67.47
817.088	77.22
817.261	63.99
817.435	56.36
817.608	60.78
817.782	44.77
817.955	45.45
818.129	45.67
818.302	45.92
818.475	50.33
818.649	56.23
818.822	45.28
818.996	60
819.169	68.29
819.342	51.33
819.516	51.38
819.689	56.47
819.862	40.93
820.035	21.6
820.209	19.68
820.382	25.19
820.555	19.55
820.728	15.29
820.901	18.73
821.075	20.87
821.248	22.1
821.421	18.39
821.594	14.33
821.767	43.83
821.94	61.09
822.113	33.43
822.286	32.69
822.459	37.89
822.632	24.59
822.805	2.68
822.978	16.28
823.151	16.7
823.324	16.19
823.496	-6.43
823.669	5.06
823.842	9.15
824.015	-10.05
824.188	-22.98
824.361	-10.06
824.533	-18.55
824.706	-14.31
824.879	-4.94
825.051	4.02
825.224	-0
825.397	-19.44
825.569	-32.22
825.742	-13.1
825.915	9.83
826.087	19.3
826.26	23.83
826.432	34.11
826.605	36.59
826.777	15.88
826.95	14.06
827.122	11.53
827.295	13.77
827.467	21.61
827.64	-3.93
827.812	-6.14
827.984	2.42
828.157	-20.94
828.329	-72.32
828.501	-36.29
828.674	-7.79
828.846	-11.21
829.018	15.66
829.19	5.41
829.363	21.56
829.535	30.54
829.707	12.68
829.879	-0
830.051	11.57
830.223	0.76
830.395	-51.22
830.568	-51.48
830.74	-61.8
830.912	-46.05
831.084	-55.74
831.256	-29.55
831.428	-29.26
831.6	-48.6
831.772	-57.61
831.943	-66.72
832.115	-42.02
832.287	-22.59
832.459	2.32
832.631	7.62
832.803	29.76
832.975	41.54
833.146	31.16
833.318	23.96
833.49	41.27
833.662	24.57
833.833	-5.71
834.005	5.19
834.177	11.02
834.348	5.62
834.52	-4.9
834.692	-6.13
834.863	-29.28
835.035	-21.21
835.206	-104.41
835.378	-81.74
835.549	-82.33
835.721	-76.64
835.892	-87
836.064	-60.44
836.235	-73.67
836.407	-58.78
836.578	-79.64
836.749	-51.55
836.921	-89.11
837.092	-64.83
837.264	-72.48
837.435	-59.82
837.606	-23.68
837.777	23.44
837.949	35.93
838.12	36.91
838.291	47.31
838.462	37.36
838.633	-11.99
838.805	-9.93
838.976	-10.71
839.147	-71.2
839.318	-78.36
839.489	-65.49
839.66	-63.71
839.831	-23.34
840.002	-25.74
840.173	-56.37
840.344	8.96
840.515	-21.98
840.686	-177.89
840.857	-105.98
841.028	-95.01
841.199	-112.5
841.369	-102.67
841.54	-76.39
841.711	-53.8
841.882	-12.27
842.053	-22.24
842.223	-23.84
842.394	-1.51
842.565	12.72
842.736	11.38
842.906	35.22
843.077	52.91
843.248	72.39
843.418	58.39
843.589	13.38
843.759	19.71
843.93	-28.32
844.101	-4.79
844.271	15.88
844.442	33.74
844.612	34.94
844.783	2.94
844.953	-13.48
845.123	-30.04
845.294	-38.2
845.464	-198.81
845.635	-52.17
845.805	-6.23
845.975	2.12
846.146	-23.98
846.316	-30.84
846.486	-10.55
846.656	12.28
846.827	-1.53
846.997	-8.53
847.167	16.78
847.337	15.69
847.507	-44.99
847.677	-37.92
847.848	23.25
848.018	23.11
848.188	18.06
848.358	11.51
848.528	-3.41
848.698	-42.89
848.868	-137.79
849.038	-243.91
849.208	-87.88
849.378	-32.35
849.548	-46.88
849.718	-24.75
849.887	-2.18
850.057	-16.6
850.227	-51.38
850.397	-69.98
850.567	-169.74
850.737	-438.26
850.906	-1308.75
851.076	-942.19
851.246	-463.35
851.415	-42.79
851.585	-42.22
851.755	-67.81
851.924	-24.02
852.094	-63.88
852.264	-203.76
852.433	-1309.62
852.603	-299.26
852.772	-272.35
852.942	-108.27
853.111	-76.41
853.281	-17.21
853.45	-7.65
853.62	-82.55
853.789	-92.5
853.959	-132.82
854.128	-122.47
854.297	-134.4
854.467	-142.99
854.636	-194.31
854.805	-112.02
854.975	-178.68
855.144	-272.88
855.313	-400.7
855.482	-547.45
855.652	-229.23
855.821	-93.31
855.99	3.72
856.159	5.36
856.328	18.42
856.497	18.46
856.667	2.15
856.836	-3.97
857.005	-34.53
857.174	-38.19
857.343	-68.96
857.512	-31.85
857.681	-51
857.85	-62.54
858.019	-32.69
858.188	-18.48
858.356	-42.82
858.525	-102.95
858.694	-105.97
858.863	-264.93
859.032	-222.66
859.201	-287.19
859.369	-219.64
859.538	-130.21
859.707	-102.46
859.876	-127.16
860.044	-149.17
860.213	-15.61
860.382	-36.01
860.55	-22.82
860.719	-3.67
860.888	1.5
861.056	-39.33
861.225	-42.07
861.393	5.87
861.562	12.79
861.73	-46.88
861.899	-216.75
862.067	-2741.38
862.236	-225.36
862.404	-414.12
862.572	-244.8
862.741	-115.97
862.909	-68.76
863.078	-176.71
863.246	-121.81
863.414	-123.16
863.582	-91.03
863.751	-125.29
863.919	-144.11
864.087	-76.87
864.255	-57.43
864.424	-405.18
864.592	-71.09
864.76	-66.81
864.928	-333.6
865.096	-253.18
865.264	-163.34
865.432	-2011.36
865.6	-183
865.768	-179.78
865.936	-140.52
866.104	-206.46
866.272	-323.44
866.44	-563.39
866.608	763.04
866.776	433.24
866.944	3369.77
867.112	-472.88
867.28	-190.96
867.448	-43.23
867.615	4.67
867.783	8.27
867.951	-26.71
868.119	11.57
868.286	-46.37
868.454	-135.89
868.622	-98.81
868.789	-56.39
868.957	-2785.71
869.125	-2210.53
869.292	-157
869.46	-249.38
869.627	-77.17
869.795	-62.84
869.963	-31.24
870.13	-14.77
870.298	-4.56
870.465	-62.74
870.632	-88.28
870.8	-56.06
870.967	-114.99
871.135	-176.22
871.302	-151.81
871.469	-124.12
871.637	-162.28
871.804	-87.8
871.971	-145.26
872.139	-502.33
872.306	-117.43
872.473	-113.87
872.64	-487.98
872.807	-185.06
872.975	-38.87
873.142	-240
873.309	2318.92
873.476	-12.31
873.643	29.05
873.81	-7.71
873.977	2.64
874.144	13.39
874.311	-151.06
874.478	-194.75
874.645	-206.06
874.812	-144.71
874.979	-78.56
875.146	-91.42
875.313	-105.45
875.48	-5.81
875.647	-25.88
875.813	-72.46
875.98	-35.35
876.147	-50.31
876.314	-140.83
876.481	1244.63
876.647	-1378.65
876.814	489.64
876.981	-143.08
877.147	-92.43
877.314	6.43
877.481	17.59
877.647	17.52
877.814	-31.67
877.98	-78.43
878.147	-70.81
878.314	-16.23
878.48	-127.66
878.647	-75.61
878.813	-6.3
878.979	11.78
879.146	-47.95
879.312	-26.31
879.479	-68.77
879.645	-153.19
879.811	-402.21
879.978	-1051.15
880.144	-358.99
880.31	-185.34
880.477	-477.81
880.643	-572.54
880.809	-210.57
880.975	-103.09
881.142	-812.73
881.308	-83.79
881.474	-0.97
881.64	-22.14
881.806	-127.38
881.972	-44.78
882.138	-34.18
882.304	17.29
882.47	-120.16
882.636	-619.67
882.802	-224.52
882.968	-87.11
883.134	-86.75
883.3	-96.4
883.466	-20.69
883.632	9.22
883.798	-30.94
883.964	-62.57
884.129	-51.57
884.295	-61.7
884.461	-76.04
884.627	-97.03
884.793	-66.47
884.958	-25.96
885.124	-105.28
885.29	-205.33
885.455	-244.66
885.621	-57.48
885.787	-134.19
885.952	-45.32
886.118	-45.28
886.283	-46.26
886.449	-167.29
886.614	-162.86
886.78	-378.46
886.945	1667.21
887.111	-782.08
887.276	-540.34
887.442	-943.64
887.607	-420.28
887.773	-305.73
887.938	-249.09
888.103	-294.43
888.269	-215.96
888.434	-402.16
888.599	-155.69
888.764	-82.03
888.93	-27.62
889.095	-44.09
889.26	-78.98
889.425	-14.25
889.59	20.26
889.756	-89.46
889.921	-63.03
890.086	16.62
890.251	-17.13
890.416	-193.59
890.581	-1316.13
890.746	181.07
890.911	391.72
891.076	193.42
891.241	-492.54
891.406	25.05
891.571	-38.39
891.736	-390.83
891.901	-613.27
892.065	606.59
892.23	213.71
892.395	284.74
892.56	388.44
892.725	-632.81
892.889	-1917.07
893.054	-238.49
893.219	-106.01
893.384	-43.55
893.548	-100.13
893.713	-125.04
893.878	-86.92
