Data from Ofra_1a_PS_4HS13_Reflection_3.txt Node
Date: Tue Jul 20 10:56:42 EDT 2021
User: Adam
Spectrometer: FLMT01687
Trigger mode: 0
Integration Time (sec): 1.004000E0
Scans to average: 2
Electric dark correction enabled: true
Nonlinearity correction enabled: false
Boxcar width: 2
XAxis mode: Wavelengths
Number of Pixels in Spectrum: 3648
>>>>>Begin Spectral Data<<<<<
179.494	-481.22
179.716	-641.22
179.937	1356.52
180.158	-1964.33
180.38	190.05
180.601	-13.09
180.823	6.46
181.044	-62.59
181.265	-186.16
181.486	188.69
181.708	-42.39
181.929	4254.55
182.15	-76.16
182.372	41.38
182.593	421.17
182.814	-417.66
183.035	-64.77
183.257	-26.26
183.478	-75.73
183.699	-95.56
183.92	-111.27
184.141	-111.27
184.363	-69.83
184.584	-64.91
184.805	-6.2
185.026	38.45
185.247	22.24
185.468	-17.29
185.689	-2.21
185.91	-55.37
186.132	-40.55
186.353	-38.36
186.574	-32.68
186.795	-21.6
187.016	7.45
187.237	-20.62
187.458	-5.32
187.679	-14.55
187.9	-14.18
188.121	-23.12
188.342	-5.7
188.563	-5.13
188.784	19.87
189.005	6.51
189.226	0.17
189.447	-19.3
189.667	-34.6
189.888	-52.44
190.109	-79.72
190.33	-36.93
190.551	-28.11
190.772	-22.53
190.993	-30.95
191.214	-33.44
191.434	-126.99
191.655	-133.69
191.876	-61.94
192.097	-29.08
192.318	9.44
192.538	-10.85
192.759	-17.67
192.98	11.11
193.201	8.98
193.421	-3.24
193.642	20.33
193.863	20.07
194.083	-12.02
194.304	-18.91
194.525	-1.52
194.745	-18.09
194.966	-1.45
195.187	0.17
195.407	-4.81
195.628	-8.94
195.848	6.6
196.069	-12.22
196.29	-15.76
196.51	-52.9
196.731	-80.03
196.951	-112.65
197.172	-105.64
197.392	-118.27
197.613	-50.08
197.833	-53.55
198.054	-52.75
198.274	-39.64
198.495	-23.09
198.715	-25.18
198.936	8.6
199.156	18.16
199.377	25.62
199.597	22.26
199.817	12.7
200.038	-8.28
200.258	-9.41
200.479	-13.23
200.699	-25.99
200.919	-38.53
201.14	-39.13
201.36	-31.54
201.58	-48.7
201.801	-61.11
202.021	-55.43
202.241	-42.16
202.461	-47.68
202.682	-35.48
202.902	-17.82
203.122	8.55
203.342	-6.42
203.563	-16.6
203.783	-27.35
204.003	-26.8
204.223	-26.66
204.443	-5.26
204.663	11.18
204.884	29.56
205.104	-0.33
205.324	-6.04
205.544	-37.15
205.764	-37.42
205.984	-34.44
206.204	-11.65
206.424	-49.85
206.644	-57.57
206.864	-73.92
207.084	-30.32
207.304	-46.64
207.525	-20.48
207.745	-0.2
207.964	6.73
208.184	-10.4
208.404	-8.07
208.624	-2.19
208.844	-23.85
209.064	-23.2
209.284	-14.01
209.504	-23.47
209.724	-12.47
209.944	-16.15
210.164	-25.2
210.384	-36.16
210.604	-56.62
210.823	-131.74
211.043	-102.6
211.263	-175.81
211.483	-117.89
211.703	-91.28
211.922	-78.31
212.142	-23.96
212.362	7.84
212.582	13.95
212.801	16.41
213.021	13.2
213.241	-30.8
213.461	-42.75
213.68	-26.66
213.9	-7.27
214.12	-15.75
214.339	-4.07
214.559	4.74
214.779	-16.58
214.998	-25.24
215.218	-10.45
215.438	-17.78
215.657	-31.24
215.877	-41.15
216.096	-20.67
216.316	-5.26
216.535	-4.13
216.755	3.77
216.974	12.12
217.194	3.56
217.413	-8.46
217.633	-13.48
217.852	-12.85
218.072	-15.34
218.291	-37.7
218.511	-46.34
218.73	-43.37
218.95	-79.7
219.169	-59.99
219.389	-30.49
219.608	-34.29
219.827	-37.65
220.047	-10.19
220.266	-41.75
220.485	-60.11
220.705	-66.35
220.924	-55
221.143	-21.08
221.363	10.28
221.582	14.61
221.801	32.76
222.021	26.79
222.24	11.11
222.459	29.99
222.678	23.92
222.897	17.35
223.117	21.52
223.336	21.5
223.555	1.17
223.774	3.36
223.993	9.68
224.213	-1.42
224.432	-11.32
224.651	-8.45
224.87	6.64
225.089	12.82
225.308	26.71
225.527	21.88
225.746	26.66
225.965	4.5
226.184	-20.25
226.404	-31.69
226.623	-2.36
226.842	-16.64
227.061	-5.99
227.28	11.2
227.499	2.75
227.718	-4.56
227.936	-0.28
228.155	-1.43
228.374	-14.53
228.593	9.97
228.812	5.71
229.031	11.92
229.25	-3.08
229.469	-1.29
229.688	-27.7
229.907	-2.62
230.125	-9.85
230.344	0.42
230.563	1.36
230.782	13.25
231.001	-4.2
231.22	14.83
231.438	17.17
231.657	36.1
231.876	22.24
232.095	30.89
232.313	8.65
232.532	6.6
232.751	-23.27
232.969	3.51
233.188	-16.08
233.407	-10.55
233.625	-29.07
233.844	-21.51
234.063	-40.67
234.281	-46.94
234.5	-45.99
234.719	-32.09
234.937	-48.44
235.156	-31.66
235.374	-2.35
235.593	10.42
235.811	16.53
236.03	18.81
236.249	15.41
236.467	9.24
236.686	0.99
236.904	-1.03
237.123	1.92
237.341	-5.53
237.559	-15.61
237.778	1.01
237.996	-32.06
238.215	-99.54
238.433	-158.43
238.652	-53.96
238.87	-81.41
239.088	-79.56
239.307	-29.69
239.525	-18.75
239.743	-43.05
239.962	-60.07
240.18	-21.76
240.398	-30.33
240.617	-40.74
240.835	-32.46
241.053	-10.29
241.271	-17.69
241.49	0.52
241.708	-2.01
241.926	-2.98
242.144	8.67
242.363	-12.6
242.581	-74.27
242.799	-51.48
243.017	-43.53
243.235	-52.9
243.453	-64.91
243.672	-36.74
243.89	-22.68
244.108	-6.27
244.326	14.97
244.544	25.2
244.762	11.9
244.98	9.07
245.198	3.32
245.416	-8.62
245.634	-16.04
245.852	-19.51
246.07	-9.78
246.288	-7.24
246.506	-15.58
246.724	-10.74
246.942	-8.43
247.16	2.39
247.378	-21.39
247.596	1.7
247.814	-14.59
248.032	-21.62
248.25	-19.69
248.468	11.87
248.685	17.39
248.903	16.57
249.121	18.79
249.339	7.65
249.557	2.67
249.775	-11
249.992	-10.48
250.21	-15.93
250.428	-5.65
250.646	-7.8
250.863	-15.77
251.081	-13.21
251.299	-7.64
251.517	-13.38
251.734	-20.07
251.952	-15.6
252.17	-20.52
252.387	-47.9
252.605	-44.84
252.823	-72.12
253.04	-62.8
253.258	-38.12
253.475	-9.25
253.693	-12.27
253.911	2.3
254.128	3.75
254.346	-10.14
254.563	0.81
254.781	-6.84
254.998	-18.75
255.216	-52.59
255.433	-66.04
255.651	-57.63
255.868	-32.89
256.086	-20.32
256.303	-1.16
256.521	19.33
256.738	10.36
256.956	-0.54
257.173	-10.69
257.39	-3.35
257.608	-10.62
257.825	-16.66
258.043	-8.31
258.26	-2.61
258.477	-7.66
258.695	-5.97
258.912	-21.61
259.129	-35.28
259.346	-49.09
259.564	-62.66
259.781	-77.57
259.998	-24.83
260.216	-17.37
260.433	-7.87
260.65	3.44
260.867	14.38
261.084	15.48
261.302	12.76
261.519	21.3
261.736	8.21
261.953	10.99
262.17	20.03
262.387	24.23
262.604	7.02
262.822	8.49
263.039	7.01
263.256	-6.14
263.473	-2.19
263.69	12.08
263.907	16.79
264.124	32.91
264.341	38.99
264.558	28.59
264.775	10.93
264.992	0.35
265.209	-35.75
265.426	-80.15
265.643	-69.71
265.86	-80.96
266.077	-89.94
266.294	-48.01
266.51	-11.77
266.727	-11.28
266.944	-2.2
267.161	5.83
267.378	17.85
267.595	9.39
267.812	-7.72
268.028	-23.54
268.245	-16.32
268.462	-37.91
268.679	-31.08
268.896	8.11
269.112	7.76
269.329	-10.73
269.546	1.03
269.763	-8.92
269.979	-21.26
270.196	-10.91
270.413	-1.09
270.629	-5.06
270.846	-2.59
271.063	-8.02
271.279	-2.8
271.496	-12.88
271.712	-15.26
271.929	-17.91
272.146	-24.05
272.362	-32.03
272.579	-34.14
272.795	-33.26
273.012	-19.78
273.228	-3.45
273.445	1.43
273.661	-5.8
273.878	-25.93
274.094	-38.44
274.311	-59.24
274.527	-81.78
274.744	-33.86
274.96	-6.15
275.177	8.98
275.393	17.81
275.609	19.93
275.826	19.49
276.042	2.32
276.259	2.13
276.475	-4.68
276.691	-17.29
276.908	-26.1
277.124	-10.9
277.34	-30.46
277.557	-27.43
277.773	-21.07
277.989	-15.38
278.205	-26.89
278.422	-8.48
278.638	-11.63
278.854	-15.82
279.07	0.3
279.286	-0.63
279.503	0.43
279.719	9.14
279.935	10.89
280.151	-14.39
280.367	0.14
280.583	-9.19
280.799	-20.45
281.016	-54.81
281.232	-28.68
281.448	-31.69
281.664	-16.75
281.88	-3.85
282.096	27.06
282.312	17
282.528	12.09
282.744	5.31
282.96	-13.32
283.176	-57.83
283.392	-65.17
283.608	-54.02
283.824	-87.18
284.04	-127.06
284.256	-61.94
284.471	-42.56
284.687	-40.9
284.903	-22.17
285.119	7.22
285.335	6.06
285.551	-0.74
285.767	0.74
285.982	-4.66
286.198	-43.93
286.414	-47.86
286.63	-32.29
286.846	-5.76
287.061	-12.1
287.277	-7.03
287.493	-10.12
287.709	-36.68
287.924	-46.88
288.14	-14.49
288.356	-2.06
288.571	-5.13
288.787	-0
289.003	8.46
289.218	-19.67
289.434	-14.53
289.65	8.96
289.865	5.95
290.081	1.65
290.296	8.57
290.512	-1.67
290.727	-11.17
290.943	1.07
291.159	6.55
291.374	-5.73
291.59	2.55
291.805	-15.46
292.021	-9.09
292.236	-17.03
292.451	1.33
292.667	6.69
292.882	29.13
293.098	18.3
293.313	17.46
293.529	21.05
293.744	5.43
293.959	-13.61
294.175	-12.61
294.39	-47.68
294.605	-34.87
294.821	-26.5
295.036	-15.08
295.251	-13.88
295.467	-11.57
295.682	-15.58
295.897	-27.43
296.112	-33.49
296.328	-19.1
296.543	-20
296.758	-29.09
296.973	-21.09
297.188	-25.35
297.404	-69.78
297.619	-81.33
297.834	-96.67
298.049	-85.78
298.264	-89.66
298.479	-73.71
298.694	-26.75
298.909	-19.12
299.125	-24.74
299.34	-10.91
299.555	-12.41
299.77	5.35
299.985	12.26
300.2	15.88
300.415	14.74
300.63	10.48
300.845	3.46
301.06	-3.95
301.275	-5.5
301.49	-5.26
301.704	-10.44
301.919	-32.96
302.134	-37.49
302.349	-34.1
302.564	-37.45
302.779	-46.81
302.994	-11.59
303.209	-15.81
303.423	-13.75
303.638	-15.26
303.853	-15.44
304.068	-36.36
304.283	-29.66
304.497	-52.36
304.712	-33.14
304.927	-20.97
305.142	-9.88
305.356	5.97
305.571	20.66
305.786	9.7
306	25.4
306.215	9.37
306.43	-19.3
306.644	-27.8
306.859	-23.38
307.074	-34.03
307.288	-26.6
307.503	-10.54
307.717	-17.68
307.932	0.36
308.147	-4.03
308.361	-9.26
308.576	-26.53
308.79	-10.86
309.005	-40.76
309.219	-10.56
309.434	27.18
309.648	26.08
309.863	25.28
310.077	28.46
310.292	33.1
310.506	-5.96
310.72	-12.42
310.935	-0.66
311.149	-0.96
311.364	-17.7
311.578	-6.15
311.792	3.86
312.007	4.35
312.221	-14.36
312.435	-2.89
312.649	11.62
312.864	-19.11
313.078	-30.21
313.292	-23.32
313.507	-30.35
313.721	-36.53
313.935	-5.57
314.149	13.67
314.363	11.09
314.578	11.57
314.792	-14.92
315.006	-39.47
315.22	-34.17
315.434	-11.69
315.648	-32.91
315.862	-23.05
316.077	-19.7
316.291	-35.91
316.505	-79.42
316.719	-47.46
316.933	-35.38
317.147	-28.08
317.361	-33.27
317.575	-13.99
317.789	-22.38
318.003	-20.43
318.217	-24.49
318.431	-25.76
318.645	-28.17
318.859	-10.09
319.073	-2.68
319.287	2.62
319.5	4.7
319.714	-9.42
319.928	-5.12
320.142	-12.71
320.356	-9.58
320.57	-25.54
320.784	0.5
320.997	-36.49
321.211	-16.93
321.425	-44.51
321.639	-11.66
321.853	-1.05
322.066	4.14
322.28	-4.32
322.494	8.3
322.707	4.85
322.921	-9.4
323.135	-10.42
323.349	-9.66
323.562	-24.78
323.776	-21.26
323.989	0.13
324.203	0.25
324.417	5
324.63	10.46
324.844	-14.22
325.057	-57.43
325.271	-59.31
325.485	-78.1
325.698	-60.13
325.912	-19.53
326.125	-7.59
326.339	12.3
326.552	4.93
326.766	10.69
326.979	1.84
327.193	-2.55
327.406	-34.78
327.619	-4.78
327.833	-19.01
328.046	-26.3
328.26	-20.39
328.473	-12.38
328.686	-18.57
328.9	8.68
329.113	2.26
329.326	-4.1
329.54	11.08
329.753	9.77
329.966	6.27
330.179	7.19
330.393	13.27
330.606	4.3
330.819	6.42
331.032	-2.14
331.246	5.52
331.459	7.26
331.672	-2.86
331.885	-20.62
332.098	-18.31
332.311	-17.61
332.525	-15.43
332.738	-10.64
332.951	-9.07
333.164	-5.25
333.377	-9.2
333.59	-24.46
333.803	-19.32
334.016	-22.05
334.229	-26.32
334.442	-12.52
334.655	-4.37
334.868	-19.65
335.081	-15.17
335.294	-20.22
335.507	-40.91
335.72	-19.27
335.933	1.61
336.146	-1.6
336.359	7.99
336.572	14.53
336.785	-5.51
336.997	-21.39
337.21	-17.25
337.423	-47.4
337.636	-35.33
337.849	-20.11
338.062	-4.11
338.274	2.12
338.487	-2.72
338.7	-26.9
338.913	-24.33
339.125	-39.96
339.338	-30.58
339.551	-12.46
339.763	11.04
339.976	4.05
340.189	-10.49
340.402	-12.9
340.614	-15.91
340.827	-23.73
341.039	-30.01
341.252	-24.63
341.465	-32.92
341.677	-42.4
341.89	-52.21
342.102	-30.46
342.315	-29.42
342.527	-19.3
342.74	-38.48
342.952	-32.17
343.165	-39.59
343.377	-13.96
343.59	-18.81
343.802	5.63
344.015	16.73
344.227	13
344.44	-13.5
344.652	1.57
344.864	-3.47
345.077	-6.1
345.289	10.26
345.502	28.96
345.714	13.23
345.926	13.24
346.139	-8.19
346.351	-21.65
346.563	-32.64
346.775	-33.94
346.988	-24.16
347.2	-13.88
347.412	0.48
347.624	-0.41
347.837	-3.95
348.049	-5.47
348.261	-12.91
348.473	-24.28
348.685	-20.33
348.897	-31.34
349.11	-24.84
349.322	-11.49
349.534	-25.6
349.746	-29.3
349.958	-31.19
350.17	-58.03
350.382	-76.54
350.594	-48.04
350.806	-19.67
351.018	-6.66
351.23	6.62
351.442	16.81
351.654	16.65
351.866	-9.27
352.078	6.38
352.29	0.97
352.502	-6.06
352.714	-11.38
352.926	-8.47
353.138	-12.52
353.35	-21.34
353.561	-6.72
353.773	-12.45
353.985	5.96
354.197	0.79
354.409	2.07
354.621	-15.92
354.832	-20.63
355.044	-40.68
355.256	-58.16
355.468	-62.33
355.679	-29.9
355.891	-3.28
356.103	-10.43
356.314	-19.76
356.526	-23.32
356.738	-36.11
356.949	-49.6
357.161	-27.53
357.373	-3.86
357.584	6.37
357.796	8.73
358.008	8.05
358.219	5.31
358.431	-1.42
358.642	-7.12
358.854	-11.69
359.065	-29.13
359.277	-26.28
359.488	-33.13
359.7	-33.87
359.911	-40.52
360.123	-23.94
360.334	-38.88
360.546	-29.72
360.757	-20.63
360.969	-11.55
361.18	-4.26
361.391	20.5
361.603	23.17
361.814	15.66
362.025	20.73
362.237	11.84
362.448	9.46
362.659	1.61
362.871	-11.6
363.082	-20.15
363.293	-23.82
363.504	-47.21
363.716	-44.34
363.927	-9.94
364.138	-36.77
364.349	-45.78
364.56	-54.84
364.772	-32.44
364.983	-27.68
365.194	-13.72
365.405	-5.37
365.616	3.59
365.827	-18.66
366.038	-27.83
366.25	-14.38
366.461	-10.58
366.672	-13.82
366.883	-17.82
367.094	-23.14
367.305	-33.74
367.516	-23.6
367.727	-29.04
367.938	-19.76
368.149	-21.72
368.36	-26.46
368.571	-46.84
368.781	-41.78
368.992	-40.85
369.203	-47.41
369.414	-57.67
369.625	-41.82
369.836	-11.11
370.047	-15.49
370.258	1.62
370.468	8.15
370.679	-14.34
370.89	-48.59
371.101	-16.36
371.312	-33.96
371.522	-24.88
371.733	-13.09
371.944	-7.52
372.155	-13.45
372.365	-1.43
372.576	-0.77
372.787	15.1
372.997	12.39
373.208	8.45
373.419	6.8
373.629	1.93
373.84	-20.38
374.05	-18.97
374.261	-30.32
374.472	-22.98
374.682	-4.24
374.893	2.52
375.103	8.19
375.314	19.43
375.524	18.62
375.735	17.14
375.945	15.51
376.156	14.25
376.366	4.26
376.577	8.41
376.787	4.11
376.997	11.67
377.208	9.22
377.418	5.02
377.629	-1.79
377.839	-2.72
378.049	-11.97
378.26	-15.72
378.47	-7.41
378.68	1.78
378.89	1.99
379.101	6.67
379.311	6.08
379.521	-4.84
379.732	-10.13
379.942	-21.34
380.152	-23.69
380.362	-18.12
380.572	0.58
380.783	6.13
380.993	17.34
381.203	15.77
381.413	13.97
381.623	15
381.833	11.3
382.043	6.96
382.253	6.49
382.463	17.61
382.674	10.86
382.884	17.53
383.094	16.9
383.304	19.42
383.514	12.77
383.724	3.34
383.934	-10.14
384.144	-5.97
384.353	-0.99
384.563	-9.39
384.773	-3.5
384.983	-2.59
385.193	-8.05
385.403	-13.13
385.613	-5.6
385.823	-2.73
386.033	-0.71
386.242	-5.23
386.452	-9.85
386.662	-11.47
386.872	-10.63
387.082	-9.13
387.291	-9.79
387.501	-4.36
387.711	-1.5
387.921	-2.64
388.13	-2.11
388.34	3.91
388.55	-0.82
388.759	-5.67
388.969	-3.11
389.179	-4.84
389.388	-7.24
389.598	-6.31
389.807	-9.21
390.017	-11.99
390.227	-10.29
390.436	-9.32
390.646	-9.09
390.855	-5.62
391.065	-5.52
391.274	-4.94
391.484	-4.56
391.693	-1.48
391.903	-0.67
392.112	-0.53
392.322	-2.32
392.531	-2.76
392.74	-2.75
392.95	-2.52
393.159	-1.2
393.369	-1.07
393.578	-0.13
393.787	-1.48
393.997	-0.59
394.206	-2.19
394.415	-0.53
394.625	0.13
394.834	-1.13
395.043	-0.69
395.252	1.76
395.462	2.23
395.671	1.82
395.88	4.52
396.089	3.61
396.298	3.42
396.508	3.53
396.717	3.45
396.926	2.68
397.135	3
397.344	1.93
397.553	1.53
397.762	2.33
397.971	1.84
398.181	1.68
398.39	2.04
398.599	2.63
398.808	2.57
399.017	3.82
399.226	4.21
399.435	4.41
399.644	4.49
399.853	4.28
400.062	4.05
400.27	3.77
400.479	3.81
400.688	3.67
400.897	3.34
401.106	3.35
401.315	3.39
401.524	3.38
401.733	3.42
401.941	4.21
402.15	3.84
402.359	3.95
402.568	4.13
402.777	4.22
402.985	3.62
403.194	3.57
403.403	3.75
403.612	3.48
403.82	3.23
404.029	3.43
404.238	3.59
404.446	3.74
404.655	4.04
404.864	4.05
405.072	3.95
405.281	3.98
405.489	3.67
405.698	3.54
405.906	3.58
406.115	3.52
406.324	3.51
406.532	3.61
406.741	3.57
406.949	3.6
407.158	3.72
407.366	3.6
407.574	3.67
407.783	3.73
407.991	3.66
408.2	3.81
408.408	3.81
408.617	3.73
408.825	3.52
409.033	3.72
409.242	3.7
409.45	3.77
409.658	3.8
409.867	4.06
410.075	4.01
410.283	3.79
410.491	3.73
410.7	3.58
410.908	3.54
411.116	3.59
411.324	3.68
411.533	3.6
411.741	3.67
411.949	3.63
412.157	3.46
412.365	3.52
412.573	3.73
412.781	3.66
412.99	3.65
413.198	3.67
413.406	3.66
413.614	3.66
413.822	3.77
414.03	3.71
414.238	3.8
414.446	3.78
414.654	3.62
414.862	3.53
415.07	3.48
415.278	3.49
415.486	3.34
415.694	3.48
415.902	3.48
416.109	3.5
416.317	3.38
416.525	3.41
416.733	3.18
416.941	3.2
417.149	3.12
417.357	3.12
417.564	3.12
417.772	3.22
417.98	3.17
418.188	3.17
418.395	2.86
418.603	2.76
418.811	2.72
419.019	2.73
419.226	2.84
419.434	2.95
419.642	3.04
419.849	3
420.057	2.96
420.265	2.86
420.472	2.99
420.68	2.96
420.887	3.05
421.095	3.08
421.302	2.96
421.51	2.96
421.717	2.96
421.925	2.96
422.132	3.03
422.34	3.08
422.547	2.98
422.755	3
422.962	2.99
423.17	2.78
423.377	2.81
423.585	2.89
423.792	2.78
423.999	2.78
424.207	2.77
424.414	2.78
424.621	2.88
424.829	2.91
425.036	2.8
425.243	2.94
425.451	2.86
425.658	2.67
425.865	2.86
426.072	2.92
426.28	2.89
426.487	2.95
426.694	2.96
426.901	2.86
427.108	2.81
427.315	2.88
427.523	2.82
427.73	2.88
427.937	2.62
428.144	2.62
428.351	2.53
428.558	2.52
428.765	2.46
428.972	2.64
429.179	2.51
429.386	2.49
429.593	2.41
429.8	2.49
430.007	2.47
430.214	2.51
430.421	2.63
430.628	2.84
430.835	2.89
431.042	2.85
431.249	2.94
431.456	2.83
431.662	2.87
431.869	2.91
432.076	2.99
432.283	3.13
432.49	3.18
432.697	3.1
432.903	3.03
433.11	3.04
433.317	2.91
433.524	2.89
433.73	2.77
433.937	2.84
434.144	2.65
434.35	2.65
434.557	2.72
434.764	2.88
434.97	2.67
435.177	2.91
435.384	3.04
435.59	3.04
435.797	3.03
436.003	3.16
436.21	3.11
436.416	3.02
436.623	3.04
436.829	3.03
437.036	3.03
437.242	3.11
437.449	3.07
437.655	3.09
437.862	3.08
438.068	3.04
438.275	3.08
438.481	3.1
438.687	3
438.894	3.2
439.1	3.18
439.307	3.22
439.513	3.22
439.719	3.35
439.926	3.17
440.132	3.34
440.338	3.22
440.544	3.12
440.751	3.01
440.957	3.12
441.163	3.04
441.369	3.04
441.575	3.09
441.782	3.18
441.988	3.1
442.194	3.06
442.4	3.05
442.606	3.24
442.812	3.25
443.018	3.21
443.224	3.36
443.431	3.41
443.637	3.26
443.843	3.24
444.049	3.31
444.255	3.21
444.461	3.12
444.667	3.06
444.873	3.06
445.079	3.09
445.284	3.19
445.49	3.17
445.696	3.17
445.902	3.17
446.108	3.2
446.314	3.14
446.52	3.21
446.726	3.35
446.931	3.28
447.137	3.22
447.343	3.3
447.549	3.37
447.755	3.3
447.96	3.34
448.166	3.41
448.372	3.4
448.578	3.26
448.783	3.34
448.989	3.41
449.195	3.31
449.4	3.33
449.606	3.41
449.812	3.32
450.017	3.23
450.223	3.21
450.428	3.09
450.634	3.06
450.84	3.03
451.045	3.13
451.251	3.2
451.456	3.25
451.662	3.28
451.867	3.37
452.073	3.28
452.278	3.22
452.483	3.25
452.689	3.21
452.894	3.25
453.1	3.31
453.305	3.4
453.51	3.4
453.716	3.46
453.921	3.5
454.127	3.38
454.332	3.26
454.537	3.15
454.742	3.02
454.948	2.95
455.153	3.08
455.358	3.18
455.563	3.3
455.769	3.35
455.974	3.29
456.179	3.18
456.384	3.14
456.589	3.04
456.795	3
457	3.05
457.205	3.01
457.41	2.9
457.615	2.96
457.82	3.08
458.025	3.09
458.23	3.21
458.435	3.29
458.64	3.28
458.845	3.3
459.05	3.28
459.255	3.26
459.46	3.27
459.665	3.29
459.87	3.19
460.075	3.15
460.28	3.19
460.485	3.29
460.69	3.33
460.895	3.41
461.099	3.42
461.304	3.36
461.509	3.27
461.714	3.32
461.919	3.31
462.123	3.39
462.328	3.3
462.533	3.26
462.738	3.15
462.942	3.11
463.147	3.13
463.352	3.27
463.556	3.29
463.761	3.32
463.966	3.34
464.17	3.41
464.375	3.44
464.58	3.49
464.784	3.44
464.989	3.47
465.193	3.29
465.398	3.26
465.602	3.34
465.807	3.38
466.011	3.37
466.216	3.35
466.42	3.45
466.625	3.46
466.829	3.42
467.034	3.51
467.238	3.71
467.443	3.72
467.647	3.67
467.851	3.76
468.056	3.69
468.26	3.66
468.464	3.6
468.669	3.6
468.873	3.58
469.077	3.59
469.282	3.56
469.486	3.52
469.69	3.56
469.894	3.63
470.099	3.65
470.303	3.68
470.507	3.76
470.711	3.66
470.915	3.66
471.119	3.67
471.324	3.78
471.528	3.74
471.732	3.81
471.936	3.83
472.14	3.84
472.344	3.87
472.548	3.98
472.752	4
472.956	4.03
473.16	4.05
473.364	3.95
473.568	3.89
473.772	3.87
473.976	3.92
474.18	3.95
474.384	3.88
474.588	3.88
474.792	3.89
474.995	3.89
475.199	3.9
475.403	4.02
475.607	4
475.811	4.02
476.015	3.97
476.218	3.93
476.422	3.9
476.626	3.99
476.83	4.07
477.033	4.12
477.237	4.15
477.441	4.2
477.644	4.17
477.848	4.16
478.052	4.2
478.255	4.28
478.459	4.27
478.663	4.29
478.866	4.33
479.07	4.23
479.273	4.2
479.477	4.18
479.681	4.2
479.884	4.17
480.088	4.19
480.291	4.19
480.495	4.21
480.698	4.24
480.901	4.19
481.105	4.28
481.308	4.36
481.512	4.36
481.715	4.42
481.919	4.5
482.122	4.48
482.325	4.46
482.529	4.49
482.732	4.43
482.935	4.4
483.138	4.36
483.342	4.35
483.545	4.4
483.748	4.48
483.952	4.55
484.155	4.64
484.358	4.6
484.561	4.54
484.764	4.39
484.967	4.36
485.171	4.32
485.374	4.35
485.577	4.33
485.78	4.38
485.983	4.37
486.186	4.36
486.389	4.36
486.592	4.38
486.795	4.45
486.998	4.4
487.201	4.38
487.404	4.51
487.607	4.56
487.81	4.49
488.013	4.54
488.216	4.49
488.419	4.33
488.622	4.28
488.825	4.33
489.028	4.32
489.231	4.39
489.433	4.44
489.636	4.47
489.839	4.5
490.042	4.53
490.245	4.53
490.447	4.48
490.65	4.45
490.853	4.4
491.056	4.42
491.258	4.46
491.461	4.47
491.664	4.52
491.866	4.49
492.069	4.51
492.272	4.45
492.474	4.46
492.677	4.47
492.879	4.48
493.082	4.43
493.285	4.48
493.487	4.49
493.69	4.44
493.892	4.43
494.095	4.45
494.297	4.45
494.5	4.46
494.702	4.45
494.905	4.48
495.107	4.45
495.309	4.42
495.512	4.39
495.714	4.49
495.917	4.49
496.119	4.53
496.321	4.55
496.524	4.55
496.726	4.47
496.928	4.47
497.13	4.46
497.333	4.44
497.535	4.49
497.737	4.5
497.939	4.48
498.142	4.48
498.344	4.52
498.546	4.52
498.748	4.6
498.95	4.66
499.152	4.61
499.355	4.58
499.557	4.58
499.759	4.57
499.961	4.57
500.163	4.64
500.365	4.69
500.567	4.72
500.769	4.71
500.971	4.75
501.173	4.67
501.375	4.71
501.577	4.63
501.779	4.65
501.981	4.63
502.183	4.67
502.385	4.68
502.587	4.7
502.788	4.74
502.99	4.7
503.192	4.76
503.394	4.74
503.596	4.85
503.798	4.79
503.999	4.88
504.201	4.89
504.403	4.92
504.605	4.89
504.806	4.99
505.008	4.99
505.21	5.01
505.411	5.03
505.613	5.04
505.815	5.04
506.016	5.09
506.218	5.13
506.42	5.11
506.621	5.12
506.823	5.13
507.024	5.1
507.226	5.11
507.427	5.13
507.629	5.19
507.83	5.21
508.032	5.22
508.233	5.24
508.435	5.26
508.636	5.28
508.838	5.31
509.039	5.3
509.24	5.3
509.442	5.36
509.643	5.34
509.845	5.27
510.046	5.3
510.247	5.34
510.448	5.33
510.65	5.34
510.851	5.42
511.052	5.45
511.254	5.49
511.455	5.46
511.656	5.44
511.857	5.42
512.058	5.41
512.26	5.34
512.461	5.37
512.662	5.38
512.863	5.34
513.064	5.37
513.265	5.39
513.466	5.45
513.667	5.53
513.868	5.54
514.069	5.55
514.27	5.62
514.471	5.55
514.672	5.54
514.873	5.56
515.074	5.58
515.275	5.51
515.476	5.58
515.677	5.65
515.878	5.71
516.079	5.72
516.28	5.77
516.481	5.76
516.682	5.71
516.882	5.71
517.083	5.68
517.284	5.7
517.485	5.7
517.686	5.71
517.886	5.71
518.087	5.7
518.288	5.68
518.488	5.67
518.689	5.63
518.89	5.66
519.091	5.74
519.291	5.76
519.492	5.77
519.692	5.81
519.893	5.79
520.094	5.76
520.294	5.78
520.495	5.77
520.695	5.8
520.896	5.81
521.096	5.9
521.297	5.85
521.497	5.87
521.698	5.84
521.898	5.83
522.099	5.83
522.299	5.88
522.499	5.88
522.7	5.93
522.9	5.99
523.101	5.95
523.301	5.93
523.501	5.97
523.702	5.98
523.902	5.97
524.102	6.05
524.302	6.1
524.503	6.13
524.703	6.15
524.903	6.13
525.103	6.06
525.304	6.06
525.504	6.09
525.704	6.06
525.904	6.1
526.104	6.09
526.304	6.1
526.504	6.07
526.705	6.1
526.905	6.08
527.105	6.13
527.305	6.14
527.505	6.11
527.705	6.14
527.905	6.22
528.105	6.16
528.305	6.16
528.505	6.22
528.705	6.21
528.905	6.19
529.105	6.26
529.304	6.29
529.504	6.32
529.704	6.37
529.904	6.38
530.104	6.39
530.304	6.38
530.503	6.4
530.703	6.37
530.903	6.38
531.103	6.4
531.303	6.41
531.502	6.44
531.702	6.52
531.902	6.58
532.101	6.56
532.301	6.64
532.501	6.64
532.7	6.63
532.9	6.65
533.1	6.71
533.299	6.67
533.499	6.65
533.698	6.64
533.898	6.69
534.097	6.71
534.297	6.72
534.496	6.72
534.696	6.79
534.895	6.79
535.095	6.83
535.294	6.84
535.494	6.86
535.693	6.86
535.892	6.83
536.092	6.82
536.291	6.85
536.491	6.9
536.69	6.94
536.889	6.91
537.088	6.96
537.288	6.98
537.487	6.98
537.686	6.89
537.886	6.98
538.085	6.99
538.284	7.04
538.483	7.06
538.682	7.17
538.882	7.19
539.081	7.23
539.28	7.24
539.479	7.24
539.678	7.21
539.877	7.28
540.076	7.29
540.275	7.33
540.474	7.36
540.673	7.4
540.872	7.33
541.071	7.33
541.27	7.37
541.469	7.42
541.668	7.45
541.867	7.56
542.066	7.58
542.265	7.64
542.464	7.63
542.663	7.67
542.862	7.77
543.06	7.83
543.259	7.89
543.458	7.94
543.657	8
543.856	8.03
544.054	8.08
544.253	8.05
544.452	8.15
544.651	8.19
544.849	8.16
545.048	8.17
545.247	8.23
545.445	8.19
545.644	8.23
545.843	8.25
546.041	8.28
546.24	8.27
546.438	8.4
546.637	8.47
546.836	8.48
547.034	8.52
547.233	8.62
547.431	8.6
547.63	8.63
547.828	8.72
548.027	8.75
548.225	8.78
548.423	8.84
548.622	8.84
548.82	8.86
549.019	8.91
549.217	8.95
549.415	8.97
549.614	9.07
549.812	9.14
550.01	9.23
550.209	9.3
550.407	9.39
550.605	9.38
550.803	9.4
551.002	9.47
551.2	9.48
551.398	9.6
551.596	9.68
551.794	9.75
551.993	9.78
552.191	9.9
552.389	9.95
552.587	10.1
552.785	10.18
552.983	10.21
553.181	10.29
553.379	10.32
553.577	10.3
553.775	10.46
553.973	10.6
554.171	10.65
554.369	10.72
554.567	10.8
554.765	10.78
554.963	10.84
555.161	10.89
555.359	10.98
555.557	11.04
555.755	11.2
555.952	11.28
556.15	11.37
556.348	11.41
556.546	11.56
556.744	11.51
556.941	11.52
557.139	11.6
557.337	11.75
557.535	11.79
557.732	11.88
557.93	11.98
558.128	12.05
558.325	12.09
558.523	12.2
558.721	12.35
558.918	12.47
559.116	12.6
559.313	12.7
559.511	12.77
559.708	12.85
559.906	12.95
560.104	13.01
560.301	13.08
560.498	13.18
560.696	13.29
560.893	13.4
561.091	13.44
561.288	13.58
561.486	13.63
561.683	13.68
561.88	13.76
562.078	13.89
562.275	14
562.473	14.1
562.67	14.2
562.867	14.29
563.064	14.38
563.262	14.36
563.459	14.49
563.656	14.55
563.853	14.6
564.051	14.71
564.248	14.8
564.445	14.84
564.642	14.95
564.839	15.02
565.036	15.17
565.234	15.35
565.431	15.51
565.628	15.6
565.825	15.7
566.022	15.78
566.219	15.82
566.416	15.85
566.613	15.93
566.81	16.05
567.007	16.03
567.204	16.11
567.401	16.21
567.598	16.27
567.795	16.33
567.991	16.44
568.188	16.46
568.385	16.47
568.582	16.55
568.779	16.62
568.976	16.71
569.172	16.82
569.369	16.89
569.566	16.97
569.763	16.92
569.96	17
570.156	17.03
570.353	17.11
570.55	17.15
570.746	17.32
570.943	17.35
571.14	17.39
571.336	17.38
571.533	17.44
571.729	17.4
571.926	17.45
572.123	17.55
572.319	17.62
572.516	17.7
572.712	17.73
572.909	17.68
573.105	17.66
573.302	17.61
573.498	17.52
573.695	17.5
573.891	17.57
574.087	17.58
574.284	17.7
574.48	17.72
574.677	17.78
574.873	17.81
575.069	17.84
575.266	17.86
575.462	17.91
575.658	18
575.854	18.05
576.051	18.11
576.247	18.02
576.443	18.03
576.639	17.9
576.835	17.76
577.032	17.64
577.228	17.76
577.424	17.72
577.62	17.72
577.816	17.66
578.012	17.7
578.208	17.65
578.404	17.72
578.6	17.81
578.796	17.93
578.993	18.02
579.189	18.05
579.384	17.97
579.58	17.95
579.776	17.89
579.972	17.78
580.168	17.74
580.364	17.8
580.56	17.64
580.756	17.68
580.952	17.67
581.148	17.7
581.343	17.66
581.539	17.71
581.735	17.63
581.931	17.55
582.127	17.42
582.322	17.37
582.518	17.4
582.714	17.39
582.909	17.49
583.105	17.52
583.301	17.54
583.496	17.46
583.692	17.34
583.888	17.23
584.083	17.26
584.279	17.18
584.474	17.15
584.67	17.31
584.866	17.34
585.061	17.2
585.257	17.24
585.452	17.29
585.648	17.15
585.843	17.17
586.039	17.12
586.234	17.1
586.429	17.08
586.625	17.21
586.82	17.18
587.015	17.21
587.211	17.14
587.406	17.08
587.601	17.05
587.797	17.02
587.992	17.03
588.187	17
588.383	17.06
588.578	17.01
588.773	17.08
588.968	17.12
589.163	17.21
589.359	17.09
589.554	17.03
589.749	16.98
589.944	17.06
590.139	16.97
590.334	17.08
590.529	17.2
590.724	17.28
590.919	17.28
591.114	17.43
591.309	17.42
591.504	17.41
591.699	17.34
591.894	17.31
592.089	17.28
592.284	17.35
592.479	17.39
592.674	17.53
592.869	17.57
593.064	17.64
593.259	17.68
593.454	17.7
593.648	17.73
593.843	17.76
594.038	17.87
594.233	17.89
594.428	17.94
594.622	17.97
594.817	18.13
595.012	18.1
595.206	18.16
595.401	18.27
595.596	18.33
595.79	18.27
595.985	18.3
596.18	18.44
596.374	18.47
596.569	18.48
596.763	18.59
596.958	18.72
597.153	18.77
597.347	18.79
597.542	18.94
597.736	18.92
597.931	18.98
598.125	19.08
598.319	19.13
598.514	19.13
598.708	19.26
598.903	19.27
599.097	19.22
599.291	19.32
599.486	19.42
599.68	19.47
599.874	19.6
600.069	19.69
600.263	19.75
600.457	19.72
600.651	19.73
600.846	19.66
601.04	19.67
601.234	19.69
601.428	19.7
601.622	19.74
601.817	19.79
602.011	19.87
602.205	19.87
602.399	19.92
602.593	19.98
602.787	19.97
602.981	19.82
603.175	19.86
603.369	19.83
603.563	19.83
603.757	19.85
603.951	19.91
604.145	19.93
604.339	19.93
604.533	19.87
604.727	19.79
604.921	19.79
605.115	19.71
605.309	19.59
605.502	19.59
605.696	19.59
605.89	19.61
606.084	19.61
606.278	19.6
606.471	19.57
606.665	19.55
606.859	19.45
607.053	19.29
607.246	19.29
607.44	19.15
607.634	19.06
607.827	19.04
608.021	19.01
608.214	18.89
608.408	18.86
608.602	18.81
608.795	18.77
608.989	18.71
609.182	18.77
609.376	18.7
609.569	18.64
609.763	18.59
609.956	18.61
610.15	18.44
610.343	18.42
610.537	18.4
610.73	18.18
610.923	18.05
611.117	18.05
611.31	17.95
611.504	17.82
611.697	17.87
611.89	17.8
612.083	17.65
612.277	17.55
612.47	17.46
612.663	17.35
612.856	17.22
613.05	17.21
613.243	17.06
613.436	17.02
613.629	16.87
613.822	16.86
614.015	16.71
614.209	16.74
614.402	16.62
614.595	16.61
614.788	16.47
614.981	16.43
615.174	16.27
615.367	16.18
615.56	16.06
615.753	16.07
615.946	15.99
616.139	15.97
616.332	16.04
616.525	16
616.718	15.89
616.911	15.82
617.103	15.82
617.296	15.7
617.489	15.61
617.682	15.55
617.875	15.57
618.067	15.48
618.26	15.36
618.453	15.4
618.646	15.48
618.838	15.39
619.031	15.38
619.224	15.45
619.417	15.45
619.609	15.36
619.802	15.38
619.994	15.3
620.187	15.13
620.38	15.02
620.572	14.97
620.765	14.9
620.957	14.9
621.15	14.9
621.342	14.87
621.535	14.81
621.727	14.74
621.92	14.73
622.112	14.76
622.305	14.85
622.497	14.79
622.69	14.83
622.882	14.78
623.074	14.77
623.267	14.64
623.459	14.61
623.651	14.53
623.844	14.51
624.036	14.5
624.228	14.45
624.42	14.43
624.613	14.41
624.805	14.41
624.997	14.34
625.189	14.36
625.381	14.4
625.574	14.37
625.766	14.36
625.958	14.42
626.15	14.37
626.342	14.29
626.534	14.29
626.726	14.29
626.918	14.17
627.11	14.09
627.302	14.13
627.494	14.11
627.686	14
627.878	13.94
628.07	13.98
628.262	13.95
628.454	13.85
628.646	13.78
628.838	13.79
629.029	13.75
629.221	13.66
629.413	13.6
629.605	13.61
629.797	13.57
629.989	13.53
630.18	13.57
630.372	13.59
630.564	13.54
630.755	13.45
630.947	13.46
631.139	13.38
631.33	13.28
631.522	13.29
631.714	13.34
631.905	13.33
632.097	13.31
632.289	13.34
632.48	13.28
632.672	13.24
632.863	13.12
633.055	13.11
633.246	13.09
633.438	13.1
633.629	13.13
633.821	13.15
634.012	13.2
634.203	13.19
634.395	13.17
634.586	13.11
634.777	13.06
634.969	12.96
635.16	12.91
635.351	12.88
635.543	12.82
635.734	12.77
635.925	12.84
636.117	12.82
636.308	12.91
636.499	12.85
636.69	12.87
636.881	12.79
637.073	12.87
637.264	12.8
637.455	12.86
637.646	12.9
637.837	12.93
638.028	12.88
638.219	12.93
638.41	12.98
638.601	12.91
638.792	12.91
638.983	12.9
639.174	12.79
639.365	12.76
639.556	12.77
639.747	12.67
639.938	12.72
640.129	12.75
640.32	12.7
640.511	12.68
640.701	12.75
640.892	12.64
641.083	12.59
641.274	12.48
641.465	12.45
641.655	12.41
641.846	12.38
642.037	12.32
642.228	12.28
642.418	12.26
642.609	12.25
642.8	12.27
642.99	12.31
643.181	12.47
643.372	12.47
643.562	12.42
643.753	12.36
643.943	12.27
644.134	12.14
644.324	12.1
644.515	12.07
644.705	12.09
644.896	12.21
645.086	12.26
645.277	12.21
645.467	12.17
645.658	12.1
645.848	11.99
646.038	11.92
646.229	12.02
646.419	11.96
646.61	12.01
646.8	12.04
646.99	12.02
647.18	11.93
647.371	11.93
647.561	11.87
647.751	11.86
647.941	11.88
648.132	11.82
648.322	11.79
648.512	11.78
648.702	11.74
648.892	11.7
649.082	11.69
649.272	11.75
649.462	11.67
649.653	11.65
649.843	11.61
650.033	11.69
650.223	11.7
650.413	11.74
650.603	11.83
650.793	11.85
650.983	11.76
651.172	11.69
651.362	11.64
651.552	11.52
651.742	11.41
651.932	11.43
652.122	11.37
652.312	11.34
652.502	11.18
652.691	11.14
652.881	11.03
653.071	11.04
653.261	10.89
653.45	10.84
653.64	10.81
653.83	10.71
654.019	10.53
654.209	10.49
654.399	10.47
654.588	10.31
654.778	10.21
654.968	10.18
655.157	10.02
655.347	9.86
655.536	9.78
655.726	9.62
655.915	9.48
656.105	9.43
656.294	9.3
656.484	9.15
656.673	9.1
656.863	8.98
657.052	8.86
657.241	8.83
657.431	8.77
657.62	8.63
657.809	8.49
657.999	8.35
658.188	8.22
658.377	8.13
658.567	8.19
658.756	8.13
658.945	8.01
659.134	7.82
659.324	7.7
659.513	7.45
659.702	7.29
659.891	7.24
660.08	7.1
660.269	6.91
660.458	6.77
660.648	6.64
660.837	6.52
661.026	6.42
661.215	6.35
661.404	6.28
661.593	6.23
661.782	6.06
661.971	5.93
662.16	5.93
662.349	5.81
662.538	5.67
662.726	5.6
662.915	5.61
663.104	5.36
663.293	5.39
663.482	5.31
663.671	5.21
663.86	5.1
664.048	5.16
664.237	5.05
664.426	5.03
664.615	5.07
664.803	4.99
664.992	4.92
665.181	4.97
665.369	4.87
665.558	4.79
665.747	4.83
665.935	4.86
666.124	4.79
666.312	4.78
666.501	4.76
666.69	4.68
666.878	4.57
667.067	4.44
667.255	4.48
667.444	4.52
667.632	4.59
667.82	4.65
668.009	4.66
668.197	4.67
668.386	4.59
668.574	4.52
668.762	4.38
668.951	4.37
669.139	4.14
669.327	4.15
669.516	4.16
669.704	4.19
669.892	4.23
670.08	4.29
670.269	4.34
670.457	4.4
670.645	4.3
670.833	4.35
671.021	4.53
671.21	4.46
671.398	4.46
671.586	4.53
671.774	4.55
671.962	4.48
672.15	4.56
672.338	4.53
672.526	4.69
672.714	4.63
672.902	4.68
673.09	4.84
673.278	4.94
673.466	4.99
673.654	5
673.842	5.09
674.03	5.14
674.218	5.15
674.405	5.15
674.593	5.29
674.781	5.34
674.969	5.25
675.157	5.44
675.344	5.55
675.532	5.53
675.72	5.56
675.908	5.49
676.095	5.49
676.283	5.46
676.471	5.53
676.658	5.73
676.846	5.82
677.033	5.71
677.221	5.8
677.409	5.87
677.596	5.69
677.784	5.87
677.971	5.88
678.159	5.87
678.346	5.93
678.534	6.12
678.721	6.22
678.909	6.42
679.096	6.5
679.283	6.42
679.471	6.42
679.658	6.46
679.846	6.43
680.033	6.6
680.22	6.84
680.408	6.73
680.595	6.75
680.782	6.93
680.969	7.13
681.157	7.3
681.344	7.54
681.531	7.71
681.718	7.73
681.905	7.66
682.093	7.69
682.28	7.87
682.467	7.86
682.654	7.95
682.841	8.11
683.028	8.14
683.215	8.28
683.402	8.39
683.589	8.56
683.776	8.64
683.963	8.89
684.15	9.02
684.337	9.3
684.524	9.5
684.711	9.8
684.898	9.96
685.085	10.03
685.271	10.2
685.458	10.27
685.645	10.34
685.832	10.4
686.019	10.62
686.205	10.81
686.392	11.06
686.579	11.29
686.766	11.66
686.952	11.93
687.139	12.15
687.326	12.51
687.512	12.75
687.699	12.95
687.886	13.26
688.072	13.48
688.259	13.79
688.445	14.26
688.632	14.71
688.818	15.09
689.005	15.58
689.191	16.03
689.378	16.52
689.564	16.97
689.751	17.39
689.937	18.07
690.124	18.52
690.31	18.73
690.496	19.13
690.683	19.78
690.869	20.03
691.055	20.45
691.242	20.99
691.428	21.48
691.614	22.09
691.8	22.69
691.987	23.37
692.173	24.12
692.359	24.98
692.545	25.62
692.731	26.32
692.918	26.76
693.104	27.4
693.29	27.89
693.476	28.62
693.662	29.09
693.848	30.09
694.034	30.87
694.22	31.68
694.406	32.11
694.592	33.06
694.778	33.5
694.964	34.09
695.15	34.68
695.336	35.32
695.522	36.16
695.708	37.03
695.894	37.72
696.08	38.46
696.265	39.29
696.451	39.79
696.637	40.4
696.823	41.13
697.009	41.82
697.194	42.42
697.38	43.11
697.566	43.91
697.751	44.8
697.937	45.63
698.123	46.52
698.308	47.18
698.494	47.92
698.68	48.73
698.865	49.28
699.051	49.93
699.236	50.72
699.422	51.48
699.607	52.01
699.793	52.72
699.978	53.09
700.164	53.56
700.349	53.88
700.535	54.14
700.72	54.93
700.906	55.75
701.091	56.45
701.276	57.16
701.462	57.62
701.647	58.05
701.832	58.58
702.018	59.2
702.203	59.82
702.388	60.25
702.573	60.6
702.759	60.95
702.944	61
703.129	61.19
703.314	61.76
703.499	62.27
703.684	62.8
703.87	63.63
704.055	64.16
704.24	64.76
704.425	65.07
704.61	65.48
704.795	65.92
704.98	66.44
705.165	67.08
705.35	67.67
705.535	67.98
705.72	68.19
705.905	68.82
706.09	69.18
706.275	69.48
706.459	70.19
706.644	70.65
706.829	70.8
707.014	71.09
707.199	71.63
707.384	71.81
707.568	71.94
707.753	72.46
707.938	72.76
708.123	72.71
708.307	73.16
708.492	73.87
708.677	73.77
708.861	74.11
709.046	74.3
709.231	74.16
709.415	74.19
709.6	74.65
709.784	74.76
709.969	75.31
710.153	75.5
710.338	75.59
710.522	76.02
710.707	76.39
710.891	76.39
711.076	76.61
711.26	77.09
711.445	77.01
711.629	77.01
711.813	77.5
711.998	77.81
712.182	77.8
712.366	78.34
712.551	78.63
712.735	78.82
712.919	79.33
713.103	79.59
713.288	79.42
713.472	79.94
713.656	79.89
713.84	79.74
714.024	80.19
714.208	80.23
714.393	79.76
714.577	80.38
714.761	80.64
714.945	80.61
715.129	80.72
715.313	81.23
715.497	80.57
715.681	80.78
715.865	80.96
716.049	81.7
716.233	81.59
716.417	81.74
716.601	82.08
716.785	81.77
716.968	81.47
717.152	81.77
717.336	82.09
717.52	82.13
717.704	82.88
717.888	83.39
718.071	83.48
718.255	83.78
718.439	83.23
718.622	83.4
718.806	83.29
718.99	83.12
719.174	83.25
719.357	84.13
719.541	84.06
719.724	84.08
719.908	84.27
720.092	84.17
720.275	83.62
720.459	83.71
720.642	83.81
720.826	84.07
721.009	84.26
721.193	84.37
721.376	83.98
721.559	83.93
721.743	84.46
721.926	84.68
722.11	85.3
722.293	86.06
722.476	85.69
722.66	85.89
722.843	85.54
723.026	86.12
723.21	85.91
723.393	87.21
723.576	87.18
723.759	87.68
723.942	86.61
724.126	86.72
724.309	85.77
724.492	85.32
724.675	85.11
724.858	85.98
725.041	86.08
725.224	86.39
725.407	86.67
725.59	87.04
725.774	86.67
725.957	86.4
726.14	86.84
726.322	87.18
726.505	87.5
726.688	87.51
726.871	87.73
727.054	87.79
727.237	87.41
727.42	86.81
727.603	86.71
727.786	87.19
727.968	86.66
728.151	86.79
728.334	87.72
728.517	88.09
728.699	87.71
728.882	87.92
729.065	88.06
729.248	87.74
729.43	87.66
729.613	87.97
729.796	88.62
729.978	89.31
730.161	89.52
730.343	90.04
730.526	89.71
730.708	89.59
730.891	89.2
731.073	89.21
731.256	89.32
731.438	90.8
731.621	90.94
731.803	90.42
731.986	90.63
732.168	91
732.35	90.14
732.533	89.5
732.715	90.66
732.898	90.23
733.08	90.67
733.262	90.68
733.444	92.07
733.627	91.7
733.809	92.79
733.991	92.33
734.173	91.94
734.355	90.85
734.538	91.45
734.72	91.43
734.902	92.37
735.084	93.17
735.266	94.26
735.448	93.73
735.63	93.47
735.812	92.92
735.994	92.4
736.176	91.99
736.358	92.58
736.54	92.82
736.722	92.07
736.904	92.2
737.086	92.64
737.268	92.87
737.45	93
737.632	93.53
737.814	94.34
737.995	94.01
738.177	94.07
738.359	93.66
738.541	94.1
738.723	93.67
738.904	93.91
739.086	93.65
739.268	93.32
739.449	92.41
739.631	92.61
739.813	92.02
739.994	91.57
740.176	92.63
740.358	93.76
740.539	93.04
740.721	93.59
740.902	93.05
741.084	91.89
741.265	91.46
741.447	92.62
741.628	92.52
741.81	94.27
741.991	96.07
742.172	96.13
742.354	96.15
742.535	96.36
742.717	95.09
742.898	93.52
743.079	93.96
743.261	93.66
743.442	92.42
743.623	92.5
743.804	93.13
743.986	92.8
744.167	92.49
744.348	92.38
744.529	92.26
744.71	91.88
744.891	91.62
745.073	91.75
745.254	92.92
745.435	92.41
745.616	92.11
745.797	91.43
745.978	92.02
746.159	92.07
746.34	93.03
746.521	93.52
746.702	94.49
746.883	94.16
747.064	94.28
747.245	95.02
747.426	94.73
747.606	94.44
747.787	94.28
747.968	93.26
748.149	92.4
748.33	92.69
748.51	91.75
748.691	91.28
748.872	93.15
749.053	92.62
749.233	92.66
749.414	94.23
749.595	94.95
749.775	93.23
749.956	92.96
750.137	92.78
750.317	90.25
750.498	89.38
750.678	90.08
750.859	90.99
751.04	90.95
751.22	92.35
751.4	93.42
751.581	93.02
751.761	94.01
751.942	94.65
752.122	94.01
752.303	92.85
752.483	93.04
752.663	92
752.844	91.86
753.024	93.15
753.204	93.71
753.385	94.59
753.565	93.91
753.745	92.32
753.925	91.22
754.106	91.53
754.286	88.61
754.466	89.59
754.646	91.11
754.826	92.75
755.006	91.2
755.187	93.76
755.367	92.05
755.547	91.17
755.727	89.96
755.907	90.45
756.087	89.32
756.267	88.42
756.447	88.57
756.627	87.24
756.807	87.8
756.987	87.55
757.167	89.38
757.346	90.29
757.526	91.27
757.706	91.66
757.886	92.4
758.066	93.12
758.246	92.08
758.425	91.32
758.605	89.9
758.785	89.67
758.965	89.74
759.144	89.16
759.324	92.89
759.504	93.16
759.683	93.18
759.863	93.21
760.043	93.26
760.222	90.21
760.402	90.42
760.581	90.71
760.761	89.26
760.94	90.44
761.12	90.64
761.299	91.99
761.479	92.1
761.658	92
761.838	92.31
762.017	92.87
762.197	90.14
762.376	89.73
762.555	90.05
762.735	90.12
762.914	89.24
763.093	89.43
763.273	89.62
763.452	89.08
763.631	87.9
763.81	88.17
763.99	89.57
764.169	89.29
764.348	89.46
764.527	88.63
764.706	87.59
764.885	87.11
765.064	87.29
765.243	86.89
765.423	89.29
765.602	90.62
765.781	88.58
765.96	87.86
766.139	87.61
766.318	87.74
766.497	87.09
766.676	89.31
766.854	88.91
767.033	90.33
767.212	90.33
767.391	90.98
767.57	94.58
767.749	95.13
767.928	95.04
768.106	90.76
768.285	89.46
768.464	85.43
768.643	85.43
768.821	84.1
769	85.42
769.179	86.76
769.357	87.91
769.536	87.14
769.715	88.38
769.893	88.82
770.072	86.05
770.25	83.64
770.429	83.25
770.607	82.33
770.786	82.35
770.964	84.81
771.143	86.88
771.321	85.53
771.5	85.88
771.678	86.09
771.857	83.26
772.035	82.52
772.213	85.38
772.392	84.48
772.57	84.91
772.748	86.12
772.927	86.76
773.105	87.06
773.283	89.2
773.461	89.95
773.64	90.97
773.818	89.82
773.996	89.6
774.174	88.83
774.352	87.67
774.531	86.44
774.709	86.4
774.887	82.65
775.065	80.85
775.243	81.09
775.421	81.74
775.599	81.61
775.777	82.86
775.955	81.28
776.133	79.72
776.311	78.32
776.489	78.19
776.667	77.86
776.844	80.48
777.022	81.89
777.2	81.64
777.378	80.65
777.556	82.8
777.734	82.32
777.911	82.23
778.089	83.85
778.267	83.99
778.445	84.02
778.622	85.45
778.8	83.45
778.978	83.94
779.155	86.59
779.333	87.43
779.511	85.37
779.688	86.55
779.866	86.84
780.043	84.94
780.221	83.57
780.398	84.94
780.576	84.03
780.753	82.45
780.931	83.62
781.108	85.41
781.286	84.23
781.463	84.57
781.64	87.01
781.818	88.96
781.995	88.36
782.172	88.52
782.35	90.18
782.527	87.02
782.704	83.9
782.882	79.58
783.059	79.5
783.236	77.17
783.413	76.61
783.59	75.85
783.768	77.15
783.945	77.52
784.122	78.82
784.299	82.88
784.476	80.82
784.653	82.29
784.83	80.52
785.007	79.76
785.184	76.25
785.361	79.35
785.538	76.93
785.715	78.03
785.892	78.05
786.069	80.65
786.246	80.86
786.423	83.45
786.6	80.84
786.776	82.71
786.953	77.85
787.13	79.56
787.307	80.08
787.484	79.7
787.66	77.76
787.837	79.36
788.014	78.15
788.191	74.82
788.367	76.35
788.544	74.57
788.721	75.82
788.897	73.44
789.074	76.16
789.25	76.99
789.427	77.58
789.603	74.49
789.78	76.27
789.956	72.59
790.133	68.76
790.309	70.18
790.486	73.99
790.662	74.2
790.839	76.76
791.015	79.23
791.192	80.18
791.368	81.74
791.544	81.42
791.721	79.93
791.897	82.25
792.073	79.81
792.249	75.6
792.426	77.11
792.602	78.66
792.778	75.21
792.954	75.16
793.13	75.19
793.307	74.84
793.483	73.5
793.659	74.52
793.835	77.88
794.011	80
794.187	76.81
794.363	77.33
794.539	79.76
794.715	77.02
794.891	75.76
795.067	72.15
795.243	71.95
795.419	69
795.595	72.55
795.771	72.74
795.947	77.8
796.122	75.81
796.298	75.07
796.474	75.89
796.65	78.28
796.826	75.31
797.001	75.07
797.177	71.16
797.353	68.06
797.529	66.94
797.704	70.52
797.88	75.45
798.056	79.14
798.231	74.64
798.407	76.02
798.582	73.7
798.758	73.73
798.934	78.74
799.109	80.61
799.285	78.39
799.46	79.56
799.636	73.5
799.811	72.77
799.986	72.57
800.162	68.3
800.337	67.77
800.513	69.94
800.688	60.11
800.863	63.21
801.039	67.74
801.214	63.44
801.389	64.44
801.565	72.34
801.74	68.15
801.915	64.34
802.09	64.41
802.265	62.05
802.441	62.02
802.616	63.78
802.791	69.68
802.966	75.55
803.141	76.61
803.316	75.65
803.491	77.97
803.666	74.06
803.841	69.05
804.016	67.51
804.191	71.63
804.366	62.95
804.541	64.98
804.716	68.84
804.891	68.35
805.066	67.1
805.241	74.38
805.416	74.75
805.591	73.08
805.765	81.53
805.94	80.37
806.115	78.86
806.29	72.09
806.464	74.95
806.639	70.97
806.814	67.73
806.989	64.42
807.163	73.93
807.338	66.52
807.512	68.57
807.687	68.79
807.862	73.04
808.036	69
808.211	66.51
808.385	66.75
808.56	65.59
808.734	53.48
808.909	50.86
809.083	54.53
809.258	54.77
809.432	50.94
809.606	61.96
809.781	63.8
809.955	65.89
810.13	56.02
810.304	61.46
810.478	59.4
810.652	57.59
810.827	61.54
811.001	66.11
811.175	67.9
811.349	67.96
811.524	74.09
811.698	66.22
811.872	73.19
812.046	68.09
812.22	64.68
812.394	63.72
812.568	70.36
812.742	54.76
812.916	62.85
813.09	64.99
813.264	59.79
813.438	59.32
813.612	66.76
813.786	62.49
813.96	65.99
814.134	66.54
814.308	68.06
814.482	68.74
814.656	68.92
814.83	62.44
815.003	67.39
815.177	65.43
815.351	75.59
815.525	80.43
815.698	78.55
815.872	65.36
816.046	58.89
816.219	56.62
816.393	52.64
816.567	57.19
816.74	67.24
816.914	74.15
817.088	72.79
817.261	69.16
817.435	76.36
817.608	75.96
817.782	66.32
817.955	69.25
818.129	68.76
818.302	62.78
818.475	64.53
818.649	69.71
818.822	55.29
818.996	65.81
819.169	71.15
819.342	65.65
819.516	68.21
819.689	69.62
819.862	60
820.035	60.54
820.209	58.74
820.382	46.19
820.555	34.89
820.728	37.74
820.901	24.28
821.075	31.38
821.248	37.89
821.421	49.12
821.594	47.14
821.767	59.44
821.94	44.25
822.113	50.78
822.286	55.93
822.459	62.82
822.632	59.77
822.805	71.6
822.978	67.42
823.151	65.15
823.324	51.97
823.496	48.56
823.669	53.62
823.842	67.78
824.015	62.06
824.188	49.38
824.361	50.81
824.533	34.21
824.706	27.31
824.879	39.82
825.051	57.59
825.224	58.48
825.397	60.33
825.569	58.19
825.742	53.03
825.915	44.65
826.087	40.51
826.26	42.51
826.432	40.78
826.605	47.06
826.777	50.74
826.95	56.91
827.122	59.53
827.295	74.25
827.467	71.15
827.64	64.26
827.812	54.78
827.984	60.7
828.157	33.33
828.329	47.3
828.501	42.08
828.674	54.26
828.846	54.77
829.018	59.5
829.19	41.51
829.363	51.17
829.535	37.14
829.707	31.31
829.879	19.16
830.051	24.15
830.223	22.16
830.395	17.62
830.568	18
830.74	26.9
830.912	34.43
831.084	30.34
831.256	34.22
831.428	48.65
831.6	35.43
831.772	29.52
831.943	22.34
832.115	32.39
832.287	24.9
832.459	39.73
832.631	40.13
832.803	52.1
832.975	49.3
833.146	37.65
833.318	40.87
833.49	45.1
833.662	51.4
833.833	52.69
834.005	70.95
834.177	71.84
834.348	59.61
834.52	46.29
834.692	50.18
834.863	44.23
835.035	34.85
835.206	39.81
835.378	37.87
835.549	29.83
835.721	34.59
835.892	34.5
836.064	26.62
836.235	21.75
836.407	19.4
836.578	11.91
836.749	4.96
836.921	18.07
837.092	13.98
837.264	16.69
837.435	24.76
837.606	35.96
837.777	42.17
837.949	49.7
838.12	42.25
838.291	36.97
838.462	28.16
838.633	14.25
838.805	5.79
838.976	22.47
839.147	12.97
839.318	18.28
839.489	21.69
839.66	32.93
839.831	26.8
840.002	39.04
840.173	45.59
840.344	42.41
840.515	28.02
840.686	30.66
840.857	26.45
841.028	20.16
841.199	33.12
841.369	45.81
841.54	27.82
841.711	60.19
841.882	63.1
842.053	41.2
842.223	30.75
842.394	37.2
842.565	17.27
842.736	12.38
842.906	6.91
843.077	11.21
843.248	26.23
843.418	33.38
843.589	38.26
843.759	42.85
843.93	48.1
844.101	34.05
844.271	32.78
844.442	43.97
844.612	45.37
844.783	41.51
844.953	35.31
845.123	23.02
845.294	10.8
845.464	-0.53
845.635	1.48
845.805	8.06
845.975	69.24
846.146	64.03
846.316	51.51
846.486	49.58
846.656	62.29
846.827	42.97
846.997	37.69
847.167	45.56
847.337	40.64
847.507	33.99
847.677	25.68
847.848	32.33
848.018	28.59
848.188	36.49
848.358	29.19
848.528	36.04
848.698	20
848.868	27.94
849.038	13.29
849.208	20.11
849.378	25.44
849.548	19.66
849.718	14.19
849.887	9.5
850.057	-4.17
850.227	21.36
850.397	30.59
850.567	7.21
850.737	28.57
850.906	13.58
851.076	-26.04
851.246	0.99
851.415	24.6
851.585	3.37
851.755	22.15
851.924	36
852.094	35.85
852.264	20.21
852.433	0.27
852.603	-25.08
852.772	-17.44
852.942	-0.7
853.111	-35.37
853.281	-17.22
853.45	-1.34
853.62	6.7
853.789	-27.73
853.959	8.71
854.128	28.13
854.297	25.05
854.467	10.26
854.636	29.08
854.805	24.75
854.975	6.17
855.144	-5.21
855.313	-4.15
855.482	-29.25
855.652	-35.23
855.821	-25.89
855.99	-14.63
856.159	-0.27
856.328	14.66
856.497	24.07
856.667	29.06
856.836	52.6
857.005	37.87
857.174	26.17
857.343	18.98
857.512	19.54
857.681	-33.43
857.85	-31.1
858.019	-56.59
858.188	-82.43
858.356	-26.48
858.525	4
858.694	31.81
858.863	35.17
859.032	40.47
859.201	-8.78
859.369	-38.22
859.538	-7.75
859.707	-38.75
859.876	-15.79
860.044	21.34
860.213	49.99
860.382	34.32
860.55	43.85
860.719	43.68
860.888	23.64
861.056	-28.13
861.225	-35.24
861.393	-25.16
861.562	-41.16
861.73	-30.57
861.899	10.37
862.067	0.32
862.236	15.27
862.404	16.76
862.572	31.13
862.741	-12.5
862.909	-24.45
863.078	-16.39
863.246	-15.29
863.414	2.56
863.582	7.66
863.751	5.51
863.919	-18.68
864.087	-9.79
864.255	-33.97
864.424	-57.01
864.592	-22.33
864.76	-38.99
864.928	-62.68
865.096	-78.4
865.264	-58.13
865.432	-27.42
865.6	25.89
865.768	51.14
865.936	66.64
866.104	75.08
866.272	78.28
866.44	38.41
866.608	25.74
866.776	35.06
866.944	55.65
867.112	43.36
867.28	27.88
867.448	40.55
867.615	28.51
867.783	7.91
867.951	4.66
868.119	34.95
868.286	20.39
868.454	24.14
868.622	7.28
868.789	-4.61
868.957	-7.38
869.125	-0.66
869.292	-20.7
869.46	7.9
869.627	31.3
869.795	11.02
869.963	24.81
870.13	31.26
870.298	20.98
870.465	-5.37
870.632	-51.66
870.8	-41.82
870.967	-46.17
871.135	-67.29
871.302	-38.78
871.469	-8.13
871.637	-34.83
871.804	4.54
871.971	8.14
872.139	-19.99
872.306	-21.73
872.473	-22.26
872.64	-130.38
872.807	-153.58
872.975	-317.52
873.142	-93.4
873.309	-74.45
873.476	-9.21
873.643	-8.42
873.81	-4.54
873.977	-46.59
874.144	-46.17
874.311	-96.42
874.478	-85.75
874.645	-71.23
874.812	-5.97
874.979	10
875.146	-38.02
875.313	-20.71
875.48	4.04
875.647	-24.17
875.813	-91.31
875.98	-61.39
876.147	-199.16
876.314	-156.52
876.481	-154.16
876.647	-44.71
876.814	-34.23
876.981	4.85
877.147	-4.36
877.314	8.31
877.481	24.07
877.647	31.34
877.814	36.2
877.98	51.96
878.147	62.76
878.314	76.35
878.48	84.53
878.647	84.73
878.813	88.23
878.979	75.52
879.146	45.24
879.312	60.32
879.479	34.59
879.645	39.37
879.811	14.48
879.978	-4.34
880.144	-13.83
880.31	-21.73
880.477	-18.63
880.643	-13.65
880.809	-56.64
880.975	-81.32
881.142	-132.41
881.308	578.2
881.474	724.63
881.64	-123.73
881.806	-110.01
881.972	-43.25
882.138	10.71
882.304	-12.26
882.47	-37.93
882.636	-65.17
882.802	-84.91
882.968	-99.42
883.134	-49.45
883.3	-25.46
883.466	-28.64
883.632	-5.69
883.798	-81.92
883.964	-102.02
884.129	-990.39
884.295	21.72
884.461	-84.81
884.627	0.84
884.793	-39.01
884.958	-11.69
885.124	-62.13
885.29	-88.23
885.455	-183.11
885.621	-56.44
885.787	-28.96
885.952	-58.99
886.118	-16.11
886.283	-32.25
886.449	-77.19
886.614	-102.07
886.78	-65.94
886.945	-95.25
887.111	-88.77
887.276	-105.59
887.442	-185.35
887.607	-185.31
887.773	-101.8
887.938	-91.01
888.103	-56.67
888.269	-15.7
888.434	-7.64
888.599	-19.27
888.764	12.57
888.93	20.75
889.095	3.79
889.26	-4.8
889.425	-26.46
889.59	-84.67
889.756	-76.38
889.921	-69.27
890.086	-122.72
890.251	6.42
890.416	-35.47
890.581	-63.66
890.746	21.39
890.911	29.23
891.076	6.72
891.241	-10.22
891.406	-31.53
891.571	-88.08
891.736	-273.67
891.901	-80.43
892.065	-12.07
892.23	-17.15
892.395	-34.38
892.56	-18.82
892.725	-58.83
892.889	-165.02
893.054	-31.98
893.219	-106.65
893.384	-121.63
893.548	-164.62
893.713	-218.44
893.878	-330.11
