Data from Ofra_PS_T2_1A_2CX10_Reflection_3.txt Node
Date: Wed Jul 21 17:52:10 EDT 2021
User: Adam
Spectrometer: FLMT01687
Trigger mode: 0
Integration Time (sec): 1.100000E0
Scans to average: 2
Electric dark correction enabled: true
Nonlinearity correction enabled: false
Boxcar width: 2
XAxis mode: Wavelengths
Number of Pixels in Spectrum: 3648
>>>>>Begin Spectral Data<<<<<
179.494	625.2
179.716	741.18
179.937	669.25
180.158	700.12
180.38	1110.94
180.601	211.33
180.823	-34.91
181.044	-161.37
181.265	-354.04
181.486	-115.42
181.708	75.87
181.929	768.37
182.15	-297.89
182.372	-6.59
182.593	-142.68
182.814	-41.05
183.035	2.87
183.257	18.94
183.478	-62.87
183.699	-30.36
183.92	-65.97
184.141	-39
184.363	-122.33
184.584	-44.69
184.805	-26.33
185.026	-0.96
185.247	-5.43
185.468	-23.7
185.689	-34.76
185.91	-21.73
186.132	-14.75
186.353	-38.23
186.574	0.51
186.795	1.16
187.016	-70.69
187.237	-75.28
187.458	-108.48
187.679	-74.73
187.9	-57.41
188.121	-32.11
188.342	-21.28
188.563	20.66
188.784	67.78
189.005	44.11
189.226	91.44
189.447	50.56
189.667	-85.19
189.888	-569.7
190.109	-1650
190.33	-972.58
190.551	-1525.22
190.772	-341.77
190.993	-245.23
191.214	-278.06
191.434	-175.84
191.655	-85.21
191.876	-176.64
192.097	-183.3
192.318	-154
192.538	-257.33
192.759	-142.78
192.98	-25.03
193.201	-21.41
193.421	-24.55
193.642	6.06
193.863	2.83
194.083	-50.42
194.304	-60.52
194.525	-58.27
194.745	-141.87
194.966	-169.69
195.187	-126.01
195.407	-140.21
195.628	-229.76
195.848	-194.83
196.069	-176.21
196.29	-146.98
196.51	-142.99
196.731	-111.97
196.951	-103.96
197.172	-127.81
197.392	-167.54
197.613	-168.7
197.833	-169.99
198.054	-151.63
198.274	-92.06
198.495	-107.77
198.715	-71.11
198.936	-122.01
199.156	-110.63
199.377	-219.79
199.597	-188.52
199.817	-214.21
200.038	-106.23
200.258	-177.81
200.479	-130.09
200.699	-118.46
200.919	-58.96
201.14	-77.77
201.36	-86.48
201.58	-10.47
201.801	13.24
202.021	-17.37
202.241	-28.78
202.461	-24.2
202.682	-164.91
202.902	-255.92
203.122	-163.02
203.342	-141.13
203.563	-81.94
203.783	-20.03
204.003	-64.87
204.223	-81.4
204.443	-11.24
204.663	-71.58
204.884	-65.57
205.104	-21.85
205.324	4.89
205.544	-16.63
205.764	14.98
205.984	16.36
206.204	20.31
206.424	-0.25
206.644	-56.6
206.864	-46.61
207.084	-120.4
207.304	-94.41
207.525	-227.34
207.745	-88.65
207.964	-13.16
208.184	-63.77
208.404	-113.67
208.624	-125.26
208.844	-129.6
209.064	-473.16
209.284	-500.91
209.504	-255.82
209.724	-75.24
209.944	-47.16
210.164	-14.22
210.384	8.93
210.604	-14.34
210.823	-62.06
211.043	-81.46
211.263	-74.62
211.483	-80.89
211.703	-137.94
211.922	-127.18
212.142	-47.6
212.362	-37.24
212.582	-36.61
212.801	-5.41
213.021	-26.41
213.241	-59.12
213.461	-112.41
213.68	-141.87
213.9	-127.03
214.12	-90.69
214.339	-160.13
214.559	-113.26
214.779	-31.02
214.998	-24.57
215.218	-67.57
215.438	-25.46
215.657	-34.52
215.877	-46.83
216.096	-26.78
216.316	-5.3
216.535	11.84
216.755	-3.07
216.974	-111.25
217.194	-148.07
217.413	-159.86
217.633	-185.41
217.852	-278.41
218.072	-121.7
218.291	-66.53
218.511	-11.5
218.73	-45.57
218.95	-30.3
219.169	-31.52
219.389	-88.35
219.608	-82.52
219.827	-81.12
220.047	-75.71
220.266	-64.41
220.485	-49.44
220.705	-41.06
220.924	-47.9
221.143	-1.6
221.363	-32.32
221.582	-22.04
221.801	-14.31
222.021	5.95
222.24	-107.89
222.459	-57.57
222.678	-79.54
222.897	-207.2
223.117	-236.37
223.336	-191.53
223.555	-101.02
223.774	-35.45
223.993	-2.98
224.213	38.44
224.432	3.79
224.651	14.38
224.87	-31.69
225.089	3.01
225.308	-7.1
225.527	20.74
225.746	-3.97
225.965	-12.96
226.184	-46.97
226.404	-25.99
226.623	-57.49
226.842	-55.35
227.061	-7.38
227.28	-1.8
227.499	-21.07
227.718	2.29
227.936	4.4
228.155	5.74
228.374	-2.29
228.593	6.01
228.812	9.7
229.031	3.66
229.25	-58.62
229.469	-50.58
229.688	-38.93
229.907	-28.9
230.125	-0.12
230.344	21.02
230.563	20.85
230.782	35.64
231.001	-26.26
231.22	-40.47
231.438	-17.23
231.657	-9.31
231.876	-37.36
232.095	12.59
232.313	31.49
232.532	14.44
232.751	-39.51
232.969	-52.88
233.188	-149
233.407	-83.55
233.625	-57.85
233.844	-60.61
234.063	-52.07
234.281	-8.87
234.5	-32.38
234.719	-35.28
234.937	-21.86
235.156	-7.78
235.374	-14
235.593	-32.5
235.811	-44.98
236.03	-53.3
236.249	-96.07
236.467	-108.66
236.686	-41.62
236.904	-12.26
237.123	-37.25
237.341	-36.4
237.559	-17.03
237.778	-40.36
237.996	-67.18
238.215	-5.63
238.433	7.55
238.652	2.19
238.87	-12.19
239.088	1.9
239.307	-12.39
239.525	-30.39
239.743	-67.84
239.962	-75.65
240.18	-134.54
240.398	-206.43
240.617	-194.11
240.835	-194.5
241.053	-168.3
241.271	-106.58
241.49	-53.19
241.708	-74.46
241.926	-87.23
242.144	-68.29
242.363	-124.33
242.581	-146.89
242.799	-97.25
243.017	-48.43
243.235	-58.72
243.453	-19.12
243.672	-12.4
243.89	-16.7
244.108	-28.34
244.326	-8.15
244.544	-25.69
244.762	-32.66
244.98	-37.31
245.198	-34.15
245.416	-50.26
245.634	-47.01
245.852	-51.48
246.07	-74.03
246.288	-59.23
246.506	-85.25
246.724	-37.78
246.942	-25.47
247.16	7.62
247.378	16.35
247.596	27.83
247.814	15.1
248.032	-16.01
248.25	-20.4
248.468	-15.56
248.685	-7.42
248.903	14.42
249.121	22.71
249.339	-8.41
249.557	-25.61
249.775	-26.73
249.992	-101.04
250.21	-108
250.428	-64.07
250.646	-105.51
250.863	-126.62
251.081	-91.13
251.299	-76.7
251.517	-84.21
251.734	-43.4
251.952	-46.19
252.17	-45.94
252.387	-21.83
252.605	-37.16
252.823	-37.06
253.04	-13.11
253.258	2.24
253.475	-30.13
253.693	0.3
253.911	13.42
254.128	20.14
254.346	30.78
254.563	4.13
254.781	-25.12
254.998	-61.3
255.216	-89.21
255.433	-98.54
255.651	-50.47
255.868	-33.41
256.086	9.8
256.303	10.93
256.521	15.74
256.738	-12.21
256.956	-35.78
257.173	-58.51
257.39	-85.95
257.608	-110.82
257.825	-51.52
258.043	-11.16
258.26	-1.75
258.477	48.06
258.695	55.88
258.912	11.88
259.129	9.41
259.346	-33.45
259.564	-77.99
259.781	-118.7
259.998	-44.73
260.216	-13.89
260.433	26.07
260.65	25.73
260.867	44.32
261.084	-4.57
261.302	-43.1
261.519	-61.03
261.736	-86.28
261.953	-111.11
262.17	-50.58
262.387	-94.08
262.604	-128.15
262.822	-124.91
263.039	-105.12
263.256	-183.05
263.473	-114.77
263.69	-70.46
263.907	-22.62
264.124	-14.66
264.341	-2.58
264.558	-12.41
264.775	3.36
264.992	-9.05
265.209	-2.62
265.426	20.11
265.643	29.65
265.86	38.78
266.077	35.78
266.294	19.03
266.51	-28.8
266.727	-55.96
266.944	-58.74
267.161	-79.7
267.378	-78.88
267.595	-50.84
267.812	-83.11
268.028	-107.16
268.245	-37.37
268.462	-60.72
268.679	-68.96
268.896	0.78
269.112	1.85
269.329	-30.7
269.546	-18.35
269.763	-14.88
269.979	-34.96
270.196	-31.45
270.413	-56.24
270.629	-69.56
270.846	-91.76
271.063	-92.17
271.279	-120.47
271.496	-92.05
271.712	-41.97
271.929	-7.97
272.146	-5.46
272.362	13.5
272.579	45.3
272.795	37.39
273.012	37.15
273.228	32.94
273.445	2.71
273.661	-37.97
273.878	-93.59
274.094	-89.88
274.311	-107.52
274.527	-21.3
274.744	-16.84
274.96	-11.44
275.177	-9.49
275.393	7.12
275.609	-4.19
275.826	14.37
276.042	7.45
276.259	-1.67
276.475	6.79
276.691	5.5
276.908	-15.24
277.124	5.41
277.34	9.84
277.557	0.1
277.773	-12.25
277.989	-11.39
278.205	-21.31
278.422	-16.95
278.638	-13.89
278.854	-3.17
279.07	-0.29
279.286	-12.68
279.503	-33.1
279.719	-29.23
279.935	-48.93
280.151	-85.28
280.367	-38.21
280.583	-45.15
280.799	-60.24
281.016	-90.32
281.232	-27.47
281.448	-27.31
281.664	0.26
281.88	-11.32
282.096	7.06
282.312	23.61
282.528	-2.59
282.744	-22.06
282.96	-16.96
283.176	-22.71
283.392	-34.9
283.608	-30.61
283.824	-27.05
284.04	-18.25
284.256	-13.09
284.471	-25.3
284.687	-39.54
284.903	-23.4
285.119	-1.32
285.335	-32.8
285.551	-33.4
285.767	-24.45
285.982	-50.54
286.198	-122.12
286.414	-39.32
286.63	-26.39
286.846	-7.33
287.061	-20.05
287.277	20.04
287.493	-15.23
287.709	-6.72
287.924	-19.13
288.14	20.39
288.356	20.38
288.571	23.85
288.787	-1.39
289.003	3.91
289.218	-21.68
289.434	-63.06
289.65	-44.06
289.865	-52.68
290.081	-41.56
290.296	-27.81
290.512	-10.66
290.727	-59.01
290.943	-40.7
291.159	-53.29
291.374	-59.08
291.59	-85.49
291.805	-50.11
292.021	-56.26
292.236	-55.44
292.451	-33.38
292.667	-18.49
292.882	-16.17
293.098	-11.36
293.313	-51.2
293.529	-93.66
293.744	-83.05
293.959	-82.03
294.175	-74.68
294.39	-19
294.605	3.62
294.821	20.65
295.036	22.09
295.251	21.49
295.467	-24.35
295.682	-51.14
295.897	-121.1
296.112	-127.3
296.328	-107.87
296.543	-91.86
296.758	-75.35
296.973	-21.4
297.188	14.68
297.404	-8.25
297.619	-28.74
297.834	-53.73
298.049	-80.12
298.264	-114.56
298.479	-54.84
298.694	-40.34
298.909	-6.58
299.125	3.68
299.34	12.1
299.555	-13.93
299.77	3.39
299.985	-47.71
300.2	-109.85
300.415	-126.26
300.63	-73.49
300.845	-88.98
301.06	-82.25
301.275	-41.41
301.49	-23.12
301.704	-50.03
301.919	-60.15
302.134	-58.15
302.349	-55.44
302.564	-121.73
302.779	-138.45
302.994	-72.65
303.209	-49.69
303.423	-21.23
303.638	50.89
303.853	10.51
304.068	-9.36
304.283	-7.69
304.497	-15.95
304.712	-35.7
304.927	-12.74
305.142	-30.07
305.356	-23.93
305.571	-25.66
305.786	-39.64
306	-54.59
306.215	-31.62
306.43	-39.73
306.644	-47.83
306.859	-6.6
307.074	-15.2
307.288	-41.77
307.503	-74.94
307.717	-64.08
307.932	-65.55
308.147	-70.01
308.361	-42.53
308.576	-49.28
308.79	-98.09
309.005	-77.28
309.219	-53.64
309.434	-75.95
309.648	-71.83
309.863	-35.95
310.077	-55.93
310.292	-66.8
310.506	-53.14
310.72	-27.07
310.935	-17.59
311.149	-15.51
311.364	14.17
311.578	28.93
311.792	7.72
312.007	15.05
312.221	-0.72
312.435	-5.2
312.649	-31.47
312.864	-3.38
313.078	-0.34
313.292	68.06
313.507	0.48
313.721	48.24
313.935	31.27
314.149	14.47
314.363	-2.59
314.578	16.86
314.792	5.35
315.006	-25.55
315.22	-3.32
315.434	1.92
315.648	-3.93
315.862	-4.13
316.077	12.24
316.291	-25.02
316.505	-27.75
316.719	-34.94
316.933	-46.72
317.147	-65.68
317.361	-100.48
317.575	-122.45
317.789	-148.46
318.003	-214.97
318.217	-161.93
318.431	-64.41
318.645	-18.52
318.859	-17.55
319.073	8.23
319.287	-4.34
319.5	-36.55
319.714	-91.22
319.928	-118.43
320.142	-148.28
320.356	-74.87
320.57	-22.75
320.784	-12.28
320.997	-37.29
321.211	-58.27
321.425	-147.29
321.639	-173.77
321.853	-95.37
322.066	-65.69
322.28	-49.95
322.494	-23.07
322.707	5.92
322.921	-7.77
323.135	0.71
323.349	9.79
323.562	-18.41
323.776	-48.42
323.989	-51.76
324.203	-67.07
324.417	-84.74
324.63	-88.89
324.844	-81.95
325.057	-79.45
325.271	-57.69
325.485	-21.29
325.698	-5.51
325.912	2.92
326.125	-34.17
326.339	-23.84
326.552	-56.88
326.766	-52.08
326.979	-34.94
327.193	26.38
327.406	-16.01
327.619	-15.66
327.833	-1.96
328.046	-29.88
328.26	-88.39
328.473	-42.53
328.686	-69.55
328.9	-68.92
329.113	-56.94
329.326	-69.91
329.54	-77.52
329.753	-86.08
329.966	-148.98
330.179	-124.16
330.393	-78.12
330.606	-61.89
330.819	-31.07
331.032	3.09
331.246	7.35
331.459	40.67
331.672	19.22
331.885	12.61
332.098	-17.87
332.311	-38.52
332.525	-105.92
332.738	-62.31
332.951	-35.21
333.164	-1.14
333.377	10.08
333.59	33.05
333.803	23.7
334.016	9.77
334.229	4.79
334.442	-0.49
334.655	23.63
334.868	30.1
335.081	17.41
335.294	-3.9
335.507	-2.05
335.72	-51.46
335.933	-59.16
336.146	-65.35
336.359	-58.74
336.572	-81.05
336.785	-86.15
336.997	-65.56
337.21	-32.02
337.423	-36.35
337.636	-41.24
337.849	-27.31
338.062	-25.96
338.274	-21.99
338.487	-35.39
338.7	-26.88
338.913	-71.75
339.125	-113.98
339.338	-190.47
339.551	-136.99
339.763	-78.9
339.976	-37.87
340.189	-12.48
340.402	-0.09
340.614	-18.4
340.827	-31.09
341.039	-52.29
341.252	-50.12
341.465	-22.82
341.677	-27.86
341.89	-68.71
342.102	-25.8
342.315	-46.1
342.527	-89.81
342.74	-74.03
342.952	-37.87
343.165	-43.01
343.377	-8.92
343.59	-6.59
343.802	20.93
344.015	31.69
344.227	40.92
344.44	25.05
344.652	23.73
344.864	-9.12
345.077	9.22
345.289	12.12
345.502	19.87
345.714	10.31
345.926	16.05
346.139	-3.22
346.351	4.5
346.563	13.67
346.775	24.82
346.988	6.02
347.2	-7.67
347.412	-76.45
347.624	-120.63
347.837	-150
348.049	-115.17
348.261	-59.77
348.473	-38.85
348.685	-35.19
348.897	-41.65
349.11	-51.48
349.322	-93.04
349.534	-57.27
349.746	-38.87
349.958	-11.01
350.17	-4.91
350.382	11.51
350.594	0.09
350.806	-12.05
351.018	-17.19
351.23	-36.42
351.442	-92.19
351.654	-116.37
351.866	-102.74
352.078	-86.85
352.29	-47.72
352.502	-17.18
352.714	2.75
352.926	-13.54
353.138	-11
353.35	-23.79
353.561	-20.15
353.773	-41.01
353.985	-27.22
354.197	-41.72
354.409	-51.56
354.621	-64.8
354.832	-48.97
355.044	-54.12
355.256	-53.75
355.468	-33.69
355.679	-42.56
355.891	-37.43
356.103	-51.76
356.314	-42.91
356.526	-44.86
356.738	-36.94
356.949	-47.21
357.161	-7.02
357.373	-13.45
357.584	-27.32
357.796	-6.01
358.008	-10.7
358.219	6.96
358.431	10.18
358.642	22.1
358.854	18.39
359.065	10.69
359.277	-46.79
359.488	-50.7
359.7	-85.26
359.911	-114.86
360.123	-93.13
360.334	-94.58
360.546	-120.02
360.757	-105.24
360.969	-73.87
361.18	-67.25
361.391	-34.22
361.603	-53.08
361.814	-48.38
362.025	-45.05
362.237	-38.61
362.448	-31.39
362.659	6.54
362.871	6.93
363.082	-4.35
363.293	-9.26
363.504	-25.01
363.716	-47.8
363.927	-44.62
364.138	-69.46
364.349	-70.91
364.56	-57.25
364.772	-48.01
364.983	-19.9
365.194	-5.24
365.405	14.09
365.616	34.82
365.827	31.72
366.038	2.27
366.25	-4.64
366.461	-58.1
366.672	-46.87
366.883	-30.03
367.094	-18.86
367.305	-25.83
367.516	-10.02
367.727	-41.95
367.938	-53.95
368.149	-55.77
368.36	-35.8
368.571	-31.38
368.781	-33.15
368.992	-53.64
369.203	-70.32
369.414	-94.01
369.625	-96.38
369.836	-93.14
370.047	-107.82
370.258	-99.97
370.468	-94.47
370.679	-113.44
370.89	-108.63
371.101	-72.41
371.312	-73.09
371.522	-72.43
371.733	-49.41
371.944	-36.5
372.155	-26.88
372.365	-22.84
372.576	-22.68
372.787	-26.67
372.997	-52.5
373.208	-64.16
373.419	-29.66
373.629	-66.17
373.84	-75.12
374.05	-83.86
374.261	-71.58
374.472	-111.07
374.682	-36.78
374.893	-40.82
375.103	2.22
375.314	-8.76
375.524	-13.17
375.735	-18.06
375.945	-4.65
376.156	-29.36
376.366	-17.82
376.577	-16.84
376.787	-28.52
376.997	-29.13
377.208	-26.51
377.418	-42.72
377.629	-23
377.839	-18.81
378.049	-15.47
378.26	1.47
378.47	12.72
378.68	-5.42
378.89	-8.88
379.101	-15.51
379.311	-55.05
379.521	-82.49
379.732	-59.89
379.942	-62.97
380.152	-82.88
380.362	-44.72
380.572	-41.74
380.783	-37.55
380.993	-20.31
381.203	-6.82
381.413	-3.57
381.623	5.71
381.833	5.25
382.043	-7.05
382.253	-14.66
382.463	-13.99
382.674	-24.15
382.884	-36.56
383.094	-42.41
383.304	-27.01
383.514	-23.09
383.724	-12.99
383.934	-19.23
384.144	-30.58
384.353	-49.29
384.563	-53.17
384.773	-47.79
384.983	-50.51
385.193	-25.48
385.403	-16.33
385.613	-12.94
385.823	-28.4
386.033	-19.9
386.242	-25.18
386.452	-31.81
386.662	-44.56
386.872	-23.38
387.082	-32.14
387.291	-41.5
387.501	-42.89
387.711	-31.26
387.921	-36.62
388.13	-32.05
388.34	-13.72
388.55	-11.92
388.759	-8.84
388.969	-2.1
389.179	0.52
389.388	-6.15
389.598	0.26
389.807	-8.5
390.017	-14.14
390.227	-16.12
390.436	-15.66
390.646	-17.45
390.855	-11.23
391.065	-10.83
391.274	-11.96
391.484	-15.91
391.693	-14.26
391.903	-14.61
392.112	-8.37
392.322	-5.31
392.531	1.16
392.74	2.34
392.95	-1.7
393.159	-5.37
393.369	-3.71
393.578	-6.23
393.787	-9.06
393.997	-5.88
394.206	-7.75
394.415	-7.42
394.625	-7.67
394.834	-9.17
395.043	-7.53
395.252	-4.4
395.462	-2.93
395.671	-0.7
395.88	2.44
396.089	2.51
396.298	1.29
396.508	0.01
396.717	-0.59
396.926	-0.51
397.135	-1.3
397.344	-1.33
397.553	-0.27
397.762	1.5
397.971	0.62
398.181	0.96
398.39	0.47
398.599	-0.53
398.808	-1.35
399.017	-0.22
399.226	1.25
399.435	2.94
399.644	3.51
399.853	2.56
400.062	2.03
400.27	0.85
400.479	0.13
400.688	-0.46
400.897	-0.09
401.106	-0.02
401.315	0.1
401.524	-0.12
401.733	0.62
401.941	1.25
402.15	1.52
402.359	1.38
402.568	1.73
402.777	1.86
402.985	1.48
403.194	1.25
403.403	1.49
403.612	1.23
403.82	0.76
404.029	1.02
404.238	1.01
404.446	1.13
404.655	1.09
404.864	1.26
405.072	0.93
405.281	1.22
405.489	0.88
405.698	0.87
405.906	0.8
406.115	0.83
406.324	0.66
406.532	1
406.741	1.33
406.949	1.36
407.158	1.33
407.366	1.41
407.574	1.39
407.783	1.45
407.991	1.36
408.2	1.55
408.408	1.5
408.617	1.29
408.825	1.02
409.033	1.09
409.242	1.21
409.45	1.25
409.658	1.18
409.867	1.36
410.075	1.25
410.283	1.05
410.491	0.86
410.7	0.87
410.908	0.87
411.116	1.29
411.324	1.3
411.533	1.32
411.741	1.62
411.949	1.53
412.157	1.13
412.365	1.12
412.573	1.24
412.781	1.23
412.99	1.2
413.198	1.36
413.406	1.4
413.614	1.39
413.822	1.18
414.03	1.03
414.238	0.82
414.446	0.95
414.654	0.75
414.862	0.93
415.07	1
415.278	1.32
415.486	0.91
415.694	1.07
415.902	0.89
416.109	0.82
416.317	0.75
416.525	0.76
416.733	0.65
416.941	0.81
417.149	0.78
417.357	0.73
417.564	1.03
417.772	1.46
417.98	1.34
418.188	1.48
418.395	1.46
418.603	1.59
418.811	0.99
419.019	0.98
419.226	1.12
419.434	1.27
419.642	0.91
419.849	1.22
420.057	1.22
420.265	1.14
420.472	0.8
420.68	1
420.887	0.94
421.095	1
421.302	0.94
421.51	1.32
421.717	1.34
421.925	1.4
422.132	1.32
422.34	1.06
422.547	1.02
422.755	0.89
422.962	0.73
423.17	0.61
423.377	0.94
423.585	0.97
423.792	0.91
423.999	1.1
424.207	1.09
424.414	1.11
424.621	0.87
424.829	0.97
425.036	0.88
425.243	1.13
425.451	0.89
425.658	0.79
425.865	0.95
426.072	0.91
426.28	0.96
426.487	1.12
426.694	1.28
426.901	0.96
427.108	1.02
427.315	0.88
427.523	0.98
427.73	0.95
427.937	1.05
428.144	0.84
428.351	0.8
428.558	0.86
428.765	0.8
428.972	0.74
429.179	0.95
429.386	1.32
429.593	1.09
429.8	1
430.007	1.02
430.214	1.1
430.421	0.72
430.628	0.55
430.835	0.54
431.042	0.85
431.249	0.88
431.456	0.98
431.662	1.19
431.869	1.38
432.076	1.3
432.283	1.31
432.49	1.26
432.697	1.27
432.903	1.03
433.11	0.91
433.317	0.9
433.524	1.17
433.73	1.11
433.937	1.43
434.144	1.33
434.35	1.22
434.557	1.01
434.764	1.04
434.97	0.89
435.177	1.16
435.384	1.13
435.59	1.2
435.797	1.44
436.003	1.5
436.21	1.35
436.416	1.52
436.623	1.46
436.829	1.38
437.036	1.45
437.242	1.46
437.449	1.32
437.655	1.39
437.862	1.28
438.068	1.13
438.275	1.32
438.481	1.61
438.687	1.59
438.894	1.55
439.1	1.6
439.307	1.68
439.513	1.42
439.719	1.42
439.926	1.62
440.132	1.66
440.338	1.44
440.544	1.69
440.751	1.55
440.957	1.56
441.163	1.45
441.369	1.55
441.575	1.31
441.782	1.37
441.988	1.21
442.194	1.28
442.4	1.28
442.606	1.52
442.812	1.61
443.018	1.79
443.224	1.85
443.431	1.89
443.637	1.65
443.843	1.53
444.049	1.44
444.255	1.42
444.461	1.45
444.667	1.54
444.873	1.79
445.079	1.86
445.284	1.97
445.49	1.68
445.696	1.52
445.902	1.32
446.108	1.19
446.314	1.02
446.52	1.16
446.726	1.45
446.931	1.51
447.137	1.65
447.343	1.68
447.549	1.63
447.755	1.44
447.96	1.5
448.166	1.42
448.372	1.43
448.578	1.57
448.783	1.59
448.989	1.68
449.195	1.85
449.4	1.86
449.606	1.76
449.812	1.61
450.017	1.61
450.223	1.43
450.428	1.29
450.634	1.45
450.84	1.69
451.045	1.58
451.251	1.56
451.456	1.91
451.662	1.88
451.867	1.89
452.073	1.86
452.278	1.98
452.483	2.01
452.689	1.91
452.894	1.92
453.1	1.95
453.305	1.87
453.51	1.71
453.716	1.68
453.921	1.65
454.127	1.66
454.332	1.64
454.537	1.58
454.742	1.62
454.948	1.59
455.153	1.62
455.358	1.71
455.563	1.86
455.769	2.05
455.974	1.97
456.179	1.82
456.384	1.83
456.589	1.73
456.795	1.5
457	1.54
457.205	1.84
457.41	1.76
457.615	1.65
457.82	1.78
458.025	1.8
458.23	1.62
458.435	1.66
458.64	1.72
458.845	1.81
459.05	1.85
459.255	1.83
459.46	1.85
459.665	1.88
459.87	1.81
460.075	1.71
460.28	1.81
460.485	1.9
460.69	1.92
460.895	1.77
461.099	1.76
461.304	1.85
461.509	1.81
461.714	1.77
461.919	1.99
462.123	1.91
462.328	1.91
462.533	1.84
462.738	1.94
462.942	1.82
463.147	1.93
463.352	1.95
463.556	2.01
463.761	2.03
463.966	2.1
464.17	2.15
464.375	2.03
464.58	1.96
464.784	1.85
464.989	1.78
465.193	1.73
465.398	1.68
465.602	1.79
465.807	1.79
466.011	1.8
466.216	1.87
466.42	2
466.625	2.07
466.829	2.19
467.034	2.3
467.238	2.45
467.443	2.38
467.647	2.19
467.851	2.21
468.056	2.25
468.26	2.08
468.464	2.09
468.669	2.29
468.873	2.43
469.077	2.34
469.282	2.49
469.486	2.57
469.69	2.49
469.894	2.32
470.099	2.4
470.303	2.47
470.507	2.35
470.711	2.23
470.915	2.25
471.119	2.15
471.324	2
471.528	2.08
471.732	2.17
471.936	2.15
472.14	2.28
472.344	2.37
472.548	2.42
472.752	2.65
472.956	2.9
473.16	2.85
473.364	2.74
473.568	2.7
473.772	2.63
473.976	2.41
474.18	2.45
474.384	2.52
474.588	2.46
474.792	2.31
474.995	2.46
475.199	2.54
475.403	2.62
475.607	2.71
475.811	2.71
476.015	2.73
476.218	2.71
476.422	2.6
476.626	2.67
476.83	2.84
477.033	2.76
477.237	2.59
477.441	2.65
477.644	2.59
477.848	2.55
478.052	2.5
478.255	2.63
478.459	2.7
478.663	2.86
478.866	2.87
479.07	2.89
479.273	3.1
479.477	3.1
479.681	3.06
479.884	2.99
480.088	3.04
480.291	2.88
480.495	2.9
480.698	2.84
480.901	2.93
481.105	3
481.308	3.01
481.512	2.97
481.715	3.08
481.919	3.08
482.122	3.04
482.325	3.04
482.529	3.1
482.732	3.07
482.935	2.99
483.138	2.95
483.342	3.06
483.545	3.1
483.748	3.14
483.952	3.21
484.155	3.36
484.358	3.35
484.561	3.28
484.764	3.22
484.967	3.29
485.171	3.35
485.374	3.24
485.577	3.33
485.78	3.36
485.983	3.35
486.186	3.2
486.389	3.2
486.592	3.18
486.795	3.26
486.998	3.17
487.201	3.27
487.404	3.43
487.607	3.51
487.81	3.49
488.013	3.65
488.216	3.63
488.419	3.58
488.622	3.47
488.825	3.4
489.028	3.28
489.231	3.22
489.433	3.14
489.636	3.12
489.839	3.12
490.042	3.07
490.245	3.05
490.447	3.15
490.65	3.15
490.853	3.17
491.056	3.29
491.258	3.35
491.461	3.32
491.664	3.42
491.866	3.39
492.069	3.47
492.272	3.44
492.474	3.51
492.677	3.55
492.879	3.59
493.082	3.61
493.285	3.72
493.487	3.62
493.69	3.54
493.892	3.49
494.095	3.46
494.297	3.36
494.5	3.42
494.702	3.44
494.905	3.53
495.107	3.46
495.309	3.53
495.512	3.6
495.714	3.65
495.917	3.69
496.119	3.76
496.321	3.74
496.524	3.77
496.726	3.74
496.928	3.74
497.13	3.7
497.333	3.72
497.535	3.72
497.737	3.71
497.939	3.76
498.142	3.79
498.344	3.78
498.546	3.74
498.748	3.79
498.95	3.85
499.152	3.82
499.355	3.89
499.557	3.96
499.759	4.07
499.961	4.02
500.163	4.14
500.365	4.16
500.567	4.2
500.769	4.09
500.971	4.09
501.173	3.98
501.375	4
501.577	3.92
501.779	3.93
501.981	3.98
502.183	4.02
502.385	3.97
502.587	3.97
502.788	4.06
502.99	4.08
503.192	4.17
503.394	4.16
503.596	4.2
503.798	4.26
503.999	4.25
504.201	4.24
504.403	4.3
504.605	4.35
504.806	4.24
505.008	4.24
505.21	4.35
505.411	4.37
505.613	4.36
505.815	4.43
506.016	4.52
506.218	4.55
506.42	4.51
506.621	4.55
506.823	4.56
507.024	4.5
507.226	4.43
507.427	4.52
507.629	4.54
507.83	4.61
508.032	4.63
508.233	4.74
508.435	4.76
508.636	4.8
508.838	4.76
509.039	4.77
509.24	4.75
509.442	4.79
509.643	4.73
509.845	4.75
510.046	4.84
510.247	4.83
510.448	4.78
510.65	4.89
510.851	5.03
511.052	5.01
511.254	4.99
511.455	5.12
511.656	5.13
511.857	5.2
512.058	5.2
512.26	5.21
512.461	5.14
512.662	5.15
512.863	5
513.064	4.98
513.265	5.03
513.466	5.1
513.667	5.07
513.868	5.08
514.069	5.19
514.27	5.23
514.471	5.21
514.672	5.23
514.873	5.24
515.074	5.3
515.275	5.23
515.476	5.27
515.677	5.32
515.878	5.48
516.079	5.36
516.28	5.42
516.481	5.5
516.682	5.51
516.882	5.43
517.083	5.51
517.284	5.52
517.485	5.43
517.686	5.42
517.886	5.44
518.087	5.46
518.288	5.52
518.488	5.55
518.689	5.57
518.89	5.51
519.091	5.53
519.291	5.48
519.492	5.54
519.692	5.57
519.893	5.69
520.094	5.62
520.294	5.64
520.495	5.63
520.695	5.68
520.896	5.63
521.096	5.69
521.297	5.75
521.497	5.76
521.698	5.68
521.898	5.67
522.099	5.66
522.299	5.72
522.499	5.73
522.7	5.76
522.9	5.74
523.101	5.84
523.301	5.82
523.501	5.79
523.702	5.86
523.902	5.94
524.102	5.94
524.302	5.92
524.503	6.02
524.703	6.02
524.903	6.04
525.103	5.99
525.304	6.06
525.504	6.09
525.704	6.15
525.904	6.15
526.104	6.16
526.304	6.15
526.504	6.16
526.705	6.12
526.905	6.2
527.105	6.21
527.305	6.15
527.505	6.07
527.705	6.07
527.905	6.09
528.105	6.11
528.305	6.11
528.505	6.19
528.705	6.27
528.905	6.22
529.105	6.23
529.304	6.35
529.504	6.49
529.704	6.42
529.904	6.49
530.104	6.49
530.304	6.52
530.503	6.41
530.703	6.38
530.903	6.35
531.103	6.41
531.303	6.34
531.502	6.38
531.702	6.54
531.902	6.57
532.101	6.57
532.301	6.61
532.501	6.56
532.7	6.52
532.9	6.58
533.1	6.61
533.299	6.66
533.499	6.73
533.698	6.69
533.898	6.65
534.097	6.61
534.297	6.68
534.496	6.66
534.696	6.75
534.895	6.86
535.095	6.96
535.294	6.92
535.494	6.87
535.693	6.88
535.892	6.91
536.092	6.84
536.291	6.82
536.491	6.95
536.69	6.97
536.889	6.86
537.088	6.87
537.288	6.94
537.487	7
537.686	6.97
537.886	7.08
538.085	7.13
538.284	7.23
538.483	7.17
538.682	7.34
538.882	7.36
539.081	7.44
539.28	7.36
539.479	7.37
539.678	7.27
539.877	7.37
540.076	7.4
540.275	7.47
540.474	7.57
540.673	7.66
540.872	7.6
541.071	7.63
541.27	7.63
541.469	7.73
541.668	7.73
541.867	7.78
542.066	7.82
542.265	7.85
542.464	7.79
542.663	7.87
542.862	8
543.06	8.03
543.259	8.12
543.458	8.21
543.657	8.23
543.856	8.24
544.054	8.23
544.253	8.18
544.452	8.16
544.651	8.24
544.849	8.19
545.048	8.27
545.247	8.32
545.445	8.42
545.644	8.42
545.843	8.43
546.041	8.41
546.24	8.59
546.438	8.67
546.637	8.7
546.836	8.88
547.034	9.03
547.233	8.94
547.431	8.9
547.63	8.98
547.828	8.98
548.027	9.01
548.225	9.11
548.423	9.22
548.622	9.31
548.82	9.3
549.019	9.31
549.217	9.4
549.415	9.41
549.614	9.46
549.812	9.54
550.01	9.52
550.209	9.55
550.407	9.6
550.605	9.6
550.803	9.74
551.002	9.89
551.2	9.94
551.398	10.05
551.596	10.19
551.794	10.21
551.993	10.29
552.191	10.34
552.389	10.45
552.587	10.48
552.785	10.53
552.983	10.56
553.181	10.69
553.379	10.75
553.577	10.84
553.775	10.99
553.973	11.09
554.171	11.15
554.369	11.17
554.567	11.15
554.765	11.19
554.963	11.27
555.161	11.31
555.359	11.41
555.557	11.66
555.755	11.74
555.952	11.9
556.15	11.92
556.348	11.94
556.546	11.96
556.744	12.03
556.941	12.01
557.139	12.16
557.337	12.33
557.535	12.34
557.732	12.42
557.93	12.62
558.128	12.68
558.325	12.72
558.523	12.77
558.721	12.88
558.918	12.82
559.116	12.94
559.313	12.99
559.511	13.22
559.708	13.27
559.906	13.36
560.104	13.43
560.301	13.55
560.498	13.51
560.696	13.51
560.893	13.66
561.091	13.8
561.288	13.93
561.486	14.08
561.683	14.23
561.88	14.22
562.078	14.3
562.275	14.27
562.473	14.33
562.67	14.55
562.867	14.8
563.064	14.93
563.262	15.03
563.459	15.14
563.656	15.29
563.853	15.28
564.051	15.35
564.248	15.55
564.445	15.63
564.642	15.59
564.839	15.73
565.036	15.86
565.234	16.02
565.431	16.12
565.628	16.23
565.825	16.37
566.022	16.38
566.219	16.38
566.416	16.5
566.613	16.59
566.81	16.63
567.007	16.66
567.204	16.66
567.401	16.69
567.598	16.72
567.795	16.74
567.991	16.79
568.188	16.94
568.385	17.05
568.582	17.14
568.779	17.26
568.976	17.47
569.172	17.57
569.369	17.52
569.566	17.58
569.763	17.66
569.96	17.57
570.156	17.56
570.353	17.59
570.55	17.67
570.746	17.66
570.943	17.74
571.14	17.72
571.336	17.9
571.533	18
571.729	18
571.926	18.08
572.123	18.2
572.319	18.13
572.516	18.07
572.712	18.17
572.909	18.16
573.105	18.23
573.302	18.4
573.498	18.47
573.695	18.47
573.891	18.5
574.087	18.43
574.284	18.37
574.48	18.36
574.677	18.4
574.873	18.4
575.069	18.56
575.266	18.58
575.462	18.59
575.658	18.66
575.854	18.82
576.051	18.77
576.247	18.75
576.443	18.76
576.639	18.77
576.835	18.68
577.032	18.72
577.228	18.94
577.424	19
577.62	18.97
577.816	19.06
578.012	19.06
578.208	18.87
578.404	18.86
578.6	18.89
578.796	18.85
578.993	18.82
579.189	18.8
579.384	18.67
579.58	18.59
579.776	18.53
579.972	18.48
580.168	18.5
580.364	18.57
580.56	18.6
580.756	18.63
580.952	18.58
581.148	18.63
581.343	18.59
581.539	18.66
581.735	18.68
581.931	18.78
582.127	18.75
582.322	18.76
582.518	18.7
582.714	18.66
582.909	18.61
583.105	18.56
583.301	18.56
583.496	18.59
583.692	18.51
583.888	18.48
584.083	18.53
584.279	18.6
584.474	18.55
584.67	18.62
584.866	18.64
585.061	18.48
585.257	18.57
585.452	18.61
585.648	18.57
585.843	18.69
586.039	18.83
586.234	18.67
586.429	18.54
586.625	18.57
586.82	18.51
587.015	18.52
587.211	18.45
587.406	18.56
587.601	18.58
587.797	18.5
587.992	18.4
588.187	18.6
588.383	18.54
588.578	18.52
588.773	18.62
588.968	18.74
589.163	18.72
589.359	18.78
589.554	18.77
589.749	18.78
589.944	18.8
590.139	18.83
590.334	18.87
590.529	18.91
590.724	18.93
590.919	18.99
591.114	18.97
591.309	19.05
591.504	19.07
591.699	19.06
591.894	19.07
592.089	19.1
592.284	19.03
592.479	19.18
592.674	19.24
592.869	19.4
593.064	19.48
593.259	19.63
593.454	19.67
593.648	19.74
593.843	19.6
594.038	19.57
594.233	19.55
594.428	19.55
594.622	19.55
594.817	19.75
595.012	19.81
595.206	19.88
595.401	19.91
595.596	19.97
595.79	20.07
595.985	20.25
596.18	20.38
596.374	20.52
596.569	20.68
596.763	20.58
596.958	20.68
597.153	20.77
597.347	20.79
597.542	20.92
597.736	21.05
597.931	20.99
598.125	21.01
598.319	21.1
598.514	21.06
598.708	21.17
598.903	21.32
599.097	21.35
599.291	21.39
599.486	21.38
599.68	21.37
599.874	21.41
600.069	21.45
600.263	21.52
600.457	21.72
600.651	21.82
600.846	21.84
601.04	21.89
601.234	21.9
601.428	21.92
601.622	21.92
601.817	21.93
602.011	21.96
602.205	22.11
602.399	22.1
602.593	22.08
602.787	22.16
602.981	22.2
603.175	22.17
603.369	22.13
603.563	22.25
603.757	22.33
603.951	22.33
604.145	22.26
604.339	22.37
604.533	22.16
604.727	22.03
604.921	22.04
605.115	22.04
605.309	22.09
605.502	22.24
605.696	22.24
605.89	22.12
606.084	22.08
606.278	21.91
606.471	21.84
606.665	21.76
606.859	21.7
607.053	21.69
607.246	21.65
607.44	21.57
607.634	21.54
607.827	21.62
608.021	21.52
608.214	21.52
608.408	21.4
608.602	21.41
608.795	21.3
608.989	21.29
609.182	21.22
609.376	21.24
609.569	21.13
609.763	21.01
609.956	20.88
610.15	20.77
610.343	20.69
610.537	20.59
610.73	20.59
610.923	20.58
611.117	20.52
611.31	20.44
611.504	20.48
611.697	20.31
611.89	20.26
612.083	20.2
612.277	20.17
612.47	19.96
612.663	20.02
612.856	19.91
613.05	19.88
613.243	19.86
613.436	19.84
613.629	19.71
613.822	19.59
614.015	19.44
614.209	19.25
614.402	19.27
614.595	19.26
614.788	19.3
614.981	19.22
615.174	19.1
615.367	18.99
615.56	18.82
615.753	18.73
615.946	18.7
616.139	18.77
616.332	18.88
616.525	18.88
616.718	18.92
616.911	18.86
617.103	18.82
617.296	18.61
617.489	18.54
617.682	18.46
617.875	18.45
618.067	18.37
618.26	18.27
618.453	18.33
618.646	18.26
618.838	18.28
619.031	18.39
619.224	18.44
619.417	18.34
619.609	18.31
619.802	18.21
619.994	18.07
620.187	18.08
620.38	18.07
620.572	17.99
620.765	18.03
620.957	18
621.15	17.91
621.342	17.8
621.535	17.84
621.727	17.75
621.92	17.65
622.112	17.59
622.305	17.67
622.497	17.55
622.69	17.64
622.882	17.71
623.074	17.77
623.267	17.72
623.459	17.72
623.651	17.58
623.844	17.59
624.036	17.59
624.228	17.57
624.42	17.52
624.613	17.7
624.805	17.61
624.997	17.54
625.189	17.5
625.381	17.52
625.574	17.35
625.766	17.25
625.958	17.26
626.15	17.3
626.342	17.29
626.534	17.31
626.726	17.35
626.918	17.34
627.11	17.23
627.302	17.16
627.494	17.1
627.686	17.12
627.878	17.05
628.07	17.11
628.262	17.02
628.454	16.99
628.646	16.95
628.838	16.91
629.029	16.78
629.221	16.94
629.413	16.82
629.605	16.7
629.797	16.61
629.989	16.62
630.18	16.52
630.372	16.6
630.564	16.63
630.755	16.78
630.947	16.84
631.139	16.72
631.33	16.59
631.522	16.68
631.714	16.58
631.905	16.51
632.097	16.52
632.289	16.57
632.48	16.43
632.672	16.32
632.863	16.2
633.055	16.16
633.246	16.15
633.438	16.14
633.629	16.12
633.821	16.19
634.012	16.26
634.203	16.16
634.395	16.18
634.586	16.27
634.777	16.18
634.969	16.14
635.16	16.17
635.351	16.05
635.543	16.01
635.734	16.08
635.925	16.03
636.117	16.05
636.308	16.13
636.499	16.04
636.69	15.86
636.881	15.78
637.073	15.82
637.264	15.78
637.455	15.88
637.646	16.05
637.837	16.14
638.028	16.04
638.219	16.09
638.41	16.01
638.601	15.9
638.792	15.9
638.983	15.91
639.174	15.83
639.365	15.85
639.556	15.78
639.747	15.71
639.938	15.78
640.129	15.61
640.32	15.58
640.511	15.62
640.701	15.76
640.892	15.56
641.083	15.77
641.274	15.76
641.465	15.72
641.655	15.58
641.846	15.61
642.037	15.51
642.228	15.4
642.418	15.47
642.609	15.48
642.8	15.53
642.99	15.46
643.181	15.5
643.372	15.48
643.562	15.38
643.753	15.33
643.943	15.32
644.134	15.22
644.324	15.08
644.515	15.1
644.705	15.16
644.896	15.2
645.086	15.3
645.277	15.39
645.467	15.47
645.658	15.35
645.848	15.34
646.038	15.29
646.229	15.24
646.419	15.11
646.61	15.12
646.8	15.08
646.99	15.08
647.18	15
647.371	14.95
647.561	14.78
647.751	14.78
647.941	14.65
648.132	14.69
648.322	14.7
648.512	14.9
648.702	14.84
648.892	14.92
649.082	14.84
649.272	14.74
649.462	14.47
649.653	14.43
649.843	14.35
650.033	14.38
650.223	14.35
650.413	14.43
650.603	14.39
650.793	14.35
650.983	14.26
651.172	14.2
651.362	14.25
651.552	14.16
651.742	14.15
651.932	14.16
652.122	14.21
652.312	14.23
652.502	14.24
652.691	14.21
652.881	14.16
653.071	14.14
653.261	13.88
653.45	13.72
653.64	13.68
653.83	13.49
654.019	13.26
654.209	13.21
654.399	13.19
654.588	12.97
654.778	12.95
654.968	12.86
655.157	12.85
655.347	12.7
655.536	12.61
655.726	12.51
655.915	12.42
656.105	12.21
656.294	12.09
656.484	11.89
656.673	11.71
656.863	11.61
657.052	11.51
657.241	11.36
657.431	11.17
657.62	11.03
657.809	10.69
657.999	10.54
658.188	10.41
658.377	10.25
658.567	10.26
658.756	10.29
658.945	10.15
659.134	9.96
659.324	9.87
659.513	9.65
659.702	9.38
659.891	9.2
660.08	9.1
660.269	8.99
660.458	8.76
660.648	8.75
660.837	8.63
661.026	8.53
661.215	8.26
661.404	8.14
661.593	7.96
661.782	7.72
661.971	7.65
662.16	7.58
662.349	7.47
662.538	7.27
662.726	7.3
662.915	7.07
663.104	6.96
663.293	6.95
663.482	6.99
663.671	6.82
663.86	6.65
664.048	6.57
664.237	6.46
664.426	6.27
664.615	6.24
664.803	6.22
664.992	6.11
665.181	5.97
665.369	5.84
665.558	5.67
665.747	5.57
665.935	5.54
666.124	5.5
666.312	5.46
666.501	5.4
666.69	5.3
666.878	5.23
667.067	5
667.255	4.95
667.444	5.26
667.632	5.31
667.82	5.34
668.009	5.31
668.197	5.2
668.386	4.89
668.574	4.92
668.762	4.76
668.951	4.78
669.139	4.78
669.327	4.62
669.516	4.62
669.704	4.58
669.892	4.72
670.08	4.75
670.269	4.65
670.457	4.49
670.645	4.28
670.833	4.31
671.021	4.26
671.21	4.39
671.398	4.58
671.586	4.72
671.774	4.5
671.962	4.47
672.15	4.41
672.338	4.17
672.526	4.2
672.714	4.15
672.902	4.2
673.09	4.31
673.278	4.64
673.466	4.67
673.654	4.81
673.842	4.76
674.03	4.7
674.218	4.46
674.405	4.43
674.593	4.29
674.781	4.37
674.969	4.41
675.157	4.52
675.344	4.65
675.532	4.82
675.72	4.91
675.908	4.95
676.095	4.82
676.283	4.81
676.471	4.91
676.658	4.74
676.846	4.79
677.033	4.88
677.221	4.91
677.409	4.84
677.596	4.98
677.784	4.95
677.971	5.01
678.159	5.05
678.346	5.17
678.534	5.24
678.721	5.46
678.909	5.39
679.096	5.47
679.283	5.61
679.471	5.69
679.658	5.7
679.846	6.04
680.033	6.24
680.22	6.25
680.408	6.21
680.595	6.23
680.782	6.03
680.969	6.01
681.157	6.15
681.344	6.36
681.531	6.43
681.718	6.67
681.905	6.9
682.093	6.92
682.28	7.1
682.467	7.42
682.654	7.57
682.841	7.64
683.028	7.88
683.215	8.03
683.402	7.96
683.589	8.21
683.776	8.31
683.963	8.34
684.15	8.49
684.337	8.8
684.524	8.9
684.711	9.16
684.898	9.21
685.085	9.39
685.271	9.67
685.458	9.75
685.645	9.91
685.832	10.35
686.019	10.69
686.205	10.8
686.392	11.25
686.579	11.61
686.766	11.98
686.952	12.22
687.139	12.7
687.326	12.89
687.512	13.11
687.699	13.35
687.886	13.69
688.072	13.75
688.259	14.17
688.445	14.63
688.632	14.93
688.818	15.53
689.005	15.9
689.191	16.43
689.378	17.11
689.564	17.71
689.751	18
689.937	18.67
690.124	19.21
690.31	19.34
690.496	19.79
690.683	20.22
690.869	20.87
691.055	21.28
691.242	22.09
691.428	22.63
691.614	23.29
691.8	23.89
691.987	24.53
692.173	25.08
692.359	25.87
692.545	26.67
692.731	27.12
692.918	27.78
693.104	28.26
693.29	28.9
693.476	29.43
693.662	30.18
693.848	30.7
694.034	31.3
694.22	31.77
694.406	32.48
694.592	33.25
694.778	34.07
694.964	34.77
695.15	35.43
695.336	36.04
695.522	36.79
695.708	37.49
695.894	38.24
696.08	39
696.265	39.54
696.451	40.1
696.637	40.92
696.823	41.47
697.009	41.89
697.194	42.71
697.38	43.14
697.566	43.47
697.751	44.18
697.937	45.02
698.123	45.41
698.308	46.27
698.494	47.06
698.68	47.62
698.865	48.07
699.051	48.89
699.236	49.2
699.422	49.54
699.607	50.04
699.793	50.6
699.978	50.89
700.164	51.43
700.349	52.32
700.535	52.74
700.72	53.11
700.906	54.04
701.091	54.5
701.276	54.66
701.462	55.67
701.647	56.59
701.832	56.84
702.018	57.5
702.203	58.09
702.388	58.04
702.573	58.34
702.759	58.72
702.944	59.13
703.129	59.29
703.314	59.89
703.499	60.17
703.684	60.4
703.87	61.15
704.055	62.1
704.24	62.33
704.425	62.98
704.61	63.71
704.795	63.55
704.98	63.59
705.165	63.93
705.35	64.17
705.535	64.56
705.72	64.98
705.905	65.46
706.09	66.16
706.275	66.15
706.459	66
706.644	66.29
706.829	66.54
707.014	66.31
707.199	67.08
707.384	67.83
707.568	68.24
707.753	68.73
707.938	69.21
708.123	69.19
708.307	69.22
708.492	69.41
708.677	69.13
708.861	69.13
709.046	69.05
709.231	69.76
709.415	70.02
709.6	70.38
709.784	70.66
709.969	71.28
710.153	71.02
710.338	70.99
710.522	71.12
710.707	71.69
710.891	71.44
711.076	71.37
711.26	71.31
711.445	71.7
711.629	71.52
711.813	71.99
711.998	72.22
712.182	72.5
712.366	72.75
712.551	73.45
712.735	73.53
712.919	73.35
713.103	73.62
713.288	73.35
713.472	72.98
713.656	73.49
713.84	74.18
714.024	74.47
714.208	74.87
714.393	75.55
714.577	75.6
714.761	75.77
714.945	75.63
715.129	75.44
715.313	75.45
715.497	75.47
715.681	75.81
715.865	75.81
716.049	76.08
716.233	75.78
716.417	76.26
716.601	75.95
716.785	76.22
716.968	76.13
717.152	76.3
717.336	75.72
717.52	75.69
717.704	75.53
717.888	76.38
718.071	76.53
718.255	76.74
718.439	77.02
718.622	77.43
718.806	77.38
718.99	76.99
719.174	77.08
719.357	77.02
719.541	77.14
719.724	76.71
719.908	78.05
720.092	78.09
720.275	78.46
720.459	78.66
720.642	78.62
720.826	78.07
721.009	77.88
721.193	77.1
721.376	76.98
721.559	77.15
721.743	77.06
721.926	77.65
722.11	78.67
722.293	78.05
722.476	77.73
722.66	77.84
722.843	77.63
723.026	76.84
723.21	77.62
723.393	78.32
723.576	78.34
723.759	78.07
723.942	78.29
724.126	77.91
724.309	77.72
724.492	78.03
724.675	78.35
724.858	78.67
725.041	79.16
725.224	79.38
725.407	79.19
725.59	79.31
725.774	79.2
725.957	78.78
726.14	78.08
726.322	78.31
726.505	77.81
726.688	78.35
726.871	78.41
727.054	78.99
727.237	78.46
727.42	79.29
727.603	78.81
727.786	79.16
727.968	79.68
728.151	79.7
728.334	79.31
728.517	79.62
728.699	80.25
728.882	80.06
729.065	80.35
729.248	81.4
729.43	81.58
729.613	81.71
729.796	81.7
729.978	81.25
730.161	80.62
730.343	80.14
730.526	80.16
730.708	79.89
730.891	80.33
731.073	79.97
731.256	79.78
731.438	79.68
731.621	80.85
731.803	80.61
731.986	81.01
732.168	81.22
732.35	81.18
732.533	80.3
732.715	80.49
732.898	80.85
733.08	81.05
733.262	81.35
733.444	80.88
733.627	81.33
733.809	82.23
733.991	83.27
734.173	82.49
734.355	82.56
734.538	82.45
734.72	81.11
734.902	80.67
735.084	81.08
735.266	81.35
735.448	81.36
735.63	81.28
735.812	80.75
735.994	81.58
736.176	82.24
736.358	81.7
736.54	82.53
736.722	82.42
736.904	81.35
737.086	80.79
737.268	82.46
737.45	82.14
737.632	81.57
737.814	80.95
737.995	81.46
738.177	80.8
738.359	80.47
738.541	81.95
738.723	82.98
738.904	83.08
739.086	82.53
739.268	82.44
739.449	82.16
739.631	81.86
739.813	81.37
739.994	81.65
740.176	82.6
740.358	81.64
740.539	82.67
740.721	83.69
740.902	84.78
741.084	84.22
741.265	84.69
741.447	84.71
741.628	84.91
741.81	83.66
741.991	84.08
742.172	84.56
742.354	84.45
742.535	83.46
742.717	84.01
742.898	83.34
743.079	83.68
743.261	83.42
743.442	82.87
743.623	83.74
743.804	84.73
743.986	84.8
744.167	82.49
744.348	82.73
744.529	81.64
744.71	79.55
744.891	78.62
745.073	79.52
745.254	79.52
745.435	79.25
745.616	79.91
745.797	80.09
745.978	80.39
746.159	80.48
746.34	79.64
746.521	80.74
746.702	79.83
746.883	79.7
747.064	79.23
747.245	80.59
747.426	78.86
747.606	80.22
747.787	80.77
747.968	81.33
748.149	80.81
748.33	81.87
748.51	81.47
748.691	81.14
748.872	81.03
749.053	80.32
749.233	79.68
749.414	78.55
749.595	77.77
749.775	76.05
749.956	77.11
750.137	76.93
750.317	78.92
750.498	80.71
750.678	81.81
750.859	82.62
751.04	83.15
751.22	81.03
751.4	80.17
751.581	79.37
751.761	78.99
751.942	80.04
752.122	80.36
752.303	78.87
752.483	79.92
752.663	78.58
752.844	76.99
753.024	78.45
753.204	79.42
753.385	78.57
753.565	78.42
753.745	79.57
753.925	78.13
754.106	77.6
754.286	78.33
754.466	77.95
754.646	77.76
754.826	77.48
755.006	77.66
755.187	78.19
755.367	78.62
755.547	78.47
755.727	80.04
755.907	79.39
756.087	80.58
756.267	80.04
756.447	78.9
756.627	76.72
756.807	77.92
756.987	76.58
757.167	78.06
757.346	78.95
757.526	78.38
757.706	78.77
757.886	79.44
758.066	79.45
758.246	81.16
758.425	82.35
758.605	82.06
758.785	80.8
758.965	79.7
759.144	76.89
759.324	77.25
759.504	77.29
759.683	77.31
759.863	75.9
760.043	75.13
760.222	75.11
760.402	74.41
760.581	74.77
760.761	77.98
760.94	78.09
761.12	79.86
761.299	80.73
761.479	79.66
761.658	76.97
761.838	76.86
762.017	75.74
762.197	76.24
762.376	76.58
762.555	79.35
762.735	80.66
762.914	79.31
763.093	78.23
763.273	77.92
763.452	75.95
763.631	75.13
763.81	75.98
763.99	75.5
764.169	76.82
764.348	75.84
764.527	74.56
764.706	75.23
764.885	77.61
765.064	75.13
765.243	76.05
765.423	79.12
765.602	77.92
765.781	74.08
765.96	74.41
766.139	74.13
766.318	73.07
766.497	73.48
766.676	75.92
766.854	77.33
767.033	79.79
767.212	79.45
767.391	79.38
767.57	78.62
767.749	78.63
767.928	78.32
768.106	76.94
768.285	74.27
768.464	73.75
768.643	73.18
768.821	71.55
769	74.72
769.179	76.69
769.357	76.69
769.536	77.76
769.715	77.95
769.893	77.96
770.072	77.88
770.25	78.55
770.429	77.4
770.607	76.38
770.786	74.02
770.964	73.52
771.143	73.6
771.321	74.66
771.5	76.03
771.678	76.76
771.857	75.32
772.035	75.47
772.213	73.18
772.392	70.67
772.57	72.46
772.748	75.16
772.927	73.43
773.105	73.09
773.283	74.52
773.461	73.37
773.64	72.54
773.818	73.57
773.996	75.23
774.174	74.72
774.352	74.02
774.531	70.53
774.709	70.63
774.887	70.36
775.065	69.07
775.243	68.36
775.421	71.66
775.599	73.12
775.777	71.03
775.955	69.15
776.133	67.58
776.311	66.14
776.489	64.5
776.667	65.26
776.844	67.66
777.022	67.17
777.2	68.74
777.378	68.03
777.556	67.11
777.734	69.17
777.911	72.01
778.089	70.7
778.267	71.64
778.445	71.6
778.622	68.39
778.8	68.13
778.978	70.7
779.155	68.49
779.333	69.08
779.511	71.19
779.688	72.55
779.866	65.56
780.043	63.74
780.221	64.6
780.398	61.08
780.576	61.45
780.753	65.82
780.931	67.41
781.108	66.33
781.286	67.78
781.463	62.68
781.64	58.9
781.818	60.28
781.995	60.68
782.172	61.19
782.35	63.8
782.527	68.62
782.704	67.78
782.882	70.77
783.059	69.94
783.236	70.56
783.413	70.7
783.59	69.03
783.768	63.86
783.945	66.53
784.122	67.91
784.299	66.5
784.476	65.84
784.653	64.99
784.83	63.1
785.007	56.45
785.184	57.67
785.361	55.76
785.538	64.62
785.715	66.16
785.892	69.4
786.069	70.25
786.246	75.77
786.423	69.85
786.6	67.39
786.776	73.11
786.953	73.56
787.13	74.77
787.307	75.91
787.484	76.49
787.66	69.6
787.837	67.68
788.014	63.71
788.191	59.03
788.367	56.86
788.544	62.51
788.721	57.83
788.897	59.49
789.074	63.24
789.25	61.35
789.427	60.87
789.603	63.11
789.78	61.18
789.956	57.83
790.133	58.31
790.309	54.11
790.486	61.8
790.662	63.41
790.839	66.13
791.015	68.67
791.192	68.45
791.368	69.51
791.544	65.47
791.721	63.35
791.897	63.24
792.073	61.66
792.249	51.75
792.426	55.49
792.602	61.71
792.778	61.35
792.954	63.44
793.13	64.71
793.307	58.3
793.483	47.61
793.659	49.29
793.835	51.01
794.011	50.74
794.187	52.28
794.363	57.25
794.539	55.98
794.715	50.63
794.891	52.05
795.067	51.95
795.243	52.35
795.419	51.71
795.595	50.84
795.771	48.52
795.947	54.91
796.122	51.86
796.298	53.56
796.474	57.38
796.65	59.92
796.826	54.83
797.001	57.23
797.177	51.9
797.353	51.98
797.529	52.49
797.704	50.57
797.88	48.75
798.056	48.3
798.231	48.39
798.407	53.22
798.582	53.13
798.758	59.66
798.934	71.47
799.109	67.8
799.285	61.71
799.46	67
799.636	63.77
799.811	53.99
799.986	55.61
800.162	55.24
800.337	54.66
800.513	49.44
800.688	49.2
800.863	56.14
801.039	48.74
801.214	44.55
801.389	48.97
801.565	46.49
801.74	31.19
801.915	41.91
802.09	43.28
802.265	51.51
802.441	49.3
802.616	55.68
802.791	49.54
802.966	50.71
803.141	48.6
803.316	47.76
803.491	58.31
803.666	63.5
803.841	60.33
804.016	54.3
804.191	55.08
804.366	44.15
804.541	44.5
804.716	45.53
804.891	44.22
805.066	51.57
805.241	51.2
805.416	50.99
805.591	54.3
805.765	57.77
805.94	55.56
806.115	54.89
806.29	41.22
806.464	38.61
806.639	32.98
806.814	31.35
806.989	20.56
807.163	39.78
807.338	40.76
807.512	35.62
807.687	19.88
807.862	44.52
808.036	44.57
808.211	43.02
808.385	48.6
808.56	69.67
808.734	62.63
808.909	54.46
809.083	54.22
809.258	64.78
809.432	57.29
809.606	43.87
809.781	42.19
809.955	49.53
810.13	50.36
810.304	47.36
810.478	47.61
810.652	59.07
810.827	59.53
811.001	50.62
811.175	47.71
811.349	44.95
811.524	33.6
811.698	17.49
811.872	13.66
812.046	25.11
812.22	36.71
812.394	40.35
812.568	54.18
812.742	64.63
812.916	53.94
813.09	44.96
813.264	45.54
813.438	45.28
813.612	40.03
813.786	37.71
813.96	45.42
814.134	41.44
814.308	51.62
814.482	52.88
814.656	48.16
814.83	53.97
815.003	57.03
815.177	38.09
815.351	29.45
815.525	35.62
815.698	27.39
815.872	20.96
816.046	19.5
816.219	29.64
816.393	50.73
816.567	60.17
816.74	64.15
816.914	62.9
817.088	68.7
817.261	45.3
817.435	27.39
817.608	25.61
817.782	25.76
817.955	21.05
818.129	20.14
818.302	34.32
818.475	46.95
818.649	46.65
818.822	35.18
818.996	56.65
819.169	49.32
819.342	29.12
819.516	43.77
819.689	50.02
819.862	27
820.035	18.79
820.209	24.29
820.382	19.8
820.555	17.78
820.728	18.67
820.901	19.48
821.075	17.09
821.248	26.88
821.421	13.86
821.594	5.37
821.767	35.54
821.94	60.3
822.113	20.21
822.286	23.01
822.459	30.55
822.632	-1.75
822.805	-34.69
822.978	-25.19
823.151	-20.66
823.324	-25.67
823.496	-39.98
823.669	-42.51
823.842	-31.95
824.015	-40.44
824.188	-45.52
824.361	-32.86
824.533	-28.21
824.706	-17.64
824.879	-20.38
825.051	-0.87
825.224	5.84
825.397	9.38
825.569	-8.95
825.742	19.82
825.915	19.4
826.087	7.21
826.26	1.21
826.432	14.14
826.605	18.93
826.777	0.32
826.95	7.22
827.122	-4.65
827.295	-10.29
827.467	-16.63
827.64	-44.76
827.812	-48.15
827.984	-40.08
828.157	-55.67
828.329	-90.95
828.501	-59.81
828.674	-40.29
828.846	-46.61
829.018	-6.93
829.19	-13.53
829.363	11.09
829.535	22.86
829.707	22.84
829.879	-14.62
830.051	-20.26
830.223	-37.38
830.395	-77.7
830.568	-70.61
830.74	-72.95
830.912	-25.43
831.084	-38.52
831.256	-21.24
831.428	-40.87
831.6	-43.37
831.772	-89.3
831.943	-85.16
832.115	-69.28
832.287	-33.7
832.459	-15.85
832.631	3.35
832.803	39.34
832.975	60.06
833.146	45.91
833.318	34.73
833.49	32.73
833.662	-24
833.833	-54.08
834.005	-44.91
834.177	-41.09
834.348	-55.17
834.52	-73.89
834.692	-67.28
834.863	-109.14
835.035	-100.73
835.206	-173.95
835.378	-113.02
835.549	-96.61
835.721	-72.77
835.892	-56.46
836.064	-26.45
836.235	-23.98
836.407	-9.29
836.578	-41.08
836.749	-42.46
836.921	-83.38
837.092	-98.99
837.264	-94.13
837.435	-92.49
837.606	-28.4
837.777	7.03
837.949	13.55
838.12	9.3
838.291	18.88
838.462	-6.83
838.633	-42.65
838.805	-40.72
838.976	-44.44
839.147	-93.26
839.318	-97.09
839.489	-130.11
839.66	-104.84
839.831	-34.72
840.002	-15.73
840.173	-42.28
840.344	20.17
840.515	16.1
840.686	-167.71
840.857	-153.19
841.028	-124.18
841.199	-117.89
841.369	-129.05
841.54	-89.36
841.711	-40.01
841.882	-14.86
842.053	-27.2
842.223	-40.72
842.394	-32.53
842.565	-47.88
842.736	-24.21
842.906	-18.33
843.077	12.63
843.248	18.68
843.418	19.05
843.589	-36.5
843.759	29.29
843.93	21.77
844.101	-1.13
844.271	-7
844.442	9.3
844.612	18.78
844.783	-30.9
844.953	-73.25
845.123	-91.85
845.294	-97.59
845.464	-445.52
845.635	-224.14
845.805	-106.66
845.975	-61.84
846.146	-120.93
846.316	-71.12
846.486	-28.55
846.656	2.18
846.827	-3.66
846.997	-5.72
847.167	-21.05
847.337	-64.48
847.507	-133.32
847.677	-132.85
847.848	-46.98
848.018	-25.15
848.188	-11.08
848.358	-34.31
848.528	-57.04
848.698	-117.95
848.868	-242.69
849.038	-360.19
849.208	-150.72
849.378	-79.91
849.548	-53.6
849.718	-23.8
849.887	-25.34
850.057	-37.41
850.227	-76.8
850.397	-122.81
850.567	-280.84
850.737	-630.65
850.906	-1936.88
851.076	-1391.02
851.246	-577.23
851.415	-87.7
851.585	-55.66
851.755	-98.17
851.924	-55.34
852.094	-140.5
852.264	-346.79
852.433	-1769.71
852.603	-345.67
852.772	-290.27
852.942	-101.73
853.111	-74.72
853.281	-32.85
853.45	0.18
853.62	-66.69
853.789	-85.79
853.959	-37.5
854.128	-72.86
854.297	-134.6
854.467	-183.31
854.636	-179.17
854.805	-83.21
854.975	-140.96
855.144	-208.36
855.313	-194.06
855.482	-583.58
855.652	-368.13
855.821	-262.06
855.99	-47.46
856.159	-12.05
856.328	-0.78
856.497	-23.01
856.667	-1.18
856.836	-8.08
857.005	-50.34
857.174	-76.2
857.343	-108.71
857.512	-143.07
857.681	-192.73
857.85	-230.3
858.019	-165.66
858.188	-155.4
858.356	-144.81
858.525	-227.3
858.694	-187.27
858.863	-322.86
859.032	-222.92
859.201	-253.64
859.369	-147.32
859.538	-168.19
859.707	-133.15
859.876	-167.61
860.044	-191.74
860.213	-45.71
860.382	-63.42
860.55	-54.58
860.719	-9.76
860.888	2.25
861.056	-75.54
861.225	-79.33
861.393	-40.27
861.562	-45.22
861.73	-186.04
861.899	-475.13
862.067	-3336.21
862.236	-211.49
862.404	-450.86
862.572	-243.3
862.741	-77.25
862.909	-67
863.078	-202.65
863.246	-144.09
863.414	-112.56
863.582	-84.5
863.751	-139.63
863.919	-126.24
864.087	-50.66
864.255	-76.95
864.424	-501.39
864.592	-85.62
864.76	-83.52
864.928	-392.4
865.096	-268.95
865.264	-211.46
865.432	-2553.41
865.6	-453.75
865.768	-254.24
865.936	-238.98
866.104	-275.61
866.272	-349.22
866.44	-704.53
866.608	1156.79
866.776	528.47
866.944	4719.77
867.112	-769.7
867.28	-287.22
867.448	-108.07
867.615	-64.64
867.783	-53.18
867.951	-81.61
868.119	-56.2
868.286	-104.1
868.454	-301.11
868.622	-294.63
868.789	-355.83
868.957	-7146.43
869.125	-3382.89
869.292	-187.59
869.46	-250.78
869.627	-45.3
869.795	-54.79
869.963	-16.73
870.13	14.64
870.298	19.19
870.465	-83.73
870.632	-116.09
870.8	-93.27
870.967	-195.44
871.135	-241
871.302	-194.92
871.469	-176.22
871.637	-240.75
871.804	-122.42
871.971	-144.37
872.139	-385.81
872.306	-22.45
872.473	-70.88
872.64	-308.37
872.807	-111.53
872.975	-23.09
873.142	-333.27
873.309	2298.65
873.476	-20.43
873.643	32.91
873.81	7.98
873.977	13.84
874.144	-2.18
874.311	-188.12
874.478	-233.14
874.645	-265.48
874.812	-138.87
874.979	-68.85
875.146	-93.21
875.313	-82.36
875.48	13.08
875.647	-35.69
875.813	-94.48
875.98	-50.26
876.147	-95.38
876.314	-205.89
876.481	1568.18
876.647	-1811.8
876.814	788.86
876.981	-238.27
877.147	-175.3
877.314	-50.97
877.481	-43.12
877.647	-22.7
877.814	-92.45
877.98	-149.53
878.147	-97
878.314	-18.81
878.48	-132.82
878.647	-89.31
878.813	14.01
878.979	-12.86
879.146	-57.39
879.312	-24.65
879.479	-76.99
879.645	-228.19
879.811	-384.7
879.978	-1066.03
880.144	-372.89
880.31	-179.02
880.477	-511.09
880.643	-555.11
880.809	-177.27
880.975	-149.71
881.142	-1228.64
881.308	-146.19
881.474	-119.27
881.64	-204.17
881.806	-301.74
881.972	-110.11
882.138	-122.3
882.304	-66.14
882.47	-270.95
882.636	-940.57
882.802	-357.8
882.968	-122.75
883.134	-102.07
883.3	-76.69
883.466	-7.31
883.632	49.81
883.798	17.77
883.964	-15.24
884.129	-21.27
884.295	-7.38
884.461	-107.84
884.627	-177.82
884.793	-173.04
884.958	-96.24
885.124	-194.08
885.29	-378.38
885.455	-657.52
885.621	-243.57
885.787	-311.95
885.952	-177.19
886.118	-129.39
886.283	-99.28
886.449	-230.59
886.614	-249.91
886.78	-514.04
886.945	1851.64
887.111	-951.16
887.276	-684.38
887.442	-1223.18
887.607	-535.61
887.773	-362.58
887.938	-303.52
888.103	-371.98
888.269	-284.19
888.434	-427.3
888.599	-200.83
888.764	-52.44
888.93	-36.25
889.095	-42.93
889.26	-96.13
889.425	-26.32
889.59	-3.56
889.756	-38.3
889.921	-40.49
890.086	-11.84
890.251	-71
890.416	-331.24
890.581	-2499.19
890.746	340.18
890.911	484.39
891.076	192.58
891.241	-321.27
891.406	79.31
891.571	-34.48
891.736	-293.81
891.901	-548.23
892.065	1046.7
892.23	257.61
892.395	351.37
892.56	479.05
892.725	-507.42
892.889	-1459.76
893.054	-241.8
893.219	-107.33
893.384	-98.71
893.548	-225.5
893.713	-227.63
893.878	-184.35
