Data from Ofra_PS_T2_2A_2GT07_Reflection_1.txt Node
Date: Wed Jul 21 17:05:54 EDT 2021
User: Adam
Spectrometer: FLMT01687
Trigger mode: 0
Integration Time (sec): 1.100000E0
Scans to average: 2
Electric dark correction enabled: true
Nonlinearity correction enabled: false
Boxcar width: 2
XAxis mode: Wavelengths
Number of Pixels in Spectrum: 3648
>>>>>Begin Spectral Data<<<<<
179.494	504.8
179.716	551.53
179.937	521.77
180.158	527
180.38	938.75
180.601	382.32
180.823	160.1
181.044	89.1
181.265	102.94
181.486	31.1
181.708	77.37
181.929	151.02
182.15	-53.52
182.372	134.12
182.593	101.74
182.814	38.38
183.035	73.74
183.257	73.29
183.478	-7.45
183.699	78.03
183.92	88.53
184.141	68.05
184.363	9.3
184.584	59.97
184.805	55.85
185.026	55.48
185.247	65.19
185.468	49.79
185.689	49.24
185.91	30.38
186.132	29.32
186.353	15.11
186.574	99.89
186.795	74.57
187.016	48.86
187.237	30.37
187.458	21.3
187.679	-25.8
187.9	-3.41
188.121	-15.2
188.342	11.49
188.563	44.18
188.784	86.72
189.005	87.59
189.226	141.02
189.447	121.41
189.667	149.03
189.888	-37.93
190.109	-505.19
190.33	-210.32
190.551	-458.41
190.772	-31.72
190.993	5.97
191.214	15.28
191.434	18.9
191.655	69.33
191.876	21.49
192.097	-54.9
192.318	-42.83
192.538	-150.15
192.759	-128.41
192.98	-28.75
193.201	13.42
193.421	-3.24
193.642	21.23
193.863	26.9
194.083	4.94
194.304	-9.26
194.525	6.37
194.745	-10.29
194.966	-36.87
195.187	-22.67
195.407	-29.99
195.628	-79.62
195.848	-62.27
196.069	-16.9
196.29	17.43
196.51	2.78
196.731	-15.83
196.951	-13.76
197.172	-38.02
197.392	-107.67
197.613	-93.58
197.833	-113.2
198.054	-114.55
198.274	-59.06
198.495	-56.31
198.715	-36.56
198.936	-42.65
199.156	-32.47
199.377	-105.31
199.597	-64.03
199.817	-78.25
200.038	-24.43
200.258	-56.69
200.479	-28.42
200.699	-36.93
200.919	50
201.14	51.73
201.36	57.77
201.58	68.04
201.801	68.08
202.021	32.34
202.241	25.33
202.461	22.04
202.682	-31.48
202.902	-98.4
203.122	-24.69
203.342	-22.14
203.563	10.04
203.783	30.48
204.003	5.24
204.223	-1.81
204.443	55.68
204.663	35
204.884	45.56
205.104	96.52
205.324	106.21
205.544	76.14
205.764	69.75
205.984	61.72
206.204	60.73
206.424	45.7
206.644	20.43
206.864	33.63
207.084	-2.08
207.304	-8.35
207.525	-47.5
207.745	19.89
207.964	38.32
208.184	-3.95
208.404	-42.22
208.624	-62.61
208.844	-63.34
209.064	-370.28
209.284	-400.78
209.504	-166.42
209.724	-16.79
209.944	4.88
210.164	51.87
210.384	52.69
210.604	43.64
210.823	-6.18
211.043	-33.61
211.263	-20.72
211.483	-8.9
211.703	-52.27
211.922	-12.83
212.142	42.67
212.362	53.17
212.582	31
212.801	33.76
213.021	-1.21
213.241	-29.8
213.461	-43.24
213.68	-35.27
213.9	6.93
214.12	34.31
214.339	1.54
214.559	1.2
214.779	30.32
214.998	9.27
215.218	-33.17
215.438	-0.42
215.657	-11.83
215.877	-24.23
216.096	17.71
216.316	34.65
216.535	3.59
216.755	13.95
216.974	-67.34
217.194	-141.41
217.413	-121.65
217.633	-66.21
217.852	-98.85
218.072	4.27
218.291	13.27
218.511	41.09
218.73	24.5
218.95	6.57
219.169	-6.49
219.389	-35.6
219.608	-19.5
219.827	-23.5
220.047	-9.1
220.266	-7.71
220.485	11.91
220.705	21.31
220.924	7.03
221.143	30.84
221.363	33.13
221.582	35.62
221.801	20.33
222.021	33.7
222.24	10.2
222.459	49.74
222.678	32.05
222.897	-4.11
223.117	-23.85
223.336	-6.49
223.555	-4.55
223.774	36.82
223.993	52.98
224.213	75.35
224.432	55.92
224.651	73.01
224.87	35.7
225.089	50.43
225.308	40.36
225.527	53.42
225.746	39.2
225.965	41.87
226.184	24.86
226.404	36.79
226.623	9.63
226.842	15.77
227.061	34.19
227.28	34.22
227.499	32.49
227.718	48.89
227.936	42.67
228.155	54.83
228.374	45.08
228.593	26.13
228.812	10.32
229.031	2.37
229.25	-56.63
229.469	-65.2
229.688	-72.34
229.907	-36.25
230.125	-7.07
230.344	20.98
230.563	42.15
230.782	62.92
231.001	2.7
231.22	-13.22
231.438	19.42
231.657	23.39
231.876	1.9
232.095	64.79
232.313	71.56
232.532	51.68
232.751	7.54
232.969	23.04
233.188	-20.37
233.407	14.42
233.625	20.23
233.844	-1.76
234.063	1.75
234.281	10.33
234.5	7.33
234.719	2.33
234.937	37.56
235.156	53.25
235.374	50.09
235.593	41.49
235.811	38.18
236.03	9.11
236.249	-45.1
236.467	-38.78
236.686	-17.6
236.904	4.81
237.123	0.71
237.341	14.4
237.559	12.47
237.778	17.78
237.996	-2.15
238.215	27.75
238.433	17.6
238.652	25.14
238.87	-1.11
239.088	10.21
239.307	2.48
239.525	20.18
239.743	-12.95
239.962	13.79
240.18	12.26
240.398	-28.05
240.617	-49.18
240.835	-25
241.053	-20.5
241.271	-9.55
241.49	21.17
241.708	-15.44
241.926	-2.18
242.144	21.51
242.363	-14.53
242.581	-20.94
242.799	30.12
243.017	24.53
243.235	-1.71
243.453	11.67
243.672	-0.82
243.89	-3
244.108	-2.11
244.326	17
244.544	32.87
244.762	41.54
244.98	58.45
245.198	70.87
245.416	58.1
245.634	36.34
245.852	42.56
246.07	45.08
246.288	-11.22
246.506	-59.96
246.724	-48.35
246.942	-45.18
247.16	-29.31
247.378	12.75
247.596	51.36
247.814	42.62
248.032	41.27
248.25	60.48
248.468	48.02
248.685	60.45
248.903	76.32
249.121	66.97
249.339	26.76
249.557	-0.13
249.775	3.5
249.992	-53.75
250.21	-44.97
250.428	-24.28
250.646	-32.4
250.863	-39.07
251.081	0.68
251.299	3.48
251.517	24.55
251.734	38.32
251.952	10.53
252.17	3.89
252.387	12.76
252.605	2.51
252.823	5.73
253.04	28.21
253.258	41.14
253.475	32.32
253.693	58.81
253.911	46.09
254.128	55.79
254.346	72.25
254.563	62.85
254.781	46.14
254.998	45.35
255.216	19.74
255.433	17.87
255.651	52.38
255.868	87.86
256.086	87.93
256.303	87.96
256.521	54.28
256.738	30.38
256.956	-9
257.173	-10.85
257.39	-23.44
257.608	-11.29
257.825	50.11
258.043	86
258.26	88.79
258.477	129.84
258.695	120.42
258.912	61.88
259.129	44.35
259.346	6.22
259.564	-43.37
259.781	-51.83
259.998	13.99
260.216	56.08
260.433	85.95
260.65	80.61
260.867	91.69
261.084	61.47
261.302	37.69
261.519	6.71
261.736	-3.12
261.953	-21.98
262.17	14.58
262.387	-27.14
262.604	-41.55
262.822	-48.41
263.039	-61.31
263.256	-104.41
263.473	-34.3
263.69	-13.14
263.907	26.45
264.124	46.62
264.341	48.84
264.558	37.36
264.775	54.42
264.992	34.64
265.209	21.35
265.426	38.35
265.643	37.45
265.86	48.61
266.077	56.48
266.294	58.74
266.51	37.36
266.727	19.66
266.944	-0.87
267.161	-14.82
267.378	-5.02
267.595	18.11
267.812	-10.04
268.028	-19.04
268.245	21.29
268.462	-13.9
268.679	-21.53
268.896	41.36
269.112	30.99
269.329	23.56
269.546	37.22
269.763	30.91
269.979	10.8
270.196	31.08
270.413	-5.84
270.629	-11.12
270.846	-22.69
271.063	-7.93
271.279	-23.37
271.496	7.77
271.712	27.23
271.929	47.91
272.146	16.86
272.362	24.64
272.579	37.52
272.795	53.16
273.012	63.75
273.228	77.06
273.445	48.59
273.661	10.28
273.878	-22.03
274.094	-18.91
274.311	-41.01
274.527	17.42
274.744	29.17
274.96	16.38
275.177	8.97
275.393	16.6
275.609	18.14
275.826	50.71
276.042	49.91
276.259	37.15
276.475	52.48
276.691	53.11
276.908	21.47
277.124	28.53
277.34	33.41
277.557	19.89
277.773	0.37
277.989	-19.18
278.205	-18.54
278.422	1.69
278.638	10.52
278.854	29.35
279.07	58.58
279.286	64.32
279.503	46.96
279.719	33.51
279.935	-4.36
280.151	-24.63
280.367	-6.42
280.583	-36.85
280.799	-19.43
281.016	-25.64
281.232	19.84
281.448	25.81
281.664	55.76
281.88	33.44
282.096	43.04
282.312	42.77
282.528	45.69
282.744	50.39
282.96	47.71
283.176	25.03
283.392	17.38
283.608	14.3
283.824	12.64
284.04	34.63
284.256	52.6
284.471	47.68
284.687	38.08
284.903	53.32
285.119	61.01
285.335	31.18
285.551	19.82
285.767	25.86
285.982	12.63
286.198	-40.1
286.414	29.18
286.63	34.02
286.846	44.19
287.061	28.99
287.277	67.28
287.493	38.88
287.709	66.75
287.924	44.49
288.14	66.05
288.356	48.94
288.571	68.2
288.787	38.78
289.003	46.02
289.218	33.2
289.434	5.95
289.65	1.15
289.865	3.53
290.081	9.01
290.296	12.74
290.512	16.1
290.727	4.94
290.943	-11.87
291.159	-15.76
291.374	-11.5
291.59	-22.85
291.805	-17.06
292.021	5.1
292.236	13.64
292.451	25.41
292.667	33.49
292.882	45.3
293.098	45.68
293.313	20.51
293.529	-14.62
293.744	-28.58
293.959	-36.94
294.175	-33.88
294.39	11.43
294.605	31.96
294.821	51.34
295.036	64.37
295.251	68.7
295.467	49.19
295.682	47.96
295.897	4.57
296.112	-13.37
296.328	-5.76
296.543	-36.62
296.758	-38.36
296.973	5.15
297.188	34.55
297.404	2.72
297.619	3.01
297.834	-14.03
298.049	-27.09
298.264	-52.19
298.479	-4.01
298.694	2.54
298.909	30.13
299.125	37.84
299.34	39.23
299.555	22.66
299.77	29.87
299.985	-27.23
300.2	-76.86
300.415	-78.22
300.63	-55.17
300.845	-54.24
301.06	-42.76
301.275	-6.05
301.49	12.67
301.704	15.95
301.919	5.89
302.134	2.88
302.349	-3.31
302.564	-55.76
302.779	-73.23
302.994	-42.16
303.209	-16.5
303.423	12.54
303.638	57.5
303.853	31.3
304.068	34.34
304.283	30.82
304.497	18.54
304.712	6.5
304.927	16.07
305.142	7.06
305.356	14.46
305.571	29.2
305.786	14.85
306	1.23
306.215	19.16
306.43	4.77
306.644	-19.45
306.859	46.47
307.074	63.1
307.288	19.47
307.503	12.85
307.717	1.01
307.932	-10.05
308.147	-21.67
308.361	1.14
308.576	0.55
308.79	-19.74
309.005	-26.35
309.219	-11.61
309.434	-21.35
309.648	-20.54
309.863	12.64
310.077	12.57
310.292	11.96
310.506	16.3
310.72	24.84
310.935	39.24
311.149	36.89
311.364	51.66
311.578	61.74
311.792	59.99
312.007	39.9
312.221	19.76
312.435	19.45
312.649	-1.72
312.864	37.14
313.078	54.52
313.292	165.08
313.507	153
313.721	194.71
313.935	72.12
314.149	70.22
314.363	35.81
314.578	26.24
314.792	24.22
315.006	11.85
315.22	21.08
315.434	14.26
315.648	27.89
315.862	34.12
316.077	41.66
316.291	30.91
316.505	47.09
316.719	26.76
316.933	8.41
317.147	9.61
317.361	-46.29
317.575	-52.06
317.789	-52.9
318.003	-108.79
318.217	-79.78
318.431	24.54
318.645	31.48
318.859	15.05
319.073	42.53
319.287	31.39
319.5	-0.27
319.714	-25.46
319.928	-10.64
320.142	-22
320.356	51.87
320.57	74.7
320.784	79.38
320.997	81.5
321.211	97.16
321.425	3.61
321.639	-12.26
321.853	31.62
322.066	39.42
322.28	26.79
322.494	44.57
322.707	50.27
322.921	33.59
323.135	16.41
323.349	13.06
323.562	-1.48
323.776	-1.07
323.989	-7.04
324.203	-19.95
324.417	-18.61
324.63	-26.67
324.844	-35.56
325.057	-20.45
325.271	-1.49
325.485	23.41
325.698	43.06
325.912	43.66
326.125	31.92
326.339	32.74
326.552	2.05
326.766	4.76
326.979	34.9
327.193	58.29
327.406	50.43
327.619	43.59
327.833	47.1
328.046	16.57
328.26	-17.5
328.473	-2.34
328.686	-5.1
328.9	12.53
329.113	27.48
329.326	19.21
329.54	30.53
329.753	3
329.966	-31.82
330.179	-5.08
330.393	11.96
330.606	10.79
330.819	43.15
331.032	53.21
331.246	46.82
331.459	63.82
331.672	56.11
331.885	43.53
332.098	21.19
332.311	10.53
332.525	-32.21
332.738	-14.89
332.951	5.52
333.164	27.27
333.377	36.42
333.59	49.09
333.803	50
334.016	43.44
334.229	42.49
334.442	48.45
334.655	61.44
334.868	54.32
335.081	36.4
335.294	26.21
335.507	20.39
335.72	6.5
335.933	0.74
336.146	1.01
336.359	-0.53
336.572	-27.8
336.785	-46.62
336.997	-38.1
337.21	-8.48
337.423	-15.11
337.636	-5.92
337.849	17.76
338.062	19.89
338.274	24.24
338.487	27.28
338.7	29.46
338.913	4.78
339.125	-13.95
339.338	-57.35
339.551	-49.1
339.763	-11.75
339.976	8.39
340.189	29.63
340.402	43.92
340.614	45.33
340.827	18.75
341.039	17.21
341.252	26.86
341.465	32.04
341.677	29.38
341.89	28.39
342.102	47.31
342.315	23.07
342.527	4.33
342.74	4.97
342.952	18.95
343.165	-6.54
343.377	13.86
343.59	6.99
343.802	24.2
344.015	29.44
344.227	40.38
344.44	35.39
344.652	43.9
344.864	30.08
345.077	45.42
345.289	43.56
345.502	44.62
345.714	41.04
345.926	45.81
346.139	29.32
346.351	38.38
346.563	35.09
346.775	43.14
346.988	29.52
347.2	31.82
347.412	-7.78
347.624	-2.18
347.837	-16.83
348.049	20.76
348.261	42.93
348.473	58.76
348.685	60.03
348.897	55.94
349.11	28.33
349.322	26.59
349.534	30.15
349.746	32.04
349.958	38.77
350.17	51.03
350.382	36.24
350.594	30.92
350.806	22.22
351.018	10.49
351.23	0.67
351.442	-37.09
351.654	-32.74
351.866	-26.96
352.078	1.51
352.29	26.65
352.502	37.58
352.714	36.55
352.926	31.9
353.138	21.91
353.35	3.94
353.561	5.46
353.773	-4.99
353.985	6.42
354.197	1.54
354.409	6.9
354.621	5.38
354.832	22.71
355.044	16.56
355.256	18.54
355.468	27.91
355.679	31.91
355.891	40.44
356.103	26.05
356.314	33.2
356.526	38.85
356.738	35.64
356.949	19.33
357.161	34.72
357.373	25.03
357.584	14.14
357.796	29.06
358.008	25.69
358.219	35.87
358.431	45.08
358.642	42.2
358.854	27.67
359.065	20.47
359.277	-0.8
359.488	-24.92
359.7	-24.38
359.911	-39.7
360.123	-20.02
360.334	-25.29
360.546	-14.72
360.757	-23.26
360.969	-0.92
361.18	-3.97
361.391	13.95
361.603	-4.43
361.814	17.14
362.025	12.41
362.237	14.03
362.448	25.2
362.659	41.16
362.871	27.9
363.082	18
363.293	26.75
363.504	0.77
363.716	-20.25
363.927	-26.37
364.138	-44.07
364.349	-66.71
364.56	-50.45
364.772	-29.69
364.983	-11.72
365.194	6.95
365.405	27.32
365.616	61.29
365.827	67.2
366.038	61.74
366.25	51.14
366.461	22.94
366.672	16.45
366.883	21.17
367.094	24.41
367.305	14.8
367.516	21.92
367.727	-10.22
367.938	-29.7
368.149	-25.29
368.36	1.56
368.571	0.56
368.781	0.04
368.992	-1.27
369.203	-21.08
369.414	-47.08
369.625	-39.39
369.836	-37.09
370.047	-57.36
370.258	-31.92
370.468	-27.34
370.679	-39.17
370.89	-37.35
371.101	2.23
371.312	-9.01
371.522	5.5
371.733	12.11
371.944	22.54
372.155	8.85
372.365	10.53
372.576	13.85
372.787	17.73
372.997	-0.88
373.208	-0.97
373.419	31.89
373.629	-1.01
373.84	-6.84
374.05	-6.9
374.261	18.65
374.472	-14.34
374.682	27.21
374.893	32.38
375.103	63.09
375.314	44.16
375.524	33.31
375.735	20.68
375.945	30.32
376.156	15.88
376.366	16.54
376.577	28.59
376.787	28.51
376.997	25.84
377.208	15.4
377.418	12
377.629	26.41
377.839	19.84
378.049	18.23
378.26	28.38
378.47	37.01
378.68	26.89
378.89	26.43
379.101	19.28
379.311	0.16
379.521	-32.78
379.732	-28.2
379.942	-14.59
380.152	-27.85
380.362	-3.95
380.572	4.15
380.783	12.28
380.993	18.63
381.203	35.91
381.413	45.37
381.623	58.66
381.833	43.4
382.043	34.28
382.253	26.11
382.463	22.66
382.674	8.87
382.884	5.2
383.094	5.76
383.304	11.13
383.514	11.08
383.724	19.23
383.934	10.36
384.144	-2.08
384.353	-11.35
384.563	-9.96
384.773	-3.4
384.983	-4.19
385.193	16.47
385.403	18.62
385.613	17.94
385.823	9.61
386.033	18.43
386.242	3.47
386.452	4.43
386.662	0.17
386.872	10.33
387.082	3.74
387.291	3.29
387.501	2.44
387.711	4.48
387.921	-0.26
388.13	4.55
388.34	17
388.55	15.23
388.759	13.65
388.969	17.68
389.179	13.92
389.388	12.11
389.598	16.85
389.807	16.78
390.017	11.5
390.227	13.82
390.436	11.81
390.646	11.4
390.855	11.63
391.065	11
391.274	10.59
391.484	9.06
391.693	11.33
391.903	15.77
392.112	21.48
392.322	22.31
392.531	25.47
392.74	26.03
392.95	19.02
393.159	16.63
393.369	18.33
393.578	16.39
393.787	14.11
393.997	17.04
394.206	16.47
394.415	15.92
394.625	14.92
394.834	14.9
395.043	15.37
395.252	18.47
395.462	19.09
395.671	21.32
395.88	22.97
396.089	23.97
396.298	20.95
396.508	20.3
396.717	19.63
396.926	19.04
397.135	18.15
397.344	18.75
397.553	19.88
397.762	21.63
397.971	20.89
398.181	21.03
398.39	20.88
398.599	20.42
398.808	19.1
399.017	20.65
399.226	21.76
399.435	22.57
399.644	22.55
399.853	22.36
400.062	21.36
400.27	20.81
400.479	20.5
400.688	19.88
400.897	20.17
401.106	20.11
401.315	19.97
401.524	19.85
401.733	20.28
401.941	20.69
402.15	21.11
402.359	21.09
402.568	21.19
402.777	21.27
402.985	20.83
403.194	20.53
403.403	20.33
403.612	19.93
403.82	19.71
404.029	19.84
404.238	19.71
404.446	20.2
404.655	20.27
404.864	20.52
405.072	20.15
405.281	20.36
405.489	19.83
405.698	19.92
405.906	19.75
406.115	19.82
406.324	19.63
406.532	19.68
406.741	19.65
406.949	19.47
407.158	19.36
407.366	19.44
407.574	19.49
407.783	19.55
407.991	19.34
408.2	19.54
408.408	19.46
408.617	19.29
408.825	19.07
409.033	19.1
409.242	18.99
409.45	19.05
409.658	18.9
409.867	18.89
410.075	18.8
410.283	18.54
410.491	18.28
410.7	18.32
410.908	18.37
411.116	18.68
411.324	18.75
411.533	18.63
411.741	18.77
411.949	18.64
412.157	18.27
412.365	18.32
412.573	18.4
412.781	18.31
412.99	18.35
413.198	18.56
413.406	18.44
413.614	18.4
413.822	18.22
414.03	17.95
414.238	17.7
414.446	17.72
414.654	17.6
414.862	17.58
415.07	17.75
415.278	17.84
415.486	17.56
415.694	17.4
415.902	17.28
416.109	17.03
416.317	16.9
416.525	16.89
416.733	17.08
416.941	17.18
417.149	17.11
417.357	17.16
417.564	17.18
417.772	17.23
417.98	17.22
418.188	17.33
418.395	17.43
418.603	17.47
418.811	17.16
419.019	16.98
419.226	17.06
419.434	16.88
419.642	16.85
419.849	16.88
420.057	17
420.265	16.92
420.472	16.64
420.68	16.5
420.887	16.47
421.095	16.36
421.302	16.32
421.51	16.54
421.717	16.65
421.925	16.63
422.132	16.41
422.34	16.07
422.547	16.19
422.755	16.11
422.962	16.11
423.17	16.04
423.377	16.34
423.585	16.2
423.792	16.05
423.999	16.08
424.207	16.26
424.414	16.31
424.621	16.38
424.829	16.42
425.036	16.45
425.243	16.54
425.451	16.38
425.658	16.24
425.865	16.5
426.072	16.48
426.28	16.58
426.487	16.56
426.694	16.48
426.901	16.23
427.108	16.25
427.315	16.09
427.523	16.39
427.73	16.52
427.937	16.65
428.144	16.5
428.351	16.53
428.558	16.57
428.765	16.52
428.972	16.51
429.179	16.67
429.386	17.03
429.593	16.83
429.8	16.92
430.007	17.1
430.214	17.32
430.421	17.2
430.628	17.33
430.835	17.37
431.042	17.5
431.249	17.56
431.456	17.63
431.662	17.68
431.869	17.94
432.076	18.02
432.283	18.25
432.49	18.22
432.697	18.33
432.903	18.15
433.11	18.03
433.317	18.12
433.524	18.35
433.73	18.34
433.937	18.65
434.144	18.72
434.35	18.61
434.557	18.42
434.764	18.46
434.97	18.4
435.177	18.7
435.384	18.64
435.59	18.98
435.797	19.36
436.003	19.44
436.21	19.28
436.416	19.44
436.623	19.45
436.829	19.44
437.036	19.49
437.242	19.6
437.449	19.68
437.655	19.56
437.862	19.62
438.068	19.78
438.275	19.94
438.481	20.09
438.687	20.32
438.894	20.28
439.1	20.26
439.307	20.4
439.513	20.42
439.719	20.37
439.926	20.44
440.132	20.48
440.338	20.32
440.544	20.48
440.751	20.5
440.957	20.68
441.163	20.69
441.369	20.89
441.575	20.76
441.782	20.82
441.988	20.78
442.194	20.86
442.4	20.95
442.606	21.24
442.812	21.34
443.018	21.28
443.224	21.36
443.431	21.41
443.637	21.34
443.843	21.41
444.049	21.66
444.255	21.57
444.461	21.7
444.667	21.57
444.873	21.58
445.079	21.48
445.284	21.58
445.49	21.3
445.696	21.34
445.902	21.31
446.108	21.35
446.314	21.41
446.52	21.72
446.726	22.01
446.931	22.27
447.137	22.33
447.343	22.38
447.549	22.16
447.755	22.14
447.96	22.09
448.166	22.07
448.372	22.13
448.578	22.37
448.783	22.35
448.989	22.46
449.195	22.64
449.4	22.59
449.606	22.5
449.812	22.36
450.017	22.27
450.223	22.22
450.428	22.25
450.634	22.41
450.84	22.55
451.045	22.55
451.251	22.58
451.456	22.78
451.662	22.82
451.867	22.89
452.073	23.01
452.278	23.04
452.483	23.13
452.689	23.05
452.894	23.13
453.1	23.15
453.305	23.25
453.51	23.17
453.716	23.16
453.921	23.12
454.127	23.02
454.332	22.84
454.537	22.93
454.742	22.92
454.948	23.04
455.153	23.1
455.358	23.38
455.563	23.45
455.769	23.71
455.974	23.69
456.179	23.57
456.384	23.38
456.589	23.24
456.795	23.05
457	23.13
457.205	23.42
457.41	23.65
457.615	23.75
457.82	23.82
458.025	23.7
458.23	23.64
458.435	23.52
458.64	23.36
458.845	23.52
459.05	23.64
459.255	23.67
459.46	23.66
459.665	23.76
459.87	23.75
460.075	23.66
460.28	23.78
460.485	23.97
460.69	24.03
460.895	23.86
461.099	23.92
461.304	24.04
461.509	24
461.714	23.95
461.919	24.25
462.123	24.26
462.328	24.27
462.533	24.22
462.738	24.41
462.942	24.24
463.147	24.42
463.352	24.46
463.556	24.6
463.761	24.71
463.966	24.77
464.17	24.74
464.375	24.74
464.58	24.81
464.784	24.84
464.989	24.83
465.193	24.89
465.398	24.72
465.602	24.79
465.807	24.77
466.011	24.93
466.216	25.03
466.42	25.34
466.625	25.51
466.829	25.62
467.034	25.84
467.238	26.07
467.443	25.95
467.647	25.88
467.851	25.91
468.056	25.92
468.26	25.86
468.464	25.94
468.669	26.06
468.873	26.31
469.077	26.26
469.282	26.38
469.486	26.43
469.69	26.51
469.894	26.37
470.099	26.48
470.303	26.53
470.507	26.62
470.711	26.5
470.915	26.56
471.119	26.52
471.324	26.51
471.528	26.54
471.732	26.76
471.936	26.84
472.14	27
472.344	27.12
472.548	27.34
472.752	27.5
472.956	27.77
473.16	27.71
473.364	27.76
473.568	27.66
473.772	27.63
473.976	27.38
474.18	27.42
474.384	27.34
474.588	27.29
474.792	27.17
474.995	27.33
475.199	27.36
475.403	27.55
475.607	27.7
475.811	27.8
476.015	27.8
476.218	27.97
476.422	27.82
476.626	27.82
476.83	27.85
477.033	27.84
477.237	27.74
477.441	27.8
477.644	27.86
477.848	27.78
478.052	27.67
478.255	27.7
478.459	27.73
478.663	27.79
478.866	27.93
479.07	28.03
479.273	28.18
479.477	28.17
479.681	28.1
479.884	28.02
480.088	28.04
480.291	27.89
480.495	27.96
480.698	27.98
480.901	28.11
481.105	28.08
481.308	28.09
481.512	28.08
481.715	28.18
481.919	28.11
482.122	28.2
482.325	28.17
482.529	28.07
482.732	27.97
482.935	27.89
483.138	27.74
483.342	27.91
483.545	28.01
483.748	28.03
483.952	28.1
484.155	28.29
484.358	28.24
484.561	28.09
484.764	28.09
484.967	28.12
485.171	28.14
485.374	28.01
485.577	28.24
485.78	28.26
485.983	28.36
486.186	28.36
486.389	28.42
486.592	28.27
486.795	28.36
486.998	28.3
487.201	28.29
487.404	28.39
487.607	28.55
487.81	28.63
488.013	28.7
488.216	28.74
488.419	28.75
488.622	28.8
488.825	28.68
489.028	28.67
489.231	28.75
489.433	28.72
489.636	28.68
489.839	28.79
490.042	28.94
490.245	29.04
490.447	29.31
490.65	29.52
490.853	29.75
491.056	29.92
491.258	30.16
491.461	30.31
491.664	30.56
491.866	30.76
492.069	31.09
492.272	31.23
492.474	31.45
492.677	31.74
492.879	32.02
493.082	32.24
493.285	32.56
493.487	32.79
493.69	33.04
493.892	33.29
494.095	33.51
494.297	33.8
494.5	34.18
494.702	34.49
494.905	34.85
495.107	35.18
495.309	35.57
495.512	35.86
495.714	36.2
495.917	36.5
496.119	36.83
496.321	37.16
496.524	37.59
496.726	37.91
496.928	38.28
497.13	38.69
497.333	39.14
497.535	39.47
497.737	39.9
497.939	40.38
498.142	40.74
498.344	41.04
498.546	41.46
498.748	41.83
498.95	42.21
499.152	42.6
499.355	42.98
499.557	43.35
499.759	43.75
499.961	44.05
500.163	44.44
500.365	44.74
500.567	45.13
500.769	45.35
500.971	45.74
501.173	45.96
501.375	46.29
501.577	46.43
501.779	46.68
501.981	46.72
502.183	46.92
502.385	47.1
502.587	47.42
502.788	47.66
502.99	48.11
503.192	48.44
503.394	48.54
503.596	48.56
503.798	48.67
503.999	48.77
504.201	48.65
504.403	48.84
504.605	48.92
504.806	48.94
505.008	48.87
505.21	49.04
505.411	48.97
505.613	49.12
505.815	49.18
506.016	49.13
506.218	49.19
506.42	49.16
506.621	49.11
506.823	49.09
507.024	49.12
507.226	48.94
507.427	48.88
507.629	48.84
507.83	48.76
508.032	48.62
508.233	48.67
508.435	48.72
508.636	48.63
508.838	48.6
509.039	48.64
509.24	48.59
509.442	48.4
509.643	48.18
509.845	47.99
510.046	47.79
510.247	47.51
510.448	47.3
510.65	47.2
510.851	47.17
511.052	46.99
511.254	46.9
511.455	46.86
511.656	46.82
511.857	46.7
512.058	46.61
512.26	46.61
512.461	46.61
512.662	46.47
512.863	46.33
513.064	46.27
513.265	46.14
513.466	46.04
513.667	45.94
513.868	45.88
514.069	45.87
514.27	45.82
514.471	45.64
514.672	45.55
514.873	45.39
515.074	45.41
515.275	45.24
515.476	45.22
515.677	45.23
515.878	45.47
516.079	45.35
516.28	45.3
516.481	45.32
516.682	45.23
516.882	44.87
517.083	44.72
517.284	44.72
517.485	44.68
517.686	44.6
517.886	44.66
518.087	44.6
518.288	44.52
518.488	44.41
518.689	44.32
518.89	44.2
519.091	44.21
519.291	44.13
519.492	44.12
519.692	44.08
519.893	44.05
520.094	43.98
520.294	43.93
520.495	43.81
520.695	43.81
520.896	43.84
521.096	43.88
521.297	43.85
521.497	43.83
521.698	43.8
521.898	43.65
522.099	43.59
522.299	43.6
522.499	43.61
522.7	43.52
522.9	43.46
523.101	43.43
523.301	43.48
523.501	43.44
523.702	43.4
523.902	43.49
524.102	43.5
524.302	43.32
524.503	43.33
524.703	43.33
524.903	43.28
525.103	43.19
525.304	43.32
525.504	43.29
525.704	43.32
525.904	43.26
526.104	43.28
526.304	43.14
526.504	43.06
526.705	42.98
526.905	42.98
527.105	42.99
527.305	42.96
527.505	42.92
527.705	42.99
527.905	43.02
528.105	42.9
528.305	42.87
528.505	42.94
528.705	42.89
528.905	42.79
529.105	42.78
529.304	42.82
529.504	42.81
529.704	42.8
529.904	42.92
530.104	42.98
530.304	42.98
530.503	42.95
530.703	42.81
530.903	42.65
531.103	42.58
531.303	42.58
531.502	42.56
531.702	42.67
531.902	42.8
532.101	42.75
532.301	42.8
532.501	42.89
532.7	42.83
532.9	42.74
533.1	42.8
533.299	42.7
533.499	42.59
533.698	42.55
533.898	42.6
534.097	42.61
534.297	42.54
534.496	42.59
534.696	42.64
534.895	42.63
535.095	42.72
535.294	42.72
535.494	42.61
535.693	42.59
535.892	42.68
536.092	42.49
536.291	42.46
536.491	42.59
536.69	42.59
536.889	42.43
537.088	42.45
537.288	42.58
537.487	42.58
537.686	42.65
537.886	42.69
538.085	42.75
538.284	42.73
538.483	42.68
538.682	42.7
538.882	42.77
539.081	42.82
539.28	42.75
539.479	42.62
539.678	42.59
539.877	42.58
540.076	42.53
540.275	42.62
540.474	42.82
540.673	42.78
540.872	42.77
541.071	42.71
541.27	42.59
541.469	42.47
541.668	42.5
541.867	42.5
542.066	42.55
542.265	42.71
542.464	42.74
542.663	42.77
542.862	42.88
543.06	42.93
543.259	42.91
543.458	42.98
543.657	42.84
543.856	42.68
544.054	42.63
544.253	42.44
544.452	42.37
544.651	42.49
544.849	42.49
545.048	42.48
545.247	42.6
545.445	42.52
545.644	42.46
545.843	42.33
546.041	42.39
546.24	42.49
546.438	42.61
546.637	42.66
546.836	42.8
547.034	42.78
547.233	42.7
547.431	42.73
547.63	42.72
547.828	42.74
548.027	42.68
548.225	42.63
548.423	42.56
548.622	42.59
548.82	42.65
549.019	42.75
549.217	42.83
549.415	42.82
549.614	42.83
549.812	42.78
550.01	42.75
550.209	42.82
550.407	42.87
550.605	42.83
550.803	42.92
551.002	43.06
551.2	43
551.398	43.03
551.596	43.23
551.794	43.32
551.993	43.34
552.191	43.39
552.389	43.51
552.587	43.52
552.785	43.54
552.983	43.45
553.181	43.6
553.379	43.61
553.577	43.61
553.775	43.61
553.973	43.69
554.171	43.66
554.369	43.77
554.567	43.8
554.765	43.85
554.963	43.92
555.161	43.89
555.359	43.84
555.557	43.96
555.755	44.01
555.952	44.04
556.15	44.16
556.348	44.29
556.546	44.32
556.744	44.26
556.941	44.3
557.139	44.36
557.337	44.33
557.535	44.24
557.732	44.37
557.93	44.44
558.128	44.54
558.325	44.6
558.523	44.61
558.721	44.72
558.918	44.84
559.116	44.83
559.313	44.75
559.511	44.96
559.708	44.95
559.906	44.88
560.104	44.88
560.301	45.04
560.498	45.1
560.696	45.13
560.893	45.2
561.091	45.27
561.288	45.31
561.486	45.32
561.683	45.41
561.88	45.38
562.078	45.54
562.275	45.51
562.473	45.53
562.67	45.67
562.867	45.81
563.064	45.83
563.262	45.98
563.459	46.03
563.656	46.05
563.853	46.15
564.051	46.15
564.248	46.29
564.445	46.42
564.642	46.42
564.839	46.65
565.036	46.84
565.234	46.92
565.431	47.02
565.628	47.15
565.825	47.1
566.022	47.17
566.219	47.22
566.416	47.26
566.613	47.31
566.81	47.39
567.007	47.26
567.204	47.23
567.401	47.23
567.598	47.18
567.795	47.17
567.991	47.32
568.188	47.5
568.385	47.64
568.582	47.83
568.779	47.92
568.976	47.96
569.172	47.94
569.369	47.96
569.566	47.92
569.763	48.01
569.96	48.05
570.156	48.08
570.353	48.03
570.55	48.19
570.746	48.13
570.943	48.16
571.14	48.15
571.336	48.21
571.533	48.16
571.729	48.17
571.926	48.32
572.123	48.47
572.319	48.58
572.516	48.67
572.712	48.8
572.909	48.69
573.105	48.67
573.302	48.72
573.498	48.78
573.695	48.75
573.891	48.81
574.087	48.84
574.284	48.75
574.48	48.71
574.677	48.76
574.873	48.85
575.069	48.94
575.266	49.15
575.462	49.15
575.658	49.21
575.854	49.26
576.051	49.21
576.247	49.13
576.443	49.18
576.639	49.11
576.835	49
577.032	48.98
577.228	49.08
577.424	49.12
577.62	49.13
577.816	49.17
578.012	49.21
578.208	49.08
578.404	49.15
578.6	49.16
578.796	49.19
578.993	49.17
579.189	49.21
579.384	49.1
579.58	49.13
579.776	49.09
579.972	48.96
580.168	48.87
580.364	48.92
580.56	48.76
580.756	48.81
580.952	48.84
581.148	48.86
581.343	48.86
581.539	48.96
581.735	48.9
581.931	49.07
582.127	49.22
582.322	49.17
582.518	49.23
582.714	49.28
582.909	49.21
583.105	49.03
583.301	48.96
583.496	49.01
583.692	48.95
583.888	48.82
584.083	48.95
584.279	49.02
584.474	48.96
584.67	49.06
584.866	49.14
585.061	49.03
585.257	49.07
585.452	49.04
585.648	49.01
585.843	49.16
586.039	49.27
586.234	49.29
586.429	49.26
586.625	49.29
586.82	49.17
587.015	49.1
587.211	49
587.406	49.07
587.601	49.07
587.797	49.07
587.992	49.11
588.187	49.3
588.383	49.25
588.578	49.27
588.773	49.43
588.968	49.43
589.163	49.37
589.359	49.4
589.554	49.37
589.749	49.29
589.944	49.18
590.139	49.17
590.334	49.36
590.529	49.28
590.724	49.31
590.919	49.46
591.114	49.49
591.309	49.48
591.504	49.56
591.699	49.62
591.894	49.68
592.089	49.63
592.284	49.55
592.479	49.72
592.674	49.6
592.869	49.73
593.064	49.83
593.259	49.97
593.454	49.92
593.648	50.1
593.843	50.05
594.038	49.99
594.233	49.96
594.428	49.99
594.622	49.99
594.817	50.15
595.012	50.25
595.206	50.15
595.401	50.1
595.596	50.15
595.79	50.13
595.985	50.23
596.18	50.42
596.374	50.63
596.569	50.67
596.763	50.56
596.958	50.67
597.153	50.66
597.347	50.5
597.542	50.51
597.736	50.45
597.931	50.48
598.125	50.49
598.319	50.72
598.514	50.7
598.708	50.96
598.903	50.88
599.097	51.14
599.291	51.21
599.486	51.18
599.68	51.18
599.874	51.23
600.069	51.07
600.263	50.95
600.457	51.16
600.651	51.16
600.846	51.22
601.04	51.36
601.234	51.37
601.428	51.4
601.622	51.43
601.817	51.48
602.011	51.46
602.205	51.5
602.399	51.57
602.593	51.59
602.787	51.59
602.981	51.59
603.175	51.69
603.369	51.54
603.563	51.62
603.757	51.68
603.951	51.7
604.145	51.64
604.339	51.66
604.533	51.5
604.727	51.44
604.921	51.34
605.115	51.45
605.309	51.54
605.502	51.65
605.696	51.62
605.89	51.78
606.084	51.67
606.278	51.66
606.471	51.61
606.665	51.57
606.859	51.32
607.053	51.29
607.246	51.19
607.44	51.25
607.634	51.16
607.827	51.26
608.021	51.31
608.214	51.34
608.408	51.18
608.602	51.19
608.795	51.1
608.989	50.96
609.182	50.96
609.376	50.97
609.569	50.9
609.763	50.85
609.956	50.79
610.15	50.81
610.343	50.79
610.537	50.81
610.73	50.94
610.923	50.96
611.117	50.79
611.31	50.68
611.504	50.63
611.697	50.44
611.89	50.42
612.083	50.37
612.277	50.39
612.47	50.3
612.663	50.27
612.856	50.19
613.05	50.09
613.243	50.05
613.436	50
613.629	49.96
613.822	49.8
614.015	49.82
614.209	49.71
614.402	49.77
614.595	49.71
614.788	49.73
614.981	49.66
615.174	49.59
615.367	49.47
615.56	49.5
615.753	49.43
615.946	49.36
616.139	49.46
616.332	49.68
616.525	49.58
616.718	49.62
616.911	49.68
617.103	49.67
617.296	49.39
617.489	49.39
617.682	49.32
617.875	49.26
618.067	49.1
618.26	49.21
618.453	49.18
618.646	49.17
618.838	49.21
619.031	49.33
619.224	49.24
619.417	49.27
619.609	49.28
619.802	49.17
619.994	49.04
620.187	48.94
620.38	48.89
620.572	48.82
620.765	48.92
620.957	48.83
621.15	48.78
621.342	48.74
621.535	48.84
621.727	48.69
621.92	48.59
622.112	48.59
622.305	48.66
622.497	48.59
622.69	48.71
622.882	48.92
623.074	48.94
623.267	48.77
623.459	48.63
623.651	48.51
623.844	48.5
624.036	48.51
624.228	48.48
624.42	48.51
624.613	48.57
624.805	48.38
624.997	48.43
625.189	48.52
625.381	48.54
625.574	48.41
625.766	48.43
625.958	48.34
626.15	48.37
626.342	48.37
626.534	48.33
626.726	48.28
626.918	48.21
627.11	48.03
627.302	47.94
627.494	47.86
627.686	47.88
627.878	47.87
628.07	47.89
628.262	47.89
628.454	47.88
628.646	47.97
628.838	47.93
629.029	47.88
629.221	47.98
629.413	47.92
629.605	47.72
629.797	47.72
629.989	47.68
630.18	47.48
630.372	47.53
630.564	47.61
630.755	47.66
630.947	47.72
631.139	47.66
631.33	47.46
631.522	47.49
631.714	47.32
631.905	47.26
632.097	47.27
632.289	47.42
632.48	47.31
632.672	47.26
632.863	47.21
633.055	47.28
633.246	47.1
633.438	47.05
633.629	46.95
633.821	46.95
634.012	46.77
634.203	46.73
634.395	46.6
634.586	46.7
634.777	46.59
634.969	46.7
635.16	46.85
635.351	46.82
635.543	46.7
635.734	46.76
635.925	46.55
636.117	46.49
636.308	46.59
636.499	46.49
636.69	46.23
636.881	46.23
637.073	46.27
637.264	46.02
637.455	46.09
637.646	46.28
637.837	46.34
638.028	46.15
638.219	46.29
638.41	46.24
638.601	46.05
638.792	45.99
638.983	46
639.174	45.89
639.365	45.83
639.556	45.79
639.747	45.66
639.938	45.61
640.129	45.54
640.32	45.45
640.511	45.49
640.701	45.51
640.892	45.44
641.083	45.43
641.274	45.56
641.465	45.42
641.655	45.26
641.846	45.25
642.037	45.17
642.228	45.03
642.418	45.18
642.609	45.35
642.8	45.37
642.99	45.35
643.181	45.31
643.372	45.22
643.562	45.07
643.753	45.02
643.943	45.01
644.134	44.9
644.324	44.87
644.515	44.91
644.705	44.94
644.896	44.84
645.086	44.81
645.277	44.63
645.467	44.6
645.658	44.5
645.848	44.57
646.038	44.67
646.229	44.71
646.419	44.59
646.61	44.54
646.8	44.48
646.99	44.41
647.18	44.41
647.371	44.45
647.561	44.55
647.751	44.51
647.941	44.32
648.132	44.32
648.322	44.19
648.512	44.15
648.702	44.21
648.892	44.41
649.082	44.42
649.272	44.47
649.462	44.19
649.653	44.04
649.843	43.89
650.033	43.88
650.223	43.75
650.413	43.9
650.603	43.98
650.793	43.94
650.983	43.75
651.172	43.8
651.362	43.69
651.552	43.51
651.742	43.43
651.932	43.57
652.122	43.56
652.312	43.68
652.502	43.79
652.691	43.86
652.881	43.78
653.071	43.72
653.261	43.51
653.45	43.35
653.64	43.4
653.83	43.33
654.019	43.41
654.209	43.44
654.399	43.37
654.588	43.17
654.778	43.13
654.968	42.96
655.157	42.87
655.347	42.87
655.536	42.91
655.726	42.79
655.915	42.63
656.105	42.55
656.294	42.5
656.484	42.29
656.673	42.12
656.863	42.16
657.052	42.12
657.241	41.94
657.431	41.74
657.62	41.71
657.809	41.35
657.999	41.1
658.188	40.96
658.377	40.96
658.567	40.82
658.756	40.72
658.945	40.64
659.134	40.55
659.324	40.28
659.513	40.13
659.702	39.97
659.891	39.84
660.08	39.71
660.269	39.68
660.458	39.51
660.648	39.41
660.837	39.34
661.026	39.34
661.215	39.16
661.404	38.92
661.593	38.91
661.782	38.58
661.971	38.29
662.16	38.28
662.349	38.27
662.538	37.92
662.726	37.96
662.915	37.7
663.104	37.39
663.293	37.31
663.482	37.34
663.671	37.09
663.86	36.99
664.048	36.93
664.237	36.73
664.426	36.51
664.615	36.43
664.803	36.35
664.992	36.23
665.181	36.14
665.369	35.88
665.558	35.68
665.747	35.62
665.935	35.53
666.124	35.45
666.312	35.43
666.501	35.31
666.69	35.07
666.878	34.89
667.067	34.68
667.255	34.67
667.444	34.81
667.632	34.77
667.82	34.86
668.009	34.86
668.197	34.91
668.386	34.78
668.574	34.89
668.762	34.73
668.951	34.53
669.139	34.41
669.327	34.27
669.516	34.27
669.704	34.2
669.892	34.35
670.08	34.35
670.269	34.29
670.457	34.18
670.645	33.95
670.833	33.88
671.021	33.78
671.21	33.93
671.398	34
671.586	34.08
671.774	33.94
671.962	33.77
672.15	33.6
672.338	33.36
672.526	33.49
672.714	33.46
672.902	33.63
673.09	33.71
673.278	33.92
673.466	33.93
673.654	34.15
673.842	34.17
674.03	34.19
674.218	34.1
674.405	34.07
674.593	34.03
674.781	33.96
674.969	34.01
675.157	34.18
675.344	34.34
675.532	34.35
675.72	34.51
675.908	34.66
676.095	34.57
676.283	34.6
676.471	34.75
676.658	34.72
676.846	34.78
677.033	35.03
677.221	35.02
677.409	35.05
677.596	35.31
677.784	35.39
677.971	35.34
678.159	35.62
678.346	35.75
678.534	35.76
678.721	35.97
678.909	36.1
679.096	36.02
679.283	36.25
679.471	36.34
679.658	36.24
679.846	36.43
680.033	36.74
680.22	36.66
680.408	36.64
680.595	36.87
680.782	36.88
680.969	37.07
681.157	37.18
681.344	37.48
681.531	37.51
681.718	37.63
681.905	37.65
682.093	37.84
682.28	37.99
682.467	38.23
682.654	38.56
682.841	38.59
683.028	38.9
683.215	39.02
683.402	38.97
683.589	39.07
683.776	39.46
683.963	39.56
684.15	40
684.337	40.43
684.524	40.66
684.711	41.06
684.898	41.41
685.085	41.65
685.271	42.08
685.458	42.37
685.645	42.38
685.832	42.76
686.019	43.22
686.205	43.36
686.392	43.68
686.579	43.97
686.766	44.27
686.952	44.27
687.139	44.65
687.326	44.81
687.512	45.1
687.699	45.22
687.886	45.43
688.072	45.61
688.259	45.97
688.445	46.48
688.632	46.96
688.818	47.65
689.005	48.02
689.191	48.36
689.378	48.83
689.564	49.17
689.751	49.4
689.937	49.86
690.124	50.36
690.31	50.45
690.496	50.76
690.683	51.04
690.869	51.38
691.055	51.57
691.242	52.04
691.428	52.38
691.614	53.02
691.8	53.47
691.987	54.09
692.173	54.41
692.359	54.87
692.545	55.04
692.731	55.36
692.918	55.69
693.104	56.09
693.29	56.72
693.476	57.13
693.662	57.6
693.848	57.89
694.034	58.24
694.22	58.22
694.406	58.6
694.592	58.96
694.778	59.69
694.964	60
695.15	60.46
695.336	60.63
695.522	60.92
695.708	61.08
695.894	61.53
696.08	61.8
696.265	62.42
696.451	62.85
696.637	63.13
696.823	63.48
697.009	63.77
697.194	64.01
697.38	64.24
697.566	64.52
697.751	64.88
697.937	65.56
698.123	65.97
698.308	66.2
698.494	66.51
698.68	66.7
698.865	66.85
699.051	67.15
699.236	67.38
699.422	67.57
699.607	67.52
699.793	67.55
699.978	67.57
700.164	67.8
700.349	68.22
700.535	68.89
700.72	69.18
700.906	69.87
701.091	70.17
701.276	70.25
701.462	70.48
701.647	70.97
701.832	71.18
702.018	71.57
702.203	71.76
702.388	71.75
702.573	72.07
702.759	72.37
702.944	72.64
703.129	72.94
703.314	73.65
703.499	73.44
703.684	73.31
703.87	73.93
704.055	74.58
704.24	74.7
704.425	75.37
704.61	75.74
704.795	75.55
704.98	75.44
705.165	75.11
705.35	74.85
705.535	75.21
705.72	75.19
705.905	75.46
706.09	76.1
706.275	76.45
706.459	75.95
706.644	76.25
706.829	76.29
707.014	76.2
707.199	76.77
707.384	77.48
707.568	77.75
707.753	78.49
707.938	78.79
708.123	78.53
708.307	78.33
708.492	78.35
708.677	78.29
708.861	78.49
709.046	78.44
709.231	79.25
709.415	79.57
709.6	79.41
709.784	79.26
709.969	79.5
710.153	78.85
710.338	78.91
710.522	79.02
710.707	79.52
710.891	79.4
711.076	79.71
711.26	79.43
711.445	79.72
711.629	79.78
711.813	80.31
711.998	80.68
712.182	80.84
712.366	81.08
712.551	81.46
712.735	81.87
712.919	81.39
713.103	81.84
713.288	81.41
713.472	81.15
713.656	81.56
713.84	82.13
714.024	82.55
714.208	82.7
714.393	83.06
714.577	82.65
714.761	82.82
714.945	82.42
715.129	82.28
715.313	82.58
715.497	82.47
715.681	82.96
715.865	82.78
716.049	83.44
716.233	83.11
716.417	83.4
716.601	82.72
716.785	83.26
716.968	83.04
717.152	83.07
717.336	82.86
717.52	82.93
717.704	82.68
717.888	83.17
718.071	83.35
718.255	83.72
718.439	83.69
718.622	83.81
718.806	83.6
718.99	83.18
719.174	82.96
719.357	83.31
719.541	83.79
719.724	83.58
719.908	84.53
720.092	85.39
720.275	85.82
720.459	85.51
720.642	85.69
720.826	84.95
721.009	84.07
721.193	83.26
721.376	83.86
721.559	84.36
721.743	85.05
721.926	85.27
722.11	85.69
722.293	85.3
722.476	85.02
722.66	84.9
722.843	85.14
723.026	84.72
723.21	84.37
723.393	84.84
723.576	84.49
723.759	84.16
723.942	84.87
724.126	84.87
724.309	84.7
724.492	84.85
724.675	84.97
724.858	84.67
725.041	84.95
725.224	84.88
725.407	84.87
725.59	85.18
725.774	84.92
725.957	84.64
726.14	84.56
726.322	84.57
726.505	84.35
726.688	85.29
726.871	85.39
727.054	85.63
727.237	85.62
727.42	85.96
727.603	85.89
727.786	86.25
727.968	86.29
728.151	86.74
728.334	86.35
728.517	85.73
728.699	86.02
728.882	85.76
729.065	86.09
729.248	87.09
729.43	87.53
729.613	88.42
729.796	88.81
729.978	88
730.161	87.47
730.343	87.53
730.526	87.27
730.708	86.64
730.891	87.38
731.073	87.7
731.256	86.81
731.438	86.21
731.621	87.17
731.803	86.85
731.986	86.41
732.168	86.74
732.35	87.53
732.533	87.04
732.715	87.41
732.898	87.6
733.08	87.64
733.262	87.87
733.444	87.8
733.627	87.84
733.809	88.27
733.991	89.6
734.173	88.66
734.355	88.85
734.538	88.65
734.72	88.59
734.902	87.82
735.084	88.23
735.266	88.37
735.448	89.17
735.63	88.77
735.812	89.2
735.994	89.5
736.176	89.27
736.358	88.64
736.54	89.49
736.722	89.26
736.904	89.1
737.086	89.25
737.268	90.12
737.45	89.86
737.632	89.65
737.814	89.24
737.995	89.38
738.177	88.68
738.359	88.24
738.541	88.66
738.723	88.97
738.904	89.55
739.086	89.42
739.268	89.17
739.449	89.37
739.631	89.47
739.813	88.92
739.994	89.68
740.176	90.46
740.358	90.17
740.539	90.6
740.721	91
740.902	91.05
741.084	91
741.265	90.67
741.447	91.03
741.628	91.76
741.81	91.28
741.991	91.75
742.172	92.72
742.354	92.33
742.535	91.51
742.717	91.25
742.898	91.87
743.079	91.8
743.261	91.53
743.442	91.05
743.623	92.04
743.804	91.08
743.986	91.53
744.167	90.77
744.348	91.52
744.529	91
744.71	90.21
744.891	89.96
745.073	90.18
745.254	88.86
745.435	87.76
745.616	87.81
745.797	87.68
745.978	87.66
746.159	88.36
746.34	88.75
746.521	90.41
746.702	89.13
746.883	89.42
747.064	89.33
747.245	89.7
747.426	88.43
747.606	89.32
747.787	89.28
747.968	89.75
748.149	88.94
748.33	89.79
748.51	89.86
748.691	89.52
748.872	89.96
749.053	90.27
749.233	88.96
749.414	88.76
749.595	88.34
749.775	86.89
749.956	86.33
750.137	86.68
750.317	87.39
750.498	89.37
750.678	90.53
750.859	92.53
751.04	92.65
751.22	91.74
751.4	90.11
751.581	88.74
751.761	88.36
751.942	88.74
752.122	88.51
752.303	88.48
752.483	88.71
752.663	87.45
752.844	85.99
753.024	86.71
753.204	87.98
753.385	87.57
753.565	87.95
753.745	89.32
753.925	88.61
754.106	87.11
754.286	87.67
754.466	87.6
754.646	87.47
754.826	87.23
755.006	86.84
755.187	87.88
755.367	88.9
755.547	89.73
755.727	91.13
755.907	90.96
756.087	91.38
756.267	90.07
756.447	89.44
756.627	86.66
756.807	88.23
756.987	86.57
757.167	87.91
757.346	87.82
757.526	88.01
757.706	87.87
757.886	89.19
758.066	89.03
758.246	89.7
758.425	90.21
758.605	88.79
758.785	89.12
758.965	89.26
759.144	88.12
759.324	89.47
759.504	90.23
759.683	88.7
759.863	87.05
760.043	85.7
760.222	85.07
760.402	85.12
760.581	84.83
760.761	86.06
760.94	85.61
761.12	86.74
761.299	87.17
761.479	87.78
761.658	85.9
761.838	87.01
762.017	86.33
762.197	86.99
762.376	86.99
762.555	89.81
762.735	90.09
762.914	89.33
763.093	87.78
763.273	87.17
763.452	86.46
763.631	86.12
763.81	85.8
763.99	85.38
764.169	86.78
764.348	85.2
764.527	83.89
764.706	86.24
764.885	87.75
765.064	84.72
765.243	85.64
765.423	87.69
765.602	86.5
765.781	84.33
765.96	83.69
766.139	82.49
766.318	83.96
766.497	82.63
766.676	84.1
766.854	86.81
767.033	86.1
767.212	84.17
767.391	84.71
767.57	85.79
767.749	85.24
767.928	88.01
768.106	86.79
768.285	85.22
768.464	84.12
768.643	84.33
768.821	83.24
769	85.68
769.179	86.45
769.357	85.18
769.536	85.26
769.715	85.73
769.893	86.65
770.072	86.43
770.25	88.71
770.429	89.32
770.607	89.14
770.786	87.85
770.964	90.02
771.143	87.53
771.321	88.79
771.5	89.03
771.678	88.16
771.857	84.43
772.035	85.14
772.213	83.97
772.392	82.57
772.57	83.75
772.748	85.79
772.927	85.03
773.105	83.33
773.283	84.81
773.461	85.49
773.64	86.51
773.818	86.51
773.996	89.11
774.174	86.01
774.352	82.03
774.531	80.24
774.709	83.1
774.887	79.78
775.065	80.85
775.243	83.19
775.421	82.9
775.599	83.88
775.777	83.4
775.955	81.89
776.133	79.58
776.311	81.47
776.489	76.63
776.667	78.31
776.844	79.7
777.022	79.49
777.2	78.12
777.378	78.97
777.556	79.79
777.734	82.15
777.911	84.14
778.089	84.33
778.267	85.75
778.445	84.89
778.622	81.67
778.8	81.95
778.978	81.25
779.155	79.96
779.333	79.89
779.511	80.78
779.688	82.25
779.866	80.29
780.043	78.92
780.221	78.79
780.398	78.93
780.576	77.23
780.753	80.7
780.931	81.01
781.108	79.98
781.286	80.86
781.463	78.94
781.64	74.63
781.818	76.34
781.995	77.62
782.172	75.13
782.35	74.72
782.527	79.93
782.704	77.87
782.882	78.43
783.059	79.38
783.236	82.89
783.413	84.12
783.59	85.44
783.768	85.63
783.945	88.53
784.122	85.85
784.299	82.21
784.476	80.83
784.653	76.96
784.83	72.44
785.007	69.26
785.184	69.26
785.361	67.71
785.538	71.62
785.715	75.98
785.892	80.51
786.069	85.02
786.246	90.22
786.423	90.58
786.6	89.03
786.776	89.46
786.953	83.63
787.13	84.3
787.307	84.67
787.484	83.7
787.66	79.44
787.837	81.19
788.014	76.79
788.191	72.34
788.367	73.53
788.544	75.98
788.721	74.33
788.897	78.52
789.074	80.87
789.25	78.13
789.427	82.6
789.603	83.71
789.78	80.36
789.956	79.26
790.133	80.3
790.309	76.22
790.486	80.07
790.662	77.37
790.839	79.87
791.015	80.22
791.192	76.95
791.368	73.78
791.544	75.87
791.721	73.2
791.897	73.15
792.073	71.65
792.249	68.17
792.426	69.91
792.602	72.31
792.778	70.53
792.954	71.81
793.13	73.38
793.307	67.97
793.483	63.41
793.659	63.32
793.835	68.98
794.011	70.26
794.187	73.83
794.363	72.41
794.539	79.13
794.715	71.77
794.891	70.35
795.067	71.1
795.243	77.62
795.419	71.47
795.595	68.92
795.771	68.37
795.947	70.32
796.122	65.7
796.298	71.47
796.474	78.34
796.65	80.83
796.826	76.5
797.001	79.98
797.177	76.32
797.353	77.03
797.529	76.66
797.704	79.2
797.88	74.86
798.056	70.96
798.231	67.65
798.407	71.09
798.582	70.1
798.758	76.98
798.934	82.19
799.109	79.58
799.285	75.43
799.46	77.61
799.636	75.94
799.811	74.65
799.986	80.44
800.162	83.44
800.337	83.03
800.513	76.78
800.688	79.84
800.863	83.95
801.039	72.66
801.214	68
801.389	72.61
801.565	63.23
801.74	50.44
801.915	65.26
802.09	69.17
802.265	70.75
802.441	73.47
802.616	76.97
802.791	74.02
802.966	69.24
803.141	66.44
803.316	65
803.491	68.52
803.666	70.9
803.841	71.68
804.016	70.25
804.191	74.2
804.366	66.66
804.541	60.05
804.716	61.02
804.891	62.73
805.066	61.7
805.241	64.01
805.416	63.78
805.591	58.9
805.765	61.9
805.94	64.02
806.115	63.87
806.29	63.39
806.464	72.38
806.639	67.17
806.814	57.44
806.989	55.05
807.163	62.2
807.338	59.65
807.512	59.72
807.687	51.59
807.862	73.09
808.036	76.25
808.211	78.75
808.385	91.4
808.56	109.74
808.734	99.44
808.909	98.88
809.083	94.74
809.258	90.44
809.432	88.1
809.606	75.4
809.781	68.74
809.955	69.47
810.13	60.47
810.304	55.19
810.478	58.78
810.652	64.33
810.827	69.23
811.001	67.76
811.175	70.65
811.349	67.97
811.524	60.75
811.698	45.88
811.872	43.49
812.046	47.02
812.22	55.49
812.394	58.59
812.568	70.66
812.742	82.74
812.916	74.69
813.09	65.18
813.264	59.98
813.438	60.58
813.612	51.81
813.786	50.49
813.96	63.54
814.134	62.21
814.308	71.5
814.482	76.24
814.656	72.8
814.83	70.37
815.003	72.91
815.177	57.51
815.351	55.86
815.525	54.29
815.698	43.57
815.872	41.26
816.046	39.12
816.219	39.25
816.393	47.58
816.567	59.95
816.74	65.9
816.914	71.75
817.088	78.91
817.261	73.59
817.435	56.4
817.608	58.29
817.782	46.76
817.955	48.33
818.129	49.43
818.302	59.92
818.475	63.47
818.649	71.8
818.822	60.91
818.996	74.37
819.169	72.3
819.342	58.52
819.516	66.78
819.689	74.49
819.862	64.85
820.035	58.53
820.209	57.27
820.382	51.29
820.555	47.81
820.728	34.97
820.901	37.5
821.075	44.1
821.248	46.65
821.421	43.24
821.594	56.3
821.767	80.91
821.94	83.39
822.113	59.54
822.286	52.41
822.459	57.8
822.632	36.38
822.805	30
822.978	36.25
823.151	35.81
823.324	28.57
823.496	22.89
823.669	21.79
823.842	30.45
824.015	24.95
824.188	21.8
824.361	20.17
824.533	16.17
824.706	34.91
824.879	41.77
825.051	45.91
825.224	47.31
825.397	45.52
825.569	24.56
825.742	32.36
825.915	46.75
826.087	54.97
826.26	49.86
826.432	50.36
826.605	60.69
826.777	48.98
826.95	49.51
827.122	38.81
827.295	47.45
827.467	38.35
827.64	8.81
827.812	-1.48
827.984	18.93
828.157	-10.4
828.329	-24.03
828.501	14.46
828.674	49.69
828.846	25.81
829.018	59.09
829.19	29.22
829.363	24.25
829.535	10.01
829.707	13.09
829.879	-4.22
830.051	3.05
830.223	9.19
830.395	-7.71
830.568	-0.96
830.74	-12.01
830.912	28.91
831.084	11.1
831.256	13.15
831.428	-2.58
831.6	-2.6
831.772	-48.15
831.943	-42.12
832.115	-10.88
832.287	26.94
832.459	27.93
832.631	40.66
832.803	63.85
832.975	64.53
833.146	53.71
833.318	59.32
833.49	54.22
833.662	8.87
833.833	-9.34
834.005	3.99
834.177	11.08
834.348	13.06
834.52	19.47
834.692	23.06
834.863	-26.11
835.035	-26.55
835.206	-63.99
835.378	-24.65
835.549	-5.57
835.721	29.37
835.892	25.54
836.064	25.83
836.235	29.03
836.407	66.36
836.578	22.46
836.749	42.77
836.921	43
837.092	0.11
837.264	-40.54
837.435	-31.82
837.606	-1.36
837.777	19.94
837.949	39.39
838.12	49.85
838.291	51.72
838.462	40.7
838.633	24.03
838.805	16.38
838.976	18.1
839.147	1.61
839.318	-11.63
839.489	-18.74
839.66	21.12
839.831	22.59
840.002	17.24
840.173	5.29
840.344	45.82
840.515	10.39
840.686	-84.17
840.857	-65.25
841.028	-27.71
841.199	-45.35
841.369	-37.63
841.54	-17.75
841.711	10.79
841.882	42.09
842.053	36.1
842.223	31
842.394	48.49
842.565	53.36
842.736	32.5
842.906	36.54
843.077	41.61
843.248	45.3
843.418	36.79
843.589	-3.31
843.759	34.67
843.93	18.01
844.101	10.42
844.271	18.04
844.442	34.57
844.612	44.01
844.783	20.86
844.953	3.72
845.123	22.08
845.294	47.67
845.464	-118.81
845.635	19.45
845.805	64.01
845.975	37
846.146	0.1
846.316	3.4
846.486	7.6
846.656	30.12
846.827	20.68
846.997	17.13
847.167	40.14
847.337	6.9
847.507	-34.46
847.677	-30.58
847.848	31.7
848.018	23.02
848.188	43.23
848.358	34.13
848.528	24.49
848.698	-17.17
848.868	-65.66
849.038	-144.75
849.208	-24.01
849.378	45.96
849.548	44.6
849.718	43.44
849.887	56.64
850.057	22.37
850.227	-23.34
850.397	-53.93
850.567	-118.86
850.737	-317.83
850.906	-778.75
851.076	-451.56
851.246	-194.24
851.415	11.44
851.585	17.81
851.755	-9.47
851.924	5.24
852.094	5.76
852.264	-94.69
852.433	-841.35
852.603	-105.2
852.772	35.15
852.942	20.45
853.111	4.64
853.281	54.57
853.45	47.45
853.62	-53.76
853.789	-75.7
853.959	-40.46
854.128	-76.74
854.297	-115.4
854.467	-108.18
854.636	-136.33
854.805	-26.61
854.975	-60.74
855.144	-26.03
855.313	250.35
855.482	86.13
855.652	-134.86
855.821	-61.63
855.99	32.13
856.159	17.13
856.328	17.6
856.497	2.95
856.667	7.17
856.836	1.23
857.005	-26.89
857.174	-38.76
857.343	-36.31
857.512	23.8
857.681	-31.55
857.85	-33.22
858.019	-10.44
858.188	-14.41
858.356	-53.13
858.525	-105.66
858.694	-78.08
858.863	-161.38
859.032	-100.52
859.201	-68.34
859.369	7.91
859.538	24.47
859.707	18.15
859.876	7.89
860.044	-0.93
860.213	25.6
860.382	6.71
860.55	21.81
860.719	43.23
860.888	47.32
861.056	23.15
861.225	38.86
861.393	65.33
861.562	64.56
861.73	-20.31
861.899	-90.58
862.067	-1972.41
862.236	-114.93
862.404	-244.38
862.572	-88.6
862.741	-12.48
862.909	-5.97
863.078	-97.43
863.246	-59.79
863.414	-53.98
863.582	-43.4
863.751	-49.26
863.919	-30.5
864.087	27.33
864.255	11.64
864.424	-244.62
864.592	-2.09
864.76	-53.49
864.928	-174.4
865.096	-127.71
865.264	-34.5
865.432	-1293.18
865.6	51.5
865.768	-63.18
865.936	-72.29
866.104	-53.9
866.272	-126.25
866.44	-322.05
866.608	514.67
866.776	262.94
866.944	2348.84
867.112	-316.1
867.28	-146.96
867.448	-60.47
867.615	-8.07
867.783	10.08
867.951	-7.19
868.119	17.83
868.286	3.86
868.454	-89.6
868.622	-89.98
868.789	-133.83
868.957	-1942.86
869.125	-1221.05
869.292	-49.88
869.46	-155.31
869.627	30.06
869.795	-7.16
869.963	7.83
870.13	9.76
870.298	39
870.465	-70.91
870.632	-80.98
870.8	-52.28
870.967	-78.67
871.135	-154.55
871.302	-137.69
871.469	-119.91
871.637	-171.53
871.804	-117.45
871.971	-118.97
872.139	-286.98
872.306	-23.03
872.473	-64.66
872.64	-236.48
872.807	-127.27
872.975	-33.23
873.142	-247.27
873.309	1943.24
873.476	-12.69
873.643	71.34
873.81	71.19
873.977	77.45
874.144	78.12
874.311	-2.59
874.478	-100.51
874.645	-116.61
874.812	-74.95
874.979	-53.38
875.146	-28.76
875.313	-26.84
875.48	26.59
875.647	-0.79
875.813	-24.67
875.98	-24.23
876.147	-43.5
876.314	-98.21
876.481	772.73
876.647	-935.96
876.814	370.98
876.981	-53.85
877.147	-1.89
877.314	3.47
877.481	11.27
877.647	15.75
877.814	-19.98
877.98	-100.47
878.147	-37.57
878.314	4.95
878.48	-13.09
878.647	28.75
878.813	69.36
878.979	63.02
879.146	22.28
879.312	8.87
879.479	-39.2
879.645	-118.51
879.811	-296.85
879.978	-656.49
880.144	-168.26
880.31	-107.49
880.477	-332.52
880.643	-366.2
880.809	-174.84
880.975	-165.44
881.142	-1155.45
881.308	-211.33
881.474	-123.71
881.64	-125.63
881.806	-185.61
881.972	-15.74
882.138	46.17
882.304	55.62
882.47	-120.69
882.636	-574.59
882.802	-217.52
882.968	-32.92
883.134	13.45
883.3	48.65
883.466	84.86
883.632	96.78
883.798	44.08
883.964	-10.8
884.129	-18.7
884.295	-15.5
884.461	-45.8
884.627	-45.7
884.793	-56.13
884.958	-20.45
885.124	-86.31
885.29	-168.24
885.455	-284.95
885.621	-10.28
885.787	-73.78
885.952	-57.27
886.118	-37.06
886.283	-29.63
886.449	-113.73
886.614	-113.93
886.78	-258.08
886.945	1542.62
887.111	-595.95
887.276	-565.34
887.442	-1155.45
887.607	-397.17
887.773	-146.82
887.938	-202.61
888.103	-222.6
888.269	-96.39
888.434	-372.43
888.599	-189.57
888.764	-71.88
888.93	-11
889.095	-24.09
889.26	-36.95
889.425	-29.16
889.59	-18.98
889.756	-81.25
889.921	-73.27
890.086	-11.08
890.251	-18.15
890.416	-108.24
890.581	-850
890.746	88.57
890.911	186.62
891.076	86.65
891.241	-274.63
891.406	59.18
891.571	30.81
891.736	-160.55
891.901	-235.4
892.065	351.65
892.23	129.77
892.395	181.8
892.56	343.93
892.725	-514.84
892.889	-1124.39
893.054	-170.98
893.219	-67.67
893.384	5.02
893.548	-56.39
893.713	-83.51
893.878	-74.77
