Data from Ofra_2a_PS_1GT43_Reflection_3.txt Node
Date: Tue Jul 20 09:36:48 EDT 2021
User: Adam
Spectrometer: FLMT01687
Trigger mode: 0
Integration Time (sec): 9.450000E-1
Scans to average: 3
Electric dark correction enabled: true
Nonlinearity correction enabled: false
Boxcar width: 3
XAxis mode: Wavelengths
Number of Pixels in Spectrum: 3648
>>>>>Begin Spectral Data<<<<<
179.494	679.88
179.716	410.65
179.937	426.92
180.158	1505.86
180.38	-1207.85
180.601	-329.28
180.823	-203.22
181.044	-170.02
181.265	-271.65
181.486	-59.75
181.708	-1242.39
181.929	174.07
182.15	891.48
182.372	-144.86
182.593	-162.07
182.814	624.7
183.035	524.07
183.257	204.9
183.478	126.25
183.699	139.96
183.92	97.99
184.141	84.68
184.363	78.16
184.584	47.06
184.805	41.67
185.026	19.76
185.247	9.68
185.468	7.1
185.689	12.73
185.91	5.77
186.132	11.94
186.353	-0.6
186.574	15.37
186.795	-0.51
187.016	9.13
187.237	11.98
187.458	15.74
187.679	21.77
187.9	52.86
188.121	71.54
188.342	73.74
188.563	80.78
188.784	83.79
189.005	78.35
189.226	74.74
189.447	61.01
189.667	36.72
189.888	39.28
190.109	34.53
190.33	20.44
190.551	15.01
190.772	7.53
190.993	15.56
191.214	14.09
191.434	8.34
191.655	19.14
191.876	32.17
192.097	28.12
192.318	30.9
192.538	29.75
192.759	37.43
192.98	23.38
193.201	37.73
193.421	38.25
193.642	49.83
193.863	50.44
194.083	39.86
194.304	26.18
194.525	55.71
194.745	20.33
194.966	20.84
195.187	17.35
195.407	24.67
195.628	32.18
195.848	46.89
196.069	40.43
196.29	42.26
196.51	43.29
196.731	52.7
196.951	47.23
197.172	42.65
197.392	36.73
197.613	30.67
197.833	41.19
198.054	35.28
198.274	21.55
198.495	34.14
198.715	31.4
198.936	29.45
199.156	32.43
199.377	31.74
199.597	31.56
199.817	28.95
200.038	19.44
200.258	26.57
200.479	22.6
200.699	17.08
200.919	-3.03
201.14	-0.55
201.36	14.18
201.58	28.88
201.801	19.59
202.021	27.42
202.241	42.76
202.461	50.65
202.682	56.19
202.902	49.13
203.122	40.97
203.342	53.74
203.563	57.68
203.783	43.1
204.003	46.26
204.223	50.19
204.443	45.74
204.663	40.87
204.884	22.93
205.104	5.62
205.324	19.3
205.544	15.02
205.764	6.07
205.984	19.32
206.204	26.85
206.424	46.15
206.644	48.38
206.864	32.62
207.084	48.74
207.304	39.57
207.525	30.5
207.745	39.63
207.964	29.31
208.184	35.56
208.404	41.82
208.624	18.93
208.844	13.88
209.064	26.7
209.284	16.9
209.504	20.59
209.724	-1.91
209.944	3.78
210.164	14.13
210.384	33.62
210.604	23.98
210.823	21.96
211.043	3.41
211.263	22.45
211.483	18.4
211.703	20.53
211.922	23.27
212.142	31.49
212.362	35.58
212.582	44.4
212.801	46.54
213.021	49.17
213.241	43.37
213.461	33.48
213.68	29.65
213.9	35.13
214.12	29.83
214.339	21.22
214.559	27.8
214.779	40.11
214.998	34.07
215.218	34.21
215.438	37.74
215.657	43.01
215.877	41.22
216.096	42.36
216.316	39.48
216.535	50.09
216.755	37.71
216.974	27.76
217.194	25.62
217.413	44.43
217.633	29.74
217.852	19.85
218.072	-3.11
218.291	31.02
218.511	30.59
218.73	27.1
218.95	30.89
219.169	30.83
219.389	20.9
219.608	42.92
219.827	21.36
220.047	35.51
220.266	42.95
220.485	32.36
220.705	34.18
220.924	41.01
221.143	33.8
221.363	37.92
221.582	31.97
221.801	27.28
222.021	25.08
222.24	18.41
222.459	11.49
222.678	13.27
222.897	5.74
223.117	8.45
223.336	0.31
223.555	-13.7
223.774	3.43
223.993	22.88
224.213	15.18
224.432	40.71
224.651	35.74
224.87	50.1
225.089	63.04
225.308	49.67
225.527	51.31
225.746	58.78
225.965	41.99
226.184	45.75
226.404	41.52
226.623	40.95
226.842	43.23
227.061	36.15
227.28	38.69
227.499	41
227.718	31.98
227.936	24.61
228.155	25.54
228.374	27.37
228.593	23.57
228.812	15.38
229.031	2.53
229.25	15.01
229.469	21.82
229.688	32.09
229.907	29.58
230.125	31.16
230.344	43.05
230.563	40.46
230.782	33.11
231.001	33.44
231.22	15.62
231.438	21.79
231.657	18.01
231.876	18.54
232.095	34.39
232.313	45.45
232.532	43.96
232.751	48.98
232.969	53.67
233.188	58.19
233.407	56.99
233.625	42.48
233.844	37.34
234.063	53.95
234.281	40.56
234.5	32.36
234.719	31.74
234.937	27.3
235.156	26.23
235.374	18.23
235.593	-2.78
235.811	16.72
236.03	16.4
236.249	30.23
236.467	34.06
236.686	56.05
236.904	55.15
237.123	61.43
237.341	56.8
237.559	61.03
237.778	62.56
237.996	62.93
238.215	48.12
238.433	53.67
238.652	44.66
238.87	42.77
239.088	34.93
239.307	28.17
239.525	22.39
239.743	16.58
239.962	13.17
240.18	24.1
240.398	29.81
240.617	39.36
240.835	45.12
241.053	50.98
241.271	53.73
241.49	47.81
241.708	39.71
241.926	18.69
242.144	15.31
242.363	-1.52
242.581	-0.88
242.799	0.59
243.017	3.5
243.235	-1.34
243.453	7.51
243.672	7.95
243.89	19.83
244.108	19.72
244.326	7.86
244.544	12.48
244.762	19.66
244.98	18.16
245.198	6.02
245.416	9.28
245.634	14.52
245.852	31.6
246.07	26.99
246.288	14.76
246.506	25.95
246.724	42.32
246.942	47.19
247.16	38.4
247.378	22.49
247.596	32.73
247.814	32.61
248.032	26.51
248.25	24.16
248.468	20.31
248.685	26.57
248.903	21.71
249.121	21.43
249.339	24.91
249.557	18.07
249.775	7.99
249.992	-1.56
250.21	-3.94
250.428	0.75
250.646	-8.23
250.863	-6.83
251.081	4.16
251.299	25.52
251.517	33.44
251.734	23.7
251.952	33.06
252.17	30.46
252.387	35.72
252.605	30.96
252.823	-8.14
253.04	-11.76
253.258	-2.55
253.475	6.77
253.693	13.47
253.911	15.07
254.128	11.71
254.346	23.95
254.563	21.11
254.781	16.25
254.998	19.63
255.216	29.41
255.433	26.52
255.651	37.17
255.868	41.76
256.086	54.57
256.303	62.98
256.521	41.89
256.738	36.19
256.956	25.37
257.173	25.03
257.39	29.13
257.608	27.66
257.825	21.72
258.043	36.96
258.26	28.16
258.477	36.96
258.695	30.86
258.912	32.08
259.129	22.81
259.346	30.85
259.564	18.24
259.781	31.29
259.998	22.04
260.216	27.74
260.433	16.62
260.65	33.85
260.867	20.4
261.084	28.38
261.302	16.4
261.519	11.41
261.736	13.09
261.953	21.27
262.17	20.77
262.387	18.42
262.604	10.9
262.822	19.59
263.039	34.77
263.256	30.24
263.473	26.11
263.69	18.7
263.907	24.98
264.124	24.38
264.341	21
264.558	19.08
264.775	19.82
264.992	25.39
265.209	32.29
265.426	31
265.643	34.47
265.86	28.25
266.077	26.57
266.294	25.87
266.51	26.45
266.727	1.16
266.944	-45.82
267.161	-58.07
267.378	-56.45
267.595	-49.76
267.812	-57.56
268.028	-51.45
268.245	-25.33
268.462	21.64
268.679	25.71
268.896	26.86
269.112	26.39
269.329	36.55
269.546	31.79
269.763	34.19
269.979	31.98
270.196	29.93
270.413	28.92
270.629	33.01
270.846	33.32
271.063	35.87
271.279	32.79
271.496	25.05
271.712	24.86
271.929	32.3
272.146	28.19
272.362	12.47
272.579	9.65
272.795	3.4
273.012	7.73
273.228	14.7
273.445	17.81
273.661	12.16
273.878	22.82
274.094	25.23
274.311	29.11
274.527	25.11
274.744	20.16
274.96	5.95
275.177	14.52
275.393	14.36
275.609	14.95
275.826	15.59
276.042	25.82
276.259	30.97
276.475	35.39
276.691	31.25
276.908	27.63
277.124	23.92
277.34	22.93
277.557	24.89
277.773	15.88
277.989	17.51
278.205	10.94
278.422	16.59
278.638	25.33
278.854	29.1
279.07	19.46
279.286	20.59
279.503	19.13
279.719	34.79
279.935	22.69
280.151	24.57
280.367	20.99
280.583	22.83
280.799	30.96
281.016	33.65
281.232	21.22
281.448	16.57
281.664	13.25
281.88	18.06
282.096	19.8
282.312	10.88
282.528	-2.96
282.744	5.33
282.96	20.64
283.176	15.95
283.392	22.98
283.608	32.46
283.824	31.06
284.04	36.31
284.256	39.6
284.471	42.53
284.687	40.41
284.903	28.69
285.119	7.56
285.335	16.56
285.551	23.78
285.767	23.32
285.982	22.74
286.198	23.09
286.414	33.91
286.63	48.67
286.846	44.19
287.061	41.43
287.277	38.71
287.493	31.66
287.709	32.81
287.924	31.55
288.14	25.62
288.356	27.23
288.571	12.49
288.787	11.9
289.003	21.16
289.218	10.35
289.434	2.77
289.65	16.44
289.865	19.31
290.081	33.23
290.296	37.92
290.512	39
290.727	53.74
290.943	52.84
291.159	39.7
291.374	39.5
291.59	30.47
291.805	29.79
292.021	20.24
292.236	15.86
292.451	10.82
292.667	24.32
292.882	19.19
293.098	20.83
293.313	12.9
293.529	24.5
293.744	31.4
293.959	36.13
294.175	31.97
294.39	40.72
294.605	38.52
294.821	39.36
295.036	29.57
295.251	18.02
295.467	20.06
295.682	18.58
295.897	13.43
296.112	22.57
296.328	26.23
296.543	23.75
296.758	30.45
296.973	36.03
297.188	42.55
297.404	50.25
297.619	40.53
297.834	47.26
298.049	54.39
298.264	51.47
298.479	45.38
298.694	37.35
298.909	33.22
299.125	32.87
299.34	24.24
299.555	22.25
299.77	18.34
299.985	13.78
300.2	17.85
300.415	24.48
300.63	19.32
300.845	20.17
301.06	20.25
301.275	25.83
301.49	30.78
301.704	25.82
301.919	15.85
302.134	14.78
302.349	10.24
302.564	3.62
302.779	-1.65
302.994	2.44
303.209	2.42
303.423	16.12
303.638	30.43
303.853	36.94
304.068	40.52
304.283	29.81
304.497	25.82
304.712	32.29
304.927	20.62
305.142	15.66
305.356	21.51
305.571	28.93
305.786	39.15
306	46.12
306.215	45.73
306.43	52.9
306.644	50.47
306.859	44.75
307.074	36.93
307.288	36.15
307.503	26.39
307.717	25.58
307.932	25.64
308.147	23.19
308.361	21.92
308.576	19.7
308.79	11.52
309.005	16.62
309.219	13.5
309.434	13.52
309.648	17.88
309.863	22.11
310.077	25.49
310.292	32.05
310.506	33.67
310.72	48.74
310.935	46.71
311.149	33.99
311.364	26.95
311.578	28.29
311.792	29.3
312.007	28.22
312.221	16.05
312.435	8.61
312.649	6.39
312.864	12.76
313.078	19.66
313.292	23.49
313.507	21.73
313.721	21.8
313.935	57.42
314.149	55.41
314.363	59.25
314.578	47.78
314.792	45.16
315.006	45.81
315.22	58.12
315.434	37.73
315.648	22.24
315.862	22.03
316.077	28.74
316.291	30
316.505	29.37
316.719	6.11
316.933	7.35
317.147	10
317.361	6.8
317.575	9.57
317.789	7.73
318.003	12.49
318.217	20.27
318.431	21.64
318.645	32.23
318.859	25.23
319.073	22.99
319.287	25.76
319.5	24.38
319.714	22.82
319.928	33.6
320.142	34.92
320.356	39.4
320.57	28.45
320.784	36.83
320.997	40.86
321.211	43.68
321.425	29.91
321.639	30.98
321.853	31.31
322.066	35.7
322.28	30.24
322.494	26.06
322.707	18.37
322.921	25.77
323.135	26.48
323.349	29.95
323.562	31.8
323.776	28.47
323.989	27.11
324.203	32.62
324.417	24.09
324.63	18.87
324.844	9.04
325.057	13.2
325.271	3.93
325.485	15.33
325.698	20.89
325.912	29.15
326.125	35.46
326.339	41.29
326.552	48.61
326.766	58.98
326.979	50.06
327.193	47.14
327.406	42.01
327.619	33.67
327.833	21.74
328.046	10.59
328.26	-10.81
328.473	-9.72
328.686	-11.09
328.9	-9.59
329.113	-9.89
329.326	5.85
329.54	1.1
329.753	18.79
329.966	23.65
330.179	34.73
330.393	38.08
330.606	44.61
330.819	45.11
331.032	60.21
331.246	54.39
331.459	61
331.672	56.84
331.885	48.59
332.098	52.01
332.311	35.18
332.525	25.62
332.738	32.95
332.951	24.23
333.164	14.37
333.377	3.64
333.59	10.81
333.803	32.1
334.016	26.75
334.229	15.3
334.442	21.17
334.655	37.14
334.868	47.05
335.081	38.42
335.294	32.92
335.507	38.41
335.72	32.52
335.933	33.84
336.146	29.5
336.359	30.39
336.572	29.24
336.785	28.97
336.997	24.17
337.21	35.63
337.423	36.68
337.636	38.39
337.849	32.54
338.062	37.44
338.274	31.57
338.487	29.93
338.7	27.02
338.913	23.86
339.125	26.58
339.338	32.43
339.551	30.27
339.763	32.79
339.976	37.2
340.189	35.34
340.402	29.02
340.614	29.21
340.827	26.33
341.039	30.95
341.252	29.24
341.465	26.94
341.677	22.48
341.89	26.6
342.102	26.32
342.315	31.6
342.527	25.92
342.74	28.75
342.952	34.04
343.165	43.25
343.377	44.02
343.59	37.79
343.802	34.62
344.015	34.49
344.227	30.66
344.44	25.52
344.652	25.16
344.864	28.44
345.077	29.81
345.289	31.05
345.502	27.09
345.714	28.42
345.926	27.15
346.139	19.92
346.351	-0.85
346.563	7.27
346.775	4
346.988	1.76
347.2	6.86
347.412	6.71
347.624	16.37
347.837	30.88
348.049	28.77
348.261	31.72
348.473	31.77
348.685	29.8
348.897	33.22
349.11	25.03
349.322	19.05
349.534	18.47
349.746	16.08
349.958	20.8
350.17	23.62
350.382	13.77
350.594	15.42
350.806	15.72
351.018	14.36
351.23	13.29
351.442	14.94
351.654	16.04
351.866	30.82
352.078	29.86
352.29	35.54
352.502	39.59
352.714	39.19
352.926	38.88
353.138	41.29
353.35	29.34
353.561	24.53
353.773	23.14
353.985	24.13
354.197	24.08
354.409	29.49
354.621	29.06
354.832	28.69
355.044	36.63
355.256	34.41
355.468	26.62
355.679	29.82
355.891	23.58
356.103	22.36
356.314	27.3
356.526	17.48
356.738	12.26
356.949	28.12
357.161	23.35
357.373	27.91
357.584	35.38
357.796	32.1
358.008	37.46
358.219	48.11
358.431	38.62
358.642	41.61
358.854	34.45
359.065	27.44
359.277	27.36
359.488	21.4
359.7	13.88
359.911	13.49
360.123	14.16
360.334	15.15
360.546	6.87
360.757	12.94
360.969	27.04
361.18	35.53
361.391	34.71
361.603	43.15
361.814	48.36
362.025	52.82
362.237	54.09
362.448	45.47
362.659	32.48
362.871	32.13
363.082	31.39
363.293	33.33
363.504	31.45
363.716	27.04
363.927	27.2
364.138	32.49
364.349	36.33
364.56	35.42
364.772	35.14
364.983	36.33
365.194	39.6
365.405	41.95
365.616	48.47
365.827	50.84
366.038	48.28
366.25	42.78
366.461	38.81
366.672	39.4
366.883	47.58
367.094	44.56
367.305	40.37
367.516	36.86
367.727	34.14
367.938	42.74
368.149	40.45
368.36	27.75
368.571	24.18
368.781	15.49
368.992	16.79
369.203	15.87
369.414	4.94
369.625	4.52
369.836	5.63
370.047	7.75
370.258	12.47
370.468	10.38
370.679	14.5
370.89	24.73
371.101	21.83
371.312	20.52
371.522	22.32
371.733	12.89
371.944	14.68
372.155	4.11
372.365	0.31
372.576	4.07
372.787	7.63
372.997	8.9
373.208	20.71
373.419	23.17
373.629	40.47
373.84	38.94
374.05	39.29
374.261	35.57
374.472	33.35
374.682	30.43
374.893	20.42
375.103	18.22
375.314	14.55
375.524	14.45
375.735	11.59
375.945	13.36
376.156	12.48
376.366	17.09
376.577	9.24
376.787	12.23
376.997	12.41
377.208	11.72
377.418	9.2
377.629	12.41
377.839	21.67
378.049	31.26
378.26	35.73
378.47	37.98
378.68	38.44
378.89	32.45
379.101	25.98
379.311	16.16
379.521	13.98
379.732	2.95
379.942	4.4
380.152	20.01
380.362	30.66
380.572	39.29
380.783	40.57
380.993	41.84
381.203	45.93
381.413	43.28
381.623	37.77
381.833	29.41
382.043	26.31
382.253	26.7
382.463	25.33
382.674	26.47
382.884	20.82
383.094	15.14
383.304	16.49
383.514	15.83
383.724	14.44
383.934	11.07
384.144	12.97
384.353	14.14
384.563	11.54
384.773	14.61
384.983	14.75
385.193	17.6
385.403	20.96
385.613	15.97
385.823	16.42
386.033	18.8
386.242	16.32
386.452	17.55
386.662	18.89
386.872	16.14
387.082	15.58
387.291	15.16
387.501	16.59
387.711	14.33
387.921	10.88
388.13	7.02
388.34	6.34
388.55	7.86
388.759	6.98
388.969	3.27
389.179	6.62
389.388	8.6
389.598	6.78
389.807	6.76
390.017	8.14
390.227	8.42
390.436	7.83
390.646	7.31
390.855	6.84
391.065	8.07
391.274	7.63
391.484	6.65
391.693	7.03
391.903	8.16
392.112	7.28
392.322	8.62
392.531	8.91
392.74	9.13
392.95	9.91
393.159	9.32
393.369	9.41
393.578	10.07
393.787	8.46
393.997	9.19
394.206	9.12
394.415	8.54
394.625	7.51
394.834	7.04
395.043	6.83
395.252	8.89
395.462	8.31
395.671	8.6
395.88	8.78
396.089	9.4
396.298	9.55
396.508	9.11
396.717	7.93
396.926	7.43
397.135	7.15
397.344	6.54
397.553	6.73
397.762	6.64
397.971	6.93
398.181	6.6
398.39	7.09
398.599	7.46
398.808	7.65
399.017	7.6
399.226	7.76
399.435	7.61
399.644	7.47
399.853	7.35
400.062	6.81
400.27	7.04
400.479	6.94
400.688	6.93
400.897	7.05
401.106	7.34
401.315	7.34
401.524	7.59
401.733	7.47
401.941	7.38
402.15	7.1
402.359	6.99
402.568	6.75
402.777	6.64
402.985	6.53
403.194	6.42
403.403	6.26
403.612	6.49
403.82	6.53
404.029	6.68
404.238	6.72
404.446	6.69
404.655	6.61
404.864	6.64
405.072	6.48
405.281	6.33
405.489	6.3
405.698	6.13
405.906	6.01
406.115	6
406.324	6.02
406.532	6.02
406.741	6.04
406.949	5.9
407.158	6
407.366	6.07
407.574	6.14
407.783	6.03
407.991	5.93
408.2	5.91
408.408	5.95
408.617	5.86
408.825	5.87
409.033	5.79
409.242	5.82
409.45	5.86
409.658	5.9
409.867	5.9
410.075	5.9
410.283	5.75
410.491	5.79
410.7	5.82
410.908	5.83
411.116	5.73
411.324	5.72
411.533	5.56
411.741	5.61
411.949	5.62
412.157	5.62
412.365	5.55
412.573	5.61
412.781	5.6
412.99	5.84
413.198	5.88
413.406	5.85
413.614	5.82
413.822	5.8
414.03	5.71
414.238	5.65
414.446	5.51
414.654	5.47
414.862	5.42
415.07	5.52
415.278	5.45
415.486	5.5
415.694	5.46
415.902	5.45
416.109	5.5
416.317	5.38
416.525	5.28
416.733	5.39
416.941	5.32
417.149	5.38
417.357	5.42
417.564	5.32
417.772	5.38
417.98	5.35
418.188	5.2
418.395	5.18
418.603	5.12
418.811	5.03
419.019	5
419.226	5.04
419.434	4.99
419.642	5.06
419.849	5.06
420.057	5.14
420.265	5.16
420.472	5.21
420.68	5.16
420.887	5.17
421.095	5.17
421.302	5.17
421.51	5.17
421.717	5.23
421.925	5.19
422.132	5.18
422.34	5.18
422.547	5.1
422.755	5.08
422.962	4.91
423.17	4.77
423.377	4.76
423.585	4.67
423.792	4.6
423.999	4.6
424.207	4.59
424.414	4.7
424.621	4.75
424.829	4.73
425.036	4.79
425.243	4.87
425.451	4.93
425.658	5.06
425.865	5.03
426.072	5.08
426.28	5.13
426.487	5.19
426.694	5.18
426.901	5.08
427.108	5.03
427.315	4.93
427.523	4.86
427.73	4.85
427.937	4.84
428.144	4.84
428.351	5
428.558	4.94
428.765	5
428.972	5.05
429.179	5
429.386	5
429.593	4.97
429.8	4.93
430.007	5
430.214	5.03
430.421	4.99
430.628	4.91
430.835	4.84
431.042	4.9
431.249	4.9
431.456	4.92
431.662	4.91
431.869	5.03
432.076	5.09
432.283	5.11
432.49	5.07
432.697	5.04
432.903	5.04
433.11	5.1
433.317	5.01
433.524	5.01
433.73	5.08
433.937	5.11
434.144	5.17
434.35	5.14
434.557	5.1
434.764	5.17
434.97	5.24
435.177	5.2
435.384	5.19
435.59	5.18
435.797	5.22
436.003	5.2
436.21	5.2
436.416	5.22
436.623	5.32
436.829	5.4
437.036	5.38
437.242	5.4
437.449	5.44
437.655	5.45
437.862	5.44
438.068	5.42
438.275	5.4
438.481	5.45
438.687	5.51
438.894	5.47
439.1	5.44
439.307	5.41
439.513	5.39
439.719	5.44
439.926	5.48
440.132	5.45
440.338	5.57
440.544	5.58
440.751	5.58
440.957	5.58
441.163	5.56
441.369	5.56
441.575	5.51
441.782	5.47
441.988	5.48
442.194	5.56
442.4	5.62
442.606	5.62
442.812	5.62
443.018	5.73
443.224	5.75
443.431	5.79
443.637	5.75
443.843	5.75
444.049	5.73
444.255	5.7
444.461	5.66
444.667	5.62
444.873	5.64
445.079	5.68
445.284	5.66
445.49	5.68
445.696	5.71
445.902	5.8
446.108	5.82
446.314	5.88
446.52	5.91
446.726	5.98
446.931	6.02
447.137	6.02
447.343	5.99
447.549	6
447.755	5.9
447.96	5.89
448.166	5.82
448.372	5.87
448.578	5.91
448.783	5.86
448.989	5.89
449.195	5.96
449.4	5.97
449.606	5.98
449.812	5.95
450.017	5.93
450.223	5.97
450.428	6
450.634	5.99
450.84	6.02
451.045	6.08
451.251	6.11
451.456	6.1
451.662	6.12
451.867	6.12
452.073	6.16
452.278	6.12
452.483	6.13
452.689	6.1
452.894	6.13
453.1	6.11
453.305	6.11
453.51	6.13
453.716	6.14
453.921	6.07
454.127	6.09
454.332	6.05
454.537	6.12
454.742	6.14
454.948	6.12
455.153	6.15
455.358	6.27
455.563	6.28
455.769	6.34
455.974	6.29
456.179	6.23
456.384	6.25
456.589	6.3
456.795	6.19
457	6.21
457.205	6.2
457.41	6.21
457.615	6.35
457.82	6.35
458.025	6.36
458.23	6.42
458.435	6.35
458.64	6.4
458.845	6.42
459.05	6.37
459.255	6.36
459.46	6.3
459.665	6.36
459.87	6.43
460.075	6.4
460.28	6.4
460.485	6.41
460.69	6.39
460.895	6.48
461.099	6.48
461.304	6.42
461.509	6.42
461.714	6.46
461.919	6.43
462.123	6.52
462.328	6.48
462.533	6.5
462.738	6.53
462.942	6.62
463.147	6.63
463.352	6.67
463.556	6.66
463.761	6.71
463.966	6.69
464.17	6.75
464.375	6.67
464.58	6.63
464.784	6.65
464.989	6.65
465.193	6.67
465.398	6.65
465.602	6.71
465.807	6.78
466.011	6.82
466.216	6.85
466.42	6.91
466.625	6.91
466.829	6.99
467.034	6.98
467.238	7
467.443	7.04
467.647	7.07
467.851	7.08
468.056	7.08
468.26	7.06
468.464	7.08
468.669	7.09
468.873	7.08
469.077	7.1
469.282	7.1
469.486	7.13
469.69	7.18
469.894	7.24
470.099	7.3
470.303	7.35
470.507	7.36
470.711	7.36
470.915	7.42
471.119	7.39
471.324	7.37
471.528	7.3
471.732	7.29
471.936	7.31
472.14	7.33
472.344	7.33
472.548	7.42
472.752	7.47
472.956	7.55
473.16	7.61
473.364	7.62
473.568	7.68
473.772	7.73
473.976	7.76
474.18	7.75
474.384	7.77
474.588	7.77
474.792	7.76
474.995	7.76
475.199	7.73
475.403	7.7
475.607	7.72
475.811	7.7
476.015	7.76
476.218	7.78
476.422	7.81
476.626	7.85
476.83	7.89
477.033	7.88
477.237	7.94
477.441	7.96
477.644	8.01
477.848	8.02
478.052	8.04
478.255	8.02
478.459	8.16
478.663	8.16
478.866	8.12
479.07	8.13
479.273	8.14
479.477	8.19
479.681	8.26
479.884	8.17
480.088	8.22
480.291	8.28
480.495	8.32
480.698	8.33
480.901	8.31
481.105	8.3
481.308	8.32
481.512	8.34
481.715	8.34
481.919	8.35
482.122	8.4
482.325	8.48
482.529	8.54
482.732	8.55
482.935	8.53
483.138	8.54
483.342	8.55
483.545	8.52
483.748	8.46
483.952	8.46
484.155	8.5
484.358	8.5
484.561	8.55
484.764	8.59
484.967	8.65
485.171	8.68
485.374	8.71
485.577	8.73
485.78	8.77
485.983	8.76
486.186	8.73
486.389	8.75
486.592	8.74
486.795	8.7
486.998	8.66
487.201	8.67
487.404	8.71
487.607	8.74
487.81	8.73
488.013	8.75
488.216	8.78
488.419	8.78
488.622	8.74
488.825	8.69
489.028	8.67
489.231	8.63
489.433	8.63
489.636	8.65
489.839	8.7
490.042	8.76
490.245	8.78
490.447	8.77
490.65	8.83
490.853	8.84
491.056	8.86
491.258	8.87
491.461	8.84
491.664	8.78
491.866	8.87
492.069	8.84
492.272	8.83
492.474	8.8
492.677	8.76
492.879	8.8
493.082	8.86
493.285	8.81
493.487	8.82
493.69	8.82
493.892	8.85
494.095	8.84
494.297	8.86
494.5	8.85
494.702	8.85
494.905	8.88
495.107	8.9
495.309	8.87
495.512	8.9
495.714	8.92
495.917	8.95
496.119	8.99
496.321	8.98
496.524	9.03
496.726	9.07
496.928	9.11
497.13	9.1
497.333	9.16
497.535	9.16
497.737	9.17
497.939	9.15
498.142	9.15
498.344	9.16
498.546	9.23
498.748	9.19
498.95	9.22
499.152	9.23
499.355	9.24
499.557	9.28
499.759	9.3
499.961	9.32
500.163	9.37
500.365	9.4
500.567	9.42
500.769	9.48
500.971	9.5
501.173	9.52
501.375	9.51
501.577	9.52
501.779	9.57
501.981	9.58
502.183	9.55
502.385	9.56
502.587	9.57
502.788	9.59
502.99	9.64
503.192	9.6
503.394	9.65
503.596	9.7
503.798	9.78
503.999	9.81
504.201	9.81
504.403	9.77
504.605	9.86
504.806	9.92
505.008	9.97
505.21	9.97
505.411	10.01
505.613	10.08
505.815	10.16
506.016	10.2
506.218	10.2
506.42	10.24
506.621	10.25
506.823	10.26
507.024	10.3
507.226	10.3
507.427	10.3
507.629	10.33
507.83	10.32
508.032	10.36
508.233	10.42
508.435	10.44
508.636	10.48
508.838	10.48
509.039	10.5
509.24	10.53
509.442	10.54
509.643	10.54
509.845	10.56
510.046	10.56
510.247	10.58
510.448	10.58
510.65	10.6
510.851	10.64
511.052	10.68
511.254	10.69
511.455	10.75
511.656	10.8
511.857	10.84
512.058	10.88
512.26	10.91
512.461	10.91
512.662	10.92
512.863	10.92
513.064	10.92
513.265	10.94
513.466	10.99
513.667	11
513.868	11.03
514.069	11.06
514.27	11.12
514.471	11.14
514.672	11.19
514.873	11.21
515.074	11.25
515.275	11.26
515.476	11.3
515.677	11.3
515.878	11.37
516.079	11.37
516.28	11.34
516.481	11.35
516.682	11.41
516.882	11.39
517.083	11.39
517.284	11.37
517.485	11.43
517.686	11.48
517.886	11.47
518.087	11.47
518.288	11.49
518.488	11.53
518.689	11.56
518.89	11.61
519.091	11.61
519.291	11.67
519.492	11.68
519.692	11.76
519.893	11.76
520.094	11.75
520.294	11.72
520.495	11.74
520.695	11.75
520.896	11.76
521.096	11.73
521.297	11.78
521.497	11.8
521.698	11.78
521.898	11.81
522.099	11.81
522.299	11.87
522.499	11.87
522.7	11.89
522.9	11.92
523.101	11.99
523.301	12
523.501	12.05
523.702	12.05
523.902	12.08
524.102	12.1
524.302	12.1
524.503	12.08
524.703	12.13
524.903	12.14
525.103	12.17
525.304	12.2
525.504	12.23
525.704	12.25
525.904	12.32
526.104	12.31
526.304	12.35
526.504	12.35
526.705	12.4
526.905	12.44
527.105	12.45
527.305	12.42
527.505	12.47
527.705	12.43
527.905	12.42
528.105	12.43
528.305	12.44
528.505	12.45
528.705	12.48
528.905	12.5
529.105	12.57
529.304	12.65
529.504	12.62
529.704	12.64
529.904	12.67
530.104	12.65
530.304	12.68
530.503	12.65
530.703	12.63
530.903	12.69
531.103	12.72
531.303	12.77
531.502	12.79
531.702	12.78
531.902	12.82
532.101	12.85
532.301	12.89
532.501	12.9
532.7	12.91
532.9	13.01
533.1	13.05
533.299	13.07
533.499	13.1
533.698	13.1
533.898	13.12
534.097	13.16
534.297	13.13
534.496	13.16
534.696	13.2
534.895	13.24
535.095	13.28
535.294	13.29
535.494	13.32
535.693	13.38
535.892	13.39
536.092	13.4
536.291	13.45
536.491	13.48
536.69	13.5
536.889	13.47
537.088	13.47
537.288	13.53
537.487	13.55
537.686	13.56
537.886	13.62
538.085	13.71
538.284	13.76
538.483	13.85
538.682	13.88
538.882	13.91
539.081	13.94
539.28	13.89
539.479	13.86
539.678	13.91
539.877	13.93
540.076	13.92
540.275	13.98
540.474	13.97
540.673	14.06
540.872	14.15
541.071	14.22
541.27	14.25
541.469	14.3
541.668	14.34
541.867	14.43
542.066	14.48
542.265	14.51
542.464	14.55
542.663	14.64
542.862	14.71
543.06	14.79
543.259	14.84
543.458	14.87
543.657	14.92
543.856	14.94
544.054	14.95
544.253	14.99
544.452	15
544.651	15.03
544.849	15.06
545.048	15.11
545.247	15.15
545.445	15.18
545.644	15.27
545.843	15.32
546.041	15.36
546.24	15.44
546.438	15.5
546.637	15.55
546.836	15.65
547.034	15.68
547.233	15.78
547.431	15.82
547.63	15.91
547.828	15.99
548.027	16.08
548.225	16.13
548.423	16.19
548.622	16.24
548.82	16.37
549.019	16.38
549.217	16.45
549.415	16.51
549.614	16.55
549.812	16.58
550.01	16.66
550.209	16.74
550.407	16.82
550.605	16.89
550.803	16.97
551.002	17.08
551.2	17.2
551.398	17.24
551.596	17.27
551.794	17.35
551.993	17.39
552.191	17.51
552.389	17.61
552.587	17.7
552.785	17.82
552.983	17.93
553.181	18.03
553.379	18.12
553.577	18.17
553.775	18.24
553.973	18.33
554.171	18.39
554.369	18.46
554.567	18.54
554.765	18.59
554.963	18.67
555.161	18.74
555.359	18.82
555.557	18.92
555.755	19.02
555.952	19.13
556.15	19.31
556.348	19.42
556.546	19.49
556.744	19.59
556.941	19.69
557.139	19.77
557.337	19.85
557.535	19.97
557.732	20.05
557.93	20.2
558.128	20.3
558.325	20.42
558.523	20.52
558.721	20.66
558.918	20.76
559.116	20.84
559.313	20.95
559.511	21.06
559.708	21.13
559.906	21.25
560.104	21.34
560.301	21.38
560.498	21.53
560.696	21.62
560.893	21.71
561.091	21.86
561.288	21.99
561.486	22.03
561.683	22.16
561.88	22.28
562.078	22.34
562.275	22.46
562.473	22.51
562.67	22.59
562.867	22.7
563.064	22.82
563.262	22.95
563.459	23.08
563.656	23.2
563.853	23.34
564.051	23.37
564.248	23.55
564.445	23.63
564.642	23.69
564.839	23.84
565.036	23.97
565.234	24.06
565.431	24.24
565.628	24.33
565.825	24.46
566.022	24.52
566.219	24.55
566.416	24.63
566.613	24.72
566.81	24.76
567.007	24.82
567.204	24.87
567.401	24.99
567.598	25.1
567.795	25.15
567.991	25.25
568.188	25.37
568.385	25.49
568.582	25.6
568.779	25.67
568.976	25.7
569.172	25.78
569.369	25.81
569.566	25.87
569.763	25.92
569.96	25.96
570.156	25.95
570.353	26.05
570.55	26.08
570.746	26.14
570.943	26.2
571.14	26.23
571.336	26.25
571.533	26.39
571.729	26.46
571.926	26.55
572.123	26.56
572.319	26.59
572.516	26.63
572.712	26.73
572.909	26.75
573.105	26.76
573.302	26.76
573.498	26.82
573.695	26.87
573.891	26.88
574.087	26.88
574.284	26.86
574.48	26.88
574.677	26.88
574.873	26.92
575.069	26.95
575.266	27.01
575.462	27.01
575.658	27.09
575.854	27.11
576.051	27.15
576.247	27.18
576.443	27.2
576.639	27.23
576.835	27.29
577.032	27.26
577.228	27.26
577.424	27.31
577.62	27.33
577.816	27.31
578.012	27.22
578.208	27.16
578.404	27.19
578.6	27.23
578.796	27.23
578.993	27.15
579.189	27.13
579.384	27.16
579.58	27.16
579.776	27.12
579.972	27.06
580.168	27.02
580.364	27.03
580.56	27.01
580.756	27.05
580.952	27.05
581.148	27.05
581.343	27.08
581.539	27.05
581.735	27.05
581.931	27.09
582.127	27.04
582.322	27.02
582.518	27.01
582.714	26.96
582.909	26.97
583.105	26.99
583.301	26.96
583.496	26.94
583.692	26.95
583.888	26.93
584.083	26.97
584.279	26.99
584.474	26.93
584.67	26.93
584.866	26.95
585.061	26.96
585.257	26.98
585.452	26.9
585.648	26.87
585.843	26.94
586.039	26.92
586.234	26.89
586.429	26.9
586.625	26.86
586.82	26.86
587.015	26.85
587.211	26.84
587.406	26.86
587.601	26.83
587.797	26.79
587.992	26.84
588.187	26.89
588.383	26.99
588.578	27
588.773	26.99
588.968	27.05
589.163	27.07
589.359	27.06
589.554	27.09
589.749	27.04
589.944	27.06
590.139	27.08
590.334	27.11
590.529	27.18
590.724	27.21
590.919	27.27
591.114	27.3
591.309	27.34
591.504	27.36
591.699	27.37
591.894	27.43
592.089	27.55
592.284	27.48
592.479	27.51
592.674	27.53
592.869	27.6
593.064	27.76
593.259	27.75
593.454	27.7
593.648	27.78
593.843	27.85
594.038	27.92
594.233	27.98
594.428	28.02
594.622	28.05
594.817	28.18
595.012	28.25
595.206	28.35
595.401	28.46
595.596	28.56
595.79	28.52
595.985	28.64
596.18	28.75
596.374	28.82
596.569	28.93
596.763	28.95
596.958	28.98
597.153	29.11
597.347	29.17
597.542	29.19
597.736	29.33
597.931	29.34
598.125	29.5
598.319	29.6
598.514	29.68
598.708	29.76
598.903	29.84
599.097	29.88
599.291	29.97
599.486	29.96
599.68	30
599.874	30.14
600.069	30.17
600.263	30.21
600.457	30.25
600.651	30.35
600.846	30.43
601.04	30.48
601.234	30.47
601.428	30.49
601.622	30.55
601.817	30.6
602.011	30.55
602.205	30.55
602.399	30.59
602.593	30.55
602.787	30.6
602.981	30.58
603.175	30.6
603.369	30.66
603.563	30.66
603.757	30.64
603.951	30.69
604.145	30.7
604.339	30.73
604.533	30.66
604.727	30.63
604.921	30.6
605.115	30.52
605.309	30.53
605.502	30.5
605.696	30.49
605.89	30.5
606.084	30.45
606.278	30.42
606.471	30.46
606.665	30.33
606.859	30.27
607.053	30.19
607.246	30.17
607.44	30.11
607.634	30.07
607.827	30
608.021	30
608.214	29.97
608.408	29.94
608.602	29.83
608.795	29.76
608.989	29.7
609.182	29.65
609.376	29.57
609.569	29.47
609.763	29.43
609.956	29.37
610.15	29.35
610.343	29.28
610.537	29.19
610.73	29.15
610.923	29.12
611.117	28.96
611.31	28.88
611.504	28.79
611.697	28.73
611.89	28.66
612.083	28.59
612.277	28.5
612.47	28.5
612.663	28.43
612.856	28.32
613.05	28.29
613.243	28.26
613.436	28.13
613.629	28.07
613.822	27.94
614.015	27.95
614.209	27.89
614.402	27.81
614.595	27.64
614.788	27.57
614.981	27.48
615.174	27.42
615.367	27.29
615.56	27.19
615.753	27.09
615.946	27.13
616.139	27.08
616.332	27.02
616.525	27.02
616.718	26.93
616.911	26.91
617.103	26.86
617.296	26.71
617.489	26.71
617.682	26.66
617.875	26.6
618.067	26.58
618.26	26.57
618.453	26.51
618.646	26.54
618.838	26.5
619.031	26.46
619.224	26.39
619.417	26.31
619.609	26.28
619.802	26.23
619.994	26.18
620.187	26.12
620.38	26.1
620.572	26.15
620.765	26.13
620.957	26.03
621.15	25.98
621.342	25.96
621.535	25.94
621.727	25.92
621.92	25.83
622.112	25.77
622.305	25.78
622.497	25.76
622.69	25.69
622.882	25.71
623.074	25.68
623.267	25.69
623.459	25.77
623.651	25.75
623.844	25.77
624.036	25.76
624.228	25.66
624.42	25.61
624.613	25.53
624.805	25.43
624.997	25.37
625.189	25.35
625.381	25.27
625.574	25.23
625.766	25.22
625.958	25.21
626.15	25.25
626.342	25.25
626.534	25.17
626.726	25.19
626.918	25.15
627.11	25.09
627.302	25.07
627.494	25
627.686	24.91
627.878	24.88
628.07	24.82
628.262	24.83
628.454	24.82
628.646	24.78
628.838	24.73
629.029	24.69
629.221	24.67
629.413	24.63
629.605	24.55
629.797	24.5
629.989	24.45
630.18	24.36
630.372	24.37
630.564	24.35
630.755	24.32
630.947	24.26
631.139	24.19
631.33	24.13
631.522	24.1
631.714	24.06
631.905	24.06
632.097	24.06
632.289	24.06
632.48	24.05
632.672	23.95
632.863	23.96
633.055	23.89
633.246	23.89
633.438	23.81
633.629	23.85
633.821	23.84
634.012	23.92
634.203	23.97
634.395	23.98
634.586	23.93
634.777	23.92
634.969	23.88
635.16	23.85
635.351	23.81
635.543	23.72
635.734	23.68
635.925	23.71
636.117	23.72
636.308	23.68
636.499	23.64
636.69	23.7
636.881	23.77
637.073	23.76
637.264	23.71
637.455	23.77
637.646	23.77
637.837	23.78
638.028	23.75
638.219	23.72
638.41	23.71
638.601	23.65
638.792	23.49
638.983	23.4
639.174	23.41
639.365	23.39
639.556	23.3
639.747	23.29
639.938	23.33
640.129	23.33
640.32	23.35
640.511	23.33
640.701	23.25
640.892	23.24
641.083	23.21
641.274	23.12
641.465	23.13
641.655	23.1
641.846	23
642.037	23.01
642.228	22.99
642.418	22.91
642.609	22.86
642.8	22.8
642.99	22.84
643.181	22.9
643.372	22.87
643.562	22.85
643.753	22.82
643.943	22.83
644.134	22.84
644.324	22.77
644.515	22.69
644.705	22.63
644.896	22.57
645.086	22.58
645.277	22.6
645.467	22.54
645.658	22.48
645.848	22.44
646.038	22.4
646.229	22.38
646.419	22.41
646.61	22.3
646.8	22.26
646.99	22.27
647.18	22.26
647.371	22.24
647.561	22.24
647.751	22.11
647.941	22.11
648.132	22.09
648.322	22.07
648.512	22.07
648.702	22.05
648.892	22.05
649.082	22.02
649.272	21.97
649.462	22
649.653	21.95
649.843	21.82
650.033	21.76
650.223	21.71
650.413	21.77
650.603	21.81
650.793	21.73
650.983	21.67
651.172	21.66
651.362	21.63
651.552	21.55
651.742	21.45
651.932	21.34
652.122	21.26
652.312	21.19
652.502	21.12
652.691	21.08
652.881	21.04
653.071	20.93
653.261	20.87
653.45	20.84
653.64	20.81
653.83	20.77
654.019	20.64
654.209	20.48
654.399	20.4
654.588	20.23
654.778	20.08
654.968	19.9
655.157	19.71
655.347	19.57
655.536	19.44
655.726	19.32
655.915	19.19
656.105	19.05
656.294	18.89
656.484	18.79
656.673	18.66
656.863	18.53
657.052	18.3
657.241	18.17
657.431	18
657.62	17.81
657.809	17.62
657.999	17.44
658.188	17.24
658.377	17.08
658.567	16.9
658.756	16.65
658.945	16.46
659.134	16.28
659.324	16.07
659.513	15.9
659.702	15.72
659.891	15.51
660.08	15.41
660.269	15.31
660.458	15.16
660.648	14.98
660.837	14.83
661.026	14.67
661.215	14.52
661.404	14.33
661.593	14.12
661.782	13.9
661.971	13.75
662.16	13.59
662.349	13.43
662.538	13.27
662.726	13.11
662.915	12.98
663.104	12.8
663.293	12.61
663.482	12.48
663.671	12.34
663.86	12.18
664.048	12.03
664.237	11.93
664.426	11.9
664.615	11.8
664.803	11.63
664.992	11.53
665.181	11.47
665.369	11.38
665.558	11.26
665.747	11.15
665.935	11.11
666.124	11
666.312	10.89
666.501	10.79
666.69	10.74
666.878	10.65
667.067	10.6
667.255	10.52
667.444	10.5
667.632	10.43
667.82	10.35
668.009	10.32
668.197	10.27
668.386	10.16
668.574	10.15
668.762	10.08
668.951	10.06
669.139	10.06
669.327	9.99
669.516	9.98
669.704	9.98
669.892	9.94
670.08	9.94
670.269	9.91
670.457	9.84
670.645	9.9
670.833	9.84
671.021	9.78
671.21	9.78
671.398	9.78
671.586	9.82
671.774	9.85
671.962	9.84
672.15	9.85
672.338	9.94
672.526	9.96
672.714	9.97
672.902	9.95
673.09	10.03
673.278	9.96
673.466	10.11
673.654	10.12
673.842	10.11
674.03	10.19
674.218	10.22
674.405	10.24
674.593	10.32
674.781	10.29
674.969	10.28
675.157	10.33
675.344	10.36
675.532	10.44
675.72	10.38
675.908	10.44
676.095	10.5
676.283	10.59
676.471	10.7
676.658	10.8
676.846	10.86
677.033	11.04
677.221	11.13
677.409	11.21
677.596	11.34
677.784	11.4
677.971	11.34
678.159	11.44
678.346	11.5
678.534	11.62
678.721	11.67
678.909	11.67
679.096	11.74
679.283	11.93
679.471	12.04
679.658	12.15
679.846	12.26
680.033	12.49
680.22	12.6
680.408	12.74
680.595	12.84
680.782	12.99
680.969	13.06
681.157	13.08
681.344	13.15
681.531	13.34
681.718	13.51
681.905	13.75
682.093	13.97
682.28	14.21
682.467	14.48
682.654	14.65
682.841	14.85
683.028	15.09
683.215	15.3
683.402	15.4
683.589	15.65
683.776	15.83
683.963	16
684.15	16.26
684.337	16.53
684.524	16.72
684.711	17.01
684.898	17.24
685.085	17.57
685.271	18.07
685.458	18.39
685.645	18.61
685.832	18.95
686.019	19.28
686.205	19.61
686.392	19.93
686.579	20.12
686.766	20.5
686.952	20.88
687.139	21.22
687.326	21.67
687.512	22.1
687.699	22.52
687.886	22.89
688.072	23.31
688.259	23.82
688.445	24.32
688.632	24.8
688.818	25.37
689.005	26
689.191	26.64
689.378	27.18
689.564	27.68
689.751	28.32
689.937	28.91
690.124	29.41
690.31	29.88
690.496	30.46
690.683	31.11
690.869	31.77
691.055	32.44
691.242	32.9
691.428	33.64
691.614	34.36
691.8	34.97
691.987	35.71
692.173	36.47
692.359	37.09
692.545	37.95
692.731	38.61
692.918	39.22
693.104	39.79
693.29	40.4
693.476	40.9
693.662	41.53
693.848	42.12
694.034	42.65
694.22	43.46
694.406	44.29
694.592	44.87
694.778	45.59
694.964	46.23
695.15	46.97
695.336	47.86
695.522	48.42
695.708	49.29
695.894	50.01
696.08	50.74
696.265	51.5
696.451	52.17
696.637	52.66
696.823	53.35
697.009	53.94
697.194	54.59
697.38	55.18
697.566	55.8
697.751	56.52
697.937	57.26
698.123	57.82
698.308	58.22
698.494	58.8
698.68	59.41
698.865	59.98
699.051	60.37
699.236	60.85
699.422	61.49
699.607	61.98
699.793	62.57
699.978	62.78
700.164	63.22
700.349	63.67
700.535	64.08
700.72	64.54
700.906	64.93
701.091	65.23
701.276	65.89
701.462	66.3
701.647	66.75
701.832	67.31
702.018	67.58
702.203	68.08
702.388	68.38
702.573	68.89
702.759	69.33
702.944	69.67
703.129	69.98
703.314	70.44
703.499	70.93
703.684	71.64
703.87	71.99
704.055	72.37
704.24	72.79
704.425	73.28
704.61	73.35
704.795	73.65
704.98	73.85
705.165	74.05
705.35	74.41
705.535	74.85
705.72	74.97
705.905	75.47
706.09	75.66
706.275	75.86
706.459	76.35
706.644	76.4
706.829	76.46
707.014	76.69
707.199	76.91
707.384	77.19
707.568	77.45
707.753	77.62
707.938	77.76
708.123	77.9
708.307	78.32
708.492	78.5
708.677	78.89
708.861	79.04
709.046	79.12
709.231	79.71
709.415	80.01
709.6	79.99
709.784	80.36
709.969	80.56
710.153	80.86
710.338	80.88
710.522	80.81
710.707	80.8
710.891	81.06
711.076	81.2
711.26	81.26
711.445	81.3
711.629	81.8
711.813	81.76
711.998	81.98
712.182	82.28
712.366	82.45
712.551	82.57
712.735	82.73
712.919	82.93
713.103	83.25
713.288	83.72
713.472	83.45
713.656	83.12
713.84	83.19
714.024	83.45
714.208	83.05
714.393	83.3
714.577	83.19
714.761	83.5
714.945	83.95
715.129	84.03
715.313	83.99
715.497	84.41
715.681	84.6
715.865	84.72
716.049	84.88
716.233	85.02
716.417	85.22
716.601	85.34
716.785	85.66
716.968	85.31
717.152	85.49
717.336	85.64
717.52	85.81
717.704	85.72
717.888	85.77
718.071	85.71
718.255	86.04
718.439	85.81
718.622	85.75
718.806	85.57
718.99	85.73
719.174	85.86
719.357	85.95
719.541	86.11
719.724	86.65
719.908	86.65
720.092	86.78
720.275	86.88
720.459	86.95
720.642	86.86
720.826	86.87
721.009	86.63
721.193	86.78
721.376	86.94
721.559	87
721.743	86.93
721.926	86.99
722.11	86.96
722.293	86.83
722.476	86.51
722.66	86.48
722.843	86.62
723.026	86.76
723.21	86.77
723.393	86.97
723.576	87.26
723.759	87.79
723.942	87.99
724.126	87.85
724.309	87.78
724.492	87.99
724.675	87.98
724.858	88.28
725.041	88.23
725.224	88.13
725.407	88.17
725.59	88.39
725.774	88.65
725.957	88.77
726.14	88.64
726.322	88.51
726.505	88.92
726.688	89.09
726.871	89.33
727.054	89.31
727.237	88.93
727.42	89.04
727.603	89.51
727.786	89.43
727.968	89.79
728.151	89.96
728.334	89.93
728.517	90.5
728.699	90.74
728.882	90.83
729.065	90.86
729.248	90.81
729.43	90.39
729.613	90.63
729.796	90.49
729.978	90.35
730.161	90.27
730.343	90.37
730.526	90.14
730.708	90.81
730.891	90.59
731.073	90.85
731.256	91.15
731.438	91.42
731.621	91.75
731.803	91.8
731.986	91.52
732.168	91.47
732.35	91.34
732.533	91.32
732.715	91.36
732.898	91.27
733.08	91.74
733.262	91.65
733.444	91.72
733.627	92.01
733.809	92.09
733.991	92.32
734.173	91.9
734.355	92.27
734.538	92.41
734.72	92.67
734.902	92.31
735.084	92.43
735.266	92.12
735.448	92.57
735.63	92.26
735.812	92.45
735.994	92.25
736.176	92.88
736.358	92.93
736.54	92.96
736.722	92.58
736.904	92.62
737.086	92.59
737.268	92.87
737.45	92.65
737.632	92.24
737.814	92.3
737.995	93.03
738.177	93.51
738.359	93.87
738.541	93.43
738.723	93.3
738.904	93.31
739.086	93.56
739.268	93.86
739.449	93.47
739.631	93.33
739.813	93.67
739.994	94.2
740.176	94.59
740.358	94.54
740.539	94.17
740.721	93.86
740.902	93.63
741.084	93.75
741.265	93.04
741.447	92.65
741.628	92.46
741.81	92.37
741.991	92.64
742.172	92.81
742.354	93.17
742.535	93.88
742.717	94.14
742.898	94.34
743.079	94.17
743.261	94.51
743.442	94.67
743.623	93.99
743.804	93.73
743.986	93.4
744.167	92.81
744.348	93.09
744.529	92.4
744.71	92.12
744.891	92.63
745.073	92.43
745.254	92.53
745.435	92.39
745.616	92.25
745.797	92.16
745.978	92.88
746.159	92.33
746.34	93.01
746.521	93.46
746.702	94.08
746.883	94.23
747.064	94.8
747.245	93.9
747.426	94.64
747.606	94.01
747.787	94.22
747.968	94.57
748.149	94.09
748.33	93.65
748.51	93.91
748.691	93.9
748.872	94.08
749.053	93.41
749.233	92.62
749.414	92.44
749.595	92.37
749.775	92.25
749.956	91.59
750.137	91.62
750.317	91.88
750.498	92.74
750.678	93.07
750.859	93.6
751.04	94.2
751.22	94.36
751.4	94.6
751.581	94.44
751.761	93.59
751.942	93.68
752.122	93.32
752.303	92.64
752.483	93.05
752.663	93.19
752.844	92.71
753.024	93.05
753.204	92.96
753.385	92.65
753.565	92.27
753.745	91.8
753.925	91.2
754.106	91.79
754.286	91.91
754.466	91.87
754.646	92.05
754.826	92.33
755.006	92.21
755.187	92.17
755.367	91.93
755.547	92.03
755.727	92.09
755.907	91.94
756.087	92.35
756.267	92.9
756.447	93.13
756.627	92.82
756.807	93.05
756.987	93.93
757.167	94.1
757.346	93.78
757.526	93.85
757.706	93.59
757.886	94.31
758.066	94.63
758.246	93.59
758.425	94.04
758.605	94.1
758.785	93.64
758.965	92.98
759.144	92.89
759.324	92.22
759.504	93.04
759.683	92.4
759.863	91.72
760.043	91.52
760.222	91.24
760.402	90.74
760.581	90.42
760.761	89.03
760.94	88.63
761.12	88.59
761.299	88.25
761.479	90
761.658	89.92
761.838	89.74
762.017	90.49
762.197	91.37
762.376	92.84
762.555	93.39
762.735	91.47
762.914	92.24
763.093	92.34
763.273	92.59
763.452	92.2
763.631	90.77
763.81	90.7
763.99	91.56
764.169	90.95
764.348	91.53
764.527	90.45
764.706	90.76
764.885	91.85
765.064	92.01
765.243	91.58
765.423	91.79
765.602	90.99
765.781	91.69
765.96	91.57
766.139	90.23
766.318	90.27
766.497	90.62
766.676	91
766.854	91.16
767.033	90.83
767.212	90
767.391	90.41
767.57	89.97
767.749	90
767.928	89.14
768.106	89.14
768.285	89.29
768.464	90.36
768.643	90.91
768.821	90.45
769	90.97
769.179	90.75
769.357	90.41
769.536	89.93
769.715	89.75
769.893	89.15
770.072	89.9
770.25	88.78
770.429	90.05
770.607	90.89
770.786	90.94
770.964	89.94
771.143	90.43
771.321	89.39
771.5	90
771.678	89.14
771.857	88.26
772.035	88.11
772.213	89.17
772.392	88.82
772.57	89.89
772.748	89.5
772.927	89.37
773.105	89.56
773.283	89.61
773.461	88.83
773.64	88.13
773.818	87.24
773.996	86.93
774.174	86.7
774.352	86.28
774.531	85.65
774.709	86.56
774.887	87.55
775.065	87.66
775.243	88.57
775.421	88.29
775.599	87.86
775.777	88.78
775.955	88.5
776.133	87.56
776.311	87.74
776.489	88.13
776.667	88.86
776.844	89.25
777.022	88.76
777.2	88.03
777.378	89.53
777.556	90.78
777.734	89.59
777.911	89.58
778.089	89.09
778.267	90.11
778.445	90.08
778.622	88.89
778.8	87.52
778.978	87.4
779.155	86.34
779.333	85.88
779.511	85.03
779.688	83.55
779.866	83.05
780.043	82.83
780.221	83.83
780.398	84.35
780.576	84.84
780.753	84.36
780.931	85.62
781.108	87.43
781.286	87.2
781.463	87.12
781.64	87.41
781.818	87.77
781.995	88.31
782.172	88.17
782.35	86.29
782.527	87.08
782.704	85.88
782.882	85.76
783.059	84.38
783.236	84.68
783.413	85.8
783.59	84.85
783.768	84.67
783.945	85.03
784.122	85.1
784.299	86.41
784.476	86.34
784.653	84.33
784.83	85.02
785.007	85.44
785.184	84.96
785.361	84.59
785.538	85.71
785.715	84.78
785.892	83.99
786.069	84.07
786.246	81.85
786.423	83.66
786.6	84.54
786.776	82.63
786.953	82.55
787.13	85.85
787.307	86.5
787.484	87.38
787.66	85.4
787.837	85.18
788.014	85.31
788.191	84.94
788.367	84.46
788.544	85.04
788.721	84.87
788.897	86.54
789.074	85.94
789.25	87.74
789.427	88.4
789.603	88.3
789.78	88.72
789.956	89.12
790.133	86.92
790.309	86.35
790.486	86.14
790.662	88.39
790.839	87.36
791.015	86.72
791.192	87.28
791.368	89.05
791.544	89.92
791.721	89.4
791.897	86.32
792.073	84.42
792.249	84.53
792.426	84.06
792.602	82.58
792.778	81.28
792.954	80.64
793.13	82.11
793.307	82.74
793.483	82.16
793.659	84.31
793.835	84.64
794.011	84.25
794.187	82.56
794.363	83.11
794.539	82.78
794.715	81.04
794.891	76.52
795.067	77.08
795.243	75.06
795.419	76.75
795.595	74.43
795.771	75.15
795.947	74.84
796.122	75.3
796.298	76.56
796.474	80.76
796.65	82.91
796.826	85.08
797.001	86.74
797.177	88.57
797.353	92.86
797.529	90.46
797.704	88.4
797.88	84.79
798.056	86.45
798.231	84.54
798.407	84.75
798.582	85.34
798.758	86.03
798.934	87.48
799.109	86.57
799.285	85.59
799.46	86.32
799.636	84.5
799.811	82.02
799.986	82.76
800.162	79.43
800.337	81.63
800.513	81.88
800.688	83.9
800.863	85.08
801.039	83.28
801.214	80.98
801.389	81.11
801.565	82.42
801.74	79.97
801.915	79.27
802.09	76.62
802.265	77.18
802.441	78.7
802.616	81.45
802.791	79.23
802.966	78.28
803.141	73.52
803.316	76.51
803.491	76.94
803.666	76.45
803.841	76.5
804.016	79.29
804.191	81.31
804.366	84.19
804.541	80.79
804.716	77.16
804.891	79.98
805.066	78.77
805.241	74.92
805.416	74.01
805.591	79.18
805.765	82.59
805.94	87.13
806.115	80.71
806.29	82.78
806.464	83.01
806.639	85.25
806.814	78.44
806.989	76.27
807.163	76.22
807.338	78.55
807.512	75.99
807.687	77.52
807.862	76.9
808.036	77.16
808.211	79.64
808.385	77.19
808.56	84.42
808.734	83.49
808.909	83.53
809.083	82.4
809.258	88.11
809.432	85.02
809.606	85.74
809.781	78.91
809.955	82.46
810.13	84.97
810.304	81.84
810.478	78.77
810.652	83.2
810.827	86.99
811.001	87.1
811.175	85.63
811.349	84.75
811.524	86.84
811.698	86.2
811.872	87.24
812.046	82.1
812.22	83.31
812.394	83.03
812.568	81.57
812.742	84.88
812.916	88.75
813.09	85.65
813.264	88.12
813.438	95.08
813.612	92.09
813.786	92.38
813.96	93.29
814.134	88.2
814.308	82.66
814.482	87.98
814.656	85.18
814.83	86.54
815.003	87.74
815.177	84.67
815.351	85.35
815.525	89.48
815.698	81.41
815.872	76.48
816.046	77.41
816.219	77.84
816.393	76.5
816.567	72.48
816.74	72.66
816.914	76.48
817.088	75.09
817.261	77.09
817.435	71.53
817.608	69.96
817.782	77.32
817.955	77.19
818.129	78.54
818.302	83.46
818.475	85.31
818.649	84.28
818.822	87.87
818.996	81.58
819.169	77.42
819.342	73.61
819.516	72.61
819.689	71.67
819.862	72.51
820.035	71.22
820.209	69.55
820.382	71.86
820.555	73.93
820.728	69.98
820.901	63.91
821.075	69.66
821.248	67.39
821.421	68.49
821.594	72.59
821.767	76.19
821.94	75.29
822.113	79.47
822.286	79.94
822.459	86.76
822.632	91.46
822.805	85.16
822.978	78.75
823.151	85.17
823.324	79.61
823.496	69.74
823.669	67.06
823.842	67.23
824.015	69.79
824.188	71.04
824.361	65.9
824.533	71.69
824.706	83.38
824.879	80.11
825.051	76.64
825.224	77.09
825.397	76.77
825.569	80.95
825.742	79.82
825.915	76.88
826.087	77.71
826.26	81.06
826.432	78.3
826.605	77.48
826.777	74.9
826.95	67.14
827.122	68.59
827.295	68.31
827.467	65.06
827.64	63.15
827.812	62.69
827.984	66.57
828.157	68.45
828.329	66.41
828.501	69.91
828.674	68.17
828.846	71.43
829.018	70.54
829.19	62.17
829.363	66.04
829.535	64.45
829.707	58.79
829.879	58.6
830.051	59.82
830.223	57.51
830.395	60.35
830.568	65.45
830.74	66.12
830.912	65.49
831.084	66.16
831.256	60.16
831.428	60.51
831.6	63.61
831.772	62.72
831.943	68.79
832.115	69.22
832.287	74.64
832.459	87.37
832.631	91.46
832.803	88.2
832.975	85.87
833.146	74
833.318	75.31
833.49	78.91
833.662	74.07
833.833	82.88
834.005	88.03
834.177	84.91
834.348	88.97
834.52	96.93
834.692	90.2
834.863	86.86
835.035	75.75
835.206	63.9
835.378	66.19
835.549	61.49
835.721	60.13
835.892	56.54
836.064	69.2
836.235	69.81
836.407	72.95
836.578	72.11
836.749	76.94
836.921	70.82
837.092	89.14
837.264	81.27
837.435	78.36
837.606	79.31
837.777	81.71
837.949	77.06
838.12	80.52
838.291	74.04
838.462	70.12
838.633	73.21
838.805	62.82
838.976	60.8
839.147	54.4
839.318	50.87
839.489	50.48
839.66	51.92
839.831	46.34
840.002	55.54
840.173	62.36
840.344	67.75
840.515	66.75
840.686	67.3
840.857	66.79
841.028	66.4
841.199	72.38
841.369	67.34
841.54	75.42
841.711	79.81
841.882	74.23
842.053	68.45
842.223	91.52
842.394	76.34
842.565	77.44
842.736	80.1
842.906	82.48
843.077	83.54
843.248	95.92
843.418	83.47
843.589	96.5
843.759	92.21
843.93	96.43
844.101	88.89
844.271	94.19
844.442	77.58
844.612	84.71
844.783	60.45
844.953	61.26
845.123	51.28
845.294	63.19
845.464	59.7
845.635	66.82
845.805	61.83
845.975	60.68
846.146	60.33
846.316	72.66
846.486	71.31
846.656	75.25
846.827	82.75
846.997	92.14
847.167	89.87
847.337	95.04
847.507	86.76
847.677	88.83
847.848	84.09
848.018	77.03
848.188	76.31
848.358	85.96
848.528	80.14
848.698	71.92
848.868	64.12
849.038	71.94
849.208	68.08
849.378	62.66
849.548	73.61
849.718	79.2
849.887	88.35
850.057	81.41
850.227	72.21
850.397	61.08
850.567	57.33
850.737	46.4
850.906	43.82
851.076	41.5
851.246	51.26
851.415	62.51
851.585	71.17
851.755	72.77
851.924	85.48
852.094	85.36
852.264	83.84
852.433	82.46
852.603	83.48
852.772	77.27
852.942	71.02
853.111	56.33
853.281	50.71
853.45	53.62
853.62	50.95
853.789	43.39
853.959	46.67
854.128	39.17
854.297	48.13
854.467	57.08
854.636	59.65
854.805	61.67
854.975	71.67
855.144	71.26
855.313	86.5
855.482	84.03
855.652	86.12
855.821	78.95
855.99	80.13
856.159	71.49
856.328	63.73
856.497	57.01
856.667	54.87
856.836	40.51
857.005	43.36
857.174	54.27
857.343	53.82
857.512	52.21
857.681	56.15
857.85	71.71
858.019	77.58
858.188	83.82
858.356	60.25
858.525	61.42
858.694	74.63
858.863	54.87
859.032	39.62
859.201	51.93
859.369	45.53
859.538	51.23
859.707	68.87
859.876	59.81
860.044	82.98
860.213	91.38
860.382	77.54
860.55	102.7
860.719	95.17
860.888	68.75
861.056	74.6
861.225	69.07
861.393	68.89
861.562	43.73
861.73	25.09
861.899	19.21
862.067	29.19
862.236	29.65
862.404	29.55
862.572	21.46
862.741	28.66
862.909	29.29
863.078	28.31
863.246	27.25
863.414	26.46
863.582	11.29
863.751	12.67
863.919	29.63
864.087	26.7
864.255	24.29
864.424	21.7
864.592	29.97
864.76	52.52
864.928	63.26
865.096	52
865.264	64.67
865.432	65.49
865.6	64.3
865.768	57.05
865.936	56.76
866.104	66.66
866.272	87.37
866.44	69.87
866.608	66.39
866.776	72.95
866.944	57.26
867.112	25.51
867.28	5.72
867.448	12.67
867.615	10.54
867.783	7.68
867.951	10.08
868.119	48.57
868.286	69.36
868.454	66.52
868.622	63.61
868.789	80.16
868.957	109.07
869.125	91.04
869.292	76.25
869.46	81.41
869.627	89.99
869.795	97.12
869.963	95.08
870.13	75.55
870.298	72.58
870.465	88.8
870.632	95.75
870.8	68.25
870.967	46.13
871.135	40.37
871.302	48.72
871.469	57.42
871.637	52.33
871.804	48.19
871.971	55.55
872.139	70.24
872.306	76.01
872.473	63.44
872.64	57.13
872.807	60.35
872.975	75.88
873.142	72.07
873.309	99.66
873.476	120.33
873.643	164.64
873.81	158.04
873.977	90.32
874.144	69.33
874.311	18.05
874.478	-10.35
874.645	-17.61
874.812	-10.71
874.979	-37.7
875.146	-52.43
875.313	-101.18
875.48	-28.36
875.647	-77.14
875.813	-72.5
875.98	-55.51
876.147	24.85
876.314	23.83
876.481	26.7
876.647	34.01
876.814	47.86
876.981	45.14
877.147	40.09
877.314	25.59
877.481	39.34
877.647	46.82
877.814	40.74
877.98	34.46
878.147	46.91
878.314	56.9
878.48	70.95
878.647	99.45
878.813	116.45
878.979	126.92
879.146	93.34
879.312	116.12
879.479	98.97
879.645	98.11
879.811	85.21
879.978	79.84
880.144	112.38
880.31	115.27
880.477	60.4
880.643	103.83
880.809	93.52
880.975	78.66
881.142	51.26
881.308	24.54
881.474	71.03
881.64	32.42
881.806	31.35
881.972	35.09
882.138	6.72
882.304	-32.22
882.47	-9.74
882.636	-24.71
882.802	16.66
882.968	-8.76
883.134	-77.53
883.3	16.41
883.466	54.16
883.632	30.48
883.798	44.39
883.964	50.34
884.129	58.92
884.295	61.03
884.461	62.09
884.627	104.71
884.793	88.03
884.958	58.32
885.124	33.9
885.29	35.51
885.455	10.47
885.621	17.79
885.787	0.38
885.952	-3.61
886.118	13.82
886.283	27.71
886.449	11.16
886.614	29.69
886.78	48.69
886.945	38.09
887.111	26.89
887.276	12.92
887.442	6.41
887.607	-7.08
887.773	-22.97
887.938	-49.26
888.103	-2.17
888.269	20.13
888.434	21.03
888.599	49.72
888.764	64.31
888.93	81.23
889.095	89.83
889.26	128.31
889.425	162.57
889.59	136.94
889.756	131.52
889.921	130.46
890.086	135.3
890.251	92.77
890.416	80.54
890.581	11.2
890.746	-12.97
890.911	-34.11
891.076	-96.37
891.241	-121.4
891.406	13.12
891.571	1.71
891.736	33.07
891.901	54.62
892.065	47.9
892.23	58.85
892.395	50.26
892.56	21.03
892.725	34.14
892.889	11.47
893.054	8.66
893.219	49.3
893.384	90.45
893.548	247.5
893.713	-582.92
893.878	-164.67
