Data from Ofra_PS_T2_1A_2HS27_Reflection_3.txt Node
Date: Wed Jul 21 18:03:12 EDT 2021
User: Adam
Spectrometer: FLMT01687
Trigger mode: 0
Integration Time (sec): 1.100000E0
Scans to average: 2
Electric dark correction enabled: true
Nonlinearity correction enabled: false
Boxcar width: 2
XAxis mode: Wavelengths
Number of Pixels in Spectrum: 3648
>>>>>Begin Spectral Data<<<<<
179.494	560.6
179.716	608.71
179.937	596.93
180.158	575.19
180.38	815.47
180.601	384.39
180.823	160.29
181.044	-25.71
181.265	114.52
181.486	104.49
181.708	87.24
181.929	446.43
182.15	-489.79
182.372	90.29
182.593	47.13
182.814	55.81
183.035	116.91
183.257	104.1
183.478	45.37
183.699	107.48
183.92	60.56
184.141	65.62
184.363	22.9
184.584	62.95
184.805	24.97
185.026	48.29
185.247	32.58
185.468	22.14
185.689	16.32
185.91	29.33
186.132	31.18
186.353	26.16
186.574	80.05
186.795	50.71
187.016	2.95
187.237	-5.02
187.458	-45.96
187.679	-71.33
187.9	-39.63
188.121	-18.61
188.342	-21.86
188.563	26.64
188.784	82.98
189.005	77.08
189.226	78.96
189.447	66.17
189.667	-100.36
189.888	-415.15
190.109	-1729.55
190.33	-868.87
190.551	-1324.56
190.772	-230.93
190.993	-173.93
191.214	-98.85
191.434	-42.04
191.655	23.59
191.876	-12.74
192.097	-68.14
192.318	-103.23
192.538	-178.52
192.759	-158.39
192.98	-73.42
193.201	-23.79
193.421	-14.45
193.642	15.55
193.863	5.13
194.083	-12.27
194.304	-22.52
194.525	-14.83
194.745	-55.88
194.966	-68.21
195.187	-63.32
195.407	-96.83
195.628	-198.04
195.848	-188.64
196.069	-158.06
196.29	-103.32
196.51	-104.76
196.731	-41.46
196.951	-46.38
197.172	-84.69
197.392	-152.71
197.613	-150.35
197.833	-189.94
198.054	-150.87
198.274	-91.68
198.495	-91.52
198.715	-58.38
198.936	-88.49
199.156	-72.58
199.377	-167.6
199.597	-139.79
199.817	-115.28
200.038	-52.73
200.258	-107.25
200.479	-14.04
200.699	-14.27
200.919	-15.82
201.14	-32.19
201.36	-61.42
201.58	-9.95
201.801	19.52
202.021	-1.88
202.241	-10.21
202.461	5.41
202.682	-104.35
202.902	-175.9
203.122	-109.18
203.342	-85.35
203.563	-38.4
203.783	5.98
204.003	-29.61
204.223	-38.35
204.443	27.82
204.663	-21.17
204.884	-13.84
205.104	43.16
205.324	82.13
205.544	59.27
205.764	79.01
205.984	88.9
206.204	81.61
206.424	50.95
206.644	36.15
206.864	40.43
207.084	-1.74
207.304	-33.01
207.525	-66.48
207.745	-50.05
207.964	15.98
208.184	-20.87
208.404	-64.76
208.624	-74.2
208.844	-65.97
209.064	-416.76
209.284	-452.27
209.504	-234.1
209.724	-80.9
209.944	-48.94
210.164	16.33
210.384	29.59
210.604	29.35
210.823	-15.14
211.043	-37.48
211.263	-39.62
211.483	-46.88
211.703	-95.44
211.922	-68.45
212.142	-13.48
212.362	-17.16
212.582	-26.33
212.801	-13.45
213.021	-43.39
213.241	-58.7
213.461	-80.15
213.68	-100.64
213.9	-79.28
214.12	-29.05
214.339	-83.29
214.559	-67.91
214.779	-0.65
214.998	-9.18
215.218	-57
215.438	-41.87
215.657	-59.03
215.877	-71.83
216.096	-26.87
216.316	-19.87
216.535	-13.81
216.755	-4.3
216.974	-87.92
217.194	-145.39
217.413	-144.56
217.633	-150.17
217.852	-263.1
218.072	-96.8
218.291	-33.87
218.511	15.56
218.73	-7.42
218.95	-6.67
219.169	-22.65
219.389	-77.43
219.608	-59.63
219.827	-45.66
220.047	-35.82
220.266	-14.17
220.485	-12.81
220.705	-10.49
220.924	-35.6
221.143	8.09
221.363	-24.21
221.582	-7.13
221.801	-14.4
222.021	9.21
222.24	-88.79
222.459	-5.12
222.678	-19.46
222.897	-71.16
223.117	-76.11
223.336	-59.3
223.555	-50.57
223.774	-16.36
223.993	-15.07
224.213	20.97
224.432	25.51
224.651	41.66
224.87	7.06
225.089	28.04
225.308	24.55
225.527	31.08
225.746	18.11
225.965	18.55
226.184	-5.87
226.404	0.52
226.623	-24.47
226.842	-13.85
227.061	13.58
227.28	20.89
227.499	-1.89
227.718	22
227.936	13.82
228.155	9.68
228.374	5.7
228.593	25.75
228.812	20.08
229.031	7.54
229.25	-35.9
229.469	-43.68
229.688	-57.09
229.907	-31.97
230.125	-13.82
230.344	0.63
230.563	7.77
230.782	18.52
231.001	-51.72
231.22	-43.84
231.438	-9.99
231.657	-11.46
231.876	-14.38
232.095	28.24
232.313	32.55
232.532	9.28
232.751	10.87
232.969	-2.36
233.188	-50.04
233.407	5.96
233.625	9.3
233.844	-17.67
234.063	-0.93
234.281	25.59
234.5	2.24
234.719	-10.2
234.937	11.59
235.156	5.83
235.374	-1.92
235.593	-8.19
235.811	0.98
236.03	-11.77
236.249	-54.55
236.467	-62.06
236.686	-34.29
236.904	-20.59
237.123	-47.48
237.341	-34.12
237.559	-21.49
237.778	-27.01
237.996	-69.52
238.215	-4.76
238.433	9.11
238.652	-0.82
238.87	-28.46
239.088	10.35
239.307	-2.03
239.525	-29.33
239.743	-44.05
239.962	-33.6
240.18	-74.01
240.398	-125.89
240.617	-102.39
240.835	-94.82
241.053	-44.02
241.271	4.55
241.49	23.08
241.708	12.77
241.926	-15.76
242.144	-34.35
242.363	-90.32
242.581	-124.94
242.799	-97.9
243.017	-32.27
243.235	-56.04
243.453	-37.08
243.672	-30.58
243.89	-18.59
244.108	-34.89
244.326	-6.44
244.544	-8.46
244.762	-9.81
244.98	-4.69
245.198	-9.53
245.416	-47.66
245.634	-32.09
245.852	-39.58
246.07	-68.79
246.288	-46.51
246.506	-55.66
246.724	-57.04
246.942	-41.39
247.16	2.89
247.378	4.91
247.596	23.99
247.814	17.87
248.032	-13.64
248.25	-5.39
248.468	0.01
248.685	6.49
248.903	24.13
249.121	36.71
249.339	-4.84
249.557	-28.89
249.775	-26.29
249.992	-96.81
250.21	-92.22
250.428	-62.1
250.646	-83.41
250.863	-95.19
251.081	-44.16
251.299	-27.68
251.517	-34.56
251.734	-24.71
251.952	-21.75
252.17	-13.66
252.387	-10.02
252.605	-20.11
252.823	-13.68
253.04	2.41
253.258	6.64
253.475	9.58
253.693	48.43
253.911	54.04
254.128	46
254.346	49.37
254.563	15.99
254.781	-2.28
254.998	-17.84
255.216	-23.3
255.433	-18.24
255.651	24.63
255.868	51.36
256.086	69.89
256.303	73.64
256.521	50.59
256.738	23.76
256.956	-9.05
257.173	-37.43
257.39	-68.13
257.608	-84.55
257.825	-45.02
258.043	-20.62
258.26	-1.22
258.477	46.66
258.695	47.03
258.912	23.08
259.129	20.82
259.346	-21.82
259.564	-61.98
259.781	-84.78
259.998	-12.57
260.216	17.69
260.433	51.55
260.65	51.48
260.867	73.22
261.084	24.03
261.302	-16.55
261.519	-34.66
261.736	-61.76
261.953	-86.13
262.17	-32.91
262.387	-65.1
262.604	-64.89
262.822	-65.3
263.039	-52.6
263.256	-97.25
263.473	-37.44
263.69	-34.03
263.907	23.33
264.124	27.38
264.341	17.28
264.558	5.34
264.775	23.59
264.992	-0.8
265.209	2.89
265.426	26.88
265.643	30.22
265.86	23.08
266.077	2.81
266.294	-32.78
266.51	-82.08
266.727	-78.79
266.944	-74.8
267.161	-52.5
267.378	-19.21
267.595	31.3
267.812	4.86
268.028	-12.15
268.245	2.61
268.462	-26.28
268.679	-71.19
268.896	-16.4
269.112	-1.11
269.329	-7.87
269.546	-2
269.763	-0.61
269.979	-12.23
270.196	-17.71
270.413	-42.14
270.629	-63.32
270.846	-56.58
271.063	-47.76
271.279	-56.78
271.496	-54.08
271.712	-18.36
271.929	2.47
272.146	-11.16
272.362	1.39
272.579	34.46
272.795	40
273.012	29.69
273.228	26.28
273.445	-2.57
273.661	-33.73
273.878	-76.84
274.094	-64.9
274.311	-104.1
274.527	-35.85
274.744	-27.57
274.96	-25.05
275.177	-15.34
275.393	12.58
275.609	7.28
275.826	26.06
276.042	30
276.259	42.79
276.475	53.72
276.691	55.62
276.908	31.59
277.124	33.82
277.34	8.64
277.557	-23.62
277.773	-39.03
277.989	-42
278.205	-38.33
278.422	-20.59
278.638	1.61
278.854	28.28
279.07	18.74
279.286	8.73
279.503	-11.05
279.719	-28.18
279.935	-50.13
280.151	-48.43
280.367	-38.08
280.583	-53.83
280.799	-56.05
281.016	-83.55
281.232	-37.19
281.448	-24.82
281.664	8.09
281.88	-18.24
282.096	7.59
282.312	30.97
282.528	26.64
282.744	24.01
282.96	35.38
283.176	22.14
283.392	4.27
283.608	10.63
283.824	-6.49
284.04	-0.43
284.256	-5.71
284.471	-11.1
284.687	-20.43
284.903	13.66
285.119	39.65
285.335	22.35
285.551	24.12
285.767	-4.73
285.982	-24.29
286.198	-79.36
286.414	-16.56
286.63	-10.14
286.846	16.42
287.061	0.45
287.277	31.04
287.493	2.76
287.709	20.39
287.924	10.87
288.14	41.77
288.356	36.37
288.571	58.88
288.787	43
289.003	45.69
289.218	26.5
289.434	-0.92
289.65	-3.97
289.865	-13.64
290.081	-0.44
290.296	3.02
290.512	2.66
290.727	-30.02
290.943	-32.82
291.159	-47.84
291.374	-41.82
291.59	-47.63
291.805	-31.27
292.021	-21.76
292.236	-25.6
292.451	-12.75
292.667	1.71
292.882	6.23
293.098	4.33
293.313	1.88
293.529	-38.47
293.744	-57.3
293.959	-63.04
294.175	-65.3
294.39	-22.76
294.605	5.11
294.821	21.99
295.036	32.11
295.251	38.3
295.467	6.08
295.682	-20.22
295.897	-66.1
296.112	-83.08
296.328	-56.36
296.543	-84.57
296.758	-78.5
296.973	-38.68
297.188	12.12
297.404	-25.5
297.619	-14.31
297.834	-14.8
298.049	-26.1
298.264	-59.43
298.479	0.01
298.694	10.11
298.909	17.99
299.125	16.1
299.34	15.31
299.555	-19.61
299.77	-36.76
299.985	-70.79
300.2	-116.07
300.415	-114.76
300.63	-86.62
300.845	-75.27
301.06	-66.37
301.275	-28.37
301.49	-15.96
301.704	-21.72
301.919	-41.69
302.134	-48.51
302.349	-55.69
302.564	-118.28
302.779	-114.76
302.994	-100.12
303.209	-76.45
303.423	-70.05
303.638	1.3
303.853	-44.71
304.068	-34.45
304.283	-27.27
304.497	-19.21
304.712	-48.15
304.927	-25.91
305.142	-31.09
305.356	-12.69
305.571	-8.57
305.786	-15.11
306	-20.73
306.215	-7.75
306.43	-40.29
306.644	-35.51
306.859	39.64
307.074	37.83
307.288	3.55
307.503	-23.21
307.717	-29.98
307.932	-52.14
308.147	-51.33
308.361	-24.19
308.576	-27.06
308.79	-61.69
309.005	-40.53
309.219	-42.42
309.434	-48.22
309.648	-23.9
309.863	-2.03
310.077	-7.91
310.292	-1.43
310.506	-2.75
310.72	3.24
310.935	12.38
311.149	11.08
311.364	21.03
311.578	30.32
311.792	24.67
312.007	22.88
312.221	-4.82
312.435	3.89
312.649	-13.72
312.864	11.57
313.078	16.06
313.292	128.99
313.507	90.8
313.721	132.33
313.935	44.82
314.149	36.82
314.363	5.19
314.578	11.77
314.792	15.44
315.006	8.51
315.22	26.05
315.434	24.46
315.648	25.28
315.862	23.36
316.077	21.8
316.291	4.71
316.505	22.07
316.719	20.83
316.933	-14.12
317.147	-14.39
317.361	-61.55
317.575	-92.15
317.789	-123.9
318.003	-166.97
318.217	-141.85
318.431	-71.83
318.645	-25.58
318.859	-8.49
319.073	19.87
319.287	21.49
319.5	-3.54
319.714	-28.96
319.928	-67
320.142	-105.95
320.356	-75.24
320.57	-22.86
320.784	-41.01
320.997	-68.08
321.211	-41.05
321.425	-92.49
321.639	-131.06
321.853	-71.64
322.066	-23.08
322.28	-37.88
322.494	-19.53
322.707	7.26
322.921	1.41
323.135	-9.11
323.349	7.58
323.562	-13.73
323.776	-33.66
323.989	-38.79
324.203	-56.65
324.417	-55.8
324.63	-62.87
324.844	-67.83
325.057	-66.97
325.271	-26.55
325.485	-6.72
325.698	12.54
325.912	38.21
326.125	15.15
326.339	-1.5
326.552	-27.18
326.766	-15.81
326.979	11.44
327.193	42.28
327.406	32.21
327.619	30.01
327.833	26.88
328.046	-8.94
328.26	-41.94
328.473	-14.03
328.686	-44.41
328.9	-26.74
329.113	-15.39
329.326	-31.02
329.54	-19.22
329.753	-31.15
329.966	-76.86
330.179	-60.63
330.393	-27.68
330.606	-30.8
330.819	-1.57
331.032	16.24
331.246	15.06
331.459	39.59
331.672	30.62
331.885	17.46
332.098	0.92
332.311	5.34
332.525	-64.56
332.738	-58.2
332.951	-12.63
333.164	5.63
333.377	8.43
333.59	38.44
333.803	42.49
334.016	29.54
334.229	38.31
334.442	36.54
334.655	50.27
334.868	55.91
335.081	54.99
335.294	27.25
335.507	17.8
335.72	-1.95
335.933	-5.62
336.146	-16.15
336.359	-3.79
336.572	-29.47
336.785	-46.88
336.997	-47.25
337.21	-24.68
337.423	-34.85
337.636	-21.61
337.849	-6.17
338.062	-5.84
338.274	3.52
338.487	-6.56
338.7	-20.12
338.913	-48.79
339.125	-78.27
339.338	-137.5
339.551	-103.18
339.763	-59.6
339.976	-42.23
340.189	-15.16
340.402	-0.17
340.614	-4.82
340.827	-5.9
341.039	-11.1
341.252	-14.04
341.465	-10.65
341.677	-9.47
341.89	-48.02
342.102	-17.88
342.315	-28.97
342.527	-53.09
342.74	-46.14
342.952	2.46
343.165	10.32
343.377	40.03
343.59	42.38
343.802	44.06
344.015	43.51
344.227	38.82
344.44	15.72
344.652	5.89
344.864	-8.87
345.077	7.7
345.289	16.55
345.502	19.62
345.714	6.21
345.926	22.95
346.139	8.68
346.351	2.09
346.563	7.47
346.775	37.46
346.988	23.95
347.2	6.81
347.412	-31.35
347.624	-55.64
347.837	-96.22
348.049	-79.62
348.261	-29.1
348.473	-29.98
348.685	-22.73
348.897	-39.45
349.11	-53.1
349.322	-90.14
349.534	-48.41
349.746	-49.69
349.958	-22
350.17	-15.75
350.382	-1.37
350.594	4.18
350.806	12.5
351.018	10.79
351.23	-2.4
351.442	-32.29
351.654	-54.6
351.866	-56.84
352.078	-37.39
352.29	-9.95
352.502	3.19
352.714	14.61
352.926	12.94
353.138	8.34
353.35	-0.96
353.561	5.17
353.773	-15.63
353.985	-5.42
354.197	-14.14
354.409	-17.62
354.621	-34.15
354.832	-12.68
355.044	-20.87
355.256	-20.14
355.468	-11.41
355.679	-6.82
355.891	-16.06
356.103	-29.14
356.314	-15.88
356.526	-28.26
356.738	-14.61
356.949	-16.31
357.161	-15.45
357.373	-13.2
357.584	-20.03
357.796	-15.05
358.008	-15.8
358.219	-0.66
358.431	0.55
358.642	19.31
358.854	3.68
359.065	-9.33
359.277	-21.12
359.488	-35.52
359.7	-68.54
359.911	-57.65
360.123	-31.26
360.334	-45.27
360.546	-70.88
360.757	-64.87
360.969	-54.92
361.18	-63.72
361.391	-38.35
361.603	-26.21
361.814	-5.13
362.025	-17.15
362.237	-25.04
362.448	-17.6
362.659	-2
362.871	1.11
363.082	6.28
363.293	17.39
363.504	0.01
363.716	-20.79
363.927	-37.6
364.138	-68.81
364.349	-92.14
364.56	-78.6
364.772	-64.46
364.983	-32.66
365.194	-24.78
365.405	-9.08
365.616	16.09
365.827	16.94
366.038	-14.24
366.25	-27.16
366.461	-54.92
366.672	-50.53
366.883	-30.24
367.094	-16.84
367.305	-16.8
367.516	-9.72
367.727	-31.74
367.938	-41.13
368.149	-40.51
368.36	-17.17
368.571	-8.82
368.781	-16.73
368.992	-35.53
369.203	-49.56
369.414	-76.39
369.625	-75.48
369.836	-62.89
370.047	-70.68
370.258	-57.63
370.468	-45.1
370.679	-74.73
370.89	-76.45
371.101	-48.71
371.312	-50.65
371.522	-47.6
371.733	-31.24
371.944	-16.33
372.155	-18.26
372.365	-30.4
372.576	-41.27
372.787	-42.38
372.997	-66.48
373.208	-61.9
373.419	-22.25
373.629	-44.25
373.84	-41.52
374.05	-51.71
374.261	-45.28
374.472	-59.29
374.682	-1.47
374.893	-7.53
375.103	28.87
375.314	23.14
375.524	18.19
375.735	20.27
375.945	19.81
376.156	-8.45
376.366	-4.34
376.577	-6.27
376.787	-21.83
376.997	-6.78
377.208	-6.57
377.418	-10.56
377.629	-2.36
377.839	-7.21
378.049	-8.11
378.26	3.9
378.47	9.25
378.68	0.54
378.89	-4.31
379.101	-4.07
379.311	-25.79
379.521	-62.05
379.732	-55.85
379.942	-50.08
380.152	-71.99
380.362	-35.54
380.572	-27.89
380.783	-7.53
380.993	2.89
381.203	13.07
381.413	19.29
381.623	38.1
381.833	23.82
382.043	16.4
382.253	12.63
382.463	4.63
382.674	-15.26
382.884	-39.4
383.094	-38.9
383.304	-33.84
383.514	-29.94
383.724	-9.42
383.934	-3.27
384.144	-8.15
384.353	-14.65
384.563	-19.44
384.773	-22.75
384.983	-28.37
385.193	-10.13
385.403	-4.91
385.613	-1.06
385.823	-12.88
386.033	-4.34
386.242	-12.67
386.452	-12.79
386.662	-22.98
386.872	-4.84
387.082	-12.29
387.291	-21.4
387.501	-27.38
387.711	-16.15
387.921	-22.2
388.13	-18.24
388.34	-0.86
388.55	0.46
388.759	-0.66
388.969	1.62
389.179	-0.44
389.388	-7.99
389.598	-3.06
389.807	-9.97
390.017	-13.93
390.227	-10.15
390.436	-11.4
390.646	-13.16
390.855	-5.31
391.065	-4.55
391.274	-9
391.484	-8.15
391.693	-5.95
391.903	-7.4
392.112	-0.34
392.322	4.24
392.531	6.64
392.74	6.11
392.95	2.7
393.159	-1.38
393.369	-2.25
393.578	-3.58
393.787	-3.98
393.997	-2.43
394.206	-4.37
394.415	-4.96
394.625	-4.96
394.834	-6.52
395.043	-4.81
395.252	-1.81
395.462	0.41
395.671	1.75
395.88	3.12
396.089	3.35
396.298	1.15
396.508	0.7
396.717	0.03
396.926	0.55
397.135	0.32
397.344	0.58
397.553	1.43
397.762	2.75
397.971	2.08
398.181	1.68
398.39	2.01
398.599	0.94
398.808	0.11
399.017	0.7
399.226	1.98
399.435	2.94
399.644	3.34
399.853	2.72
400.062	2.59
400.27	1.63
400.479	0.9
400.688	0.09
400.897	0.55
401.106	0.57
401.315	1.06
401.524	1.01
401.733	1.81
401.941	2.01
402.15	2.01
402.359	1.55
402.568	1.83
402.777	1.8
402.985	1.56
403.194	1.49
403.403	1.68
403.612	1.31
403.82	0.91
404.029	1.24
404.238	1.12
404.446	1.29
404.655	1.25
404.864	1.48
405.072	1.19
405.281	1.39
405.489	1.13
405.698	1.2
405.906	1.01
406.115	1.31
406.324	1.29
406.532	1.43
406.741	1.69
406.949	1.83
407.158	1.55
407.366	1.6
407.574	1.51
407.783	1.53
407.991	1.4
408.2	1.61
408.408	1.53
408.617	1.45
408.825	1.22
409.033	1.34
409.242	1.38
409.45	1.42
409.658	1.41
409.867	1.62
410.075	1.43
410.283	1.23
410.491	1.1
410.7	1.14
410.908	1.04
411.116	1.39
411.324	1.44
411.533	1.54
411.741	1.69
411.949	1.78
412.157	1.51
412.365	1.59
412.573	1.59
412.781	1.62
412.99	1.44
413.198	1.64
413.406	1.52
413.614	1.55
413.822	1.38
414.03	1.36
414.238	1.19
414.446	1.32
414.654	1.12
414.862	1.21
415.07	1.45
415.278	1.66
415.486	1.36
415.694	1.45
415.902	1.39
416.109	1.1
416.317	0.87
416.525	0.84
416.733	0.81
416.941	0.99
417.149	0.96
417.357	1.11
417.564	1.41
417.772	1.72
417.98	1.5
418.188	1.6
418.395	1.56
418.603	1.75
418.811	1.34
419.019	1.3
419.226	1.48
419.434	1.6
419.642	1.22
419.849	1.41
420.057	1.49
420.265	1.42
420.472	1.12
420.68	1.15
420.887	1.08
421.095	1.2
421.302	1.15
421.51	1.46
421.717	1.67
421.925	1.81
422.132	1.58
422.34	1.43
422.547	1.39
422.755	1.22
422.962	1.06
423.17	1.12
423.377	1.3
423.585	1.24
423.792	1.22
423.999	1.27
424.207	1.19
424.414	1.22
424.621	1.15
424.829	1.15
425.036	1.13
425.243	1.22
425.451	0.98
425.658	0.85
425.865	0.98
426.072	1.05
426.28	1.27
426.487	1.3
426.694	1.48
426.901	1.25
427.108	1.16
427.315	0.97
427.523	1.21
427.73	1.09
427.937	1.19
428.144	1
428.351	0.97
428.558	1.09
428.765	1.18
428.972	1.29
429.179	1.54
429.386	1.87
429.593	1.49
429.8	1.39
430.007	1.33
430.214	1.43
430.421	1.19
430.628	1.11
430.835	1.03
431.042	1.19
431.249	1.21
431.456	1.22
431.662	1.42
431.869	1.54
432.076	1.45
432.283	1.39
432.49	1.44
432.697	1.48
432.903	1.25
433.11	1.27
433.317	1.29
433.524	1.33
433.73	1.2
433.937	1.57
434.144	1.47
434.35	1.54
434.557	1.4
434.764	1.36
434.97	1.21
435.177	1.35
435.384	1.2
435.59	1.37
435.797	1.65
436.003	1.72
436.21	1.66
436.416	1.79
436.623	1.65
436.829	1.66
437.036	1.76
437.242	1.81
437.449	1.71
437.655	1.71
437.862	1.66
438.068	1.58
438.275	1.63
438.481	1.77
438.687	1.83
438.894	1.74
439.1	1.77
439.307	1.87
439.513	1.86
439.719	1.87
439.926	2
440.132	1.97
440.338	1.83
440.544	1.9
440.751	1.85
440.957	1.9
441.163	1.84
441.369	1.86
441.575	1.63
441.782	1.68
441.988	1.53
442.194	1.57
442.4	1.62
442.606	1.93
442.812	2.06
443.018	2.18
443.224	2.23
443.431	2.27
443.637	2.02
443.843	1.83
444.049	1.87
444.255	1.76
444.461	1.77
444.667	1.72
444.873	1.98
445.079	1.96
445.284	2.14
445.49	1.95
445.696	1.89
445.902	1.67
446.108	1.59
446.314	1.49
446.52	1.55
446.726	1.91
446.931	1.98
447.137	2.06
447.343	2.07
447.549	2.04
447.755	1.83
447.96	1.89
448.166	1.82
448.372	1.85
448.578	1.99
448.783	1.96
448.989	1.99
449.195	2.24
449.4	2.19
449.606	2.1
449.812	2.09
450.017	2.11
450.223	1.83
450.428	1.81
450.634	1.94
450.84	2.05
451.045	1.95
451.251	1.94
451.456	2.2
451.662	2.25
451.867	2.29
452.073	2.27
452.278	2.44
452.483	2.41
452.689	2.24
452.894	2.2
453.1	2.25
453.305	2.19
453.51	2.15
453.716	2.22
453.921	2.24
454.127	2.24
454.332	2.22
454.537	2.08
454.742	2.07
454.948	2.05
455.153	2.07
455.358	2.13
455.563	2.34
455.769	2.42
455.974	2.34
456.179	2.28
456.384	2.2
456.589	2.14
456.795	1.94
457	1.92
457.205	2.1
457.41	2.11
457.615	2.08
457.82	2.24
458.025	2.3
458.23	2.17
458.435	2.21
458.64	2.15
458.845	2.24
459.05	2.28
459.255	2.26
459.46	2.27
459.665	2.34
459.87	2.35
460.075	2.29
460.28	2.34
460.485	2.34
460.69	2.29
460.895	2.07
461.099	2.05
461.304	2.13
461.509	2.2
461.714	2.15
461.919	2.34
462.123	2.37
462.328	2.41
462.533	2.34
462.738	2.47
462.942	2.39
463.147	2.43
463.352	2.41
463.556	2.46
463.761	2.49
463.966	2.51
464.17	2.54
464.375	2.41
464.58	2.34
464.784	2.24
464.989	2.21
465.193	2.24
465.398	2.3
465.602	2.4
465.807	2.4
466.011	2.5
466.216	2.48
466.42	2.56
466.625	2.58
466.829	2.69
467.034	2.7
467.238	2.91
467.443	2.87
467.647	2.82
467.851	2.87
468.056	2.95
468.26	2.84
468.464	2.83
468.669	2.97
468.873	3.09
469.077	3.07
469.282	3.11
469.486	3.19
469.69	3.14
469.894	2.94
470.099	2.94
470.303	3.02
470.507	2.9
470.711	2.82
470.915	2.85
471.119	2.81
471.324	2.73
471.528	2.84
471.732	2.85
471.936	2.91
472.14	2.95
472.344	3
472.548	3.03
472.752	3.29
472.956	3.53
473.16	3.51
473.364	3.42
473.568	3.39
473.772	3.29
473.976	3.1
474.18	3.14
474.384	3.27
474.588	3.27
474.792	3.18
474.995	3.26
475.199	3.32
475.403	3.36
475.607	3.39
475.811	3.36
476.015	3.36
476.218	3.39
476.422	3.27
476.626	3.35
476.83	3.47
477.033	3.44
477.237	3.33
477.441	3.42
477.644	3.35
477.848	3.43
478.052	3.38
478.255	3.44
478.459	3.41
478.663	3.57
478.866	3.53
479.07	3.62
479.273	3.74
479.477	3.8
479.681	3.69
479.884	3.64
480.088	3.63
480.291	3.57
480.495	3.54
480.698	3.63
480.901	3.7
481.105	3.81
481.308	3.84
481.512	3.86
481.715	3.9
481.919	3.96
482.122	3.89
482.325	3.85
482.529	3.9
482.732	3.9
482.935	3.79
483.138	3.76
483.342	3.86
483.545	3.92
483.748	3.95
483.952	4.04
484.155	4.21
484.358	4.21
484.561	4.15
484.764	4.08
484.967	4.1
485.171	4.12
485.374	4.05
485.577	4.14
485.78	4.2
485.983	4.2
486.186	4.08
486.389	4.1
486.592	4.09
486.795	4.15
486.998	4.08
487.201	4.19
487.404	4.23
487.607	4.23
487.81	4.12
488.013	4.24
488.216	4.21
488.419	4.19
488.622	4.17
488.825	4.21
489.028	4.13
489.231	4.05
489.433	4.02
489.636	3.95
489.839	3.98
490.042	3.96
490.245	3.95
490.447	3.99
490.65	4.04
490.853	4
491.056	4.07
491.258	4.14
491.461	4.16
491.664	4.21
491.866	4.15
492.069	4.25
492.272	4.2
492.474	4.28
492.677	4.31
492.879	4.46
493.082	4.48
493.285	4.63
493.487	4.58
493.69	4.53
493.892	4.41
494.095	4.31
494.297	4.26
494.5	4.27
494.702	4.31
494.905	4.38
495.107	4.43
495.309	4.42
495.512	4.5
495.714	4.57
495.917	4.6
496.119	4.57
496.321	4.63
496.524	4.63
496.726	4.6
496.928	4.59
497.13	4.61
497.333	4.62
497.535	4.62
497.737	4.66
497.939	4.67
498.142	4.7
498.344	4.65
498.546	4.55
498.748	4.6
498.95	4.7
499.152	4.72
499.355	4.76
499.557	4.88
499.759	4.93
499.961	4.85
500.163	4.93
500.365	4.97
500.567	5.05
500.769	4.97
500.971	5.02
501.173	4.88
501.375	4.91
501.577	4.77
501.779	4.75
501.981	4.76
502.183	4.84
502.385	4.79
502.587	4.84
502.788	4.93
502.99	5.01
503.192	5.04
503.394	5.07
503.596	5.07
503.798	5.05
503.999	5.08
504.201	5.11
504.403	5.11
504.605	5.15
504.806	5.19
505.008	5.15
505.21	5.23
505.411	5.31
505.613	5.37
505.815	5.39
506.016	5.43
506.218	5.51
506.42	5.47
506.621	5.45
506.823	5.48
507.024	5.4
507.226	5.32
507.427	5.35
507.629	5.37
507.83	5.42
508.032	5.48
508.233	5.56
508.435	5.55
508.636	5.65
508.838	5.55
509.039	5.55
509.24	5.49
509.442	5.56
509.643	5.45
509.845	5.57
510.046	5.66
510.247	5.7
510.448	5.72
510.65	5.85
510.851	5.98
511.052	5.94
511.254	5.96
511.455	6.03
511.656	6.08
511.857	6.05
512.058	6.15
512.26	6.11
512.461	6.04
512.662	6.04
512.863	5.89
513.064	5.81
513.265	5.87
513.466	5.97
513.667	5.9
513.868	6
514.069	6.06
514.27	6.1
514.471	6.04
514.672	6.1
514.873	6.07
515.074	6.08
515.275	6.01
515.476	6.05
515.677	6.04
515.878	6.19
516.079	6.18
516.28	6.25
516.481	6.32
516.682	6.36
516.882	6.27
517.083	6.24
517.284	6.18
517.485	6.2
517.686	6.18
517.886	6.19
518.087	6.32
518.288	6.38
518.488	6.32
518.689	6.34
518.89	6.33
519.091	6.34
519.291	6.31
519.492	6.36
519.692	6.43
519.893	6.52
520.094	6.48
520.294	6.54
520.495	6.53
520.695	6.54
520.896	6.5
521.096	6.57
521.297	6.56
521.497	6.64
521.698	6.56
521.898	6.54
522.099	6.52
522.299	6.64
522.499	6.57
522.7	6.66
522.9	6.69
523.101	6.78
523.301	6.73
523.501	6.74
523.702	6.73
523.902	6.82
524.102	6.83
524.302	6.79
524.503	6.9
524.703	6.89
524.903	6.89
525.103	6.81
525.304	6.9
525.504	6.92
525.704	6.98
525.904	6.95
526.104	6.97
526.304	6.96
526.504	6.97
526.705	6.97
526.905	7.07
527.105	7.07
527.305	7.03
527.505	6.97
527.705	6.96
527.905	6.95
528.105	6.99
528.305	7.02
528.505	7.1
528.705	7.19
528.905	7.17
529.105	7.22
529.304	7.27
529.504	7.28
529.704	7.2
529.904	7.23
530.104	7.21
530.304	7.29
530.503	7.24
530.703	7.21
530.903	7.21
531.103	7.25
531.303	7.13
531.502	7.17
531.702	7.31
531.902	7.35
532.101	7.3
532.301	7.39
532.501	7.47
532.7	7.42
532.9	7.43
533.1	7.52
533.299	7.5
533.499	7.49
533.698	7.48
533.898	7.47
534.097	7.4
534.297	7.51
534.496	7.49
534.696	7.51
534.895	7.63
535.095	7.75
535.294	7.64
535.494	7.66
535.693	7.72
535.892	7.71
536.092	7.63
536.291	7.66
536.491	7.74
536.69	7.77
536.889	7.71
537.088	7.74
537.288	7.81
537.487	7.86
537.686	7.85
537.886	7.88
538.085	7.95
538.284	8.02
538.483	7.98
538.682	8.06
538.882	8.11
539.081	8.16
539.28	8.04
539.479	8.03
539.678	8
539.877	8.1
540.076	8.12
540.275	8.2
540.474	8.27
540.673	8.28
540.872	8.2
541.071	8.24
541.27	8.25
541.469	8.3
541.668	8.36
541.867	8.47
542.066	8.5
542.265	8.61
542.464	8.61
542.663	8.64
542.862	8.74
543.06	8.82
543.259	8.8
543.458	8.87
543.657	8.91
543.856	8.9
544.054	8.85
544.253	8.86
544.452	8.88
544.651	9
544.849	8.98
545.048	9.08
545.247	9.16
545.445	9.23
545.644	9.25
545.843	9.34
546.041	9.39
546.24	9.46
546.438	9.57
546.637	9.6
546.836	9.71
547.034	9.75
547.233	9.78
547.431	9.74
547.63	9.79
547.828	9.79
548.027	9.83
548.225	9.85
548.423	9.87
548.622	9.93
548.82	9.92
549.019	9.95
549.217	10.05
549.415	10.15
549.614	10.24
549.812	10.31
550.01	10.3
550.209	10.36
550.407	10.45
550.605	10.46
550.803	10.63
551.002	10.81
551.2	10.83
551.398	10.92
551.596	11.05
551.794	11.01
551.993	11.08
552.191	11.19
552.389	11.28
552.587	11.3
552.785	11.41
552.983	11.52
553.181	11.65
553.379	11.68
553.577	11.79
553.775	11.9
553.973	11.99
554.171	12.02
554.369	12.06
554.567	12.09
554.765	12.14
554.963	12.14
555.161	12.15
555.359	12.34
555.557	12.53
555.755	12.61
555.952	12.79
556.15	12.88
556.348	12.94
556.546	13.02
556.744	13.07
556.941	13.07
557.139	13.28
557.337	13.28
557.535	13.25
557.732	13.4
557.93	13.58
558.128	13.59
558.325	13.8
558.523	13.87
558.721	13.94
558.918	13.94
559.116	14.02
559.313	14
559.511	14.26
559.708	14.39
559.906	14.52
560.104	14.66
560.301	14.8
560.498	14.79
560.696	14.81
560.893	14.94
561.091	14.94
561.288	15.09
561.486	15.2
561.683	15.3
561.88	15.38
562.078	15.54
562.275	15.52
562.473	15.6
562.67	15.8
562.867	15.93
563.064	16.04
563.262	16.15
563.459	16.31
563.656	16.48
563.853	16.52
564.051	16.61
564.248	16.77
564.445	16.86
564.642	16.82
564.839	17.03
565.036	17.23
565.234	17.43
565.431	17.43
565.628	17.64
565.825	17.71
566.022	17.84
566.219	17.83
566.416	18.03
566.613	18.08
566.81	18.12
567.007	18.09
567.204	18.13
567.401	18.17
567.598	18.25
567.795	18.37
567.991	18.47
568.188	18.67
568.385	18.8
568.582	18.85
568.779	18.91
568.976	19.06
569.172	19.11
569.369	19.13
569.566	19.16
569.763	19.29
569.96	19.22
570.156	19.25
570.353	19.29
570.55	19.47
570.746	19.46
570.943	19.6
571.14	19.61
571.336	19.68
571.533	19.78
571.729	19.81
571.926	19.89
572.123	20.02
572.319	20.13
572.516	20.07
572.712	20.16
572.909	20.19
573.105	20.32
573.302	20.36
573.498	20.55
573.695	20.49
573.891	20.55
574.087	20.54
574.284	20.49
574.48	20.34
574.677	20.41
574.873	20.41
575.069	20.44
575.266	20.56
575.462	20.6
575.658	20.67
575.854	20.85
576.051	20.86
576.247	20.78
576.443	20.84
576.639	20.75
576.835	20.56
577.032	20.52
577.228	20.63
577.424	20.67
577.62	20.7
577.816	20.83
578.012	20.82
578.208	20.8
578.404	20.8
578.6	20.84
578.796	20.83
578.993	20.89
579.189	20.83
579.384	20.75
579.58	20.76
579.776	20.77
579.972	20.71
580.168	20.68
580.364	20.73
580.56	20.65
580.756	20.57
580.952	20.57
581.148	20.63
581.343	20.64
581.539	20.75
581.735	20.82
581.931	20.93
582.127	20.93
582.322	20.86
582.518	20.83
582.714	20.84
582.909	20.74
583.105	20.76
583.301	20.83
583.496	20.81
583.692	20.71
583.888	20.69
584.083	20.66
584.279	20.68
584.474	20.7
584.67	20.8
584.866	20.87
585.061	20.74
585.257	20.77
585.452	20.76
585.648	20.73
585.843	20.76
586.039	20.92
586.234	20.91
586.429	20.84
586.625	20.87
586.82	20.8
587.015	20.81
587.211	20.65
587.406	20.76
587.601	20.74
587.797	20.81
587.992	20.76
588.187	21.01
588.383	20.95
588.578	20.95
588.773	20.91
588.968	20.98
589.163	20.99
589.359	21.03
589.554	21.05
589.749	21.1
589.944	21.11
590.139	21.11
590.334	21.13
590.529	21.16
590.724	21.22
590.919	21.26
591.114	21.19
591.309	21.34
591.504	21.45
591.699	21.42
591.894	21.53
592.089	21.58
592.284	21.56
592.479	21.63
592.674	21.65
592.869	21.76
593.064	21.85
593.259	22.01
593.454	22.04
593.648	22.11
593.843	22.02
594.038	22.11
594.233	21.93
594.428	22.01
594.622	22.12
594.817	22.28
595.012	22.34
595.206	22.49
595.401	22.47
595.596	22.59
595.79	22.62
595.985	22.72
596.18	22.91
596.374	23.07
596.569	23.17
596.763	23.23
596.958	23.28
597.153	23.29
597.347	23.33
597.542	23.41
597.736	23.42
597.931	23.48
598.125	23.54
598.319	23.75
598.514	23.77
598.708	24.02
598.903	24.03
599.097	24.08
599.291	24.04
599.486	24.09
599.68	24.02
599.874	24.14
600.069	24.19
600.263	24.2
600.457	24.31
600.651	24.39
600.846	24.43
601.04	24.51
601.234	24.55
601.428	24.51
601.622	24.53
601.817	24.62
602.011	24.72
602.205	24.81
602.399	24.84
602.593	24.9
602.787	24.99
602.981	24.9
603.175	24.97
603.369	25.03
603.563	25.11
603.757	25.1
603.951	25.16
604.145	25.09
604.339	25.09
604.533	24.95
604.727	24.93
604.921	24.81
605.115	24.81
605.309	24.91
605.502	24.9
605.696	24.72
605.89	24.83
606.084	24.78
606.278	24.63
606.471	24.64
606.665	24.63
606.859	24.47
607.053	24.44
607.246	24.39
607.44	24.32
607.634	24.29
607.827	24.33
608.021	24.26
608.214	24.26
608.408	24.17
608.602	24.07
608.795	23.99
608.989	23.94
609.182	23.88
609.376	23.85
609.569	23.8
609.763	23.69
609.956	23.62
610.15	23.46
610.343	23.39
610.537	23.39
610.73	23.48
610.923	23.43
611.117	23.39
611.31	23.35
611.504	23.48
611.697	23.36
611.89	23.28
612.083	23.22
612.277	23.15
612.47	22.86
612.663	22.75
612.856	22.71
613.05	22.64
613.243	22.59
613.436	22.52
613.629	22.46
613.822	22.33
614.015	22.23
614.209	22.1
614.402	22.12
614.595	22.03
614.788	21.99
614.981	21.89
615.174	21.78
615.367	21.67
615.56	21.6
615.753	21.52
615.946	21.46
616.139	21.55
616.332	21.68
616.525	21.66
616.718	21.65
616.911	21.62
617.103	21.48
617.296	21.32
617.489	21.21
617.682	21.23
617.875	21.28
618.067	21.26
618.26	21.15
618.453	21.08
618.646	21.01
618.838	20.94
619.031	20.94
619.224	20.91
619.417	20.97
619.609	20.95
619.802	20.87
619.994	20.83
620.187	20.89
620.38	20.87
620.572	20.81
620.765	20.91
620.957	20.82
621.15	20.68
621.342	20.57
621.535	20.59
621.727	20.51
621.92	20.44
622.112	20.42
622.305	20.5
622.497	20.36
622.69	20.23
622.882	20.28
623.074	20.24
623.267	20.12
623.459	20.05
623.651	20.05
623.844	20.01
624.036	20.02
624.228	19.98
624.42	20.09
624.613	20.24
624.805	20.24
624.997	20.21
625.189	20.16
625.381	20.12
625.574	19.96
625.766	19.85
625.958	19.87
626.15	19.97
626.342	20.02
626.534	20.02
626.726	20.04
626.918	20.03
627.11	19.92
627.302	19.86
627.494	19.8
627.686	19.8
627.878	19.65
628.07	19.65
628.262	19.55
628.454	19.53
628.646	19.51
628.838	19.6
629.029	19.44
629.221	19.48
629.413	19.37
629.605	19.26
629.797	19.15
629.989	19.21
630.18	19.15
630.372	19.19
630.564	19.16
630.755	19.21
630.947	19.22
631.139	19.03
631.33	18.91
631.522	19.02
631.714	19
631.905	18.95
632.097	18.99
632.289	19.06
632.48	18.91
632.672	18.71
632.863	18.55
633.055	18.57
633.246	18.56
633.438	18.55
633.629	18.56
633.821	18.68
634.012	18.68
634.203	18.5
634.395	18.48
634.586	18.51
634.777	18.44
634.969	18.39
635.16	18.52
635.351	18.46
635.543	18.48
635.734	18.49
635.925	18.46
636.117	18.48
636.308	18.6
636.499	18.46
636.69	18.33
636.881	18.32
637.073	18.32
637.264	18.17
637.455	18.22
637.646	18.32
637.837	18.36
638.028	18.27
638.219	18.35
638.41	18.31
638.601	18.21
638.792	18.2
638.983	18.09
639.174	18.02
639.365	18.07
639.556	18.1
639.747	18.11
639.938	18.27
640.129	18.25
640.32	18.14
640.511	18.15
640.701	18.18
640.892	18.12
641.083	18.11
641.274	18.22
641.465	18.22
641.655	18.03
641.846	17.98
642.037	17.96
642.228	17.9
642.418	17.93
642.609	18.04
642.8	18.03
642.99	17.93
643.181	17.89
643.372	17.92
643.562	17.86
643.753	17.78
643.943	17.86
644.134	17.73
644.324	17.64
644.515	17.55
644.705	17.6
644.896	17.58
645.086	17.64
645.277	17.56
645.467	17.6
645.658	17.53
645.848	17.52
646.038	17.54
646.229	17.56
646.419	17.46
646.61	17.48
646.8	17.39
646.99	17.25
647.18	17.22
647.371	17.28
647.561	17.17
647.751	17.2
647.941	17.16
648.132	17.13
648.322	17.09
648.512	17.19
648.702	17.15
648.892	17.23
649.082	17.22
649.272	17.09
649.462	16.89
649.653	16.92
649.843	16.79
650.033	16.78
650.223	16.86
650.413	16.92
650.603	16.81
650.793	16.87
650.983	16.72
651.172	16.61
651.362	16.51
651.552	16.41
651.742	16.29
651.932	16.32
652.122	16.29
652.312	16.42
652.502	16.48
652.691	16.5
652.881	16.34
653.071	16.34
653.261	16.09
653.45	15.91
653.64	15.86
653.83	15.75
654.019	15.6
654.209	15.5
654.399	15.47
654.588	15.35
654.778	15.29
654.968	15.16
655.157	15.14
655.347	14.98
655.536	14.82
655.726	14.65
655.915	14.5
656.105	14.28
656.294	14.22
656.484	14.01
656.673	13.97
656.863	13.94
657.052	13.75
657.241	13.52
657.431	13.31
657.62	13.12
657.809	12.7
657.999	12.65
658.188	12.43
658.377	12.22
658.567	12.14
658.756	12.1
658.945	11.88
659.134	11.78
659.324	11.74
659.513	11.48
659.702	11.31
659.891	11.23
660.08	11.09
660.269	11.02
660.458	10.86
660.648	10.76
660.837	10.55
661.026	10.47
661.215	10.26
661.404	10.08
661.593	9.98
661.782	9.77
661.971	9.59
662.16	9.39
662.349	9.38
662.538	9.12
662.726	9.05
662.915	8.85
663.104	8.72
663.293	8.6
663.482	8.67
663.671	8.56
663.86	8.43
664.048	8.32
664.237	8.27
664.426	7.93
664.615	7.9
664.803	7.88
664.992	7.81
665.181	7.6
665.369	7.54
665.558	7.44
665.747	7.26
665.935	7.29
666.124	7.29
666.312	7.34
666.501	7.18
666.69	7.18
666.878	7.02
667.067	6.82
667.255	6.94
667.444	7.25
667.632	7.3
667.82	7.32
668.009	7.35
668.197	7.1
668.386	6.78
668.574	6.78
668.762	6.75
668.951	6.72
669.139	6.68
669.327	6.56
669.516	6.52
669.704	6.43
669.892	6.54
670.08	6.58
670.269	6.56
670.457	6.41
670.645	6.34
670.833	6.36
671.021	6.27
671.21	6.42
671.398	6.73
671.586	6.78
671.774	6.6
671.962	6.59
672.15	6.61
672.338	6.41
672.526	6.53
672.714	6.49
672.902	6.55
673.09	6.66
673.278	6.84
673.466	6.86
673.654	7.04
673.842	7.09
674.03	7.08
674.218	6.98
674.405	6.94
674.593	6.94
674.781	7.08
674.969	7.13
675.157	7.19
675.344	7.37
675.532	7.51
675.72	7.57
675.908	7.61
676.095	7.58
676.283	7.57
676.471	7.65
676.658	7.57
676.846	7.63
677.033	7.81
677.221	7.95
677.409	7.84
677.596	8.03
677.784	8.09
677.971	8.13
678.159	8.13
678.346	8.27
678.534	8.22
678.721	8.42
678.909	8.47
679.096	8.58
679.283	8.88
679.471	9.02
679.658	9.05
679.846	9.28
680.033	9.56
680.22	9.52
680.408	9.61
680.595	9.67
680.782	9.62
680.969	9.65
681.157	9.74
681.344	9.97
681.531	10.14
681.718	10.23
681.905	10.31
682.093	10.62
682.28	10.83
682.467	11.05
682.654	11.27
682.841	11.48
683.028	11.5
683.215	11.69
683.402	11.74
683.589	11.96
683.776	12.06
683.963	12.29
684.15	12.4
684.337	12.72
684.524	12.99
684.711	13.37
684.898	13.54
685.085	13.73
685.271	14.08
685.458	14.25
685.645	14.43
685.832	14.93
686.019	15.35
686.205	15.51
686.392	15.9
686.579	16.22
686.766	16.49
686.952	16.75
687.139	17.26
687.326	17.48
687.512	17.9
687.699	18.2
687.886	18.61
688.072	18.85
688.259	19.45
688.445	20.04
688.632	20.43
688.818	21.05
689.005	21.58
689.191	22.03
689.378	22.59
689.564	23.19
689.751	23.68
689.937	24.14
690.124	24.76
690.31	24.99
690.496	25.38
690.683	25.8
690.869	26.49
691.055	27.01
691.242	27.83
691.428	28.57
691.614	29.2
691.8	29.57
691.987	30.13
692.173	30.84
692.359	31.47
692.545	32.04
692.731	32.79
692.918	33.43
693.104	33.87
693.29	34.53
693.476	35.41
693.662	35.93
693.848	36.56
694.034	37.15
694.22	37.72
694.406	38.12
694.592	38.91
694.778	39.48
694.964	40.05
695.15	40.86
695.336	41.4
695.522	42.35
695.708	42.89
695.894	43.48
696.08	43.94
696.265	44.48
696.451	44.81
696.637	45.61
696.823	46.26
697.009	46.75
697.194	47.54
697.38	47.96
697.566	48.5
697.751	49.04
697.937	49.91
698.123	50.34
698.308	51.23
698.494	51.73
698.68	52.15
698.865	52.57
699.051	53.07
699.236	53.2
699.422	53.67
699.607	54.11
699.793	54.45
699.978	54.88
700.164	55.12
700.349	55.81
700.535	56.36
700.72	56.66
700.906	57.24
701.091	57.8
701.276	58.08
701.462	58.7
701.647	59.48
701.832	60.03
702.018	60.56
702.203	60.69
702.388	60.91
702.573	61.18
702.759	61.66
702.944	62
703.129	62.52
703.314	62.98
703.499	63.02
703.684	63.09
703.87	63.87
704.055	64.51
704.24	64.96
704.425	65.59
704.61	66.18
704.795	66.15
704.98	66.4
705.165	66.47
705.35	66.56
705.535	66.68
705.72	67.09
705.905	67.42
706.09	67.87
706.275	68.34
706.459	68.3
706.644	68.3
706.829	68.44
707.014	68.4
707.199	68.37
707.384	68.93
707.568	69.04
707.753	69.51
707.938	69.71
708.123	69.58
708.307	69.57
708.492	69.77
708.677	69.58
708.861	69.73
709.046	70.25
709.231	70.84
709.415	71.45
709.6	71.42
709.784	71.7
709.969	71.96
710.153	71.74
710.338	71.49
710.522	71.82
710.707	72.29
710.891	72.36
711.076	72.8
711.26	72.75
711.445	73.47
711.629	73.48
711.813	74.02
711.998	74.07
712.182	74.3
712.366	74.09
712.551	74.57
712.735	74.48
712.919	74.16
713.103	74.56
713.288	74.33
713.472	74.23
713.656	74.94
713.84	75.23
714.024	75.68
714.208	75.85
714.393	76.07
714.577	75.44
714.761	75.52
714.945	75.3
715.129	75.53
715.313	75.59
715.497	75.72
715.681	76.32
715.865	76.23
716.049	76.44
716.233	76.27
716.417	76.59
716.601	76.26
716.785	76.46
716.968	76.02
717.152	76
717.336	75.86
717.52	75.77
717.704	75.89
717.888	76.54
718.071	76.78
718.255	76.84
718.439	77.07
718.622	77.11
718.806	77.22
718.99	77.02
719.174	77.04
719.357	76.96
719.541	77.01
719.724	76.66
719.908	77.38
720.092	77.91
720.275	78.49
720.459	78.63
720.642	78.85
720.826	78.24
721.009	77.67
721.193	76.99
721.376	77.36
721.559	77.41
721.743	77.91
721.926	78.38
722.11	78.81
722.293	78.08
722.476	77.92
722.66	77.86
722.843	77.78
723.026	77.41
723.21	78.02
723.393	78.92
723.576	79
723.759	78.87
723.942	79.28
724.126	79.22
724.309	78.43
724.492	78.04
724.675	78.24
724.858	78.46
725.041	78.85
725.224	79.43
725.407	79.92
725.59	80.05
725.774	79.75
725.957	79.07
726.14	78.54
726.322	78.55
726.505	78.25
726.688	79.03
726.871	79.5
727.054	79.43
727.237	79.35
727.42	80.15
727.603	80.04
727.786	80.12
727.968	80.8
728.151	80.64
728.334	80
728.517	79.6
728.699	79.72
728.882	79.4
729.065	80.35
729.248	80.99
729.43	81.24
729.613	81.9
729.796	82.57
729.978	81.38
730.161	81.56
730.343	81.47
730.526	81.72
730.708	80.91
730.891	81.4
731.073	80.67
731.256	80.51
731.438	80.07
731.621	81.15
731.803	81.09
731.986	81.49
732.168	80.99
732.35	80.72
732.533	80.42
732.715	80.95
732.898	81.64
733.08	81.82
733.262	82.45
733.444	82.15
733.627	81.91
733.809	81.74
733.991	83.13
734.173	82.77
734.355	82.65
734.538	83.13
734.72	82.68
734.902	82.24
735.084	82.49
735.266	82.49
735.448	82.98
735.63	82.54
735.812	82.57
735.994	83.37
736.176	84.16
736.358	83.08
736.54	84.36
736.722	84.13
736.904	83.01
737.086	81.93
737.268	83.33
737.45	82.97
737.632	83.13
737.814	82.15
737.995	83.07
738.177	82.46
738.359	82.36
738.541	82.61
738.723	83.66
738.904	83.67
739.086	83.34
739.268	83.18
739.449	82.64
739.631	82.21
739.813	82.57
739.994	83.32
740.176	83.65
740.358	84.61
740.539	85.63
740.721	85.31
740.902	85.49
741.084	84.94
741.265	84.58
741.447	84.55
741.628	84.88
741.81	83.55
741.991	84.53
742.172	85.41
742.354	85.63
742.535	85.7
742.717	86.89
742.898	86.67
743.079	85.87
743.261	85.52
743.442	85.04
743.623	85.08
743.804	84.65
743.986	85.37
744.167	84.38
744.348	83.91
744.529	84.22
744.71	83.83
744.891	83.23
745.073	82.65
745.254	82.76
745.435	82.61
745.616	82.41
745.797	81.87
745.978	82.73
746.159	83.24
746.34	81.63
746.521	83.48
746.702	83.02
746.883	83.33
747.064	82.64
747.245	83.65
747.426	83.26
747.606	84.26
747.787	84.48
747.968	85.08
748.149	85.34
748.33	85.12
748.51	85.45
748.691	84.71
748.872	85.29
749.053	84.6
749.233	83.74
749.414	83.37
749.595	83.21
749.775	81.88
749.956	81.29
750.137	82.08
750.317	82.89
750.498	85.05
750.678	84.79
750.859	86.57
751.04	85.58
751.22	84.15
751.4	81.91
751.581	81.81
751.761	80.59
751.942	81.21
752.122	80.67
752.303	81.24
752.483	81.64
752.663	81.95
752.844	80.37
753.024	82.27
753.204	82.28
753.385	80.92
753.565	80.23
753.745	81.47
753.925	79.75
754.106	78.51
754.286	80.09
754.466	80.47
754.646	81.73
754.826	81.37
755.006	80.36
755.187	80.52
755.367	81.04
755.547	80.48
755.727	82.11
755.907	83.69
756.087	84.32
756.267	82.72
756.447	81.47
756.627	79.27
756.807	79.68
756.987	78.35
757.167	79.2
757.346	79.58
757.526	79.67
757.706	80.2
757.886	81.39
758.066	82
758.246	84.14
758.425	85.24
758.605	83.89
758.785	82.91
758.965	82.56
759.144	79.31
759.324	79.57
759.504	79.64
759.683	81.14
759.863	79.69
760.043	79.67
760.222	79.13
760.402	79.82
760.581	78.29
760.761	80.8
760.94	79.96
761.12	81.45
761.299	81.56
761.479	81.03
761.658	79.25
761.838	81.02
762.017	80.45
762.197	81.06
762.376	82.23
762.555	82.09
762.735	82.37
762.914	80.95
763.093	80.83
763.273	78.38
763.452	78.58
763.631	77.86
763.81	77.33
763.99	76.45
764.169	78.86
764.348	76.57
764.527	75.26
764.706	78.1
764.885	80.19
765.064	78.4
765.243	80.1
765.423	82.51
765.602	80.84
765.781	77.55
765.96	77.36
766.139	77.23
766.318	77.13
766.497	76.74
766.676	78.85
766.854	80.14
767.033	80.15
767.212	79.33
767.391	78.94
767.57	79.45
767.749	80.94
767.928	83.26
768.106	81.5
768.285	80.15
768.464	78.54
768.643	76.42
768.821	74.97
769	77.28
769.179	77.66
769.357	76.3
769.536	75.77
769.715	75.36
769.893	75.79
770.072	76.61
770.25	78.29
770.429	80.39
770.607	78.54
770.786	77.94
770.964	79.09
771.143	76.59
771.321	75.68
771.5	78.88
771.678	77.86
771.857	75.63
772.035	76.82
772.213	76.48
772.392	72.64
772.57	73.96
772.748	74.75
772.927	73.22
773.105	72.2
773.283	75.41
773.461	75.11
773.64	75.81
773.818	78.57
773.996	79.28
774.174	76.69
774.352	74.31
774.531	70.96
774.709	72.56
774.887	71.71
775.065	70.52
775.243	71.8
775.421	74.88
775.599	73.81
775.777	71.98
775.955	71.18
776.133	69.11
776.311	69.26
776.489	65.32
776.667	68.12
776.844	71.35
777.022	72.14
777.2	72.05
777.378	75.71
777.556	74.94
777.734	76.81
777.911	81.14
778.089	78.61
778.267	77.36
778.445	76.64
778.622	74.35
778.8	70.98
778.978	73.59
779.155	72.26
779.333	74.45
779.511	74.66
779.688	77.8
779.866	73.81
780.043	73.38
780.221	71.87
780.398	72.15
780.576	70.86
780.753	73.46
780.931	73.05
781.108	71.73
781.286	72.11
781.463	67.59
781.64	64.49
781.818	66.56
781.995	68.38
782.172	68.32
782.35	71.2
782.527	76.4
782.704	75.18
782.882	76.26
783.059	74.23
783.236	72.43
783.413	71.91
783.59	73.73
783.768	70.35
783.945	72.56
784.122	75.35
784.299	74.96
784.476	70.56
784.653	70.69
784.83	66.95
785.007	62.29
785.184	61.74
785.361	61.95
785.538	67.03
785.715	71.38
785.892	74.44
786.069	74.96
786.246	79.69
786.423	77.92
786.6	76.68
786.776	77.92
786.953	78.71
787.13	78.28
787.307	76.49
787.484	75.18
787.66	73.79
787.837	72.94
788.014	69.66
788.191	66.87
788.367	65.14
788.544	66.63
788.721	65.72
788.897	69.06
789.074	73.48
789.25	74.74
789.427	74.07
789.603	72.7
789.78	71.2
789.956	68.29
790.133	69.46
790.309	70.09
790.486	78.14
790.662	76.24
790.839	78.61
791.015	77.67
791.192	76.56
791.368	70.98
791.544	69.91
791.721	66.04
791.897	64.58
792.073	62.39
792.249	55.07
792.426	59.68
792.602	62.52
792.778	61.25
792.954	58.26
793.13	62.17
793.307	54.56
793.483	47.25
793.659	47.4
793.835	56.64
794.011	56.97
794.187	55.56
794.363	60.61
794.539	65.2
794.715	53.8
794.891	53.98
795.067	58.18
795.243	63.67
795.419	60.74
795.595	60.37
795.771	61.56
795.947	60.41
796.122	56.5
796.298	61.7
796.474	67
796.65	67.36
796.826	66.16
797.001	63.14
797.177	54.21
797.353	60.41
797.529	61.15
797.704	62.51
797.88	60.11
798.056	60.58
798.231	56.81
798.407	58.69
798.582	57.34
798.758	69.05
798.934	77.79
799.109	71.85
799.285	65.8
799.46	72.11
799.636	66.8
799.811	63.65
799.986	70.42
800.162	71.91
800.337	71.32
800.513	63.85
800.688	59.36
800.863	62.44
801.039	60.42
801.214	56.2
801.389	62.66
801.565	58.85
801.74	46.77
801.915	55.13
802.09	56.27
802.265	59.64
802.441	61.76
802.616	64.3
802.791	66.45
802.966	69.44
803.141	62
803.316	60.94
803.491	70.74
803.666	71.16
803.841	64.45
804.016	67.48
804.191	70.82
804.366	61.11
804.541	55.81
804.716	56.76
804.891	55.33
805.066	56.52
805.241	53.11
805.416	52.27
805.591	53.47
805.765	60.11
805.94	61.81
806.115	60.56
806.29	52.49
806.464	48.49
806.639	38.35
806.814	30.96
806.989	25.09
807.163	41.51
807.338	45.92
807.512	45.76
807.687	37.01
807.862	57.09
808.036	57.98
808.211	63.9
808.385	73.4
808.56	89.87
808.734	88.17
808.909	75.19
809.083	69.31
809.258	68.01
809.432	64.9
809.606	41.95
809.781	41.59
809.955	44.48
810.13	47.41
810.304	45.58
810.478	56.24
810.652	68.04
810.827	68.13
811.001	60.25
811.175	52.9
811.349	54.47
811.524	44.02
811.698	31.81
811.872	36.47
812.046	46.59
812.22	50.56
812.394	53.38
812.568	63.45
812.742	67.17
812.916	58.86
813.09	49.53
813.264	46.25
813.438	43.12
813.612	33.65
813.786	28.49
813.96	37.31
814.134	39.38
814.308	48.55
814.482	58.66
814.656	59.95
814.83	63.46
815.003	61.9
815.177	48.82
815.351	37.75
815.525	37.28
815.698	24.29
815.872	16.88
816.046	11.37
816.219	27.62
816.393	50.21
816.567	60.81
816.74	69.41
816.914	79.78
817.088	71.14
817.261	53.36
817.435	40.4
817.608	37.54
817.782	21.42
817.955	29.88
818.129	35.74
818.302	49.21
818.475	61.67
818.649	67.22
818.822	59.36
818.996	70.63
819.169	61.29
819.342	51.46
819.516	48.55
819.689	58.02
819.862	46.76
820.035	45.68
820.209	40.9
820.382	47.53
820.555	38.63
820.728	23.72
820.901	24.42
821.075	24.11
821.248	30.02
821.421	23.14
821.594	37.3
821.767	47.1
821.94	58.32
822.113	23.83
822.286	21.22
822.459	23.69
822.632	12.87
822.805	5.52
822.978	15.31
823.151	19.07
823.324	10.1
823.496	-16.53
823.669	-21.28
823.842	-6.78
824.015	-13.13
824.188	-22.44
824.361	-5.36
824.533	1.69
824.706	6.81
824.879	8.93
825.051	20.66
825.224	26.79
825.397	19.11
825.569	15.66
825.742	40.35
825.915	47.94
826.087	53.98
826.26	43.11
826.432	32.41
826.605	30.97
826.777	20.38
826.95	17.28
827.122	12.8
827.295	17.61
827.467	22.04
827.64	19.13
827.812	6.49
827.984	18.19
828.157	5.25
828.329	-42.59
828.501	-18.02
828.674	27.29
828.846	11.64
829.018	37.27
829.19	43.15
829.363	44.38
829.535	36.12
829.707	46.74
829.879	33.2
830.051	16.44
830.223	17.14
830.395	-3.22
830.568	-13.63
830.74	-29.25
830.912	8.71
831.084	-7.21
831.256	5.05
831.428	1.53
831.6	-11.67
831.772	-44.15
831.943	-64.49
832.115	-39.07
832.287	-19.03
832.459	7.98
832.631	25.53
832.803	52.57
832.975	55.47
833.146	39.84
833.318	27.09
833.49	34.86
833.662	-0.66
833.833	-12.7
834.005	-18.86
834.177	-3.96
834.348	-14.53
834.52	-17.37
834.692	-36.49
834.863	-33.68
835.035	-34.63
835.206	-82.57
835.378	-37.79
835.549	-22.11
835.721	-6.31
835.892	-16.21
836.064	-7.51
836.235	-21.99
836.407	0.85
836.578	-27.36
836.749	-11.09
836.921	-22.03
837.092	-44.15
837.264	-60.34
837.435	-56.51
837.606	-8.53
837.777	26.85
837.949	35.33
838.12	41.47
838.291	48.64
838.462	30.29
838.633	-0.51
838.805	6.58
838.976	20.96
839.147	-24.44
839.318	-57.46
839.489	-83.63
839.66	-91.34
839.831	-57.05
840.002	-31.43
840.173	-25.24
840.344	25.12
840.515	67.5
840.686	-76.82
840.857	-60.76
841.028	-22.68
841.199	-13.53
841.369	-74.17
841.54	-26.18
841.711	-15.94
841.882	10.93
842.053	-8.2
842.223	-2.58
842.394	1.53
842.565	10.34
842.736	2.9
842.906	4.71
843.077	20.87
843.248	37.91
843.418	39.5
843.589	4.24
843.759	97.49
843.93	101.79
844.101	41.37
844.271	46.81
844.442	56.18
844.612	40.69
844.783	9.63
844.953	-18.39
845.123	-44.64
845.294	-85.21
845.464	-337.54
845.635	-151.66
845.805	-30.58
845.975	-20.54
846.146	-37.14
846.316	-23.06
846.486	13.02
846.656	22.97
846.827	16.89
846.997	16.5
847.167	53.9
847.337	-7.03
847.507	-50.02
847.677	-42.08
847.848	27.46
848.018	18.75
848.188	36.42
848.358	21.02
848.528	14.39
848.698	-32.27
848.868	-105.48
849.038	-231.25
849.208	-62.27
849.378	3.88
849.548	-7.09
849.718	7.21
849.887	31.78
850.057	-3.17
850.227	-65.99
850.397	-86.92
850.567	-225.1
850.737	-556.85
850.906	-1522.19
851.076	-1066.21
851.246	-552.75
851.415	-54.98
851.585	-28.91
851.755	-62.46
851.924	14.9
852.094	-15.5
852.264	-122.07
852.433	-1038.22
852.603	-250.19
852.772	-309.13
852.942	-121.32
853.111	-94.82
853.281	-48.8
853.45	10.95
853.62	-37.8
853.789	-32.62
853.959	8.64
854.128	34.22
854.297	-4.2
854.467	-30.36
854.636	-6.56
854.805	-0.62
854.975	-77.61
855.144	-231.71
855.313	-310.31
855.482	-829.74
855.652	-433.01
855.821	-286.85
855.99	-19.7
856.159	7.08
856.328	27.09
856.497	24.72
856.667	30.15
856.836	31.21
857.005	-7.52
857.174	-28.18
857.343	-61.46
857.512	-59.55
857.681	-111.14
857.85	-173.81
858.019	-96
858.188	-88.13
858.356	-78.78
858.525	-135.82
858.694	-104.84
858.863	-165.92
859.032	-89.75
859.201	-135.62
859.369	-112.44
859.538	-66.33
859.707	-70.58
859.876	-150.78
860.044	-121.29
860.213	-0.72
860.382	-11.63
860.55	-7.95
860.719	56.48
860.888	38.03
861.056	-5.67
861.225	-25
861.393	31.66
861.562	-1.29
861.73	-43.9
861.899	-290.45
862.067	-1737.07
862.236	-135.72
862.404	-262.75
862.572	-170.95
862.741	-10.05
862.909	-30.04
863.078	-164.85
863.246	-133.21
863.414	-108.23
863.582	-89.41
863.751	-132.76
863.919	-99.31
864.087	-38.99
864.255	-46.82
864.424	-432.57
864.592	-43.78
864.76	-110.64
864.928	-489.4
865.096	-323.81
865.264	-209.37
865.432	-2665.34
865.6	-148.38
865.768	-119.09
865.936	-106.44
866.104	-132.24
866.272	-183.67
866.44	-455.81
866.608	780.84
866.776	353.88
866.944	3034.3
867.112	-542.69
867.28	-246.22
867.448	-91.59
867.615	-23.91
867.783	-5.68
867.951	-11.31
868.119	36.17
868.286	21.37
868.454	-37.07
868.622	-0.66
868.789	88.06
868.957	23.21
869.125	-820.39
869.292	-31.63
869.46	-164.92
869.627	-38.55
869.795	-25.24
869.963	-10.76
870.13	1.04
870.298	10.22
870.465	-56.48
870.632	-99.73
870.8	-69.72
870.967	-165.03
871.135	-221.28
871.302	-170.35
871.469	-137.33
871.637	-278.56
871.804	-116.46
871.971	-155.88
872.139	-537.09
872.306	-84.83
872.473	-89.1
872.64	-344.96
872.807	-87.58
872.975	32.05
873.142	-215.91
873.309	1329.05
873.476	54.9
873.643	102.03
873.81	25.37
873.977	70.75
874.144	85.74
874.311	-92.41
874.478	-166.74
874.645	-186.29
874.812	-177.5
874.979	-135.5
875.146	-84.66
875.313	-65.36
875.48	30.38
875.647	-1.49
875.813	-38.81
875.98	-30.47
876.147	-64.28
876.314	-172.54
876.481	1152.69
876.647	-1341.29
876.814	523.7
876.981	-121.06
877.147	-63.47
877.314	0.33
877.481	16.6
877.647	11.7
877.814	-26.87
877.98	-72.72
878.147	-59.46
878.314	-30.35
878.48	-106.51
878.647	-80.48
878.813	-7.53
878.979	-26.01
879.146	-56.62
879.312	-39.29
879.479	-103.61
879.645	-269.95
879.811	-409.7
879.978	-1089.89
880.144	-308.36
880.31	-124.45
880.477	-309.95
880.643	-429.84
880.809	-88.74
880.975	-108.25
881.142	-1093.41
881.308	-127.69
881.474	-68.19
881.64	-129.27
881.806	-152.38
881.972	-16.25
882.138	-42.39
882.304	34.65
882.47	-126.46
882.636	-688.32
882.802	-243.55
882.968	-33.97
883.134	-31.22
883.3	-41.43
883.466	18.46
883.632	37.57
883.798	9.21
883.964	-5.75
884.129	34.28
884.295	26.86
884.461	-21.42
884.627	-39.13
884.793	-54.47
884.958	-38.74
885.124	-143.33
885.29	-226.18
885.455	-451.33
885.621	-162.56
885.787	-232.07
885.952	-100.97
886.118	-117.02
886.283	-79.6
886.449	-184.03
886.614	-190.13
886.78	-378.37
886.945	1184.84
887.111	-696.97
887.276	-523.15
887.442	-916.14
887.607	-227.71
887.773	-228.26
887.938	-194.97
888.103	-226.55
888.269	-122.82
888.434	-421.49
888.599	-122.93
888.764	-72.61
888.93	-24.52
889.095	-46.38
889.26	-74.8
889.425	-42.71
889.59	-26.78
889.756	-56.21
889.921	-48.24
890.086	4.61
890.251	-17.48
890.416	-119.39
890.581	-1160.89
890.746	44.91
890.911	221.5
891.076	117.25
891.241	-147.57
891.406	86.32
891.571	-19.85
891.736	-148.51
891.901	-153.76
892.065	382.14
892.23	141.43
892.395	195.45
892.56	283.45
892.725	-332.62
892.889	-1118.9
893.054	-184.46
893.219	-49.78
893.384	4.51
893.548	-56.09
893.713	-53.28
893.878	-24.65
