Data from Ofra_1a_PS_6EV18_Reflection_3.txt Node
Date: Tue Jul 20 10:59:49 EDT 2021
User: Adam
Spectrometer: FLMT01687
Trigger mode: 0
Integration Time (sec): 1.004000E0
Scans to average: 2
Electric dark correction enabled: true
Nonlinearity correction enabled: false
Boxcar width: 2
XAxis mode: Wavelengths
Number of Pixels in Spectrum: 3648
>>>>>Begin Spectral Data<<<<<
179.494	-273.1
179.716	-392.37
179.937	959.87
180.158	-1239.49
180.38	169.09
180.601	105.58
180.823	47.53
181.044	3.87
181.265	-5.25
181.486	161.36
181.708	117.91
181.929	-3472.73
182.15	3.1
182.372	-69.95
182.593	321.45
182.814	-277.42
183.035	-12.38
183.257	23.23
183.478	-22.8
183.699	-32.1
183.92	-56.89
184.141	-39.62
184.363	-23.33
184.584	-22.82
184.805	-0.85
185.026	31.56
185.247	-21.2
185.468	-52.47
185.689	-14.53
185.91	-51.12
186.132	-28.49
186.353	-1.67
186.574	13.76
186.795	15.53
187.016	47.98
187.237	33.56
187.458	30.76
187.679	5.01
187.9	18.86
188.121	-2.44
188.342	28.44
188.563	62.47
188.784	79.65
189.005	62.43
189.226	67.83
189.447	60.81
189.667	40.84
189.888	25.27
190.109	19.43
190.33	4.9
190.551	1.57
190.772	11.35
190.993	7.69
191.214	2.08
191.434	30
191.655	27.27
191.876	34.96
192.097	50.83
192.318	49.34
192.538	13.95
192.759	12.28
192.98	27.64
193.201	26.91
193.421	35.82
193.642	49.82
193.863	72.08
194.083	74.46
194.304	75.61
194.525	47.29
194.745	30.35
194.966	16.66
195.187	13.52
195.407	2.68
195.628	13.03
195.848	17.56
196.069	7.05
196.29	4.15
196.51	-4.89
196.731	-18.94
196.951	-31.72
197.172	-19.99
197.392	-24.52
197.613	7.05
197.833	-0.66
198.054	3.56
198.274	13.47
198.495	4.54
198.715	2.48
198.936	24.26
199.156	18.74
199.377	2.48
199.597	15.67
199.817	17.19
200.038	3.09
200.258	38.91
200.479	39.41
200.699	33.9
200.919	15.07
201.14	12.87
201.36	-3.78
201.58	-14.22
201.801	-8.83
202.021	-16.4
202.241	-0.37
202.461	0.53
202.682	23.79
202.902	33.5
203.122	48.46
203.342	39.36
203.563	20
203.783	12.29
204.003	-4.93
204.223	2.12
204.443	-2.91
204.663	36.54
204.884	48.44
205.104	43.4
205.324	53.88
205.544	46.28
205.764	35.24
205.984	20.78
206.204	17.84
206.424	-6.49
206.644	-9.03
206.864	-48.99
207.084	-24.12
207.304	-24.7
207.525	-9.06
207.745	10.37
207.964	17.31
208.184	27.68
208.404	23.79
208.624	27.34
208.844	25.89
209.064	22.75
209.284	24.78
209.504	30.24
209.724	8.21
209.944	-10.43
210.164	-9.25
210.384	-38.07
210.604	-92.61
210.823	-100.03
211.043	-60.89
211.263	-164.34
211.483	-82.11
211.703	-36.1
211.922	-36.38
212.142	-12.19
212.362	36.23
212.582	33.8
212.801	21.14
213.021	21.24
213.241	-4.22
213.461	-19.43
213.68	-13.55
213.9	-9.33
214.12	-14.5
214.339	-18.63
214.559	-13.43
214.779	-16.87
214.998	-30.54
215.218	-13.25
215.438	-0.4
215.657	4.92
215.877	-7.03
216.096	8.37
216.316	6.59
216.535	1.15
216.755	2.84
216.974	1.48
217.194	-7.4
217.413	9.51
217.633	6.27
217.852	-5.06
218.072	5.96
218.291	7.51
218.511	0.74
218.73	-8.37
218.95	-24.04
219.169	-36.16
219.389	6.96
219.608	15.4
219.827	36.78
220.047	54.87
220.266	73.88
220.485	59.14
220.705	54.59
220.924	39.28
221.143	36.41
221.363	31.91
221.582	11.83
221.801	6.82
222.021	15.63
222.24	4.85
222.459	3.3
222.678	20.57
222.897	9.91
223.117	17.77
223.336	23.83
223.555	42.68
223.774	49.48
223.993	46.95
224.213	36.59
224.432	20
224.651	-0.65
224.87	-5.38
225.089	6.38
225.308	2.32
225.527	10.28
225.746	13.73
225.965	6.71
226.184	-22.82
226.404	-19.66
226.623	-21.12
226.842	-21.46
227.061	-15.87
227.28	15.01
227.499	14.44
227.718	14.77
227.936	11.93
228.155	13.53
228.374	7.08
228.593	13.21
228.812	3.18
229.031	30.93
229.25	11.15
229.469	12.47
229.688	18.44
229.907	31.75
230.125	6.98
230.344	29.51
230.563	33.76
230.782	33.26
231.001	25.74
231.22	50.14
231.438	46.63
231.657	33.08
231.876	27.65
232.095	35.74
232.313	23.54
232.532	15.03
232.751	11.7
232.969	12.44
233.188	-0.03
233.407	11.03
233.625	0.85
233.844	27.87
234.063	31.56
234.281	34.83
234.5	31.82
234.719	44.15
234.937	19.01
235.156	24.69
235.374	29.84
235.593	23.36
235.811	44.11
236.03	35.47
236.249	35.76
236.467	36.39
236.686	39.31
236.904	11.63
237.123	10.71
237.341	-11.3
237.559	-20.31
237.778	-0.03
237.996	-18.41
238.215	-64
238.433	-84.48
238.652	-20.86
238.87	-38.9
239.088	-0.35
239.307	21.17
239.525	28.85
239.743	3.13
239.962	-2.74
240.18	-7
240.398	-5.12
240.617	-15.26
240.835	24.66
241.053	31.85
241.271	21.16
241.49	33.47
241.708	25.14
241.926	9.48
242.144	9.36
242.363	12.01
242.581	-43.52
242.799	-34.39
243.017	-24.76
243.235	-33.85
243.453	-33.62
243.672	-20.3
243.89	-10.68
244.108	10.12
244.326	40.57
244.544	37.91
244.762	29.85
244.98	26.24
245.198	19.37
245.416	1.23
245.634	-5.06
245.852	-19.89
246.07	-4.07
246.288	2.44
246.506	-13.62
246.724	5.15
246.942	30.6
247.16	30.05
247.378	25.21
247.596	52.5
247.814	22.71
248.032	-6.81
248.25	24.76
248.468	25.69
248.685	35.18
248.903	29.08
249.121	28.73
249.339	13.47
249.557	8.8
249.775	-3.26
249.992	16.29
250.21	19.21
250.428	28.99
250.646	33.59
250.863	25.39
251.081	16.48
251.299	19.51
251.517	10.67
251.734	7.82
251.952	13.54
252.17	21.37
252.387	7.72
252.605	5.69
252.823	-1.61
253.04	8.97
253.258	3.24
253.475	11.84
253.693	0.99
253.911	7.95
254.128	3.18
254.346	14.03
254.563	19.48
254.781	24.73
254.998	7.02
255.216	-24.78
255.433	-58.52
255.651	-44.14
255.868	-51.11
256.086	-39.66
256.303	-24.61
256.521	-14.48
256.738	-22.03
256.956	-1.47
257.173	-12.44
257.39	10.66
257.608	7.47
257.825	10.06
258.043	16.73
258.26	27.27
258.477	21
258.695	23.84
258.912	9.85
259.129	-16.32
259.346	-27.4
259.564	-20.56
259.781	-18.43
259.998	1.5
260.216	30.46
260.433	36.08
260.65	35.75
260.867	38.96
261.084	44.41
261.302	22.69
261.519	25.07
261.736	26.24
261.953	17.47
262.17	24.68
262.387	31.98
262.604	23.8
262.822	18.73
263.039	21.23
263.256	13.95
263.473	20.59
263.69	20.03
263.907	28.99
264.124	41.01
264.341	42.52
264.558	31.37
264.775	37.24
264.992	35.47
265.209	25.01
265.426	22.54
265.643	20.05
265.86	22.82
266.077	4.29
266.294	19.74
266.51	34.02
266.727	37.32
266.944	33.65
267.161	29.25
267.378	33.4
267.595	14.3
267.812	6.46
268.028	1.01
268.245	11.68
268.462	-1.41
268.679	23.53
268.896	25.72
269.112	29.11
269.329	20.41
269.546	39.75
269.763	32.93
269.979	22.39
270.196	17.31
270.413	15.39
270.629	-0.03
270.846	-8.73
271.063	1.09
271.279	7.62
271.496	9.17
271.712	14.12
271.929	19.51
272.146	22.83
272.362	18.85
272.579	12.43
272.795	3.84
273.012	-0.7
273.228	2.81
273.445	2.11
273.661	15.76
273.878	-2.23
274.094	-0.85
274.311	4.89
274.527	-8.02
274.744	-5.11
274.96	24.72
275.177	21.93
275.393	21.71
275.609	29.63
275.826	26.94
276.042	17.83
276.259	25.01
276.475	10.51
276.691	8.36
276.908	-1.72
277.124	4.22
277.34	-6.13
277.557	-9.18
277.773	-10.09
277.989	1.94
278.205	-1.93
278.422	-15
278.638	-11.14
278.854	-4.46
279.07	-2.46
279.286	-2.24
279.503	9.53
279.719	20.47
279.935	11.71
280.151	0.42
280.367	7.9
280.583	4.25
280.799	-6.39
281.016	-37.98
281.232	-27.9
281.448	-36.84
281.664	-17.27
281.88	-2.71
282.096	23.69
282.312	32.85
282.528	28.06
282.744	34.11
282.96	22.17
283.176	4.33
283.392	-24.28
283.608	-4.4
283.824	-55.93
284.04	-83.24
284.256	-35.3
284.471	-29.08
284.687	-30.87
284.903	-28.13
285.119	3.02
285.335	4.33
285.551	14.34
285.767	25.85
285.982	57.06
286.198	7.84
286.414	0.93
286.63	17.05
286.846	15.53
287.061	-3.79
287.277	3.47
287.493	17.24
287.709	26.59
287.924	19.67
288.14	41.84
288.356	45.06
288.571	27.37
288.787	5.43
289.003	9.3
289.218	-12.61
289.434	-8.56
289.65	6.53
289.865	9.26
290.081	8.07
290.296	9.28
290.512	3.45
290.727	6.36
290.943	7.94
291.159	4.51
291.374	-9.47
291.59	4.48
291.805	-21.41
292.021	-14.43
292.236	-18.92
292.451	3.8
292.667	-1.97
292.882	27.21
293.098	25.44
293.313	19.97
293.529	15.93
293.744	7.61
293.959	-13.28
294.175	-8.84
294.39	-21.84
294.605	2.13
294.821	2.17
295.036	14.64
295.251	18
295.467	24.07
295.682	21.08
295.897	21.56
296.112	13.4
296.328	6.3
296.543	-4.62
296.758	-4.63
296.973	-11.65
297.188	-11.9
297.404	-19.7
297.619	-21.59
297.834	-75.28
298.049	-51.33
298.264	-57.44
298.479	-33.61
298.694	17.76
298.909	35.36
299.125	40.97
299.34	40.18
299.555	36.54
299.77	32.92
299.985	29.64
300.2	27.04
300.415	27.26
300.63	20.94
300.845	7.19
301.06	-5.59
301.275	0.14
301.49	14.33
301.704	11.3
301.919	3.62
302.134	21.45
302.349	24.4
302.564	24.89
302.779	26.17
302.994	42.16
303.209	38.8
303.423	38.34
303.638	33.93
303.853	37.76
304.068	10.87
304.283	20.92
304.497	-0.04
304.712	7.38
304.927	9.42
305.142	16.53
305.356	10.39
305.571	11.17
305.786	11.49
306	16.48
306.215	15.2
306.43	14.36
306.644	19.12
306.859	14.28
307.074	19.41
307.288	9.51
307.503	18.89
307.717	2.87
307.932	16.32
308.147	0.52
308.361	-0.86
308.576	-29.26
308.79	-4.89
309.005	-39.59
309.219	-9.14
309.434	5.29
309.648	11.51
309.863	-7.69
310.077	-0.58
310.292	10.5
310.506	15.87
310.72	6.67
310.935	34.23
311.149	48.45
311.364	44.31
311.578	45.78
311.792	54.92
312.007	54.54
312.221	26.11
312.435	14.8
312.649	9.37
312.864	7.96
313.078	7.31
313.292	24.14
313.507	25.24
313.721	16.42
313.935	25.57
314.149	22.53
314.363	10.87
314.578	-0.39
314.792	-9.2
315.006	-22.49
315.22	-16.34
315.434	-10.32
315.648	4.29
315.862	10.31
316.077	12.94
316.291	17.57
316.505	5.65
316.719	-1.51
316.933	-16.79
317.147	-7.81
317.361	-11.3
317.575	6.97
317.789	4.73
318.003	1.22
318.217	11.79
318.431	9.51
318.645	4.42
318.859	13.53
319.073	29.91
319.287	17.12
319.5	16.92
319.714	4.81
319.928	-0.02
320.142	0.77
320.356	9.41
320.57	-23.05
320.784	-12.69
320.997	-40.96
321.211	-19.05
321.425	-30.9
321.639	5.12
321.853	11.99
322.066	17.95
322.28	-2.35
322.494	1.77
322.707	0.95
322.921	-0.33
323.135	10.39
323.349	14.32
323.562	10
323.776	6.43
323.989	16.22
324.203	0.61
324.417	3.87
324.63	-11.46
324.844	-14.88
325.057	-47.55
325.271	-27.88
325.485	-41.17
325.698	-8.37
325.912	-1.9
326.125	-0.03
326.339	8.95
326.552	7.38
326.766	-3.82
326.979	25.38
327.193	42.59
327.406	19.81
327.619	20.73
327.833	15.51
328.046	-0.9
328.26	-24.49
328.473	-4.51
328.686	-13.99
328.9	-3.72
329.113	-4.1
329.326	15
329.54	13.72
329.753	36.8
329.966	38.94
330.179	35.04
330.393	29.18
330.606	31.66
330.819	-3.9
331.032	-4.46
331.246	5.24
331.459	15.65
331.672	8.72
331.885	26.94
332.098	22.58
332.311	13.06
332.525	9.21
332.738	15.77
332.951	15.71
333.164	22.1
333.377	21.26
333.59	8.43
333.803	-4.1
334.016	-1.11
334.229	-2.36
334.442	-1.82
334.655	2.38
334.868	1.2
335.081	-6.38
335.294	-11.94
335.507	-3.25
335.72	14.54
335.933	13.52
336.146	22.07
336.359	29.65
336.572	35.23
336.785	39.49
336.997	36.7
337.21	33.36
337.423	6.17
337.636	3.96
337.849	-2.91
338.062	10.03
338.274	35.43
338.487	17.65
338.7	-7.97
338.913	10.06
339.125	-7.11
339.338	-31.58
339.551	-0.68
339.763	11.64
339.976	-8.81
340.189	10.46
340.402	27.74
340.614	15.35
340.827	25.56
341.039	36.67
341.252	21.23
341.465	9.4
341.677	32.15
341.89	13.27
342.102	3.88
342.315	13.8
342.527	13.26
342.74	-13.35
342.952	-18.83
343.165	-13.17
343.377	-1.63
343.59	9.78
343.802	10.63
344.015	36.12
344.227	31.8
344.44	8.62
344.652	-2.45
344.864	3.98
345.077	-6.88
345.289	3.44
345.502	24.86
345.714	39.97
345.926	59.71
346.139	46.44
346.351	37.63
346.563	33.73
346.775	18.37
346.988	3.5
347.2	13.66
347.412	26.89
347.624	15.77
347.837	17.69
348.049	17.2
348.261	-9.8
348.473	-25.51
348.685	-8.22
348.897	-1.3
349.11	-10.38
349.322	13.38
349.534	20.72
349.746	9.59
349.958	-4.76
350.17	2.12
350.382	-12.26
350.594	-5.12
350.806	7.93
351.018	15.74
351.23	22.24
351.442	37.72
351.654	39.51
351.866	20.05
352.078	29.51
352.29	18.76
352.502	5.42
352.714	-12.36
352.926	6
353.138	-0.33
353.35	-3.23
353.561	2.95
353.773	4.56
353.985	6.06
354.197	7.29
354.409	9.25
354.621	1.42
354.832	-4.73
355.044	-15.22
355.256	-18.56
355.468	-21.84
355.679	1.69
355.891	14.25
356.103	11.47
356.314	9.73
356.526	9.16
356.738	-4.27
356.949	-14.22
357.161	8.36
357.373	6.23
357.584	4.26
357.796	3.16
358.008	10.64
358.219	13.51
358.431	10.99
358.642	28.47
358.854	50.43
359.065	39.27
359.277	27.26
359.488	24.01
359.7	13.43
359.911	-19.66
360.123	3.69
360.334	-11.51
360.546	-4.51
360.757	0.86
360.969	1.61
361.18	-11.5
361.391	14.47
361.603	10.64
361.814	21.96
362.025	33.79
362.237	35.6
362.448	27.08
362.659	29.91
362.871	1.55
363.082	-6.79
363.293	-18.8
363.504	-35.08
363.716	-37.48
363.927	-2.84
364.138	-18.04
364.349	-22.17
364.56	-32.59
364.772	-23.73
364.983	-24.78
365.194	-1.92
365.405	3.45
365.616	29.81
365.827	20.61
366.038	37.92
366.25	28.74
366.461	29.45
366.672	28.1
366.883	31.33
367.094	13.03
367.305	18.32
367.516	10.41
367.727	-4.15
367.938	-2.83
368.149	6.16
368.36	9.87
368.571	3.12
368.781	-10.98
368.992	-9.43
369.203	-10.51
369.414	-24.32
369.625	-18.01
369.836	2.15
370.047	0.68
370.258	10.02
370.468	1.22
370.679	-7.82
370.89	-17.22
371.101	-3.38
371.312	-19.06
371.522	1.49
371.733	13.35
371.944	-0.02
372.155	-16.64
372.365	-11.77
372.576	-24.68
372.787	-20.53
372.997	-6.96
373.208	12.3
373.419	13.14
373.629	11.26
373.84	16.64
374.05	10.36
374.261	-4.38
374.472	1.8
374.682	4.52
374.893	-7.6
375.103	4.53
375.314	16.2
375.524	9.87
375.735	22.21
375.945	29.2
376.156	23.43
376.366	25.8
376.577	24.32
376.787	21.62
376.997	19.25
377.208	17.36
377.418	11.42
377.629	16.31
377.839	17.51
378.049	25.15
378.26	23.04
378.47	26.64
378.68	23.78
378.89	10.92
379.101	-0.02
379.311	3.93
379.521	-4.35
379.732	-6.25
379.942	-4.66
380.152	-12.9
380.362	-19.74
380.572	-9
380.783	-5.46
380.993	9.62
381.203	19.37
381.413	22.54
381.623	24.34
381.833	25.75
382.043	13.49
382.253	13.47
382.463	23.3
382.674	18.63
382.884	17.6
383.094	19.08
383.304	19.1
383.514	16.19
383.724	14.92
383.934	2.87
384.144	8.94
384.353	6.96
384.563	1.24
384.773	5.27
384.983	4.2
385.193	-0.33
385.403	1.9
385.613	8.78
385.823	1.98
386.033	11.57
386.242	7.03
386.452	6.72
386.662	0.49
386.872	4.89
387.082	-0.47
387.291	-2.9
387.501	-3.29
387.711	-3.3
387.921	-2.65
388.13	2.48
388.34	5.4
388.55	3.87
388.759	0.62
388.969	2.84
389.179	3.4
389.388	3.99
389.598	2.31
389.807	4.39
390.017	0.21
390.227	-4.9
390.436	-4.95
390.646	-1.8
390.855	0.61
391.065	1.33
391.274	3.92
391.484	3.37
391.693	0.86
391.903	-2.54
392.112	0.78
392.322	-1.65
392.531	-0.4
392.74	0.71
392.95	1.6
393.159	-0.7
393.369	1.45
393.578	1.95
393.787	0.71
393.997	2.14
394.206	0.65
394.415	-0.32
394.625	-0.61
394.834	-0.82
395.043	-1.04
395.252	1.47
395.462	2.07
395.671	2.61
395.88	3.35
396.089	3
396.298	2.35
396.508	2.37
396.717	1.85
396.926	1.64
397.135	2.06
397.344	2.13
397.553	2.13
397.762	2.92
397.971	3.12
398.181	2.82
398.39	2.11
398.599	2.62
398.808	2.46
399.017	3.14
399.226	3.4
399.435	3.46
399.644	2.86
399.853	2.38
400.062	1.69
400.27	1.51
400.479	2.03
400.688	2.1
400.897	1.94
401.106	2.35
401.315	2.19
401.524	1.83
401.733	1.42
401.941	1.81
402.15	1.44
402.359	1.46
402.568	1.89
402.777	2.26
402.985	1.79
403.194	1.67
403.403	1.89
403.612	1.55
403.82	1.17
404.029	1.56
404.238	1.64
404.446	1.75
404.655	1.87
404.864	2.13
405.072	2
405.281	2.04
405.489	1.63
405.698	1.56
405.906	1.65
406.115	1.51
406.324	1.56
406.532	1.85
406.741	1.79
406.949	1.8
407.158	1.94
407.366	1.75
407.574	1.7
407.783	1.83
407.991	1.75
408.2	1.74
408.408	1.97
408.617	1.89
408.825	1.75
409.033	1.71
409.242	1.82
409.45	1.75
409.658	1.75
409.867	1.85
410.075	1.95
410.283	1.87
410.491	1.72
410.7	1.67
410.908	1.73
411.116	1.64
411.324	1.53
411.533	1.59
411.741	1.71
411.949	1.67
412.157	1.62
412.365	1.75
412.573	1.77
412.781	1.52
412.99	1.41
413.198	1.51
413.406	1.45
413.614	1.5
413.822	1.67
414.03	1.73
414.238	1.82
414.446	1.91
414.654	1.75
414.862	1.76
415.07	1.68
415.278	1.72
415.486	1.48
415.694	1.53
415.902	1.42
416.109	1.36
416.317	1.32
416.525	1.42
416.733	1.51
416.941	1.63
417.149	1.71
417.357	1.58
417.564	1.59
417.772	1.65
417.98	1.61
418.188	1.54
418.395	1.47
418.603	1.38
418.811	1.21
419.019	1.19
419.226	1.31
419.434	1.32
419.642	1.33
419.849	1.43
420.057	1.47
420.265	1.5
420.472	1.51
420.68	1.6
420.887	1.51
421.095	1.5
421.302	1.55
421.51	1.59
421.717	1.63
421.925	1.72
422.132	1.69
422.34	1.44
422.547	1.32
422.755	1.37
422.962	1.31
423.17	1.27
423.377	1.25
423.585	1.54
423.792	1.34
423.999	1.41
424.207	1.38
424.414	1.43
424.621	1.27
424.829	1.35
425.036	1.37
425.243	1.51
425.451	1.6
425.658	1.48
425.865	1.52
426.072	1.49
426.28	1.42
426.487	1.42
426.694	1.41
426.901	1.47
427.108	1.4
427.315	1.42
427.523	1.22
427.73	1.32
427.937	1.23
428.144	1.2
428.351	1.13
428.558	1.37
428.765	1.42
428.972	1.39
429.179	1.34
429.386	1.36
429.593	1.26
429.8	1.05
430.007	1.14
430.214	1.19
430.421	1.23
430.628	1.25
430.835	1.32
431.042	1.16
431.249	1.17
431.456	1.19
431.662	1.28
431.869	1.47
432.076	1.5
432.283	1.59
432.49	1.58
432.697	1.38
432.903	1.31
433.11	1.39
433.317	1.44
433.524	1.47
433.73	1.53
433.937	1.51
434.144	1.41
434.35	1.26
434.557	1.26
434.764	1.27
434.97	1.15
435.177	1.33
435.384	1.41
435.59	1.5
435.797	1.66
436.003	1.79
436.21	1.63
436.416	1.58
436.623	1.5
436.829	1.42
437.036	1.38
437.242	1.43
437.449	1.47
437.655	1.5
437.862	1.58
438.068	1.52
438.275	1.65
438.481	1.7
438.687	1.61
438.894	1.57
439.1	1.67
439.307	1.68
439.513	1.68
439.719	1.73
439.926	1.79
440.132	1.88
440.338	1.92
440.544	1.8
440.751	1.76
440.957	1.72
441.163	1.53
441.369	1.4
441.575	1.4
441.782	1.46
441.988	1.47
442.194	1.49
442.4	1.5
442.606	1.66
442.812	1.62
443.018	1.65
443.224	1.82
443.431	1.87
443.637	1.77
443.843	1.82
444.049	1.78
444.255	1.73
444.461	1.72
444.667	1.77
444.873	1.8
445.079	1.78
445.284	1.77
445.49	1.72
445.696	1.69
445.902	1.66
446.108	1.84
446.314	1.86
446.52	1.98
446.726	2.05
446.931	2.04
447.137	1.92
447.343	1.94
447.549	1.93
447.755	1.9
447.96	1.9
448.166	1.95
448.372	1.95
448.578	1.84
448.783	1.87
448.989	1.99
449.195	1.97
449.4	1.97
449.606	2.02
449.812	1.94
450.017	1.91
450.223	1.87
450.428	1.84
450.634	1.86
450.84	1.89
451.045	1.86
451.251	1.89
451.456	1.93
451.662	1.89
451.867	1.98
452.073	1.98
452.278	2.01
452.483	1.95
452.689	1.92
452.894	1.9
453.1	1.86
453.305	1.85
453.51	1.94
453.716	1.99
453.921	2.03
454.127	2.06
454.332	1.97
454.537	1.95
454.742	1.93
454.948	1.82
455.153	1.79
455.358	1.86
455.563	1.93
455.769	1.94
455.974	2.01
456.179	2
456.384	1.95
456.589	1.81
456.795	1.8
457	1.75
457.205	1.76
457.41	1.76
457.615	1.79
457.82	1.9
458.025	1.9
458.23	1.91
458.435	1.96
458.64	2
458.845	1.98
459.05	2.1
459.255	2.07
459.46	2.12
459.665	2.07
459.87	2.03
460.075	2.06
460.28	2.1
460.485	2.12
460.69	2.12
460.895	2.17
461.099	1.98
461.304	1.98
461.509	1.92
461.714	1.96
461.919	1.91
462.123	2.01
462.328	1.96
462.533	1.89
462.738	1.83
462.942	1.76
463.147	1.76
463.352	1.83
463.556	1.92
463.761	2
463.966	2.05
464.17	2.12
464.375	2.15
464.58	2.08
464.784	2.06
464.989	2.08
465.193	2.05
465.398	1.99
465.602	2.11
465.807	2.14
466.011	2.11
466.216	1.97
466.42	2.02
466.625	2.12
466.829	2.13
467.034	2.21
467.238	2.38
467.443	2.44
467.647	2.3
467.851	2.35
468.056	2.33
468.26	2.35
468.464	2.32
468.669	2.41
468.873	2.38
469.077	2.38
469.282	2.36
469.486	2.23
469.69	2.15
469.894	2.16
470.099	2.17
470.303	2.12
470.507	2.22
470.711	2.26
470.915	2.26
471.119	2.34
471.324	2.46
471.528	2.49
471.732	2.51
471.936	2.52
472.14	2.44
472.344	2.48
472.548	2.46
472.752	2.43
472.956	2.48
473.16	2.49
473.364	2.47
473.568	2.51
473.772	2.44
473.976	2.45
474.18	2.44
474.384	2.34
474.588	2.37
474.792	2.46
474.995	2.41
475.199	2.49
475.403	2.58
475.607	2.49
475.811	2.51
476.015	2.49
476.218	2.47
476.422	2.45
476.626	2.52
476.83	2.58
477.033	2.66
477.237	2.67
477.441	2.68
477.644	2.64
477.848	2.64
478.052	2.58
478.255	2.59
478.459	2.55
478.663	2.66
478.866	2.69
479.07	2.69
479.273	2.77
479.477	2.82
479.681	2.82
479.884	2.75
480.088	2.78
480.291	2.71
480.495	2.68
480.698	2.68
480.901	2.71
481.105	2.76
481.308	2.77
481.512	2.83
481.715	2.9
481.919	2.95
482.122	2.95
482.325	3.02
482.529	3.06
482.732	2.94
482.935	2.91
483.138	2.83
483.342	2.79
483.545	2.82
483.748	2.92
483.952	2.97
484.155	3.03
484.358	3.07
484.561	2.98
484.764	2.95
484.967	2.91
485.171	2.93
485.374	2.87
485.577	2.9
485.78	2.91
485.983	2.9
486.186	2.88
486.389	2.9
486.592	2.91
486.795	2.92
486.998	2.91
487.201	2.92
487.404	3.02
487.607	3.06
487.81	3.04
488.013	3.11
488.216	3.1
488.419	3.02
488.622	2.95
488.825	2.96
489.028	2.93
489.231	2.93
489.433	2.95
489.636	2.97
489.839	3.03
490.042	3.02
490.245	3.03
490.447	3.02
490.65	3.09
490.853	3.04
491.056	3.04
491.258	3.05
491.461	3.02
491.664	2.96
491.866	2.86
492.069	2.94
492.272	2.9
492.474	3
492.677	3.05
492.879	3.15
493.082	3.17
493.285	3.24
493.487	3.2
493.69	3.21
493.892	3.18
494.095	3.22
494.297	3.25
494.5	3.27
494.702	3.28
494.905	3.32
495.107	3.27
495.309	3.28
495.512	3.28
495.714	3.32
495.917	3.39
496.119	3.43
496.321	3.46
496.524	3.38
496.726	3.33
496.928	3.27
497.13	3.25
497.333	3.2
497.535	3.3
497.737	3.32
497.939	3.37
498.142	3.37
498.344	3.4
498.546	3.41
498.748	3.49
498.95	3.54
499.152	3.54
499.355	3.52
499.557	3.58
499.759	3.67
499.961	3.65
500.163	3.7
500.365	3.82
500.567	3.72
500.769	3.65
500.971	3.69
501.173	3.62
501.375	3.67
501.577	3.75
501.779	3.76
501.981	3.72
502.183	3.78
502.385	3.81
502.587	3.8
502.788	3.86
502.99	3.88
503.192	3.97
503.394	3.91
503.596	3.94
503.798	3.91
503.999	4.01
504.201	3.93
504.403	4
504.605	4.08
504.806	4.13
505.008	4.11
505.21	4.2
505.411	4.2
505.613	4.1
505.815	4.13
506.016	4.18
506.218	4.24
506.42	4.27
506.621	4.4
506.823	4.38
507.024	4.39
507.226	4.37
507.427	4.39
507.629	4.39
507.83	4.46
508.032	4.42
508.233	4.47
508.435	4.5
508.636	4.59
508.838	4.61
509.039	4.7
509.24	4.71
509.442	4.75
509.643	4.68
509.845	4.72
510.046	4.78
510.247	4.85
510.448	4.9
510.65	4.97
510.851	5.02
511.052	5.01
511.254	5.02
511.455	4.98
511.656	4.96
511.857	4.9
512.058	4.93
512.26	4.9
512.461	4.94
512.662	5.02
512.863	5.04
513.064	5.03
513.265	5.03
513.466	5.06
513.667	5.08
513.868	5.14
514.069	5.17
514.27	5.22
514.471	5.17
514.672	5.18
514.873	5.17
515.074	5.21
515.275	5.15
515.476	5.23
515.677	5.25
515.878	5.27
516.079	5.25
516.28	5.33
516.481	5.29
516.682	5.25
516.882	5.28
517.083	5.31
517.284	5.33
517.485	5.32
517.686	5.38
517.886	5.35
518.087	5.31
518.288	5.26
518.488	5.25
518.689	5.23
518.89	5.23
519.091	5.3
519.291	5.36
519.492	5.43
519.692	5.45
519.893	5.48
520.094	5.44
520.294	5.45
520.495	5.43
520.695	5.45
520.896	5.45
521.096	5.48
521.297	5.49
521.497	5.47
521.698	5.45
521.898	5.43
522.099	5.47
522.299	5.42
522.499	5.44
522.7	5.46
522.9	5.47
523.101	5.42
523.301	5.44
523.501	5.48
523.702	5.48
523.902	5.51
524.102	5.6
524.302	5.65
524.503	5.63
524.703	5.61
524.903	5.6
525.103	5.52
525.304	5.5
525.504	5.5
525.704	5.52
525.904	5.49
526.104	5.51
526.304	5.51
526.504	5.53
526.705	5.53
526.905	5.58
527.105	5.58
527.305	5.57
527.505	5.52
527.705	5.49
527.905	5.53
528.105	5.52
528.305	5.55
528.505	5.58
528.705	5.69
528.905	5.67
529.105	5.76
529.304	5.75
529.504	5.82
529.704	5.78
529.904	5.8
530.104	5.74
530.304	5.8
530.503	5.77
530.703	5.78
530.903	5.76
531.103	5.87
531.303	5.85
531.502	5.92
531.702	5.95
531.902	6.04
532.101	5.99
532.301	6.03
532.501	6.07
532.7	6.07
532.9	6.01
533.1	6.03
533.299	6.02
533.499	5.94
533.698	5.98
533.898	6.04
534.097	6.06
534.297	6.09
534.496	6.11
534.696	6.09
534.895	6.1
535.095	6.08
535.294	6.11
535.494	6.12
535.693	6.18
535.892	6.21
536.092	6.25
536.291	6.27
536.491	6.35
536.69	6.33
536.889	6.28
537.088	6.28
537.288	6.3
537.487	6.33
537.686	6.36
537.886	6.42
538.085	6.47
538.284	6.5
538.483	6.48
538.682	6.49
538.882	6.5
539.081	6.52
539.28	6.51
539.479	6.54
539.678	6.56
539.877	6.59
540.076	6.58
540.275	6.6
540.474	6.62
540.673	6.69
540.872	6.74
541.071	6.75
541.27	6.8
541.469	6.8
541.668	6.76
541.867	6.77
542.066	6.86
542.265	6.9
542.464	6.95
542.663	7.03
542.862	7.06
543.06	7.1
543.259	7.18
543.458	7.24
543.657	7.3
543.856	7.37
544.054	7.36
544.253	7.35
544.452	7.38
544.651	7.42
544.849	7.41
545.048	7.49
545.247	7.54
545.445	7.53
545.644	7.55
545.843	7.6
546.041	7.65
546.24	7.66
546.438	7.73
546.637	7.79
546.836	7.81
547.034	7.83
547.233	7.92
547.431	7.95
547.63	7.97
547.828	8.01
548.027	8.07
548.225	8.07
548.423	8.17
548.622	8.24
548.82	8.32
549.019	8.37
549.217	8.44
549.415	8.48
549.614	8.6
549.812	8.65
550.01	8.66
550.209	8.69
550.407	8.76
550.605	8.64
550.803	8.71
551.002	8.84
551.2	8.87
551.398	8.95
551.596	9.13
551.794	9.21
551.993	9.3
552.191	9.41
552.389	9.44
552.587	9.53
552.785	9.56
552.983	9.62
553.181	9.7
553.379	9.79
553.577	9.77
553.775	9.91
553.973	9.98
554.171	10.02
554.369	10.16
554.567	10.35
554.765	10.33
554.963	10.33
555.161	10.44
555.359	10.49
555.557	10.46
555.755	10.64
555.952	10.8
556.15	10.85
556.348	10.94
556.546	11.14
556.744	11.17
556.941	11.14
557.139	11.3
557.337	11.39
557.535	11.38
557.732	11.43
557.93	11.62
558.128	11.64
558.325	11.69
558.523	11.87
558.721	12.05
558.918	12.18
559.116	12.36
559.313	12.51
559.511	12.6
559.708	12.69
559.906	12.72
560.104	12.81
560.301	12.96
560.498	13.12
560.696	13.16
560.893	13.3
561.091	13.32
561.288	13.4
561.486	13.41
561.683	13.59
561.88	13.67
562.078	13.89
562.275	13.95
562.473	14.04
562.67	14.08
562.867	14.2
563.064	14.3
563.262	14.41
563.459	14.57
563.656	14.69
563.853	14.75
564.051	14.85
564.248	14.94
564.445	15.01
564.642	15.15
564.839	15.27
565.036	15.43
565.234	15.57
565.431	15.71
565.628	15.75
565.825	15.92
566.022	15.97
566.219	16.08
566.416	16.18
566.613	16.32
566.81	16.39
567.007	16.46
567.204	16.51
567.401	16.57
567.598	16.67
567.795	16.69
567.991	16.74
568.188	16.81
568.385	16.9
568.582	16.99
568.779	17.1
568.976	17.22
569.172	17.36
569.369	17.49
569.566	17.56
569.763	17.57
569.96	17.59
570.156	17.63
570.353	17.61
570.55	17.68
570.746	17.88
570.943	17.97
571.14	18.04
571.336	18.14
571.533	18.13
571.729	18.14
571.926	18.27
572.123	18.34
572.319	18.38
572.516	18.53
572.712	18.59
572.909	18.56
573.105	18.61
573.302	18.71
573.498	18.67
573.695	18.7
573.891	18.74
574.087	18.69
574.284	18.64
574.48	18.7
574.677	18.78
574.873	18.79
575.069	18.89
575.266	19.02
575.462	19
575.658	18.97
575.854	19.04
576.051	19.07
576.247	18.95
576.443	18.99
576.639	19.01
576.835	19.01
577.032	18.99
577.228	19.1
577.424	19.08
577.62	19.08
577.816	19.12
578.012	19.08
578.208	19.1
578.404	19.15
578.6	19.17
578.796	19.14
578.993	19.19
579.189	19.23
579.384	19.21
579.58	19.23
579.776	19.22
579.972	19.22
580.168	19.12
580.364	19.18
580.56	19.11
580.756	19.08
580.952	19.05
581.148	19.04
581.343	19
581.539	19.04
581.735	19.05
581.931	19.07
582.127	19.13
582.322	19.08
582.518	19.13
582.714	19.09
582.909	19.1
583.105	19.03
583.301	19.05
583.496	18.96
583.692	18.91
583.888	18.8
584.083	18.85
584.279	18.79
584.474	18.73
584.67	18.75
584.866	18.8
585.061	18.75
585.257	18.85
585.452	18.88
585.648	18.87
585.843	18.86
586.039	18.87
586.234	18.83
586.429	18.81
586.625	18.92
586.82	18.92
587.015	18.93
587.211	18.92
587.406	18.92
587.601	18.94
587.797	18.99
587.992	18.99
588.187	18.97
588.383	19.09
588.578	19.03
588.773	19.09
588.968	19.16
589.163	19.24
589.359	19.15
589.554	19.14
589.749	19.13
589.944	19.1
590.139	19.09
590.334	19.2
590.529	19.3
590.724	19.3
590.919	19.41
591.114	19.46
591.309	19.47
591.504	19.48
591.699	19.57
591.894	19.48
592.089	19.53
592.284	19.55
592.479	19.57
592.674	19.57
592.869	19.63
593.064	19.63
593.259	19.67
593.454	19.68
593.648	19.73
593.843	19.77
594.038	19.93
594.233	20.04
594.428	20.11
594.622	20.18
594.817	20.3
595.012	20.24
595.206	20.29
595.401	20.44
595.596	20.55
595.79	20.59
595.985	20.71
596.18	20.82
596.374	20.89
596.569	20.97
596.763	21.07
596.958	21.21
597.153	21.22
597.347	21.27
597.542	21.4
597.736	21.47
597.931	21.49
598.125	21.62
598.319	21.76
598.514	21.75
598.708	21.85
598.903	21.99
599.097	21.98
599.291	21.97
599.486	22.07
599.68	22.12
599.874	22.1
600.069	22.22
600.263	22.36
600.457	22.26
600.651	22.23
600.846	22.32
601.04	22.28
601.234	22.26
601.428	22.35
601.622	22.42
601.817	22.4
602.011	22.46
602.205	22.5
602.399	22.63
602.593	22.77
602.787	22.79
602.981	22.7
603.175	22.78
603.369	22.73
603.563	22.65
603.757	22.59
603.951	22.66
604.145	22.54
604.339	22.56
604.533	22.57
604.727	22.63
604.921	22.62
605.115	22.61
605.309	22.51
605.502	22.43
605.696	22.46
605.89	22.42
606.084	22.36
606.278	22.34
606.471	22.32
606.665	22.23
606.859	22.14
607.053	22.14
607.246	22.1
607.44	22.02
607.634	21.9
607.827	21.87
608.021	21.73
608.214	21.73
608.408	21.69
608.602	21.59
608.795	21.62
608.989	21.7
609.182	21.61
609.376	21.6
609.569	21.66
609.763	21.58
609.956	21.44
610.15	21.33
610.343	21.23
610.537	21.12
610.73	20.95
610.923	20.91
611.117	20.84
611.31	20.73
611.504	20.64
611.697	20.58
611.89	20.44
612.083	20.35
612.277	20.32
612.47	20.18
612.663	20.12
612.856	20.06
613.05	19.96
613.243	19.82
613.436	19.86
613.629	19.76
613.822	19.65
614.015	19.53
614.209	19.5
614.402	19.4
614.595	19.4
614.788	19.4
614.981	19.36
615.174	19.23
615.367	19.14
615.56	18.97
615.753	18.95
615.946	18.93
616.139	18.93
616.332	18.87
616.525	18.84
616.718	18.7
616.911	18.67
617.103	18.72
617.296	18.66
617.489	18.57
617.682	18.63
617.875	18.59
618.067	18.39
618.26	18.28
618.453	18.27
618.646	18.18
618.838	18.05
619.031	18.04
619.224	18.13
619.417	18.11
619.609	17.98
619.802	17.96
619.994	18
620.187	17.86
620.38	17.82
620.572	17.9
620.765	17.96
620.957	17.81
621.15	17.83
621.342	17.77
621.535	17.66
621.727	17.55
621.92	17.56
622.112	17.5
622.305	17.52
622.497	17.51
622.69	17.49
622.882	17.54
623.074	17.61
623.267	17.61
623.459	17.53
623.651	17.52
623.844	17.53
624.036	17.46
624.228	17.36
624.42	17.34
624.613	17.3
624.805	17.12
624.997	17.11
625.189	17.19
625.381	17.19
625.574	17.13
625.766	17.12
625.958	17.1
626.15	16.99
626.342	17
626.534	16.96
626.726	17.01
626.918	16.93
627.11	16.88
627.302	16.84
627.494	16.87
627.686	16.76
627.878	16.7
628.07	16.74
628.262	16.8
628.454	16.76
628.646	16.77
628.838	16.83
629.029	16.69
629.221	16.56
629.413	16.49
629.605	16.41
629.797	16.37
629.989	16.44
630.18	16.47
630.372	16.5
630.564	16.49
630.755	16.48
630.947	16.36
631.139	16.21
631.33	16.12
631.522	16.11
631.714	16.03
631.905	16.02
632.097	16.05
632.289	15.96
632.48	15.9
632.672	15.91
632.863	15.83
633.055	15.76
633.246	15.84
633.438	15.89
633.629	15.9
633.821	15.95
634.012	15.98
634.203	15.91
634.395	15.85
634.586	15.75
634.777	15.73
634.969	15.75
635.16	15.72
635.351	15.68
635.543	15.62
635.734	15.62
635.925	15.54
636.117	15.59
636.308	15.61
636.499	15.59
636.69	15.6
636.881	15.56
637.073	15.6
637.264	15.58
637.455	15.61
637.646	15.55
637.837	15.57
638.028	15.46
638.219	15.47
638.41	15.46
638.601	15.52
638.792	15.57
638.983	15.57
639.174	15.46
639.365	15.44
639.556	15.29
639.747	15.18
639.938	15.22
640.129	15.29
640.32	15.25
640.511	15.3
640.701	15.33
640.892	15.27
641.083	15.18
641.274	15.16
641.465	15.1
641.655	15.05
641.846	15.03
642.037	14.98
642.228	14.93
642.418	14.81
642.609	14.8
642.8	14.77
642.99	14.81
643.181	14.86
643.372	14.94
643.562	14.84
643.753	14.85
643.943	14.78
644.134	14.62
644.324	14.62
644.515	14.67
644.705	14.64
644.896	14.71
645.086	14.76
645.277	14.67
645.467	14.58
645.658	14.45
645.848	14.35
646.038	14.35
646.229	14.35
646.419	14.35
646.61	14.41
646.8	14.39
646.99	14.37
647.18	14.36
647.371	14.41
647.561	14.29
647.751	14.27
647.941	14.23
648.132	14.16
648.322	14.03
648.512	14.09
648.702	14.14
648.892	14.08
649.082	14.09
649.272	14.1
649.462	14.07
649.653	13.96
649.843	13.92
650.033	13.94
650.223	13.92
650.413	13.89
650.603	13.89
650.793	13.9
650.983	13.88
651.172	13.88
651.362	13.79
651.552	13.71
651.742	13.61
651.932	13.54
652.122	13.54
652.312	13.46
652.502	13.38
652.691	13.36
652.881	13.28
653.071	13.22
653.261	13.18
653.45	13.13
653.64	13.12
653.83	13.03
654.019	12.86
654.209	12.78
654.399	12.7
654.588	12.55
654.778	12.4
654.968	12.35
655.157	12.2
655.347	12.07
655.536	11.88
655.726	11.74
655.915	11.59
656.105	11.48
656.294	11.28
656.484	11.18
656.673	11.1
656.863	10.96
657.052	10.79
657.241	10.77
657.431	10.67
657.62	10.57
657.809	10.4
657.999	10.32
658.188	10.2
658.377	10.05
658.567	9.89
658.756	9.73
658.945	9.52
659.134	9.3
659.324	9.15
659.513	8.97
659.702	8.85
659.891	8.77
660.08	8.61
660.269	8.5
660.458	8.35
660.648	8.18
660.837	8.03
661.026	7.78
661.215	7.62
661.404	7.54
661.593	7.48
661.782	7.34
661.971	7.26
662.16	7.16
662.349	7.01
662.538	6.9
662.726	6.79
662.915	6.74
663.104	6.58
663.293	6.53
663.482	6.45
663.671	6.33
663.86	6.36
664.048	6.36
664.237	6.26
664.426	6.09
664.615	6.1
664.803	5.94
664.992	5.81
665.181	5.7
665.369	5.66
665.558	5.56
665.747	5.57
665.935	5.6
666.124	5.71
666.312	5.57
666.501	5.56
666.69	5.49
666.878	5.38
667.067	5.23
667.255	5.35
667.444	5.48
667.632	5.55
667.82	5.63
668.009	5.63
668.197	5.67
668.386	5.56
668.574	5.49
668.762	5.32
668.951	5.33
669.139	5.16
669.327	5.08
669.516	5.13
669.704	5.25
669.892	5.25
670.08	5.35
670.269	5.43
670.457	5.38
670.645	5.25
670.833	5.26
671.021	5.4
671.21	5.43
671.398	5.49
671.586	5.64
671.774	5.81
671.962	5.74
672.15	5.74
672.338	5.81
672.526	5.88
672.714	5.81
672.902	5.83
673.09	5.97
673.278	6
673.466	6.06
673.654	6.14
673.842	6.29
674.03	6.29
674.218	6.36
674.405	6.32
674.593	6.45
674.781	6.6
674.969	6.72
675.157	6.86
675.344	7.07
675.532	6.99
675.72	6.89
675.908	6.83
676.095	6.85
676.283	6.86
676.471	7.02
676.658	7.16
676.846	7.24
677.033	7.22
677.221	7.27
677.409	7.3
677.596	7.26
677.784	7.41
677.971	7.4
678.159	7.52
678.346	7.55
678.534	7.7
678.721	7.87
678.909	8.09
679.096	8.18
679.283	8.25
679.471	8.34
679.658	8.3
679.846	8.35
680.033	8.52
680.22	8.82
680.408	8.82
680.595	8.94
680.782	9.07
680.969	9.12
681.157	9
681.344	9.17
681.531	9.24
681.718	9.42
681.905	9.52
682.093	9.81
682.28	9.98
682.467	10.21
682.654	10.23
682.841	10.33
683.028	10.3
683.215	10.45
683.402	10.47
683.589	10.71
683.776	10.92
683.963	11.15
684.15	11.33
684.337	11.67
684.524	11.84
684.711	12.08
684.898	12.38
685.085	12.6
685.271	12.84
685.458	13.15
685.645	13.38
685.832	13.63
686.019	13.8
686.205	14.03
686.392	14.35
686.579	14.74
686.766	15.14
686.952	15.54
687.139	15.88
687.326	16.27
687.512	16.51
687.699	16.85
687.886	17.16
688.072	17.7
688.259	17.94
688.445	18.59
688.632	19.09
688.818	19.68
689.005	19.95
689.191	20.64
689.378	20.91
689.564	21.43
689.751	21.95
689.937	22.72
690.124	23.21
690.31	23.73
690.496	24.25
690.683	24.96
690.869	25.45
691.055	26.01
691.242	26.72
691.428	27.43
691.614	28.13
691.8	28.77
691.987	29.61
692.173	30.59
692.359	31.29
692.545	32.12
692.731	32.76
692.918	33.22
693.104	33.84
693.29	34.37
693.476	35.06
693.662	36.03
693.848	36.86
694.034	37.6
694.22	38.4
694.406	38.79
694.592	39.36
694.778	40.12
694.964	40.65
695.15	41.3
695.336	42.13
695.522	42.6
695.708	43.29
695.894	44.12
696.08	44.71
696.265	45.49
696.451	46.39
696.637	47.08
696.823	47.66
697.009	48.6
697.194	49.37
697.38	50
697.566	50.39
697.751	51.08
697.937	51.78
698.123	52.21
698.308	52.56
698.494	53.46
698.68	53.84
698.865	54.16
699.051	54.75
699.236	55.62
699.422	56
699.607	56.81
699.793	57.84
699.978	58.18
700.164	58.54
700.349	59.3
700.535	59.38
700.72	59.52
700.906	60.24
701.091	60.74
701.276	61.15
701.462	61.95
701.647	62.57
701.832	63.12
702.018	63.86
702.203	64.48
702.388	64.88
702.573	65.15
702.759	65.41
702.944	65.42
703.129	65.63
703.314	65.86
703.499	66.12
703.684	66.63
703.87	67.25
704.055	67.88
704.24	68.59
704.425	69.12
704.61	69.21
704.795	69.56
704.98	69.4
705.165	69.57
705.35	69.86
705.535	70.12
705.72	70.33
705.905	70.71
706.09	71.14
706.275	71.26
706.459	71.72
706.644	72.1
706.829	72.68
707.014	72.87
707.199	73.42
707.384	73.7
707.568	73.63
707.753	73.76
707.938	73.97
708.123	74.27
708.307	74.72
708.492	75.26
708.677	75.47
708.861	75.52
709.046	75.22
709.231	74.97
709.415	75.28
709.6	74.95
709.784	75.27
709.969	75.76
710.153	75.73
710.338	76.03
710.522	76.72
710.707	76.75
710.891	76.78
711.076	77.07
711.26	77.18
711.445	77.17
711.629	77.27
711.813	77.82
711.998	78.34
712.182	78.03
712.366	78.54
712.551	79.07
712.735	78.85
712.919	79.34
713.103	79.96
713.288	79.98
713.472	80.08
713.656	80.23
713.84	80.26
714.024	80.21
714.208	80.18
714.393	80.32
714.577	80.65
714.761	80.51
714.945	80.48
715.129	80.66
715.313	80.94
715.497	80.85
715.681	80.77
715.865	80.69
716.049	80.93
716.233	80.52
716.417	80.55
716.601	80.89
716.785	81.24
716.968	81.08
717.152	81.38
717.336	81.73
717.52	81.59
717.704	81.6
717.888	82.07
718.071	81.96
718.255	81.97
718.439	82.18
718.622	82.48
718.806	82.16
718.99	82.17
719.174	82.43
719.357	82.15
719.541	82.54
719.724	82.86
719.908	82.93
720.092	82.67
720.275	83.05
720.459	82.78
720.642	82.81
720.826	82.42
721.009	82.62
721.193	82.35
721.376	82.38
721.559	82.69
721.743	83.62
721.926	83.97
722.11	84.39
722.293	84.91
722.476	84.56
722.66	84.73
722.843	84.69
723.026	85.05
723.21	84.79
723.393	85.45
723.576	85.53
723.759	85.54
723.942	85.38
724.126	85.55
724.309	85.3
724.492	85.42
724.675	85.03
724.858	85.59
725.041	85.57
725.224	85.71
725.407	85.18
725.59	85.77
725.774	85.54
725.957	85.63
726.14	85.7
726.322	86.19
726.505	86.53
726.688	86.63
726.871	86.16
727.054	86.59
727.237	86.65
727.42	86.17
727.603	86.07
727.786	87.06
727.968	86.63
728.151	86.57
728.334	87.18
728.517	87.46
728.699	87.25
728.882	87.3
729.065	86.92
729.248	86.79
729.43	87
729.613	87.32
729.796	87.61
729.978	88.06
730.161	87.73
730.343	87.93
730.526	87.62
730.708	87.72
730.891	87.99
731.073	88.56
731.256	88.45
731.438	89.26
731.621	89.56
731.803	89.73
731.986	89.45
732.168	89.73
732.35	89.18
732.533	88.46
732.715	88.34
732.898	88.74
733.08	88.38
733.262	88.12
733.444	89.08
733.627	89.46
733.809	89.46
733.991	89.84
734.173	90.02
734.355	89.02
734.538	89.59
734.72	89.72
734.902	90.14
735.084	90.41
735.266	91.25
735.448	91.05
735.63	91.89
735.812	91.67
735.994	91.51
736.176	91.26
736.358	92.07
736.54	91.75
736.722	91.47
736.904	91.58
737.086	91.05
737.268	90.68
737.45	91.04
737.632	91.13
737.814	90.99
737.995	92.3
738.177	92.07
738.359	91.8
738.541	92.64
738.723	93.53
738.904	93.26
739.086	93.46
739.268	93.37
739.449	92.61
739.631	92.73
739.813	92.51
739.994	92.03
740.176	92.36
740.358	93.49
740.539	93.09
740.721	93.76
740.902	93.64
741.084	93.45
741.265	92.72
741.447	93.2
741.628	93.37
741.81	94.23
741.991	94.87
742.172	95.01
742.354	95.24
742.535	94.68
742.717	93.47
742.898	93.04
743.079	93.35
743.261	92.89
743.442	91.7
743.623	91.97
743.804	90.97
743.986	90.15
744.167	90.39
744.348	90.88
744.529	91.26
744.71	92.47
744.891	92.15
745.073	91.57
745.254	92.16
745.435	92.27
745.616	91.85
745.797	92.16
745.978	92.05
746.159	91.76
746.34	92.95
746.521	92.5
746.702	92.94
746.883	93.41
747.064	93.62
747.245	92.27
747.426	92.31
747.606	92.03
747.787	93.87
747.968	93.49
748.149	92.89
748.33	92.79
748.51	91.91
748.691	90.19
748.872	91.82
749.053	91.86
749.233	91.71
749.414	93.03
749.595	92.36
749.775	90.62
749.956	91.02
750.137	90.73
750.317	89.14
750.498	89.63
750.678	90.34
750.859	90.69
751.04	91.75
751.22	92.27
751.4	92.16
751.581	92.26
751.761	92.03
751.942	91.62
752.122	91.62
752.303	91.8
752.483	92.3
752.663	92.69
752.844	91.61
753.024	93.47
753.204	93.58
753.385	92.45
753.565	91.46
753.745	91.27
753.925	89.15
754.106	89.39
754.286	90.23
754.466	90.62
754.646	92.63
754.826	94.42
755.006	93.14
755.187	93.77
755.367	93.96
755.547	93.13
755.727	93
755.907	93.2
756.087	91.59
756.267	90.17
756.447	90.92
756.627	90.99
756.807	93.08
756.987	93.84
757.167	94.06
757.346	92.61
757.526	92.77
757.706	90.5
757.886	90.08
758.066	91.94
758.246	91.69
758.425	90.08
758.605	90.35
758.785	90.84
758.965	90.86
759.144	90.41
759.324	92.06
759.504	92.6
759.683	92.81
759.863	91.99
760.043	92.12
760.222	91.44
760.402	89.11
760.581	89.28
760.761	88.99
760.94	90.02
761.12	88.83
761.299	91.45
761.479	91.01
761.658	90.52
761.838	91.13
762.017	91.56
762.197	90.65
762.376	89.73
762.555	90.03
762.735	89.71
762.914	89.11
763.093	87.57
763.273	86.96
763.452	86.42
763.631	85.02
763.81	86.56
763.99	88.75
764.169	90.77
764.348	90.58
764.527	90.41
764.706	89.7
764.885	89.58
765.064	88.12
765.243	88.74
765.423	91.27
765.602	90.92
765.781	89.57
765.96	89.71
766.139	89.79
766.318	89.39
766.497	89.19
766.676	89.46
766.854	88.98
767.033	90.15
767.212	90.06
767.391	91.7
767.57	93.42
767.749	93.09
767.928	91.68
768.106	90.08
768.285	87.81
768.464	86.88
768.643	86.75
768.821	85.87
769	86.14
769.179	85.73
769.357	85.92
769.536	86.91
769.715	86.9
769.893	86.93
770.072	85.83
770.25	84.17
770.429	84.2
770.607	85.26
770.786	84.86
770.964	87.83
771.143	88.76
771.321	87.32
771.5	87.08
771.678	85.6
771.857	83.54
772.035	84.11
772.213	85.39
772.392	83.71
772.57	84.7
772.748	85.17
772.927	84.24
773.105	83.46
773.283	85.42
773.461	87.43
773.64	87.84
773.818	87.12
773.996	88.03
774.174	86.12
774.352	84.03
774.531	82.34
774.709	82.19
774.887	80.93
775.065	82.17
775.243	83.33
775.421	85.37
775.599	87.89
775.777	88.43
775.955	87.7
776.133	87.6
776.311	85.62
776.489	84.81
776.667	83.46
776.844	82.89
777.022	81.67
777.2	81.36
777.378	79.43
777.556	80.93
777.734	81.89
777.911	82.29
778.089	86.2
778.267	85.77
778.445	86.28
778.622	85.97
778.8	85.19
778.978	84
779.155	88.06
779.333	89.41
779.511	89.35
779.688	89.42
779.866	87.69
780.043	86.32
780.221	86.73
780.398	87.46
780.576	88.35
780.753	89.85
780.931	88.52
781.108	88.87
781.286	90.37
781.463	89.07
781.64	87.24
781.818	87.21
781.995	84.66
782.172	82.76
782.35	84.43
782.527	84.95
782.704	83.48
782.882	79.36
783.059	78.07
783.236	78.93
783.413	78.76
783.59	78.24
783.768	80.39
783.945	80.21
784.122	78.91
784.299	80.36
784.476	79.51
784.653	79.45
784.83	79.64
785.007	77.17
785.184	76.24
785.361	79.1
785.538	78.8
785.715	83.13
785.892	84.09
786.069	84.34
786.246	84.95
786.423	85.22
786.6	81.83
786.776	81.34
786.953	79.94
787.13	79.64
787.307	79.87
787.484	77.64
787.66	77.08
787.837	77.36
788.014	75.24
788.191	76.27
788.367	75.45
788.544	78.68
788.721	76.32
788.897	77.25
789.074	77.43
789.25	80.7
789.427	76.26
789.603	75.96
789.78	75.57
789.956	74.69
790.133	73.14
790.309	78.55
790.486	78.06
790.662	78.47
790.839	78.4
791.015	79.54
791.192	76.21
791.368	79.17
791.544	81.63
791.721	82.23
791.897	79.73
792.073	79.77
792.249	80.2
792.426	78.4
792.602	76.64
792.778	75.99
792.954	76.35
793.13	75.82
793.307	75.9
793.483	74.68
793.659	75.64
793.835	77.63
794.011	80.77
794.187	80.67
794.363	82.77
794.539	86.84
794.715	82.9
794.891	82.12
795.067	83.24
795.243	80.6
795.419	75.64
795.595	80.17
795.771	79.47
795.947	77.75
796.122	78.35
796.298	82.05
796.474	90.33
796.65	90.47
796.826	87.4
797.001	86.85
797.177	81.76
797.353	69.03
797.529	65.76
797.704	68.67
797.88	71.12
798.056	70.35
798.231	72.27
798.407	79.11
798.582	80.84
798.758	78.84
798.934	84.49
799.109	83.86
799.285	78.07
799.46	71.51
799.636	71.91
799.811	67.71
799.986	66.04
800.162	64.94
800.337	70.35
800.513	68.09
800.688	69.37
800.863	76.3
801.039	78.06
801.214	74.53
801.389	73.31
801.565	72.99
801.74	66.5
801.915	66.2
802.09	64.85
802.265	71.28
802.441	72.98
802.616	75.67
802.791	77.16
802.966	80.99
803.141	78.44
803.316	78.92
803.491	81.32
803.666	76.09
803.841	68.61
804.016	67.86
804.191	64.79
804.366	58.19
804.541	61.72
804.716	65.09
804.891	69.11
805.066	74.59
805.241	73.43
805.416	80.38
805.591	84.62
805.765	86.19
805.94	78.77
806.115	84.82
806.29	76.66
806.464	75.87
806.639	73.36
806.814	78.78
806.989	76.58
807.163	83.42
807.338	80.64
807.512	78.23
807.687	75.33
807.862	74.93
808.036	74.38
808.211	80.37
808.385	81.59
808.56	76.64
808.734	73.21
808.909	72.61
809.083	72.41
809.258	79.59
809.432	83.81
809.606	92.16
809.781	86.75
809.955	85.54
810.13	71.86
810.304	67.42
810.478	67.66
810.652	65.49
810.827	67.05
811.001	69.87
811.175	74.22
811.349	73.17
811.524	77.84
811.698	76.91
811.872	81.44
812.046	78.49
812.22	78.97
812.394	75.6
812.568	73.45
812.742	66.67
812.916	68.77
813.09	64.84
813.264	60.6
813.438	62.51
813.612	61.82
813.786	60.1
813.96	67.58
814.134	67.97
814.308	70.1
814.482	72.88
814.656	69.25
814.83	58.2
815.003	62.67
815.177	53.73
815.351	58.1
815.525	68.37
815.698	72.64
815.872	69.88
816.046	65.98
816.219	60.74
816.393	56.56
816.567	53.64
816.74	51.52
816.914	58.06
817.088	56.66
817.261	53.78
817.435	59.01
817.608	57.9
817.782	53.08
817.955	63.6
818.129	58.27
818.302	62.27
818.475	71.01
818.649	67.07
818.822	56.05
818.996	76.34
819.169	75.59
819.342	72.43
819.516	87.61
819.689	88.77
819.862	77.07
820.035	79.83
820.209	83.77
820.382	62.24
820.555	58.86
820.728	63.45
820.901	50.45
821.075	45.72
821.248	65.91
821.421	74.91
821.594	73.26
821.767	81.96
821.94	75.19
822.113	74.34
822.286	69.07
822.459	67.54
822.632	69.48
822.805	73.71
822.978	76.31
823.151	82.07
823.324	73.67
823.496	64.45
823.669	62.92
823.842	61.66
824.015	52.62
824.188	56.08
824.361	66
824.533	68
824.706	83.06
824.879	89.8
825.051	97.5
825.224	92.66
825.397	86.3
825.569	67.19
825.742	68.78
825.915	53.58
826.087	48.4
826.26	40.33
826.432	42.41
826.605	44.37
826.777	46.9
826.95	50.84
827.122	50.26
827.295	61.88
827.467	40.04
827.64	25.11
827.812	26.9
827.984	42.09
828.157	34.67
828.329	52.65
828.501	44.75
828.674	48.77
828.846	48.68
829.018	47.48
829.19	46.19
829.363	59.11
829.535	60.12
829.707	61.52
829.879	54.76
830.051	53.51
830.223	62.85
830.395	56.08
830.568	52.2
830.74	54.83
830.912	59.21
831.084	46.41
831.256	39.94
831.428	40.42
831.6	33.36
831.772	28.47
831.943	26.32
832.115	34.36
832.287	40.74
832.459	47.74
832.631	52.35
832.803	59.11
832.975	56.09
833.146	46.17
833.318	46.97
833.49	34.52
833.662	45.27
833.833	51.48
834.005	54.63
834.177	59.89
834.348	65.02
834.52	47.31
834.692	38.01
834.863	38.91
835.035	36.96
835.206	34.39
835.378	49.26
835.549	56.21
835.721	48.97
835.892	46.2
836.064	54.12
836.235	46.21
836.407	47.87
836.578	62.98
836.749	64.06
836.921	63.21
837.092	46.29
837.264	40.91
837.435	29.71
837.606	38.57
837.777	41.49
837.949	62.1
838.12	59.93
838.291	63.68
838.462	59.65
838.633	51.92
838.805	24.47
838.976	32.87
839.147	37.94
839.318	50.14
839.489	52.17
839.66	69.84
839.831	66.91
840.002	66.23
840.173	61.97
840.344	58.33
840.515	43.55
840.686	38.53
840.857	29.21
841.028	26.4
841.199	26.91
841.369	29.24
841.54	25.29
841.711	55.71
841.882	73.42
842.053	62.53
842.223	81.5
842.394	77.27
842.565	50.05
842.736	33.25
842.906	36.87
843.077	32.66
843.248	40.33
843.418	54.08
843.589	48.02
843.759	58.04
843.93	62.35
844.101	68.06
844.271	92.07
844.442	100.92
844.612	92.92
844.783	91.11
844.953	79.68
845.123	67.59
845.294	82.86
845.464	87.94
845.635	73.52
845.805	80.15
845.975	103.4
846.146	70.19
846.316	71.58
846.486	67.43
846.656	51.22
846.827	26.79
846.997	33.88
847.167	32.77
847.337	39.97
847.507	50.32
847.677	56.92
847.848	53.86
848.018	54.68
848.188	40.75
848.358	17.56
848.528	17.27
848.698	7.44
848.868	13.75
849.038	14.36
849.208	36.77
849.378	52.82
849.548	55.07
849.718	41.87
849.887	46.51
850.057	17.36
850.227	19.15
850.397	37.79
850.567	17.66
850.737	41.22
850.906	58.79
851.076	17.31
851.246	11.78
851.415	32.74
851.585	15.96
851.755	34.04
851.924	42.88
852.094	49.79
852.264	49.41
852.433	35.74
852.603	48.73
852.772	56.98
852.942	69.34
853.111	56.49
853.281	75.06
853.45	44.5
853.62	27.94
853.789	-12.45
853.959	13.03
854.128	4.51
854.297	17.91
854.467	35.89
854.636	52.01
854.805	51.62
854.975	39
855.144	22.29
855.313	6.97
855.482	7.34
855.652	7.88
855.821	11.55
855.99	31.04
856.159	13.75
856.328	12.94
856.497	12
856.667	9.81
856.836	13.42
857.005	27.73
857.174	28.82
857.343	12.41
857.512	16.25
857.681	17.32
857.85	21.62
858.019	9.85
858.188	27.11
858.356	35.36
858.525	35.51
858.694	69.73
858.863	58.85
859.032	58.09
859.201	62.76
859.369	74.55
859.538	49.59
859.707	41.36
859.876	38.47
860.044	49.14
860.213	64.03
860.382	50.7
860.55	49.95
860.719	64.99
860.888	96.51
861.056	75.52
861.225	54.5
861.393	92.73
861.562	82.96
861.73	38.24
861.899	37.12
862.067	46.41
862.236	21.5
862.404	29.06
862.572	17.15
862.741	19.85
862.909	9.79
863.078	7.48
863.246	-17.61
863.414	13.91
863.582	17.98
863.751	28.06
863.919	35.74
864.087	75.01
864.255	62.41
864.424	64.76
864.592	55.53
864.76	55.36
864.928	73.6
865.096	96.28
865.264	76.39
865.432	95.05
865.6	112.65
865.768	80.36
865.936	61.23
866.104	105.29
866.272	121.49
866.44	98.5
866.608	55.62
866.776	70.06
866.944	48.38
867.112	43.57
867.28	33.29
867.448	46.52
867.615	42.13
867.783	43.36
867.951	39.81
868.119	68.34
868.286	103.36
868.454	69.59
868.622	52.32
868.789	58.73
868.957	51.85
869.125	27.87
869.292	1.22
869.46	5.39
869.627	2.3
869.795	-28.01
869.963	13.44
870.13	9.2
870.298	25.44
870.465	38.64
870.632	20.75
870.8	22.49
870.967	41.83
871.135	48.95
871.302	8.74
871.469	34.88
871.637	12.59
871.804	34.9
871.971	21.75
872.139	36.6
872.306	5.86
872.473	-11.83
872.64	-78.99
872.807	-85.36
872.975	-202.98
873.142	-43.5
873.309	-10.69
873.476	15.48
873.643	73.25
873.81	45.68
873.977	60.08
874.144	107.96
874.311	106.91
874.478	19.03
874.645	52.18
874.812	60.37
874.979	34.9
875.146	34.85
875.313	44.05
875.48	87.78
875.647	73.27
875.813	38.87
875.98	29.38
876.147	29.57
876.314	-29.2
876.481	-11.21
876.647	19.33
876.814	28.48
876.981	31.58
877.147	17.7
877.314	24.25
877.481	26.18
877.647	42.57
877.814	37.86
877.98	75.25
878.147	78.82
878.314	85.81
878.48	92.56
878.647	77.64
878.813	62.79
878.979	76.18
879.146	80.5
879.312	65.73
879.479	52.39
879.645	53.2
879.811	15.8
879.978	31.66
880.144	4.21
880.31	1.4
880.477	15.92
880.643	19.17
880.809	-67.28
880.975	-32.38
881.142	-62.6
881.308	441.18
881.474	650.54
881.64	-50.89
881.806	-100.99
881.972	-23.48
882.138	17.51
882.304	45.65
882.47	-0.07
882.636	-25.24
882.802	-31.71
882.968	-29.86
883.134	-23.54
883.3	-9.42
883.466	75.89
883.632	78.97
883.798	107.88
883.964	148.12
884.129	675.11
884.295	172.77
884.461	124.14
884.627	71.04
884.793	61.36
884.958	87.06
885.124	63.47
885.29	51.65
885.455	92.84
885.621	73.4
885.787	-26.7
885.952	-59.96
886.118	-8.56
886.283	-22.95
886.449	-22.84
886.614	-2.16
886.78	37.63
886.945	38.11
887.111	7.66
887.276	-45.51
887.442	-112.07
887.607	-78.15
887.773	-35.95
887.938	-33.5
888.103	16.26
888.269	59.13
888.434	53.42
888.599	46.21
888.764	73.21
888.93	66.41
889.095	34.27
889.26	16.62
889.425	16.28
889.59	-10.29
889.756	24.01
889.921	34.12
890.086	33.16
890.251	111.69
890.416	10.52
890.581	-27.47
890.746	-24.25
890.911	29.18
891.076	10.17
891.241	21.35
891.406	20.41
891.571	22.38
891.736	-47.96
891.901	31.07
892.065	18.56
892.23	51.38
892.395	62.34
892.56	38.35
892.725	53.86
892.889	224.13
893.054	69.42
893.219	34.93
893.384	36.28
893.548	-38.65
893.713	-124.06
893.878	-173.23
