Data from Ofra_PS_T2_2A_2HS17_Reflection_3.txt Node
Date: Wed Jul 21 17:07:46 EDT 2021
User: Adam
Spectrometer: FLMT01687
Trigger mode: 0
Integration Time (sec): 1.100000E0
Scans to average: 2
Electric dark correction enabled: true
Nonlinearity correction enabled: false
Boxcar width: 2
XAxis mode: Wavelengths
Number of Pixels in Spectrum: 3648
>>>>>Begin Spectral Data<<<<<
179.494	430.2
179.716	501.18
179.937	527.57
180.158	549.94
180.38	904.22
180.601	378.31
180.823	120.65
181.044	-117.65
181.265	-134.01
181.486	16.29
181.708	97.86
181.929	803.57
182.15	-702.46
182.372	-16.47
182.593	-11.76
182.814	26.72
183.035	72.91
183.257	76.09
183.478	-28.24
183.699	-4.8
183.92	-16.22
184.141	-9.8
184.363	-41.73
184.584	35.2
184.805	39.66
185.026	61.36
185.247	52.99
185.468	39.98
185.689	49.85
185.91	48.37
186.132	52.05
186.353	54.15
186.574	114.33
186.795	84.76
187.016	59.72
187.237	25.44
187.458	33.28
187.679	20.5
187.9	33.82
188.121	22.17
188.342	57.47
188.563	77.29
188.784	76.64
189.005	47.18
189.226	106.82
189.447	91.41
189.667	-111.04
189.888	-315.15
190.109	-1099.68
190.33	-586.94
190.551	-998.89
190.772	-197.03
190.993	-134.07
191.214	-88.59
191.434	-80.14
191.655	7.64
191.876	-7.06
192.097	-65.69
192.318	-69.01
192.538	-102.27
192.759	-146.99
192.98	-62.21
193.201	-14.25
193.421	-11.68
193.642	11.91
193.863	38.12
194.083	16.92
194.304	12.19
194.525	13.58
194.745	11.94
194.966	-26.23
195.187	-8.02
195.407	-33.83
195.628	-75.89
195.848	-88.26
196.069	-81.5
196.29	-62.84
196.51	-51.47
196.731	-54.18
196.951	-71.71
197.172	-80.41
197.392	-145.89
197.613	-157.27
197.833	-168.8
198.054	-138.49
198.274	-89.13
198.495	-77.2
198.715	-28.68
198.936	-38.67
199.156	-38.77
199.377	-128.29
199.597	-120.9
199.817	-149.91
200.038	-83.91
200.258	-111.36
200.479	-62.84
200.699	-56.85
200.919	27.74
201.14	3.72
201.36	-18.73
201.58	16.1
201.801	35.16
202.021	-13.91
202.241	-12.68
202.461	-2.36
202.682	-60.09
202.902	-103.42
203.122	-40.87
203.342	-42.16
203.563	-22.59
203.783	-7.04
204.003	-50.58
204.223	-57.33
204.443	26.81
204.663	11.33
204.884	45.96
205.104	78.31
205.324	93.39
205.544	57.89
205.764	52.76
205.984	47.45
206.204	49.02
206.424	37.83
206.644	11.44
206.864	30.3
207.084	7.01
207.304	12.9
207.525	-78.98
207.745	-58.68
207.964	-34.21
208.184	-87.08
208.404	-98.13
208.624	-90.6
208.844	-82.65
209.064	-296.03
209.284	-317.29
209.504	-201.64
209.724	-42.66
209.944	-25.98
210.164	-14.38
210.384	0.91
210.604	2.1
210.823	-41.09
211.043	-54.29
211.263	-39.69
211.483	-44.04
211.703	-98.1
211.922	-72.94
212.142	-0.29
212.362	9.87
212.582	3.48
212.801	29.77
213.021	0.16
213.241	-29.43
213.461	-62.8
213.68	-52.54
213.9	-57.5
214.12	-22.19
214.339	-72.69
214.559	-55.8
214.779	-9.84
214.998	6.9
215.218	-42.25
215.438	-22.14
215.657	-15.6
215.877	-36.14
216.096	-21
216.316	-8.48
216.535	-11.31
216.755	-5.97
216.974	-63.24
217.194	-101.73
217.413	-85.53
217.633	-62.38
217.852	-139.49
218.072	-58.47
218.291	-19.16
218.511	12.59
218.73	-1.33
218.95	4.41
219.169	-1.16
219.389	-41.83
219.608	-38.19
219.827	-32.31
220.047	-33.92
220.266	-8.99
220.485	6.07
220.705	18.56
220.924	-11.08
221.143	29.37
221.363	2.46
221.582	12.72
221.801	4.54
222.021	33.17
222.24	-50.8
222.459	-1.16
222.678	-34.23
222.897	-48.06
223.117	-115.12
223.336	-59.45
223.555	-30.95
223.774	31.26
223.993	32.48
224.213	107.55
224.432	84.25
224.651	81.61
224.87	45.18
225.089	46.38
225.308	10.65
225.527	35.34
225.746	25.98
225.965	24.54
226.184	8.28
226.404	42.62
226.623	6.27
226.842	7.73
227.061	27.7
227.28	23.83
227.499	-5.94
227.718	10.29
227.936	4.27
228.155	-6.09
228.374	1.47
228.593	8.93
228.812	12.81
229.031	6.84
229.25	-39.82
229.469	-50.52
229.688	-18.41
229.907	23.71
230.125	54.36
230.344	63.11
230.563	69.96
230.782	56.95
231.001	-41.35
231.22	-73.54
231.438	-35.42
231.657	-30.89
231.876	-52.15
232.095	11.62
232.313	25.3
232.532	20.68
232.751	-2.87
232.969	11.84
233.188	-19.66
233.407	32.7
233.625	11.04
233.844	14.72
234.063	23.53
234.281	43.64
234.5	25.37
234.719	32.11
234.937	46.44
235.156	47.33
235.374	44.88
235.593	42.81
235.811	33.22
236.03	16.99
236.249	-33.02
236.467	-54.04
236.686	-22.41
236.904	-10.12
237.123	-30.17
237.341	-16.15
237.559	-7.25
237.778	-16.51
237.996	-31.11
238.215	23.44
238.433	25.79
238.652	21.88
238.87	-0.63
239.088	-9.29
239.307	-20.17
239.525	-29.41
239.743	-48.03
239.962	-43.25
240.18	-31.47
240.398	-83.63
240.617	-84.42
240.835	-57.56
241.053	-39.25
241.271	-6.11
241.49	13.22
241.708	-0.7
241.926	12.23
242.144	25.55
242.363	-31.05
242.581	-62.23
242.799	-24.14
243.017	-20.3
243.235	-45.64
243.453	-42.66
243.672	-24.31
243.89	-24.44
244.108	-26.47
244.326	0.28
244.544	16.9
244.762	2.68
244.98	-0.05
245.198	12.61
245.416	-17.15
245.634	-26.32
245.852	-11.82
246.07	-2.16
246.288	-27.63
246.506	-27.92
246.724	13.31
246.942	2.31
247.16	38.38
247.378	59.99
247.596	70
247.814	68.5
248.032	55.69
248.25	35.33
248.468	13.19
248.685	21.05
248.903	35.65
249.121	35.52
249.339	-2.82
249.557	-4.04
249.775	5.8
249.992	-56.03
250.21	-53.9
250.428	-5.83
250.646	-24.71
250.863	-56.96
251.081	-31.28
251.299	-19.93
251.517	-49.84
251.734	-28.91
251.952	-22.88
252.17	-14.72
252.387	-7.95
252.605	-10.85
252.823	-9.21
253.04	-4.68
253.258	12.55
253.475	17.29
253.693	36.41
253.911	41.37
254.128	57.53
254.346	60.59
254.563	30.06
254.781	7.66
254.998	-14.01
255.216	-18.41
255.433	-4.57
255.651	34.04
255.868	66.47
256.086	83.88
256.303	68.04
256.521	52.35
256.738	22.02
256.956	-16.47
257.173	-41.07
257.39	-57.42
257.608	-89.81
257.825	21.55
258.043	72.66
258.26	72.78
258.477	107.35
258.695	92.21
258.912	3.86
259.129	5.87
259.346	-19.71
259.564	-58.16
259.781	-66.42
259.998	-1.38
260.216	4.07
260.433	40.9
260.65	46.64
260.867	77.02
261.084	42.44
261.302	15.62
261.519	11.85
261.736	-12.59
261.953	-58.11
262.17	5.36
262.387	-8.07
262.604	-42.22
262.822	-45.21
263.039	-23.28
263.256	-76.26
263.473	-15.17
263.69	-7.48
263.907	20.96
264.124	43.32
264.341	40.73
264.558	24.48
264.775	42.7
264.992	35.75
265.209	23.11
265.426	37.96
265.643	36.88
265.86	43.66
266.077	61.35
266.294	55.49
266.51	11.66
266.727	18.31
266.944	9.95
267.161	-20.11
267.378	-15.12
267.595	7.97
267.812	-34.6
268.028	-66.37
268.245	-47.39
268.462	-46.9
268.679	-37.69
268.896	17.24
269.112	26.22
269.329	20.84
269.546	22.11
269.763	11.96
269.979	-14.75
270.196	-17.6
270.413	-36.49
270.629	-67.19
270.846	-72.23
271.063	-40.86
271.279	-49.64
271.496	-44.1
271.712	8.53
271.929	45.07
272.146	16.7
272.362	22.84
272.579	45.61
272.795	49.19
273.012	22.69
273.228	25.75
273.445	13.83
273.661	-5.6
273.878	-61.73
274.094	-38.26
274.311	-52.25
274.527	3.04
274.744	-4.8
274.96	-10.79
275.177	-1.03
275.393	17.43
275.609	11.69
275.826	39.66
276.042	50.33
276.259	36.84
276.475	48.71
276.691	55.4
276.908	23.57
277.124	39.86
277.34	35.26
277.557	8.91
277.773	-9.68
277.989	4.51
278.205	-3.83
278.422	17.58
278.638	27.45
278.854	39.36
279.07	42.08
279.286	58.6
279.503	16.88
279.719	-2.56
279.935	-16.03
280.151	-17.43
280.367	-21.2
280.583	-21.03
280.799	-0.79
281.016	-13.98
281.232	2.65
281.448	2.53
281.664	31.07
281.88	3.1
282.096	16.93
282.312	25.24
282.528	21.88
282.744	32.44
282.96	39.06
283.176	27.95
283.392	11.62
283.608	9.42
283.824	-0.03
284.04	5.87
284.256	9.67
284.471	19.7
284.687	17.71
284.903	44.49
285.119	67.25
285.335	52.71
285.551	51.13
285.767	40.39
285.982	10.28
286.198	-38.53
286.414	21.78
286.63	34.59
286.846	48.9
287.061	36.55
287.277	57.34
287.493	32.16
287.709	38.87
287.924	14.32
288.14	55.31
288.356	64.01
288.571	67.68
288.787	56
289.003	53.33
289.218	16.98
289.434	-21.91
289.65	-28.81
289.865	-47.54
290.081	-34.18
290.296	-12.94
290.512	-2.49
290.727	-25.99
290.943	-31.67
291.159	-25.56
291.374	-15.8
291.59	-23.32
291.805	-7.37
292.021	17
292.236	20.24
292.451	8.21
292.667	22.64
292.882	40.91
293.098	37.31
293.313	13.18
293.529	4.14
293.744	-21.2
293.959	-45.36
294.175	-35.74
294.39	14.81
294.605	34.38
294.821	55.57
295.036	79.06
295.251	77.86
295.467	57.39
295.682	41.35
295.897	-0.96
296.112	-33.56
296.328	-31.26
296.543	-62.73
296.758	-36.39
296.973	6.4
297.188	40.04
297.404	17.3
297.619	11.53
297.834	-11.97
298.049	-36.19
298.264	-67.97
298.479	-1.69
298.694	6.19
298.909	23.81
299.125	27.66
299.34	39.61
299.555	3.64
299.77	9.05
299.985	-36.96
300.2	-81.13
300.415	-98.54
300.63	-52.06
300.845	-45.97
301.06	-31.78
301.275	4.09
301.49	23
301.704	2.07
301.919	-30.42
302.134	-35.87
302.349	-34.46
302.564	-108.89
302.779	-123.69
302.994	-64.07
303.209	-3.42
303.423	12.34
303.638	77.09
303.853	38.71
304.068	27.56
304.283	8.56
304.497	-3.68
304.712	-27.69
304.927	-12.42
305.142	-14.21
305.356	-2.52
305.571	-12.34
305.786	-20.82
306	-40.38
306.215	-49.54
306.43	-56.78
306.644	-34.43
306.859	-6.22
307.074	12.05
307.288	-6.45
307.503	-28.15
307.717	-21.69
307.932	-23.29
308.147	-26.5
308.361	-14.86
308.576	-13.91
308.79	-68.22
309.005	-49.15
309.219	-36.74
309.434	-33.27
309.648	-31.13
309.863	9.71
310.077	0.48
310.292	-12.12
310.506	-2.81
310.72	11.7
310.935	16.82
311.149	7.39
311.364	31.36
311.578	41.3
311.792	35.53
312.007	34.61
312.221	27.13
312.435	27.82
312.649	8.94
312.864	-11.17
313.078	-12.26
313.292	21.65
313.507	-18.75
313.721	-28.6
313.935	26.09
314.149	18.55
314.363	29.29
314.578	30.07
314.792	32.9
315.006	18.68
315.22	30.77
315.434	21.99
315.648	27.56
315.862	23.6
316.077	24.9
316.291	-5.36
316.505	-11.21
316.719	-32.91
316.933	-52.47
317.147	-49.57
317.361	-92.03
317.575	-95.2
317.789	-124.28
318.003	-157.17
318.217	-113.78
318.431	3.97
318.645	24.19
318.859	23.93
319.073	45.99
319.287	22.62
319.5	-19.73
319.714	-49.44
319.928	-62.06
320.142	-88.86
320.356	-5.94
320.57	43.87
320.784	48.73
320.997	31.92
321.211	30.65
321.425	-52.28
321.639	-87.02
321.853	-38.49
322.066	-6.34
322.28	-13.16
322.494	3.75
322.707	32.84
322.921	20.91
323.135	9.87
323.349	27.28
323.562	11.88
323.776	-7.94
323.989	1.77
324.203	-12.93
324.417	-32.12
324.63	-32.22
324.844	-42.08
325.057	-46.32
325.271	-20.02
325.485	17.88
325.698	26.52
325.912	52.98
326.125	31.19
326.339	30.69
326.552	12.86
326.766	18.52
326.979	23.37
327.193	58.81
327.406	40.46
327.619	19.48
327.833	25.81
328.046	-11.77
328.26	-52.71
328.473	-21.74
328.686	-37.37
328.9	-27.62
329.113	-1.45
329.326	-20.67
329.54	-33.26
329.753	-34.88
329.966	-67.67
330.179	-68.88
330.393	-39.26
330.606	-19.95
330.819	2.7
331.032	18.98
331.246	26.02
331.459	52.4
331.672	45.49
331.885	34.86
332.098	-4.75
332.311	-24.59
332.525	-82.27
332.738	-70.21
332.951	-26.65
333.164	40.68
333.377	56.02
333.59	77.24
333.803	91.04
334.016	73.32
334.229	62.66
334.442	63.29
334.655	82.06
334.868	62
335.081	51.32
335.294	27.56
335.507	15.2
335.72	-1.48
335.933	-8.92
336.146	-23.64
336.359	-9.86
336.572	-23.85
336.785	-65.79
336.997	-52.85
337.21	-11
337.423	-24.97
337.636	-26.6
337.849	-3.22
338.062	-16.1
338.274	-31.41
338.487	-23.14
338.7	-15.15
338.913	-58.49
339.125	-71.87
339.338	-107.42
339.551	-91.68
339.763	-49.27
339.976	3.36
340.189	16.73
340.402	34.13
340.614	18.97
340.827	-4.83
341.039	-31.89
341.252	-25.34
341.465	-13.84
341.677	-25.23
341.89	-57.12
342.102	-18.98
342.315	-45.68
342.527	-87.86
342.74	-54.78
342.952	-12.64
343.165	-21.68
343.377	8.03
343.59	4.78
343.802	5.73
344.015	0.71
344.227	14.3
344.44	13
344.652	18.04
344.864	3.64
345.077	22.6
345.289	31.83
345.502	32.02
345.714	29.37
345.926	44.64
346.139	35.15
346.351	23.35
346.563	27.04
346.775	40.63
346.988	30.13
347.2	24.62
347.412	-11.06
347.624	-29.11
347.837	-50.09
348.049	-30.96
348.261	-7.43
348.473	0.7
348.685	2.07
348.897	-17.68
349.11	-34.48
349.322	-71.77
349.534	-56.75
349.746	-32.24
349.958	-10.29
350.17	-6
350.382	25.06
350.594	10.88
350.806	8.75
351.018	15.01
351.23	10.44
351.442	-33.34
351.654	-15.4
351.866	-28.12
352.078	-23.89
352.29	-12.23
352.502	9.35
352.714	18.03
352.926	13.58
353.138	7.43
353.35	-2.1
353.561	-8.36
353.773	-35.68
353.985	-14.68
354.197	-15.82
354.409	-13.47
354.621	-10.27
354.832	15.86
355.044	1.82
355.256	5.9
355.468	19.36
355.679	11.98
355.891	14.59
356.103	10.52
356.314	18.28
356.526	25.88
356.738	32.28
356.949	12.3
357.161	0.13
357.373	-7.94
357.584	-21.65
357.796	-14.41
358.008	-16.24
358.219	4.16
358.431	1.18
358.642	14.61
358.854	24.91
359.065	22.92
359.277	3.88
359.488	-8.59
359.7	-30.98
359.911	-62.23
360.123	-36.92
360.334	-48.27
360.546	-64.87
360.757	-60.05
360.969	-42.43
361.18	-53.59
361.391	-38.22
361.603	-38.49
361.814	-29.42
362.025	-23.04
362.237	-11.12
362.448	-1.24
362.659	32.31
362.871	31.67
363.082	27.19
363.293	20.74
363.504	7.79
363.716	-28.44
363.927	-39.43
364.138	-61.79
364.349	-77.48
364.56	-58.64
364.772	-46.72
364.983	-25.81
365.194	-19.77
365.405	1.09
365.616	14.99
365.827	17.86
366.038	-8.65
366.25	-5.57
366.461	-34.36
366.672	-9.26
366.883	9.4
367.094	22.39
367.305	4.93
367.516	14.1
367.727	-23.3
367.938	-31.12
368.149	-34.07
368.36	-5.94
368.571	11.79
368.781	-1.34
368.992	-22.54
369.203	-38.2
369.414	-54.72
369.625	-85.4
369.836	-63.3
370.047	-77.85
370.258	-61
370.468	-50.06
370.679	-56.43
370.89	-54.03
371.101	-23.24
371.312	-24.8
371.522	-24.78
371.733	-17.44
371.944	5.19
372.155	1.97
372.365	-10.52
372.576	-17.25
372.787	-20.96
372.997	-48.13
373.208	-39.33
373.419	0.11
373.629	-23.08
373.84	-14.79
374.05	-11.91
374.261	-8.32
374.472	-29.87
374.682	17.72
374.893	20.26
375.103	44.33
375.314	42.06
375.524	34.47
375.735	29.92
375.945	34.14
376.156	9.26
376.366	6.04
376.577	18.01
376.787	7.17
376.997	7.77
377.208	12.45
377.418	0.98
377.629	1.63
377.839	1.83
378.049	1.82
378.26	15.43
378.47	20.49
378.68	10.46
378.89	9.67
379.101	3.48
379.311	-23.04
379.521	-51.78
379.732	-45.02
379.942	-39.29
380.152	-55.09
380.362	-30.34
380.572	-12.37
380.783	-1.01
380.993	-0.8
381.203	15.56
381.413	22.76
381.623	26
381.833	28.67
382.043	18.14
382.253	6.23
382.463	-1.87
382.674	-12.48
382.884	-35.67
383.094	-26.79
383.304	-20.56
383.514	-12.28
383.724	3.49
383.934	1.37
384.144	-10.55
384.353	-11.76
384.563	-13.8
384.773	-16.73
384.983	-29.3
385.193	-12.78
385.403	-8.47
385.613	-7.3
385.823	-15.66
386.033	1.65
386.242	-4.53
386.452	-6.84
386.662	-11.37
386.872	-1.72
387.082	-8.31
387.291	-12.21
387.501	-14.44
387.711	-12.96
387.921	-16.3
388.13	-14.17
388.34	1.26
388.55	-1.65
388.759	1.63
388.969	7.98
389.179	6.72
389.388	2.21
389.598	8.65
389.807	2.16
390.017	-4.28
390.227	-0.69
390.436	-3.11
390.646	-3.61
390.855	0.73
391.065	0.68
391.274	-3.06
391.484	-5.66
391.693	-5.47
391.903	-5.81
392.112	0.28
392.322	4.09
392.531	8.37
392.74	8.99
392.95	4.2
393.159	0.84
393.369	-0.75
393.578	-3.28
393.787	-3.08
393.997	-0.04
394.206	-2.4
394.415	-2.14
394.625	-0
394.834	-1.83
395.043	-0.65
395.252	2.54
395.462	3.93
395.671	3.6
395.88	4.38
396.089	4.06
396.298	1.66
396.508	1.6
396.717	1.48
396.926	1.72
397.135	0.84
397.344	1.78
397.553	2.15
397.762	3.63
397.971	3.36
398.181	4.15
398.39	3.55
398.599	2.9
398.808	2.54
399.017	3.77
399.226	4.62
399.435	5.91
399.644	6.38
399.853	5.15
400.062	4.06
400.27	3.54
400.479	2.97
400.688	2.01
400.897	2.61
401.106	3.07
401.315	2.77
401.524	2.52
401.733	3.48
401.941	3.75
402.15	3.58
402.359	3.63
402.568	4.21
402.777	4.37
402.985	4.07
403.194	3.99
403.403	3.91
403.612	3.4
403.82	3.06
404.029	3.3
404.238	3.16
404.446	3.42
404.655	3.27
404.864	3.15
405.072	2.88
405.281	3.16
405.489	2.84
405.698	2.78
405.906	2.94
406.115	2.91
406.324	2.69
406.532	2.93
406.741	3.35
406.949	3.18
407.158	3.16
407.366	3.21
407.574	3.15
407.783	3.08
407.991	3.03
408.2	3.19
408.408	3.27
408.617	3.1
408.825	2.88
409.033	3.04
409.242	3.15
409.45	3.22
409.658	3.23
409.867	3.41
410.075	3.23
410.283	3.03
410.491	2.84
410.7	2.85
410.908	2.85
411.116	3.03
411.324	3.08
411.533	3.13
411.741	3.27
411.949	3.16
412.157	2.94
412.365	2.97
412.573	2.9
412.781	2.9
412.99	2.82
413.198	3.11
413.406	2.97
413.614	3.08
413.822	2.92
414.03	2.87
414.238	2.49
414.446	2.54
414.654	2.29
414.862	2.36
415.07	2.48
415.278	2.92
415.486	2.85
415.694	3.03
415.902	2.94
416.109	2.85
416.317	2.55
416.525	2.32
416.733	2.28
416.941	2.47
417.149	2.5
417.357	2.6
417.564	2.99
417.772	3.16
417.98	3.03
418.188	2.97
418.395	2.98
418.603	3.03
418.811	2.66
419.019	2.56
419.226	2.8
419.434	2.82
419.642	2.5
419.849	2.63
420.057	2.68
420.265	2.59
420.472	2.34
420.68	2.36
420.887	2.28
421.095	2.36
421.302	2.31
421.51	2.64
421.717	2.72
421.925	2.85
422.132	2.7
422.34	2.49
422.547	2.26
422.755	2.15
422.962	2.05
423.17	1.94
423.377	2.07
423.585	2.23
423.792	2.23
423.999	2.29
424.207	2.4
424.414	2.54
424.621	2.44
424.829	2.55
425.036	2.54
425.243	2.78
425.451	2.63
425.658	2.35
425.865	2.61
426.072	2.62
426.28	2.71
426.487	2.57
426.694	2.79
426.901	2.37
427.108	2.32
427.315	1.93
427.523	2.27
427.73	2.27
427.937	2.31
428.144	2.21
428.351	2.33
428.558	2.37
428.765	2.3
428.972	2.38
429.179	2.53
429.386	2.71
429.593	2.51
429.8	2.42
430.007	2.43
430.214	2.5
430.421	2.3
430.628	2.14
430.835	2.16
431.042	2.27
431.249	2.31
431.456	2.36
431.662	2.55
431.869	2.74
432.076	2.81
432.283	2.83
432.49	2.8
432.697	2.78
432.903	2.54
433.11	2.44
433.317	2.55
433.524	2.73
433.73	2.72
433.937	2.97
434.144	2.94
434.35	2.83
434.557	2.67
434.764	2.69
434.97	2.62
435.177	2.7
435.384	2.57
435.59	2.7
435.797	2.88
436.003	3.07
436.21	3.11
436.416	3.2
436.623	3.24
436.829	3.29
437.036	3.2
437.242	3.12
437.449	3.03
437.655	2.97
437.862	2.88
438.068	2.8
438.275	3
438.481	3.27
438.687	3.23
438.894	3.24
439.1	3.28
439.307	3.29
439.513	3.17
439.719	3.19
439.926	3.26
440.132	3.19
440.338	3.05
440.544	3.16
440.751	3.15
440.957	3.15
441.163	3.05
441.369	3.18
441.575	2.93
441.782	2.95
441.988	2.86
442.194	3.07
442.4	2.98
442.606	3.28
442.812	3.34
443.018	3.4
443.224	3.39
443.431	3.53
443.637	3.36
443.843	3.23
444.049	3.3
444.255	3.2
444.461	3.17
444.667	3.15
444.873	3.28
445.079	3.24
445.284	3.38
445.49	3.16
445.696	3
445.902	2.91
446.108	2.85
446.314	2.74
446.52	2.83
446.726	3.13
446.931	3.15
447.137	3.2
447.343	3.26
447.549	3.27
447.755	3.17
447.96	3.18
448.166	3.15
448.372	3.06
448.578	3.1
448.783	3.07
448.989	3.2
449.195	3.39
449.4	3.49
449.606	3.47
449.812	3.42
450.017	3.38
450.223	3.19
450.428	3.11
450.634	3.27
450.84	3.48
451.045	3.49
451.251	3.45
451.456	3.68
451.662	3.67
451.867	3.63
452.073	3.58
452.278	3.8
452.483	3.88
452.689	3.71
452.894	3.72
453.1	3.65
453.305	3.49
453.51	3.39
453.716	3.4
453.921	3.45
454.127	3.46
454.332	3.41
454.537	3.22
454.742	3.29
454.948	3.21
455.153	3.26
455.358	3.39
455.563	3.69
455.769	3.75
455.974	3.71
456.179	3.63
456.384	3.57
456.589	3.4
456.795	3.3
457	3.25
457.205	3.49
457.41	3.41
457.615	3.33
457.82	3.42
458.025	3.43
458.23	3.27
458.435	3.38
458.64	3.39
458.845	3.47
459.05	3.52
459.255	3.47
459.46	3.38
459.665	3.43
459.87	3.42
460.075	3.41
460.28	3.5
460.485	3.67
460.69	3.65
460.895	3.5
461.099	3.45
461.304	3.58
461.509	3.57
461.714	3.5
461.919	3.59
462.123	3.51
462.328	3.48
462.533	3.42
462.738	3.52
462.942	3.5
463.147	3.62
463.352	3.64
463.556	3.65
463.761	3.67
463.966	3.64
464.17	3.68
464.375	3.56
464.58	3.51
464.784	3.42
464.989	3.45
465.193	3.46
465.398	3.48
465.602	3.58
465.807	3.64
466.011	3.76
466.216	3.8
466.42	3.85
466.625	3.91
466.829	3.94
467.034	3.95
467.238	4.15
467.443	4.13
467.647	4.01
467.851	4
468.056	4.07
468.26	3.83
468.464	3.89
468.669	4.12
468.873	4.3
469.077	4.18
469.282	4.23
469.486	4.23
469.69	4.12
469.894	3.92
470.099	4
470.303	4.09
470.507	4.02
470.711	3.98
470.915	4
471.119	3.87
471.324	3.77
471.528	3.82
471.732	3.82
471.936	3.86
472.14	3.95
472.344	4.06
472.548	4.1
472.752	4.23
472.956	4.44
473.16	4.48
473.364	4.34
473.568	4.31
473.772	4.27
473.976	4.16
474.18	4.12
474.384	4.24
474.588	4.23
474.792	4.14
474.995	4.2
475.199	4.31
475.403	4.36
475.607	4.41
475.811	4.4
476.015	4.4
476.218	4.38
476.422	4.3
476.626	4.36
476.83	4.53
477.033	4.45
477.237	4.31
477.441	4.35
477.644	4.31
477.848	4.28
478.052	4.32
478.255	4.47
478.459	4.49
478.663	4.57
478.866	4.56
479.07	4.61
479.273	4.74
479.477	4.7
479.681	4.64
479.884	4.56
480.088	4.5
480.291	4.34
480.495	4.43
480.698	4.52
480.901	4.63
481.105	4.72
481.308	4.8
481.512	4.74
481.715	4.73
481.919	4.82
482.122	4.85
482.325	4.79
482.529	4.83
482.732	4.81
482.935	4.69
483.138	4.6
483.342	4.69
483.545	4.73
483.748	4.81
483.952	4.85
484.155	5
484.358	4.96
484.561	4.89
484.764	4.84
484.967	4.94
485.171	4.96
485.374	4.96
485.577	5.16
485.78	5.17
485.983	5.13
486.186	5.03
486.389	5.01
486.592	4.92
486.795	4.97
486.998	4.91
487.201	5
487.404	5.1
487.607	5.13
487.81	5.09
488.013	5.15
488.216	5.06
488.419	5.01
488.622	4.95
488.825	4.89
489.028	4.83
489.231	4.84
489.433	4.75
489.636	4.71
489.839	4.75
490.042	4.71
490.245	4.7
490.447	4.82
490.65	4.84
490.853	4.85
491.056	4.89
491.258	4.95
491.461	4.96
491.664	5.07
491.866	5.06
492.069	5.19
492.272	5.13
492.474	5.17
492.677	5.12
492.879	5.19
493.082	5.2
493.285	5.33
493.487	5.27
493.69	5.21
493.892	5.14
494.095	5.08
494.297	5.04
494.5	5.07
494.702	5.12
494.905	5.18
495.107	5.16
495.309	5.15
495.512	5.21
495.714	5.24
495.917	5.26
496.119	5.29
496.321	5.36
496.524	5.35
496.726	5.42
496.928	5.42
497.13	5.41
497.333	5.38
497.535	5.42
497.737	5.36
497.939	5.39
498.142	5.42
498.344	5.42
498.546	5.36
498.748	5.38
498.95	5.47
499.152	5.47
499.355	5.52
499.557	5.52
499.759	5.64
499.961	5.61
500.163	5.63
500.365	5.6
500.567	5.75
500.769	5.61
500.971	5.59
501.173	5.5
501.375	5.58
501.577	5.45
501.779	5.48
501.981	5.52
502.183	5.61
502.385	5.58
502.587	5.53
502.788	5.61
502.99	5.64
503.192	5.68
503.394	5.7
503.596	5.75
503.798	5.78
503.999	5.76
504.201	5.73
504.403	5.75
504.605	5.86
504.806	5.79
505.008	5.83
505.21	5.95
505.411	6
505.613	5.98
505.815	6.07
506.016	6.17
506.218	6.22
506.42	6.14
506.621	6.18
506.823	6.17
507.024	6.1
507.226	6
507.427	6.08
507.629	6.16
507.83	6.26
508.032	6.24
508.233	6.36
508.435	6.39
508.636	6.39
508.838	6.33
509.039	6.36
509.24	6.34
509.442	6.37
509.643	6.33
509.845	6.36
510.046	6.43
510.247	6.45
510.448	6.45
510.65	6.52
510.851	6.67
511.052	6.64
511.254	6.64
511.455	6.75
511.656	6.81
511.857	6.83
512.058	6.86
512.26	6.87
512.461	6.8
512.662	6.8
512.863	6.65
513.064	6.65
513.265	6.71
513.466	6.75
513.667	6.72
513.868	6.83
514.069	6.94
514.27	6.99
514.471	6.99
514.672	7.01
514.873	6.97
515.074	6.96
515.275	6.83
515.476	6.85
515.677	6.9
515.878	7.03
516.079	6.99
516.28	7.13
516.481	7.16
516.682	7.17
516.882	7.13
517.083	7.2
517.284	7.12
517.485	7.16
517.686	7.15
517.886	7.12
518.087	7.12
518.288	7.2
518.488	7.18
518.689	7.24
518.89	7.24
519.091	7.27
519.291	7.32
519.492	7.35
519.692	7.35
519.893	7.47
520.094	7.46
520.294	7.42
520.495	7.44
520.695	7.51
520.896	7.47
521.096	7.52
521.297	7.6
521.497	7.6
521.698	7.55
521.898	7.55
522.099	7.56
522.299	7.59
522.499	7.63
522.7	7.69
522.9	7.66
523.101	7.72
523.301	7.7
523.501	7.68
523.702	7.65
523.902	7.79
524.102	7.81
524.302	7.82
524.503	7.9
524.703	7.94
524.903	7.89
525.103	7.81
525.304	7.89
525.504	7.93
525.704	7.99
525.904	7.97
526.104	8
526.304	8.01
526.504	7.99
526.705	8
526.905	8.1
527.105	8.13
527.305	8.06
527.505	8.04
527.705	8.06
527.905	8.06
528.105	8.13
528.305	8.13
528.505	8.21
528.705	8.25
528.905	8.21
529.105	8.19
529.304	8.26
529.504	8.33
529.704	8.32
529.904	8.39
530.104	8.43
530.304	8.52
530.503	8.43
530.703	8.41
530.903	8.41
531.103	8.45
531.303	8.4
531.502	8.44
531.702	8.56
531.902	8.56
532.101	8.54
532.301	8.56
532.501	8.6
532.7	8.55
532.9	8.56
533.1	8.56
533.299	8.63
533.499	8.69
533.698	8.69
533.898	8.69
534.097	8.75
534.297	8.78
534.496	8.73
534.696	8.79
534.895	8.91
535.095	9
535.294	8.94
535.494	8.93
535.693	9.01
535.892	9.02
536.092	8.94
536.291	8.97
536.491	9.07
536.69	9.04
536.889	9.05
537.088	9.03
537.288	9.12
537.487	9.17
537.686	9.2
537.886	9.27
538.085	9.33
538.284	9.4
538.483	9.39
538.682	9.51
538.882	9.53
539.081	9.62
539.28	9.56
539.479	9.54
539.678	9.46
539.877	9.49
540.076	9.54
540.275	9.58
540.474	9.66
540.673	9.77
540.872	9.76
541.071	9.76
541.27	9.8
541.469	9.81
541.668	9.78
541.867	9.84
542.066	9.91
542.265	9.96
542.464	10.02
542.663	10.09
542.862	10.21
543.06	10.27
543.259	10.34
543.458	10.36
543.657	10.42
543.856	10.42
544.054	10.4
544.253	10.42
544.452	10.46
544.651	10.56
544.849	10.57
545.048	10.65
545.247	10.69
545.445	10.77
545.644	10.78
545.843	10.8
546.041	10.86
546.24	10.93
546.438	11.06
546.637	11.15
546.836	11.32
547.034	11.44
547.233	11.48
547.431	11.43
547.63	11.45
547.828	11.48
548.027	11.44
548.225	11.51
548.423	11.59
548.622	11.72
548.82	11.76
549.019	11.85
549.217	11.97
549.415	12.05
549.614	12.09
549.812	12.07
550.01	12.05
550.209	12.13
550.407	12.22
550.605	12.24
550.803	12.42
551.002	12.6
551.2	12.68
551.398	12.77
551.596	12.94
551.794	12.97
551.993	12.99
552.191	12.97
552.389	13.08
552.587	13.17
552.785	13.28
552.983	13.43
553.181	13.65
553.379	13.68
553.577	13.7
553.775	13.76
553.973	13.86
554.171	13.92
554.369	13.97
554.567	14.06
554.765	14.1
554.963	14.22
555.161	14.16
555.359	14.35
555.557	14.48
555.755	14.65
555.952	14.76
556.15	14.92
556.348	15
556.546	15.09
556.744	15.14
556.941	15.18
557.139	15.37
557.337	15.41
557.535	15.45
557.732	15.55
557.93	15.67
558.128	15.72
558.325	15.84
558.523	15.93
558.721	16.06
558.918	16.09
559.116	16.19
559.313	16.26
559.511	16.45
559.708	16.55
559.906	16.65
560.104	16.72
560.301	16.82
560.498	16.91
560.696	17.01
560.893	17.19
561.091	17.33
561.288	17.5
561.486	17.63
561.683	17.73
561.88	17.84
562.078	18.01
562.275	18.01
562.473	18.03
562.67	18.2
562.867	18.24
563.064	18.18
563.262	18.29
563.459	18.42
563.656	18.52
563.853	18.58
564.051	18.85
564.248	19.04
564.445	19.12
564.642	19.2
564.839	19.43
565.036	19.5
565.234	19.66
565.431	19.75
565.628	19.86
565.825	20.02
566.022	20.07
566.219	20.1
566.416	20.3
566.613	20.35
566.81	20.38
567.007	20.41
567.204	20.47
567.401	20.43
567.598	20.48
567.795	20.51
567.991	20.6
568.188	20.64
568.385	20.77
568.582	20.91
568.779	21.01
568.976	21.11
569.172	21.29
569.369	21.3
569.566	21.31
569.763	21.37
569.96	21.3
570.156	21.3
570.353	21.39
570.55	21.49
570.746	21.48
570.943	21.68
571.14	21.71
571.336	21.76
571.533	21.84
571.729	21.87
571.926	21.89
572.123	22.06
572.319	22.13
572.516	22.09
572.712	22.22
572.909	22.25
573.105	22.18
573.302	22.22
573.498	22.34
573.695	22.34
573.891	22.38
574.087	22.35
574.284	22.35
574.48	22.26
574.677	22.27
574.873	22.29
575.069	22.43
575.266	22.46
575.462	22.47
575.658	22.6
575.854	22.68
576.051	22.63
576.247	22.56
576.443	22.58
576.639	22.46
576.835	22.42
577.032	22.48
577.228	22.68
577.424	22.77
577.62	22.71
577.816	22.72
578.012	22.66
578.208	22.48
578.404	22.43
578.6	22.48
578.796	22.45
578.993	22.48
579.189	22.47
579.384	22.32
579.58	22.28
579.776	22.27
579.972	22.15
580.168	22.05
580.364	22.15
580.56	22.07
580.756	22.01
580.952	21.94
581.148	22.01
581.343	22.02
581.539	22.15
581.735	22.15
581.931	22.25
582.127	22.31
582.322	22.18
582.518	22.13
582.714	22.18
582.909	22.09
583.105	21.96
583.301	21.95
583.496	22.01
583.692	21.89
583.888	21.96
584.083	22.09
584.279	22.19
584.474	22.02
584.67	22.05
584.866	21.95
585.061	21.74
585.257	21.76
585.452	21.75
585.648	21.7
585.843	21.77
586.039	21.83
586.234	21.79
586.429	21.78
586.625	21.9
586.82	21.85
587.015	21.87
587.211	21.68
587.406	21.7
587.601	21.63
587.797	21.62
587.992	21.63
588.187	21.8
588.383	21.79
588.578	21.79
588.773	21.78
588.968	21.75
589.163	21.82
589.359	21.84
589.554	21.85
589.749	21.9
589.944	21.93
590.139	21.94
590.334	21.96
590.529	22.02
590.724	22.04
590.919	22.16
591.114	22.11
591.309	22.12
591.504	22.13
591.699	22.15
591.894	22.2
592.089	22.23
592.284	22.3
592.479	22.52
592.674	22.6
592.869	22.58
593.064	22.77
593.259	22.82
593.454	22.81
593.648	22.78
593.843	22.76
594.038	22.77
594.233	22.76
594.428	22.67
594.622	22.74
594.817	22.99
595.012	23
595.206	23.14
595.401	23.28
595.596	23.46
595.79	23.51
595.985	23.62
596.18	23.68
596.374	23.81
596.569	23.79
596.763	23.79
596.958	23.85
597.153	23.96
597.347	23.93
597.542	24.08
597.736	24.12
597.931	24.24
598.125	24.28
598.319	24.45
598.514	24.37
598.708	24.53
598.903	24.56
599.097	24.65
599.291	24.66
599.486	24.68
599.68	24.64
599.874	24.68
600.069	24.65
600.263	24.69
600.457	24.85
600.651	24.96
600.846	25.02
601.04	25.13
601.234	25.14
601.428	25.25
601.622	25.28
601.817	25.28
602.011	25.32
602.205	25.47
602.399	25.5
602.593	25.46
602.787	25.53
602.981	25.52
603.175	25.53
603.369	25.37
603.563	25.4
603.757	25.43
603.951	25.42
604.145	25.4
604.339	25.57
604.533	25.55
604.727	25.51
604.921	25.44
605.115	25.42
605.309	25.39
605.502	25.42
605.696	25.29
605.89	25.31
606.084	25.25
606.278	25.13
606.471	24.97
606.665	24.99
606.859	24.75
607.053	24.76
607.246	24.77
607.44	24.68
607.634	24.59
607.827	24.67
608.021	24.45
608.214	24.31
608.408	24.28
608.602	24.26
608.795	24.22
608.989	24.23
609.182	24.21
609.376	24.24
609.569	24.04
609.763	23.97
609.956	23.83
610.15	23.66
610.343	23.55
610.537	23.55
610.73	23.45
610.923	23.45
611.117	23.46
611.31	23.41
611.504	23.36
611.697	23.25
611.89	23.23
612.083	23.13
612.277	23.13
612.47	22.98
612.663	22.92
612.856	22.81
613.05	22.64
613.243	22.45
613.436	22.36
613.629	22.26
613.822	22.07
614.015	22.07
614.209	21.95
614.402	21.98
614.595	21.93
614.788	21.86
614.981	21.68
615.174	21.6
615.367	21.43
615.56	21.3
615.753	21.29
615.946	21.22
616.139	21.17
616.332	21.25
616.525	21.29
616.718	21.29
616.911	21.3
617.103	21.34
617.296	21.2
617.489	21.11
617.682	20.94
617.875	20.94
618.067	20.8
618.26	20.71
618.453	20.7
618.646	20.8
618.838	20.71
619.031	20.87
619.224	20.87
619.417	20.91
619.609	20.86
619.802	20.86
619.994	20.69
620.187	20.68
620.38	20.56
620.572	20.4
620.765	20.35
620.957	20.26
621.15	20.11
621.342	20.06
621.535	20.1
621.727	19.98
621.92	19.95
622.112	20.03
622.305	20.05
622.497	20
622.69	20.02
622.882	20.1
623.074	20.05
623.267	19.94
623.459	19.9
623.651	19.84
623.844	19.82
624.036	19.86
624.228	19.82
624.42	19.79
624.613	19.83
624.805	19.74
624.997	19.62
625.189	19.58
625.381	19.57
625.574	19.5
625.766	19.36
625.958	19.42
626.15	19.47
626.342	19.46
626.534	19.48
626.726	19.43
626.918	19.36
627.11	19.24
627.302	19.17
627.494	19.16
627.686	19.27
627.878	19.18
628.07	19.22
628.262	19.23
628.454	19.18
628.646	19.18
628.838	19.27
629.029	19.16
629.221	19.15
629.413	19
629.605	18.86
629.797	18.84
629.989	18.88
630.18	18.84
630.372	18.9
630.564	18.86
630.755	18.87
630.947	18.87
631.139	18.78
631.33	18.69
631.522	18.78
631.714	18.63
631.905	18.57
632.097	18.51
632.289	18.58
632.48	18.47
632.672	18.35
632.863	18.24
633.055	18.19
633.246	18.11
633.438	18.08
633.629	18.19
633.821	18.26
634.012	18.22
634.203	18.17
634.395	18.21
634.586	18.23
634.777	18.11
634.969	18.21
635.16	18.26
635.351	18.16
635.543	18.11
635.734	18.15
635.925	18.06
636.117	18.07
636.308	18.13
636.499	18.07
636.69	18.03
636.881	18
637.073	18.04
637.264	18.01
637.455	17.98
637.646	18.08
637.837	18.16
638.028	18.05
638.219	18.07
638.41	18.04
638.601	17.92
638.792	17.88
638.983	17.81
639.174	17.72
639.365	17.76
639.556	17.79
639.747	17.77
639.938	17.8
640.129	17.82
640.32	17.78
640.511	17.77
640.701	17.81
640.892	17.71
641.083	17.69
641.274	17.67
641.465	17.66
641.655	17.46
641.846	17.42
642.037	17.33
642.228	17.31
642.418	17.33
642.609	17.43
642.8	17.57
642.99	17.63
643.181	17.64
643.372	17.64
643.562	17.57
643.753	17.44
643.943	17.36
644.134	17.18
644.324	17.04
644.515	16.99
644.705	17.05
644.896	17
645.086	17.04
645.277	17.06
645.467	17.12
645.658	17
645.848	17.09
646.038	17.1
646.229	17.02
646.419	16.89
646.61	16.87
646.8	16.69
646.99	16.63
647.18	16.56
647.371	16.45
647.561	16.39
647.751	16.42
647.941	16.34
648.132	16.33
648.322	16.42
648.512	16.5
648.702	16.47
648.892	16.46
649.082	16.44
649.272	16.26
649.462	16.06
649.653	16.05
649.843	15.9
650.033	15.94
650.223	15.98
650.413	15.99
650.603	15.97
650.793	16.02
650.983	15.89
651.172	15.76
651.362	15.71
651.552	15.55
651.742	15.44
651.932	15.5
652.122	15.64
652.312	15.74
652.502	15.67
652.691	15.64
652.881	15.43
653.071	15.25
653.261	15.02
653.45	14.89
653.64	14.89
653.83	14.85
654.019	14.8
654.209	14.67
654.399	14.68
654.588	14.51
654.778	14.32
654.968	14.17
655.157	14.15
655.347	13.98
655.536	13.84
655.726	13.76
655.915	13.55
656.105	13.39
656.294	13.25
656.484	13.17
656.673	13.05
656.863	13.01
657.052	12.81
657.241	12.66
657.431	12.39
657.62	12.19
657.809	11.89
657.999	11.77
658.188	11.45
658.377	11.38
658.567	11.28
658.756	11.16
658.945	10.9
659.134	10.9
659.324	10.64
659.513	10.47
659.702	10.31
659.891	10.27
660.08	10.12
660.269	10.13
660.458	9.96
660.648	9.82
660.837	9.65
661.026	9.54
661.215	9.24
661.404	9.08
661.593	9.03
661.782	8.78
661.971	8.7
662.16	8.61
662.349	8.54
662.538	8.35
662.726	8.41
662.915	8.24
663.104	8.19
663.293	8.12
663.482	8.14
663.671	7.99
663.86	7.79
664.048	7.68
664.237	7.62
664.426	7.43
664.615	7.43
664.803	7.39
664.992	7.25
665.181	7.1
665.369	6.92
665.558	6.66
665.747	6.59
665.935	6.66
666.124	6.73
666.312	6.9
666.501	6.9
666.69	6.77
666.878	6.7
667.067	6.53
667.255	6.52
667.444	6.83
667.632	6.96
667.82	6.96
668.009	6.91
668.197	6.75
668.386	6.5
668.574	6.55
668.762	6.48
668.951	6.34
669.139	6.3
669.327	6.12
669.516	6.11
669.704	5.92
669.892	6.12
670.08	6.18
670.269	6.13
670.457	5.95
670.645	5.98
670.833	6.05
671.021	6
671.21	6.08
671.398	6.28
671.586	6.31
671.774	6.07
671.962	6.07
672.15	6.08
672.338	5.96
672.526	6.05
672.714	6.05
672.902	6.12
673.09	6.23
673.278	6.39
673.466	6.43
673.654	6.55
673.842	6.49
674.03	6.48
674.218	6.31
674.405	6.35
674.593	6.25
674.781	6.28
674.969	6.32
675.157	6.5
675.344	6.57
675.532	6.7
675.72	6.9
675.908	6.97
676.095	6.89
676.283	6.83
676.471	6.97
676.658	6.91
676.846	6.86
677.033	7.08
677.221	7.23
677.409	7.1
677.596	7.1
677.784	7.18
677.971	7.12
678.159	7.17
678.346	7.31
678.534	7.44
678.721	7.59
678.909	7.66
679.096	7.56
679.283	7.87
679.471	7.98
679.658	8.01
679.846	8.24
680.033	8.64
680.22	8.57
680.408	8.56
680.595	8.66
680.782	8.47
680.969	8.53
681.157	8.56
681.344	8.71
681.531	8.81
681.718	8.95
681.905	8.92
682.093	9.08
682.28	9.31
682.467	9.63
682.654	9.83
682.841	9.97
683.028	10.2
683.215	10.36
683.402	10.34
683.589	10.63
683.776	10.92
683.963	10.99
684.15	11.2
684.337	11.3
684.524	11.38
684.711	11.57
684.898	11.61
685.085	11.85
685.271	12.24
685.458	12.53
685.645	12.63
685.832	13.13
686.019	13.31
686.205	13.57
686.392	13.86
686.579	14.25
686.766	14.58
686.952	14.9
687.139	15.45
687.326	15.72
687.512	16.13
687.699	16.49
687.886	16.73
688.072	16.76
688.259	17.25
688.445	17.69
688.632	18.03
688.818	18.78
689.005	19.26
689.191	19.77
689.378	20.32
689.564	20.93
689.751	21.27
689.937	21.9
690.124	22.42
690.31	22.72
690.496	23.11
690.683	23.82
690.869	24.43
691.055	24.97
691.242	25.78
691.428	26.51
691.614	27.12
691.8	27.83
691.987	28.53
692.173	29.21
692.359	29.88
692.545	30.38
692.731	30.85
692.918	31.52
693.104	32.05
693.29	32.8
693.476	33.48
693.662	34.31
693.848	34.79
694.034	35.43
694.22	35.87
694.406	36.69
694.592	37.32
694.778	38.09
694.964	38.98
695.15	39.75
695.336	40.44
695.522	41.44
695.708	42.17
695.894	42.63
696.08	43.47
696.265	44.03
696.451	44.49
696.637	45.12
696.823	45.86
697.009	46.43
697.194	47.12
697.38	47.54
697.566	48.35
697.751	48.95
697.937	49.9
698.123	50.8
698.308	51.68
698.494	52.4
698.68	52.94
698.865	53.39
699.051	54.01
699.236	54.38
699.422	54.71
699.607	55.23
699.793	55.69
699.978	55.71
700.164	56.23
700.349	57.02
700.535	57.47
700.72	57.78
700.906	58.85
701.091	59.33
701.276	59.74
701.462	60.79
701.647	61.54
701.832	61.8
702.018	62.42
702.203	62.82
702.388	62.9
702.573	63.37
702.759	64
702.944	64.48
703.129	64.77
703.314	65.41
703.499	65.46
703.684	65.52
703.87	66.46
704.055	67.35
704.24	67.68
704.425	68.68
704.61	69.45
704.795	69.16
704.98	69.14
705.165	69.23
705.35	69.36
705.535	69.49
705.72	69.88
705.905	70.39
706.09	70.99
706.275	71.04
706.459	71.03
706.644	71.37
706.829	71.21
707.014	71.5
707.199	72.03
707.384	72.41
707.568	72.68
707.753	73.61
707.938	73.79
708.123	73.9
708.307	73.83
708.492	73.86
708.677	73.94
708.861	73.78
709.046	74.01
709.231	75.08
709.415	75.64
709.6	75.41
709.784	75.84
709.969	75.8
710.153	75.55
710.338	75.74
710.522	76.38
710.707	77.13
710.891	77.44
711.076	77.68
711.26	77.5
711.445	77.53
711.629	77.2
711.813	77.48
711.998	77.82
712.182	77.84
712.366	78.66
712.551	79.33
712.735	79.49
712.919	79.51
713.103	80.15
713.288	79.59
713.472	79.27
713.656	79.46
713.84	79.39
714.024	79.69
714.208	79.81
714.393	80.21
714.577	80.51
714.761	80.63
714.945	80.37
715.129	80.49
715.313	80.49
715.497	80.27
715.681	81.29
715.865	81.32
716.049	81.44
716.233	81.52
716.417	81.99
716.601	81.11
716.785	81.17
716.968	81.42
717.152	81.44
717.336	81.36
717.52	81.6
717.704	81.84
717.888	82.02
718.071	82.07
718.255	82.14
718.439	81.99
718.622	82.41
718.806	82.31
718.99	81.85
719.174	81.89
719.357	82.29
719.541	82.09
719.724	82.06
719.908	83.29
720.092	83.51
720.275	83.66
720.459	83.55
720.642	83.41
720.826	82.94
721.009	82.59
721.193	82.18
721.376	82.4
721.559	82.65
721.743	83.15
721.926	83.81
722.11	84.27
722.293	83.64
722.476	83.36
722.66	83.02
722.843	82.71
723.026	82.41
723.21	83.04
723.393	84.11
723.576	83.96
723.759	83.39
723.942	83.44
724.126	83.2
724.309	82.22
724.492	82.49
724.675	82.65
724.858	83.71
725.041	84.48
725.224	85.54
725.407	85.45
725.59	86.19
725.774	85.37
725.957	84.47
726.14	84.15
726.322	84.28
726.505	83.87
726.688	84.49
726.871	84.66
727.054	84.95
727.237	84.57
727.42	84.88
727.603	84.73
727.786	85.02
727.968	84.86
728.151	85.29
728.334	85.45
728.517	85.7
728.699	86.24
728.882	85.58
729.065	85.82
729.248	85.92
729.43	85.55
729.613	86.38
729.796	86.98
729.978	86
730.161	85.99
730.343	85.65
730.526	85.01
730.708	84.71
730.891	85.66
731.073	85.15
731.256	85.13
731.438	85.26
731.621	86.36
731.803	86.24
731.986	86.71
732.168	86.61
732.35	86.59
732.533	86.1
732.715	85.84
732.898	86.29
733.08	86.1
733.262	85.89
733.444	85.76
733.627	86.29
733.809	86.6
733.991	88.13
734.173	87.55
734.355	87.17
734.538	87.82
734.72	86.8
734.902	86.78
735.084	87.62
735.266	87.51
735.448	87.94
735.63	88.53
735.812	87.93
735.994	88.76
736.176	89.28
736.358	88.18
736.54	89.25
736.722	88.92
736.904	88.29
737.086	88.71
737.268	89.19
737.45	88.79
737.632	89.14
737.814	88.14
737.995	87.65
738.177	87.58
738.359	87.45
738.541	87.53
738.723	88.62
738.904	89.25
739.086	89.38
739.268	88.34
739.449	89.36
739.631	88.82
739.813	89.17
739.994	89.68
740.176	90.63
740.358	89.46
740.539	90.72
740.721	90.47
740.902	91.1
741.084	90.32
741.265	91.04
741.447	90.87
741.628	90.35
741.81	88.78
741.991	89.34
742.172	89.75
742.354	89.86
742.535	90.38
742.717	90.66
742.898	91.16
743.079	90.95
743.261	89.77
743.442	89.92
743.623	91.36
743.804	91.08
743.986	91.1
744.167	90.77
744.348	90.16
744.529	88.94
744.71	88.34
744.891	88.02
745.073	87.77
745.254	87.2
745.435	86.89
745.616	87.12
745.797	86.64
745.978	87.43
746.159	87.8
746.34	87.31
746.521	88.57
746.702	87.36
746.883	88.03
747.064	87.92
747.245	88.26
747.426	86.92
747.606	88.18
747.787	87.04
747.968	86.79
748.149	87.14
748.33	86.94
748.51	87.79
748.691	88.03
748.872	88.64
749.053	88.29
749.233	87.89
749.414	86.32
749.595	85.54
749.775	85.26
749.956	85.28
750.137	85.81
750.317	87.16
750.498	89.27
750.678	88.86
750.859	89.01
751.04	88.88
751.22	87.69
751.4	86.18
751.581	85.79
751.761	86.7
751.942	87.56
752.122	87.43
752.303	87.5
752.483	88.45
752.663	86.63
752.844	84.49
753.024	86.13
753.204	86.71
753.385	84.71
753.565	86.03
753.745	87.02
753.925	85.95
754.106	85.29
754.286	86.19
754.466	85.95
754.646	86.46
754.826	86.03
755.006	84.98
755.187	86.56
755.367	86.51
755.547	86.49
755.727	87.32
755.907	88.16
756.087	87.66
756.267	85.6
756.447	84.92
756.627	82.67
756.807	83.7
756.987	83.39
757.167	84.81
757.346	85.19
757.526	85.66
757.706	86.22
757.886	86.98
758.066	87.66
758.246	88.38
758.425	87.58
758.605	86.12
758.785	85.54
758.965	84.89
759.144	83.98
759.324	86.01
759.504	85.35
759.683	85.44
759.863	83.92
760.043	83.28
760.222	82.58
760.402	83.53
760.581	83.44
760.761	85.9
760.94	85.33
761.12	86.81
761.299	86.55
761.479	85.54
761.658	83.52
761.838	84.07
762.017	83.83
762.197	83.81
762.376	84.63
762.555	85.55
762.735	86.18
762.914	84.13
763.093	84.11
763.273	82.94
763.452	82.73
763.631	82.38
763.81	82.19
763.99	81.92
764.169	84.15
764.348	82.62
764.527	82.14
764.706	85.4
764.885	86.74
765.064	82.41
765.243	83.84
765.423	85.79
765.602	84.07
765.781	82.13
765.96	84.43
766.139	84.14
766.318	83
766.497	82.51
766.676	83.46
766.854	84.56
767.033	85
767.212	84.06
767.391	84.55
767.57	85.07
767.749	84.85
767.928	85.07
768.106	84.09
768.285	82.11
768.464	81.92
768.643	80.52
768.821	78.83
769	81.4
769.179	81.24
769.357	79.19
769.536	79.22
769.715	80.32
769.893	80.58
770.072	80.89
770.25	81.52
770.429	82.37
770.607	81.39
770.786	80.76
770.964	82.84
771.143	81.94
771.321	83.16
771.5	83.96
771.678	82.78
771.857	81.37
772.035	82.48
772.213	80.75
772.392	79.41
772.57	81.15
772.748	81.72
772.927	81.67
773.105	82.42
773.283	83.2
773.461	82.92
773.64	83.91
773.818	83.34
773.996	82.18
774.174	82.59
774.352	78.76
774.531	74.42
774.709	76.22
774.887	77.49
775.065	78.54
775.243	81.35
775.421	84.17
775.599	83.95
775.777	81.1
775.955	77.26
776.133	76.13
776.311	75.39
776.489	73.16
776.667	75.16
776.844	75.96
777.022	75.22
777.2	75.54
777.378	75.86
777.556	74.38
777.734	78.69
777.911	81.92
778.089	80.6
778.267	80.23
778.445	79.18
778.622	75.13
778.8	72.44
778.978	74.73
779.155	73.54
779.333	75.07
779.511	76.35
779.688	79.34
779.866	76.49
780.043	75.69
780.221	75.15
780.398	74.26
780.576	74.55
780.753	77.29
780.931	79.62
781.108	78.23
781.286	78.25
781.463	74.99
781.64	69.75
781.818	69.79
781.995	73.21
782.172	75.03
782.35	74.48
782.527	79.33
782.704	78.95
782.882	79.96
783.059	77.49
783.236	78.49
783.413	77.36
783.59	78.62
783.768	73.7
783.945	77.08
784.122	78.38
784.299	81.56
784.476	78
784.653	78.2
784.83	74.87
785.007	71.8
785.184	69.76
785.361	71.19
785.538	74.94
785.715	80
785.892	81.08
786.069	82.87
786.246	85.61
786.423	86.56
786.6	83.19
786.776	83.46
786.953	81.64
787.13	80.91
787.307	78.6
787.484	78.59
787.66	75.65
787.837	76.89
788.014	71.74
788.191	69.48
788.367	64.97
788.544	72.39
788.721	68.82
788.897	74.25
789.074	77.87
789.25	78.14
789.427	75.47
789.603	76.3
789.78	74.15
789.956	70.92
790.133	70.24
790.309	70.98
790.486	73.66
790.662	71.92
790.839	72.85
791.015	73.63
791.192	71.95
791.368	72.06
791.544	73.34
791.721	71.82
791.897	74.74
792.073	69.22
792.249	63.21
792.426	65.45
792.602	71.36
792.778	69.93
792.954	71.2
793.13	76.09
793.307	68.57
793.483	58.03
793.659	58.37
793.835	64.01
794.011	62.42
794.187	66.85
794.363	68.23
794.539	68.46
794.715	63.53
794.891	62.98
795.067	61.69
795.243	69.36
795.419	66.64
795.595	64.19
795.771	60.33
795.947	63.1
796.122	57.75
796.298	63.47
796.474	69.18
796.65	72.24
796.826	70.59
797.001	72.51
797.177	68.85
797.353	66.39
797.529	66.14
797.704	65.24
797.88	62.17
798.056	61.9
798.231	61.84
798.407	66.93
798.582	71.64
798.758	79.09
798.934	83.96
799.109	82.21
799.285	75.56
799.46	72.65
799.636	67.05
799.811	58.66
799.986	60.61
800.162	65.5
800.337	67.31
800.513	62.47
800.688	63.76
800.863	69.45
801.039	62.65
801.214	56.53
801.389	63.14
801.565	67.03
801.74	53.8
801.915	61.96
802.09	68.07
802.265	70.13
802.441	65.62
802.616	71.61
802.791	69.18
802.966	64.56
803.141	59.43
803.316	60.58
803.491	63.57
803.666	67.55
803.841	65.24
804.016	63.29
804.191	64.41
804.366	62.33
804.541	55.66
804.716	56.98
804.891	51.68
805.066	53.7
805.241	49.08
805.416	47.51
805.591	50.77
805.765	60.09
805.94	60.98
806.115	64.34
806.29	63.01
806.464	61.03
806.639	60.4
806.814	53.32
806.989	45.89
807.163	59.75
807.338	63.54
807.512	60.08
807.687	58.94
807.862	74.08
808.036	76.65
808.211	79.02
808.385	87.7
808.56	95.79
808.734	96.67
808.909	88.22
809.083	79.27
809.258	77.08
809.432	75.53
809.606	65.93
809.781	56.66
809.955	64.99
810.13	63.42
810.304	54.99
810.478	49.28
810.652	69.15
810.827	62.86
811.001	61.99
811.175	65.46
811.349	66.4
811.524	52.02
811.698	41.15
811.872	41.85
812.046	49.37
812.22	61.01
812.394	58.7
812.568	75.27
812.742	76.82
812.916	71.31
813.09	70.45
813.264	74.37
813.438	67.08
813.612	65
813.786	63.15
813.96	64.13
814.134	61.48
814.308	70.59
814.482	73.55
814.656	68.77
814.83	70.88
815.003	74.47
815.177	61.71
815.351	56.06
815.525	56.1
815.698	51.36
815.872	41.3
816.046	39.35
816.219	39.29
816.393	52.08
816.567	59.6
816.74	68.5
816.914	71.97
817.088	76.47
817.261	65.17
817.435	46.95
817.608	53.04
817.782	46.94
817.955	35.5
818.129	30.52
818.302	36.47
818.475	38.86
818.649	46.99
818.822	46.31
818.996	71.87
819.169	85.3
819.342	70.36
819.516	68.07
819.689	79.05
819.862	61.73
820.035	47.53
820.209	47.81
820.382	46.43
820.555	45.46
820.728	30.86
820.901	30.66
821.075	33.35
821.248	43.94
821.421	28.39
821.594	38.31
821.767	52.92
821.94	70.86
822.113	40.86
822.286	50.05
822.459	58.54
822.632	55.16
822.805	34.87
822.978	50.62
823.151	47.69
823.324	40.44
823.496	20.19
823.669	14.85
823.842	8.52
824.015	-0.66
824.188	-8
824.361	11.23
824.533	15.47
824.706	37.09
824.879	36.75
825.051	50.79
825.224	49.6
825.397	57.08
825.569	30.48
825.742	55.49
825.915	65.26
826.087	61.41
826.26	43.21
826.432	53.11
826.605	38.66
826.777	25.33
826.95	28.83
827.122	25.53
827.295	32.18
827.467	36.03
827.64	8
827.812	4.73
827.984	27.48
828.157	16.26
828.329	-7.37
828.501	9.18
828.674	28.45
828.846	10.12
829.018	25.87
829.19	19.16
829.363	52.86
829.535	51.25
829.707	52.42
829.879	30.06
830.051	33.74
830.223	9.84
830.395	-8.48
830.568	-12.25
830.74	-5.78
830.912	13.09
831.084	4.33
831.256	5.5
831.428	0.14
831.6	-4.77
831.772	-26.51
831.943	-27.45
832.115	-0.83
832.287	14.51
832.459	20.53
832.631	27.19
832.803	38.43
832.975	29.62
833.146	22.64
833.318	17.7
833.49	25.68
833.662	15.05
833.833	5.67
834.005	3.11
834.177	11.33
834.348	20.51
834.52	-3.62
834.692	-1.09
834.863	-23.92
835.035	-19.46
835.206	-82.02
835.378	-12.3
835.549	1.22
835.721	43.77
835.892	43.44
836.064	46.32
836.235	64.81
836.407	85.05
836.578	31.72
836.749	43.29
836.921	45.3
837.092	-27.09
837.264	-43.81
837.435	-29.75
837.606	-3.78
837.777	19.68
837.949	36.2
838.12	34.09
838.291	36.27
838.462	35.34
838.633	24.97
838.805	18.58
838.976	36.95
839.147	18.45
839.318	-42.4
839.489	-93
839.66	-69.75
839.831	-41.4
840.002	-18
840.173	-5.91
840.344	43.85
840.515	25.94
840.686	-104.21
840.857	-70.8
841.028	-54.86
841.199	-23.24
841.369	-47.41
841.54	-9.83
841.711	20.69
841.882	59.39
842.053	9.61
842.223	4.43
842.394	15.29
842.565	9.3
842.736	9.98
842.906	19.46
843.077	36.08
843.248	53.51
843.418	27.46
843.589	4.11
843.759	77.6
843.93	74.87
844.101	20.11
844.271	29.61
844.442	37.52
844.612	33.91
844.783	5.64
844.953	-15.1
845.123	-48.62
845.294	-73.25
845.464	-190.97
845.635	-31.75
845.805	34.65
845.975	53.15
846.146	8.02
846.316	-9.6
846.486	-4.19
846.656	23.72
846.827	19.39
846.997	19.73
847.167	37.9
847.337	23.14
847.507	-8.12
847.677	-3.42
847.848	39.41
848.018	36.04
848.188	44.98
848.358	28.13
848.528	11.63
848.698	-10.91
848.868	-48.52
849.038	-137.55
849.208	-26.38
849.378	30.71
849.548	24.17
849.718	13.7
849.887	41.5
850.057	22.69
850.227	-11.78
850.397	-52.05
850.567	-138.65
850.737	-347.28
850.906	-1050.94
851.076	-722.46
851.246	-272.12
851.415	-11.87
851.585	-13.95
851.755	-31.69
851.924	21.38
852.094	14.57
852.264	-56.58
852.433	-655.53
852.603	-132.36
852.772	-72.95
852.942	-24.02
853.111	-17.79
853.281	11.86
853.45	53.06
853.62	-48.63
853.789	-58.86
853.959	-20.18
854.128	-39.52
854.297	-98.3
854.467	-115.42
854.636	-128.94
854.805	-75.08
854.975	-112.61
855.144	-163.77
855.313	-19.41
855.482	-206.39
855.652	-105.9
855.821	-46.44
855.99	28.94
856.159	23.8
856.328	14.15
856.497	3.05
856.667	8.98
856.836	-7.73
857.005	-11.97
857.174	-31.39
857.343	-64.24
857.512	-59.72
857.681	-67.65
857.85	-125.22
858.019	-35.16
858.188	-36.18
858.356	-52.01
858.525	-92.07
858.694	-64.04
858.863	-174.9
859.032	-119.51
859.201	-171.29
859.369	-98.92
859.538	-113.78
859.707	-105.35
859.876	-121.24
860.044	-85.3
860.213	-3.53
860.382	-5.89
860.55	31
860.719	67.2
860.888	83.91
861.056	62.59
861.225	58.5
861.393	72.31
861.562	73.13
861.73	-45.26
861.899	-154.32
862.067	-1543.97
862.236	-63.45
862.404	-235.37
862.572	-88.95
862.741	5.67
862.909	16.55
863.078	-40.2
863.246	0.69
863.414	12.97
863.582	18.5
863.751	-15.55
863.919	-19.73
864.087	39.32
864.255	21.02
864.424	-283.57
864.592	-7.71
864.76	-49.95
864.928	-163.8
865.096	-142.6
865.264	-51.15
865.432	-1392.61
865.6	56.63
865.768	-81.9
865.936	-23.46
866.104	-38.92
866.272	-19.92
866.44	-327.46
866.608	587.36
866.776	336.99
866.944	3099.42
867.112	-535.49
867.28	-193.7
867.448	-43.32
867.615	-0.95
867.783	19.04
867.951	1.28
868.119	52.32
868.286	11.48
868.454	-58.11
868.622	-55.31
868.789	-36.37
868.957	-1698.21
869.125	-1723.03
869.292	-104.12
869.46	-174.61
869.627	-6.18
869.795	-24.71
869.963	7.67
870.13	38.9
870.298	67.02
870.465	-15.48
870.632	-47.82
870.8	-36.46
870.967	-108.15
871.135	-193.66
871.302	-110.63
871.469	-95.74
871.637	-173.22
871.804	-63.18
871.971	-65.37
872.139	-322.67
872.306	8.76
872.473	8.93
872.64	-176.72
872.807	24.11
872.975	47.9
873.142	-180.27
873.309	1607.43
873.476	63.11
873.643	67.44
873.81	57.66
873.977	69.29
874.144	90.65
874.311	-58.06
874.478	-96.23
874.645	-143.38
874.812	-55.8
874.979	-50.61
875.146	-21.87
875.313	-54.46
875.48	28.98
875.647	-9.97
875.813	-52.98
875.98	-42.03
876.147	-45.54
876.314	-114.57
876.481	766.74
876.647	-755.9
876.814	127.85
876.981	109.33
877.147	22.59
877.314	25.33
877.481	44.9
877.647	17.72
877.814	2.3
877.98	-32.72
878.147	44.73
878.314	61.71
878.48	11.66
878.647	5.62
878.813	73.27
878.979	20.69
879.146	-1.57
879.312	38.33
879.479	40.74
879.645	-102.29
879.811	-182.89
879.978	-515.84
880.144	-161.17
880.31	-96.06
880.477	-226.37
880.643	-268.57
880.809	-100.37
880.975	-60.96
881.142	-578.86
881.308	-15.97
881.474	16.33
881.64	-4.81
881.806	-96.23
881.972	-18.83
882.138	-65.57
882.304	-108.29
882.47	-213.46
882.636	-868.65
882.802	-312.66
882.968	-52.29
883.134	-15.55
883.3	-4.47
883.466	42.22
883.632	81.58
883.798	32.09
883.964	6.98
884.129	-3.48
884.295	30.74
884.461	-18.54
884.627	-17.47
884.793	-48.86
884.958	-6.49
885.124	-89.55
885.29	-195.65
885.455	-339.68
885.621	-57.65
885.787	-64.2
885.952	-16.94
886.118	-17.02
886.283	-14.62
886.449	-60.13
886.614	-71.92
886.78	-78.75
886.945	414.34
887.111	-277.89
887.276	-218.61
887.442	-595.23
887.607	-413.56
887.773	-300.24
887.938	-326.04
888.103	-381.97
888.269	-300.23
888.434	-530.68
888.599	-177.9
888.764	-66.94
888.93	-25.42
889.095	-41.85
889.26	-57.25
889.425	-33.74
889.59	9.72
889.756	-64.42
889.921	-26.03
890.086	37.71
890.251	44.83
890.416	-116.88
890.581	-514.11
890.746	-31.87
890.911	168.63
891.076	133.22
891.241	-273.69
891.406	2.09
891.571	-79.8
891.736	-307.22
891.901	-765.27
892.065	386.54
892.23	128.05
892.395	196.23
892.56	259.47
892.725	-159.96
892.889	-1165.24
893.054	-129.89
893.219	-43.6
893.384	-12.72
893.548	-57.44
893.713	-74.2
893.878	-60.63
