Data from Ofra_2a_PS_OGT35_Reflection_2.txt Node
Date: Tue Jul 20 09:29:43 EDT 2021
User: Adam
Spectrometer: FLMT01687
Trigger mode: 0
Integration Time (sec): 9.450000E-1
Scans to average: 3
Electric dark correction enabled: true
Nonlinearity correction enabled: false
Boxcar width: 3
XAxis mode: Wavelengths
Number of Pixels in Spectrum: 3648
>>>>>Begin Spectral Data<<<<<
179.494	636.69
179.716	428.17
179.937	485.71
180.158	1535.94
180.38	-382.56
180.601	-73.23
180.823	15.89
181.044	214.34
181.265	297.61
181.486	125
181.708	721.74
181.929	-146.05
182.15	-611.36
182.372	142.6
182.593	302.74
182.814	-209.58
183.035	22.73
183.257	-18.65
183.478	33.19
183.699	67.09
183.92	42.43
184.141	49.35
184.363	22.61
184.584	12.52
184.805	29.44
185.026	-3.17
185.247	-39.05
185.468	-42.11
185.689	-23.57
185.91	-12.08
186.132	-5.45
186.353	-26.63
186.574	6.94
186.795	0.16
187.016	19.18
187.237	18.52
187.458	12.91
187.679	0.46
187.9	11.01
188.121	-19.56
188.342	15.55
188.563	10.12
188.784	4.78
189.005	24.82
189.226	25.56
189.447	25.75
189.667	39.37
189.888	35.59
190.109	28.9
190.33	22.59
190.551	5.76
190.772	7.48
190.993	17.49
191.214	4.43
191.434	-4.91
191.655	8.42
191.876	9.71
192.097	8.34
192.318	19.9
192.538	13.8
192.759	19.95
192.98	12.08
193.201	14.45
193.421	22.14
193.642	28.5
193.863	15.91
194.083	18.75
194.304	18.54
194.525	39.92
194.745	30.38
194.966	23.17
195.187	39.18
195.407	34.47
195.628	41.82
195.848	47.57
196.069	48.22
196.29	45.93
196.51	53.06
196.731	48.17
196.951	49.11
197.172	33.13
197.392	29.03
197.613	24.96
197.833	23.89
198.054	22.72
198.274	-13.43
198.495	-11.73
198.715	-18.69
198.936	-44.09
199.156	-17.17
199.377	-17.6
199.597	-8.73
199.817	23.88
200.038	22.08
200.258	30.89
200.479	39.56
200.699	25.79
200.919	22.5
201.14	24.92
201.36	27.76
201.58	28.96
201.801	32.05
202.021	31.39
202.241	33.83
202.461	42.12
202.682	50.3
202.902	43.25
203.122	36.5
203.342	31.97
203.563	31.85
203.783	32.46
204.003	29.17
204.223	22.84
204.443	20.76
204.663	24.75
204.884	11.89
205.104	12.79
205.324	22.63
205.544	30.25
205.764	33.17
205.984	23.58
206.204	15.71
206.424	30.66
206.644	26.27
206.864	11.36
207.084	16.82
207.304	13.52
207.525	11.07
207.745	17.32
207.964	20.8
208.184	22.43
208.404	25.9
208.624	2.86
208.844	-3.3
209.064	21.77
209.284	25.32
209.504	27.78
209.724	2.21
209.944	1.33
210.164	16.25
210.384	21.78
210.604	-2.36
210.823	-15.09
211.043	-28.3
211.263	2.61
211.483	5.7
211.703	10.82
211.922	18.64
212.142	26.13
212.362	43.87
212.582	50
212.801	46.59
213.021	52.5
213.241	34.74
213.461	15.76
213.68	20.67
213.9	11.72
214.12	-8.59
214.339	1.44
214.559	3.36
214.779	17.67
214.998	25.4
215.218	8.96
215.438	23.55
215.657	34.76
215.877	29.17
216.096	25.91
216.316	20.39
216.535	19.17
216.755	19.67
216.974	3.59
217.194	5.46
217.413	11.15
217.633	17.6
217.852	13.38
218.072	16.62
218.291	38.19
218.511	46.95
218.73	44.41
218.95	48.88
219.169	38.36
219.389	39.3
219.608	37.6
219.827	23.84
220.047	18.2
220.266	25.14
220.485	24.14
220.705	25.59
220.924	27.72
221.143	24.42
221.363	20.43
221.582	13.05
221.801	12.05
222.021	9.32
222.24	4.53
222.459	4.06
222.678	-3.86
222.897	10.7
223.117	9.35
223.336	8.26
223.555	-1.2
223.774	12.47
223.993	16.69
224.213	11.04
224.432	11.25
224.651	1.92
224.87	-3.84
225.089	12.92
225.308	14.01
225.527	12.16
225.746	11.06
225.965	18.9
226.184	21.11
226.404	36.85
226.623	30.03
226.842	21.43
227.061	19
227.28	51
227.499	44.89
227.718	48.59
227.936	38.17
228.155	41.18
228.374	45.03
228.593	48.1
228.812	31.69
229.031	24.88
229.25	25.98
229.469	30.24
229.688	27.29
229.907	24.25
230.125	25.22
230.344	25.1
230.563	32.14
230.782	20.16
231.001	24.63
231.22	20.34
231.438	26.55
231.657	32.33
231.876	26.48
232.095	15.86
232.313	27.58
232.532	25.11
232.751	29.56
232.969	39.86
233.188	30.09
233.407	35
233.625	37.34
233.844	38.77
234.063	34.97
234.281	27.19
234.5	17.32
234.719	11.93
234.937	19.29
235.156	15.65
235.374	3.17
235.593	-3.43
235.811	-7.07
236.03	-15.39
236.249	9.8
236.467	7.3
236.686	20.12
236.904	25.34
237.123	35.22
237.341	29.87
237.559	28.5
237.778	26.67
237.996	17.4
238.215	11
238.433	15.83
238.652	15.57
238.87	16.17
239.088	13.77
239.307	11.73
239.525	12.24
239.743	5.75
239.962	8.13
240.18	13.96
240.398	17.87
240.617	28.35
240.835	26.7
241.053	31.52
241.271	34.99
241.49	24.66
241.708	19.77
241.926	11
242.144	8.34
242.363	6.72
242.581	17.18
242.799	19.82
243.017	28.53
243.235	25.86
243.453	31.36
243.672	24.56
243.89	18.65
244.108	19.25
244.326	28.33
244.544	27.09
244.762	33.22
244.98	33.43
245.198	22.72
245.416	31.67
245.634	42.58
245.852	34.6
246.07	34.62
246.288	21.77
246.506	21.79
246.724	41.27
246.942	34.41
247.16	9.05
247.378	0.32
247.596	1.79
247.814	6.5
248.032	11.02
248.25	7.96
248.468	13.52
248.685	32.04
248.903	34.12
249.121	30.93
249.339	31.66
249.557	26
249.775	15.36
249.992	12.94
250.21	2.29
250.428	1.14
250.646	-2.74
250.863	-2.64
251.081	-1.01
251.299	15.49
251.517	21.07
251.734	19.61
251.952	29.2
252.17	11.85
252.387	16.78
252.605	22.22
252.823	10.15
253.04	1.57
253.258	14.03
253.475	12.31
253.693	35
253.911	36.38
254.128	28.55
254.346	28.34
254.563	27.65
254.781	17.39
254.998	18.83
255.216	8
255.433	-0.21
255.651	-2.81
255.868	-0.14
256.086	-2.53
256.303	7.13
256.521	-2.19
256.738	-0.07
256.956	4.03
257.173	14.56
257.39	10.38
257.608	22.69
257.825	17.43
258.043	25.66
258.26	27.97
258.477	29.66
258.695	24.21
258.912	36.24
259.129	16.53
259.346	19.13
259.564	8.56
259.781	14.19
259.998	12.58
260.216	21.56
260.433	17.03
260.65	22.83
260.867	19.73
261.084	27.55
261.302	20.3
261.519	7.59
261.736	-6.13
261.953	-11.9
262.17	0.31
262.387	7.16
262.604	-10.32
262.822	1.49
263.039	9.37
263.256	8.75
263.473	1.61
263.69	2.26
263.907	-1
264.124	-0.7
264.341	-2.77
264.558	7.06
264.775	11.96
264.992	20.89
265.209	22.84
265.426	19.42
265.643	28.33
265.86	21.89
266.077	18.5
266.294	12.76
266.51	13.36
266.727	-3.17
266.944	-7
267.161	-18.95
267.378	-15.55
267.595	-25.97
267.812	-16.79
268.028	-16.2
268.245	-7.69
268.462	-4.16
268.679	-1.85
268.896	-4.41
269.112	9.25
269.329	10.51
269.546	9.23
269.763	16.78
269.979	17.43
270.196	18.54
270.413	17.16
270.629	9.12
270.846	17
271.063	14.12
271.279	12.75
271.496	0.74
271.712	1.71
271.929	17.55
272.146	27.5
272.362	-4.98
272.579	-0.71
272.795	-9.76
273.012	1.75
273.228	-1.91
273.445	-3
273.661	-6.5
273.878	16.77
274.094	18.47
274.311	16.57
274.527	12.52
274.744	11.94
274.96	1.27
275.177	5.86
275.393	-0.23
275.609	-1.42
275.826	4.29
276.042	19.02
276.259	28.64
276.475	29.96
276.691	27.45
276.908	27.17
277.124	25.99
277.34	17.94
277.557	12.18
277.773	6.69
277.989	1.14
278.205	-8.5
278.422	-5.17
278.638	7.25
278.854	4.88
279.07	-4.43
279.286	-6.53
279.503	4.84
279.719	22.88
279.935	16.7
280.151	19.49
280.367	26.55
280.583	31.27
280.799	32.69
281.016	24.57
281.232	15.63
281.448	3.56
281.664	-12.14
281.88	-0.23
282.096	-5.55
282.312	-15.3
282.528	-14.04
282.744	-16.13
282.96	-0.52
283.176	0.55
283.392	-4.84
283.608	6.99
283.824	10.79
284.04	15.09
284.256	18.29
284.471	19.1
284.687	18.24
284.903	16.91
285.119	2.67
285.335	7.88
285.551	16.26
285.767	15.96
285.982	10.07
286.198	12.52
286.414	23.72
286.63	34
286.846	31.41
287.061	26.52
287.277	25.11
287.493	22.04
287.709	20.32
287.924	14.61
288.14	12.85
288.356	13.39
288.571	8.6
288.787	15.78
289.003	26.77
289.218	20.43
289.434	19.6
289.65	23.91
289.865	25.51
290.081	22.05
290.296	16.28
290.512	21.22
290.727	36.25
290.943	27.27
291.159	12.04
291.374	11.07
291.59	21.04
291.805	32.2
292.021	20.62
292.236	15.47
292.451	13.97
292.667	28.79
292.882	27.1
293.098	20.18
293.313	14.97
293.529	19.95
293.744	17.52
293.959	26.39
294.175	20.88
294.39	25.67
294.605	25.42
294.821	22.6
295.036	29.06
295.251	20.63
295.467	15.31
295.682	19.05
295.897	18.83
296.112	16.97
296.328	21.32
296.543	15.82
296.758	18.58
296.973	24.18
297.188	16.73
297.404	20.54
297.619	12.74
297.834	17.64
298.049	14.9
298.264	16.08
298.479	3.49
298.694	9.06
298.909	-0.37
299.125	9.65
299.34	-2.41
299.555	2.21
299.77	-1.83
299.985	2.69
300.2	3.81
300.415	7.87
300.63	6.36
300.845	12.29
301.06	5.09
301.275	10.22
301.49	18.75
301.704	13.74
301.919	6.39
302.134	-1.9
302.349	-10.01
302.564	-17.22
302.779	-15.63
302.994	-30.47
303.209	-33.95
303.423	-14.21
303.638	-4.57
303.853	4.07
304.068	16.67
304.283	14.59
304.497	18.96
304.712	25.04
304.927	19.24
305.142	22.33
305.356	20.22
305.571	23.18
305.786	17.06
306	11.46
306.215	7.99
306.43	10.19
306.644	6.95
306.859	9.4
307.074	3.76
307.288	9.49
307.503	17.94
307.717	10.76
307.932	14.88
308.147	16.18
308.361	13.72
308.576	19.22
308.79	14.78
309.005	16.07
309.219	20.87
309.434	14.61
309.648	0.1
309.863	-2.14
310.077	-9.65
310.292	-1.61
310.506	10.37
310.72	11.82
310.935	14.73
311.149	26.68
311.364	31.05
311.578	28.61
311.792	12.9
312.007	2.83
312.221	2.41
312.435	1.23
312.649	5.08
312.864	3.46
313.078	2.25
313.292	19.94
313.507	35.53
313.721	41.99
313.935	50.42
314.149	29.64
314.363	30.14
314.578	42.42
314.792	39.71
315.006	35.61
315.22	41.83
315.434	25.66
315.648	31.28
315.862	39.73
316.077	41.74
316.291	46.42
316.505	37.93
316.719	22.84
316.933	36
317.147	30.88
317.361	17.77
317.575	9.99
317.789	12.45
318.003	7.29
318.217	12.94
318.431	12.8
318.645	12.25
318.859	4.05
319.073	8.14
319.287	9.79
319.5	18.4
319.714	19.39
319.928	23.23
320.142	27.34
320.356	40.66
320.57	37.26
320.784	33.07
320.997	33.73
321.211	29.64
321.425	21.25
321.639	22.89
321.853	19.22
322.066	17.65
322.28	21.12
322.494	9.98
322.707	14.55
322.921	21.18
323.135	23.32
323.349	24.79
323.562	24.78
323.776	21.25
323.989	22.06
324.203	18.32
324.417	7.84
324.63	-1.39
324.844	-12.69
325.057	-7.75
325.271	-26.88
325.485	-14.19
325.698	-2.5
325.912	10.08
326.125	12.16
326.339	19.37
326.552	22.54
326.766	42.12
326.979	32.24
327.193	25.65
327.406	15.91
327.619	6.73
327.833	-4.26
328.046	-0.22
328.26	-12.84
328.473	-5.1
328.686	0.44
328.9	-3.31
329.113	8.36
329.326	21.4
329.54	5.13
329.753	11.12
329.966	11.39
330.179	10.18
330.393	12.3
330.606	15.94
330.819	14.76
331.032	20.05
331.246	17.67
331.459	23.45
331.672	23.15
331.885	23.98
332.098	17.81
332.311	-3.6
332.525	8.87
332.738	12.66
332.951	10.42
333.164	3.77
333.377	-0.58
333.59	3.91
333.803	21.71
334.016	14.69
334.229	15.76
334.442	18.26
334.655	24.53
334.868	30.51
335.081	29.32
335.294	21.4
335.507	26.63
335.72	13.9
335.933	10.84
336.146	11.28
336.359	12.41
336.572	14.79
336.785	27.97
336.997	20.38
337.21	25.61
337.423	28.94
337.636	31.09
337.849	25.2
338.062	28.54
338.274	23.05
338.487	26.8
338.7	25.06
338.913	19.04
339.125	16.77
339.338	21.44
339.551	15.49
339.763	13.51
339.976	13.69
340.189	9.02
340.402	13.35
340.614	16.84
340.827	9.35
341.039	9.41
341.252	11.2
341.465	4.92
341.677	7.08
341.89	8.31
342.102	6.52
342.315	14.89
342.527	15.61
342.74	11.16
342.952	17.16
343.165	20.39
343.377	15.22
343.59	13.83
343.802	4.34
344.015	4.64
344.227	-0.32
344.44	-1.74
344.652	-0.86
344.864	7.66
345.077	5.01
345.289	7.61
345.502	9.71
345.714	11.67
345.926	5.45
346.139	6.25
346.351	-11.32
346.563	-7.61
346.775	-6.01
346.988	0.67
347.2	5.54
347.412	10.26
347.624	10.3
347.837	14.66
348.049	12.74
348.261	12.83
348.473	1.82
348.685	0.29
348.897	4.62
349.11	2.55
349.322	0.58
349.534	0.37
349.746	8.38
349.958	16.3
350.17	15.59
350.382	-0.47
350.594	0.2
350.806	11.23
351.018	16.35
351.23	16.34
351.442	11.36
351.654	22.52
351.866	36.41
352.078	35
352.29	37.46
352.502	36.24
352.714	40.75
352.926	41.38
353.138	33.58
353.35	19.48
353.561	19.25
353.773	8.57
353.985	11.03
354.197	3.67
354.409	5.38
354.621	8.36
354.832	8.98
355.044	18.28
355.256	16.4
355.468	11.84
355.679	11.18
355.891	13.89
356.103	13.77
356.314	17.27
356.526	7.37
356.738	-3.5
356.949	3.39
357.161	6.56
357.373	4.93
357.584	1.58
357.796	-0.72
358.008	10.21
358.219	32.47
358.431	28.18
358.642	17.87
358.854	17.39
359.065	9.24
359.277	2.5
359.488	-0.4
359.7	0.43
359.911	-3.29
360.123	3.44
360.334	2.59
360.546	-0.38
360.757	10.29
360.969	8.53
361.18	-0.62
361.391	8.27
361.603	11.26
361.814	14.83
362.025	24.69
362.237	25.72
362.448	25.36
362.659	20.95
362.871	21.78
363.082	24.12
363.293	29.65
363.504	28.36
363.716	22.46
363.927	25.4
364.138	34.62
364.349	39.97
364.56	37.09
364.772	27.81
364.983	21.14
365.194	26.01
365.405	21.87
365.616	10.35
365.827	-5.4
366.038	-0.42
366.25	6
366.461	14.91
366.672	14.51
366.883	15.49
367.094	15.27
367.305	14.56
367.516	10.43
367.727	9.58
367.938	7.21
368.149	2.54
368.36	7.73
368.571	13.77
368.781	12.02
368.992	17.04
369.203	14.42
369.414	10.05
369.625	14.42
369.836	10.77
370.047	5.17
370.258	0.48
370.468	-5.11
370.679	-4.32
370.89	5.06
371.101	1.38
371.312	-1.38
371.522	1.74
371.733	2.04
371.944	4.36
372.155	-3.49
372.365	-9.81
372.576	-12.16
372.787	-13.25
372.997	-19.1
373.208	-9.4
373.419	-13.76
373.629	-3.09
373.84	-6.43
374.05	2.39
374.261	2.6
374.472	8.51
374.682	3.63
374.893	-5.07
375.103	3.76
375.314	9.53
375.524	7.34
375.735	11.33
375.945	11.89
376.156	9.54
376.366	20.8
376.577	16.33
376.787	18.93
376.997	23.25
377.208	21.2
377.418	21.58
377.629	29.78
377.839	26.41
378.049	28.28
378.26	26
378.47	25.13
378.68	26.84
378.89	20.02
379.101	7.98
379.311	10.18
379.521	10.01
379.732	6.57
379.942	5.54
380.152	5.76
380.362	10.97
380.572	21.73
380.783	19.54
380.993	20.82
381.203	21.54
381.413	21.16
381.623	20.1
381.833	17.04
382.043	10.05
382.253	10.73
382.463	10.32
382.674	8.83
382.884	8.89
383.094	5.99
383.304	3.31
383.514	11.95
383.724	12.9
383.934	8.88
384.144	16.74
384.353	11.58
384.563	15.81
384.773	19.47
384.983	15.63
385.193	15.39
385.403	16.09
385.613	6.62
385.823	9.1
386.033	5.04
386.242	0.18
386.452	-0.63
386.662	-1.01
386.872	-3.05
387.082	-0.77
387.291	0.47
387.501	0.41
387.711	2.2
387.921	3.97
388.13	3.65
388.34	2.28
388.55	4.93
388.759	1.47
388.969	1.74
389.179	5.79
389.388	3.62
389.598	2.14
389.807	4.2
390.017	2.95
390.227	5.25
390.436	6.26
390.646	4.4
390.855	4.03
391.065	5.26
391.274	5.07
391.484	5.6
391.693	4.49
391.903	3.95
392.112	2.77
392.322	4.29
392.531	4.23
392.74	3.07
392.95	3.16
393.159	4.77
393.369	4.15
393.578	4.58
393.787	3.88
393.997	4.24
394.206	5.14
394.415	4.95
394.625	3.76
394.834	4.04
395.043	4.75
395.252	5.73
395.462	5.27
395.671	5.6
395.88	5.33
396.089	5.79
396.298	5.89
396.508	5.39
396.717	4.84
396.926	4.58
397.135	3.76
397.344	3.89
397.553	3.8
397.762	3.65
397.971	4.07
398.181	3.91
398.39	4.05
398.599	4.55
398.808	4.51
399.017	4.59
399.226	4.85
399.435	4.51
399.644	4.43
399.853	4.44
400.062	4.2
400.27	4.21
400.479	4.14
400.688	3.93
400.897	4.22
401.106	4.5
401.315	4.32
401.524	4.53
401.733	4.36
401.941	4.44
402.15	4.21
402.359	4.1
402.568	3.89
402.777	4.01
402.985	3.97
403.194	4.04
403.403	3.83
403.612	4.04
403.82	3.9
404.029	3.98
404.238	3.9
404.446	3.87
404.655	3.79
404.864	3.84
405.072	3.85
405.281	3.84
405.489	3.81
405.698	3.86
405.906	3.75
406.115	3.87
406.324	3.8
406.532	3.73
406.741	3.83
406.949	3.78
407.158	3.84
407.366	3.95
407.574	3.98
407.783	3.98
407.991	3.97
408.2	3.88
408.408	3.9
408.617	3.81
408.825	3.75
409.033	3.66
409.242	3.67
409.45	3.67
409.658	3.65
409.867	3.66
410.075	3.63
410.283	3.57
410.491	3.5
410.7	3.51
410.908	3.54
411.116	3.5
411.324	3.5
411.533	3.47
411.741	3.48
411.949	3.55
412.157	3.56
412.365	3.51
412.573	3.57
412.781	3.54
412.99	3.68
413.198	3.67
413.406	3.58
413.614	3.58
413.822	3.53
414.03	3.42
414.238	3.48
414.446	3.33
414.654	3.35
414.862	3.33
415.07	3.32
415.278	3.28
415.486	3.4
415.694	3.29
415.902	3.31
416.109	3.25
416.317	3.25
416.525	3.35
416.733	3.37
416.941	3.29
417.149	3.38
417.357	3.47
417.564	3.5
417.772	3.52
417.98	3.36
418.188	3.3
418.395	3.25
418.603	3.13
418.811	2.99
419.019	3.02
419.226	3.05
419.434	3.03
419.642	3.04
419.849	3.11
420.057	3.23
420.265	3.23
420.472	3.18
420.68	3.14
420.887	3.22
421.095	3.35
421.302	3.32
421.51	3.25
421.717	3.3
421.925	3.25
422.132	3.21
422.34	3.15
422.547	3.03
422.755	2.97
422.962	2.87
423.17	2.83
423.377	2.89
423.585	2.95
423.792	2.94
423.999	2.95
424.207	2.87
424.414	3.02
424.621	3.03
424.829	2.96
425.036	2.92
425.243	2.98
425.451	3
425.658	3.19
425.865	3.01
426.072	2.96
426.28	3.03
426.487	3.03
426.694	2.96
426.901	2.91
427.108	2.83
427.315	2.93
427.523	2.96
427.73	3.05
427.937	3.09
428.144	3.14
428.351	3.27
428.558	3.19
428.765	3.19
428.972	3.22
429.179	3.09
429.386	3.15
429.593	3.11
429.8	3.16
430.007	3.29
430.214	3.3
430.421	3.25
430.628	3.19
430.835	3.08
431.042	3.11
431.249	2.97
431.456	3.01
431.662	3.06
431.869	3.11
432.076	3.21
432.283	3.26
432.49	3.25
432.697	3.32
432.903	3.27
433.11	3.27
433.317	3.31
433.524	3.29
433.73	3.3
433.937	3.33
434.144	3.42
434.35	3.38
434.557	3.34
434.764	3.41
434.97	3.46
435.177	3.49
435.384	3.57
435.59	3.54
435.797	3.63
436.003	3.63
436.21	3.52
436.416	3.47
436.623	3.52
436.829	3.45
437.036	3.41
437.242	3.35
437.449	3.38
437.655	3.45
437.862	3.45
438.068	3.5
438.275	3.55
438.481	3.61
438.687	3.75
438.894	3.84
439.1	3.84
439.307	3.85
439.513	3.81
439.719	3.82
439.926	3.81
440.132	3.74
440.338	3.7
440.544	3.7
440.751	3.74
440.957	3.73
441.163	3.76
441.369	3.77
441.575	3.78
441.782	3.78
441.988	3.75
442.194	3.81
442.4	3.86
442.606	3.91
442.812	3.91
443.018	3.92
443.224	3.95
443.431	3.99
443.637	3.93
443.843	3.93
444.049	3.88
444.255	3.85
444.461	3.89
444.667	3.9
444.873	3.9
445.079	3.92
445.284	3.85
445.49	3.83
445.696	3.85
445.902	3.87
446.108	3.9
446.314	3.96
446.52	3.96
446.726	4.03
446.931	4.13
447.137	4.15
447.343	4.13
447.549	4.09
447.755	4.06
447.96	4.12
448.166	4.16
448.372	4.14
448.578	4.16
448.783	4.19
448.989	4.19
449.195	4.22
449.4	4.2
449.606	4.14
449.812	4.2
450.017	4.21
450.223	4.18
450.428	4.23
450.634	4.26
450.84	4.3
451.045	4.32
451.251	4.29
451.456	4.26
451.662	4.29
451.867	4.3
452.073	4.27
452.278	4.25
452.483	4.3
452.689	4.27
452.894	4.29
453.1	4.3
453.305	4.28
453.51	4.33
453.716	4.34
453.921	4.28
454.127	4.31
454.332	4.31
454.537	4.37
454.742	4.38
454.948	4.4
455.153	4.42
455.358	4.47
455.563	4.51
455.769	4.53
455.974	4.46
456.179	4.43
456.384	4.42
456.589	4.45
456.795	4.41
457	4.39
457.205	4.37
457.41	4.41
457.615	4.47
457.82	4.54
458.025	4.51
458.23	4.54
458.435	4.54
458.64	4.6
458.845	4.6
459.05	4.64
459.255	4.56
459.46	4.54
459.665	4.63
459.87	4.67
460.075	4.69
460.28	4.71
460.485	4.68
460.69	4.67
460.895	4.74
461.099	4.71
461.304	4.72
461.509	4.64
461.714	4.63
461.919	4.65
462.123	4.77
462.328	4.78
462.533	4.8
462.738	4.81
462.942	4.89
463.147	4.94
463.352	4.97
463.556	4.98
463.761	4.97
463.966	5
464.17	5.02
464.375	5.04
464.58	4.99
464.784	5.05
464.989	5
465.193	5.03
465.398	5
465.602	5
465.807	4.99
466.011	5.04
466.216	5
466.42	5.01
466.625	5.03
466.829	5.08
467.034	5.08
467.238	5.12
467.443	5.15
467.647	5.14
467.851	5.15
468.056	5.12
468.26	5.07
468.464	5.07
468.669	5.08
468.873	5.05
469.077	5.11
469.282	5.19
469.486	5.25
469.69	5.3
469.894	5.39
470.099	5.41
470.303	5.43
470.507	5.44
470.711	5.4
470.915	5.41
471.119	5.44
471.324	5.42
471.528	5.42
471.732	5.45
471.936	5.47
472.14	5.5
472.344	5.47
472.548	5.47
472.752	5.5
472.956	5.53
473.16	5.52
473.364	5.47
473.568	5.46
473.772	5.55
473.976	5.55
474.18	5.51
474.384	5.5
474.588	5.52
474.792	5.54
474.995	5.52
475.199	5.51
475.403	5.55
475.607	5.6
475.811	5.56
476.015	5.62
476.218	5.67
476.422	5.71
476.626	5.72
476.83	5.74
477.033	5.79
477.237	5.83
477.441	5.87
477.644	5.86
477.848	5.87
478.052	5.86
478.255	5.86
478.459	5.87
478.663	5.86
478.866	5.82
479.07	5.86
479.273	5.86
479.477	5.89
479.681	5.9
479.884	5.87
480.088	5.88
480.291	5.89
480.495	5.9
480.698	5.85
480.901	5.82
481.105	5.81
481.308	5.82
481.512	5.86
481.715	5.89
481.919	5.86
482.122	5.96
482.325	6.01
482.529	6.06
482.732	6.1
482.935	6.09
483.138	6.12
483.342	6.17
483.545	6.12
483.748	6.13
483.952	6.13
484.155	6.12
484.358	6.15
484.561	6.18
484.764	6.19
484.967	6.21
485.171	6.21
485.374	6.18
485.577	6.17
485.78	6.15
485.983	6.11
486.186	6.06
486.389	6.06
486.592	6.05
486.795	6.06
486.998	6.07
487.201	6.08
487.404	6.13
487.607	6.11
487.81	6.14
488.013	6.14
488.216	6.15
488.419	6.13
488.622	6.12
488.825	6.1
489.028	6.11
489.231	6.09
489.433	6.09
489.636	6.09
489.839	6.12
490.042	6.09
490.245	6.08
490.447	6.09
490.65	6.09
490.853	6.1
491.056	6.09
491.258	6.05
491.461	6.05
491.664	6.02
491.866	6.06
492.069	6.07
492.272	6.06
492.474	6.07
492.677	6.08
492.879	6.08
493.082	6.12
493.285	6.13
493.487	6.11
493.69	6.12
493.892	6.15
494.095	6.18
494.297	6.22
494.5	6.22
494.702	6.19
494.905	6.2
495.107	6.18
495.309	6.13
495.512	6.16
495.714	6.14
495.917	6.14
496.119	6.2
496.321	6.21
496.524	6.22
496.726	6.22
496.928	6.21
497.13	6.24
497.333	6.27
497.535	6.25
497.737	6.23
497.939	6.27
498.142	6.3
498.344	6.32
498.546	6.31
498.748	6.26
498.95	6.24
499.152	6.25
499.355	6.24
499.557	6.27
499.759	6.32
499.961	6.34
500.163	6.41
500.365	6.42
500.567	6.41
500.769	6.46
500.971	6.42
501.173	6.38
501.375	6.37
501.577	6.34
501.779	6.37
501.981	6.41
502.183	6.36
502.385	6.4
502.587	6.4
502.788	6.4
502.99	6.38
503.192	6.4
503.394	6.42
503.596	6.47
503.798	6.51
503.999	6.48
504.201	6.48
504.403	6.51
504.605	6.53
504.806	6.49
505.008	6.5
505.21	6.44
505.411	6.52
505.613	6.53
505.815	6.52
506.016	6.51
506.218	6.5
506.42	6.51
506.621	6.55
506.823	6.54
507.024	6.54
507.226	6.57
507.427	6.56
507.629	6.59
507.83	6.54
508.032	6.56
508.233	6.56
508.435	6.57
508.636	6.56
508.838	6.59
509.039	6.59
509.24	6.65
509.442	6.62
509.643	6.59
509.845	6.57
510.046	6.58
510.247	6.59
510.448	6.6
510.65	6.57
510.851	6.57
511.052	6.59
511.254	6.63
511.455	6.63
511.656	6.59
511.857	6.58
512.058	6.63
512.26	6.63
512.461	6.64
512.662	6.62
512.863	6.65
513.064	6.63
513.265	6.67
513.466	6.65
513.667	6.66
513.868	6.66
514.069	6.69
514.27	6.68
514.471	6.74
514.672	6.69
514.873	6.71
515.074	6.72
515.275	6.71
515.476	6.68
515.677	6.69
515.878	6.7
516.079	6.74
516.28	6.73
516.481	6.72
516.682	6.74
516.882	6.74
517.083	6.72
517.284	6.67
517.485	6.65
517.686	6.66
517.886	6.66
518.087	6.69
518.288	6.71
518.488	6.74
518.689	6.74
518.89	6.78
519.091	6.78
519.291	6.8
519.492	6.79
519.692	6.84
519.893	6.81
520.094	6.84
520.294	6.82
520.495	6.82
520.695	6.81
520.896	6.79
521.096	6.78
521.297	6.8
521.497	6.82
521.698	6.84
521.898	6.86
522.099	6.87
522.299	6.88
522.499	6.9
522.7	6.91
522.9	6.88
523.101	6.87
523.301	6.87
523.501	6.89
523.702	6.89
523.902	6.84
524.102	6.86
524.302	6.89
524.503	6.89
524.703	6.9
524.903	6.91
525.103	6.91
525.304	6.94
525.504	6.92
525.704	6.9
525.904	6.9
526.104	6.9
526.304	6.91
526.504	6.93
526.705	6.96
526.905	6.98
527.105	7.02
527.305	7.03
527.505	7.04
527.705	7.04
527.905	7.01
528.105	7.02
528.305	7.02
528.505	7.01
528.705	7.01
528.905	7.01
529.105	7.01
529.304	7.09
529.504	7.07
529.704	7.08
529.904	7.1
530.104	7.11
530.304	7.13
530.503	7.13
530.703	7.1
530.903	7.12
531.103	7.14
531.303	7.16
531.502	7.12
531.702	7.15
531.902	7.15
532.101	7.16
532.301	7.15
532.501	7.14
532.7	7.13
532.9	7.17
533.1	7.18
533.299	7.23
533.499	7.24
533.698	7.28
533.898	7.28
534.097	7.28
534.297	7.3
534.496	7.29
534.696	7.3
534.895	7.32
535.095	7.33
535.294	7.35
535.494	7.39
535.693	7.42
535.892	7.44
536.092	7.42
536.291	7.42
536.491	7.44
536.69	7.46
536.889	7.45
537.088	7.44
537.288	7.46
537.487	7.46
537.686	7.47
537.886	7.46
538.085	7.46
538.284	7.48
538.483	7.53
538.682	7.54
538.882	7.57
539.081	7.58
539.28	7.6
539.479	7.61
539.678	7.64
539.877	7.63
540.076	7.64
540.275	7.66
540.474	7.68
540.673	7.7
540.872	7.74
541.071	7.75
541.27	7.78
541.469	7.82
541.668	7.83
541.867	7.87
542.066	7.89
542.265	7.93
542.464	7.96
542.663	8.01
542.862	8.05
543.06	8.11
543.259	8.11
543.458	8.15
543.657	8.16
543.856	8.18
544.054	8.19
544.253	8.2
544.452	8.16
544.651	8.2
544.849	8.21
545.048	8.21
545.247	8.21
545.445	8.23
545.644	8.26
545.843	8.3
546.041	8.31
546.24	8.36
546.438	8.41
546.637	8.44
546.836	8.49
547.034	8.52
547.233	8.58
547.431	8.6
547.63	8.66
547.828	8.71
548.027	8.75
548.225	8.79
548.423	8.82
548.622	8.87
548.82	8.92
549.019	8.92
549.217	8.96
549.415	9.02
549.614	9.06
549.812	9.14
550.01	9.18
550.209	9.25
550.407	9.32
550.605	9.36
550.803	9.43
551.002	9.48
551.2	9.53
551.398	9.55
551.596	9.58
551.794	9.61
551.993	9.62
552.191	9.67
552.389	9.74
552.587	9.77
552.785	9.87
552.983	9.93
553.181	9.98
553.379	10.05
553.577	10.11
553.775	10.17
553.973	10.27
554.171	10.31
554.369	10.4
554.567	10.51
554.765	10.56
554.963	10.6
555.161	10.68
555.359	10.71
555.557	10.76
555.755	10.83
555.952	10.88
556.15	10.93
556.348	11.02
556.546	11.08
556.744	11.18
556.941	11.25
557.139	11.35
557.337	11.41
557.535	11.54
557.732	11.62
557.93	11.7
558.128	11.74
558.325	11.83
558.523	11.85
558.721	11.94
558.918	12.06
559.116	12.12
559.313	12.19
559.511	12.31
559.708	12.38
559.906	12.48
560.104	12.56
560.301	12.59
560.498	12.65
560.696	12.75
560.893	12.84
561.091	12.94
561.288	13.02
561.486	13.13
561.683	13.24
561.88	13.33
562.078	13.4
562.275	13.46
562.473	13.5
562.67	13.56
562.867	13.6
563.064	13.67
563.262	13.76
563.459	13.85
563.656	13.97
563.853	14.07
564.051	14.14
564.248	14.25
564.445	14.31
564.642	14.38
564.839	14.47
565.036	14.52
565.234	14.64
565.431	14.75
565.628	14.8
565.825	14.88
566.022	14.98
566.219	14.98
566.416	15.09
566.613	15.16
566.81	15.24
567.007	15.31
567.204	15.41
567.401	15.46
567.598	15.56
567.795	15.57
567.991	15.63
568.188	15.69
568.385	15.78
568.582	15.87
568.779	15.96
568.976	15.99
569.172	16.08
569.369	16.11
569.566	16.14
569.763	16.2
569.96	16.21
570.156	16.25
570.353	16.37
570.55	16.4
570.746	16.42
570.943	16.54
571.14	16.57
571.336	16.63
571.533	16.67
571.729	16.7
571.926	16.77
572.123	16.85
572.319	16.84
572.516	16.86
572.712	16.89
572.909	16.9
573.105	16.94
573.302	16.92
573.498	16.95
573.695	17
573.891	17.07
574.087	17.09
574.284	17.11
574.48	17.12
574.677	17.14
574.873	17.16
575.069	17.21
575.266	17.22
575.462	17.24
575.658	17.34
575.854	17.38
576.051	17.41
576.247	17.44
576.443	17.45
576.639	17.45
576.835	17.48
577.032	17.44
577.228	17.43
577.424	17.48
577.62	17.49
577.816	17.51
578.012	17.5
578.208	17.49
578.404	17.5
578.6	17.51
578.796	17.46
578.993	17.42
579.189	17.37
579.384	17.37
579.58	17.37
579.776	17.35
579.972	17.34
580.168	17.35
580.364	17.35
580.56	17.38
580.756	17.38
580.952	17.39
581.148	17.36
581.343	17.35
581.539	17.34
581.735	17.35
581.931	17.31
582.127	17.28
582.322	17.27
582.518	17.25
582.714	17.21
582.909	17.21
583.105	17.21
583.301	17.17
583.496	17.15
583.692	17.1
583.888	17.11
584.083	17.12
584.279	17.09
584.474	17.04
584.67	17.06
584.866	17.06
585.061	17.1
585.257	17.09
585.452	17.07
585.648	17.07
585.843	17.08
586.039	17.08
586.234	17.07
586.429	17.03
586.625	17.04
586.82	17.02
587.015	17.01
587.211	17.03
587.406	17.05
587.601	17.04
587.797	17.04
587.992	16.99
588.187	17.01
588.383	17.04
588.578	17.02
588.773	17.03
588.968	17.08
589.163	17.13
589.359	17.18
589.554	17.19
589.749	17.23
589.944	17.25
590.139	17.27
590.334	17.26
590.529	17.26
590.724	17.32
590.919	17.41
591.114	17.36
591.309	17.4
591.504	17.41
591.699	17.45
591.894	17.51
592.089	17.56
592.284	17.53
592.479	17.62
592.674	17.64
592.869	17.71
593.064	17.78
593.259	17.79
593.454	17.8
593.648	17.84
593.843	17.86
594.038	17.88
594.233	17.94
594.428	18.01
594.622	18.02
594.817	18.1
595.012	18.2
595.206	18.28
595.401	18.35
595.596	18.45
595.79	18.48
595.985	18.64
596.18	18.74
596.374	18.79
596.569	18.87
596.763	19
596.958	18.99
597.153	19.03
597.347	19.09
597.542	19.11
597.736	19.2
597.931	19.26
598.125	19.27
598.319	19.31
598.514	19.38
598.708	19.37
598.903	19.47
599.097	19.51
599.291	19.55
599.486	19.62
599.68	19.7
599.874	19.78
600.069	19.86
600.263	19.83
600.457	19.85
600.651	19.93
600.846	19.97
601.04	20.05
601.234	20.1
601.428	20.12
601.622	20.14
601.817	20.19
602.011	20.22
602.205	20.26
602.399	20.26
602.593	20.27
602.787	20.31
602.981	20.35
603.175	20.32
603.369	20.32
603.563	20.32
603.757	20.3
603.951	20.32
604.145	20.32
604.339	20.36
604.533	20.39
604.727	20.35
604.921	20.34
605.115	20.33
605.309	20.3
605.502	20.3
605.696	20.21
605.89	20.24
606.084	20.2
606.278	20.15
606.471	20.09
606.665	19.96
606.859	19.88
607.053	19.84
607.246	19.78
607.44	19.78
607.634	19.71
607.827	19.64
608.021	19.59
608.214	19.54
608.408	19.51
608.602	19.41
608.795	19.27
608.989	19.28
609.182	19.27
609.376	19.26
609.569	19.19
609.763	19.16
609.956	19.1
610.15	19.09
610.343	18.98
610.537	18.94
610.73	18.92
610.923	18.88
611.117	18.75
611.31	18.65
611.504	18.57
611.697	18.5
611.89	18.38
612.083	18.29
612.277	18.14
612.47	18.15
612.663	18.13
612.856	18.04
613.05	17.95
613.243	17.93
613.436	17.8
613.629	17.8
613.822	17.68
614.015	17.62
614.209	17.57
614.402	17.54
614.595	17.43
614.788	17.43
614.981	17.33
615.174	17.32
615.367	17.25
615.56	17.17
615.753	17.1
615.946	17.1
616.139	17.1
616.332	17.06
616.525	17.01
616.718	16.94
616.911	16.94
617.103	16.88
617.296	16.77
617.489	16.72
617.682	16.66
617.875	16.55
618.067	16.47
618.26	16.39
618.453	16.33
618.646	16.29
618.838	16.19
619.031	16.14
619.224	16.19
619.417	16.19
619.609	16.15
619.802	16.1
619.994	16.08
620.187	16.03
620.38	15.98
620.572	15.92
620.765	15.89
620.957	15.85
621.15	15.85
621.342	15.85
621.535	15.82
621.727	15.8
621.92	15.8
622.112	15.78
622.305	15.76
622.497	15.71
622.69	15.65
622.882	15.67
623.074	15.63
623.267	15.56
623.459	15.52
623.651	15.53
623.844	15.51
624.036	15.52
624.228	15.44
624.42	15.44
624.613	15.45
624.805	15.46
624.997	15.44
625.189	15.42
625.381	15.37
625.574	15.35
625.766	15.35
625.958	15.28
626.15	15.27
626.342	15.22
626.534	15.21
626.726	15.21
626.918	15.2
627.11	15.19
627.302	15.19
627.494	15.09
627.686	15.08
627.878	15.03
628.07	14.97
628.262	14.88
628.454	14.84
628.646	14.76
628.838	14.76
629.029	14.67
629.221	14.62
629.413	14.58
629.605	14.59
629.797	14.55
629.989	14.58
630.18	14.53
630.372	14.56
630.564	14.6
630.755	14.52
630.947	14.46
631.139	14.38
631.33	14.35
631.522	14.33
631.714	14.28
631.905	14.23
632.097	14.28
632.289	14.24
632.48	14.26
632.672	14.19
632.863	14.15
633.055	14.12
633.246	14.11
633.438	14.08
633.629	14.11
633.821	14.14
634.012	14.14
634.203	14.15
634.395	14.19
634.586	14.16
634.777	14.13
634.969	14.11
635.16	14.02
635.351	14.01
635.543	14
635.734	13.94
635.925	13.97
636.117	14.01
636.308	13.97
636.499	13.96
636.69	13.98
636.881	13.98
637.073	13.97
637.264	13.91
637.455	13.88
637.646	13.9
637.837	13.91
638.028	13.91
638.219	13.89
638.41	13.9
638.601	13.91
638.792	13.8
638.983	13.73
639.174	13.73
639.365	13.65
639.556	13.66
639.747	13.65
639.938	13.63
640.129	13.67
640.32	13.67
640.511	13.64
640.701	13.62
640.892	13.59
641.083	13.53
641.274	13.45
641.465	13.44
641.655	13.41
641.846	13.38
642.037	13.38
642.228	13.35
642.418	13.32
642.609	13.37
642.8	13.37
642.99	13.42
643.181	13.4
643.372	13.32
643.562	13.31
643.753	13.31
643.943	13.25
644.134	13.18
644.324	13.13
644.515	13.09
644.705	13.14
644.896	13.06
645.086	13.02
645.277	13.04
645.467	13.07
645.658	13.05
645.848	13.03
646.038	12.97
646.229	12.99
646.419	13.01
646.61	12.95
646.8	12.93
646.99	12.91
647.18	12.92
647.371	12.9
647.561	12.85
647.751	12.79
647.941	12.76
648.132	12.75
648.322	12.74
648.512	12.73
648.702	12.73
648.892	12.75
649.082	12.77
649.272	12.72
649.462	12.64
649.653	12.64
649.843	12.59
650.033	12.58
650.223	12.6
650.413	12.57
650.603	12.59
650.793	12.56
650.983	12.55
651.172	12.51
651.362	12.48
651.552	12.44
651.742	12.37
651.932	12.35
652.122	12.4
652.312	12.24
652.502	12.23
652.691	12.2
652.881	12.1
653.071	12.09
653.261	12.05
653.45	11.97
653.64	12.05
653.83	11.95
654.019	11.8
654.209	11.72
654.399	11.63
654.588	11.52
654.778	11.46
654.968	11.27
655.157	11.15
655.347	11.1
655.536	10.99
655.726	10.92
655.915	10.77
656.105	10.63
656.294	10.53
656.484	10.47
656.673	10.37
656.863	10.29
657.052	10.14
657.241	10.06
657.431	9.93
657.62	9.82
657.809	9.69
657.999	9.59
658.188	9.44
658.377	9.34
658.567	9.25
658.756	9.14
658.945	9.07
659.134	8.93
659.324	8.83
659.513	8.74
659.702	8.62
659.891	8.48
660.08	8.41
660.269	8.31
660.458	8.24
660.648	8.1
660.837	8.05
661.026	7.97
661.215	7.94
661.404	7.81
661.593	7.68
661.782	7.62
661.971	7.53
662.16	7.4
662.349	7.29
662.538	7.2
662.726	7.12
662.915	7.06
663.104	6.91
663.293	6.88
663.482	6.79
663.671	6.76
663.86	6.69
664.048	6.62
664.237	6.63
664.426	6.67
664.615	6.6
664.803	6.54
664.992	6.54
665.181	6.51
665.369	6.46
665.558	6.4
665.747	6.38
665.935	6.37
666.124	6.43
666.312	6.33
666.501	6.27
666.69	6.3
666.878	6.21
667.067	6.2
667.255	6.16
667.444	6.11
667.632	6.1
667.82	6.11
668.009	6.13
668.197	6.17
668.386	6.1
668.574	6.15
668.762	6.11
668.951	6.11
669.139	6.15
669.327	6.09
669.516	6.1
669.704	6.1
669.892	6.07
670.08	6.12
670.269	6.12
670.457	6.11
670.645	6.12
670.833	6.11
671.021	6.14
671.21	6.2
671.398	6.16
671.586	6.2
671.774	6.2
671.962	6.23
672.15	6.31
672.338	6.37
672.526	6.39
672.714	6.49
672.902	6.53
673.09	6.57
673.278	6.57
673.466	6.63
673.654	6.63
673.842	6.61
674.03	6.65
674.218	6.74
674.405	6.81
674.593	6.9
674.781	6.84
674.969	6.9
675.157	6.96
675.344	6.96
675.532	6.96
675.72	6.98
675.908	7.03
676.095	7.18
676.283	7.15
676.471	7.19
676.658	7.27
676.846	7.34
677.033	7.43
677.221	7.51
677.409	7.5
677.596	7.65
677.784	7.68
677.971	7.73
678.159	7.81
678.346	7.85
678.534	7.91
678.721	7.91
678.909	7.95
679.096	8.06
679.283	8.09
679.471	8.11
679.658	8.17
679.846	8.23
680.033	8.39
680.22	8.44
680.408	8.46
680.595	8.53
680.782	8.64
680.969	8.67
681.157	8.7
681.344	8.74
681.531	8.82
681.718	8.93
681.905	9.03
682.093	9.16
682.28	9.3
682.467	9.37
682.654	9.44
682.841	9.49
683.028	9.65
683.215	9.77
683.402	9.71
683.589	9.82
683.776	9.98
683.963	10.13
684.15	10.32
684.337	10.33
684.524	10.41
684.711	10.57
684.898	10.8
685.085	10.95
685.271	11.12
685.458	11.32
685.645	11.56
685.832	11.82
686.019	12.16
686.205	12.34
686.392	12.54
686.579	12.71
686.766	12.91
686.952	13.22
687.139	13.46
687.326	13.68
687.512	13.88
687.699	14.2
687.886	14.54
688.072	14.91
688.259	15.17
688.445	15.49
688.632	15.94
688.818	16.35
689.005	16.74
689.191	17.18
689.378	17.49
689.564	17.86
689.751	18.36
689.937	18.71
690.124	19.18
690.31	19.64
690.496	20.1
690.683	20.59
690.869	21.22
691.055	21.71
691.242	22.21
691.428	22.79
691.614	23.4
691.8	24
691.987	24.68
692.173	25.32
692.359	26.06
692.545	26.71
692.731	27.3
692.918	27.9
693.104	28.3
693.29	28.93
693.476	29.44
693.662	30.01
693.848	30.58
694.034	31.18
694.22	31.88
694.406	32.77
694.592	33.36
694.778	34.1
694.964	34.71
695.15	35.47
695.336	36.3
695.522	36.92
695.708	37.64
695.894	38.48
696.08	39.18
696.265	39.89
696.451	40.8
696.637	41.5
696.823	42.18
697.009	42.94
697.194	43.59
697.38	44.18
697.566	44.9
697.751	45.38
697.937	46.05
698.123	46.78
698.308	47.35
698.494	48.05
698.68	48.91
698.865	49.63
699.051	50.25
699.236	50.83
699.422	51.54
699.607	52.32
699.793	52.96
699.978	53.35
700.164	54
700.349	54.51
700.535	55.11
700.72	55.75
700.906	56.23
701.091	56.68
701.276	57.34
701.462	57.9
701.647	58.45
701.832	59
702.018	59.45
702.203	59.97
702.388	60.35
702.573	61.01
702.759	61.45
702.944	62.12
703.129	62.64
703.314	63.02
703.499	63.43
703.684	64.09
703.87	64.42
704.055	64.68
704.24	65.16
704.425	65.66
704.61	66.11
704.795	66.65
704.98	66.98
705.165	67.42
705.35	67.99
705.535	68.5
705.72	68.65
705.905	68.96
706.09	69.13
706.275	69.51
706.459	70
706.644	70.32
706.829	70.57
707.014	70.97
707.199	71.47
707.384	71.94
707.568	72.24
707.753	72.34
707.938	72.66
708.123	72.81
708.307	73.45
708.492	73.58
708.677	73.92
708.861	74.21
709.046	74.56
709.231	74.93
709.415	75.26
709.6	75.07
709.784	75.56
709.969	75.73
710.153	76.14
710.338	76.35
710.522	76.52
710.707	76.43
710.891	76.99
711.076	77.07
711.26	77.58
711.445	77.73
711.629	78.06
711.813	77.97
711.998	78.37
712.182	78.53
712.366	78.79
712.551	78.78
712.735	78.83
712.919	79.17
713.103	79.65
713.288	80.12
713.472	80.21
713.656	80.07
713.84	80.16
714.024	80.57
714.208	80.49
714.393	80.6
714.577	80.75
714.761	80.93
714.945	81.13
715.129	81.32
715.313	81.41
715.497	81.69
715.681	82.13
715.865	81.88
716.049	82.06
716.233	82.48
716.417	82.91
716.601	83.01
716.785	83.18
716.968	82.93
717.152	83.33
717.336	83.36
717.52	83.57
717.704	83.57
717.888	83.72
718.071	83.58
718.255	83.93
718.439	83.74
718.622	84.19
718.806	83.91
718.99	83.93
719.174	83.94
719.357	84.31
719.541	84.67
719.724	85.28
719.908	84.96
720.092	85.39
720.275	85.48
720.459	85.68
720.642	85.63
720.826	85.4
721.009	85.1
721.193	85.36
721.376	85.45
721.559	85.46
721.743	85.43
721.926	85.54
722.11	85.64
722.293	85.5
722.476	85.09
722.66	85.04
722.843	85.19
723.026	85.59
723.21	85.44
723.393	85.43
723.576	85.75
723.759	86.42
723.942	86.49
724.126	86.52
724.309	86.38
724.492	86.62
724.675	86.97
724.858	87.3
725.041	86.94
725.224	86.85
725.407	86.66
725.59	86.54
725.774	86.54
725.957	86.38
726.14	86.33
726.322	86.52
726.505	86.97
726.688	87.49
726.871	87.86
727.054	88
727.237	87.82
727.42	88.05
727.603	87.96
727.786	88.14
727.968	88.26
728.151	88.31
728.334	88.48
728.517	88.86
728.699	88.97
728.882	89.65
729.065	89.33
729.248	88.84
729.43	88.43
729.613	88.55
729.796	88.57
729.978	88.42
730.161	88.34
730.343	88.46
730.526	88.91
730.708	89.64
730.891	89.52
731.073	89.54
731.256	89.69
731.438	90.1
731.621	90.49
731.803	90.56
731.986	90.29
732.168	90.43
732.35	90.79
732.533	90.96
732.715	90.61
732.898	90.38
733.08	90.94
733.262	91.02
733.444	91.03
733.627	90.95
733.809	91.41
733.991	91.49
734.173	91.25
734.355	90.9
734.538	90.89
734.72	91.41
734.902	91.15
735.084	90.49
735.266	90.65
735.448	91.24
735.63	91.45
735.812	91.6
735.994	90.9
736.176	91.18
736.358	91.83
736.54	91.64
736.722	91.03
736.904	90.71
737.086	90.5
737.268	90.81
737.45	91.06
737.632	90.1
737.814	90.06
737.995	90.66
738.177	91.02
738.359	91.57
738.541	91.47
738.723	91.09
738.904	91.7
739.086	91.83
739.268	92.16
739.449	92.13
739.631	91.8
739.813	91.71
739.994	92.31
740.176	92.23
740.358	92.29
740.539	91.83
740.721	91.43
740.902	91.08
741.084	91.52
741.265	91.3
741.447	91.14
741.628	91.08
741.81	91.29
741.991	91.76
742.172	92.11
742.354	92.45
742.535	92.05
742.717	92.23
742.898	92.59
743.079	92.54
743.261	92.53
743.442	92.79
743.623	92.02
743.804	92.12
743.986	92.06
744.167	91.69
744.348	91.59
744.529	91.23
744.71	90.46
744.891	90.83
745.073	90.54
745.254	90.86
745.435	91.06
745.616	90.87
745.797	90.76
745.978	91.65
746.159	91.34
746.34	91.87
746.521	91.4
746.702	90.66
746.883	91.07
747.064	90.54
747.245	90.55
747.426	91.04
747.606	90.83
747.787	91.3
747.968	92.42
748.149	91.83
748.33	92.89
748.51	91.84
748.691	91.66
748.872	91.91
749.053	91.73
749.233	91.34
749.414	91.97
749.595	91.28
749.775	92.1
749.956	91.27
750.137	91.18
750.317	91.19
750.498	91.2
750.678	91.1
750.859	91.49
751.04	91.38
751.22	91.42
751.4	91.7
751.581	91.25
751.761	91.64
751.942	91.83
752.122	91.62
752.303	91.74
752.483	92.98
752.663	93.32
752.844	93.28
753.024	93.09
753.204	92.09
753.385	91.97
753.565	91.41
753.745	90.59
753.925	89.45
754.106	89.35
754.286	89.16
754.466	89.27
754.646	89.16
754.826	89.58
755.006	89.12
755.187	89.38
755.367	89.96
755.547	89.62
755.727	90.1
755.907	90.65
756.087	90.85
756.267	91.17
756.447	91.57
756.627	91.45
756.807	92.45
756.987	93.05
757.167	93.47
757.346	92.54
757.526	92.54
757.706	91.79
757.886	91.49
758.066	90.63
758.246	89.78
758.425	89.19
758.605	89.35
758.785	89.66
758.965	88.87
759.144	89.91
759.324	90.09
759.504	90.34
759.683	89.5
759.863	89.95
760.043	90.43
760.222	90.87
760.402	90.71
760.581	90
760.761	89.21
760.94	89.71
761.12	88.95
761.299	87.76
761.479	88.54
761.658	87.79
761.838	88.41
762.017	89.24
762.197	90.16
762.376	90.01
762.555	90.56
762.735	89.76
762.914	90.38
763.093	89.61
763.273	89.28
763.452	88.49
763.631	88.91
763.81	89.24
763.99	90.03
764.169	89.52
764.348	89.95
764.527	89.51
764.706	89.26
764.885	90.09
765.064	89.98
765.243	89.87
765.423	89.93
765.602	90.36
765.781	90.58
765.96	90.92
766.139	89.83
766.318	90.33
766.497	90.47
766.676	90.84
766.854	89.22
767.033	89.22
767.212	89
767.391	88.85
767.57	88.12
767.749	87.08
767.928	86.1
768.106	87.34
768.285	87.26
768.464	87.9
768.643	88.65
768.821	88.09
769	89.34
769.179	88.86
769.357	88.1
769.536	88.39
769.715	87.61
769.893	87.17
770.072	88.11
770.25	86.96
770.429	87.59
770.607	88.49
770.786	88.13
770.964	88.21
771.143	88.8
771.321	87.19
771.5	86.89
771.678	86.3
771.857	85.52
772.035	85.23
772.213	84.87
772.392	83.8
772.57	84.36
772.748	84.67
772.927	84.89
773.105	85.46
773.283	85.18
773.461	85.12
773.64	85.55
773.818	84.58
773.996	84.39
774.174	85.2
774.352	85.57
774.531	84.96
774.709	85.25
774.887	84.48
775.065	85.6
775.243	85.99
775.421	84.64
775.599	83.5
775.777	84.63
775.955	84.02
776.133	84.75
776.311	85.7
776.489	85.44
776.667	85.71
776.844	84.94
777.022	85.06
777.2	85.47
777.378	86.34
777.556	86.14
777.734	86.57
777.911	87.84
778.089	87.28
778.267	85.51
778.445	84.86
778.622	83.01
778.8	83.14
778.978	83.24
779.155	81.59
779.333	82.27
779.511	84.17
779.688	83.99
779.866	84.46
780.043	84.13
780.221	84.26
780.398	84.71
780.576	84.54
780.753	82.94
780.931	83.97
781.108	85.15
781.286	83.55
781.463	83.26
781.64	82.73
781.818	81.91
781.995	84.42
782.172	83.78
782.35	82
782.527	83.52
782.704	82.81
782.882	84.55
783.059	84.23
783.236	82.45
783.413	83.78
783.59	83.53
783.768	82.12
783.945	82.36
784.122	81.47
784.299	83.57
784.476	84.77
784.653	83.04
784.83	82.76
785.007	83.64
785.184	84.07
785.361	83.2
785.538	83.05
785.715	81.18
785.892	80.22
786.069	80.12
786.246	78.03
786.423	78.57
786.6	79.92
786.776	79.8
786.953	79.19
787.13	81.67
787.307	82.6
787.484	83.87
787.66	82.81
787.837	82.56
788.014	82.83
788.191	84.05
788.367	81.35
788.544	82.26
788.721	83.44
788.897	84.42
789.074	83.77
789.25	84.38
789.427	84.25
789.603	85.55
789.78	83.59
789.956	80.96
790.133	79.61
790.309	79.61
790.486	80.33
790.662	79.69
790.839	81.58
791.015	84.06
791.192	87.13
791.368	89.3
791.544	89.75
791.721	86.79
791.897	88.7
792.073	87.19
792.249	87.57
792.426	85.67
792.602	83.84
792.778	82.06
792.954	84.17
793.13	83.62
793.307	83.05
793.483	80.13
793.659	81.46
793.835	81.56
794.011	81.93
794.187	79.02
794.363	78.26
794.539	79.28
794.715	78.54
794.891	76.23
795.067	77.01
795.243	78.32
795.419	81.29
795.595	81.21
795.771	81.55
795.947	82.69
796.122	84.3
796.298	81.41
796.474	82.24
796.65	82.28
796.826	83.85
797.001	83.46
797.177	81.9
797.353	81.72
797.529	83.59
797.704	80.92
797.88	79.18
798.056	76.17
798.231	74.83
798.407	76.64
798.582	76.96
798.758	77.57
798.934	77.64
799.109	78.53
799.285	79.22
799.46	80.83
799.636	81.06
799.811	81.33
799.986	82.01
800.162	84.83
800.337	84.33
800.513	85.85
800.688	86.42
800.863	87.06
801.039	84
801.214	82.96
801.389	79.23
801.565	81.71
801.74	78.71
801.915	76.66
802.09	74.11
802.265	78.26
802.441	80.82
802.616	78.62
802.791	77.56
802.966	79.47
803.141	78.57
803.316	83.63
803.491	78.75
803.666	74.39
803.841	80.35
804.016	78.09
804.191	76.32
804.366	75.11
804.541	71.95
804.716	71.13
804.891	73.86
805.066	69.43
805.241	69.75
805.416	72.61
805.591	76.78
805.765	76.88
805.94	81.07
806.115	74.91
806.29	78.86
806.464	78.78
806.639	77.88
806.814	76.37
806.989	75.3
807.163	73.39
807.338	77.71
807.512	76.4
807.687	75.62
807.862	74.32
808.036	70.51
808.211	70.57
808.385	69.36
808.56	70.27
808.734	69.32
808.909	68.48
809.083	69.26
809.258	71.38
809.432	70.71
809.606	71.76
809.781	67.96
809.955	67.86
810.13	68.76
810.304	68.18
810.478	71.07
810.652	73.81
810.827	72.58
811.001	76.26
811.175	74.52
811.349	74.6
811.524	75.17
811.698	73.83
811.872	76.27
812.046	75.96
812.22	73.87
812.394	76.88
812.568	78.36
812.742	79.46
812.916	79.79
813.09	77.35
813.264	81.39
813.438	89.61
813.612	88.93
813.786	87.18
813.96	86.27
814.134	89
814.308	81.98
814.482	78.34
814.656	75.06
814.83	77.98
815.003	79.58
815.177	77.08
815.351	73.91
815.525	74.63
815.698	73.8
815.872	69.38
816.046	66.65
816.219	67.65
816.393	69.85
816.567	68.95
816.74	70.35
816.914	73.71
817.088	75.96
817.261	78.66
817.435	75.25
817.608	76.65
817.782	79.3
817.955	82.51
818.129	85.88
818.302	90.4
818.475	86.01
818.649	80.26
818.822	77.01
818.996	71.9
819.169	71.21
819.342	66.21
819.516	65.65
819.689	64.15
819.862	69.08
820.035	68.66
820.209	66.66
820.382	66.87
820.555	70.41
820.728	66.56
820.901	69.8
821.075	66.66
821.248	67.46
821.421	66
821.594	67.81
821.767	65.95
821.94	66.98
822.113	64.07
822.286	66.91
822.459	72.43
822.632	84.09
822.805	79.84
822.978	77.86
823.151	78.8
823.324	72.7
823.496	66.99
823.669	71.3
823.842	68.44
824.015	66.6
824.188	71.67
824.361	70.71
824.533	82.73
824.706	98.04
824.879	87.76
825.051	86.9
825.224	89.53
825.397	83.17
825.569	86.32
825.742	78.51
825.915	72.81
826.087	67.91
826.26	62.1
826.432	61.49
826.605	57.96
826.777	50.63
826.95	51.71
827.122	46.09
827.295	48.98
827.467	50.92
827.64	48.22
827.812	50.33
827.984	60.16
828.157	64
828.329	71.18
828.501	66.47
828.674	66.11
828.846	64.07
829.018	59.95
829.19	49.94
829.363	51.91
829.535	49.34
829.707	53.75
829.879	52.76
830.051	55.22
830.223	56.55
830.395	58.34
830.568	60.04
830.74	61.24
830.912	59.06
831.084	57.59
831.256	54.67
831.428	60.68
831.6	57.88
831.772	52.67
831.943	53.98
832.115	55.79
832.287	59.35
832.459	63.87
832.631	59.24
832.803	70.88
832.975	70.91
833.146	62.88
833.318	59.26
833.49	54.82
833.662	49.78
833.833	55.4
834.005	49.24
834.177	57.65
834.348	65
834.52	73.53
834.692	81.13
834.863	88.37
835.035	79.35
835.206	77.86
835.378	72.42
835.549	62.25
835.721	51.16
835.892	49.42
836.064	48.74
836.235	56.92
836.407	53.35
836.578	59.5
836.749	59.71
836.921	69.17
837.092	78.48
837.264	81.15
837.435	63.35
837.606	69.53
837.777	54.4
837.949	52.2
838.12	43.37
838.291	33.6
838.462	33.37
838.633	41.49
838.805	39.75
838.976	42.87
839.147	45.63
839.318	42.14
839.489	48.83
839.66	56.2
839.831	50.63
840.002	50.58
840.173	52.52
840.344	59.44
840.515	66.09
840.686	57.91
840.857	53.39
841.028	56.04
841.199	58.57
841.369	64.72
841.54	63.46
841.711	68.26
841.882	65.81
842.053	63.54
842.223	59.96
842.394	56.46
842.565	37.58
842.736	37.11
842.906	30.8
843.077	48.73
843.248	58.64
843.418	61.45
843.589	63.9
843.759	74.09
843.93	75.1
844.101	72.85
844.271	70.46
844.442	56.82
844.612	53.74
844.783	35.32
844.953	33.38
845.123	35.99
845.294	35.58
845.464	41.91
845.635	43.53
845.805	52.52
845.975	54
846.146	40.92
846.316	36.76
846.486	41.76
846.656	50.55
846.827	65.45
846.997	73.62
847.167	81.38
847.337	91.61
847.507	93.11
847.677	93.78
847.848	88.34
848.018	77.95
848.188	61.79
848.358	70.02
848.528	70.93
848.698	51.66
848.868	30.3
849.038	40.38
849.208	34.1
849.378	33.39
849.548	28.97
849.718	25.7
849.887	28.61
850.057	49.42
850.227	43.86
850.397	49.7
850.567	68.75
850.737	63.67
850.906	63.17
851.076	65.51
851.246	71.89
851.415	76.49
851.585	76.2
851.755	72.12
851.924	87.72
852.094	80.9
852.264	76.21
852.433	74.77
852.603	67.54
852.772	53.53
852.942	42.19
853.111	25.28
853.281	23.97
853.45	23.75
853.62	16.45
853.789	17.21
853.959	19.95
854.128	5.17
854.297	2.74
854.467	-2.43
854.636	3.2
854.805	25.02
854.975	29.06
855.144	37.94
855.313	56.93
855.482	68.79
855.652	84.27
855.821	88.71
855.99	81.38
856.159	90.54
856.328	84.34
856.497	69.5
856.667	63.63
856.836	58.88
857.005	63.02
857.174	63.9
857.343	53.17
857.512	35.94
857.681	30.31
857.85	24.59
858.019	21.96
858.188	-4.38
858.356	-17.1
858.525	7.71
858.694	40.23
858.863	41.07
859.032	28.28
859.201	20.12
859.369	39.45
859.538	39.64
859.707	41.48
859.876	31.21
860.044	55.34
860.213	66.75
860.382	76.18
860.55	81.67
860.719	79.01
860.888	69.47
861.056	68.14
861.225	42.35
861.393	62.94
861.562	41.01
861.73	24.08
861.899	15.06
862.067	33.6
862.236	31.67
862.404	41.49
862.572	39.82
862.741	46.26
862.909	60.46
863.078	65.35
863.246	73.93
863.414	73
863.582	69.19
863.751	51.14
863.919	44.09
864.087	42.26
864.255	45.45
864.424	43.87
864.592	50.68
864.76	72.92
864.928	77.71
865.096	76.81
865.264	79.09
865.432	78.93
865.6	63.21
865.768	56.27
865.936	12.52
866.104	0.93
866.272	17.79
866.44	-8.75
866.608	-14.71
866.776	9.71
866.944	16.72
867.112	36
867.28	34.56
867.448	32.33
867.615	42.81
867.783	30.38
867.951	50
868.119	35.02
868.286	34.78
868.454	38.12
868.622	19.55
868.789	14.71
868.957	32.1
869.125	32.42
869.292	47.9
869.46	48.81
869.627	40.31
869.795	57.68
869.963	69.39
870.13	63.5
870.298	58.16
870.465	36.03
870.632	24.98
870.8	20.42
870.967	14.73
871.135	21.34
871.302	31.98
871.469	31.67
871.637	25.38
871.804	37.37
871.971	43.14
872.139	51.96
872.306	49.39
872.473	28.89
872.64	33.09
872.807	58.66
872.975	83.05
873.142	84.74
873.309	98.4
873.476	141.55
873.643	249.27
873.81	184.71
873.977	110.71
874.144	71.97
874.311	67.24
874.478	18.72
874.645	20.83
874.812	13.8
874.979	17.86
875.146	-2.34
875.313	0.15
875.48	75.35
875.647	104.36
875.813	97.57
875.98	68.21
876.147	78.42
876.314	74.75
876.481	50.82
876.647	18.53
876.814	34.47
876.981	27.14
877.147	11.32
877.314	-8.49
877.481	14.34
877.647	33.98
877.814	37.04
877.98	38.06
878.147	39.9
878.314	66.37
878.48	78.97
878.647	90.7
878.813	68.1
878.979	66.03
879.146	35.27
879.312	58.91
879.479	44.27
879.645	32.45
879.811	11.08
879.978	16.71
880.144	13.43
880.31	26.56
880.477	-3.13
880.643	-8.04
880.809	33.7
880.975	50
881.142	70.82
881.308	91.79
881.474	124.74
881.64	95.44
881.806	61.62
881.972	81.47
882.138	50.59
882.304	14.93
882.47	14.27
882.636	-37.01
882.802	-54.92
882.968	-97.54
883.134	-217.79
883.3	-73.26
883.466	-19.73
883.632	1.57
883.798	30.13
883.964	56.48
884.129	59.94
884.295	44.24
884.461	40.46
884.627	83.67
884.793	64.21
884.958	50.6
885.124	20.31
885.29	26.33
885.455	14.71
885.621	26.64
885.787	0.87
885.952	-4.49
886.118	-17.55
886.283	15.25
886.449	-9.54
886.614	6.58
886.78	31.01
886.945	27.98
887.111	23.62
887.276	15.31
887.442	0.26
887.607	5.06
887.773	8.06
887.938	-14.25
888.103	20.74
888.269	20.89
888.434	48.33
888.599	53.87
888.764	55.36
888.93	50.57
889.095	50
889.26	56.2
889.425	65.7
889.59	49.35
889.756	63.93
889.921	69.06
890.086	78.56
890.251	60.98
890.416	26.17
890.581	19.14
890.746	24.58
890.911	-36.53
891.076	-35.25
891.241	-46.75
891.406	1.82
891.571	14.74
891.736	34.81
891.901	51.66
892.065	60.95
892.23	49.12
892.395	47.4
892.56	41.43
892.725	40.51
892.889	8.68
893.054	-45.04
893.219	-57.72
893.384	-144.4
893.548	-436.67
893.713	666.34
893.878	315.76
