Data from Ofra_2a_PS_4HS13_Reflection_3.txt Node
Date: Tue Jul 20 09:50:33 EDT 2021
User: Adam
Spectrometer: FLMT01687
Trigger mode: 0
Integration Time (sec): 9.450000E-1
Scans to average: 3
Electric dark correction enabled: true
Nonlinearity correction enabled: false
Boxcar width: 3
XAxis mode: Wavelengths
Number of Pixels in Spectrum: 3648
>>>>>Begin Spectral Data<<<<<
179.494	1504.14
179.716	995.25
179.937	1100
180.158	4686.72
180.38	-1994.77
180.601	-424.72
180.823	-178.22
181.044	-88.25
181.265	-39.95
181.486	42.87
181.708	223.91
181.929	-96.05
182.15	-469.32
182.372	29.06
182.593	94.35
182.814	77.54
183.035	116.74
183.257	62.62
183.478	24.49
183.699	37.98
183.92	35.63
184.141	47.61
184.363	31.39
184.584	12.24
184.805	20.05
185.026	-1.58
185.247	-12.45
185.468	-14.8
185.689	-5.26
185.91	-10.13
186.132	-1.1
186.353	-15.59
186.574	1.61
186.795	-8.44
187.016	-9.14
187.237	-26.37
187.458	-29.09
187.679	-40.86
187.9	-35.43
188.121	-37.88
188.342	-8.44
188.563	-11.84
188.784	-7.73
189.005	4.63
189.226	5.13
189.447	3.19
189.667	3.83
189.888	2.64
190.109	1.72
190.33	-8.53
190.551	-16.38
190.772	-17.31
190.993	-10.05
191.214	-17.54
191.434	-24.02
191.655	-16.96
191.876	-8.55
192.097	-3.8
192.318	1.83
192.538	8.42
192.759	20.2
192.98	13.64
193.201	36.4
193.421	47.55
193.642	55.12
193.863	64.23
194.083	47.87
194.304	33.37
194.525	47.94
194.745	15.53
194.966	13.49
195.187	18.82
195.407	14.77
195.628	16.64
195.848	14.07
196.069	-2.92
196.29	-8
196.51	-23.06
196.731	-11.64
196.951	-7.28
197.172	-20.89
197.392	-7.1
197.613	-2.38
197.833	-2.06
198.054	-7.79
198.274	-46.26
198.495	-59.45
198.715	-62.24
198.936	-77.75
199.156	-61.93
199.377	-62.86
199.597	-38.17
199.817	-23.81
200.038	-15.65
200.258	-9.97
200.479	-14.74
200.699	-20.54
200.919	-34.69
201.14	-40.98
201.36	-32.95
201.58	-26.06
201.801	-17.19
202.021	-8.21
202.241	-2.67
202.461	15.41
202.682	23.22
202.902	21.63
203.122	16.7
203.342	26.66
203.563	30.68
203.783	26.51
204.003	22.85
204.223	24.44
204.443	18.76
204.663	27.38
204.884	12.26
205.104	12.14
205.324	20.48
205.544	27.88
205.764	12.1
205.984	19.48
206.204	8.58
206.424	13.66
206.644	2.29
206.864	-0.17
207.084	3.43
207.304	-4.48
207.525	-13.8
207.745	-14.31
207.964	-11.83
208.184	-5.05
208.404	-17.22
208.624	-45.08
208.844	-45.45
209.064	-22.05
209.284	-23.53
209.504	-36.61
209.724	-75.12
209.944	-60.04
210.164	-23.46
210.384	-7.53
210.604	-45.77
210.823	-36.69
211.043	-39.06
211.263	0.02
211.483	-4.03
211.703	-10.87
211.922	-8.69
212.142	0.1
212.362	0.56
212.582	9.42
212.801	-7.08
213.021	-4.44
213.241	-2.25
213.461	-2.29
213.68	6.39
213.9	3.53
214.12	-6.88
214.339	-4.29
214.559	-7.92
214.779	-1.92
214.998	-3.31
215.218	-5.64
215.438	5.68
215.657	10.21
215.877	12.23
216.096	6.87
216.316	-11.43
216.535	-13.04
216.755	-33
216.974	-42.2
217.194	-39.56
217.413	-18.04
217.633	-10.25
217.852	-10.62
218.072	-20.84
218.291	21.06
218.511	15.5
218.73	2.01
218.95	0.58
219.169	-0.76
219.389	15.3
219.608	26.92
219.827	-2.4
220.047	4.22
220.266	16.83
220.485	11.38
220.705	9.94
220.924	3.45
221.143	-5.32
221.363	-7.69
221.582	-13.01
221.801	-6.2
222.021	-4.73
222.24	-6.39
222.459	-12.04
222.678	-18.77
222.897	-8.5
223.117	-5.87
223.336	-8.55
223.555	-23.34
223.774	-10.87
223.993	-5.41
224.213	-5.79
224.432	-0.1
224.651	-4
224.87	-4.32
225.089	6.46
225.308	1.19
225.527	2.99
225.746	-0.35
225.965	-12.75
226.184	-13.3
226.404	-39.58
226.623	-31.54
226.842	-36.6
227.061	-28.95
227.28	-17.21
227.499	12.06
227.718	20.84
227.936	24.27
228.155	19.27
228.374	20.68
228.593	16.14
228.812	11.76
229.031	-2.17
229.25	-1.77
229.469	11.17
229.688	14.59
229.907	6.79
230.125	6.92
230.344	10.53
230.563	15.92
230.782	7.15
231.001	6.65
231.22	-5.13
231.438	12.8
231.657	18.84
231.876	5.55
232.095	2.42
232.313	4.65
232.532	0.66
232.751	4.31
232.969	4.44
233.188	-8.8
233.407	1.55
233.625	-4.9
233.844	3.11
234.063	-5.23
234.281	-3.42
234.5	-1.66
234.719	-2.16
234.937	1.97
235.156	8.68
235.374	0.8
235.593	2.77
235.811	-4.08
236.03	-18.7
236.249	15.58
236.467	6.95
236.686	13.33
236.904	10.55
237.123	16.88
237.341	18.75
237.559	23.66
237.778	11.43
237.996	13.36
238.215	1.43
238.433	11.6
238.652	6.73
238.87	14.96
239.088	-7.52
239.307	-7.52
239.525	-9.98
239.743	-12.33
239.962	-17.52
240.18	-9.91
240.398	-15.67
240.617	16.17
240.835	17.88
241.053	25.26
241.271	26.73
241.49	14.51
241.708	6.59
241.926	-9.76
242.144	-21.36
242.363	-27.81
242.581	-26.03
242.799	-43.13
243.017	-21.89
243.235	-21.4
243.453	-6.31
243.672	-2.41
243.89	2.87
244.108	-2.71
244.326	3.55
244.544	0.99
244.762	4.55
244.98	-2.44
245.198	-11.37
245.416	-13.48
245.634	-0.18
245.852	7.3
246.07	2.57
246.288	-5.13
246.506	4.83
246.724	18.47
246.942	28.24
247.16	11.31
247.378	2.05
247.596	11.65
247.814	1.68
248.032	-4.36
248.25	-19.02
248.468	-18.39
248.685	-7.61
248.903	-7.05
249.121	-2.57
249.339	10.98
249.557	16.94
249.775	-0.33
249.992	-7.21
250.21	-24.69
250.428	-25.53
250.646	-36.66
250.863	-35.51
251.081	-39.58
251.299	-8.53
251.517	-1.97
251.734	16.78
251.952	29.85
252.17	18.84
252.387	17.19
252.605	8.28
252.823	-12.95
253.04	-21.13
253.258	-30.09
253.475	-23.1
253.693	-2.74
253.911	-4.59
254.128	-10.03
254.346	-9.24
254.563	-10.69
254.781	-7.1
254.998	-9.08
255.216	-17.75
255.433	-21.47
255.651	-16.53
255.868	-7.97
256.086	-10.79
256.303	-3.22
256.521	-13
256.738	-0.7
256.956	-3.57
257.173	8.48
257.39	15.42
257.608	12.36
257.825	4.34
258.043	11.35
258.26	8.62
258.477	12.51
258.695	8.41
258.912	0.58
259.129	2.03
259.346	6.1
259.564	2.76
259.781	6.46
259.998	8.57
260.216	4.54
260.433	-0.07
260.65	-0.17
260.867	-24.03
261.084	-17.63
261.302	-33.23
261.519	-47.83
261.736	-50.56
261.953	-41.47
262.17	-29.63
262.387	-18.81
262.604	-34.69
262.822	-22.29
263.039	-23.32
263.256	-18.14
263.473	-25.5
263.69	-32.88
263.907	-31.71
264.124	-27.31
264.341	-24.15
264.558	-19.16
264.775	-17.73
264.992	-14.36
265.209	-0.42
265.426	8.65
265.643	11.07
265.86	5.31
266.077	10.25
266.294	12.89
266.51	12.6
266.727	-5.87
266.944	-27.3
267.161	-28.52
267.378	-30.79
267.595	-48.12
267.812	-51.57
268.028	-37.77
268.245	-24.83
268.462	-16.82
268.679	-26.23
268.896	-22.84
269.112	-5.35
269.329	5.92
269.546	0.9
269.763	1.9
269.979	3.41
270.196	12.06
270.413	11.17
270.629	4.67
270.846	-3.78
271.063	-7.21
271.279	-11.18
271.496	-19.18
271.712	-21.08
271.929	-12.91
272.146	-8.95
272.362	-22.32
272.579	-21.09
272.795	-18.79
273.012	-10.23
273.228	-8.82
273.445	-9.39
273.661	-8.83
273.878	2.44
274.094	6.29
274.311	8.32
274.527	10.88
274.744	12.63
274.96	5.91
275.177	14.64
275.393	14.74
275.609	18.64
275.826	14.88
276.042	18.56
276.259	12.58
276.475	10.96
276.691	8
276.908	8.13
277.124	3.13
277.34	-3.94
277.557	-10.15
277.773	-7.64
277.989	-15.69
278.205	-35.36
278.422	-32.19
278.638	-35.28
278.854	-22.68
279.07	-32.83
279.286	-35.91
279.503	-31.25
279.719	-0.06
279.935	-12.47
280.151	3.38
280.367	3.61
280.583	14.32
280.799	16.9
281.016	20.78
281.232	10.37
281.448	6.16
281.664	-5.79
281.88	-7.47
282.096	-4.53
282.312	-11.97
282.528	-31.07
282.744	-33.68
282.96	-17.1
283.176	-13.19
283.392	-3.23
283.608	-9.23
283.824	-9.82
284.04	5.44
284.256	9.58
284.471	6.37
284.687	7.73
284.903	0.25
285.119	-3.73
285.335	4.61
285.551	9.73
285.767	1.13
285.982	1.18
286.198	-7.26
286.414	-3.05
286.63	8.39
286.846	3.18
287.061	2.05
287.277	8.32
287.493	12.84
287.709	10.53
287.924	20.48
288.14	13.58
288.356	20.59
288.571	16.48
288.787	12.74
289.003	14.54
289.218	19.34
289.434	2.55
289.65	5.98
289.865	12.24
290.081	16.22
290.296	16.89
290.512	14.98
290.727	24.67
290.943	24.07
291.159	18.49
291.374	16.36
291.59	4.46
291.805	-1.85
292.021	-10.38
292.236	-19.08
292.451	-16.11
292.667	-16.06
292.882	-25.74
293.098	-21.99
293.313	-26.71
293.529	-17.01
293.744	-12.64
293.959	-11.95
294.175	-14.36
294.39	-10.61
294.605	-11.27
294.821	-6.95
295.036	-7.8
295.251	-6.55
295.467	-7
295.682	-2.41
295.897	-8.96
296.112	-11.68
296.328	-5.64
296.543	-10.99
296.758	-15.72
296.973	-11.12
297.188	-10.33
297.404	4.38
297.619	10.4
297.834	16.43
298.049	16.78
298.264	20.53
298.479	8.17
298.694	14.14
298.909	-3.5
299.125	2.66
299.34	-4.44
299.555	-2.11
299.77	-9.2
299.985	-7.98
300.2	-12.87
300.415	6.54
300.63	0.08
300.845	3.55
301.06	3.84
301.275	4.33
301.49	13.53
301.704	10.33
301.919	-4.06
302.134	-6.43
302.349	-13.94
302.564	-20.79
302.779	-27.32
302.994	-35.6
303.209	-40.76
303.423	-21.5
303.638	-15.43
303.853	-10.86
304.068	-6.42
304.283	0.28
304.497	6.43
304.712	17.88
304.927	5.22
305.142	3.96
305.356	-2.92
305.571	7.32
305.786	7.96
306	4.62
306.215	0.26
306.43	11.58
306.644	11.09
306.859	21.35
307.074	5.57
307.288	9.91
307.503	9.04
307.717	6.43
307.932	6.2
308.147	6.13
308.361	9.98
308.576	16.79
308.79	12
309.005	13.66
309.219	15.77
309.434	10.41
309.648	1.7
309.863	3.6
310.077	1.95
310.292	10.48
310.506	12.78
310.72	16.41
310.935	26.87
311.149	29.41
311.364	26.29
311.578	17.73
311.792	10.32
312.007	13.02
312.221	10.02
312.435	-2.04
312.649	-26.6
312.864	-49.31
313.078	-42.52
313.292	-30.31
313.507	-21.84
313.721	-32.38
313.935	-16.11
314.149	13.56
314.363	23.07
314.578	52.84
314.792	47.63
315.006	37.63
315.22	44.29
315.434	38.13
315.648	25.91
315.862	21.49
316.077	3.94
316.291	1.31
316.505	-1.41
316.719	-18.58
316.933	-9.09
317.147	-1.59
317.361	0.87
317.575	-3.21
317.789	3.93
318.003	5.88
318.217	18.12
318.431	12.79
318.645	16
318.859	9.5
319.073	10.24
319.287	9.48
319.5	11.27
319.714	8.86
319.928	15.11
320.142	17.16
320.356	33.59
320.57	28.55
320.784	25.46
320.997	29.26
321.211	29.12
321.425	20.84
321.639	20.43
321.853	2.54
322.066	6.13
322.28	8.15
322.494	-13.24
322.707	-16.61
322.921	-11.08
323.135	-12.24
323.349	-4.71
323.562	-9.2
323.776	-10.77
323.989	1.3
324.203	6.79
324.417	-4.08
324.63	-15.38
324.844	-20.27
325.057	-9.28
325.271	-16.15
325.485	-7.66
325.698	-2.77
325.912	13.99
326.125	21.5
326.339	24.14
326.552	20.29
326.766	32.35
326.979	31.52
327.193	24.56
327.406	15.97
327.619	-6.59
327.833	-10.96
328.046	-15.98
328.26	-40.11
328.473	-43.43
328.686	-39.22
328.9	-46.79
329.113	-27.99
329.326	-20.21
329.54	-17.62
329.753	-3.13
329.966	0.95
330.179	9.94
330.393	15.05
330.606	21.49
330.819	22.94
331.032	22.26
331.246	13.19
331.459	11.2
331.672	4.62
331.885	3.79
332.098	1.18
332.311	-21.48
332.525	-9.33
332.738	-0.89
332.951	-1.02
333.164	-7.69
333.377	-17.51
333.59	-20.9
333.803	-3.74
334.016	-21.38
334.229	-26.71
334.442	-16.09
334.655	-7.6
334.868	8.27
335.081	15.39
335.294	10.57
335.507	22.33
335.72	9.53
335.933	7.96
336.146	13.07
336.359	7.99
336.572	0.64
336.785	7.8
336.997	2.52
337.21	15.83
337.423	11.58
337.636	6.56
337.849	2.5
338.062	3.71
338.274	-6.29
338.487	-8.39
338.7	-6.61
338.913	-11.96
339.125	-14.48
339.338	-3.38
339.551	5.54
339.763	12.24
339.976	14.16
340.189	10.08
340.402	12.75
340.614	14.82
340.827	2.34
341.039	-5.9
341.252	-12.48
341.465	-20.6
341.677	-22.16
341.89	-20.08
342.102	-14.87
342.315	-8.65
342.527	-18.42
342.74	-14.07
342.952	-9.17
343.165	2.25
343.377	5.03
343.59	3.92
343.802	10.04
344.015	21.05
344.227	14.83
344.44	14.97
344.652	10.39
344.864	12.99
345.077	9.11
345.289	-0.07
345.502	-1.15
345.714	-1.65
345.926	-8.46
346.139	-12.99
346.351	-39.25
346.563	-33.09
346.775	-34.12
346.988	-34.76
347.2	-19.67
347.412	-11.2
347.624	-4.67
347.837	6.58
348.049	7.55
348.261	12.59
348.473	5.91
348.685	10.26
348.897	9.71
349.11	4.84
349.322	1.2
349.534	-5.1
349.746	-3.69
349.958	6.18
350.17	3.44
350.382	0.6
350.594	-2.67
350.806	11.53
351.018	18.42
351.23	19.59
351.442	19.77
351.654	8.19
351.866	8.97
352.078	6.15
352.29	1.82
352.502	-3.64
352.714	-8.23
352.926	-9.84
353.138	-1.41
353.35	-6.21
353.561	-1.24
353.773	-1.64
353.985	0.54
354.197	-10.18
354.409	-8.19
354.621	-5.94
354.832	-10.71
355.044	-7.74
355.256	-17.48
355.468	-24.07
355.679	-13.31
355.891	-5.51
356.103	-8.94
356.314	-2.55
356.526	-6.4
356.738	-4.19
356.949	-2.72
357.161	7.87
357.373	2.9
357.584	4.02
357.796	2.48
358.008	9.73
358.219	15.25
358.431	17.48
358.642	5.39
358.854	-0.52
359.065	-3.4
359.277	-3.15
359.488	-7.13
359.7	-14.42
359.911	-19.08
360.123	-9.67
360.334	-5.5
360.546	-10.45
360.757	-3.33
360.969	4.26
361.18	2.18
361.391	7.52
361.603	1.05
361.814	2.17
362.025	8.06
362.237	3.03
362.448	0.36
362.659	-7.26
362.871	-11.68
363.082	-2.99
363.293	-2.35
363.504	-3.41
363.716	2.94
363.927	-1.88
364.138	11.21
364.349	13.73
364.56	6.51
364.772	2.27
364.983	-0.73
365.194	-7.69
365.405	-15.18
365.616	-30.17
365.827	-36.6
366.038	-17.1
366.25	-13.77
366.461	-5.67
366.672	-3.52
366.883	8.58
367.094	10.29
367.305	13.66
367.516	-4.48
367.727	-6.85
367.938	-4.51
368.149	-0.6
368.36	-8.87
368.571	-1.9
368.781	-3.94
368.992	-1.9
369.203	4.68
369.414	-5.62
369.625	-13.12
369.836	-7.97
370.047	-10.18
370.258	-7.66
370.468	-7.2
370.679	-10.85
370.89	-1.71
371.101	-4.3
371.312	-6.07
371.522	-4.47
371.733	-18.22
371.944	-16.25
372.155	-30.78
372.365	-40.4
372.576	-31.43
372.787	-34.86
372.997	-37.62
373.208	-23.32
373.419	-27.75
373.629	-12.75
373.84	-7.94
374.05	-4.35
374.261	-3.89
374.472	-5.04
374.682	-7.39
374.893	-2.6
375.103	-1.7
375.314	-2.9
375.524	-8.33
375.735	-0.79
375.945	-1.44
376.156	-2.46
376.366	0.4
376.577	-2.02
376.787	2
376.997	6.1
377.208	5.26
377.418	11.94
377.629	10.81
377.839	11.55
378.049	18.91
378.26	13
378.47	15.59
378.68	10.95
378.89	0.57
379.101	-4.61
379.311	-11.03
379.521	-6.04
379.732	-11.92
379.942	-17.55
380.152	-10.79
380.362	-3.51
380.572	-0.9
380.783	1.31
380.993	-5.2
381.203	1.04
381.413	2.8
381.623	-2.52
381.833	-11.14
382.043	-10.18
382.253	-7.48
382.463	-4.02
382.674	-3.07
382.884	-1.66
383.094	-1.21
383.304	4.43
383.514	9.15
383.724	5.12
383.934	0.32
384.144	1.1
384.353	1.12
384.563	-1.37
384.773	1.05
384.983	-0.99
385.193	-0.06
385.403	-0.94
385.613	-1.25
385.823	-3.58
386.033	-1.37
386.242	-3.04
386.452	-2.77
386.662	-0.34
386.872	-0.6
387.082	-2.1
387.291	-2.56
387.501	0.4
387.711	-1.66
387.921	-1.73
388.13	-3.69
388.34	-2.42
388.55	-1.66
388.759	-0.14
388.969	-4.78
389.179	-0.43
389.388	-0.5
389.598	-2.49
389.807	-3.5
390.017	-3.75
390.227	-5.85
390.436	-4.29
390.646	-4.24
390.855	-4.46
391.065	-2.94
391.274	-2.6
391.484	-1.75
391.693	1.31
391.903	0.67
392.112	-0.31
392.322	1.47
392.531	2.5
392.74	1.8
392.95	2.75
393.159	2.77
393.369	4.11
393.578	4.62
393.787	3.37
393.997	4.3
394.206	4.48
394.415	3.68
394.625	1.77
394.834	0.61
395.043	0.39
395.252	1.31
395.462	0.34
395.671	1.23
395.88	1.84
396.089	2.6
396.298	3.5
396.508	3.46
396.717	2.69
396.926	2.87
397.135	2.52
397.344	2.29
397.553	2.38
397.762	2.12
397.971	2.12
398.181	1.99
398.39	1.86
398.599	2.24
398.808	2.14
399.017	2.52
399.226	2.71
399.435	2.64
399.644	2.72
399.853	2.86
400.062	2.48
400.27	2.69
400.479	2.36
400.688	2.25
400.897	2.69
401.106	2.85
401.315	2.69
401.524	2.92
401.733	3.11
401.941	3.15
402.15	3.11
402.359	2.89
402.568	2.93
402.777	2.9
402.985	2.73
403.194	2.4
403.403	2.28
403.612	2.38
403.82	2.48
404.029	2.41
404.238	2.57
404.446	2.58
404.655	2.6
404.864	2.64
405.072	2.58
405.281	2.35
405.489	2.36
405.698	2.23
405.906	2.18
406.115	2.28
406.324	2.27
406.532	2.34
406.741	2.44
406.949	2.43
407.158	2.54
407.366	2.66
407.574	2.65
407.783	2.64
407.991	2.54
408.2	2.5
408.408	2.42
408.617	2.36
408.825	2.32
409.033	2.24
409.242	2.21
409.45	2.25
409.658	2.26
409.867	2.27
410.075	2.27
410.283	2.15
410.491	2.15
410.7	2.24
410.908	2.25
411.116	2.18
411.324	2.32
411.533	2.13
411.741	2.15
411.949	2.2
412.157	2.19
412.365	2.15
412.573	2.18
412.781	2.1
412.99	2.3
413.198	2.35
413.406	2.3
413.614	2.24
413.822	2.19
414.03	2.16
414.238	2.22
414.446	2.13
414.654	2.13
414.862	2.06
415.07	2.12
415.278	2.1
415.486	2.18
415.694	2.02
415.902	2
416.109	2.06
416.317	2.05
416.525	2.13
416.733	2.16
416.941	2.09
417.149	2.25
417.357	2.3
417.564	2.18
417.772	2.19
417.98	2.04
418.188	1.99
418.395	2
418.603	1.84
418.811	1.72
419.019	1.73
419.226	1.8
419.434	1.79
419.642	1.79
419.849	1.83
420.057	1.9
420.265	1.91
420.472	1.89
420.68	1.9
420.887	1.86
421.095	1.91
421.302	1.82
421.51	1.89
421.717	1.96
421.925	1.91
422.132	1.73
422.34	1.78
422.547	1.67
422.755	1.73
422.962	1.56
423.17	1.52
423.377	1.65
423.585	1.73
423.792	1.66
423.999	1.7
424.207	1.58
424.414	1.69
424.621	1.78
424.829	1.71
425.036	1.61
425.243	1.7
425.451	1.76
425.658	1.88
425.865	1.74
426.072	1.66
426.28	1.69
426.487	1.72
426.694	1.62
426.901	1.55
427.108	1.53
427.315	1.58
427.523	1.58
427.73	1.57
427.937	1.59
428.144	1.65
428.351	1.74
428.558	1.57
428.765	1.53
428.972	1.54
429.179	1.46
429.386	1.51
429.593	1.47
429.8	1.46
430.007	1.63
430.214	1.68
430.421	1.66
430.628	1.58
430.835	1.55
431.042	1.53
431.249	1.47
431.456	1.44
431.662	1.45
431.869	1.54
432.076	1.65
432.283	1.65
432.49	1.71
432.697	1.75
432.903	1.75
433.11	1.81
433.317	1.81
433.524	1.76
433.73	1.78
433.937	1.67
434.144	1.75
434.35	1.7
434.557	1.62
434.764	1.56
434.97	1.57
435.177	1.57
435.384	1.69
435.59	1.59
435.797	1.64
436.003	1.64
436.21	1.58
436.416	1.59
436.623	1.57
436.829	1.51
437.036	1.51
437.242	1.48
437.449	1.51
437.655	1.59
437.862	1.56
438.068	1.66
438.275	1.69
438.481	1.77
438.687	1.84
438.894	1.83
439.1	1.84
439.307	1.87
439.513	1.76
439.719	1.76
439.926	1.77
440.132	1.67
440.338	1.7
440.544	1.65
440.751	1.7
440.957	1.7
441.163	1.69
441.369	1.64
441.575	1.7
441.782	1.64
441.988	1.64
442.194	1.64
442.4	1.76
442.606	1.82
442.812	1.84
443.018	1.83
443.224	1.86
443.431	1.91
443.637	1.87
443.843	1.82
444.049	1.73
444.255	1.7
444.461	1.69
444.667	1.66
444.873	1.65
445.079	1.67
445.284	1.64
445.49	1.61
445.696	1.66
445.902	1.76
446.108	1.81
446.314	1.78
446.52	1.81
446.726	1.85
446.931	1.93
447.137	1.89
447.343	1.83
447.549	1.81
447.755	1.79
447.96	1.72
448.166	1.72
448.372	1.7
448.578	1.73
448.783	1.72
448.989	1.71
449.195	1.71
449.4	1.76
449.606	1.7
449.812	1.75
450.017	1.73
450.223	1.71
450.428	1.71
450.634	1.75
450.84	1.72
451.045	1.75
451.251	1.72
451.456	1.72
451.662	1.7
451.867	1.71
452.073	1.73
452.278	1.75
452.483	1.71
452.689	1.7
452.894	1.66
453.1	1.65
453.305	1.63
453.51	1.59
453.716	1.57
453.921	1.61
454.127	1.6
454.332	1.64
454.537	1.72
454.742	1.75
454.948	1.75
455.153	1.78
455.358	1.82
455.563	1.88
455.769	1.88
455.974	1.8
456.179	1.75
456.384	1.77
456.589	1.81
456.795	1.69
457	1.63
457.205	1.6
457.41	1.63
457.615	1.69
457.82	1.73
458.025	1.67
458.23	1.76
458.435	1.74
458.64	1.81
458.845	1.8
459.05	1.77
459.255	1.72
459.46	1.72
459.665	1.74
459.87	1.69
460.075	1.63
460.28	1.67
460.485	1.69
460.69	1.63
460.895	1.67
461.099	1.65
461.304	1.74
461.509	1.68
461.714	1.65
461.919	1.63
462.123	1.71
462.328	1.66
462.533	1.67
462.738	1.62
462.942	1.71
463.147	1.72
463.352	1.75
463.556	1.72
463.761	1.7
463.966	1.69
464.17	1.72
464.375	1.64
464.58	1.59
464.784	1.6
464.989	1.6
465.193	1.64
465.398	1.64
465.602	1.64
465.807	1.68
466.011	1.72
466.216	1.68
466.42	1.72
466.625	1.72
466.829	1.77
467.034	1.79
467.238	1.86
467.443	1.88
467.647	1.93
467.851	1.95
468.056	1.97
468.26	1.91
468.464	1.9
468.669	1.88
468.873	1.9
469.077	1.87
469.282	1.87
469.486	1.89
469.69	1.93
469.894	2
470.099	1.98
470.303	1.94
470.507	1.96
470.711	1.92
470.915	1.96
471.119	1.99
471.324	1.91
471.528	1.99
471.732	2.03
471.936	2.1
472.14	2.11
472.344	2.06
472.548	2.05
472.752	2.12
472.956	2.1
473.16	2.07
473.364	2.04
473.568	2.05
473.772	2.1
473.976	2.09
474.18	2.06
474.384	2.01
474.588	2.02
474.792	2.01
474.995	2.05
475.199	2.05
475.403	2.07
475.607	2.13
475.811	2.19
476.015	2.24
476.218	2.29
476.422	2.25
476.626	2.23
476.83	2.2
477.033	2.14
477.237	2.14
477.441	2.12
477.644	2.08
477.848	2.1
478.052	2.11
478.255	2.11
478.459	2.17
478.663	2.17
478.866	2.17
479.07	2.18
479.273	2.22
479.477	2.24
479.681	2.25
479.884	2.2
480.088	2.2
480.291	2.25
480.495	2.31
480.698	2.27
480.901	2.27
481.105	2.31
481.308	2.35
481.512	2.36
481.715	2.39
481.919	2.35
482.122	2.39
482.325	2.44
482.529	2.46
482.732	2.46
482.935	2.45
483.138	2.41
483.342	2.43
483.545	2.41
483.748	2.37
483.952	2.39
484.155	2.42
484.358	2.43
484.561	2.44
484.764	2.42
484.967	2.45
485.171	2.45
485.374	2.47
485.577	2.49
485.78	2.5
485.983	2.51
486.186	2.51
486.389	2.49
486.592	2.51
486.795	2.51
486.998	2.48
487.201	2.51
487.404	2.55
487.607	2.58
487.81	2.61
488.013	2.58
488.216	2.56
488.419	2.55
488.622	2.48
488.825	2.43
489.028	2.41
489.231	2.38
489.433	2.4
489.636	2.35
489.839	2.37
490.042	2.41
490.245	2.43
490.447	2.44
490.65	2.48
490.853	2.51
491.056	2.54
491.258	2.54
491.461	2.52
491.664	2.49
491.866	2.5
492.069	2.46
492.272	2.44
492.474	2.44
492.677	2.42
492.879	2.47
493.082	2.52
493.285	2.52
493.487	2.53
493.69	2.48
493.892	2.55
494.095	2.56
494.297	2.57
494.5	2.56
494.702	2.58
494.905	2.61
495.107	2.68
495.309	2.6
495.512	2.62
495.714	2.61
495.917	2.6
496.119	2.65
496.321	2.69
496.524	2.69
496.726	2.74
496.928	2.74
497.13	2.77
497.333	2.81
497.535	2.76
497.737	2.74
497.939	2.77
498.142	2.74
498.344	2.75
498.546	2.8
498.748	2.76
498.95	2.77
499.152	2.79
499.355	2.76
499.557	2.83
499.759	2.89
499.961	2.87
500.163	2.93
500.365	2.96
500.567	2.96
500.769	3.01
500.971	3
501.173	2.94
501.375	2.97
501.577	2.98
501.779	2.99
501.981	3.03
502.183	3.04
502.385	3.04
502.587	3.09
502.788	3.03
502.99	3.01
503.192	3.06
503.394	3.04
503.596	3.08
503.798	3.14
503.999	3.15
504.201	3.21
504.403	3.23
504.605	3.25
504.806	3.29
505.008	3.27
505.21	3.28
505.411	3.33
505.613	3.35
505.815	3.39
506.016	3.38
506.218	3.37
506.42	3.41
506.621	3.4
506.823	3.39
507.024	3.39
507.226	3.36
507.427	3.35
507.629	3.4
507.83	3.37
508.032	3.39
508.233	3.42
508.435	3.48
508.636	3.53
508.838	3.58
509.039	3.59
509.24	3.64
509.442	3.63
509.643	3.64
509.845	3.62
510.046	3.64
510.247	3.7
510.448	3.74
510.65	3.75
510.851	3.81
511.052	3.83
511.254	3.85
511.455	3.84
511.656	3.79
511.857	3.76
512.058	3.79
512.26	3.78
512.461	3.79
512.662	3.78
512.863	3.79
513.064	3.8
513.265	3.85
513.466	3.88
513.667	3.88
513.868	3.9
514.069	3.95
514.27	3.98
514.471	4.03
514.672	4.07
514.873	4.08
515.074	4.1
515.275	4.11
515.476	4.13
515.677	4.15
515.878	4.17
516.079	4.17
516.28	4.15
516.481	4.15
516.682	4.2
516.882	4.21
517.083	4.21
517.284	4.19
517.485	4.23
517.686	4.24
517.886	4.27
518.087	4.27
518.288	4.27
518.488	4.32
518.689	4.33
518.89	4.33
519.091	4.35
519.291	4.38
519.492	4.38
519.692	4.43
519.893	4.44
520.094	4.49
520.294	4.47
520.495	4.5
520.695	4.49
520.896	4.52
521.096	4.51
521.297	4.55
521.497	4.53
521.698	4.54
521.898	4.56
522.099	4.58
522.299	4.59
522.499	4.59
522.7	4.58
522.9	4.58
523.101	4.64
523.301	4.63
523.501	4.66
523.702	4.67
523.902	4.7
524.102	4.73
524.302	4.75
524.503	4.75
524.703	4.79
524.903	4.81
525.103	4.8
525.304	4.81
525.504	4.81
525.704	4.82
525.904	4.84
526.104	4.83
526.304	4.87
526.504	4.88
526.705	4.91
526.905	4.93
527.105	4.96
527.305	4.98
527.505	4.99
527.705	4.96
527.905	5
528.105	4.99
528.305	4.99
528.505	5.01
528.705	5.02
528.905	5.03
529.105	5.09
529.304	5.12
529.504	5.13
529.704	5.15
529.904	5.19
530.104	5.2
530.304	5.26
530.503	5.24
530.703	5.29
530.903	5.33
531.103	5.34
531.303	5.34
531.502	5.34
531.702	5.33
531.902	5.35
532.101	5.34
532.301	5.33
532.501	5.38
532.7	5.37
532.9	5.41
533.1	5.42
533.299	5.46
533.499	5.47
533.698	5.52
533.898	5.55
534.097	5.62
534.297	5.63
534.496	5.66
534.696	5.67
534.895	5.72
535.095	5.75
535.294	5.74
535.494	5.77
535.693	5.82
535.892	5.85
536.092	5.87
536.291	5.9
536.491	5.91
536.69	5.96
536.889	5.94
537.088	5.96
537.288	6.01
537.487	6.04
537.686	6.09
537.886	6.12
538.085	6.15
538.284	6.2
538.483	6.22
538.682	6.23
538.882	6.27
539.081	6.27
539.28	6.28
539.479	6.31
539.678	6.34
539.877	6.4
540.076	6.44
540.275	6.46
540.474	6.47
540.673	6.52
540.872	6.55
541.071	6.6
541.27	6.6
541.469	6.63
541.668	6.69
541.867	6.75
542.066	6.8
542.265	6.83
542.464	6.85
542.663	6.91
542.862	6.93
543.06	6.98
543.259	6.99
543.458	7.02
543.657	7.04
543.856	7.1
544.054	7.12
544.253	7.14
544.452	7.13
544.651	7.18
544.849	7.22
545.048	7.25
545.247	7.27
545.445	7.3
545.644	7.37
545.843	7.42
546.041	7.48
546.24	7.57
546.438	7.63
546.637	7.71
546.836	7.79
547.034	7.83
547.233	7.94
547.431	7.98
547.63	8
547.828	8.06
548.027	8.09
548.225	8.18
548.423	8.27
548.622	8.31
548.82	8.39
549.019	8.49
549.217	8.58
549.415	8.66
549.614	8.69
549.812	8.73
550.01	8.78
550.209	8.82
550.407	8.87
550.605	8.91
550.803	8.97
551.002	9.02
551.2	9.17
551.398	9.22
551.596	9.32
551.794	9.42
551.993	9.48
552.191	9.56
552.389	9.64
552.587	9.66
552.785	9.77
552.983	9.84
553.181	9.88
553.379	9.96
553.577	10.06
553.775	10.14
553.973	10.22
554.171	10.27
554.369	10.32
554.567	10.4
554.765	10.45
554.963	10.46
555.161	10.56
555.359	10.66
555.557	10.76
555.755	10.84
555.952	10.95
556.15	11.1
556.348	11.27
556.546	11.36
556.744	11.4
556.941	11.5
557.139	11.64
557.337	11.72
557.535	11.8
557.732	11.87
557.93	11.96
558.128	12.04
558.325	12.13
558.523	12.2
558.721	12.31
558.918	12.39
559.116	12.46
559.313	12.58
559.511	12.69
559.708	12.75
559.906	12.84
560.104	12.9
560.301	13
560.498	13.1
560.696	13.25
560.893	13.37
561.091	13.51
561.288	13.62
561.486	13.71
561.683	13.82
561.88	13.93
562.078	13.97
562.275	14.04
562.473	14.11
562.67	14.2
562.867	14.32
563.064	14.45
563.262	14.56
563.459	14.65
563.656	14.78
563.853	14.92
564.051	15.07
564.248	15.16
564.445	15.22
564.642	15.27
564.839	15.37
565.036	15.49
565.234	15.55
565.431	15.6
565.628	15.7
565.825	15.8
566.022	15.92
566.219	15.97
566.416	16.02
566.613	16.13
566.81	16.22
567.007	16.25
567.204	16.31
567.401	16.4
567.598	16.46
567.795	16.54
567.991	16.61
568.188	16.67
568.385	16.82
568.582	16.93
568.779	16.98
568.976	17.14
569.172	17.22
569.369	17.27
569.566	17.31
569.763	17.34
569.96	17.38
570.156	17.41
570.353	17.38
570.55	17.43
570.746	17.43
570.943	17.56
571.14	17.58
571.336	17.61
571.533	17.69
571.729	17.79
571.926	17.8
572.123	17.89
572.319	17.89
572.516	17.97
572.712	18.02
572.909	18.08
573.105	18.1
573.302	18.16
573.498	18.16
573.695	18.16
573.891	18.17
574.087	18.18
574.284	18.15
574.48	18.11
574.677	18.15
574.873	18.24
575.069	18.27
575.266	18.28
575.462	18.3
575.658	18.38
575.854	18.41
576.051	18.38
576.247	18.33
576.443	18.35
576.639	18.36
576.835	18.38
577.032	18.39
577.228	18.39
577.424	18.44
577.62	18.5
577.816	18.49
578.012	18.54
578.208	18.54
578.404	18.55
578.6	18.6
578.796	18.58
578.993	18.58
579.189	18.62
579.384	18.57
579.58	18.6
579.776	18.52
579.972	18.49
580.168	18.46
580.364	18.44
580.56	18.42
580.756	18.4
580.952	18.36
581.148	18.41
581.343	18.41
581.539	18.42
581.735	18.45
581.931	18.44
582.127	18.4
582.322	18.38
582.518	18.32
582.714	18.25
582.909	18.2
583.105	18.13
583.301	18.07
583.496	18.07
583.692	18.05
583.888	18.05
584.083	18.09
584.279	18.08
584.474	18.04
584.67	18.04
584.866	18.07
585.061	18.08
585.257	18.12
585.452	18.07
585.648	18.09
585.843	18.11
586.039	18.13
586.234	18.07
586.429	17.98
586.625	17.91
586.82	17.87
587.015	17.83
587.211	17.81
587.406	17.81
587.601	17.84
587.797	17.87
587.992	17.88
588.187	17.93
588.383	17.96
588.578	17.94
588.773	17.93
588.968	17.97
589.163	18.04
589.359	18.04
589.554	18.08
589.749	18.07
589.944	18.14
590.139	18.13
590.334	18.1
590.529	18.12
590.724	18.13
590.919	18.21
591.114	18.2
591.309	18.22
591.504	18.25
591.699	18.31
591.894	18.3
592.089	18.34
592.284	18.3
592.479	18.32
592.674	18.33
592.869	18.4
593.064	18.44
593.259	18.43
593.454	18.44
593.648	18.5
593.843	18.65
594.038	18.69
594.233	18.74
594.428	18.83
594.622	18.92
594.817	19.05
595.012	19.13
595.206	19.12
595.401	19.17
595.596	19.26
595.79	19.3
595.985	19.41
596.18	19.5
596.374	19.55
596.569	19.67
596.763	19.77
596.958	19.78
597.153	19.87
597.347	19.9
597.542	19.92
597.736	19.98
597.931	20.05
598.125	20.12
598.319	20.17
598.514	20.18
598.708	20.26
598.903	20.35
599.097	20.38
599.291	20.4
599.486	20.48
599.68	20.54
599.874	20.62
600.069	20.68
600.263	20.71
600.457	20.8
600.651	20.88
600.846	20.87
601.04	20.93
601.234	20.99
601.428	21
601.622	21.07
601.817	21.12
602.011	21.17
602.205	21.24
602.399	21.25
602.593	21.23
602.787	21.28
602.981	21.22
603.175	21.17
603.369	21.14
603.563	21.13
603.757	21.14
603.951	21.14
604.145	21.12
604.339	21.15
604.533	21.15
604.727	21.13
604.921	21.09
605.115	21.04
605.309	21.04
605.502	21.03
605.696	20.99
605.89	20.99
606.084	20.96
606.278	20.97
606.471	20.94
606.665	20.92
606.859	20.88
607.053	20.81
607.246	20.72
607.44	20.67
607.634	20.59
607.827	20.52
608.021	20.37
608.214	20.3
608.408	20.22
608.602	20.21
608.795	20.13
608.989	20.04
609.182	20.05
609.376	19.98
609.569	19.95
609.763	19.96
609.956	19.83
610.15	19.79
610.343	19.76
610.537	19.67
610.73	19.68
610.923	19.55
611.117	19.4
611.31	19.37
611.504	19.27
611.697	19.19
611.89	19.12
612.083	19.01
612.277	18.91
612.47	18.87
612.663	18.8
612.856	18.72
613.05	18.64
613.243	18.57
613.436	18.45
613.629	18.44
613.822	18.31
614.015	18.22
614.209	18.16
614.402	18.05
614.595	17.93
614.788	17.89
614.981	17.75
615.174	17.76
615.367	17.68
615.56	17.53
615.753	17.5
615.946	17.44
616.139	17.41
616.332	17.35
616.525	17.31
616.718	17.25
616.911	17.28
617.103	17.21
617.296	17.15
617.489	17.11
617.682	17.08
617.875	16.96
618.067	16.9
618.26	16.79
618.453	16.68
618.646	16.68
618.838	16.62
619.031	16.59
619.224	16.6
619.417	16.6
619.609	16.62
619.802	16.62
619.994	16.54
620.187	16.51
620.38	16.46
620.572	16.42
620.765	16.35
620.957	16.27
621.15	16.25
621.342	16.28
621.535	16.27
621.727	16.22
621.92	16.18
622.112	16.18
622.305	16.15
622.497	16.13
622.69	16.09
622.882	16.06
623.074	16.04
623.267	15.99
623.459	15.97
623.651	15.99
623.844	15.98
624.036	15.95
624.228	15.93
624.42	15.92
624.613	15.96
624.805	15.96
624.997	15.89
625.189	15.87
625.381	15.85
625.574	15.78
625.766	15.75
625.958	15.71
626.15	15.66
626.342	15.68
626.534	15.58
626.726	15.56
626.918	15.52
627.11	15.48
627.302	15.45
627.494	15.41
627.686	15.34
627.878	15.35
628.07	15.28
628.262	15.24
628.454	15.22
628.646	15.13
628.838	15.09
629.029	15.02
629.221	14.96
629.413	14.92
629.605	14.93
629.797	14.91
629.989	14.96
630.18	14.93
630.372	14.98
630.564	15
630.755	15
630.947	14.9
631.139	14.79
631.33	14.72
631.522	14.67
631.714	14.63
631.905	14.56
632.097	14.54
632.289	14.54
632.48	14.54
632.672	14.46
632.863	14.45
633.055	14.42
633.246	14.44
633.438	14.41
633.629	14.45
633.821	14.48
634.012	14.53
634.203	14.55
634.395	14.54
634.586	14.49
634.777	14.45
634.969	14.43
635.16	14.39
635.351	14.35
635.543	14.31
635.734	14.3
635.925	14.33
636.117	14.33
636.308	14.23
636.499	14.19
636.69	14.23
636.881	14.28
637.073	14.24
637.264	14.19
637.455	14.22
637.646	14.25
637.837	14.24
638.028	14.23
638.219	14.17
638.41	14.14
638.601	14.11
638.792	14.01
638.983	13.97
639.174	14.03
639.365	13.97
639.556	13.94
639.747	13.99
639.938	13.98
640.129	14.04
640.32	14.03
640.511	13.99
640.701	13.94
640.892	13.94
641.083	13.87
641.274	13.86
641.465	13.82
641.655	13.83
641.846	13.77
642.037	13.76
642.228	13.7
642.418	13.66
642.609	13.6
642.8	13.53
642.99	13.47
643.181	13.46
643.372	13.45
643.562	13.43
643.753	13.43
643.943	13.41
644.134	13.43
644.324	13.46
644.515	13.43
644.705	13.42
644.896	13.39
645.086	13.33
645.277	13.39
645.467	13.37
645.658	13.32
645.848	13.29
646.038	13.25
646.229	13.24
646.419	13.3
646.61	13.24
646.8	13.21
646.99	13.19
647.18	13.15
647.371	13.13
647.561	13.11
647.751	13.03
647.941	13
648.132	13.04
648.322	13.04
648.512	13.07
648.702	13.03
648.892	13.09
649.082	13.06
649.272	13.02
649.462	12.98
649.653	12.93
649.843	12.9
650.033	12.87
650.223	12.76
650.413	12.81
650.603	12.8
650.793	12.73
650.983	12.71
651.172	12.66
651.362	12.64
651.552	12.64
651.742	12.53
651.932	12.49
652.122	12.52
652.312	12.35
652.502	12.29
652.691	12.31
652.881	12.24
653.071	12.14
653.261	12.05
653.45	11.94
653.64	11.99
653.83	11.96
654.019	11.76
654.209	11.67
654.399	11.63
654.588	11.51
654.778	11.4
654.968	11.25
655.157	11.07
655.347	10.93
655.536	10.75
655.726	10.64
655.915	10.51
656.105	10.43
656.294	10.32
656.484	10.22
656.673	10.16
656.863	10.08
657.052	9.87
657.241	9.76
657.431	9.56
657.62	9.35
657.809	9.19
657.999	9.03
658.188	8.88
658.377	8.83
658.567	8.65
658.756	8.48
658.945	8.42
659.134	8.29
659.324	8.1
659.513	7.93
659.702	7.73
659.891	7.57
660.08	7.46
660.269	7.35
660.458	7.17
660.648	7.06
660.837	6.99
661.026	6.87
661.215	6.8
661.404	6.66
661.593	6.49
661.782	6.41
661.971	6.33
662.16	6.2
662.349	6.04
662.538	5.93
662.726	5.77
662.915	5.66
663.104	5.51
663.293	5.34
663.482	5.22
663.671	5.14
663.86	5.02
664.048	4.96
664.237	4.91
664.426	4.88
664.615	4.81
664.803	4.69
664.992	4.65
665.181	4.59
665.369	4.5
665.558	4.44
665.747	4.41
665.935	4.42
666.124	4.45
666.312	4.39
666.501	4.34
666.69	4.35
666.878	4.28
667.067	4.22
667.255	4.14
667.444	4.08
667.632	4.06
667.82	4.04
668.009	4.03
668.197	4.04
668.386	3.99
668.574	3.97
668.762	3.95
668.951	3.93
669.139	3.95
669.327	3.95
669.516	3.93
669.704	3.95
669.892	3.99
670.08	4.01
670.269	4.04
670.457	3.98
670.645	3.95
670.833	3.95
671.021	3.91
671.21	3.93
671.398	3.92
671.586	3.94
671.774	4.01
671.962	4.03
672.15	4.01
672.338	4.14
672.526	4.09
672.714	4.15
672.902	4.19
673.09	4.23
673.278	4.23
673.466	4.36
673.654	4.33
673.842	4.43
674.03	4.49
674.218	4.5
674.405	4.53
674.593	4.62
674.781	4.6
674.969	4.68
675.157	4.7
675.344	4.73
675.532	4.78
675.72	4.82
675.908	4.87
676.095	4.99
676.283	5
676.471	5.09
676.658	5.14
676.846	5.2
677.033	5.29
677.221	5.36
677.409	5.38
677.596	5.48
677.784	5.55
677.971	5.62
678.159	5.76
678.346	5.79
678.534	5.87
678.721	6.01
678.909	6.05
679.096	6.08
679.283	6.17
679.471	6.2
679.658	6.29
679.846	6.36
680.033	6.4
680.22	6.46
680.408	6.55
680.595	6.6
680.782	6.68
680.969	6.71
681.157	6.8
681.344	6.88
681.531	6.98
681.718	7.11
681.905	7.3
682.093	7.48
682.28	7.72
682.467	7.77
682.654	7.88
682.841	8.06
683.028	8.19
683.215	8.24
683.402	8.27
683.589	8.35
683.776	8.58
683.963	8.71
684.15	8.89
684.337	9.13
684.524	9.31
684.711	9.5
684.898	9.68
685.085	9.89
685.271	10.16
685.458	10.41
685.645	10.58
685.832	10.93
686.019	11.21
686.205	11.51
686.392	11.82
686.579	11.98
686.766	12.24
686.952	12.59
687.139	12.79
687.326	13.12
687.512	13.47
687.699	13.74
687.886	14.19
688.072	14.58
688.259	14.95
688.445	15.4
688.632	15.83
688.818	16.23
689.005	16.82
689.191	17.34
689.378	17.77
689.564	18.13
689.751	18.64
689.937	19.21
690.124	19.72
690.31	20.12
690.496	20.58
690.683	21.26
690.869	21.85
691.055	22.51
691.242	22.99
691.428	23.58
691.614	24.23
691.8	24.78
691.987	25.38
692.173	26.14
692.359	26.78
692.545	27.53
692.731	28.21
692.918	28.89
693.104	29.54
693.29	30.23
693.476	30.89
693.662	31.57
693.848	32.2
694.034	32.85
694.22	33.43
694.406	34.26
694.592	34.89
694.778	35.44
694.964	36.13
695.15	36.88
695.336	37.67
695.522	38.37
695.708	39.06
695.894	39.77
696.08	40.58
696.265	41.17
696.451	41.81
696.637	42.4
696.823	43.12
697.009	43.79
697.194	44.39
697.38	44.86
697.566	45.42
697.751	46.03
697.937	46.65
698.123	47.25
698.308	47.68
698.494	48.31
698.68	49.07
698.865	49.89
699.051	50.45
699.236	50.99
699.422	51.47
699.607	52.08
699.793	52.61
699.978	52.89
700.164	53.29
700.349	53.89
700.535	54.32
700.72	54.83
700.906	55.41
701.091	55.76
701.276	56.35
701.462	56.67
701.647	56.97
701.832	57.55
702.018	58.18
702.203	58.44
702.388	58.78
702.573	59.3
702.759	59.7
702.944	60.26
703.129	60.6
703.314	60.97
703.499	61.63
703.684	62.19
703.87	62.56
704.055	63.02
704.24	63.32
704.425	63.77
704.61	63.91
704.795	64.26
704.98	64.58
705.165	64.87
705.35	65.22
705.535	65.66
705.72	65.84
705.905	66.23
706.09	66.38
706.275	66.62
706.459	67.09
706.644	67.46
706.829	67.58
707.014	67.91
707.199	68.15
707.384	68.38
707.568	68.83
707.753	69.03
707.938	69.17
708.123	69.28
708.307	69.66
708.492	69.83
708.677	70.19
708.861	70.16
709.046	70.11
709.231	70.27
709.415	70.64
709.6	70.62
709.784	70.91
709.969	71.09
710.153	71.66
710.338	72.07
710.522	72.25
710.707	72.22
710.891	72.54
711.076	72.61
711.26	72.72
711.445	72.59
711.629	72.68
711.813	72.69
711.998	72.96
712.182	73.03
712.366	73.31
712.551	73.27
712.735	73.42
712.919	73.82
713.103	74.12
713.288	74.48
713.472	74.69
713.656	74.74
713.84	74.96
714.024	75.1
714.208	74.96
714.393	75.07
714.577	75.01
714.761	75.27
714.945	75.36
715.129	75.53
715.313	75.74
715.497	75.99
715.681	76.39
715.865	76.37
716.049	76.38
716.233	76.73
716.417	76.95
716.601	77.15
716.785	77.23
716.968	77.16
717.152	77.41
717.336	77.35
717.52	77.25
717.704	77.56
717.888	77.59
718.071	77.61
718.255	77.76
718.439	77.6
718.622	77.88
718.806	77.88
718.99	77.81
719.174	77.75
719.357	77.73
719.541	77.55
719.724	78.01
719.908	78.02
720.092	78.36
720.275	78.35
720.459	78.5
720.642	78.5
720.826	78.72
721.009	78.64
721.193	78.55
721.376	78.43
721.559	78.39
721.743	78.55
721.926	78.52
722.11	78.57
722.293	78.47
722.476	78.4
722.66	78.58
722.843	78.81
723.026	78.67
723.21	78.74
723.393	78.98
723.576	79.16
723.759	79.56
723.942	79.65
724.126	79.78
724.309	79.75
724.492	80.19
724.675	80.08
724.858	80.48
725.041	80.62
725.224	80.77
725.407	80.64
725.59	80.8
725.774	80.65
725.957	80.78
726.14	80.75
726.322	80.38
726.505	80.51
726.688	80.44
726.871	80.68
727.054	81.21
727.237	81.06
727.42	81.1
727.603	81.61
727.786	81.68
727.968	81.92
728.151	82.04
728.334	81.91
728.517	82.61
728.699	83.02
728.882	83.53
729.065	83.41
729.248	83.58
729.43	83.38
729.613	83.47
729.796	82.87
729.978	82.47
730.161	81.91
730.343	82.27
730.526	82.19
730.708	82.73
730.891	82.54
731.073	82.83
731.256	82.96
731.438	83.26
731.621	83.21
731.803	83.67
731.986	83.32
732.168	83.45
732.35	83.81
732.533	83.74
732.715	83.67
732.898	83.47
733.08	83.67
733.262	83.82
733.444	84
733.627	83.97
733.809	84.41
733.991	84.78
734.173	84.65
734.355	84.52
734.538	84.45
734.72	84.61
734.902	84.66
735.084	84.46
735.266	84.38
735.448	84.43
735.63	84.29
735.812	84.81
735.994	84.52
736.176	84.7
736.358	84.81
736.54	84.73
736.722	85.05
736.904	85.36
737.086	85.07
737.268	85.35
737.45	85.49
737.632	85.1
737.814	85.17
737.995	85.56
738.177	85.28
738.359	85.63
738.541	85.68
738.723	85.41
738.904	85.53
739.086	85.3
739.268	85.36
739.449	85.84
739.631	85.98
739.813	85.92
739.994	86.59
740.176	86.85
740.358	87.21
740.539	86.85
740.721	86.51
740.902	86.23
741.084	86.29
741.265	85.72
741.447	85.32
741.628	85.04
741.81	85.4
741.991	85.84
742.172	86.22
742.354	86.64
742.535	86.88
742.717	87.36
742.898	87.45
743.079	87.25
743.261	87.36
743.442	87.28
743.623	86.97
743.804	86.51
743.986	86.64
744.167	86.47
744.348	86.6
744.529	85.81
744.71	85.05
744.891	84.98
745.073	84.86
745.254	84.78
745.435	84.56
745.616	84.06
745.797	83.66
745.978	84.47
746.159	84.38
746.34	85.06
746.521	85.13
746.702	85.29
746.883	85.51
747.064	85.93
747.245	85.37
747.426	85.99
747.606	85.07
747.787	85.2
747.968	85.9
748.149	86.11
748.33	86.84
748.51	86.75
748.691	86.83
748.872	87.5
749.053	86.85
749.233	86.06
749.414	86.42
749.595	85.67
749.775	85.75
749.956	84.63
750.137	84.09
750.317	85.13
750.498	85.48
750.678	84.8
750.859	85.29
751.04	85.28
751.22	85.02
751.4	85.67
751.581	84.78
751.761	85.78
751.942	86.11
752.122	85.86
752.303	86.18
752.483	87.93
752.663	87.75
752.844	87.27
753.024	86.98
753.204	86.59
753.385	86.47
753.565	85.97
753.745	84.62
753.925	84.3
754.106	84.5
754.286	83.94
754.466	83.97
754.646	84.15
754.826	84.43
755.006	84.23
755.187	84.67
755.367	85.45
755.547	85.67
755.727	85.81
755.907	86.26
756.087	86.62
756.267	87.22
756.447	87.14
756.627	86.51
756.807	86.86
756.987	87.26
757.167	86.94
757.346	86.32
757.526	86.65
757.706	86.52
757.886	87.02
758.066	86.34
758.246	85.73
758.425	85.55
758.605	85.14
758.785	84.56
758.965	83.62
759.144	83.54
759.324	84.2
759.504	84.67
759.683	84.23
759.863	84.86
760.043	84.47
760.222	84.55
760.402	84.35
760.581	83.26
760.761	82.55
760.94	82.26
761.12	81.72
761.299	81.49
761.479	82.02
761.658	81.64
761.838	81.98
762.017	81.97
762.197	83.37
762.376	83.39
762.555	83.81
762.735	83.28
762.914	83.93
763.093	83.41
763.273	83.76
763.452	82.49
763.631	82.52
763.81	83.56
763.99	83.94
764.169	82.59
764.348	83.79
764.527	83.63
764.706	84.57
764.885	84.74
765.064	83.82
765.243	83.49
765.423	84.48
765.602	83.44
765.781	83.19
765.96	82.45
766.139	82.75
766.318	83.34
766.497	83.48
766.676	84.8
766.854	84.18
767.033	84.09
767.212	83.9
767.391	83.29
767.57	83.14
767.749	83.6
767.928	81.23
768.106	82.23
768.285	82.13
768.464	82.49
768.643	83.55
768.821	83.31
769	83.37
769.179	83.21
769.357	81.73
769.536	81.63
769.715	81.88
769.893	80.82
770.072	80.35
770.25	79.62
770.429	80.27
770.607	82.1
770.786	82.77
770.964	81.42
771.143	82.17
771.321	81.42
771.5	80.84
771.678	81.3
771.857	80.22
772.035	78.98
772.213	79.68
772.392	78.82
772.57	79.2
772.748	80.16
772.927	79.82
773.105	80.53
773.283	81.32
773.461	80.67
773.64	80.48
773.818	80.5
773.996	79.22
774.174	80.05
774.352	79.81
774.531	78.98
774.709	79.54
774.887	79.58
775.065	79.09
775.243	80.04
775.421	78.99
775.599	77.85
775.777	78.13
775.955	76.88
776.133	76.87
776.311	77.54
776.489	77.18
776.667	77.81
776.844	78.63
777.022	78.54
777.2	79
777.378	79.03
777.556	79.47
777.734	78.87
777.911	77.92
778.089	77.11
778.267	76.06
778.445	75.35
778.622	75.48
778.8	74.27
778.978	75.5
779.155	74.96
779.333	73.81
779.511	75.6
779.688	75.78
779.866	75.23
780.043	75.71
780.221	75.12
780.398	75.44
780.576	76.16
780.753	75.2
780.931	77.84
781.108	78.2
781.286	78.09
781.463	77.63
781.64	78.5
781.818	79.79
781.995	79.95
782.172	78.48
782.35	78.41
782.527	79.56
782.704	79.78
782.882	80.92
783.059	80.05
783.236	79.9
783.413	79.34
783.59	78.2
783.768	75.44
783.945	76.08
784.122	74.29
784.299	75.17
784.476	74.94
784.653	74.12
784.83	74.14
785.007	75.79
785.184	76.14
785.361	74.38
785.538	73.38
785.715	72.35
785.892	72.57
786.069	72.76
786.246	71.7
786.423	71.25
786.6	72.41
786.776	71.4
786.953	72.1
787.13	73.09
787.307	74.25
787.484	74.83
787.66	73.67
787.837	76.91
788.014	78.34
788.191	78.93
788.367	78.28
788.544	78.07
788.721	78.59
788.897	80.93
789.074	78.53
789.25	80.23
789.427	79.4
789.603	80.73
789.78	81.98
789.956	80.4
790.133	76.27
790.309	74.17
790.486	74.01
790.662	75
790.839	74.82
791.015	74.43
791.192	73.88
791.368	77.79
791.544	79.46
791.721	76.31
791.897	76.41
792.073	74.96
792.249	76.05
792.426	77.54
792.602	75.08
792.778	73.37
792.954	74.11
793.13	74.98
793.307	72.83
793.483	69.49
793.659	70.58
793.835	71.41
794.011	71.26
794.187	69.87
794.363	67.15
794.539	69.04
794.715	69.5
794.891	66.01
795.067	66.78
795.243	67.62
795.419	67.57
795.595	67.38
795.771	68.11
795.947	66.91
796.122	67.25
796.298	63.56
796.474	65.55
796.65	66.6
796.826	71.8
797.001	70.87
797.177	71.71
797.353	74.37
797.529	78.14
797.704	77.1
797.88	78.8
798.056	73.68
798.231	72.83
798.407	73.87
798.582	73.61
798.758	74.48
798.934	73.68
799.109	70.12
799.285	72.58
799.46	73.86
799.636	74.18
799.811	71.57
799.986	70.66
800.162	71.1
800.337	71.49
800.513	68.05
800.688	71.8
800.863	71.55
801.039	73.06
801.214	70.48
801.389	70.7
801.565	74.77
801.74	71.92
801.915	66.12
802.09	63.96
802.265	61.75
802.441	63.34
802.616	62.29
802.791	62.03
802.966	64.83
803.141	61.13
803.316	65.05
803.491	64.45
803.666	65.46
803.841	63.24
804.016	62.45
804.191	63.28
804.366	66.89
804.541	64.38
804.716	64.11
804.891	64.41
805.066	63.85
805.241	59.77
805.416	60.09
805.591	65.05
805.765	66.41
805.94	70.43
806.115	63.33
806.29	66.37
806.464	64.9
806.639	65.23
806.814	58.77
806.989	56.21
807.163	50.92
807.338	54.43
807.512	50.27
807.687	52.18
807.862	50.17
808.036	52.67
808.211	55.49
808.385	58.09
808.56	56
808.734	55.55
808.909	55.69
809.083	57.4
809.258	61.42
809.432	54.53
809.606	56.5
809.781	57.76
809.955	60.66
810.13	66.71
810.304	62.11
810.478	61.38
810.652	65.32
810.827	64.79
811.001	66.37
811.175	63.27
811.349	59.28
811.524	62.15
811.698	62.2
811.872	64.5
812.046	63.2
812.22	63.48
812.394	67.25
812.568	67.05
812.742	65.76
812.916	60.86
813.09	54.3
813.264	51.52
813.438	54.47
813.612	50.41
813.786	52.29
813.96	57.93
814.134	60.01
814.308	64.14
814.482	65.19
814.656	64.42
814.83	70.5
815.003	71.73
815.177	70.1
815.351	66.63
815.525	65.56
815.698	67.05
815.872	66.11
816.046	60.51
816.219	58.27
816.393	51.4
816.567	51.5
816.74	54.85
816.914	57.33
817.088	51.12
817.261	50.21
817.435	50.97
817.608	56.07
817.782	56.09
817.955	49.92
818.129	46.96
818.302	57.19
818.475	62.1
818.649	56.64
818.822	55.99
818.996	62.68
819.169	60.95
819.342	59.21
819.516	53.67
819.689	49.75
819.862	51.11
820.035	47.08
820.209	42.86
820.382	45.19
820.555	46.84
820.728	37.63
820.901	40.95
821.075	46.04
821.248	45.72
821.421	43.35
821.594	46.09
821.767	47.91
821.94	52.15
822.113	54.49
822.286	53.24
822.459	65.74
822.632	64.93
822.805	60.49
822.978	54.86
823.151	53.81
823.324	43.02
823.496	33.88
823.669	29.7
823.842	35.26
824.015	35.18
824.188	36.8
824.361	37.87
824.533	45.27
824.706	65.1
824.879	62.05
825.051	69.37
825.224	65.91
825.397	61.22
825.569	66.14
825.742	64.25
825.915	56.99
826.087	46.17
826.26	37.41
826.432	48.49
826.605	51.87
826.777	49.36
826.95	48.72
827.122	55.26
827.295	70.02
827.467	66.75
827.64	49.03
827.812	51.11
827.984	54.92
828.157	59.16
828.329	51.31
828.501	40.35
828.674	44.09
828.846	57.84
829.018	50.36
829.19	44.81
829.363	49.89
829.535	50.32
829.707	50.12
829.879	46.79
830.051	42.41
830.223	38.87
830.395	37.55
830.568	28.64
830.74	37.24
830.912	39.07
831.084	39.91
831.256	34.32
831.428	35.53
831.6	30.62
831.772	34.83
831.943	32.16
832.115	41.03
832.287	33.74
832.459	36.36
832.631	46.6
832.803	61.17
832.975	50.2
833.146	50.28
833.318	51.19
833.49	66.42
833.662	66.89
833.833	66.99
834.005	60.78
834.177	67.96
834.348	61.6
834.52	53.78
834.692	54.47
834.863	47.79
835.035	47.5
835.206	39.35
835.378	26.06
835.549	26.12
835.721	25.51
835.892	25.29
836.064	29.33
836.235	32.66
836.407	32.53
836.578	48.27
836.749	44.46
836.921	46.52
837.092	45.86
837.264	38
837.435	24.28
837.606	20.8
837.777	5.42
837.949	9.68
838.12	2.2
838.291	8.09
838.462	13.66
838.633	15.86
838.805	26.55
838.976	27.26
839.147	28.3
839.318	32.52
839.489	23.89
839.66	38.61
839.831	35.14
840.002	32.88
840.173	34.36
840.344	51.77
840.515	45.25
840.686	47.5
840.857	22.48
841.028	30.56
841.199	27.83
841.369	26.06
841.54	22.37
841.711	43.61
841.882	29.72
842.053	38.48
842.223	30.44
842.394	28.29
842.565	35.97
842.736	24.01
842.906	0.3
843.077	24.52
843.248	32.69
843.418	33.45
843.589	39.5
843.759	36.75
843.93	42.2
844.101	44.65
844.271	37.71
844.442	31.79
844.612	16.2
844.783	2.98
844.953	4.99
845.123	2.27
845.294	-9.12
845.464	17.32
845.635	15.93
845.805	44.64
845.975	48.89
846.146	49.62
846.316	58.47
846.486	69.05
846.656	60.56
846.827	63.68
846.997	60.27
847.167	62.3
847.337	68.59
847.507	67.88
847.677	59.19
847.848	52.18
848.018	46.4
848.188	35.11
848.358	36.14
848.528	28.91
848.698	9.85
848.868	-4.86
849.038	-4.54
849.208	3.2
849.378	0.29
849.548	-11.65
849.718	-26.48
849.887	-34.37
850.057	-6.26
850.227	-5.44
850.397	-0.22
850.567	5.34
850.737	14.78
850.906	21.06
851.076	33.64
851.246	32.74
851.415	38.24
851.585	29.91
851.755	25.13
851.924	38.24
852.094	44.06
852.264	36.66
852.433	44.71
852.603	44.05
852.772	37.95
852.942	39.72
853.111	29.98
853.281	24.36
853.45	34.46
853.62	20.08
853.789	23.89
853.959	30.24
854.128	26.15
854.297	19.67
854.467	36.22
854.636	37.49
854.805	44.57
854.975	35.59
855.144	34.45
855.313	39.31
855.482	42.78
855.652	32.54
855.821	28.76
855.99	31.85
856.159	27.99
856.328	28.9
856.497	28.75
856.667	45.06
856.836	31.9
857.005	25.47
857.174	29.92
857.343	23.77
857.512	13.69
857.681	1.4
857.85	-30.82
858.019	-11.7
858.188	-19.98
858.356	-52.08
858.525	-26.6
858.694	-13.28
858.863	0.72
859.032	-3.78
859.201	-30.32
859.369	-9.74
859.538	-21.48
859.707	-11.55
859.876	-7.4
860.044	-3.49
860.213	10.12
860.382	14.24
860.55	14.62
860.719	40.84
860.888	36.89
861.056	48.45
861.225	29.6
861.393	28.77
861.562	33.48
861.73	32.43
861.899	19.58
862.067	18.52
862.236	6.78
862.404	11.9
862.572	3.82
862.741	7.92
862.909	2.82
863.078	-3.01
863.246	0.44
863.414	16.4
863.582	5.86
863.751	-2.83
863.919	12.61
864.087	18.89
864.255	22.6
864.424	20.9
864.592	9.52
864.76	29.7
864.928	48.5
865.096	39.35
865.264	29.05
865.432	23.97
865.6	11.11
865.768	4.77
865.936	-13.06
866.104	-61.12
866.272	-72.66
866.44	-123.44
866.608	-120.49
866.776	-68.87
866.944	-91.49
867.112	-100.26
867.28	-84.6
867.448	-47.59
867.615	-7.56
867.783	-22.16
867.951	0.31
868.119	26.95
868.286	39.64
868.454	26.01
868.622	8.83
868.789	37.3
868.957	61.4
869.125	34.22
869.292	42.99
869.46	27.92
869.627	34.2
869.795	41.38
869.963	22.21
870.13	20.95
870.298	19.75
870.465	-29.27
870.632	-11.78
870.8	-18.04
870.967	-5.88
871.135	-5.3
871.302	4.74
871.469	2.16
871.637	11.55
871.804	19.58
871.971	23.29
872.139	21.25
872.306	8.22
872.473	-26.73
872.64	-38.41
872.807	-54.13
872.975	-84.34
873.142	-109.89
873.309	-170.74
873.476	-156.16
873.643	-84.76
873.81	-35.76
873.977	-17.12
874.144	-7.01
874.311	-101.94
874.478	-83.05
874.645	-103.56
874.812	-64.79
874.979	-94.03
875.146	-172.78
875.313	-230.73
875.48	-70.15
875.647	-87
875.813	-117.37
875.98	-126.98
876.147	-41.17
876.314	-27.08
876.481	-17.8
876.647	-15.26
876.814	2.15
876.981	3.48
877.147	5.27
877.314	-3.92
877.481	11.2
877.647	15.72
877.814	12.98
877.98	0.69
878.147	14.08
878.314	15.9
878.48	11.25
878.647	26.6
878.813	32.7
878.979	30.3
879.146	24.68
879.312	23.99
879.479	29.95
879.645	15.27
879.811	-9.65
879.978	-37.83
880.144	-53.09
880.31	-119.61
880.477	-151.71
880.643	-382.04
880.809	-133.15
880.975	-97.69
881.142	-36.74
881.308	-32.34
881.474	55.98
881.64	66.19
881.806	30.81
881.972	52.22
882.138	27.21
882.304	-23.59
882.47	-19.58
882.636	-64.81
882.802	-74.14
882.968	-168.34
883.134	-491.26
883.3	-163.78
883.466	-58.21
883.632	-72.23
883.798	-66.27
883.964	-82.28
884.129	-49.78
884.295	-22.07
884.461	-88.05
884.627	-144
884.793	-55.73
884.958	-29.98
885.124	-59.03
885.29	-21.88
885.455	-27.94
885.621	-6.43
885.787	-8.91
885.952	-38.73
886.118	-45.88
886.283	-10.6
886.449	-39.59
886.614	-24.57
886.78	2.63
886.945	-8.03
887.111	10.45
887.276	7.24
887.442	9.43
887.607	3.43
887.773	-20.94
887.938	-46.06
888.103	-15
888.269	-25.72
888.434	-45.67
888.599	-37.95
888.764	-26.48
888.93	-6.45
889.095	-26.26
889.26	-17.97
889.425	9.24
889.59	13.32
889.756	-5.75
889.921	-8.27
890.086	-15.56
890.251	-32.11
890.416	-130.62
890.581	-142.44
890.746	-131.39
890.911	-205.07
891.076	-285.25
891.241	-361.07
891.406	-135.61
891.571	-81.09
891.736	-72.62
891.901	-45.84
892.065	-2.81
892.23	-20.33
892.395	-17.42
892.56	-28.33
892.725	-31.45
892.889	-43.96
893.054	-143.82
893.219	-238.06
893.384	-349.1
893.548	-873.33
893.713	1521.29
893.878	734.24
