Data from Ofra_1a_PS_6CX18_Reflection_1.txt Node
Date: Tue Jul 20 10:58:48 EDT 2021
User: Adam
Spectrometer: FLMT01687
Trigger mode: 0
Integration Time (sec): 1.004000E0
Scans to average: 2
Electric dark correction enabled: true
Nonlinearity correction enabled: false
Boxcar width: 2
XAxis mode: Wavelengths
Number of Pixels in Spectrum: 3648
>>>>>Begin Spectral Data<<<<<
179.494	-248.73
179.716	-406.11
179.937	795.32
180.158	-1239.49
180.38	129.61
180.601	47.08
180.823	-48.25
181.044	-10.43
181.265	-202.86
181.486	72.56
181.708	-3.2
181.929	9509.09
182.15	6.49
182.372	30.54
182.593	114.21
182.814	15.96
183.035	44.02
183.257	41.02
183.478	11.92
183.699	-5.34
183.92	-45.25
184.141	-59.76
184.363	-39.14
184.584	-56.39
184.805	-4.9
185.026	41.75
185.247	38.19
185.468	14.01
185.689	19.12
185.91	-3.74
186.132	-23.42
186.353	-17.48
186.574	-4.88
186.795	8.75
187.016	33.29
187.237	47.12
187.458	59.88
187.679	56.58
187.9	46.47
188.121	39.39
188.342	42.96
188.563	67.61
188.784	48.25
189.005	37.27
189.226	36.89
189.447	22.02
189.667	-4.59
189.888	-11.66
190.109	-30.43
190.33	-20.04
190.551	-11.56
190.772	8.25
190.993	4.9
191.214	8.48
191.434	-25.07
191.655	-30.03
191.876	13.6
192.097	48.65
192.318	57.58
192.538	48.51
192.759	29.96
192.98	18.35
193.201	1.53
193.421	-10.48
193.642	3.19
193.863	14.09
194.083	-18.55
194.304	2.93
194.525	-16.49
194.745	-22.31
194.966	-21.81
195.187	-10.6
195.407	-24.72
195.628	0.69
195.848	-4.03
196.069	-23.75
196.29	-15.8
196.51	-18.97
196.731	-19.2
196.951	-0.05
197.172	9.32
197.392	-15.25
197.613	1.06
197.833	-4.64
198.054	-18.26
198.274	-18.77
198.495	4.54
198.715	11.54
198.936	28.78
199.156	21.8
199.377	26.5
199.597	32.96
199.817	19.46
200.038	-7.47
200.258	16.37
200.479	14.91
200.699	9.24
200.919	8.52
201.14	-2.83
201.36	-9.62
201.58	-3.91
201.801	-27.94
202.021	-35.62
202.241	-10.59
202.461	-22.88
202.682	-33.97
202.902	-2.13
203.122	4.02
203.342	-3.03
203.563	5.03
203.783	14.09
204.003	2.52
204.223	9.97
204.443	25.55
204.663	10.79
204.884	11.57
205.104	9.09
205.324	38.42
205.544	31.34
205.764	78.01
205.984	61.38
206.204	71.21
206.424	25.16
206.644	-4.82
206.864	-54.62
207.084	-18.31
207.304	-50.7
207.525	-28.08
207.745	2.41
207.964	18.94
208.184	21.82
208.404	16.85
208.624	25.33
208.844	7.43
209.064	-12.9
209.284	-9.31
209.504	-11.3
209.724	-19.27
209.944	-21.27
210.164	-8.84
210.384	-15.47
210.604	-43.41
210.823	-31.84
211.043	-10.58
211.263	-96.02
211.483	-77.81
211.703	-40.19
211.922	-88.7
212.142	-64.89
212.362	-22.34
212.582	-12.96
212.801	-28.4
213.021	-18.91
213.241	-37.37
213.461	-26.9
213.68	-10.13
213.9	-1.72
214.12	-2.41
214.339	5.2
214.559	0.58
214.779	-10.93
214.998	7.46
215.218	25.55
215.438	25.15
215.657	32.72
215.877	14.98
216.096	27.7
216.316	22.38
216.535	15.29
216.755	14.33
216.974	21.39
217.194	-24.5
217.413	-20.64
217.633	-28.07
217.852	-19.77
218.072	-11.68
218.291	4.46
218.511	-3.88
218.73	9.36
218.95	-4.33
219.169	-7.51
219.389	-12.04
219.608	-5.8
219.827	-6.31
220.047	5.63
220.266	3.94
220.485	-24.28
220.705	-9.06
220.924	-24.16
221.143	-3.18
221.363	9.15
221.582	28.72
221.801	28.22
222.021	35.81
222.24	30.62
222.459	41.83
222.678	45.48
222.897	39.73
223.117	44.38
223.336	51.78
223.555	59.81
223.774	76.69
223.993	71.16
224.213	62.72
224.432	50.42
224.651	31.71
224.87	22.29
225.089	36.23
225.308	36.43
225.527	17.15
225.746	9.42
225.965	18.57
226.184	-5.73
226.404	-17
226.623	1.79
226.842	9.42
227.061	-3.02
227.28	16.14
227.499	28.76
227.718	39.67
227.936	37.81
228.155	38.49
228.374	34.41
228.593	36.73
228.812	24.61
229.031	26.96
229.25	18.77
229.469	35.07
229.688	23.49
229.907	35.39
230.125	35.19
230.344	38.37
230.563	25.62
230.782	17.35
231.001	-3.5
231.22	-5.52
231.438	4.41
231.657	1.47
231.876	2.31
232.095	18.34
232.313	6.05
232.532	-0.54
232.751	9.97
232.969	17.9
233.188	2.29
233.407	13.54
233.625	9.95
233.844	-7.09
234.063	-5.07
234.281	-1.25
234.5	8.13
234.719	-1.58
234.937	-6.45
235.156	-0.25
235.374	-8.74
235.593	-15.35
235.811	3.8
236.03	16.95
236.249	18.07
236.467	21.4
236.686	12.2
236.904	12.07
237.123	2.7
237.341	-3.79
237.559	-9.83
237.778	13.73
237.996	-8.79
238.215	-34.39
238.433	-54.77
238.652	-1.96
238.87	-20.04
239.088	-7.26
239.307	15.72
239.525	5.55
239.743	-17.95
239.962	-28.51
240.18	-11.99
240.398	-13.73
240.617	-3.55
240.835	14.89
241.053	24.65
241.271	21.57
241.49	27.57
241.708	17.75
241.926	21.42
242.144	29.83
242.363	23.78
242.581	20.47
242.799	57.42
243.017	14.28
243.235	9.3
243.453	10.9
243.672	9.98
243.89	0.16
244.108	25.8
244.326	42.96
244.544	41.93
244.762	28.58
244.98	39.71
245.198	32.8
245.416	19.88
245.634	17.74
245.852	13.85
246.07	14.64
246.288	17.08
246.506	2.69
246.724	0.15
246.942	5.48
247.16	-2.08
247.378	-21.17
247.596	-7.72
247.814	-13.22
248.032	10.75
248.25	41.64
248.468	37.87
248.685	36.02
248.903	39.19
249.121	28.73
249.339	22.09
249.557	24.8
249.775	24.4
249.992	15.99
250.21	29.31
250.428	26.76
250.646	26.21
250.863	10.23
251.081	17.9
251.299	21.1
251.517	30.36
251.734	31.9
251.952	35.23
252.17	30.14
252.387	4.74
252.605	-24.07
252.823	-48.73
253.04	-3.14
253.258	14.85
253.475	26.52
253.693	18.57
253.911	16.28
254.128	-4.85
254.346	-6.26
254.563	12.98
254.781	19.37
254.998	14.08
255.216	-4.73
255.433	-22.75
255.651	-9.06
255.868	6.24
256.086	14.39
256.303	26.05
256.521	37.61
256.738	27.24
256.956	31.32
257.173	29.97
257.39	23.73
257.608	10.29
257.825	6.99
258.043	8.56
258.26	9.85
258.477	14.32
258.695	13.9
258.912	2.99
259.129	0.17
259.346	-18.71
259.564	-11.16
259.781	-4.07
259.998	14.25
260.216	15.04
260.433	11.12
260.65	17.78
260.867	23.71
261.084	17.82
261.302	7.38
261.519	26.86
261.736	-0.44
261.953	-9.15
262.17	-1.7
262.387	7.46
262.604	5.38
262.822	20
263.039	21
263.256	19.98
263.473	16.44
263.69	11.21
263.907	10.14
264.124	33.6
264.341	36.54
264.558	26.42
264.775	34.19
264.992	43.73
265.209	23.67
265.426	8.77
265.643	35.93
265.86	49.93
266.077	21.68
266.294	9.98
266.51	35.65
266.727	20.59
266.944	10.66
267.161	14.74
267.378	26.69
267.595	3.64
267.812	-6.87
268.028	0.38
268.245	-11.07
268.462	-20.66
268.679	2.34
268.896	21.84
269.112	22.38
269.329	16.97
269.546	43.26
269.763	22.19
269.979	11.43
270.196	13.45
270.413	13.21
270.629	-23.03
270.846	-15.95
271.063	-18.31
271.279	-35.47
271.496	-41.34
271.712	-13.63
271.929	-0.68
272.146	9.51
272.362	43.28
272.579	43.98
272.795	53.34
273.012	40.4
273.228	44.38
273.445	30.8
273.661	22.96
273.878	8.75
274.094	16.94
274.311	11.19
274.527	-7.77
274.744	12.86
274.96	16.08
275.177	17.61
275.393	21.43
275.609	26.99
275.826	23.77
276.042	28.13
276.259	32.55
276.475	20.54
276.691	19.66
276.908	7.26
277.124	7.73
277.34	-10.75
277.557	-1.05
277.773	0.94
277.989	11.39
278.205	12.47
278.422	8.29
278.638	4.14
278.854	-7.46
279.07	-2.31
279.286	-5.72
279.503	3.45
279.719	18.12
279.935	32.1
280.151	27.58
280.367	35.76
280.583	35.63
280.799	14.52
281.016	-14.29
281.232	-9.05
281.448	-18.44
281.664	-5.5
281.88	11.7
282.096	27.17
282.312	25.66
282.528	22.73
282.744	27.02
282.96	4.99
283.176	-13.66
283.392	-48.17
283.608	-13.71
283.824	-27.66
284.04	-33.26
284.256	-5.61
284.471	3.52
284.687	-6.03
284.903	0.4
285.119	23.42
285.335	25.27
285.551	34.19
285.767	33.67
285.982	28.39
286.198	-11.03
286.414	-18.08
286.63	-5.12
286.846	-4.8
287.061	-11.86
287.277	-0.04
287.493	-7.94
287.709	-20.14
287.924	-15.18
288.14	0.32
288.356	10.26
288.571	20.48
288.787	9.72
289.003	22.94
289.218	4.83
289.434	5.2
289.65	9.25
289.865	13.18
290.081	2.72
290.296	16.26
290.512	18.36
290.727	-1.48
290.943	-1.09
291.159	3.63
291.374	-17.67
291.59	-21.34
291.805	-22.23
292.021	-15.46
292.236	-20.21
292.451	-6.68
292.667	-19.74
292.882	-5.54
293.098	-0.03
293.313	-7.64
293.529	-2.07
293.744	3.54
293.959	4.14
294.175	-5.04
294.39	6.14
294.605	0.9
294.821	-6.76
295.036	-8.12
295.251	-1.49
295.467	-11.33
295.682	2.05
295.897	6.95
296.112	7.42
296.328	17.11
296.543	11.94
296.758	-0.21
296.973	13.59
297.188	20.89
297.404	-2.61
297.619	6.7
297.834	-21.5
298.049	-30.05
298.264	-41.83
298.479	-27.29
298.694	13.43
298.909	27.08
299.125	28.96
299.34	43.62
299.555	35.2
299.77	29.6
299.985	22.5
300.2	20.8
300.415	21.9
300.63	25.3
300.845	14.56
301.06	9.64
301.275	10.14
301.49	5.4
301.704	2.48
301.919	-4.46
302.134	10.71
302.349	5.2
302.564	-0.67
302.779	-6.39
302.994	16.72
303.209	8.22
303.423	13.55
303.638	32.98
303.853	36.34
304.068	6.1
304.283	11.37
304.497	17.91
304.712	5.71
304.927	0.81
305.142	11.99
305.356	18.03
305.571	9.01
305.786	-0.78
306	3.78
306.215	-4.33
306.43	-15.69
306.644	-14.39
306.859	-22.95
307.074	7.15
307.288	18.13
307.503	28.34
307.717	24.21
307.932	27.22
308.147	15.84
308.361	16.24
308.576	1.51
308.79	5.81
309.005	-0.64
309.219	7.62
309.434	6.62
309.648	18.7
309.863	21.61
310.077	27.7
310.292	14.91
310.506	-4.41
310.72	-6.34
310.935	11.83
311.149	9.25
311.364	20.77
311.578	42.19
311.792	40.96
312.007	21.69
312.221	22
312.435	20.39
312.649	11.08
312.864	-9.72
313.078	-3.19
313.292	-0.02
313.507	-2.34
313.721	-8.47
313.935	28.35
314.149	14.67
314.363	12
314.578	9.01
314.792	3.1
315.006	-38.09
315.22	-8.96
315.434	-0.2
315.648	-3.09
315.862	8.28
316.077	20.5
316.291	14.05
316.505	1.28
316.719	22.53
316.933	21.57
317.147	14.18
317.361	13.92
317.575	14.12
317.789	18.54
318.003	18.38
318.217	33.75
318.431	36.41
318.645	42.8
318.859	24.97
319.073	27.76
319.287	9.5
319.5	8.4
319.714	-2.14
319.928	-2.58
320.142	-7.97
320.356	10.86
320.57	4.34
320.784	6.47
320.997	6.71
321.211	9.04
321.425	-23.97
321.639	5.63
321.853	20.24
322.066	20.52
322.28	6.95
322.494	28.84
322.707	23.38
322.921	0.59
323.135	-7.03
323.349	1.82
323.562	-9.61
323.776	-13.73
323.989	13.53
324.203	10.6
324.417	17.2
324.63	19.58
324.844	1.57
325.057	-36.8
325.271	-25.68
325.485	-29.79
325.698	-9.91
325.912	12
326.125	16.51
326.339	14.45
326.552	10.71
326.766	-6.58
326.979	-5.19
327.193	-4.77
327.406	-12.51
327.619	-7.77
327.833	-10.6
328.046	3.61
328.26	1.95
328.473	-3.97
328.686	-3.74
328.9	11.73
329.113	-1.53
329.326	11.81
329.54	41.35
329.753	46.68
329.966	43.04
330.179	39.01
330.393	37.52
330.606	30.74
330.819	20.87
331.032	23.67
331.246	27.45
331.459	46.12
331.672	43.23
331.885	35.53
332.098	40.9
332.311	27.82
332.525	8.29
332.738	7
332.951	3.98
333.164	10.23
333.377	8.52
333.59	8.13
333.803	7.09
334.016	7.12
334.229	-3.76
334.442	3.87
334.655	2.69
334.868	-4.49
335.081	-1.19
335.294	-10.06
335.507	-12.59
335.72	-12.32
335.933	0.13
336.146	-1.63
336.359	12.85
336.572	8.16
336.785	11.36
336.997	7.4
337.21	8.91
337.423	-16.62
337.636	12.63
337.849	8.01
338.062	3.38
338.274	17.62
338.487	18.25
338.7	1.59
338.913	9.77
339.125	10.1
339.338	-15.07
339.551	1.94
339.763	2.5
339.976	-8.3
340.189	-6.46
340.402	22.01
340.614	10.81
340.827	5.06
341.039	12.81
341.252	13.5
341.465	-9.3
341.677	-11.91
341.89	-16.77
342.102	-12.06
342.315	-14.82
342.527	-5.72
342.74	-25.52
342.952	-6.62
343.165	-18.64
343.377	-14.31
343.59	-9.51
343.802	17.78
344.015	18.29
344.227	24.25
344.44	19.09
344.652	15.55
344.864	9.19
345.077	5.77
345.289	8.65
345.502	28.18
345.714	22.38
345.926	19.47
346.139	17.3
346.351	9.76
346.563	21.79
346.775	54.35
346.988	56.65
347.2	45.93
347.412	48.2
347.624	17.15
347.837	2.84
348.049	-2.02
348.261	-6.82
348.473	-18.61
348.685	-20.68
348.897	-23.76
349.11	-7.67
349.322	-4.74
349.534	-12.51
349.746	-4.21
349.958	-23.57
350.17	-35.12
350.382	-30.49
350.594	6.42
350.806	13.94
351.018	30.14
351.23	26.81
351.442	36.85
351.654	28.38
351.866	12.56
352.078	20.25
352.29	22.76
352.502	16.3
352.714	24.06
352.926	37.1
353.138	35.57
353.35	16.43
353.561	12.9
353.773	5.5
353.985	7.49
354.197	-0.81
354.409	9.14
354.621	-1.33
354.832	-0.18
355.044	-13.1
355.256	-15.26
355.468	-17.11
355.679	8.28
355.891	4.78
356.103	12.78
356.314	15.45
356.526	-1.04
356.738	-5.03
356.949	-14.06
357.161	-5.56
357.373	-3.48
357.584	11.79
357.796	9.65
358.008	12
358.219	4.69
358.431	3.09
358.642	11.54
358.854	9.96
359.065	10.27
359.277	5.44
359.488	4.71
359.7	-11.35
359.911	-28.57
360.123	-3.22
360.334	-5.33
360.546	-12.17
360.757	-10.15
360.969	0.66
361.18	-26.58
361.391	-10.56
361.603	-0.33
361.814	13.08
362.025	13.55
362.237	24.22
362.448	31.59
362.659	18.9
362.871	1.12
363.082	8.74
363.293	11.7
363.504	-24.36
363.716	-6.94
363.927	10.06
364.138	-8.66
364.349	-28.78
364.56	-29.29
364.772	-16.96
364.983	-11.75
365.194	0.27
365.405	9.77
365.616	22.64
365.827	11.96
366.038	13.5
366.25	28.47
366.461	31.71
366.672	23.42
366.883	25.26
367.094	13.03
367.305	-15.89
367.516	-18.48
367.727	-29.23
367.938	-31.44
368.149	-30.94
368.36	-24.54
368.571	-40.02
368.781	-25.03
368.992	-16.09
369.203	-12.18
369.414	-8.49
369.625	-7.37
369.836	15.3
370.047	17.72
370.258	21.1
370.468	14.34
370.679	15.02
370.89	-1.85
371.101	8.37
371.312	7.73
371.522	6.8
371.733	4.02
371.944	-5.23
372.155	-7.15
372.365	6.16
372.576	7.63
372.787	25.04
372.997	22.98
373.208	19.46
373.419	12.85
373.629	6.3
373.84	-9.7
374.05	-8.89
374.261	-16.48
374.472	-11.44
374.682	6.19
374.893	-3.65
375.103	11.35
375.314	10.57
375.524	9.74
375.735	4.82
375.945	23.08
376.156	17.8
376.366	22.39
376.577	15.91
376.787	19.4
376.997	15.51
377.208	17.17
377.418	10.68
377.629	14.51
377.839	5.34
378.049	4.32
378.26	-11.91
378.47	-18.29
378.68	-21.6
378.89	-12.06
379.101	-19.07
379.311	-6.84
379.521	-9.69
379.732	-10.6
379.942	-14.14
380.152	-17.81
380.362	-19.31
380.572	5.2
380.783	11.56
380.993	22.92
381.203	23.86
381.413	26.92
381.623	14.28
381.833	10.83
382.043	-4.72
382.253	11.14
382.463	15.85
382.674	12.2
382.884	11.84
383.094	12.66
383.304	2.25
383.514	-1.34
383.724	-0.17
383.934	-4.38
384.144	0.88
384.353	4.31
384.563	5.31
384.773	15.61
384.983	16.18
385.193	15.13
385.403	15.84
385.613	19.7
385.823	9.72
386.033	9.87
386.242	6.89
386.452	3.75
386.662	-1.29
386.872	3.37
387.082	2.9
387.291	3.88
387.501	8.65
387.711	7.65
387.921	7.14
388.13	11.66
388.34	12.71
388.55	5.04
388.759	0.62
388.969	-0.32
389.179	-2.45
389.388	-5.53
389.598	-5.48
389.807	-5.48
390.017	-6.42
390.227	-5.87
390.436	-0.36
390.646	0.26
390.855	3.16
391.065	4.67
391.274	2.22
391.484	-0.36
391.693	3.41
391.903	2.94
392.112	3.71
392.322	4.62
392.531	3.88
392.74	2.55
392.95	0.58
393.159	-0.36
393.369	0.18
393.578	1.93
393.787	0.69
393.997	3.31
394.206	3.36
394.415	4.59
394.625	4.18
394.834	5.54
395.043	5.72
395.252	7.5
395.462	7.79
395.671	7.85
395.88	8.08
396.089	8.09
396.298	7.58
396.508	7.6
396.717	7.43
396.926	7.16
397.135	7.36
397.344	6.6
397.553	6.12
397.762	7.07
397.971	7.02
398.181	6.93
398.39	6.71
398.599	6.97
398.808	6.04
399.017	6.67
399.226	6.53
399.435	6.6
399.644	6.84
399.853	7.34
400.062	6.94
400.27	6.43
400.479	6.64
400.688	6.4
400.897	5.87
401.106	6.07
401.315	6.23
401.524	6.33
401.733	5.87
401.941	6.39
402.15	6.18
402.359	6.34
402.568	6.19
402.777	6.65
402.985	6.16
403.194	6.1
403.403	6.31
403.612	6.12
403.82	5.7
404.029	5.94
404.238	5.99
404.446	5.99
404.655	6.15
404.864	6.41
405.072	6.22
405.281	6.17
405.489	5.84
405.698	5.92
405.906	6.05
406.115	6.2
406.324	6.23
406.532	6.43
406.741	6.41
406.949	6.31
407.158	6.4
407.366	6.33
407.574	6.26
407.783	6.22
407.991	6.18
408.2	6.21
408.408	6.07
408.617	6.03
408.825	5.86
409.033	5.76
409.242	5.6
409.45	5.8
409.658	5.72
409.867	5.84
410.075	5.92
410.283	5.84
410.491	5.62
410.7	5.54
410.908	5.62
411.116	5.72
411.324	5.77
411.533	5.83
411.741	5.96
411.949	5.96
412.157	5.7
412.365	5.66
412.573	5.66
412.781	5.6
412.99	5.46
413.198	5.59
413.406	5.71
413.614	5.88
413.822	5.97
414.03	5.95
414.238	5.83
414.446	5.84
414.654	5.61
414.862	5.46
415.07	5.48
415.278	5.61
415.486	5.31
415.694	5.27
415.902	5.19
416.109	5.19
416.317	4.98
416.525	5.03
416.733	5.21
416.941	5.39
417.149	5.27
417.357	5.49
417.564	5.6
417.772	5.46
417.98	5.3
418.188	5.38
418.395	5.04
418.603	4.83
418.811	4.71
419.019	4.89
419.226	4.89
419.434	5.08
419.642	5.04
419.849	5.1
420.057	5.05
420.265	4.96
420.472	4.99
420.68	5.13
420.887	5.15
421.095	5
421.302	5.08
421.51	4.9
421.717	4.97
421.925	5.03
422.132	5.18
422.34	5.01
422.547	5.17
422.755	5.08
422.962	5.14
423.17	5.02
423.377	4.99
423.585	5.03
423.792	5.14
423.999	5.04
424.207	4.9
424.414	4.96
424.621	4.99
424.829	4.8
425.036	4.88
425.243	5.06
425.451	5.14
425.658	4.92
425.865	5
426.072	5
426.28	5.18
426.487	5.19
426.694	5.22
426.901	5.3
427.108	5.27
427.315	5.09
427.523	4.95
427.73	5.12
427.937	4.91
428.144	4.81
428.351	4.8
428.558	4.9
428.765	4.87
428.972	5.03
429.179	5.09
429.386	5.08
429.593	4.91
429.8	4.88
430.007	5.03
430.214	5.09
430.421	5.24
430.628	5.36
430.835	5.36
431.042	5.14
431.249	5.09
431.456	4.95
431.662	5.14
431.869	5.33
432.076	5.48
432.283	5.55
432.49	5.51
432.697	5.53
432.903	5.33
433.11	5.45
433.317	5.35
433.524	5.64
433.73	5.49
433.937	5.61
434.144	5.42
434.35	5.5
434.557	5.34
434.764	5.37
434.97	5.28
435.177	5.44
435.384	5.47
435.59	5.55
435.797	5.68
436.003	5.89
436.21	5.84
436.416	5.95
436.623	5.94
436.829	5.94
437.036	5.86
437.242	5.98
437.449	5.89
437.655	6.03
437.862	5.99
438.068	5.97
438.275	6.02
438.481	6.09
438.687	5.96
438.894	6.09
439.1	6.09
439.307	6.15
439.513	6.18
439.719	6.25
439.926	6.25
440.132	6.36
440.338	6.11
440.544	6.05
440.751	6.07
440.957	6.15
441.163	6.03
441.369	6.2
441.575	6.22
441.782	6.24
441.988	6.12
442.194	6.16
442.4	6.09
442.606	6.25
442.812	6.18
443.018	6.27
443.224	6.37
443.431	6.51
443.637	6.44
443.843	6.52
444.049	6.56
444.255	6.54
444.461	6.38
444.667	6.37
444.873	6.28
445.079	6.3
445.284	6.32
445.49	6.36
445.696	6.33
445.902	6.45
446.108	6.36
446.314	6.28
446.52	6.4
446.726	6.57
446.931	6.46
447.137	6.56
447.343	6.69
447.549	6.64
447.755	6.51
447.96	6.64
448.166	6.64
448.372	6.56
448.578	6.54
448.783	6.57
448.989	6.69
449.195	6.61
449.4	6.77
449.606	6.78
449.812	6.77
450.017	6.71
450.223	6.76
450.428	6.67
450.634	6.77
450.84	6.82
451.045	6.74
451.251	6.82
451.456	6.85
451.662	6.85
451.867	6.9
452.073	6.97
452.278	6.87
452.483	6.94
452.689	6.92
452.894	6.95
453.1	6.89
453.305	6.87
453.51	6.92
453.716	6.9
453.921	6.94
454.127	7.01
454.332	7.04
454.537	7.03
454.742	7.06
454.948	7.03
455.153	7.11
455.358	7.2
455.563	7.28
455.769	7.28
455.974	7.24
456.179	7.16
456.384	7.05
456.589	6.99
456.795	7.02
457	7.05
457.205	7
457.41	7.09
457.615	7.01
457.82	7.03
458.025	7.1
458.23	7.22
458.435	7.3
458.64	7.42
458.845	7.56
459.05	7.55
459.255	7.56
459.46	7.52
459.665	7.52
459.87	7.36
460.075	7.48
460.28	7.58
460.485	7.65
460.69	7.63
460.895	7.87
461.099	7.65
461.304	7.56
461.509	7.56
461.714	7.65
461.919	7.5
462.123	7.68
462.328	7.67
462.533	7.63
462.738	7.64
462.942	7.63
463.147	7.64
463.352	7.75
463.556	7.78
463.761	7.67
463.966	7.71
464.17	7.75
464.375	7.76
464.58	7.75
464.784	7.82
464.989	7.85
465.193	7.94
465.398	7.92
465.602	8.08
465.807	8.13
466.011	8.18
466.216	8.06
466.42	8.14
466.625	8.16
466.829	8.21
467.034	8.3
467.238	8.38
467.443	8.39
467.647	8.3
467.851	8.34
468.056	8.33
468.26	8.41
468.464	8.39
468.669	8.57
468.873	8.57
469.077	8.58
469.282	8.53
469.486	8.46
469.69	8.42
469.894	8.49
470.099	8.51
470.303	8.43
470.507	8.65
470.711	8.58
470.915	8.61
471.119	8.62
471.324	8.73
471.528	8.78
471.732	8.93
471.936	8.91
472.14	8.92
472.344	9.07
472.548	9.03
472.752	9
472.956	9.11
473.16	9.13
473.364	9.08
473.568	9.07
473.772	9.01
473.976	8.99
474.18	9.04
474.384	8.98
474.588	9.01
474.792	9.01
474.995	8.96
475.199	8.96
475.403	9.03
475.607	9.06
475.811	9.1
476.015	9.12
476.218	9.11
476.422	9.09
476.626	9.14
476.83	9.23
477.033	9.29
477.237	9.32
477.441	9.31
477.644	9.27
477.848	9.23
478.052	9.21
478.255	9.21
478.459	9.19
478.663	9.22
478.866	9.24
479.07	9.14
479.273	9.1
479.477	9.17
479.681	9.17
479.884	9.23
480.088	9.33
480.291	9.29
480.495	9.31
480.698	9.31
480.901	9.29
481.105	9.3
481.308	9.42
481.512	9.44
481.715	9.56
481.919	9.51
482.122	9.5
482.325	9.54
482.529	9.54
482.732	9.47
482.935	9.46
483.138	9.53
483.342	9.58
483.545	9.55
483.748	9.57
483.952	9.63
484.155	9.62
484.358	9.52
484.561	9.59
484.764	9.5
484.967	9.47
485.171	9.5
485.374	9.45
485.577	9.37
485.78	9.47
485.983	9.43
486.186	9.33
486.389	9.36
486.592	9.38
486.795	9.33
486.998	9.31
487.201	9.36
487.404	9.46
487.607	9.46
487.81	9.43
488.013	9.43
488.216	9.41
488.419	9.32
488.622	9.27
488.825	9.29
489.028	9.35
489.231	9.37
489.433	9.35
489.636	9.41
489.839	9.4
490.042	9.38
490.245	9.35
490.447	9.41
490.65	9.42
490.853	9.46
491.056	9.4
491.258	9.42
491.461	9.38
491.664	9.32
491.866	9.24
492.069	9.31
492.272	9.27
492.474	9.26
492.677	9.36
492.879	9.43
493.082	9.44
493.285	9.46
493.487	9.5
493.69	9.45
493.892	9.38
494.095	9.35
494.297	9.38
494.5	9.35
494.702	9.32
494.905	9.34
495.107	9.26
495.309	9.23
495.512	9.2
495.714	9.22
495.917	9.27
496.119	9.29
496.321	9.23
496.524	9.18
496.726	9.08
496.928	9
497.13	8.96
497.333	9.04
497.535	9.07
497.737	9.1
497.939	9.09
498.142	9.15
498.344	9.15
498.546	9.17
498.748	9.23
498.95	9.28
499.152	9.27
499.355	9.2
499.557	9.16
499.759	9.17
499.961	9.13
500.163	9.14
500.365	9.18
500.567	9.18
500.769	9.14
500.971	9.11
501.173	9.07
501.375	9.12
501.577	9.11
501.779	9.05
501.981	9.06
502.183	9.08
502.385	9.02
502.587	9.07
502.788	9.13
502.99	9.15
503.192	9.15
503.394	9.1
503.596	9.1
503.798	9.05
503.999	9
504.201	8.98
504.403	9.05
504.605	9.05
504.806	9.12
505.008	9.19
505.21	9.18
505.411	9.16
505.613	9.17
505.815	9.12
506.016	9.15
506.218	9.18
506.42	9.16
506.621	9.19
506.823	9.23
507.024	9.15
507.226	9.18
507.427	9.17
507.629	9.16
507.83	9.17
508.032	9.16
508.233	9.11
508.435	9.14
508.636	9.16
508.838	9.1
509.039	9.14
509.24	9.2
509.442	9.19
509.643	9.16
509.845	9.17
510.046	9.19
510.247	9.14
510.448	9.12
510.65	9.09
510.851	9.14
511.052	9.13
511.254	9.2
511.455	9.23
511.656	9.23
511.857	9.21
512.058	9.26
512.26	9.18
512.461	9.22
512.662	9.23
512.863	9.09
513.064	9.09
513.265	9.1
513.466	9.03
513.667	9.04
513.868	9.1
514.069	9.05
514.27	9.08
514.471	9.11
514.672	9.1
514.873	9.17
515.074	9.18
515.275	9.11
515.476	9.1
515.677	9.05
515.878	9.06
516.079	9.08
516.28	9.18
516.481	9.18
516.682	9.24
516.882	9.24
517.083	9.18
517.284	9.14
517.485	9.12
517.686	9.1
517.886	9.04
518.087	9.03
518.288	9.03
518.488	9.03
518.689	8.96
518.89	8.91
519.091	8.99
519.291	8.95
519.492	8.98
519.692	9.05
519.893	9.1
520.094	9.06
520.294	9.08
520.495	9.07
520.695	9.09
520.896	9.05
521.096	9.03
521.297	9.03
521.497	9.02
521.698	8.98
521.898	9.03
522.099	9.06
522.299	9.04
522.499	9.03
522.7	9.03
522.9	8.97
523.101	8.94
523.301	8.93
523.501	8.94
523.702	8.92
523.902	8.99
524.102	9.06
524.302	9.13
524.503	9.14
524.703	9.13
524.903	9.11
525.103	9.01
525.304	8.97
525.504	8.98
525.704	9.01
525.904	8.98
526.104	9.08
526.304	9.12
526.504	9.12
526.705	9.07
526.905	9.09
527.105	9.05
527.305	8.99
527.505	8.96
527.705	8.92
527.905	8.95
528.105	8.93
528.305	8.89
528.505	8.96
528.705	9.04
528.905	8.98
529.105	8.95
529.304	8.95
529.504	8.94
529.704	8.93
529.904	8.98
530.104	8.97
530.304	9.01
530.503	8.99
530.703	8.96
530.903	8.93
531.103	9
531.303	8.95
531.502	8.95
531.702	8.99
531.902	9.03
532.101	9.01
532.301	9.1
532.501	9.15
532.7	9.16
532.9	9.17
533.1	9.14
533.299	9.06
533.499	8.99
533.698	8.9
533.898	8.89
534.097	8.94
534.297	8.98
534.496	9
534.696	9.06
534.895	9.08
535.095	9.1
535.294	9.11
535.494	9.08
535.693	9.07
535.892	9.05
536.092	9
536.291	8.97
536.491	9.01
536.69	9
536.889	8.93
537.088	8.96
537.288	9
537.487	9.02
537.686	9.05
537.886	9.1
538.085	9.07
538.284	9.13
538.483	9.07
538.682	9.1
538.882	9.14
539.081	9.17
539.28	9.11
539.479	9.13
539.678	9.14
539.877	9.14
540.076	9.16
540.275	9.17
540.474	9.22
540.673	9.28
540.872	9.29
541.071	9.28
541.27	9.28
541.469	9.28
541.668	9.28
541.867	9.26
542.066	9.3
542.265	9.31
542.464	9.3
542.663	9.3
542.862	9.36
543.06	9.42
543.259	9.53
543.458	9.55
543.657	9.59
543.856	9.57
544.054	9.51
544.253	9.48
544.452	9.51
544.651	9.5
544.849	9.49
545.048	9.52
545.247	9.54
545.445	9.53
545.644	9.52
545.843	9.53
546.041	9.54
546.24	9.5
546.438	9.54
546.637	9.61
546.836	9.67
547.034	9.69
547.233	9.8
547.431	9.84
547.63	9.83
547.828	9.86
548.027	9.9
548.225	9.87
548.423	9.85
548.622	9.93
548.82	9.91
549.019	9.9
549.217	9.89
549.415	9.91
549.614	9.98
549.812	10.01
550.01	10.08
550.209	10.2
550.407	10.24
550.605	10.13
550.803	10.19
551.002	10.17
551.2	10.13
551.398	10.2
551.596	10.26
551.794	10.33
551.993	10.42
552.191	10.48
552.389	10.51
552.587	10.55
552.785	10.49
552.983	10.55
553.181	10.58
553.379	10.6
553.577	10.7
553.775	10.84
553.973	10.85
554.171	10.9
554.369	10.95
554.567	10.93
554.765	10.88
554.963	10.92
555.161	10.96
555.359	11
555.557	11.07
555.755	11.22
555.952	11.29
556.15	11.37
556.348	11.41
556.546	11.55
556.744	11.52
556.941	11.55
557.139	11.6
557.337	11.68
557.535	11.64
557.732	11.74
557.93	11.86
558.128	11.85
558.325	11.85
558.523	11.87
558.721	11.94
558.918	11.97
559.116	12.13
559.313	12.22
559.511	12.4
559.708	12.38
559.906	12.43
560.104	12.41
560.301	12.46
560.498	12.47
560.696	12.62
560.893	12.7
561.091	12.87
561.288	12.91
561.486	12.95
561.683	12.97
561.88	13.05
562.078	13.08
562.275	13.22
562.473	13.31
562.67	13.39
562.867	13.48
563.064	13.61
563.262	13.58
563.459	13.65
563.656	13.71
563.853	13.76
564.051	13.76
564.248	13.86
564.445	13.96
564.642	14.06
564.839	14.14
565.036	14.22
565.234	14.27
565.431	14.26
565.628	14.26
565.825	14.32
566.022	14.38
566.219	14.5
566.416	14.64
566.613	14.74
566.81	14.82
567.007	14.87
567.204	14.85
567.401	14.9
567.598	14.95
567.795	14.98
567.991	15.03
568.188	15.21
568.385	15.16
568.582	15.29
568.779	15.27
568.976	15.34
569.172	15.34
569.369	15.42
569.566	15.38
569.763	15.41
569.96	15.5
570.156	15.59
570.353	15.61
570.55	15.61
570.746	15.76
570.943	15.8
571.14	15.75
571.336	15.84
571.533	15.97
571.729	15.9
571.926	15.98
572.123	16.12
572.319	16.14
572.516	16.18
572.712	16.25
572.909	16.13
573.105	16.17
573.302	16.24
573.498	16.17
573.695	16.21
573.891	16.3
574.087	16.16
574.284	16.2
574.48	16.3
574.677	16.33
574.873	16.42
575.069	16.49
575.266	16.49
575.462	16.41
575.658	16.48
575.854	16.39
576.051	16.48
576.247	16.4
576.443	16.46
576.639	16.4
576.835	16.44
577.032	16.36
577.228	16.52
577.424	16.53
577.62	16.54
577.816	16.51
578.012	16.56
578.208	16.53
578.404	16.6
578.6	16.68
578.796	16.78
578.993	16.76
579.189	16.75
579.384	16.76
579.58	16.68
579.776	16.66
579.972	16.69
580.168	16.66
580.364	16.58
580.56	16.61
580.756	16.52
580.952	16.46
581.148	16.47
581.343	16.48
581.539	16.53
581.735	16.6
581.931	16.61
582.127	16.53
582.322	16.52
582.518	16.54
582.714	16.51
582.909	16.5
583.105	16.54
583.301	16.61
583.496	16.49
583.692	16.38
583.888	16.42
584.083	16.47
584.279	16.35
584.474	16.38
584.67	16.49
584.866	16.57
585.061	16.49
585.257	16.56
585.452	16.59
585.648	16.5
585.843	16.46
586.039	16.53
586.234	16.52
586.429	16.45
586.625	16.55
586.82	16.53
587.015	16.53
587.211	16.54
587.406	16.51
587.601	16.5
587.797	16.48
587.992	16.41
588.187	16.35
588.383	16.43
588.578	16.43
588.773	16.45
588.968	16.59
589.163	16.71
589.359	16.65
589.554	16.64
589.749	16.64
589.944	16.57
590.139	16.55
590.334	16.69
590.529	16.7
590.724	16.81
590.919	16.91
591.114	16.98
591.309	16.98
591.504	17
591.699	16.91
591.894	16.85
592.089	16.77
592.284	16.79
592.479	16.82
592.674	16.92
592.869	16.96
593.064	17.06
593.259	17.15
593.454	17.24
593.648	17.21
593.843	17.21
594.038	17.27
594.233	17.24
594.428	17.27
594.622	17.36
594.817	17.55
595.012	17.57
595.206	17.58
595.401	17.64
595.596	17.69
595.79	17.64
595.985	17.72
596.18	17.85
596.374	17.85
596.569	17.87
596.763	17.94
596.958	17.99
597.153	18.06
597.347	18.09
597.542	18.23
597.736	18.29
597.931	18.35
598.125	18.35
598.319	18.46
598.514	18.48
598.708	18.57
598.903	18.61
599.097	18.75
599.291	18.89
599.486	18.97
599.68	18.99
599.874	19.07
600.069	19.02
600.263	18.97
600.457	19.01
600.651	19.02
600.846	18.96
601.04	18.97
601.234	18.96
601.428	18.93
601.622	18.99
601.817	19.1
602.011	19.13
602.205	19.16
602.399	19.1
602.593	19.15
602.787	19.04
602.981	19.06
603.175	19.13
603.369	19.13
603.563	19.12
603.757	19.2
603.951	19.24
604.145	19.18
604.339	19.29
604.533	19.18
604.727	19.12
604.921	19.06
605.115	19.12
605.309	19.06
605.502	19.17
605.696	19.2
605.89	19.2
606.084	19.12
606.278	19.11
606.471	19.02
606.665	18.92
606.859	18.87
607.053	18.75
607.246	18.67
607.44	18.56
607.634	18.49
607.827	18.46
608.021	18.46
608.214	18.38
608.408	18.4
608.602	18.39
608.795	18.4
608.989	18.42
609.182	18.49
609.376	18.42
609.569	18.43
609.763	18.34
609.956	18.2
610.15	18
610.343	17.95
610.537	17.91
610.73	17.83
610.923	17.84
611.117	17.92
611.31	17.87
611.504	17.75
611.697	17.77
611.89	17.67
612.083	17.53
612.277	17.49
612.47	17.47
612.663	17.4
612.856	17.34
613.05	17.37
613.243	17.22
613.436	17.12
613.629	16.98
613.822	16.98
614.015	16.81
614.209	16.81
614.402	16.82
614.595	16.84
614.788	16.72
614.981	16.74
615.174	16.67
615.367	16.53
615.56	16.43
615.753	16.46
615.946	16.4
616.139	16.39
616.332	16.37
616.525	16.32
616.718	16.21
616.911	16.18
617.103	16.22
617.296	16.24
617.489	16.23
617.682	16.25
617.875	16.16
618.067	16.05
618.26	15.95
618.453	15.95
618.646	15.9
618.838	15.92
619.031	15.85
619.224	15.91
619.417	15.94
619.609	15.89
619.802	15.91
619.994	15.88
620.187	15.75
620.38	15.63
620.572	15.61
620.765	15.58
620.957	15.59
621.15	15.6
621.342	15.6
621.535	15.57
621.727	15.52
621.92	15.49
622.112	15.54
622.305	15.59
622.497	15.58
622.69	15.47
622.882	15.49
623.074	15.5
623.267	15.41
623.459	15.28
623.651	15.34
623.844	15.35
624.036	15.28
624.228	15.33
624.42	15.37
624.613	15.3
624.805	15.21
624.997	15.17
625.189	15.12
625.381	15.16
625.574	15.13
625.766	15.18
625.958	15.22
626.15	15.14
626.342	15.11
626.534	15.11
626.726	15.12
626.918	15.02
627.11	15.06
627.302	15
627.494	14.97
627.686	14.89
627.878	14.85
628.07	14.85
628.262	14.89
628.454	14.86
628.646	14.87
628.838	14.92
629.029	14.81
629.221	14.73
629.413	14.72
629.605	14.65
629.797	14.64
629.989	14.67
630.18	14.73
630.372	14.75
630.564	14.75
630.755	14.62
630.947	14.61
631.139	14.57
631.33	14.51
631.522	14.48
631.714	14.46
631.905	14.44
632.097	14.36
632.289	14.32
632.48	14.31
632.672	14.36
632.863	14.27
633.055	14.27
633.246	14.3
633.438	14.31
633.629	14.24
633.821	14.32
634.012	14.24
634.203	14.18
634.395	14.15
634.586	14.18
634.777	14.08
634.969	14.15
635.16	14.1
635.351	14.11
635.543	14.06
635.734	14.11
635.925	14.1
636.117	14.18
636.308	14.15
636.499	14.14
636.69	14.11
636.881	14.1
637.073	14.12
637.264	14.09
637.455	14.03
637.646	14.09
637.837	14.13
638.028	14.05
638.219	14.1
638.41	14.17
638.601	14.13
638.792	14.08
638.983	14
639.174	13.92
639.365	13.9
639.556	13.76
639.747	13.77
639.938	13.87
640.129	13.93
640.32	13.96
640.511	14.05
640.701	14.13
640.892	14.01
641.083	13.93
641.274	13.91
641.465	13.87
641.655	13.73
641.846	13.82
642.037	13.8
642.228	13.69
642.418	13.69
642.609	13.74
642.8	13.64
642.99	13.63
643.181	13.71
643.372	13.67
643.562	13.64
643.753	13.75
643.943	13.69
644.134	13.6
644.324	13.66
644.515	13.59
644.705	13.52
644.896	13.62
645.086	13.63
645.277	13.62
645.467	13.6
645.658	13.5
645.848	13.41
646.038	13.43
646.229	13.41
646.419	13.35
646.61	13.5
646.8	13.53
646.99	13.52
647.18	13.45
647.371	13.49
647.561	13.29
647.751	13.22
647.941	13.22
648.132	13.17
648.322	13.11
648.512	13.19
648.702	13.21
648.892	13.13
649.082	13.12
649.272	13.11
649.462	13.12
649.653	13.1
649.843	13.09
650.033	13.17
650.223	13.21
650.413	13.15
650.603	13.17
650.793	13.14
650.983	13.1
651.172	13.04
651.362	12.88
651.552	12.83
651.742	12.82
651.932	12.71
652.122	12.74
652.312	12.81
652.502	12.65
652.691	12.58
652.881	12.59
653.071	12.51
653.261	12.41
653.45	12.46
653.64	12.43
653.83	12.44
654.019	12.36
654.209	12.28
654.399	12.26
654.588	12.2
654.778	12
654.968	11.86
655.157	11.79
655.347	11.62
655.536	11.54
655.726	11.38
655.915	11.31
656.105	11.3
656.294	11.2
656.484	11.07
656.673	11.12
656.863	11.13
657.052	10.96
657.241	10.95
657.431	10.85
657.62	10.82
657.809	10.56
657.999	10.57
658.188	10.42
658.377	10.31
658.567	10.22
658.756	10.24
658.945	10.09
659.134	10
659.324	9.92
659.513	9.75
659.702	9.58
659.891	9.54
660.08	9.48
660.269	9.4
660.458	9.27
660.648	9.27
660.837	9.18
661.026	9.04
661.215	8.94
661.404	8.9
661.593	8.86
661.782	8.71
661.971	8.64
662.16	8.65
662.349	8.6
662.538	8.52
662.726	8.51
662.915	8.5
663.104	8.42
663.293	8.41
663.482	8.35
663.671	8.36
663.86	8.35
664.048	8.33
664.237	8.25
664.426	8.25
664.615	8.2
664.803	8.16
664.992	8.1
665.181	8.06
665.369	7.92
665.558	7.87
665.747	7.91
665.935	7.93
666.124	8.03
666.312	8.1
666.501	8.1
666.69	8.01
666.878	7.97
667.067	7.79
667.255	7.72
667.444	7.8
667.632	7.75
667.82	7.72
668.009	7.79
668.197	7.89
668.386	7.76
668.574	7.87
668.762	7.9
668.951	7.94
669.139	7.92
669.327	7.98
669.516	7.92
669.704	7.91
669.892	7.85
670.08	7.86
670.269	7.9
670.457	7.91
670.645	7.91
670.833	8.05
671.021	8.09
671.21	8.1
671.398	8.21
671.586	8.28
671.774	8.33
671.962	8.39
672.15	8.41
672.338	8.52
672.526	8.56
672.714	8.55
672.902	8.55
673.09	8.66
673.278	8.77
673.466	8.86
673.654	8.94
673.842	9.05
674.03	9.11
674.218	9
674.405	9.01
674.593	9.1
674.781	9.1
674.969	9.25
675.157	9.3
675.344	9.43
675.532	9.34
675.72	9.41
675.908	9.33
676.095	9.29
676.283	9.36
676.471	9.46
676.658	9.59
676.846	9.62
677.033	9.74
677.221	9.78
677.409	9.81
677.596	9.79
677.784	9.91
677.971	9.92
678.159	9.93
678.346	10.02
678.534	10.01
678.721	10
678.909	10.11
679.096	10.21
679.283	10.29
679.471	10.49
679.658	10.5
679.846	10.47
680.033	10.59
680.22	10.63
680.408	10.57
680.595	10.64
680.782	10.84
680.969	10.89
681.157	11.02
681.344	11.09
681.531	11.32
681.718	11.29
681.905	11.32
682.093	11.37
682.28	11.49
682.467	11.54
682.654	11.67
682.841	11.82
683.028	11.81
683.215	12.04
683.402	11.95
683.589	12.05
683.776	12.11
683.963	12.35
684.15	12.58
684.337	12.91
684.524	13.06
684.711	13.12
684.898	13.12
685.085	13.03
685.271	13.14
685.458	13.3
685.645	13.45
685.832	13.67
686.019	13.8
686.205	13.95
686.392	14.26
686.579	14.58
686.766	14.88
686.952	15.17
687.139	15.37
687.326	15.45
687.512	15.56
687.699	15.86
687.886	16.01
688.072	16.29
688.259	16.6
688.445	17
688.632	17
688.818	17.58
689.005	17.74
689.191	18.2
689.378	18.53
689.564	19.13
689.751	19.33
689.937	19.92
690.124	20.14
690.31	20.42
690.496	20.85
690.683	21.33
690.869	21.59
691.055	22
691.242	22.53
691.428	22.85
691.614	23.31
691.8	24.07
691.987	24.79
692.173	25.47
692.359	26.21
692.545	26.91
692.731	27.31
692.918	27.78
693.104	28.25
693.29	28.63
693.476	29.22
693.662	29.91
693.848	30.52
694.034	31.16
694.22	31.81
694.406	32.1
694.592	32.84
694.778	33.31
694.964	33.94
695.15	34.7
695.336	35.49
695.522	35.85
695.708	36.7
695.894	37.27
696.08	37.83
696.265	38.51
696.451	39.25
696.637	39.81
696.823	40.61
697.009	41.24
697.194	41.99
697.38	42.61
697.566	43.15
697.751	43.66
697.937	44.34
698.123	44.86
698.308	45.24
698.494	46.15
698.68	46.8
698.865	47.38
699.051	48.34
699.236	49.25
699.422	49.79
699.607	50.29
699.793	51.1
699.978	51.26
700.164	51.54
700.349	51.91
700.535	52.65
700.72	52.89
700.906	53.32
701.091	54.22
701.276	54.79
701.462	55.04
701.647	55.65
701.832	56.45
702.018	56.84
702.203	57.43
702.388	57.77
702.573	58.04
702.759	58.35
702.944	58.62
703.129	59.15
703.314	60.01
703.499	60.89
703.684	61.49
703.87	61.99
704.055	62.17
704.24	62.48
704.425	62.58
704.61	62.81
704.795	63.23
704.98	63.53
705.165	63.71
705.35	64.19
705.535	64.48
705.72	64.87
705.905	65.63
706.09	66.55
706.275	66.69
706.459	67.12
706.644	67.4
706.829	67.6
707.014	67.93
707.199	68.52
707.384	68.56
707.568	68.71
707.753	69.27
707.938	68.95
708.123	69.04
708.307	69.72
708.492	70.2
708.677	70.23
708.861	70.65
709.046	70.67
709.231	70.68
709.415	70.8
709.6	70.86
709.784	71.04
709.969	71.69
710.153	71.79
710.338	72.3
710.522	72.64
710.707	72.89
710.891	72.98
711.076	73.19
711.26	73.54
711.445	73.72
711.629	73.69
711.813	74.01
711.998	74.43
712.182	74.08
712.366	74.61
712.551	74.86
712.735	74.73
712.919	75.19
713.103	75.61
713.288	75.36
713.472	75.97
713.656	76.02
713.84	75.84
714.024	76
714.208	76.03
714.393	76.28
714.577	76.63
714.761	76.87
714.945	77.23
715.129	77.5
715.313	77.17
715.497	77.06
715.681	76.66
715.865	76.39
716.049	76.51
716.233	76.6
716.417	76.92
716.601	77.95
716.785	78.48
716.968	78.8
717.152	79.25
717.336	79.97
717.52	79.91
717.704	80.4
717.888	80.76
718.071	80.68
718.255	80.29
718.439	80.15
718.622	79.78
718.806	78.93
718.99	79.02
719.174	79.19
719.357	79.62
719.541	79.65
719.724	80.32
719.908	80.33
720.092	80.27
720.275	80.1
720.459	79.89
720.642	80.23
720.826	80.22
721.009	80.15
721.193	80.12
721.376	80.27
721.559	80.06
721.743	80.88
721.926	81.6
722.11	82.19
722.293	82.57
722.476	82.31
722.66	82.48
722.843	82.5
723.026	82.55
723.21	82.9
723.393	83.72
723.576	83.56
723.759	83.54
723.942	83.57
724.126	83.46
724.309	83.5
724.492	83.32
724.675	83.26
724.858	83.27
725.041	83.32
725.224	83.87
725.407	83.75
725.59	83.98
725.774	83.96
725.957	84.64
726.14	84.57
726.322	84.99
726.505	85.01
726.688	85.46
726.871	85.04
727.054	84.93
727.237	84.84
727.42	85.01
727.603	84.4
727.786	84.6
727.968	83.96
728.151	84.32
728.334	84.72
728.517	85.59
728.699	85.86
728.882	86.55
729.065	86.27
729.248	86.48
729.43	85.78
729.613	85.85
729.796	86.15
729.978	86.41
730.161	86.37
730.343	87.02
730.526	87.33
730.708	87.44
730.891	87.67
731.073	87.3
731.256	87.62
731.438	87.78
731.621	87.55
731.803	87.42
731.986	87.93
732.168	88.13
732.35	88.19
732.533	88.17
732.715	88.74
732.898	88.82
733.08	88.69
733.262	88.53
733.444	89.2
733.627	88.97
733.809	89.22
733.991	89.63
734.173	89.21
734.355	88.8
734.538	89.68
734.72	89.8
734.902	89.69
735.084	90.32
735.266	91.13
735.448	91.28
735.63	91.34
735.812	91.32
735.994	91.48
736.176	92
736.358	92.03
736.54	92.55
736.722	92.53
736.904	92.46
737.086	91.11
737.268	91.67
737.45	92.1
737.632	92.24
737.814	92.67
737.995	92.71
738.177	92.02
738.359	91.12
738.541	91.04
738.723	90.39
738.904	91.08
739.086	91.19
739.268	90.83
739.449	90.13
739.631	90.95
739.813	90.59
739.994	90.36
740.176	91.18
740.358	92.6
740.539	92.09
740.721	92.47
740.902	92.23
741.084	92.12
741.265	91.72
741.447	92.26
741.628	92.38
741.81	93.24
741.991	93.47
742.172	94.02
742.354	94.32
742.535	94.26
742.717	93.15
742.898	92.87
743.079	92.67
743.261	92.19
743.442	91.22
743.623	92.42
743.804	92.51
743.986	92.81
744.167	92.18
744.348	92.9
744.529	92.48
744.71	92.25
744.891	91.25
745.073	92.54
745.254	93.28
745.435	93.56
745.616	93.21
745.797	94.04
745.978	93.69
746.159	93.27
746.34	93.61
746.521	94.2
746.702	94.5
746.883	94.5
747.064	94.27
747.245	94.19
747.426	94.43
747.606	93.54
747.787	94.02
747.968	93.83
748.149	93.82
748.33	93.37
748.51	93.67
748.691	93.08
748.872	94.19
749.053	92.82
749.233	92.64
749.414	93.27
749.595	92.87
749.775	91.63
749.956	92.08
750.137	92.78
750.317	90.71
750.498	91.87
750.678	92.34
750.859	92.24
751.04	91.4
751.22	92.02
751.4	91.7
751.581	92.22
751.761	92.98
751.942	93.84
752.122	94.03
752.303	93.92
752.483	93.7
752.663	93.98
752.844	94.05
753.024	95.58
753.204	95.33
753.385	95.21
753.565	94.08
753.745	93.73
753.925	92.06
754.106	92.2
754.286	91.59
754.466	92.25
754.646	92.54
754.826	94.31
755.006	92.8
755.187	94.01
755.367	93.1
755.547	92.69
755.727	91.05
755.907	92.27
756.087	90.29
756.267	89.66
756.447	89.6
756.627	90.75
756.807	91.74
756.987	93.08
757.167	93.47
757.346	93.03
757.526	92.08
757.706	90.02
757.886	90.02
758.066	91.08
758.246	90.96
758.425	90.89
758.605	90.6
758.785	90.67
758.965	92.13
759.144	91.03
759.324	93.16
759.504	94.42
759.683	93.72
759.863	93.24
760.043	94.8
760.222	93.91
760.402	92.03
760.581	93.35
760.761	93.11
760.94	92.53
761.12	90.82
761.299	92.43
761.479	91.27
761.658	90.01
761.838	90.81
762.017	91.94
762.197	90.66
762.376	91.88
762.555	93.28
762.735	92.64
762.914	91.08
763.093	91.78
763.273	90.28
763.452	88.38
763.631	88.11
763.81	89.16
763.99	88.74
764.169	88.35
764.348	88.17
764.527	87.8
764.706	87.26
764.885	88.96
765.064	90.34
765.243	90.6
765.423	92.87
765.602	93.96
765.781	91.29
765.96	90.24
766.139	90.36
766.318	88.7
766.497	88.3
766.676	88.28
766.854	88.71
767.033	89.1
767.212	90.71
767.391	90.71
767.57	93.42
767.749	92.22
767.928	92.45
768.106	90.27
768.285	87.57
768.464	85.49
768.643	86.42
768.821	84.68
769	86.3
769.179	88.38
769.357	90.16
769.536	89.03
769.715	87.93
769.893	87.2
770.072	87.17
770.25	84.85
770.429	85.61
770.607	88.87
770.786	87.92
770.964	88.7
771.143	90.6
771.321	88.74
771.5	87.43
771.678	86.79
771.857	85.61
772.035	85.12
772.213	86.25
772.392	84.43
772.57	84.55
772.748	83.49
772.927	83.93
773.105	85.08
773.283	87.03
773.461	88.47
773.64	87.98
773.818	86.68
773.996	87.33
774.174	88.13
774.352	86.01
774.531	88.72
774.709	90.15
774.887	87.73
775.065	87.43
775.243	89.52
775.421	87.6
775.599	87.33
775.777	87.39
775.955	86.37
776.133	88.02
776.311	88.22
776.489	88.93
776.667	90.88
776.844	90.89
777.022	87.67
777.2	86.66
777.378	84.25
777.556	84.03
777.734	85.93
777.911	85.51
778.089	89.9
778.267	92.05
778.445	92.25
778.622	90.02
778.8	87.6
778.978	86.1
779.155	86.52
779.333	86.75
779.511	87.47
779.688	90.82
779.866	90.7
780.043	89.8
780.221	89.73
780.398	88.23
780.576	88.5
780.753	86.13
780.931	85.25
781.108	86.4
781.286	85.23
781.463	82.7
781.64	84.11
781.818	85.78
781.995	83.21
782.172	85.22
782.35	88.37
782.527	88.45
782.704	83.65
782.882	79.7
783.059	77.3
783.236	77.38
783.413	74.65
783.59	75.84
783.768	78.81
783.945	80.42
784.122	79.9
784.299	82.25
784.476	82.98
784.653	82.51
784.83	81.28
785.007	80.35
785.184	80.19
785.361	79.93
785.538	79.67
785.715	84.96
785.892	82.48
786.069	81.36
786.246	82.26
786.423	82.99
786.6	80.78
786.776	84.06
786.953	84.7
787.13	84.63
787.307	84.51
787.484	79.73
787.66	77.99
787.837	79.21
788.014	80
788.191	80.54
788.367	80.54
788.544	80.6
788.721	79.06
788.897	77.45
789.074	76.32
789.25	77.45
789.427	78.38
789.603	76.58
789.78	77.73
789.956	75.56
790.133	75.59
790.309	74.28
790.486	77.92
790.662	77.16
790.839	82
791.015	82.98
791.192	83.29
791.368	81.6
791.544	81.77
791.721	78.64
791.897	77.89
792.073	76.38
792.249	76.27
792.426	77.28
792.602	81.79
792.778	82.43
792.954	85.89
793.13	86.37
793.307	86.23
793.483	83.77
793.659	83.67
793.835	84.59
794.011	84.9
794.187	84.61
794.363	79.59
794.539	78.34
794.715	76.93
794.891	74.89
795.067	74.19
795.243	77.33
795.419	78.14
795.595	79.99
795.771	81.36
795.947	82.13
796.122	77.67
796.298	81.05
796.474	82.95
796.65	80.87
796.826	78.87
797.001	83.88
797.177	76.78
797.353	72.87
797.529	73.59
797.704	72.45
797.88	72.15
798.056	73.59
798.231	68.97
798.407	70.6
798.582	71.41
798.758	73.87
798.934	78.14
799.109	82.53
799.285	81.09
799.46	82.12
799.636	80.72
799.811	79.06
799.986	76.05
800.162	70.19
800.337	73.67
800.513	71.77
800.688	67.27
800.863	72.69
801.039	82.68
801.214	76.1
801.389	73.41
801.565	75.29
801.74	71.32
801.915	69.27
802.09	66.82
802.265	68.39
802.441	68.03
802.616	66.6
802.791	68.26
802.966	74.02
803.141	76.55
803.316	79.29
803.491	83.28
803.666	80.33
803.841	76.42
804.016	71.42
804.191	77.08
804.366	75.73
804.541	76.32
804.716	79.03
804.891	81.24
805.066	73.41
805.241	69.75
805.416	75.27
805.591	72.92
805.765	75.61
805.94	76.04
806.115	79.72
806.29	75.04
806.464	80.78
806.639	77.58
806.814	78.91
806.989	79.41
807.163	82.02
807.338	77.37
807.512	81.2
807.687	76.25
807.862	80.09
808.036	79.01
808.211	79.13
808.385	75.46
808.56	75.57
808.734	64.29
808.909	61.77
809.083	61.18
809.258	66.12
809.432	65.52
809.606	74.78
809.781	82.19
809.955	81.89
810.13	73.84
810.304	75.4
810.478	70.9
810.652	64.05
810.827	65.4
811.001	67.13
811.175	68
811.349	74.25
811.524	81.1
811.698	74.37
811.872	74.28
812.046	71.18
812.22	63.91
812.394	62.02
812.568	68.8
812.742	70.38
812.916	78.51
813.09	75.51
813.264	69.24
813.438	69.19
813.612	65.82
813.786	57.86
813.96	66.12
814.134	66.29
814.308	64.27
814.482	66.65
814.656	67.11
814.83	67.09
815.003	69.2
815.177	68.71
815.351	76.91
815.525	85.58
815.698	79.85
815.872	70.68
816.046	62.6
816.219	63.78
816.393	62.83
816.567	58.01
816.74	67.49
816.914	79.16
817.088	77.8
817.261	71.68
817.435	82.75
817.608	77.84
817.782	72.52
817.955	62.14
818.129	68.24
818.302	64.54
818.475	69.81
818.649	71.87
818.822	73.1
818.996	71.46
819.169	73.51
819.342	69.3
819.516	72.35
819.689	74.12
819.862	72.25
820.035	73.39
820.209	73.16
820.382	62.87
820.555	58.97
820.728	67.01
820.901	53.78
821.075	53.25
821.248	72.34
821.421	70.15
821.594	64.36
821.767	87.5
821.94	83.17
822.113	81.21
822.286	89.17
822.459	92.32
822.632	81.04
822.805	86.39
822.978	72.83
823.151	62.62
823.324	48.11
823.496	48.78
823.669	45.18
823.842	61.27
824.015	64.96
824.188	61.28
824.361	49.7
824.533	50.63
824.706	43.32
824.879	55.56
825.051	71.7
825.224	71.79
825.397	69.47
825.569	63.67
825.742	57.57
825.915	51.58
826.087	54.54
826.26	50.73
826.432	45.97
826.605	44.64
826.777	46.77
826.95	53.93
827.122	58.49
827.295	88.65
827.467	90.03
827.64	76
827.812	61.37
827.984	62.09
828.157	33.1
828.329	37.96
828.501	43.06
828.674	52.11
828.846	48.38
829.018	47.05
829.19	36.49
829.363	41.62
829.535	35.68
829.707	35.94
829.879	37.69
830.051	45.57
830.223	48.73
830.395	40.1
830.568	45.44
830.74	43.28
830.912	52.61
831.084	48.4
831.256	46.25
831.428	47.07
831.6	52.25
831.772	35.29
831.943	25.27
832.115	44.36
832.287	57.52
832.459	57.85
832.631	70.45
832.803	87.44
832.975	89.45
833.146	72.44
833.318	75.47
833.49	84.02
833.662	88.68
833.833	73.36
834.005	80.71
834.177	77.5
834.348	61.79
834.52	39.64
834.692	38.37
834.863	36.13
835.035	43.78
835.206	42.48
835.378	60.28
835.549	67.51
835.721	67.72
835.892	58.14
836.064	66.64
836.235	80.27
836.407	72.83
836.578	81.15
836.749	75.86
836.921	55.38
837.092	26.54
837.264	32.3
837.435	17.62
837.606	33.74
837.777	48.51
837.949	57.25
838.12	55.85
838.291	58.68
838.462	60.52
838.633	56.32
838.805	36.06
838.976	39.38
839.147	51.39
839.318	58.56
839.489	59.04
839.66	72.1
839.831	70.31
840.002	62.42
840.173	50.77
840.344	45.35
840.515	37.76
840.686	33.61
840.857	39.26
841.028	43.43
841.199	52.74
841.369	61.05
841.54	75.14
841.711	71.01
841.882	53.54
842.053	38.93
842.223	14.31
842.394	10.86
842.565	8.09
842.736	22.32
842.906	13.97
843.077	36.08
843.248	56.47
843.418	48.86
843.589	37.12
843.759	44.89
843.93	35.46
844.101	30.98
844.271	62.81
844.442	69.23
844.612	82.48
844.783	86.96
844.953	74.79
845.123	64.35
845.294	63.02
845.464	49.28
845.635	34.07
845.805	35
845.975	15.88
846.146	18.57
846.316	26.47
846.486	33.28
846.656	50.99
846.827	62.01
846.997	69.57
847.167	66.1
847.337	61.75
847.507	54.98
847.677	46.95
847.848	51.91
848.018	54.51
848.188	64.36
848.358	58.13
848.528	60.85
848.698	31.68
848.868	42.24
849.038	26.92
849.208	21.98
849.378	31.13
849.548	30.69
849.718	9.3
849.887	-6.86
850.057	-8.77
850.227	3.77
850.397	40.32
850.567	14.36
850.737	46.51
850.906	49.73
851.076	35.57
851.246	37.76
851.415	30.78
851.585	24.39
851.755	53.07
851.924	62.54
852.094	53.29
852.264	63.77
852.433	37.65
852.603	10.25
852.772	15.38
852.942	48.08
853.111	47.57
853.281	64.06
853.45	56.08
853.62	37.75
853.789	12.37
853.959	33.36
854.128	35.89
854.297	51.24
854.467	49.3
854.636	49.45
854.805	55.71
854.975	50.16
855.144	51.06
855.313	47.22
855.482	30.34
855.652	-15.29
855.821	-49.44
855.99	-46.38
856.159	-25.77
856.328	-8.05
856.497	18.71
856.667	68.17
856.836	65.82
857.005	64.84
857.174	57
857.343	44.7
857.512	21.51
857.681	12.4
857.85	10.23
858.019	-19.9
858.188	-2.7
858.356	2.33
858.525	8.18
858.694	34.97
858.863	32.68
859.032	27.94
859.201	27.64
859.369	37.79
859.538	12.31
859.707	12.37
859.876	38.23
860.044	51.38
860.213	47
860.382	51.34
860.55	45.35
860.719	29.81
860.888	32.71
861.056	47.05
861.225	50.78
861.393	94.04
861.562	103.72
861.73	58.07
861.899	41.15
862.067	35.83
862.236	13.12
862.404	35.82
862.572	51.57
862.741	63.59
862.909	63.42
863.078	53.7
863.246	6.47
863.414	34.61
863.582	26.53
863.751	13.57
863.919	24.95
864.087	22.5
864.255	-44.19
864.424	-46.14
864.592	-8.53
864.76	-30.83
864.928	-13.84
865.096	9.67
865.264	15.65
865.432	20.08
865.6	78.79
865.768	89.66
865.936	59.17
866.104	96.99
866.272	59.99
866.44	-27.84
866.608	-10.53
866.776	40.21
866.944	18.15
867.112	53.01
867.28	56.38
867.448	65.4
867.615	38.72
867.783	9.31
867.951	14.64
868.119	42.78
868.286	33.73
868.454	40.5
868.622	54.56
868.789	42.02
868.957	28.15
869.125	16
869.292	-18.84
869.46	17.24
869.627	11.05
869.795	4.26
869.963	45.18
870.13	46.64
870.298	29.55
870.465	23.23
870.632	7.37
870.8	8.44
870.967	24.41
871.135	27.55
871.302	44.18
871.469	62.89
871.637	51.04
871.804	46.08
871.971	37.73
872.139	16.27
872.306	-32.47
872.473	-45.85
872.64	-111
872.807	-106.67
872.975	-337.14
873.142	-97.52
873.309	-56.43
873.476	9.69
873.643	36.07
873.81	47.95
873.977	42.44
874.144	78.82
874.311	17.54
874.478	-39.96
874.645	-44.9
874.812	29.78
874.979	-14.58
875.146	-9.91
875.313	-4.13
875.48	0.31
875.647	-25.47
875.813	-20.41
875.98	-7.12
876.147	-7.36
876.314	57.03
876.481	73.05
876.647	42.11
876.814	36.36
876.981	46.12
877.147	53.52
877.314	61.78
877.481	67.52
877.647	53.85
877.814	48.89
877.98	15.07
878.147	52.16
878.314	63.05
878.48	95.13
878.647	67.09
878.813	104.36
878.979	68.26
879.146	93.43
879.312	76.27
879.479	74.06
879.645	55.18
879.811	48.55
879.978	25.42
880.144	2.61
880.31	6.62
880.477	-3.89
880.643	-4.5
880.809	-65.06
880.975	-55.98
881.142	-107.56
881.308	292.6
881.474	144.33
881.64	58.56
881.806	66.77
881.972	51.34
882.138	48.75
882.304	46.02
882.47	30.72
882.636	8.82
882.802	-7.4
882.968	-52.72
883.134	-34.21
883.3	-33.39
883.466	-24.06
883.632	2.42
883.798	-12.75
883.964	-55.92
884.129	-399.13
884.295	-46.2
884.461	-128.62
884.627	-49.42
884.793	-69.32
884.958	-27.82
885.124	-26.09
885.29	-10.5
885.455	-21.78
885.621	31.06
885.787	43.36
885.952	43.15
886.118	33.98
886.283	51.87
886.449	7.42
886.614	24.06
886.78	11.19
886.945	18.31
887.111	-15.12
887.276	-2.24
887.442	-67.16
887.607	-26.49
887.773	-10.68
887.938	2.01
888.103	5.03
888.269	24.35
888.434	9.68
888.599	5.63
888.764	6.75
888.93	30.78
889.095	13.23
889.26	-3.83
889.425	24.78
889.59	59.73
889.756	-24.69
889.921	-28.57
890.086	-13.29
890.251	-38.66
890.416	-45.68
890.581	-41.75
890.746	3.18
890.911	23.17
891.076	3.72
891.241	10.49
891.406	26.45
891.571	13.01
891.736	-5.61
891.901	36.65
892.065	43.03
892.23	58.07
892.395	82.25
892.56	37.57
892.725	100.6
892.889	182.15
893.054	67.02
893.219	31.2
893.384	75.79
893.548	12.3
893.713	-14.37
893.878	-21.56
