Data from Ofra_2a_PS_2CX80_Reflection_1.txt Node
Date: Tue Jul 20 09:38:50 EDT 2021
User: Adam
Spectrometer: FLMT01687
Trigger mode: 0
Integration Time (sec): 9.450000E-1
Scans to average: 3
Electric dark correction enabled: true
Nonlinearity correction enabled: false
Boxcar width: 3
XAxis mode: Wavelengths
Number of Pixels in Spectrum: 3648
>>>>>Begin Spectral Data<<<<<
179.494	995.27
179.716	631.25
179.937	751.1
180.158	3133.2
180.38	-1421.22
180.601	-275.93
180.823	-94.04
181.044	7.87
181.265	-93.9
181.486	71.2
181.708	1207.61
181.929	-17.33
182.15	-548.3
182.372	62.18
182.593	62.07
182.814	119.61
183.035	106.1
183.257	90.56
183.478	64.58
183.699	80.23
183.92	31.08
184.141	37.06
184.363	48.9
184.584	42.59
184.805	42.59
185.026	28.02
185.247	11.86
185.468	38.7
185.689	32.95
185.91	24.99
186.132	22.28
186.353	4.34
186.574	19.39
186.795	12.57
187.016	23.32
187.237	23.83
187.458	13.76
187.679	4.24
187.9	17.37
188.121	32.25
188.342	46.16
188.563	46.36
188.784	36.4
189.005	39.47
189.226	37.97
189.447	37.94
189.667	29.44
189.888	33.56
190.109	18.5
190.33	13.68
190.551	18.47
190.772	10.42
190.993	8.15
191.214	6.12
191.434	1.36
191.655	14.53
191.876	20.34
192.097	14.97
192.318	30.81
192.538	34.29
192.759	34.31
192.98	18.33
193.201	27.52
193.421	25.87
193.642	31.3
193.863	7.41
194.083	-0.69
194.304	4.45
194.525	33.6
194.745	19.9
194.966	21.89
195.187	34.6
195.407	28.03
195.628	26.53
195.848	22.69
196.069	2.77
196.29	-9.23
196.51	-13.74
196.731	-24.86
196.951	-9.31
197.172	-8
197.392	10.09
197.613	10.19
197.833	20.68
198.054	33.34
198.274	20.78
198.495	25.24
198.715	8.85
198.936	5.07
199.156	20.64
199.377	8.51
199.597	4.15
199.817	38.49
200.038	50.28
200.258	71.89
200.479	73.1
200.699	71.33
200.919	68.68
201.14	52.29
201.36	40.44
201.58	27.24
201.801	9.82
202.021	16.82
202.241	20.01
202.461	26.37
202.682	29.6
202.902	29.6
203.122	28.51
203.342	46.51
203.563	47.54
203.783	47.01
204.003	43.67
204.223	44.07
204.443	42.5
204.663	35.34
204.884	23.77
205.104	23.58
205.324	39.29
205.544	53.09
205.764	56.07
205.984	54.5
206.204	49.13
206.424	47.94
206.644	41.55
206.864	23.37
207.084	29.77
207.304	27.31
207.525	19.56
207.745	33.34
207.964	34.33
208.184	24.22
208.404	19.46
208.624	7.25
208.844	0.61
209.064	7.05
209.284	6.36
209.504	2.68
209.724	-5.96
209.944	5.67
210.164	11.3
210.384	10.28
210.604	-1.28
210.823	6.25
211.043	-5.7
211.263	6.3
211.483	2.59
211.703	5.76
211.922	10.6
212.142	20.74
212.362	9.21
212.582	14.38
212.801	8.19
213.021	19.44
213.241	3.89
213.461	11.28
213.68	11.31
213.9	28.88
214.12	23.67
214.339	29.33
214.559	26.41
214.779	34.27
214.998	32.44
215.218	27.15
215.438	34.12
215.657	42.9
215.877	31.7
216.096	30.66
216.316	23.8
216.535	21.12
216.755	5.99
216.974	-13.88
217.194	-9.46
217.413	17.32
217.633	11.13
217.852	14.18
218.072	10.83
218.291	40.07
218.511	41.69
218.73	34.17
218.95	25.49
219.169	31.33
219.389	27.93
219.608	34.33
219.827	25.93
220.047	39.69
220.266	31.09
220.485	34.47
220.705	33.15
220.924	42.27
221.143	27.78
221.363	28.97
221.582	14.3
221.801	16.46
222.021	14.29
222.24	0.63
222.459	-16.34
222.678	-21.89
222.897	-19.11
223.117	-10.42
223.336	-0.05
223.555	-8.63
223.774	7.89
223.993	38.57
224.213	37.57
224.432	41.27
224.651	31.58
224.87	25.3
225.089	42.7
225.308	31.63
225.527	21.33
225.746	20.87
225.965	19.05
226.184	25.14
226.404	16.45
226.623	15.79
226.842	9.29
227.061	23.1
227.28	32.8
227.499	33.92
227.718	36.55
227.936	40.2
228.155	32.48
228.374	45.46
228.593	31.66
228.812	26.82
229.031	22.9
229.25	27.61
229.469	36.59
229.688	42.69
229.907	26.13
230.125	29.57
230.344	32.35
230.563	44.21
230.782	35.32
231.001	34.87
231.22	21.13
231.438	30.33
231.657	28.44
231.876	27.96
232.095	16.95
232.313	25.64
232.532	20.31
232.751	32.17
232.969	37.71
233.188	32.96
233.407	30.91
233.625	29.53
233.844	27.42
234.063	26.16
234.281	22.52
234.5	22.82
234.719	22.8
234.937	23.64
235.156	24.67
235.374	16.84
235.593	15.97
235.811	9.23
236.03	-3.49
236.249	9.21
236.467	7.33
236.686	17.65
236.904	15.38
237.123	20.51
237.341	20.44
237.559	21.95
237.778	23.07
237.996	27.54
238.215	15.51
238.433	25.03
238.652	15.95
238.87	13.36
239.088	10.28
239.307	10.6
239.525	-0.03
239.743	-2.01
239.962	-11.97
240.18	-0.31
240.398	5.46
240.617	20.84
240.835	21.8
241.053	33.59
241.271	36.43
241.49	33.31
241.708	32.11
241.926	24.58
242.144	14.4
242.363	4.75
242.581	3.94
242.799	-0.15
243.017	14.83
243.235	2.03
243.453	5.45
243.672	5.71
243.89	17.25
244.108	22.86
244.326	33.3
244.544	26.8
244.762	31.16
244.98	42.58
245.198	35.79
245.416	36.25
245.634	41.51
245.852	44.12
246.07	40.39
246.288	41.18
246.506	34.06
246.724	50.19
246.942	47.72
247.16	30.36
247.378	18.2
247.596	32.81
247.814	26.96
248.032	20.47
248.25	9.94
248.468	6.22
248.685	15.11
248.903	14.41
249.121	9.7
249.339	15.87
249.557	24.86
249.775	12.63
249.992	12.23
250.21	5.44
250.428	6.97
250.646	2.02
250.863	10.64
251.081	9.59
251.299	36.01
251.517	43.25
251.734	64.52
251.952	60.74
252.17	46.27
252.387	37.74
252.605	31.05
252.823	16.91
253.04	7.08
253.258	6.25
253.475	-3.44
253.693	27.38
253.911	32.72
254.128	38.05
254.346	36.14
254.563	36.62
254.781	26.36
254.998	28.29
255.216	19.97
255.433	9.23
255.651	2.47
255.868	-1.46
256.086	-2.24
256.303	-2.82
256.521	0.27
256.738	-0.76
256.956	2.01
257.173	8.61
257.39	12.14
257.608	21.37
257.825	21.7
258.043	26.67
258.26	26.34
258.477	32.37
258.695	30.25
258.912	42.51
259.129	24.9
259.346	31.08
259.564	26.03
259.781	26.38
259.998	17.55
260.216	29.99
260.433	15.63
260.65	29.05
260.867	20.27
261.084	28.9
261.302	31.53
261.519	31.26
261.736	19.02
261.953	23.49
262.17	19.25
262.387	28.2
262.604	13.95
262.822	20.19
263.039	25.02
263.256	20.61
263.473	14.13
263.69	15
263.907	9.76
264.124	2.98
264.341	-6.48
264.558	0.56
264.775	8.41
264.992	15.72
265.209	18.32
265.426	26.01
265.643	33.23
265.86	29.46
266.077	27.49
266.294	22.25
266.51	16.78
266.727	4.59
266.944	-10.49
267.161	-11.55
267.378	-1.86
267.595	-6.55
267.812	-2.63
268.028	10.37
268.245	20.9
268.462	27.72
268.679	30.81
268.896	24.21
269.112	37.17
269.329	39.38
269.546	41.7
269.763	36.06
269.979	20.34
270.196	25.85
270.413	29.54
270.629	23.18
270.846	23.3
271.063	20.53
271.279	22.91
271.496	34.87
271.712	21.99
271.929	20.38
272.146	26.54
272.362	9.42
272.579	11.12
272.795	13.28
273.012	12.96
273.228	13.85
273.445	11.66
273.661	3.55
273.878	17.3
274.094	12.29
274.311	8.43
274.527	4.49
274.744	9.24
274.96	13.61
275.177	14.68
275.393	16.88
275.609	25.14
275.826	27.85
276.042	46.46
276.259	40.38
276.475	32.48
276.691	34
276.908	26.39
277.124	21.95
277.34	20.36
277.557	10.82
277.773	7.84
277.989	9.17
278.205	-3.21
278.422	4.48
278.638	12.96
278.854	18.99
279.07	16.06
279.286	24.45
279.503	32.65
279.719	41.43
279.935	27.43
280.151	18.15
280.367	15.39
280.583	10.38
280.799	13.22
281.016	7.59
281.232	0.19
281.448	1.23
281.664	8.54
281.88	9.26
282.096	11.55
282.312	-2.69
282.528	1.3
282.744	0.17
282.96	6.79
283.176	7.39
283.392	17.81
283.608	27.59
283.824	21.77
284.04	23.22
284.256	29.78
284.471	34.04
284.687	32.68
284.903	16.77
285.119	4.22
285.335	17.97
285.551	18.24
285.767	16.54
285.982	11.88
286.198	3.99
286.414	19.88
286.63	27.15
286.846	19.2
287.061	16.8
287.277	18.19
287.493	21.51
287.709	18.97
287.924	16.46
288.14	19.69
288.356	19.02
288.571	9.2
288.787	5.48
289.003	3.21
289.218	12.07
289.434	12.89
289.65	14.72
289.865	30.34
290.081	34.26
290.296	32.56
290.512	35.08
290.727	38.16
290.943	28.77
291.159	13.32
291.374	7.04
291.59	13.03
291.805	14.77
292.021	-1.74
292.236	-8.43
292.451	-4.14
292.667	10.81
292.882	11.48
293.098	9.51
293.313	2.07
293.529	11.8
293.744	18.73
293.959	16.22
294.175	6.52
294.39	1
294.605	-1.54
294.821	5.91
295.036	12.9
295.251	-0.43
295.467	5.44
295.682	8.56
295.897	5.18
296.112	5.29
296.328	1.28
296.543	-8.01
296.758	1.21
296.973	-0.72
297.188	-1.94
297.404	5.2
297.619	0.15
297.834	15.18
298.049	19.53
298.264	14.28
298.479	3.35
298.694	12.73
298.909	11.07
299.125	16.13
299.34	11.93
299.555	18.64
299.77	19.77
299.985	22.31
300.2	16.97
300.415	18.36
300.63	16.63
300.845	15.66
301.06	4.73
301.275	8.36
301.49	19.98
301.704	20.5
301.919	16.2
302.134	18.88
302.349	13.77
302.564	17.13
302.779	14.36
302.994	9.43
303.209	0.06
303.423	2.45
303.638	-9.14
303.853	1.51
304.068	3.55
304.283	-5.65
304.497	-3.69
304.712	5.23
304.927	0.45
305.142	8.28
305.356	5.77
305.571	14.24
305.786	24.39
306	29.29
306.215	31.09
306.43	41.1
306.644	34.5
306.859	34.59
307.074	21.92
307.288	24.03
307.503	12.1
307.717	4.16
307.932	5.2
308.147	6.59
308.361	11.44
308.576	17.54
308.79	20.4
309.005	26.1
309.219	38.07
309.434	36.69
309.648	28.24
309.863	23.89
310.077	20
310.292	9.21
310.506	22.59
310.72	19.54
310.935	20.41
311.149	30.06
311.364	31.13
311.578	33.13
311.792	31.04
312.007	18.72
312.221	24.35
312.435	21.12
312.649	-11.51
312.864	-28.37
313.078	-25.84
313.292	-21.12
313.507	-5.77
313.721	-9.48
313.935	8.07
314.149	33.96
314.363	43.62
314.578	63.45
314.792	67.15
315.006	61.59
315.22	54.63
315.434	39.87
315.648	37.82
315.862	31.03
316.077	20.79
316.291	20
316.505	18
316.719	0.97
316.933	13.83
317.147	17.2
317.361	24.78
317.575	19.78
317.789	18.22
318.003	16.5
318.217	28.47
318.431	23.54
318.645	21.2
318.859	13.75
319.073	12.19
319.287	14.68
319.5	19.7
319.714	22.29
319.928	25.34
320.142	31.66
320.356	40.8
320.57	34.15
320.784	32.95
320.997	33.95
321.211	28.28
321.425	19.25
321.639	24.82
321.853	19.82
322.066	32.33
322.28	35.95
322.494	27.99
322.707	28.9
322.921	37.94
323.135	27.11
323.349	33.79
323.562	35.15
323.776	26.92
323.989	26.89
324.203	26.18
324.417	17.94
324.63	10.6
324.844	-9.01
325.057	-7.81
325.271	-10.69
325.485	-0.04
325.698	2.4
325.912	15
326.125	31.74
326.339	40.76
326.552	38
326.766	39.93
326.979	34.93
327.193	29.45
327.406	18.35
327.619	-1.28
327.833	-4.91
328.046	-13.34
328.26	-10.07
328.473	-7.96
328.686	4.01
328.9	3.04
329.113	16.64
329.326	26.9
329.54	39.04
329.753	31.45
329.966	32.83
330.179	32.79
330.393	34.02
330.606	31.46
330.819	29.71
331.032	25.48
331.246	26.2
331.459	26.52
331.672	20.6
331.885	23.37
332.098	21.63
332.311	10.13
332.525	19.5
332.738	17.39
332.951	16.37
333.164	9.44
333.377	6.77
333.59	18.48
333.803	24.88
334.016	8.49
334.229	12.87
334.442	16.71
334.655	30.06
334.868	35.42
335.081	32.34
335.294	20.57
335.507	36.02
335.72	27.72
335.933	27.2
336.146	27.55
336.359	23.77
336.572	18.85
336.785	33.85
336.997	27.36
337.21	26.87
337.423	27.48
337.636	28.78
337.849	24.99
338.062	25.09
338.274	17.01
338.487	18.2
338.7	25.22
338.913	16.38
339.125	8.09
339.338	11.7
339.551	21.23
339.763	21.98
339.976	21.83
340.189	19.16
340.402	21.9
340.614	28.05
340.827	20.85
341.039	16.13
341.252	12.66
341.465	5.49
341.677	-1.68
341.89	-3.05
342.102	0.25
342.315	14.52
342.527	11.48
342.74	9.81
342.952	17.04
343.165	21.64
343.377	33.68
343.59	25.85
343.802	24.65
344.015	22.55
344.227	20.03
344.44	19.72
344.652	28.61
344.864	22.11
345.077	19.28
345.289	15.87
345.502	15.48
345.714	16.1
345.926	16.21
346.139	14.56
346.351	-3.97
346.563	6.11
346.775	2.85
346.988	7.81
347.2	13.18
347.412	17.36
347.624	14.41
347.837	25.19
348.049	25.76
348.261	25.48
348.473	14.13
348.685	17.74
348.897	14.41
349.11	21.72
349.322	14.11
349.534	7.38
349.746	14
349.958	27.89
350.17	24.05
350.382	15.59
350.594	12.22
350.806	28.79
351.018	30.67
351.23	30.41
351.442	31.2
351.654	33.69
351.866	38.51
352.078	37.63
352.29	35.66
352.502	33.67
352.714	25.18
352.926	20.76
353.138	18.31
353.35	13.69
353.561	6.8
353.773	3.88
353.985	2.82
354.197	2.63
354.409	4.74
354.621	7.56
354.832	7.64
355.044	19.87
355.256	14.89
355.468	21.42
355.679	27.78
355.891	24.32
356.103	18.26
356.314	22.67
356.526	14.86
356.738	16.18
356.949	12.04
357.161	5.85
357.373	3
357.584	15.85
357.796	14.94
358.008	17.74
358.219	23.94
358.431	24.29
358.642	24.16
358.854	22.95
359.065	19.15
359.277	17.99
359.488	11.54
359.7	13.46
359.911	16.17
360.123	18.7
360.334	19.15
360.546	6.59
360.757	9.41
360.969	11.5
361.18	6.47
361.391	11.82
361.603	14.65
361.814	9.79
362.025	15.72
362.237	9.28
362.448	15.62
362.659	13.12
362.871	6.57
363.082	2.97
363.293	17.71
363.504	19.5
363.716	21.39
363.927	19.8
364.138	25.53
364.349	28.83
364.56	29.28
364.772	25.1
364.983	16.61
365.194	12.87
365.405	9.89
365.616	-6.91
365.827	-1.9
366.038	10.91
366.25	4.27
366.461	13.49
366.672	16.22
366.883	29.5
367.094	33.75
367.305	32.81
367.516	26.44
367.727	30.1
367.938	31.15
368.149	34.67
368.36	23.42
368.571	29.45
368.781	23.59
368.992	20.71
369.203	26.56
369.414	26.77
369.625	24.54
369.836	27.3
370.047	23.14
370.258	24.82
370.468	21.16
370.679	8.72
370.89	19.02
371.101	15.33
371.312	7.4
371.522	6.54
371.733	-3.51
371.944	0.96
372.155	-4.77
372.365	-18.14
372.576	-17.06
372.787	-12.32
372.997	-20.82
373.208	-5.43
373.419	-5.89
373.629	1.23
373.84	-1.53
374.05	2.35
374.261	-0.22
374.472	8.46
374.682	0.04
374.893	-4.04
375.103	7.06
375.314	9.55
375.524	10.36
375.735	19.93
375.945	16.36
376.156	24.18
376.366	26.72
376.577	24.67
376.787	24.98
376.997	28.81
377.208	16.77
377.418	18.94
377.629	11.47
377.839	16.9
378.049	16.14
378.26	18.86
378.47	22
378.68	27.84
378.89	20.65
379.101	12.44
379.311	6.41
379.521	6.7
379.732	1.54
379.942	-4.97
380.152	-2.89
380.362	7.52
380.572	15.71
380.783	15.44
380.993	11.75
381.203	16.07
381.413	17.32
381.623	14.91
381.833	9.64
382.043	7.31
382.253	11.87
382.463	12.48
382.674	15.47
382.884	9.87
383.094	12.17
383.304	16.43
383.514	19.95
383.724	16.15
383.934	17.53
384.144	13.67
384.353	15.28
384.563	13.36
384.773	15.79
384.983	16.89
385.193	17.91
385.403	18.64
385.613	13.44
385.823	16.38
386.033	18.07
386.242	11.33
386.452	6.68
386.662	6.34
386.872	4.36
387.082	7.04
387.291	3.63
387.501	1.79
387.711	5.23
387.921	4.14
388.13	4.34
388.34	2.91
388.55	5.1
388.759	5.54
388.969	1.15
389.179	1.84
389.388	6.19
389.598	3.82
389.807	6.21
390.017	4.89
390.227	5.83
390.436	7.63
390.646	7.96
390.855	5.59
391.065	5.64
391.274	5.19
391.484	5.65
391.693	5.54
391.903	7.02
392.112	4.59
392.322	7.11
392.531	8.37
392.74	6.83
392.95	7.25
393.159	7.31
393.369	6.53
393.578	7.79
393.787	6.09
393.997	6.61
394.206	6.95
394.415	6.66
394.625	5.21
394.834	4.46
395.043	4.57
395.252	4.29
395.462	3.63
395.671	3.94
395.88	4.13
396.089	4.32
396.298	5.04
396.508	4.19
396.717	4.03
396.926	3.68
397.135	3.49
397.344	3.37
397.553	4.03
397.762	3.49
397.971	3.61
398.181	3.61
398.39	3.95
398.599	4.1
398.808	4
399.017	4.11
399.226	4.81
399.435	4.86
399.644	5.06
399.853	4.93
400.062	4.77
400.27	4.63
400.479	4.47
400.688	4.09
400.897	4.32
401.106	4.37
401.315	4.25
401.524	4.37
401.733	4.66
401.941	4.42
402.15	4.29
402.359	4.1
402.568	3.98
402.777	3.97
402.985	3.89
403.194	3.72
403.403	3.56
403.612	3.62
403.82	3.72
404.029	3.74
404.238	3.9
404.446	3.9
404.655	3.76
404.864	3.86
405.072	3.88
405.281	3.69
405.489	3.68
405.698	3.49
405.906	3.39
406.115	3.58
406.324	3.55
406.532	3.54
406.741	3.58
406.949	3.54
407.158	3.63
407.366	3.73
407.574	3.66
407.783	3.58
407.991	3.49
408.2	3.56
408.408	3.55
408.617	3.47
408.825	3.34
409.033	3.27
409.242	3.34
409.45	3.37
409.658	3.27
409.867	3.23
410.075	3.15
410.283	3.16
410.491	3.14
410.7	3.16
410.908	3.1
411.116	3.05
411.324	3.12
411.533	3.09
411.741	3.06
411.949	3.12
412.157	3.14
412.365	3.18
412.573	3.25
412.781	3.26
412.99	3.36
413.198	3.4
413.406	3.3
413.614	3.25
413.822	3.24
414.03	3.19
414.238	3.2
414.446	3.16
414.654	3.09
414.862	3.11
415.07	3.16
415.278	3.13
415.486	3.19
415.694	3.04
415.902	3.03
416.109	3.11
416.317	3.05
416.525	3.06
416.733	3.12
416.941	3.02
417.149	3.12
417.357	3.18
417.564	3.12
417.772	3.13
417.98	3.05
418.188	2.91
418.395	2.93
418.603	2.76
418.811	2.66
419.019	2.63
419.226	2.74
419.434	2.7
419.642	2.78
419.849	2.79
420.057	2.9
420.265	2.97
420.472	2.99
420.68	2.89
420.887	2.87
421.095	2.97
421.302	2.99
421.51	3.07
421.717	3.12
421.925	3.06
422.132	3.01
422.34	2.98
422.547	2.87
422.755	2.83
422.962	2.72
423.17	2.64
423.377	2.76
423.585	2.84
423.792	2.89
423.999	2.9
424.207	2.89
424.414	2.94
424.621	3.02
424.829	2.98
425.036	2.9
425.243	2.93
425.451	2.93
425.658	2.94
425.865	2.82
426.072	2.81
426.28	2.75
426.487	2.79
426.694	2.82
426.901	2.84
427.108	2.86
427.315	2.88
427.523	2.82
427.73	2.93
427.937	2.95
428.144	2.89
428.351	2.87
428.558	2.84
428.765	2.81
428.972	2.77
429.179	2.64
429.386	2.66
429.593	2.69
429.8	2.79
430.007	2.81
430.214	2.85
430.421	2.89
430.628	2.81
430.835	2.69
431.042	2.72
431.249	2.6
431.456	2.64
431.662	2.61
431.869	2.63
432.076	2.74
432.283	2.76
432.49	2.77
432.697	2.78
432.903	2.82
433.11	2.86
433.317	2.84
433.524	2.78
433.73	2.81
433.937	2.78
434.144	2.85
434.35	2.76
434.557	2.7
434.764	2.74
434.97	2.87
435.177	2.84
435.384	2.86
435.59	2.82
435.797	2.84
436.003	2.91
436.21	2.78
436.416	2.67
436.623	2.69
436.829	2.66
437.036	2.62
437.242	2.67
437.449	2.7
437.655	2.75
437.862	2.82
438.068	2.85
438.275	2.86
438.481	2.94
438.687	2.92
438.894	2.9
439.1	2.9
439.307	2.86
439.513	2.9
439.719	2.9
439.926	2.92
440.132	2.89
440.338	2.87
440.544	2.83
440.751	2.79
440.957	2.73
441.163	2.74
441.369	2.71
441.575	2.67
441.782	2.67
441.988	2.73
442.194	2.84
442.4	2.88
442.606	2.92
442.812	2.9
443.018	2.94
443.224	3
443.431	3.04
443.637	2.95
443.843	2.92
444.049	2.87
444.255	2.9
444.461	2.88
444.667	2.83
444.873	2.83
445.079	2.88
445.284	2.85
445.49	2.82
445.696	2.84
445.902	2.88
446.108	2.92
446.314	2.92
446.52	2.97
446.726	3.05
446.931	3.06
447.137	3.07
447.343	3.03
447.549	2.95
447.755	2.91
447.96	2.85
448.166	2.84
448.372	2.83
448.578	2.79
448.783	2.76
448.989	2.82
449.195	2.83
449.4	2.88
449.606	2.81
449.812	2.89
450.017	2.92
450.223	2.98
450.428	2.94
450.634	2.97
450.84	2.97
451.045	3.02
451.251	2.99
451.456	2.95
451.662	2.93
451.867	3.05
452.073	3.01
452.278	2.98
452.483	3
452.689	3
452.894	3
453.1	2.98
453.305	2.9
453.51	2.94
453.716	2.93
453.921	2.94
454.127	2.97
454.332	2.99
454.537	3.05
454.742	3.06
454.948	3.07
455.153	3.14
455.358	3.16
455.563	3.17
455.769	3.21
455.974	3.21
456.179	3.26
456.384	3.27
456.589	3.3
456.795	3.29
457	3.27
457.205	3.23
457.41	3.21
457.615	3.23
457.82	3.26
458.025	3.23
458.23	3.24
458.435	3.19
458.64	3.26
458.845	3.28
459.05	3.27
459.255	3.26
459.46	3.26
459.665	3.33
459.87	3.38
460.075	3.38
460.28	3.43
460.485	3.47
460.69	3.43
460.895	3.48
461.099	3.48
461.304	3.55
461.509	3.5
461.714	3.51
461.919	3.5
462.123	3.58
462.328	3.58
462.533	3.58
462.738	3.57
462.942	3.64
463.147	3.66
463.352	3.71
463.556	3.73
463.761	3.75
463.966	3.79
464.17	3.84
464.375	3.83
464.58	3.83
464.784	3.81
464.989	3.82
465.193	3.83
465.398	3.86
465.602	3.84
465.807	3.89
466.011	3.98
466.216	4.03
466.42	4.1
466.625	4.14
466.829	4.15
467.034	4.2
467.238	4.21
467.443	4.21
467.647	4.25
467.851	4.22
468.056	4.22
468.26	4.21
468.464	4.22
468.669	4.28
468.873	4.25
469.077	4.25
469.282	4.27
469.486	4.3
469.69	4.33
469.894	4.39
470.099	4.4
470.303	4.47
470.507	4.52
470.711	4.52
470.915	4.56
471.119	4.58
471.324	4.53
471.528	4.53
471.732	4.52
471.936	4.53
472.14	4.57
472.344	4.58
472.548	4.6
472.752	4.67
472.956	4.73
473.16	4.74
473.364	4.72
473.568	4.75
473.772	4.79
473.976	4.79
474.18	4.78
474.384	4.75
474.588	4.77
474.792	4.76
474.995	4.75
475.199	4.74
475.403	4.73
475.607	4.75
475.811	4.77
476.015	4.81
476.218	4.82
476.422	4.85
476.626	4.8
476.83	4.81
477.033	4.8
477.237	4.81
477.441	4.81
477.644	4.83
477.848	4.8
478.052	4.86
478.255	4.89
478.459	4.93
478.663	4.88
478.866	4.88
479.07	4.9
479.273	4.9
479.477	4.92
479.681	4.9
479.884	4.83
480.088	4.89
480.291	4.9
480.495	4.88
480.698	4.86
480.901	4.87
481.105	4.91
481.308	4.94
481.512	4.96
481.715	4.99
481.919	4.98
482.122	5.04
482.325	5.03
482.529	5.04
482.732	5.08
482.935	5.08
483.138	5.06
483.342	5.1
483.545	5.1
483.748	5.13
483.952	5.12
484.155	5.11
484.358	5.06
484.561	5.08
484.764	5.06
484.967	5.04
485.171	4.99
485.374	5.01
485.577	5.02
485.78	5.02
485.983	5.01
486.186	5.02
486.389	4.99
486.592	4.99
486.795	4.99
486.998	4.99
487.201	4.98
487.404	4.99
487.607	4.98
487.81	5.01
488.013	5.03
488.216	4.99
488.419	4.96
488.622	4.96
488.825	4.93
489.028	4.88
489.231	4.89
489.433	4.83
489.636	4.8
489.839	4.84
490.042	4.84
490.245	4.85
490.447	4.86
490.65	4.82
490.853	4.85
491.056	4.89
491.258	4.89
491.461	4.89
491.664	4.86
491.866	4.9
492.069	4.95
492.272	4.93
492.474	4.89
492.677	4.87
492.879	4.85
493.082	4.89
493.285	4.88
493.487	4.83
493.69	4.82
493.892	4.88
494.095	4.88
494.297	4.94
494.5	4.91
494.702	4.91
494.905	4.95
495.107	4.92
495.309	4.88
495.512	4.88
495.714	4.86
495.917	4.87
496.119	4.87
496.321	4.86
496.524	4.91
496.726	4.91
496.928	4.91
497.13	4.91
497.333	4.93
497.535	4.91
497.737	4.92
497.939	4.93
498.142	4.91
498.344	4.91
498.546	4.91
498.748	4.87
498.95	4.87
499.152	4.83
499.355	4.82
499.557	4.87
499.759	4.9
499.961	4.9
500.163	4.92
500.365	4.92
500.567	4.96
500.769	5
500.971	4.99
501.173	4.94
501.375	4.95
501.577	4.95
501.779	4.98
501.981	4.98
502.183	4.94
502.385	4.91
502.587	4.95
502.788	4.9
502.99	4.92
503.192	4.92
503.394	4.96
503.596	4.99
503.798	5.08
503.999	5.1
504.201	5.15
504.403	5.13
504.605	5.16
504.806	5.14
505.008	5.1
505.21	5.06
505.411	5.08
505.613	5.1
505.815	5.1
506.016	5.11
506.218	5.11
506.42	5.15
506.621	5.13
506.823	5.09
507.024	5.07
507.226	5.1
507.427	5.04
507.629	5.09
507.83	5.07
508.032	5.08
508.233	5.12
508.435	5.1
508.636	5.1
508.838	5.14
509.039	5.12
509.24	5.15
509.442	5.13
509.643	5.09
509.845	5.1
510.046	5.08
510.247	5.13
510.448	5.15
510.65	5.18
510.851	5.22
511.052	5.25
511.254	5.26
511.455	5.28
511.656	5.24
511.857	5.23
512.058	5.25
512.26	5.25
512.461	5.26
512.662	5.28
512.863	5.28
513.064	5.28
513.265	5.27
513.466	5.25
513.667	5.24
513.868	5.25
514.069	5.23
514.27	5.21
514.471	5.22
514.672	5.23
514.873	5.24
515.074	5.27
515.275	5.26
515.476	5.27
515.677	5.28
515.878	5.33
516.079	5.34
516.28	5.3
516.481	5.28
516.682	5.33
516.882	5.32
517.083	5.31
517.284	5.29
517.485	5.3
517.686	5.32
517.886	5.33
518.087	5.29
518.288	5.31
518.488	5.32
518.689	5.31
518.89	5.32
519.091	5.32
519.291	5.32
519.492	5.33
519.692	5.38
519.893	5.4
520.094	5.42
520.294	5.39
520.495	5.4
520.695	5.39
520.896	5.39
521.096	5.33
521.297	5.33
521.497	5.32
521.698	5.32
521.898	5.33
522.099	5.34
522.299	5.36
522.499	5.37
522.7	5.4
522.9	5.41
523.101	5.42
523.301	5.41
523.501	5.41
523.702	5.4
523.902	5.41
524.102	5.38
524.302	5.39
524.503	5.4
524.703	5.41
524.903	5.41
525.103	5.43
525.304	5.42
525.504	5.43
525.704	5.43
525.904	5.43
526.104	5.44
526.304	5.46
526.504	5.45
526.705	5.46
526.905	5.49
527.105	5.49
527.305	5.47
527.505	5.46
527.705	5.46
527.905	5.45
528.105	5.45
528.305	5.44
528.505	5.43
528.705	5.45
528.905	5.43
529.105	5.44
529.304	5.47
529.504	5.46
529.704	5.46
529.904	5.52
530.104	5.5
530.304	5.56
530.503	5.57
530.703	5.58
530.903	5.6
531.103	5.6
531.303	5.59
531.502	5.6
531.702	5.59
531.902	5.6
532.101	5.58
532.301	5.58
532.501	5.6
532.7	5.57
532.9	5.62
533.1	5.62
533.299	5.66
533.499	5.68
533.698	5.73
533.898	5.75
534.097	5.76
534.297	5.76
534.496	5.77
534.696	5.76
534.895	5.78
535.095	5.77
535.294	5.77
535.494	5.82
535.693	5.83
535.892	5.85
536.092	5.86
536.291	5.88
536.491	5.9
536.69	5.92
536.889	5.89
537.088	5.9
537.288	5.96
537.487	5.96
537.686	5.98
537.886	5.98
538.085	6.03
538.284	6.06
538.483	6.07
538.682	6.06
538.882	6.1
539.081	6.14
539.28	6.15
539.479	6.13
539.678	6.2
539.877	6.21
540.076	6.21
540.275	6.22
540.474	6.2
540.673	6.23
540.872	6.27
541.071	6.25
541.27	6.27
541.469	6.32
541.668	6.36
541.867	6.42
542.066	6.43
542.265	6.44
542.464	6.44
542.663	6.49
542.862	6.48
543.06	6.47
543.259	6.48
543.458	6.5
543.657	6.51
543.856	6.55
544.054	6.55
544.253	6.58
544.452	6.59
544.651	6.62
544.849	6.64
545.048	6.67
545.247	6.72
545.445	6.72
545.644	6.77
545.843	6.84
546.041	6.87
546.24	6.93
546.438	6.99
546.637	7.02
546.836	7.07
547.034	7.1
547.233	7.12
547.431	7.16
547.63	7.18
547.828	7.21
548.027	7.21
548.225	7.29
548.423	7.33
548.622	7.39
548.82	7.44
549.019	7.48
549.217	7.52
549.415	7.6
549.614	7.6
549.812	7.65
550.01	7.66
550.209	7.73
550.407	7.79
550.605	7.85
550.803	7.91
551.002	7.97
551.2	8.02
551.398	8.08
551.596	8.12
551.794	8.19
551.993	8.24
552.191	8.3
552.389	8.38
552.587	8.41
552.785	8.48
552.983	8.54
553.181	8.56
553.379	8.57
553.577	8.66
553.775	8.71
553.973	8.8
554.171	8.85
554.369	8.87
554.567	8.94
554.765	9.01
554.963	9.03
555.161	9.06
555.359	9.1
555.557	9.19
555.755	9.26
555.952	9.35
556.15	9.42
556.348	9.47
556.546	9.54
556.744	9.61
556.941	9.67
557.139	9.74
557.337	9.76
557.535	9.86
557.732	9.95
557.93	10.04
558.128	10.08
558.325	10.14
558.523	10.23
558.721	10.31
558.918	10.37
559.116	10.41
559.313	10.48
559.511	10.56
559.708	10.6
559.906	10.66
560.104	10.74
560.301	10.8
560.498	10.89
560.696	10.94
560.893	11.04
561.091	11.15
561.288	11.21
561.486	11.26
561.683	11.31
561.88	11.38
562.078	11.47
562.275	11.52
562.473	11.58
562.67	11.66
562.867	11.75
563.064	11.86
563.262	11.99
563.459	12.07
563.656	12.16
563.853	12.26
564.051	12.31
564.248	12.39
564.445	12.47
564.642	12.49
564.839	12.6
565.036	12.71
565.234	12.78
565.431	12.89
565.628	13
565.825	13.06
566.022	13.12
566.219	13.12
566.416	13.16
566.613	13.25
566.81	13.25
567.007	13.28
567.204	13.35
567.401	13.43
567.598	13.5
567.795	13.53
567.991	13.55
568.188	13.64
568.385	13.73
568.582	13.77
568.779	13.81
568.976	13.89
569.172	13.98
569.369	14.05
569.566	14.1
569.763	14.1
569.96	14.18
570.156	14.17
570.353	14.21
570.55	14.27
570.746	14.3
570.943	14.31
571.14	14.36
571.336	14.33
571.533	14.44
571.729	14.47
571.926	14.48
572.123	14.5
572.319	14.55
572.516	14.58
572.712	14.65
572.909	14.67
573.105	14.7
573.302	14.7
573.498	14.74
573.695	14.74
573.891	14.75
574.087	14.74
574.284	14.71
574.48	14.7
574.677	14.76
574.873	14.79
575.069	14.84
575.266	14.85
575.462	14.86
575.658	14.89
575.854	14.93
576.051	14.9
576.247	14.86
576.443	14.84
576.639	14.83
576.835	14.82
577.032	14.82
577.228	14.81
577.424	14.88
577.62	14.9
577.816	14.88
578.012	14.89
578.208	14.92
578.404	14.96
578.6	15
578.796	14.94
578.993	14.93
579.189	14.96
579.384	14.98
579.58	14.97
579.776	14.88
579.972	14.84
580.168	14.81
580.364	14.8
580.56	14.78
580.756	14.76
580.952	14.74
581.148	14.78
581.343	14.79
581.539	14.82
581.735	14.79
581.931	14.79
582.127	14.78
582.322	14.8
582.518	14.78
582.714	14.74
582.909	14.69
583.105	14.68
583.301	14.65
583.496	14.6
583.692	14.54
583.888	14.54
584.083	14.52
584.279	14.57
584.474	14.54
584.67	14.49
584.866	14.55
585.061	14.58
585.257	14.56
585.452	14.56
585.648	14.53
585.843	14.56
586.039	14.58
586.234	14.53
586.429	14.53
586.625	14.54
586.82	14.51
587.015	14.45
587.211	14.46
587.406	14.51
587.601	14.52
587.797	14.49
587.992	14.48
588.187	14.5
588.383	14.56
588.578	14.52
588.773	14.47
588.968	14.51
589.163	14.53
589.359	14.48
589.554	14.5
589.749	14.51
589.944	14.53
590.139	14.59
590.334	14.53
590.529	14.6
590.724	14.64
590.919	14.67
591.114	14.67
591.309	14.7
591.504	14.69
591.699	14.77
591.894	14.77
592.089	14.81
592.284	14.78
592.479	14.82
592.674	14.82
592.869	14.85
593.064	14.91
593.259	14.93
593.454	14.94
593.648	14.99
593.843	15.05
594.038	15.1
594.233	15.18
594.428	15.19
594.622	15.24
594.817	15.29
595.012	15.4
595.206	15.45
595.401	15.53
595.596	15.57
595.79	15.62
595.985	15.69
596.18	15.78
596.374	15.81
596.569	15.83
596.763	15.91
596.958	15.93
597.153	15.97
597.347	16
597.542	16.06
597.736	16.13
597.931	16.22
598.125	16.27
598.319	16.33
598.514	16.38
598.708	16.43
598.903	16.51
599.097	16.57
599.291	16.59
599.486	16.63
599.68	16.68
599.874	16.74
600.069	16.78
600.263	16.77
600.457	16.79
600.651	16.82
600.846	16.86
601.04	16.86
601.234	16.93
601.428	16.94
601.622	16.94
601.817	17.02
602.011	17.11
602.205	17.1
602.399	17.14
602.593	17.11
602.787	17.16
602.981	17.22
603.175	17.16
603.369	17.16
603.563	17.19
603.757	17.21
603.951	17.2
604.145	17.21
604.339	17.2
604.533	17.21
604.727	17.15
604.921	17.11
605.115	17.06
605.309	17.07
605.502	17.03
605.696	16.95
605.89	16.96
606.084	16.91
606.278	16.88
606.471	16.91
606.665	16.86
606.859	16.8
607.053	16.8
607.246	16.73
607.44	16.7
607.634	16.64
607.827	16.52
608.021	16.44
608.214	16.42
608.408	16.35
608.602	16.3
608.795	16.26
608.989	16.22
609.182	16.26
609.376	16.26
609.569	16.17
609.763	16.14
609.956	16.06
610.15	15.97
610.343	15.93
610.537	15.85
610.73	15.78
610.923	15.74
611.117	15.69
611.31	15.67
611.504	15.66
611.697	15.62
611.89	15.54
612.083	15.47
612.277	15.38
612.47	15.3
612.663	15.24
612.856	15.14
613.05	15.04
613.243	14.97
613.436	14.94
613.629	14.94
613.822	14.88
614.015	14.82
614.209	14.77
614.402	14.7
614.595	14.62
614.788	14.54
614.981	14.44
615.174	14.41
615.367	14.37
615.56	14.31
615.753	14.24
615.946	14.24
616.139	14.21
616.332	14.15
616.525	14.11
616.718	14.03
616.911	14.02
617.103	14
617.296	13.95
617.489	13.91
617.682	13.88
617.875	13.81
618.067	13.75
618.26	13.69
618.453	13.63
618.646	13.59
618.838	13.53
619.031	13.49
619.224	13.47
619.417	13.45
619.609	13.42
619.802	13.41
619.994	13.38
620.187	13.38
620.38	13.34
620.572	13.32
620.765	13.27
620.957	13.22
621.15	13.18
621.342	13.17
621.535	13.14
621.727	13.12
621.92	13.1
622.112	13.13
622.305	13.1
622.497	13.06
622.69	13.03
622.882	13.02
623.074	13.02
623.267	12.97
623.459	12.93
623.651	12.91
623.844	12.93
624.036	12.92
624.228	12.89
624.42	12.83
624.613	12.82
624.805	12.8
624.997	12.81
625.189	12.78
625.381	12.73
625.574	12.71
625.766	12.69
625.958	12.7
626.15	12.67
626.342	12.63
626.534	12.56
626.726	12.57
626.918	12.53
627.11	12.55
627.302	12.48
627.494	12.48
627.686	12.45
627.878	12.44
628.07	12.4
628.262	12.37
628.454	12.31
628.646	12.33
628.838	12.28
629.029	12.25
629.221	12.24
629.413	12.17
629.605	12.13
629.797	12.13
629.989	12.1
630.18	12.08
630.372	12.06
630.564	12.09
630.755	12.09
630.947	12.07
631.139	11.99
631.33	11.97
631.522	11.95
631.714	11.94
631.905	11.88
632.097	11.85
632.289	11.85
632.48	11.82
632.672	11.72
632.863	11.67
633.055	11.65
633.246	11.65
633.438	11.65
633.629	11.64
633.821	11.6
634.012	11.65
634.203	11.66
634.395	11.64
634.586	11.58
634.777	11.54
634.969	11.54
635.16	11.58
635.351	11.56
635.543	11.49
635.734	11.45
635.925	11.49
636.117	11.49
636.308	11.45
636.499	11.42
636.69	11.45
636.881	11.51
637.073	11.53
637.264	11.5
637.455	11.54
637.646	11.59
637.837	11.58
638.028	11.56
638.219	11.54
638.41	11.5
638.601	11.49
638.792	11.41
638.983	11.35
639.174	11.36
639.365	11.29
639.556	11.27
639.747	11.28
639.938	11.3
640.129	11.29
640.32	11.32
640.511	11.29
640.701	11.24
640.892	11.22
641.083	11.19
641.274	11.15
641.465	11.11
641.655	11.07
641.846	11.03
642.037	11.08
642.228	11.02
642.418	10.96
642.609	10.92
642.8	10.88
642.99	10.86
643.181	10.86
643.372	10.83
643.562	10.84
643.753	10.86
643.943	10.85
644.134	10.87
644.324	10.82
644.515	10.82
644.705	10.78
644.896	10.77
645.086	10.71
645.277	10.7
645.467	10.7
645.658	10.69
645.848	10.66
646.038	10.65
646.229	10.66
646.419	10.69
646.61	10.66
646.8	10.62
646.99	10.59
647.18	10.57
647.371	10.52
647.561	10.47
647.751	10.42
647.941	10.41
648.132	10.4
648.322	10.41
648.512	10.45
648.702	10.44
648.892	10.45
649.082	10.43
649.272	10.42
649.462	10.41
649.653	10.4
649.843	10.3
650.033	10.31
650.223	10.27
650.413	10.34
650.603	10.3
650.793	10.24
650.983	10.22
651.172	10.26
651.362	10.22
651.552	10.18
651.742	10.06
651.932	10.06
652.122	10.08
652.312	9.93
652.502	9.87
652.691	9.85
652.881	9.82
653.071	9.77
653.261	9.73
653.45	9.68
653.64	9.74
653.83	9.67
654.019	9.55
654.209	9.49
654.399	9.42
654.588	9.33
654.778	9.24
654.968	9.13
655.157	9.09
655.347	9.02
655.536	8.96
655.726	8.94
655.915	8.85
656.105	8.8
656.294	8.71
656.484	8.59
656.673	8.5
656.863	8.4
657.052	8.24
657.241	8.12
657.431	7.97
657.62	7.83
657.809	7.74
657.999	7.66
658.188	7.56
658.377	7.51
658.567	7.43
658.756	7.31
658.945	7.22
659.134	7.08
659.324	7
659.513	6.86
659.702	6.74
659.891	6.61
660.08	6.59
660.269	6.56
660.458	6.52
660.648	6.41
660.837	6.38
661.026	6.33
661.215	6.27
661.404	6.15
661.593	6.03
661.782	5.96
661.971	5.8
662.16	5.68
662.349	5.59
662.538	5.57
662.726	5.49
662.915	5.48
663.104	5.35
663.293	5.36
663.482	5.34
663.671	5.26
663.86	5.16
664.048	5.14
664.237	5.03
664.426	5.06
664.615	5.04
664.803	4.97
664.992	4.98
665.181	4.94
665.369	4.87
665.558	4.87
665.747	4.88
665.935	4.87
666.124	4.91
666.312	4.85
666.501	4.82
666.69	4.81
666.878	4.8
667.067	4.75
667.255	4.73
667.444	4.74
667.632	4.69
667.82	4.73
668.009	4.8
668.197	4.84
668.386	4.75
668.574	4.75
668.762	4.71
668.951	4.78
669.139	4.81
669.327	4.79
669.516	4.79
669.704	4.92
669.892	4.93
670.08	4.94
670.269	4.94
670.457	4.89
670.645	4.9
670.833	4.91
671.021	4.91
671.21	4.96
671.398	5.01
671.586	5.04
671.774	5.08
671.962	5.14
672.15	5.15
672.338	5.23
672.526	5.26
672.714	5.34
672.902	5.42
673.09	5.51
673.278	5.49
673.466	5.58
673.654	5.56
673.842	5.62
674.03	5.62
674.218	5.62
674.405	5.66
674.593	5.72
674.781	5.71
674.969	5.77
675.157	5.81
675.344	5.85
675.532	5.95
675.72	6
675.908	6.07
676.095	6.2
676.283	6.2
676.471	6.23
676.658	6.29
676.846	6.32
677.033	6.4
677.221	6.49
677.409	6.53
677.596	6.71
677.784	6.77
677.971	6.89
678.159	6.95
678.346	7.03
678.534	7.08
678.721	7.12
678.909	7.11
679.096	7.17
679.283	7.16
679.471	7.23
679.658	7.31
679.846	7.42
680.033	7.53
680.22	7.59
680.408	7.69
680.595	7.73
680.782	7.76
680.969	7.72
681.157	7.74
681.344	7.82
681.531	7.89
681.718	7.96
681.905	8.11
682.093	8.24
682.28	8.44
682.467	8.49
682.654	8.5
682.841	8.64
683.028	8.74
683.215	8.82
683.402	8.87
683.589	8.93
683.776	9.08
683.963	9.25
684.15	9.3
684.337	9.45
684.524	9.55
684.711	9.71
684.898	9.89
685.085	10.03
685.271	10.18
685.458	10.45
685.645	10.57
685.832	10.82
686.019	11.06
686.205	11.2
686.392	11.39
686.579	11.57
686.766	11.78
686.952	12.1
687.139	12.24
687.326	12.51
687.512	12.81
687.699	13.12
687.886	13.34
688.072	13.6
688.259	13.83
688.445	14.18
688.632	14.53
688.818	14.86
689.005	15.27
689.191	15.76
689.378	16.05
689.564	16.5
689.751	16.95
689.937	17.24
690.124	17.7
690.31	18.05
690.496	18.49
690.683	18.97
690.869	19.37
691.055	19.84
691.242	20.3
691.428	20.78
691.614	21.34
691.8	21.7
691.987	22.28
692.173	22.88
692.359	23.45
692.545	24.08
692.731	24.61
692.918	25.16
693.104	25.68
693.29	26.28
693.476	26.79
693.662	27.32
693.848	27.89
694.034	28.43
694.22	28.97
694.406	29.79
694.592	30.34
694.778	30.84
694.964	31.47
695.15	32.08
695.336	32.77
695.522	33.55
695.708	34.14
695.894	34.72
696.08	35.44
696.265	36
696.451	36.61
696.637	37.13
696.823	37.52
697.009	38.09
697.194	38.78
697.38	39.39
697.566	39.91
697.751	40.55
697.937	41.25
698.123	41.85
698.308	42.34
698.494	42.79
698.68	43.29
698.865	43.95
699.051	44.48
699.236	45.03
699.422	45.62
699.607	46.25
699.793	46.87
699.978	47.37
700.164	47.93
700.349	48.49
700.535	48.93
700.72	49.5
700.906	49.86
701.091	50.27
701.276	50.89
701.462	51.31
701.647	51.56
701.832	52.08
702.018	52.45
702.203	52.92
702.388	53.35
702.573	53.8
702.759	54.25
702.944	54.85
703.129	55.13
703.314	55.6
703.499	55.96
703.684	56.34
703.87	56.66
704.055	56.99
704.24	57.42
704.425	57.97
704.61	58.16
704.795	58.66
704.98	58.96
705.165	59.26
705.35	59.6
705.535	59.97
705.72	60.11
705.905	60.54
706.09	60.77
706.275	61.09
706.459	61.59
706.644	61.85
706.829	61.94
707.014	62.37
707.199	62.52
707.384	62.87
707.568	63.28
707.753	63.59
707.938	64.16
708.123	64.44
708.307	64.86
708.492	65.21
708.677	65.5
708.861	65.66
709.046	65.53
709.231	65.5
709.415	65.64
709.6	65.57
709.784	65.96
709.969	66.21
710.153	66.61
710.338	67
710.522	67.26
710.707	67.43
710.891	67.69
711.076	67.67
711.26	67.8
711.445	67.99
711.629	68.34
711.813	68.37
711.998	68.45
712.182	68.84
712.366	69.37
712.551	69.56
712.735	69.41
712.919	69.57
713.103	69.74
713.288	70.18
713.472	70.1
713.656	69.8
713.84	69.91
714.024	70.36
714.208	70.28
714.393	70.46
714.577	70.61
714.761	71.03
714.945	71.28
715.129	71.48
715.313	71.49
715.497	71.81
715.681	72.09
715.865	72.26
716.049	72.34
716.233	72.69
716.417	72.89
716.601	73.09
716.785	73.11
716.968	73.17
717.152	73.32
717.336	73.15
717.52	73.1
717.704	73.23
717.888	73.21
718.071	73.4
718.255	73.53
718.439	73.38
718.622	73.62
718.806	73.47
718.99	73.51
719.174	73.58
719.357	73.6
719.541	73.73
719.724	74.15
719.908	74.34
720.092	74.72
720.275	74.83
720.459	74.95
720.642	75.2
720.826	75.18
721.009	75.03
721.193	74.96
721.376	75.03
721.559	75.1
721.743	75.04
721.926	74.85
722.11	75.12
722.293	74.92
722.476	74.84
722.66	74.94
722.843	74.85
723.026	74.96
723.21	75
723.393	75.07
723.576	75.41
723.759	75.77
723.942	75.95
724.126	76.22
724.309	76.43
724.492	76.62
724.675	76.58
724.858	76.85
725.041	76.8
725.224	76.77
725.407	76.5
725.59	76.57
725.774	76.94
725.957	77.38
726.14	77.36
726.322	77.38
726.505	77.61
726.688	77.84
726.871	77.95
727.054	77.76
727.237	77.62
727.42	78.07
727.603	78.06
727.786	78.02
727.968	78.47
728.151	78.82
728.334	78.85
728.517	78.73
728.699	78.59
728.882	79.03
729.065	79
729.248	78.45
729.43	78.42
729.613	78.61
729.796	78.6
729.978	78.75
730.161	79
730.343	79.29
730.526	79.77
730.708	80.13
730.891	80.43
731.073	80.62
731.256	80.5
731.438	80.69
731.621	80.9
731.803	80.94
731.986	80.85
732.168	80.6
732.35	80.64
732.533	80.85
732.715	80.74
732.898	80.61
733.08	80.6
733.262	80.65
733.444	80.74
733.627	80.87
733.809	80.74
733.991	80.66
734.173	80.67
734.355	81.18
734.538	81.24
734.72	81.54
734.902	81.56
735.084	82.24
735.266	82.18
735.448	82.38
735.63	82.12
735.812	82.02
735.994	81.73
736.176	82.04
736.358	81.59
736.54	81.8
736.722	81.58
736.904	81.75
737.086	81.65
737.268	81.99
737.45	81.71
737.632	81.21
737.814	81.39
737.995	81.58
738.177	81.81
738.359	82.19
738.541	81.86
738.723	81.81
738.904	81.87
739.086	81.77
739.268	82.24
739.449	82.18
739.631	82.05
739.813	81.88
739.994	82.65
740.176	83.32
740.358	83.25
740.539	82.92
740.721	82.96
740.902	82.69
741.084	83.34
741.265	82.9
741.447	82.62
741.628	82.52
741.81	82.81
741.991	82.82
742.172	83.13
742.354	82.88
742.535	83.12
742.717	83.21
742.898	83.71
743.079	83.29
743.261	83.17
743.442	83.34
743.623	83.53
743.804	83.6
743.986	83.4
744.167	83.02
744.348	83.66
744.529	83.24
744.71	83.08
744.891	83.17
745.073	82.75
745.254	83.19
745.435	83.13
745.616	82.62
745.797	82.56
745.978	82.68
746.159	82.29
746.34	83.04
746.521	82.91
746.702	82.75
746.883	82.95
747.064	83.32
747.245	83.6
747.426	83.97
747.606	83.13
747.787	83.83
747.968	84.4
748.149	84.08
748.33	84.74
748.51	84.35
748.691	84.39
748.872	84.82
749.053	84.32
749.233	84.2
749.414	84.81
749.595	83.88
749.775	83.82
749.956	83.47
750.137	83.59
750.317	83.57
750.498	83.89
750.678	83.65
750.859	84.14
751.04	84.28
751.22	84.28
751.4	84.51
751.581	84.37
751.761	84.25
751.942	84.18
752.122	84.31
752.303	84.44
752.483	84.66
752.663	84.94
752.844	84.78
753.024	84.39
753.204	83.81
753.385	83.22
753.565	82.71
753.745	82.37
753.925	81.74
754.106	81.89
754.286	81.93
754.466	82.37
754.646	82.47
754.826	82.2
755.006	82.52
755.187	82.4
755.367	82.54
755.547	82.94
755.727	82.11
755.907	83.09
756.087	83.33
756.267	83.59
756.447	83.95
756.627	83.52
756.807	83.52
756.987	84.79
757.167	83.98
757.346	83.53
757.526	82.88
757.706	82.96
757.886	83.31
758.066	82.8
758.246	82.43
758.425	82.26
758.605	83.04
758.785	83.53
758.965	82.46
759.144	82.96
759.324	83.43
759.504	83.64
759.683	83.71
759.863	83.6
760.043	83.37
760.222	83.87
760.402	84.16
760.581	83.61
760.761	82.37
760.94	81.71
761.12	81.7
761.299	81.33
761.479	81.33
761.658	79.89
761.838	80.52
762.017	81.72
762.197	83.41
762.376	83.51
762.555	84.1
762.735	83.39
762.914	84.19
763.093	83.69
763.273	82.99
763.452	82.33
763.631	81.46
763.81	81.49
763.99	82.25
764.169	81.88
764.348	82.04
764.527	82.56
764.706	83.14
764.885	84.3
765.064	83.84
765.243	83.51
765.423	83.61
765.602	82.79
765.781	82.4
765.96	82.04
766.139	81.32
766.318	82.5
766.497	82.31
766.676	83.21
766.854	82.72
767.033	82.48
767.212	81.58
767.391	81.57
767.57	80.76
767.749	81.42
767.928	79.69
768.106	80.94
768.285	80.64
768.464	81.38
768.643	81.93
768.821	81.8
769	81.31
769.179	81.16
769.357	81.16
769.536	81.59
769.715	80.45
769.893	80.11
770.072	79.87
770.25	79.74
770.429	81.13
770.607	81.41
770.786	81.98
770.964	82
771.143	82.26
771.321	81.84
771.5	81.63
771.678	80.69
771.857	80.27
772.035	79.23
772.213	79.24
772.392	79.08
772.57	79.76
772.748	79.35
772.927	79.43
773.105	78.92
773.283	79.01
773.461	78.81
773.64	78.28
773.818	77.22
773.996	78.07
774.174	78.11
774.352	78.76
774.531	79.17
774.709	80.94
774.887	81.06
775.065	81.82
775.243	83.28
775.421	82.23
775.599	81.19
775.777	81.64
775.955	80.39
776.133	79.92
776.311	79.83
776.489	78.47
776.667	79.64
776.844	79.93
777.022	79.18
777.2	79.04
777.378	80.52
777.556	80.87
777.734	81.42
777.911	81.99
778.089	81.85
778.267	81.61
778.445	81.49
778.622	79.97
778.8	79.88
778.978	78.26
779.155	77.55
779.333	76.06
779.511	76.2
779.688	75.7
779.866	76.3
780.043	76.4
780.221	77.05
780.398	78.5
780.576	79.55
780.753	79.07
780.931	81.08
781.108	81.17
781.286	79.85
781.463	80.61
781.64	79.64
781.818	80.6
781.995	81.68
782.172	79.52
782.35	78.77
782.527	80.88
782.704	78.67
782.882	78.85
783.059	77.94
783.236	78.39
783.413	79.86
783.59	79.22
783.768	79.23
783.945	81.39
784.122	81.63
784.299	82.57
784.476	81.72
784.653	81.55
784.83	81.48
785.007	79.92
785.184	79.13
785.361	77.67
785.538	77.73
785.715	77.4
785.892	75.02
786.069	75.79
786.246	75.55
786.423	77.37
786.6	78.6
786.776	77.87
786.953	77.94
787.13	80.85
787.307	80.9
787.484	82.27
787.66	80.76
787.837	80.83
788.014	80.72
788.191	80.68
788.367	78.88
788.544	78.97
788.721	78.81
788.897	80.71
789.074	79.57
789.25	81.79
789.427	82.34
789.603	84.66
789.78	86.54
789.956	83.81
790.133	83.2
790.309	84.25
790.486	83.54
790.662	83.04
790.839	81.97
791.015	80.09
791.192	81.68
791.368	81.28
791.544	79.43
791.721	75.96
791.897	75.68
792.073	74.85
792.249	77.38
792.426	78.44
792.602	77.57
792.778	77.52
792.954	80.76
793.13	82.83
793.307	82.82
793.483	79.75
793.659	80.46
793.835	79.39
794.011	79.48
794.187	75.36
794.363	75.07
794.539	75.3
794.715	74.05
794.891	70.84
795.067	70.59
795.243	72.34
795.419	76.59
795.595	76.23
795.771	77.8
795.947	78.66
796.122	80.57
796.298	79.78
796.474	79.69
796.65	79.18
796.826	79.82
797.001	78.02
797.177	77.76
797.353	79.98
797.529	82.34
797.704	83.53
797.88	81.43
798.056	81.9
798.231	83.35
798.407	87.19
798.582	84.79
798.758	85.98
798.934	82.98
799.109	82.99
799.285	79.65
799.46	78.86
799.636	76.22
799.811	77.05
799.986	75.27
800.162	77.48
800.337	76.71
800.513	80.48
800.688	85.16
800.863	84.7
801.039	82.37
801.214	81.55
801.389	80.02
801.565	82.72
801.74	80.02
801.915	74.55
802.09	75.09
802.265	75.64
802.441	79.57
802.616	78.33
802.791	76.22
802.966	76.26
803.141	73.35
803.316	74.26
803.491	74.82
803.666	71.86
803.841	73.91
804.016	76.41
804.191	75.71
804.366	80.92
804.541	80.56
804.716	78.57
804.891	80.53
805.066	79.53
805.241	79.02
805.416	77.52
805.591	77.87
805.765	79.31
805.94	82.9
806.115	79.24
806.29	79.43
806.464	76.93
806.639	78.57
806.814	74.57
806.989	70.77
807.163	68.48
807.338	70.79
807.512	67.48
807.687	70.5
807.862	68.92
808.036	68.85
808.211	73.27
808.385	72.91
808.56	79.78
808.734	83.39
808.909	82.33
809.083	84.6
809.258	89.43
809.432	86.07
809.606	87.11
809.781	80.24
809.955	78.54
810.13	82.51
810.304	82.47
810.478	80.58
810.652	82.17
810.827	83.25
811.001	82.37
811.175	80.56
811.349	76.39
811.524	71.8
811.698	73.12
811.872	73.52
812.046	67.96
812.22	67.93
812.394	67.93
812.568	71.91
812.742	75.01
812.916	73.69
813.09	71.52
813.264	75.42
813.438	80.91
813.612	83.59
813.786	80.2
813.96	82.43
814.134	85.22
814.308	82.08
814.482	85.61
814.656	82.39
814.83	82.98
815.003	82.98
815.177	84.11
815.351	83.59
815.525	85.64
815.698	80.66
815.872	79.66
816.046	77.97
816.219	79.6
816.393	77.62
816.567	75.87
816.74	79.15
816.914	79.09
817.088	79.85
817.261	82.25
817.435	78.91
817.608	78.94
817.782	81.49
817.955	78.19
818.129	84.07
818.302	82.11
818.475	80.14
818.649	78
818.822	76.97
818.996	75.92
819.169	74.39
819.342	71.01
819.516	70.08
819.689	72.82
819.862	70.8
820.035	69.65
820.209	63.28
820.382	65.43
820.555	68.32
820.728	66.1
820.901	57.76
821.075	65.39
821.248	66.85
821.421	66.72
821.594	70.79
821.767	69.81
821.94	68.37
822.113	74.46
822.286	72.27
822.459	75.27
822.632	81.76
822.805	76.56
822.978	71.11
823.151	74.79
823.324	69.93
823.496	59.52
823.669	62.84
823.842	60.71
824.015	56.7
824.188	66.59
824.361	64.01
824.533	74.58
824.706	94.28
824.879	82.2
825.051	84.87
825.224	88.92
825.397	77.23
825.569	82.58
825.742	79.64
825.915	71.01
826.087	69.84
826.26	62.71
826.432	64.97
826.605	70.46
826.777	67.36
826.95	61.6
827.122	61.32
827.295	61.73
827.467	57.28
827.64	47.13
827.812	46.58
827.984	49.2
828.157	51.5
828.329	54.74
828.501	53.27
828.674	58.32
828.846	62.32
829.018	62.57
829.19	53.79
829.363	52.12
829.535	56.34
829.707	55.03
829.879	57.5
830.051	56.95
830.223	53.26
830.395	59.04
830.568	69.02
830.74	68.21
830.912	69.64
831.084	66.33
831.256	65.33
831.428	60.24
831.6	55.55
831.772	45.33
831.943	34.84
832.115	35.87
832.287	28.33
832.459	24.25
832.631	37.47
832.803	43.37
832.975	39.37
833.146	44.14
833.318	51.86
833.49	65.72
833.662	70.13
833.833	80.95
834.005	86.07
834.177	85.93
834.348	85.28
834.52	87.2
834.692	86.86
834.863	88.91
835.035	69.42
835.206	59.92
835.378	62.92
835.549	63.63
835.721	58.53
835.892	54.14
836.064	61.2
836.235	63.86
836.407	63.77
836.578	66.39
836.749	72
836.921	68.19
837.092	72.94
837.264	60.98
837.435	56.25
837.606	59.2
837.777	53.46
837.949	42.63
838.12	39.1
838.291	44.14
838.462	59.51
838.633	69.32
838.805	68.37
838.976	74.25
839.147	73.09
839.318	79.1
839.489	75.07
839.66	67.51
839.831	54.81
840.002	48.19
840.173	57.01
840.344	81.52
840.515	85.39
840.686	85.78
840.857	75.4
841.028	85.12
841.199	92.41
841.369	74.5
841.54	55.75
841.711	48.47
841.882	39.42
842.053	35.47
842.223	35.6
842.394	33.46
842.565	50.88
842.736	59.45
842.906	73.41
843.077	75.08
843.248	81.28
843.418	68.31
843.589	73.04
843.759	70.27
843.93	65.16
844.101	63.45
844.271	62.95
844.442	53.73
844.612	59.71
844.783	41.59
844.953	29.38
845.123	36.88
845.294	20.68
845.464	27.64
845.635	42.42
845.805	42.87
845.975	53.29
846.146	59.11
846.316	60.69
846.486	79.94
846.656	79.92
846.827	78.6
846.997	99.57
847.167	101.57
847.337	102.61
847.507	97.33
847.677	94.83
847.848	92.45
848.018	97.43
848.188	86.09
848.358	97.18
848.528	94.63
848.698	73.84
848.868	67.15
849.038	70.63
849.208	59.71
849.378	52.5
849.548	43.47
849.718	37.14
849.887	51.83
850.057	56.25
850.227	52.7
850.397	38.4
850.567	42.48
850.737	36.5
850.906	45.91
851.076	41.95
851.246	53.56
851.415	62.6
851.585	65.87
851.755	70.22
851.924	77.99
852.094	72.2
852.264	83.52
852.433	79.32
852.603	89.64
852.772	90.3
852.942	81.82
853.111	76.32
853.281	78.61
853.45	65.93
853.62	60.57
853.789	51.3
853.959	56.61
854.128	35.69
854.297	37.19
854.467	28.02
854.636	35.31
854.805	48.19
854.975	58.44
855.144	52.71
855.313	79.78
855.482	84.12
855.652	88.02
855.821	94.53
855.99	90.63
856.159	80.04
856.328	72.28
856.497	57.97
856.667	59.77
856.836	61.04
857.005	46.61
857.174	52.05
857.343	47.06
857.512	43.75
857.681	38.52
857.85	29.98
858.019	39.84
858.188	45.76
858.356	36.65
858.525	37.33
858.694	66.05
858.863	67.07
859.032	63.92
859.201	57.97
859.369	62.63
859.538	58.03
859.707	62.36
859.876	51.91
860.044	59.43
860.213	60.49
860.382	47.64
860.55	54.64
860.719	66.44
860.888	62.34
861.056	69.94
861.225	60.1
861.393	66.64
861.562	66.69
861.73	41.98
861.899	20.55
862.067	41.04
862.236	32.03
862.404	33.81
862.572	31.11
862.741	36.12
862.909	40.57
863.078	48.57
863.246	35.9
863.414	34.63
863.582	22.6
863.751	21.35
863.919	33.85
864.087	30.8
864.255	28.26
864.424	40.01
864.592	30.21
864.76	55.03
864.928	64.88
865.096	48.6
865.264	62.15
865.432	58.66
865.6	39.78
865.768	49.12
865.936	35.18
866.104	32.2
866.272	53.74
866.44	20.95
866.608	42.94
866.776	62.25
866.944	52.6
867.112	37.16
867.28	29.39
867.448	31.51
867.615	44.26
867.783	30.43
867.951	29.78
868.119	53.96
868.286	78.05
868.454	59.83
868.622	59.45
868.789	84.25
868.957	87.05
869.125	80.22
869.292	68.39
869.46	53.61
869.627	52.34
869.795	56.65
869.963	21.78
870.13	22.71
870.298	16.42
870.465	-13.15
870.632	-5.64
870.8	-8.83
870.967	-12.47
871.135	15.91
871.302	17.85
871.469	20.36
871.637	40.18
871.804	38.49
871.971	54.6
872.139	73.57
872.306	67.66
872.473	67.13
872.64	60.28
872.807	73.2
872.975	97.17
873.142	72.29
873.309	35.18
873.476	49.85
873.643	75.87
873.81	95.21
873.977	-1.65
874.144	-43.19
874.311	-53.3
874.478	9.17
874.645	-7.15
874.812	5.58
874.979	-16.05
875.146	-5.42
875.313	-16.12
875.48	87.5
875.647	62.71
875.813	70.83
875.98	81.37
876.147	97.94
876.314	115.91
876.481	92.34
876.647	55.8
876.814	56.36
876.981	58.28
877.147	43.21
877.314	40.68
877.481	35.29
877.647	53.01
877.814	54.89
877.98	74.15
878.147	57.26
878.314	71.51
878.48	48.3
878.647	56.64
878.813	47.35
878.979	31.44
879.146	41.24
879.312	48.8
879.479	49.67
879.645	48.53
879.811	37.33
879.978	30.7
880.144	55.99
880.31	30.94
880.477	41.85
880.643	46.42
880.809	104.62
880.975	62.37
881.142	64.33
881.308	78.91
881.474	100.66
881.64	59.33
881.806	50.99
881.972	49.79
882.138	71.33
882.304	36.16
882.47	-18.48
882.636	-60.01
882.802	-108.28
882.968	-205.58
883.134	-431.98
883.3	-138.29
883.466	5.14
883.632	13.06
883.798	30.69
883.964	45.5
884.129	77.64
884.295	73.16
884.461	65.48
884.627	56.03
884.793	81.99
884.958	88.07
885.124	63.85
885.29	41.26
885.455	34.28
885.621	27.14
885.787	6.81
885.952	-4.12
886.118	1.8
886.283	53.8
886.449	54.35
886.614	101.6
886.78	110.73
886.945	111.19
887.111	119.91
887.276	80.01
887.442	47.89
887.607	36.13
887.773	18.41
887.938	-16.1
888.103	27.68
888.269	29.95
888.434	38.92
888.599	52.86
888.764	59.08
888.93	58.22
889.095	63.91
889.26	71.69
889.425	68.59
889.59	49.22
889.756	40.62
889.921	38.24
890.086	74.3
890.251	59
890.416	8.27
890.581	18.94
890.746	18.06
890.911	-23.04
891.076	-32.12
891.241	-131.5
891.406	-35.11
891.571	10.76
891.736	20.93
891.901	40.79
892.065	52.03
892.23	38.23
892.395	26.28
892.56	19.02
892.725	-3.42
892.889	-50.56
893.054	-103.06
893.219	-157.75
893.384	-249.25
893.548	-595.83
893.713	1100.74
893.878	550.54
