Data from Ofra_PS_T2_1A_6GT17_Reflection_3.txt Node
Date: Wed Jul 21 18:13:46 EDT 2021
User: Adam
Spectrometer: FLMT01687
Trigger mode: 0
Integration Time (sec): 1.100000E0
Scans to average: 2
Electric dark correction enabled: true
Nonlinearity correction enabled: false
Boxcar width: 2
XAxis mode: Wavelengths
Number of Pixels in Spectrum: 3648
>>>>>Begin Spectral Data<<<<<
179.494	366.4
179.716	443.06
179.937	398.79
180.158	379
180.38	520
180.601	114.92
180.823	50.9
181.044	45.97
181.265	276.47
181.486	94.37
181.708	109.01
181.929	497.96
182.15	188.73
182.372	179.05
182.593	42.51
182.814	39.59
183.035	100
183.257	25.11
183.478	-20
183.699	41.87
183.92	-12.77
184.141	-9.06
184.363	9.45
184.584	70.08
184.805	60.57
185.026	80.8
185.247	74.92
185.468	46.07
185.689	36.33
185.91	15.81
186.132	5.7
186.353	-1.76
186.574	58.46
186.795	38.97
187.016	17.12
187.237	34.39
187.458	18.18
187.679	-11.83
187.9	-6.5
188.121	-2.87
188.342	-23.24
188.563	19.32
188.784	21.8
189.005	30.02
189.226	83.45
189.447	53.99
189.667	-176.7
189.888	-347.78
190.109	-1368.83
190.33	-726.45
190.551	-953.98
190.772	-157.14
190.993	-111.22
191.214	-85.37
191.434	-46.34
191.655	2.45
191.876	-0.18
192.097	-53.67
192.318	-77.05
192.538	-164.81
192.759	-152.33
192.98	-71.74
193.201	-10.59
193.421	4.43
193.642	26.07
193.863	17.29
194.083	-14.11
194.304	-32.32
194.525	-25.49
194.745	-46.59
194.966	-14.23
195.187	3.47
195.407	19.11
195.628	-10.78
195.848	-61.77
196.069	-63.21
196.29	-36.33
196.51	-67.85
196.731	-43.09
196.951	-41.78
197.172	-89.24
197.392	-122.17
197.613	-119.14
197.833	-165.16
198.054	-129.31
198.274	-42.7
198.495	-42.07
198.715	-23.21
198.936	-54.14
199.156	-54.54
199.377	-156.01
199.597	-160.29
199.817	-152.01
200.038	-63.12
200.258	-114.97
200.479	-47.59
200.699	1.41
200.919	57.86
201.14	12.7
201.36	5.06
201.58	23.46
201.801	35.94
202.021	-2.15
202.241	6.75
202.461	6.11
202.682	-72.54
202.902	-143.75
203.122	-84.83
203.342	-76.75
203.563	-26.88
203.783	-4.38
204.003	-37.9
204.223	-38.17
204.443	22.86
204.663	-3.7
204.884	10.72
205.104	70.96
205.324	106.95
205.544	95.25
205.764	100.22
205.984	89.87
206.204	75.73
206.424	55.35
206.644	39.79
206.864	36.09
207.084	29.67
207.304	62.94
207.525	59.69
207.745	25.14
207.964	38.81
208.184	-1.98
208.404	-70.72
208.624	-90.07
208.844	-110.1
209.064	-447.47
209.284	-481.35
209.504	-242.78
209.724	-77.14
209.944	-19.76
210.164	17.78
210.384	32.01
210.604	17.4
210.823	-11.06
211.043	-33.78
211.263	-4.84
211.483	-6.81
211.703	-56.8
211.922	-16.32
212.142	30.64
212.362	27.64
212.582	20.95
212.801	59.1
213.021	21.1
213.241	-7.03
213.461	-39.42
213.68	-60.55
213.9	-62.44
214.12	-49.49
214.339	-78.5
214.559	-81.89
214.779	-20.09
214.998	-10.17
215.218	-36.04
215.438	-7.61
215.657	19.32
215.877	18.64
216.096	17.12
216.316	32.13
216.535	18.91
216.755	14.03
216.974	-74.6
217.194	-74.32
217.413	-78.61
217.633	-40.43
217.852	-94.63
218.072	-15.59
218.291	6.52
218.511	38.47
218.73	6.52
218.95	1.06
219.169	-6.12
219.389	-64.88
219.608	-51.94
219.827	-46.28
220.047	-40.06
220.266	-29.02
220.485	3.49
220.705	10.66
220.924	-18.06
221.143	20.58
221.363	2.78
221.582	9.64
221.801	10.58
222.021	41.3
222.24	-21.09
222.459	22.03
222.678	6.5
222.897	-49.53
223.117	-114.14
223.336	-66.14
223.555	-38.88
223.774	-10.45
223.993	-19.6
224.213	76.44
224.432	68.76
224.651	80.44
224.87	52.84
225.089	73.7
225.308	50.06
225.527	46.78
225.746	42.22
225.965	40.23
226.184	22.73
226.404	38.71
226.623	22.9
226.842	17.86
227.061	32.75
227.28	29.66
227.499	7.23
227.718	31.38
227.936	20.13
228.155	29.93
228.374	16.31
228.593	16.7
228.812	6.69
229.031	11.42
229.25	-36.9
229.469	-31.92
229.688	-11.22
229.907	-8.07
230.125	16.3
230.344	34.79
230.563	31.54
230.782	35.86
231.001	-30.14
231.22	-40.9
231.438	-24.54
231.657	-4.58
231.876	-19.73
232.095	32.06
232.313	41.36
232.532	25.14
232.751	1.45
232.969	-13.21
233.188	-35.73
233.407	13.49
233.625	11.02
233.844	13.91
234.063	36.85
234.281	40.26
234.5	18.7
234.719	25.09
234.937	35.54
235.156	27.31
235.374	26.89
235.593	33.97
235.811	35.13
236.03	21.74
236.249	5.38
236.467	-0.1
236.686	4.65
236.904	15.51
237.123	-10.21
237.341	-1.37
237.559	5.83
237.778	1.37
237.996	-5.55
238.215	40.99
238.433	32.43
238.652	17.69
238.87	-3.38
239.088	-4.41
239.307	-11.06
239.525	-23.42
239.743	-32.42
239.962	-7.84
240.18	-27.6
240.398	-62.48
240.617	-51.42
240.835	-19.65
241.053	-17.25
241.271	13.47
241.49	32.12
241.708	8.29
241.926	-5.13
242.144	3.52
242.363	-43.12
242.581	-84.7
242.799	-17.94
243.017	-2.87
243.235	-38.55
243.453	-9.58
243.672	-5.86
243.89	-19.42
244.108	-31.8
244.326	-4.73
244.544	-4.03
244.762	5.4
244.98	12.54
245.198	31.28
245.416	9.37
245.634	-7.78
245.852	-13.52
246.07	-4.57
246.288	-27.65
246.506	-47.65
246.724	-23.38
246.942	-27.81
247.16	-6.7
247.378	10.38
247.596	39.75
247.814	43.35
248.032	24.78
248.25	33.06
248.468	3.38
248.685	2.23
248.903	27.65
249.121	27.59
249.339	-15.32
249.557	-6.84
249.775	4.93
249.992	-73.13
250.21	-56.27
250.428	-28.47
250.646	-44.04
250.863	-73.27
251.081	-24.32
251.299	-20.21
251.517	-2.06
251.734	4.05
251.952	15.5
252.17	-4.89
252.387	2.92
252.605	-6.89
252.823	5.05
253.04	25.86
253.258	53.95
253.475	51.74
253.693	38.83
253.911	27.67
254.128	1.41
254.346	-12.76
254.563	-13.46
254.781	-15.71
254.998	-31.89
255.216	-6.11
255.433	-19.29
255.651	6.06
255.868	57.27
256.086	82.94
256.303	53.76
256.521	52.15
256.738	43.23
256.956	12.59
257.173	-13
257.39	-19.91
257.608	-38.62
257.825	13.34
258.043	40.96
258.26	44.29
258.477	89.09
258.695	90.25
258.912	28.98
259.129	22.53
259.346	-12.38
259.564	-69.41
259.781	-105.1
259.998	-34.76
260.216	-24.64
260.433	31.29
260.65	39.35
260.867	69.1
261.084	28.19
261.302	8.88
261.519	-20.21
261.736	-51.6
261.953	-68.34
262.17	-10.04
262.387	-36.65
262.604	-88.53
262.822	-99.35
263.039	-93.21
263.256	-149.32
263.473	-83.13
263.69	-26.89
263.907	29.75
264.124	37.97
264.341	36.44
264.558	20.51
264.775	26.47
264.992	-11.05
265.209	2.65
265.426	18.36
265.643	14.33
265.86	23.93
266.077	43.59
266.294	26.98
266.51	-8.43
266.727	-18.21
266.944	-11.28
267.161	-12.47
267.378	-1.24
267.595	37.83
267.812	14.04
268.028	-1.32
268.245	17.5
268.462	-22.67
268.679	-47.11
268.896	25.86
269.112	26.69
269.329	6.6
269.546	14.66
269.763	14.91
269.979	-21.17
270.196	-18.64
270.413	-34.54
270.629	-26.25
270.846	-34.93
271.063	-34.11
271.279	-56.87
271.496	-55.45
271.712	-41.52
271.929	-42.52
272.146	-47.2
272.362	-38
272.579	-5.07
272.795	1.51
273.012	29.39
273.228	43.4
273.445	20.17
273.661	0.78
273.878	-33
274.094	-48.83
274.311	-77.73
274.527	-7.58
274.744	-2.35
274.96	-0.27
275.177	5.89
275.393	24.62
275.609	10.75
275.826	29.8
276.042	25.47
276.259	14.45
276.475	28.08
276.691	44.24
276.908	18.24
277.124	39.09
277.34	29.23
277.557	21.09
277.773	10.06
277.989	7.54
278.205	5.21
278.422	27.43
278.638	27.87
278.854	46.03
279.07	60.01
279.286	50.84
279.503	39.65
279.719	19.03
279.935	-19.6
280.151	-38.74
280.367	-17.24
280.583	-36.54
280.799	-23.27
281.016	-36.71
281.232	-3.69
281.448	-10.36
281.664	20.23
281.88	4.79
282.096	18.55
282.312	53.92
282.528	60.07
282.744	47.38
282.96	52.36
283.176	38.66
283.392	14.13
283.608	4.02
283.824	-4.06
284.04	-7.14
284.256	-6.47
284.471	-11.17
284.687	-5.08
284.903	14.34
285.119	31.47
285.335	16.82
285.551	33.89
285.767	14.37
285.982	5.4
286.198	-29.3
286.414	23.79
286.63	6.94
286.846	37.71
287.061	17.58
287.277	40.75
287.493	4.28
287.709	17.86
287.924	-14.09
288.14	21.72
288.356	7.53
288.571	32
288.787	15.06
289.003	21.87
289.218	4.54
289.434	-21.92
289.65	-26.12
289.865	-17.8
290.081	2.9
290.296	8.3
290.512	21.85
290.727	-3.58
290.943	-10.94
291.159	-18.75
291.374	-21.28
291.59	-34.33
291.805	-24.66
292.021	-13.62
292.236	-4.36
292.451	11.62
292.667	27.73
292.882	38.5
293.098	31.85
293.313	1.78
293.529	-30.64
293.744	-37.2
293.959	-30.08
294.175	-11.1
294.39	18
294.605	29.27
294.821	48.47
295.036	46.96
295.251	46.31
295.467	10.31
295.682	4.58
295.897	-53.6
296.112	-47.02
296.328	-48.13
296.543	-46.07
296.758	-42.03
296.973	3.26
297.188	27.09
297.404	-2.56
297.619	-1.24
297.834	-11.98
298.049	-24.09
298.264	-56.35
298.479	1.3
298.694	5.21
298.909	20.41
299.125	23.91
299.34	39.44
299.555	16.59
299.77	39.42
299.985	8.15
300.2	-45.95
300.415	-63.24
300.63	-29.76
300.845	-40.08
301.06	-39.58
301.275	3.17
301.49	18.27
301.704	-1.51
301.919	-24.6
302.134	-36.24
302.349	-42.64
302.564	-105.6
302.779	-128.85
302.994	-73.04
303.209	2.83
303.423	27.5
303.638	55.64
303.853	23.46
304.068	12.91
304.283	-4.19
304.497	-3.4
304.712	-6.84
304.927	-3.25
305.142	-14.22
305.356	-0.36
305.571	-9.28
305.786	-15.35
306	-7.82
306.215	2.59
306.43	-21.88
306.644	-17.28
306.859	27.23
307.074	36
307.288	11.83
307.503	14.47
307.717	1.46
307.932	-9.46
308.147	-29.15
308.361	-5.84
308.576	-11.12
308.79	-50.73
309.005	-50.65
309.219	-27.12
309.434	-39.49
309.648	-23.97
309.863	15.52
310.077	27.95
310.292	25.9
310.506	26.56
310.72	22.4
310.935	29.5
311.149	11.02
311.364	24.3
311.578	42.37
311.792	30.56
312.007	22.56
312.221	18.37
312.435	6.19
312.649	-12.82
312.864	12.57
313.078	30.42
313.292	86.53
313.507	101.61
313.721	145.18
313.935	72.74
314.149	50.73
314.363	38.06
314.578	19.39
314.792	21.21
315.006	2.4
315.22	20.24
315.434	6.06
315.648	14.78
315.862	6.48
316.077	7.31
316.291	-15.79
316.505	-10.5
316.719	-26.44
316.933	-45.01
317.147	-32.73
317.361	-71.35
317.575	-80.64
317.789	-85.61
318.003	-110.96
318.217	-78.01
318.431	4.2
318.645	27.86
318.859	17.27
319.073	32.12
319.287	10.1
319.5	-24.1
319.714	-53.83
319.928	-70.52
320.142	-83.24
320.356	-20.64
320.57	33.71
320.784	26.94
320.997	12.49
321.211	-16.23
321.425	-66.91
321.639	-120.93
321.853	-48.54
322.066	-13
322.28	0.77
322.494	20.93
322.707	58.1
322.921	37.66
323.135	17.41
323.349	25.12
323.562	-3.72
323.776	-32.12
323.989	-34.73
324.203	-45.24
324.417	-59.95
324.63	-67.97
324.844	-63.91
325.057	-67.69
325.271	-38.07
325.485	-12.52
325.698	11.87
325.912	31.02
326.125	6.8
326.339	0.86
326.552	-25.08
326.766	-41.11
326.979	-38
327.193	24.13
327.406	13.1
327.619	10.15
327.833	21.73
328.046	3.19
328.26	-43.07
328.473	-25.11
328.686	-38.89
328.9	-39.89
329.113	-21.08
329.326	-27.9
329.54	-6.03
329.753	-12.99
329.966	-29.69
330.179	-19.4
330.393	-4.55
330.606	-9.92
330.819	7.3
331.032	24.91
331.246	21.84
331.459	43.1
331.672	40.72
331.885	35.67
332.098	14.39
332.311	-18.14
332.525	-76.11
332.738	-73.97
332.951	-54.14
333.164	-20.77
333.377	6.3
333.59	24.13
333.803	28.81
334.016	32.01
334.229	29.97
334.442	45.98
334.655	76.27
334.868	87.88
335.081	56.44
335.294	43.89
335.507	29.84
335.72	23.21
335.933	-2.62
336.146	14.01
336.359	27.95
336.572	-6.98
336.785	-39.85
336.997	-30.32
337.21	-10.27
337.423	-23.07
337.636	-13.07
337.849	7.8
338.062	3.52
338.274	-0.06
338.487	-1.56
338.7	25.7
338.913	-4.55
339.125	-15.82
339.338	-39.26
339.551	-16.21
339.763	-18.3
339.976	8.46
340.189	23.1
340.402	27.28
340.614	0.63
340.827	-2.61
341.039	-12.69
341.252	-12.43
341.465	1.05
341.677	24.09
341.89	4.97
342.102	12.97
342.315	-15.02
342.527	-50.83
342.74	-44.59
342.952	-7.58
343.165	-3.44
343.377	31.28
343.59	34.67
343.802	38.11
344.015	29.05
344.227	20.19
344.44	12.36
344.652	16.52
344.864	5.46
345.077	24.63
345.289	22.39
345.502	22.21
345.714	15.06
345.926	20.15
346.139	10.2
346.351	21.82
346.563	24.41
346.775	34.2
346.988	21.13
347.2	12.28
347.412	-22.84
347.624	-47.14
347.837	-72.65
348.049	-47.86
348.261	-8.89
348.473	1.61
348.685	22.49
348.897	18.1
349.11	6.11
349.322	-23.37
349.534	-3.06
349.746	-18.03
349.958	-4.52
350.17	0.84
350.382	13.96
350.594	9.13
350.806	15.06
351.018	17.56
351.23	0.13
351.442	-40.89
351.654	-52.29
351.866	-35.47
352.078	-15.81
352.29	3.63
352.502	17.76
352.714	29.42
352.926	14.93
353.138	13.88
353.35	3.25
353.561	11.85
353.773	-11.17
353.985	5.51
354.197	-13.38
354.409	-8.3
354.621	-20.81
354.832	-4.97
355.044	-11.41
355.256	4.92
355.468	17.51
355.679	12.23
355.891	16.02
356.103	11.13
356.314	10.54
356.526	2.84
356.738	21.43
356.949	22.33
357.161	24.82
357.373	9.45
357.584	-1.15
357.796	7.42
358.008	1.82
358.219	19.83
358.431	17.08
358.642	27.46
358.854	22.64
359.065	15.15
359.277	-21.88
359.488	-25.03
359.7	-37.49
359.911	-54.9
360.123	-37.4
360.334	-44.2
360.546	-47.87
360.757	-54.42
360.969	-48.72
361.18	-44.69
361.391	-41.9
361.603	-62.57
361.814	-41.37
362.025	-39.36
362.237	-36.7
362.448	-10.15
362.659	22.95
362.871	21.77
363.082	32.73
363.293	30.76
363.504	17.5
363.716	-9.96
363.927	-24.54
364.138	-53.63
364.349	-66.46
364.56	-67.07
364.772	-41.45
364.983	-17.74
365.194	-12.13
365.405	-1.16
365.616	11.67
365.827	-1.28
366.038	-21.19
366.25	-14.86
366.461	-45.81
366.672	-13.55
366.883	8.34
367.094	10.71
367.305	-7.06
367.516	7.26
367.727	-25.23
367.938	-41.05
368.149	-38.21
368.36	-6.5
368.571	-0.17
368.781	-4.88
368.992	-14.26
369.203	-25.75
369.414	-42.11
369.625	-53.32
369.836	-44.74
370.047	-59.35
370.258	-43.95
370.468	-53.05
370.679	-61.03
370.89	-50.14
371.101	-28.98
371.312	-33.58
371.522	-26.19
371.733	-22.25
371.944	-3.53
372.155	3.69
372.365	-5.22
372.576	-10.82
372.787	-8.01
372.997	-41.49
373.208	-39.34
373.419	-6.95
373.629	-21.88
373.84	-22.98
374.05	-33.97
374.261	-40.28
374.472	-64.74
374.682	-23.17
374.893	-23.97
375.103	15.47
375.314	23.57
375.524	24.81
375.735	25
375.945	28
376.156	4.96
376.366	-11.15
376.577	-3.46
376.787	-8.52
376.997	-5.96
377.208	-7.32
377.418	2.73
377.629	4.34
377.839	9.51
378.049	10.97
378.26	24.34
378.47	22.07
378.68	8.25
378.89	-3.01
379.101	-7.52
379.311	-33.59
379.521	-55.66
379.732	-52.13
379.942	-53.1
380.152	-69.5
380.362	-36.22
380.572	-26.6
380.783	-15.12
380.993	0.74
381.203	8.79
381.413	14.98
381.623	29.07
381.833	21.8
382.043	12.5
382.253	7.58
382.463	11.42
382.674	-6.06
382.884	-20.6
383.094	-19.59
383.304	-12.72
383.514	-20.66
383.724	-11.6
383.934	-9.21
384.144	-14.95
384.353	-27.15
384.563	-33.43
384.773	-20.72
384.983	-24.54
385.193	-6
385.403	3.2
385.613	11.51
385.823	-8.43
386.033	0.63
386.242	-3.76
386.452	-5.28
386.662	-14.06
386.872	3.46
387.082	1.76
387.291	-9.17
387.501	-11.06
387.711	0.93
387.921	-8.69
388.13	-6.88
388.34	5.87
388.55	3.81
388.759	0.29
388.969	5.45
389.179	1.86
389.388	-2.5
389.598	-1.64
389.807	-5.46
390.017	-7.6
390.227	-7.49
390.436	-10.48
390.646	-8.71
390.855	-6.77
391.065	-6.71
391.274	-8.31
391.484	-10.46
391.693	-7.51
391.903	-4.9
392.112	-0.33
392.322	4.14
392.531	8.42
392.74	8.91
392.95	4.93
393.159	3.12
393.369	1.26
393.578	1.8
393.787	-0.45
393.997	0.78
394.206	0.09
394.415	0.35
394.625	-1.43
394.834	-2.28
395.043	-0.94
395.252	0.87
395.462	2.67
395.671	4.34
395.88	5.29
396.089	5.45
396.298	3.73
396.508	3.24
396.717	1.73
396.926	2.26
397.135	1.87
397.344	1.82
397.553	2.11
397.762	4.16
397.971	4.11
398.181	4.28
398.39	4.41
398.599	4.8
398.808	4.51
399.017	5.2
399.226	6.59
399.435	7.36
399.644	7.45
399.853	6.69
400.062	6.32
400.27	5.18
400.479	4.57
400.688	3.85
400.897	4.32
401.106	4.06
401.315	4.22
401.524	4.49
401.733	4.91
401.941	5.26
402.15	5.63
402.359	5.53
402.568	5.82
402.777	6.09
402.985	5.65
403.194	5.33
403.403	5.24
403.612	4.69
403.82	4.23
404.029	4.58
404.238	4.7
404.446	5.13
404.655	5.2
404.864	5.23
405.072	4.75
405.281	4.88
405.489	4.48
405.698	4.54
405.906	4.57
406.115	4.68
406.324	4.6
406.532	4.8
406.741	4.96
406.949	5.06
407.158	5.16
407.366	5.2
407.574	5.09
407.783	5.12
407.991	4.74
408.2	4.9
408.408	4.78
408.617	4.85
408.825	4.62
409.033	4.88
409.242	4.77
409.45	4.9
409.658	4.84
409.867	4.95
410.075	4.84
410.283	4.62
410.491	4.47
410.7	4.37
410.908	4.36
411.116	4.63
411.324	4.67
411.533	4.61
411.741	4.83
411.949	4.79
412.157	4.49
412.365	4.62
412.573	4.65
412.781	4.61
412.99	4.53
413.198	4.7
413.406	4.7
413.614	4.69
413.822	4.47
414.03	4.44
414.238	4.19
414.446	4.28
414.654	4.16
414.862	4.36
415.07	4.45
415.278	4.69
415.486	4.48
415.694	4.58
415.902	4.52
416.109	4.42
416.317	4.4
416.525	4.13
416.733	4.09
416.941	4.22
417.149	4.18
417.357	4.28
417.564	4.63
417.772	4.75
417.98	4.54
418.188	4.63
418.395	4.54
418.603	4.72
418.811	4.41
419.019	4.4
419.226	4.44
419.434	4.51
419.642	4.12
419.849	4.37
420.057	4.38
420.265	4.46
420.472	4.2
420.68	4.29
420.887	4.12
421.095	4.17
421.302	3.98
421.51	4.17
421.717	4.26
421.925	4.38
422.132	4.17
422.34	3.9
422.547	3.84
422.755	3.63
422.962	3.56
423.17	3.6
423.377	3.85
423.585	3.86
423.792	3.81
423.999	3.8
424.207	3.84
424.414	3.99
424.621	4
424.829	4.03
425.036	4.03
425.243	4.22
425.451	4.08
425.658	3.88
425.865	4.17
426.072	4.27
426.28	4.34
426.487	4.26
426.694	4.36
426.901	4.1
427.108	3.93
427.315	3.74
427.523	3.93
427.73	3.97
427.937	3.98
428.144	3.89
428.351	3.84
428.558	3.93
428.765	3.9
428.972	3.9
429.179	4.18
429.386	4.53
429.593	4.33
429.8	4.16
430.007	4.35
430.214	4.29
430.421	3.9
430.628	3.83
430.835	3.87
431.042	4
431.249	4.11
431.456	4.15
431.662	4.32
431.869	4.49
432.076	4.43
432.283	4.45
432.49	4.45
432.697	4.44
432.903	4.15
433.11	3.98
433.317	4.08
433.524	4.28
433.73	4.19
433.937	4.64
434.144	4.68
434.35	4.45
434.557	4.36
434.764	4.42
434.97	4.16
435.177	4.26
435.384	4.3
435.59	4.33
435.797	4.64
436.003	4.74
436.21	4.76
436.416	4.92
436.623	4.93
436.829	4.88
437.036	4.86
437.242	4.95
437.449	4.8
437.655	4.84
437.862	4.65
438.068	4.78
438.275	4.81
438.481	5.08
438.687	5
438.894	5.14
439.1	5.05
439.307	5.06
439.513	4.92
439.719	5
439.926	5.07
440.132	5.14
440.338	5.05
440.544	5.18
440.751	5.16
440.957	5.21
441.163	5.08
441.369	5.15
441.575	4.93
441.782	4.99
441.988	4.81
442.194	4.87
442.4	4.9
442.606	5.18
442.812	5.25
443.018	5.41
443.224	5.44
443.431	5.43
443.637	5.22
443.843	5.06
444.049	5.03
444.255	4.99
444.461	5.08
444.667	5.12
444.873	5.31
445.079	5.34
445.284	5.43
445.49	5.22
445.696	5.14
445.902	4.96
446.108	4.88
446.314	4.85
446.52	4.9
446.726	5.11
446.931	5.16
447.137	5.26
447.343	5.23
447.549	5.25
447.755	5.16
447.96	5.24
448.166	5.14
448.372	5.16
448.578	5.17
448.783	5.16
448.989	5.23
449.195	5.4
449.4	5.44
449.606	5.44
449.812	5.41
450.017	5.37
450.223	5.21
450.428	5.09
450.634	5.18
450.84	5.27
451.045	5.18
451.251	5.16
451.456	5.52
451.662	5.52
451.867	5.58
452.073	5.67
452.278	5.74
452.483	5.67
452.689	5.63
452.894	5.6
453.1	5.63
453.305	5.61
453.51	5.51
453.716	5.52
453.921	5.55
454.127	5.44
454.332	5.44
454.537	5.47
454.742	5.44
454.948	5.41
455.153	5.56
455.358	5.64
455.563	5.73
455.769	5.8
455.974	5.73
456.179	5.58
456.384	5.48
456.589	5.33
456.795	5.17
457	5.21
457.205	5.41
457.41	5.46
457.615	5.47
457.82	5.58
458.025	5.62
458.23	5.49
458.435	5.59
458.64	5.54
458.845	5.71
459.05	5.73
459.255	5.78
459.46	5.71
459.665	5.73
459.87	5.62
460.075	5.55
460.28	5.6
460.485	5.61
460.69	5.7
460.895	5.6
461.099	5.59
461.304	5.63
461.509	5.64
461.714	5.48
461.919	5.61
462.123	5.49
462.328	5.47
462.533	5.43
462.738	5.57
462.942	5.48
463.147	5.68
463.352	5.78
463.556	5.8
463.761	5.79
463.966	5.88
464.17	5.84
464.375	5.68
464.58	5.7
464.784	5.57
464.989	5.53
465.193	5.54
465.398	5.6
465.602	5.71
465.807	5.79
466.011	5.85
466.216	5.89
466.42	5.88
466.625	5.85
466.829	5.95
467.034	5.93
467.238	6
467.443	5.99
467.647	5.84
467.851	5.95
468.056	6
468.26	5.98
468.464	5.99
468.669	6.21
468.873	6.21
469.077	6.24
469.282	6.36
469.486	6.43
469.69	6.36
469.894	6.24
470.099	6.27
470.303	6.26
470.507	6.16
470.711	6.09
470.915	6.08
471.119	6.04
471.324	5.93
471.528	6.03
471.732	6.15
471.936	6.18
472.14	6.24
472.344	6.33
472.548	6.3
472.752	6.38
472.956	6.62
473.16	6.55
473.364	6.46
473.568	6.46
473.772	6.49
473.976	6.26
474.18	6.23
474.384	6.27
474.588	6.29
474.792	6.17
474.995	6.27
475.199	6.4
475.403	6.45
475.607	6.48
475.811	6.48
476.015	6.56
476.218	6.56
476.422	6.56
476.626	6.6
476.83	6.66
477.033	6.57
477.237	6.51
477.441	6.57
477.644	6.55
477.848	6.57
478.052	6.54
478.255	6.59
478.459	6.58
478.663	6.71
478.866	6.69
479.07	6.82
479.273	6.92
479.477	6.91
479.681	6.84
479.884	6.8
480.088	6.7
480.291	6.7
480.495	6.68
480.698	6.69
480.901	6.79
481.105	6.93
481.308	6.85
481.512	6.9
481.715	6.96
481.919	6.95
482.122	6.92
482.325	6.98
482.529	6.97
482.732	6.96
482.935	6.87
483.138	6.87
483.342	6.88
483.545	6.92
483.748	6.91
483.952	7.08
484.155	7.13
484.358	7.12
484.561	7.11
484.764	7.09
484.967	7.09
485.171	7.14
485.374	7.11
485.577	7.22
485.78	7.25
485.983	7.25
486.186	7.21
486.389	7.23
486.592	7.22
486.795	7.29
486.998	7.32
487.201	7.33
487.404	7.43
487.607	7.42
487.81	7.41
488.013	7.43
488.216	7.47
488.419	7.44
488.622	7.39
488.825	7.34
489.028	7.23
489.231	7.15
489.433	7.05
489.636	7.05
489.839	7.07
490.042	7.06
490.245	7.05
490.447	7.17
490.65	7.23
490.853	7.27
491.056	7.41
491.258	7.54
491.461	7.6
491.664	7.71
491.866	7.71
492.069	7.78
492.272	7.72
492.474	7.78
492.677	7.82
492.879	7.94
493.082	7.98
493.285	8.2
493.487	8.17
493.69	8.09
493.892	8.02
494.095	8.01
494.297	7.96
494.5	8.09
494.702	8.16
494.905	8.29
495.107	8.38
495.309	8.37
495.512	8.36
495.714	8.43
495.917	8.48
496.119	8.44
496.321	8.58
496.524	8.62
496.726	8.72
496.928	8.76
497.13	8.85
497.333	8.88
497.535	8.92
497.737	8.92
497.939	8.97
498.142	9.01
498.344	8.97
498.546	8.97
498.748	9
498.95	9.12
499.152	9.08
499.355	9.13
499.557	9.19
499.759	9.32
499.961	9.19
500.163	9.3
500.365	9.39
500.567	9.5
500.769	9.42
500.971	9.52
501.173	9.48
501.375	9.47
501.577	9.36
501.779	9.38
501.981	9.38
502.183	9.45
502.385	9.38
502.587	9.4
502.788	9.46
502.99	9.54
503.192	9.59
503.394	9.64
503.596	9.69
503.798	9.75
503.999	9.72
504.201	9.71
504.403	9.75
504.605	9.74
504.806	9.65
505.008	9.69
505.21	9.7
505.411	9.7
505.613	9.69
505.815	9.68
506.016	9.65
506.218	9.69
506.42	9.66
506.621	9.68
506.823	9.69
507.024	9.68
507.226	9.59
507.427	9.56
507.629	9.58
507.83	9.61
508.032	9.54
508.233	9.66
508.435	9.73
508.636	9.8
508.838	9.76
509.039	9.75
509.24	9.63
509.442	9.63
509.643	9.53
509.845	9.53
510.046	9.61
510.247	9.64
510.448	9.56
510.65	9.55
510.851	9.58
511.052	9.51
511.254	9.5
511.455	9.67
511.656	9.72
511.857	9.75
512.058	9.73
512.26	9.76
512.461	9.6
512.662	9.6
512.863	9.49
513.064	9.49
513.265	9.44
513.466	9.5
513.667	9.44
513.868	9.52
514.069	9.6
514.27	9.72
514.471	9.64
514.672	9.63
514.873	9.5
515.074	9.46
515.275	9.31
515.476	9.36
515.677	9.39
515.878	9.58
516.079	9.59
516.28	9.61
516.481	9.66
516.682	9.73
516.882	9.56
517.083	9.51
517.284	9.49
517.485	9.41
517.686	9.32
517.886	9.34
518.087	9.39
518.288	9.4
518.488	9.38
518.689	9.34
518.89	9.29
519.091	9.32
519.291	9.32
519.492	9.39
519.692	9.47
519.893	9.61
520.094	9.56
520.294	9.49
520.495	9.39
520.695	9.43
520.896	9.35
521.096	9.35
521.297	9.49
521.497	9.55
521.698	9.44
521.898	9.45
522.099	9.48
522.299	9.51
522.499	9.5
522.7	9.6
522.9	9.64
523.101	9.66
523.301	9.64
523.501	9.62
523.702	9.55
523.902	9.51
524.102	9.51
524.302	9.45
524.503	9.55
524.703	9.61
524.903	9.67
525.103	9.63
525.304	9.7
525.504	9.69
525.704	9.68
525.904	9.58
526.104	9.64
526.304	9.61
526.504	9.59
526.705	9.62
526.905	9.74
527.105	9.7
527.305	9.74
527.505	9.68
527.705	9.66
527.905	9.58
528.105	9.59
528.305	9.46
528.505	9.53
528.705	9.61
528.905	9.62
529.105	9.59
529.304	9.74
529.504	9.8
529.704	9.71
529.904	9.76
530.104	9.8
530.304	9.8
530.503	9.74
530.703	9.71
530.903	9.66
531.103	9.72
531.303	9.7
531.502	9.73
531.702	9.87
531.902	9.95
532.101	9.86
532.301	9.84
532.501	9.8
532.7	9.74
532.9	9.74
533.1	9.83
533.299	9.9
533.499	9.95
533.698	9.96
533.898	9.91
534.097	9.87
534.297	9.88
534.496	9.9
534.696	9.97
534.895	10.09
535.095	10.2
535.294	10.21
535.494	10.13
535.693	10.08
535.892	10.04
536.092	9.93
536.291	9.88
536.491	10.06
536.69	10.1
536.889	10
537.088	10.02
537.288	10.1
537.487	10.08
537.686	10.13
537.886	10.29
538.085	10.33
538.284	10.42
538.483	10.4
538.682	10.42
538.882	10.4
539.081	10.45
539.28	10.35
539.479	10.33
539.678	10.26
539.877	10.36
540.076	10.39
540.275	10.43
540.474	10.52
540.673	10.58
540.872	10.51
541.071	10.54
541.27	10.59
541.469	10.59
541.668	10.63
541.867	10.63
542.066	10.68
542.265	10.76
542.464	10.73
542.663	10.72
542.862	10.9
543.06	10.88
543.259	10.84
543.458	10.92
543.657	11.01
543.856	10.98
544.054	10.99
544.253	10.96
544.452	11.01
544.651	11.04
544.849	11.04
545.048	11.14
545.247	11.25
545.445	11.29
545.644	11.29
545.843	11.26
546.041	11.24
546.24	11.29
546.438	11.35
546.637	11.38
546.836	11.54
547.034	11.55
547.233	11.55
547.431	11.49
547.63	11.57
547.828	11.56
548.027	11.62
548.225	11.66
548.423	11.76
548.622	11.78
548.82	11.78
549.019	11.83
549.217	11.95
549.415	12.02
549.614	12.07
549.812	12.15
550.01	12.17
550.209	12.14
550.407	12.2
550.605	12.24
550.803	12.32
551.002	12.38
551.2	12.49
551.398	12.55
551.596	12.68
551.794	12.69
551.993	12.74
552.191	12.73
552.389	12.76
552.587	12.75
552.785	12.85
552.983	12.95
553.181	13.08
553.379	13.21
553.577	13.27
553.775	13.35
553.973	13.49
554.171	13.54
554.369	13.53
554.567	13.62
554.765	13.63
554.963	13.67
555.161	13.59
555.359	13.7
555.557	13.84
555.755	13.94
555.952	13.99
556.15	14.14
556.348	14.21
556.546	14.24
556.744	14.27
556.941	14.37
557.139	14.49
557.337	14.56
557.535	14.59
557.732	14.69
557.93	14.76
558.128	14.84
558.325	14.93
558.523	15.02
558.721	15.2
558.918	15.27
559.116	15.32
559.313	15.38
559.511	15.5
559.708	15.48
559.906	15.47
560.104	15.54
560.301	15.62
560.498	15.65
560.696	15.78
560.893	15.92
561.091	16.09
561.288	16.22
561.486	16.36
561.683	16.42
561.88	16.56
562.078	16.63
562.275	16.67
562.473	16.74
562.67	16.94
562.867	17.09
563.064	17.14
563.262	17.25
563.459	17.33
563.656	17.39
563.853	17.38
564.051	17.54
564.248	17.67
564.445	17.85
564.642	17.92
564.839	18.14
565.036	18.3
565.234	18.49
565.431	18.5
565.628	18.62
565.825	18.67
566.022	18.73
566.219	18.76
566.416	18.93
566.613	19.03
566.81	19.17
567.007	19.14
567.204	19.17
567.401	19.21
567.598	19.25
567.795	19.27
567.991	19.38
568.188	19.55
568.385	19.71
568.582	19.83
568.779	19.95
568.976	20.04
569.172	20.11
569.369	20.12
569.566	20.08
569.763	20.18
569.96	20.21
570.156	20.25
570.353	20.3
570.55	20.48
570.746	20.47
570.943	20.66
571.14	20.65
571.336	20.72
571.533	20.75
571.729	20.74
571.926	20.77
572.123	20.92
572.319	20.95
572.516	20.89
572.712	21.06
572.909	21.07
573.105	21.16
573.302	21.15
573.498	21.29
573.695	21.24
573.891	21.3
574.087	21.24
574.284	21.4
574.48	21.38
574.677	21.42
574.873	21.43
575.069	21.49
575.266	21.62
575.462	21.64
575.658	21.77
575.854	21.92
576.051	22.05
576.247	21.98
576.443	22.01
576.639	21.93
576.835	21.8
577.032	21.69
577.228	21.79
577.424	21.86
577.62	21.87
577.816	21.97
578.012	21.97
578.208	21.86
578.404	21.86
578.6	21.89
578.796	21.86
578.993	21.92
579.189	21.93
579.384	21.82
579.58	21.77
579.776	21.77
579.972	21.7
580.168	21.63
580.364	21.74
580.56	21.7
580.756	21.67
580.952	21.64
581.148	21.68
581.343	21.62
581.539	21.73
581.735	21.79
581.931	21.87
582.127	21.91
582.322	21.88
582.518	21.9
582.714	21.82
582.909	21.83
583.105	21.79
583.301	21.82
583.496	21.84
583.692	21.84
583.888	21.76
584.083	21.79
584.279	21.85
584.474	21.8
584.67	21.84
584.866	21.85
585.061	21.8
585.257	21.78
585.452	21.86
585.648	21.78
585.843	21.82
586.039	21.84
586.234	21.83
586.429	21.73
586.625	21.83
586.82	21.76
587.015	21.66
587.211	21.57
587.406	21.58
587.601	21.52
587.797	21.56
587.992	21.66
588.187	21.88
588.383	21.88
588.578	21.87
588.773	21.86
588.968	21.88
589.163	21.83
589.359	21.79
589.554	21.79
589.749	21.79
589.944	21.83
590.139	21.8
590.334	21.87
590.529	21.91
590.724	22.03
590.919	22.06
591.114	22.06
591.309	22.15
591.504	22.24
591.699	22.22
591.894	22.23
592.089	22.18
592.284	22.13
592.479	22.16
592.674	22.15
592.869	22.27
593.064	22.44
593.259	22.59
593.454	22.66
593.648	22.78
593.843	22.7
594.038	22.79
594.233	22.74
594.428	22.81
594.622	22.8
594.817	22.96
595.012	23
595.206	23.08
595.401	23.11
595.596	23.16
595.79	23.25
595.985	23.35
596.18	23.44
596.374	23.61
596.569	23.75
596.763	23.79
596.958	23.83
597.153	23.87
597.347	23.78
597.542	23.96
597.736	23.92
597.931	24.04
598.125	24.14
598.319	24.33
598.514	24.23
598.708	24.37
598.903	24.34
599.097	24.4
599.291	24.43
599.486	24.55
599.68	24.6
599.874	24.74
600.069	24.77
600.263	24.72
600.457	24.77
600.651	24.77
600.846	24.78
601.04	24.86
601.234	24.96
601.428	25
601.622	25.09
601.817	25.15
602.011	25.2
602.205	25.32
602.399	25.29
602.593	25.24
602.787	25.25
602.981	25.16
603.175	25.23
603.369	25.14
603.563	25.25
603.757	25.21
603.951	25.32
604.145	25.19
604.339	25.36
604.533	25.19
604.727	25.18
604.921	25.1
605.115	25.15
605.309	25.19
605.502	25.26
605.696	25.15
605.89	25.16
606.084	25.08
606.278	24.94
606.471	24.8
606.665	24.84
606.859	24.7
607.053	24.7
607.246	24.63
607.44	24.68
607.634	24.55
607.827	24.63
608.021	24.43
608.214	24.38
608.408	24.33
608.602	24.24
608.795	24.16
608.989	24.14
609.182	24.06
609.376	24
609.569	24.05
609.763	23.84
609.956	23.81
610.15	23.75
610.343	23.7
610.537	23.61
610.73	23.66
610.923	23.67
611.117	23.68
611.31	23.53
611.504	23.55
611.697	23.4
611.89	23.24
612.083	23.17
612.277	23.2
612.47	23.03
612.663	23
612.856	22.88
613.05	22.73
613.243	22.6
613.436	22.5
613.629	22.41
613.822	22.33
614.015	22.34
614.209	22.2
614.402	22.16
614.595	22.12
614.788	22.09
614.981	21.91
615.174	21.85
615.367	21.74
615.56	21.72
615.753	21.72
615.946	21.66
616.139	21.62
616.332	21.69
616.525	21.64
616.718	21.56
616.911	21.63
617.103	21.62
617.296	21.65
617.489	21.53
617.682	21.44
617.875	21.32
618.067	21.28
618.26	21.03
618.453	21.05
618.646	21.05
618.838	21.08
619.031	21.04
619.224	21.06
619.417	21.04
619.609	21.01
619.802	20.88
619.994	20.83
620.187	20.81
620.38	20.77
620.572	20.69
620.765	20.8
620.957	20.69
621.15	20.62
621.342	20.53
621.535	20.58
621.727	20.47
621.92	20.55
622.112	20.52
622.305	20.58
622.497	20.43
622.69	20.44
622.882	20.37
623.074	20.42
623.267	20.36
623.459	20.37
623.651	20.21
623.844	20.26
624.036	20.24
624.228	20.24
624.42	20.26
624.613	20.42
624.805	20.37
624.997	20.35
625.189	20.24
625.381	20.25
625.574	20.04
625.766	19.97
625.958	19.95
626.15	20.03
626.342	19.97
626.534	20.02
626.726	20.01
626.918	19.91
627.11	19.77
627.302	19.82
627.494	19.78
627.686	19.78
627.878	19.74
628.07	19.81
628.262	19.64
628.454	19.7
628.646	19.7
628.838	19.69
629.029	19.63
629.221	19.69
629.413	19.56
629.605	19.39
629.797	19.32
629.989	19.27
630.18	19.19
630.372	19.17
630.564	19.24
630.755	19.26
630.947	19.34
631.139	19.29
631.33	19.19
631.522	19.29
631.714	19.25
631.905	19.12
632.097	19.09
632.289	19.11
632.48	18.95
632.672	18.92
632.863	18.82
633.055	18.83
633.246	18.78
633.438	18.77
633.629	18.86
633.821	18.95
634.012	18.94
634.203	18.92
634.395	18.93
634.586	18.83
634.777	18.67
634.969	18.64
635.16	18.71
635.351	18.58
635.543	18.56
635.734	18.69
635.925	18.67
636.117	18.71
636.308	18.77
636.499	18.75
636.69	18.58
636.881	18.6
637.073	18.59
637.264	18.53
637.455	18.64
637.646	18.82
637.837	18.83
638.028	18.63
638.219	18.76
638.41	18.55
638.601	18.45
638.792	18.44
638.983	18.51
639.174	18.35
639.365	18.47
639.556	18.49
639.747	18.4
639.938	18.36
640.129	18.4
640.32	18.3
640.511	18.26
640.701	18.44
640.892	18.46
641.083	18.52
641.274	18.59
641.465	18.61
641.655	18.41
641.846	18.32
642.037	18.26
642.228	18.19
642.418	18.17
642.609	18.23
642.8	18.31
642.99	18.27
643.181	18.28
643.372	18.31
643.562	18.23
643.753	18.17
643.943	18.1
644.134	18.04
644.324	17.89
644.515	17.92
644.705	17.93
644.896	17.97
645.086	17.94
645.277	18.02
645.467	17.99
645.658	17.96
645.848	17.98
646.038	18.04
646.229	18
646.419	17.97
646.61	17.92
646.8	17.83
646.99	17.78
647.18	17.73
647.371	17.7
647.561	17.7
647.751	17.7
647.941	17.61
648.132	17.53
648.322	17.5
648.512	17.5
648.702	17.58
648.892	17.58
649.082	17.62
649.272	17.54
649.462	17.47
649.653	17.32
649.843	17.22
650.033	17.29
650.223	17.28
650.413	17.24
650.603	17.24
650.793	17.31
650.983	17.14
651.172	17.05
651.362	16.98
651.552	16.82
651.742	16.75
651.932	16.75
652.122	16.74
652.312	16.89
652.502	17.01
652.691	16.96
652.881	16.83
653.071	16.81
653.261	16.54
653.45	16.27
653.64	16.25
653.83	16.16
654.019	16.14
654.209	16.1
654.399	16.13
654.588	16.04
654.778	15.96
654.968	15.76
655.157	15.67
655.347	15.54
655.536	15.32
655.726	15.18
655.915	15.02
656.105	14.85
656.294	14.74
656.484	14.56
656.673	14.51
656.863	14.53
657.052	14.35
657.241	14.1
657.431	13.99
657.62	13.79
657.809	13.37
657.999	13.25
658.188	13.13
658.377	12.95
658.567	12.82
658.756	12.73
658.945	12.59
659.134	12.44
659.324	12.37
659.513	12.21
659.702	12.06
659.891	11.88
660.08	11.75
660.269	11.65
660.458	11.54
660.648	11.46
660.837	11.35
661.026	11.28
661.215	11.06
661.404	10.95
661.593	10.81
661.782	10.6
661.971	10.43
662.16	10.27
662.349	10.09
662.538	9.97
662.726	9.95
662.915	9.78
663.104	9.74
663.293	9.67
663.482	9.7
663.671	9.6
663.86	9.51
664.048	9.43
664.237	9.4
664.426	9.16
664.615	9.13
664.803	9.16
664.992	8.98
665.181	8.89
665.369	8.84
665.558	8.66
665.747	8.55
665.935	8.63
666.124	8.62
666.312	8.5
666.501	8.5
666.69	8.39
666.878	8.27
667.067	8.13
667.255	8.26
667.444	8.5
667.632	8.56
667.82	8.61
668.009	8.6
668.197	8.46
668.386	8.22
668.574	8.22
668.762	8.12
668.951	8.07
669.139	8.03
669.327	7.94
669.516	7.99
669.704	7.93
669.892	8.09
670.08	8.12
670.269	8.07
670.457	7.85
670.645	7.74
670.833	7.71
671.021	7.77
671.21	7.85
671.398	8.04
671.586	8.12
671.774	8
671.962	8.03
672.15	8.04
672.338	7.94
672.526	7.99
672.714	7.94
672.902	7.8
673.09	7.9
673.278	8.04
673.466	8.02
673.654	8.24
673.842	8.4
674.03	8.46
674.218	8.35
674.405	8.47
674.593	8.41
674.781	8.49
674.969	8.56
675.157	8.78
675.344	8.91
675.532	9
675.72	9.01
675.908	8.95
676.095	8.85
676.283	8.85
676.471	9.02
676.658	9.03
676.846	9
677.033	9.2
677.221	9.18
677.409	9.05
677.596	9.13
677.784	9.2
677.971	9.25
678.159	9.35
678.346	9.45
678.534	9.54
678.721	9.78
678.909	9.71
679.096	9.75
679.283	10.02
679.471	10.19
679.658	10.31
679.846	10.65
680.033	10.91
680.22	10.78
680.408	10.68
680.595	10.72
680.782	10.61
680.969	10.6
681.157	10.8
681.344	11
681.531	10.97
681.718	11.11
681.905	11.41
682.093	11.5
682.28	11.72
682.467	11.99
682.654	12.15
682.841	12.05
683.028	12.38
683.215	12.55
683.402	12.57
683.589	12.75
683.776	13.09
683.963	13.05
684.15	13.21
684.337	13.45
684.524	13.6
684.711	13.85
684.898	13.97
685.085	14.08
685.271	14.53
685.458	14.78
685.645	14.96
685.832	15.33
686.019	15.68
686.205	15.74
686.392	16.1
686.579	16.3
686.766	16.69
686.952	17
687.139	17.53
687.326	17.61
687.512	17.96
687.699	18.35
687.886	18.58
688.072	18.69
688.259	19.23
688.445	19.77
688.632	19.98
688.818	20.7
689.005	21.12
689.191	21.53
689.378	22.04
689.564	22.62
689.751	22.85
689.937	23.59
690.124	24.11
690.31	24.43
690.496	24.83
690.683	25.3
690.869	25.73
691.055	26.35
691.242	27.03
691.428	27.73
691.614	28.43
691.8	28.96
691.987	29.55
692.173	30.06
692.359	30.61
692.545	31.12
692.731	31.66
692.918	32.23
693.104	32.75
693.29	33.4
693.476	34.15
693.662	34.7
693.848	35.4
694.034	36.17
694.22	36.76
694.406	37.51
694.592	38.18
694.778	38.77
694.964	39.31
695.15	39.88
695.336	40.4
695.522	41.32
695.708	41.77
695.894	42.51
696.08	43.23
696.265	43.69
696.451	44.23
696.637	45.22
696.823	45.91
697.009	46.33
697.194	47.01
697.38	47.51
697.566	47.74
697.751	48.08
697.937	48.76
698.123	49.35
698.308	49.92
698.494	50.57
698.68	51.17
698.865	51.75
699.051	52.37
699.236	53.06
699.422	53.58
699.607	53.8
699.793	54.28
699.978	54.55
700.164	54.8
700.349	55.42
700.535	56.04
700.72	56.51
700.906	57.19
701.091	57.64
701.276	57.83
701.462	58.48
701.647	59.19
701.832	59.47
702.018	59.89
702.203	60.27
702.388	60.41
702.573	60.56
702.759	61.27
702.944	61.54
703.129	61.82
703.314	62.28
703.499	62.44
703.684	62.39
703.87	63.56
704.055	64.42
704.24	64.7
704.425	65.35
704.61	65.98
704.795	65.7
704.98	65.67
705.165	65.82
705.35	65.96
705.535	65.88
705.72	66.16
705.905	66.48
706.09	67.24
706.275	67.33
706.459	67.61
706.644	67.6
706.829	67.86
707.014	67.59
707.199	68.12
707.384	68.48
707.568	68.67
707.753	69.04
707.938	69.65
708.123	69.71
708.307	69.87
708.492	70.18
708.677	70.29
708.861	70.19
709.046	70.15
709.231	70.73
709.415	71.04
709.6	71.1
709.784	70.89
709.969	71.11
710.153	70.76
710.338	70.75
710.522	70.99
710.707	71.91
710.891	72.07
711.076	72.25
711.26	72.03
711.445	72.04
711.629	71.74
711.813	71.88
711.998	72.24
712.182	72.66
712.366	72.96
712.551	73.55
712.735	73.84
712.919	73.55
713.103	73.73
713.288	73.43
713.472	72.92
713.656	73.39
713.84	73.57
714.024	73.52
714.208	73.75
714.393	74.38
714.577	74.11
714.761	74.6
714.945	75.06
715.129	75.23
715.313	75.38
715.497	75.55
715.681	76.1
715.865	76.13
716.049	76.36
716.233	76.05
716.417	76.12
716.601	75.39
716.785	75.46
716.968	75.49
717.152	75.58
717.336	75.66
717.52	75.34
717.704	75.03
717.888	75.35
718.071	75.32
718.255	75.3
718.439	75.83
718.622	76.03
718.806	76.5
718.99	76.48
719.174	76.33
719.357	76.41
719.541	76.86
719.724	76.33
719.908	77.22
720.092	77.9
720.275	78.01
720.459	77.74
720.642	77.91
720.826	77.29
721.009	76.68
721.193	76.38
721.376	76.78
721.559	76.69
721.743	77.33
721.926	77.69
722.11	78.28
722.293	77.98
722.476	77.44
722.66	76.92
722.843	76.74
723.026	76.31
723.21	76.75
723.393	77.99
723.576	78.43
723.759	78.35
723.942	78.19
724.126	77.92
724.309	77.48
724.492	77.24
724.675	77.68
724.858	78.01
725.041	78.33
725.224	78.3
725.407	78.37
725.59	78.55
725.774	78.49
725.957	77.5
726.14	77.08
726.322	77.12
726.505	76.85
726.688	77.85
726.871	78.51
727.054	78.89
727.237	78.85
727.42	79.17
727.603	78.51
727.786	78.67
727.968	79.02
728.151	79.21
728.334	79.26
728.517	79.36
728.699	79.93
728.882	79.32
729.065	79.55
729.248	80.03
729.43	80.45
729.613	80.39
729.796	81.26
729.978	80.66
730.161	80.29
730.343	79.95
730.526	80.39
730.708	79.82
730.891	80.35
731.073	79.88
731.256	79.56
731.438	78.94
731.621	79.88
731.803	79.83
731.986	80.03
732.168	80.06
732.35	80.84
732.533	80.59
732.715	80.95
732.898	81.81
733.08	82.07
733.262	82.1
733.444	81.6
733.627	81.78
733.809	81.93
733.991	82.68
734.173	81.7
734.355	81.95
734.538	82.38
734.72	81.33
734.902	81.09
735.084	81.28
735.266	81.4
735.448	80.94
735.63	81.21
735.812	81.36
735.994	82.26
736.176	82.55
736.358	82.31
736.54	83.61
736.722	82.9
736.904	82.16
737.086	82.28
737.268	82.71
737.45	82.65
737.632	82.73
737.814	82.3
737.995	81.7
738.177	81.29
738.359	80.08
738.541	80.54
738.723	81.28
738.904	81.76
739.086	82.39
739.268	82.54
739.449	82.99
739.631	83.36
739.813	83.51
739.994	83.66
740.176	84.03
740.358	83.88
740.539	83.63
740.721	83.71
740.902	83.93
741.084	83.53
741.265	82.86
741.447	83.14
741.628	83.21
741.81	81.91
741.991	82.29
742.172	83.79
742.354	83.85
742.535	83.69
742.717	84.85
742.898	85.3
743.079	85.39
743.261	85.12
743.442	84.08
743.623	84.31
743.804	84.63
743.986	83.8
744.167	83.03
744.348	83.28
744.529	82.91
744.71	81.15
744.891	80.91
745.073	80.76
745.254	80.47
745.435	79.84
745.616	80.24
745.797	79.79
745.978	79.78
746.159	80.94
746.34	80.2
746.521	82.01
746.702	81.39
746.883	81.07
747.064	80.32
747.245	82.04
747.426	80.46
747.606	81.78
747.787	82.73
747.968	83.1
748.149	82.81
748.33	83.11
748.51	83
748.691	82.8
748.872	83.06
749.053	81.85
749.233	81.58
749.414	81.29
749.595	80.18
749.775	79.33
749.956	79.27
750.137	79.55
750.317	80.8
750.498	82.86
750.678	83.51
750.859	84.89
751.04	84.86
751.22	82.47
751.4	81.97
751.581	80.88
751.761	80.51
751.942	81.19
752.122	81.89
752.303	81.09
752.483	81.7
752.663	81.26
752.844	80.11
753.024	81.8
753.204	82.46
753.385	81.76
753.565	81.5
753.745	82.2
753.925	80.19
754.106	79.44
754.286	79.37
754.466	80.42
754.646	80.83
754.826	80.96
755.006	80.62
755.187	81.89
755.367	81.99
755.547	81.01
755.727	82.43
755.907	82.35
756.087	83.01
756.267	82.49
756.447	83.06
756.627	80.26
756.807	82.32
756.987	80.91
757.167	79.54
757.346	78.72
757.526	78.73
757.706	78.26
757.886	78.86
758.066	80.52
758.246	82.02
758.425	82.03
758.605	80.67
758.785	80.35
758.965	80.05
759.144	77.49
759.324	78.77
759.504	79.2
759.683	79.34
759.863	77.73
760.043	78.72
760.222	78.8
760.402	77.54
760.581	76.13
760.761	77.34
760.94	76.48
761.12	77.48
761.299	78.79
761.479	79.63
761.658	78.23
761.838	77.99
762.017	77.31
762.197	76.91
762.376	76.76
762.555	77.85
762.735	79.14
762.914	77.97
763.093	78.59
763.273	77.58
763.452	77.95
763.631	77.12
763.81	78.78
763.99	77.29
764.169	78.22
764.348	76.51
764.527	76.04
764.706	75.13
764.885	77.05
765.064	75.14
765.243	75.71
765.423	77.33
765.602	77.28
765.781	75.7
765.96	76.09
766.139	75.04
766.318	75.35
766.497	75.17
766.676	75.95
766.854	77.81
767.033	79.89
767.212	77.98
767.391	78.41
767.57	79.09
767.749	78.9
767.928	79.12
768.106	79.29
768.285	77.32
768.464	75.84
768.643	75.29
768.821	74.69
769	76.18
769.179	76.46
769.357	74.53
769.536	74.07
769.715	74.99
769.893	75.05
770.072	74.47
770.25	77.95
770.429	79.79
770.607	77.54
770.786	76.61
770.964	78.1
771.143	76.06
771.321	76.37
771.5	77.85
771.678	76.49
771.857	74.77
772.035	75.14
772.213	72.46
772.392	70.76
772.57	72.26
772.748	73.8
772.927	74.61
773.105	73.68
773.283	76.1
773.461	77.06
773.64	76.74
773.818	74.31
773.996	75.8
774.174	73.83
774.352	72.22
774.531	70.81
774.709	74.1
774.887	73.68
775.065	72.35
775.243	72.63
775.421	73.22
775.599	72.59
775.777	70.47
775.955	70.32
776.133	68.86
776.311	68.06
776.489	65.16
776.667	68.04
776.844	69.32
777.022	68.92
777.2	71.98
777.378	75.26
777.556	75.08
777.734	78.98
777.911	82.9
778.089	81.37
778.267	81.29
778.445	79.76
778.622	76.91
778.8	76.1
778.978	77.39
779.155	75.51
779.333	76.95
779.511	76.18
779.688	73.87
779.866	69.86
780.043	67.39
780.221	67.04
780.398	64.81
780.576	66.61
780.753	69.48
780.931	71.06
781.108	70.34
781.286	72.51
781.463	70.34
781.64	66.5
781.818	67.28
781.995	69.22
782.172	67.58
782.35	68.56
782.527	70.44
782.704	69.22
782.882	70.29
783.059	69.52
783.236	70.15
783.413	71.18
783.59	70.95
783.768	66.56
783.945	68.3
784.122	67.78
784.299	69.17
784.476	68.93
784.653	69.92
784.83	69.47
785.007	67.68
785.184	67.27
785.361	66.52
785.538	72.81
785.715	74.41
785.892	76.77
786.069	77.57
786.246	79.77
786.423	77.51
786.6	76.6
786.776	75.19
786.953	73.03
787.13	75.85
787.307	72.23
787.484	71.66
787.66	71.66
787.837	74.28
788.014	68.88
788.191	65.27
788.367	62.48
788.544	63.68
788.721	61.62
788.897	65.61
789.074	71.25
789.25	69.22
789.427	69.81
789.603	68.25
789.78	67
789.956	64.97
790.133	69.99
790.309	70.58
790.486	76.12
790.662	73.91
790.839	73.54
791.015	73.36
791.192	70.99
791.368	71.18
791.544	69.03
791.721	68.16
791.897	67.66
792.073	64.41
792.249	54.3
792.426	60.86
792.602	62.84
792.778	62.99
792.954	67.12
793.13	69.57
793.307	61.57
793.483	53.02
793.659	51.56
793.835	52.26
794.011	52.68
794.187	54.14
794.363	55.23
794.539	56.08
794.715	50.08
794.891	50.65
795.067	49.72
795.243	56.81
795.419	56.7
795.595	59.66
795.771	61.41
795.947	67.76
796.122	65.28
796.298	69.13
796.474	69.81
796.65	70.65
796.826	64.52
797.001	64.73
797.177	59.55
797.353	60.39
797.529	57.22
797.704	60.14
797.88	59.6
798.056	57.38
798.231	52.67
798.407	58.87
798.582	55.79
798.758	62.08
798.934	67.97
799.109	66.82
799.285	61.39
799.46	66.26
799.636	62.17
799.811	62.6
799.986	68.35
800.162	70.1
800.337	67.58
800.513	66.93
800.688	58.69
800.863	66.83
801.039	61.66
801.214	62.07
801.389	67.1
801.565	71.52
801.74	54.05
801.915	63.14
802.09	60.46
802.265	59.26
802.441	55.92
802.616	58.84
802.791	55.64
802.966	58.39
803.141	58.29
803.316	55.7
803.491	61.82
803.666	62.46
803.841	56.7
804.016	52.9
804.191	58.89
804.366	55.1
804.541	53.26
804.716	57.27
804.891	54.86
805.066	62.03
805.241	58.25
805.416	54.79
805.591	49.15
805.765	55.29
805.94	51.5
806.115	51.79
806.29	54.08
806.464	58.83
806.639	51.78
806.814	46.09
806.989	38.21
807.163	45.86
807.338	47.86
807.512	46.46
807.687	39.82
807.862	59.12
808.036	62.38
808.211	60.56
808.385	68.22
808.56	84.61
808.734	90.33
808.909	82.5
809.083	79.73
809.258	81.2
809.432	72.84
809.606	55.19
809.781	48.86
809.955	55.45
810.13	50.68
810.304	46.34
810.478	42.5
810.652	55.51
810.827	54.61
811.001	54.74
811.175	54.48
811.349	57.93
811.524	42.3
811.698	30.19
811.872	29.59
812.046	46.88
812.22	58.09
812.394	62.2
812.568	78.93
812.742	80.99
812.916	67.97
813.09	59.88
813.264	64.57
813.438	59.01
813.612	52.29
813.786	52.6
813.96	62.06
814.134	60.38
814.308	69.02
814.482	73.63
814.656	60.19
814.83	59.11
815.003	64.49
815.177	49.02
815.351	50.85
815.525	59.41
815.698	48.45
815.872	41.03
816.046	33.66
816.219	34.96
816.393	46.19
816.567	56.38
816.74	57.89
816.914	68.98
817.088	73.26
817.261	59.96
817.435	40.87
817.608	42.1
817.782	25.39
817.955	19.53
818.129	21.19
818.302	32.22
818.475	41.66
818.649	48.84
818.822	39.98
818.996	62.51
819.169	62.53
819.342	40.33
819.516	62.24
819.689	79.15
819.862	56.92
820.035	57.68
820.209	59.21
820.382	50.61
820.555	50.32
820.728	45.41
820.901	35.54
821.075	43.03
821.248	49.21
821.421	33.81
821.594	42.55
821.767	73.65
821.94	79.07
822.113	53.06
822.286	68.19
822.459	73.2
822.632	52.77
822.805	41.07
822.978	44.71
823.151	29.17
823.324	14.68
823.496	1.4
823.669	6.8
823.842	14.26
824.015	-6.55
824.188	-3.24
824.361	18.67
824.533	11.05
824.706	19.37
824.879	33.71
825.051	48.23
825.224	32.12
825.397	25.46
825.569	9.36
825.742	35.56
825.915	38.56
826.087	68.14
826.26	57.75
826.432	68.59
826.605	49.2
826.777	30.44
826.95	16.37
827.122	10.65
827.295	6.34
827.467	9.64
827.64	-11.67
827.812	-1.42
827.984	6
828.157	-3.29
828.329	-31.74
828.501	-17.68
828.674	-1.09
828.846	-9.62
829.018	17.76
829.19	15.66
829.363	48.19
829.535	46.18
829.707	44.06
829.879	9.69
830.051	13.01
830.223	-5.77
830.395	-33.57
830.568	-32.32
830.74	-16.64
830.912	18.8
831.084	-0.82
831.256	8.84
831.428	3.15
831.6	-0.89
831.772	-37.84
831.943	-37.19
832.115	-16.68
832.287	8.15
832.459	9.24
832.631	21.27
832.803	34.46
832.975	44.13
833.146	37.07
833.318	50.07
833.49	63.61
833.662	39.37
833.833	7.13
834.005	12.38
834.177	-0.96
834.348	-10.73
834.52	-15.23
834.692	-7.23
834.863	-39.95
835.035	-24.66
835.206	-66.19
835.378	-31.51
835.549	-30.19
835.721	-2.89
835.892	0.83
836.064	11.82
836.235	12.66
836.407	31.24
836.578	-13.64
836.749	0.99
836.921	-57.85
837.092	-65.89
837.264	-59.76
837.435	-56.38
837.606	-16.08
837.777	27.91
837.949	39.13
838.12	36.72
838.291	47.39
838.462	30.22
838.633	4.98
838.805	15.55
838.976	44.48
839.147	27.69
839.318	-18.11
839.489	-69.03
839.66	-79.93
839.831	-54.08
840.002	-41.68
840.173	-46.76
840.344	22.01
840.515	9.54
840.686	-135.93
840.857	-120.08
841.028	-75.56
841.199	-90.69
841.369	-89.02
841.54	-55.86
841.711	-22.42
841.882	-23.55
842.053	-8.78
842.223	-9.52
842.394	0.58
842.565	-1.28
842.736	13.19
842.906	9.15
843.077	20.29
843.248	42.51
843.418	44.39
843.589	29.68
843.759	89.6
843.93	76.92
844.101	24.37
844.271	25.84
844.442	33.48
844.612	41.28
844.783	15.63
844.953	-1.12
845.123	-25.55
845.294	-13.66
845.464	-157.91
845.635	-20.14
845.805	44.98
845.975	45.56
846.146	2.9
846.316	-25.81
846.486	-7.04
846.656	11.1
846.827	1.65
846.997	0.71
847.167	39.94
847.337	9.7
847.507	-47.17
847.677	-27.97
847.848	28.53
848.018	18.98
848.188	29.73
848.358	29.82
848.528	26.35
848.698	0.9
848.868	-17.1
849.038	-43.07
849.208	15.37
849.378	30.68
849.548	28.09
849.718	28.7
849.887	52.57
850.057	24.03
850.227	-13.66
850.397	-45.84
850.567	-151.67
850.737	-475.22
850.906	-1276.25
851.076	-582.03
851.246	-231.41
851.415	8.78
851.585	11.12
851.755	2.72
851.924	25.64
852.094	26.19
852.264	-61.95
852.433	-785.58
852.603	-200.74
852.772	-178.5
852.942	-83.16
853.111	-54.33
853.281	-18.38
853.45	18.08
853.62	-47.9
853.789	-58.16
853.959	-52.86
854.128	-23.42
854.297	-41.72
854.467	-71.04
854.636	-31.56
854.805	8.26
854.975	-31.03
855.144	-34.79
855.313	282.52
855.482	-267.88
855.652	-175.7
855.821	-94.48
855.99	2.11
856.159	13.31
856.328	27.88
856.497	27.47
856.667	31.99
856.836	36.48
857.005	10.64
857.174	10.55
857.343	-0.15
857.512	8.56
857.681	-27.26
857.85	-67.49
858.019	-23.61
858.188	-12.89
858.356	-17.06
858.525	-47.17
858.694	-1.22
858.863	-71.61
859.032	-62.46
859.201	-77.89
859.369	-8.67
859.538	-72.98
859.707	-40.31
859.876	-78.35
860.044	-112.06
860.213	-1.32
860.382	6
860.55	13.66
860.719	44.91
860.888	67.14
861.056	15.1
861.225	7.88
861.393	25.65
861.562	31.62
861.73	-52.34
861.899	-80.63
862.067	-1462.07
862.236	-12.32
862.404	-167.15
862.572	-97.4
862.741	-12.36
862.909	-19.62
863.078	-146.06
863.246	-88.83
863.414	-52.93
863.582	-49.21
863.751	-20.44
863.919	8.12
864.087	62.94
864.255	47.63
864.424	-155.78
864.592	23.55
864.76	-50.66
864.928	-125.6
865.096	-123.57
865.264	-35.04
865.432	-1522.73
865.6	22
865.768	-109.57
865.936	-118.31
866.104	-127.84
866.272	-180.31
866.44	-418.5
866.608	536.96
866.776	238.15
866.944	2876.74
867.112	-464.41
867.28	-187.48
867.448	-67.36
867.615	-37.16
867.783	16.73
867.951	5.04
868.119	47.59
868.286	2.63
868.454	-59.65
868.622	-129.83
868.789	-150.38
868.957	-3971.43
869.125	-2276.32
869.292	-136.61
869.46	-180.31
869.627	-25.72
869.795	-25.05
869.963	10.69
870.13	42.19
870.298	52.24
870.465	-15.1
870.632	-27.75
870.8	-37.15
870.967	-107.26
871.135	-183.22
871.302	-148.36
871.469	-213.27
871.637	-181.85
871.804	-82.36
871.971	-100.99
872.139	-366.05
872.306	2.8
872.473	-55.89
872.64	-234.76
872.807	-80.19
872.975	20.43
873.142	-155.27
873.309	959.46
873.476	78.73
873.643	143.28
873.81	101.1
873.977	116.25
874.144	81.58
874.311	-4.47
874.478	-88.14
874.645	-128.89
874.812	-93.14
874.979	-35.11
875.146	-69.39
875.313	-64.71
875.48	5.06
875.647	-29.83
875.813	-82.19
875.98	-54.64
876.147	-92.91
876.314	-167.81
876.481	1009.92
876.647	-1335.96
876.814	505.7
876.981	14.62
877.147	14.8
877.314	9.39
877.481	36.08
877.647	24.07
877.814	-35.19
877.98	-103.62
878.147	-61.73
878.314	-9.44
878.48	-54.17
878.647	-20.98
878.813	47.74
878.979	35.85
879.146	2.9
879.312	12
879.479	-7.14
879.645	-110
879.811	-189.59
879.978	-319.08
880.144	-68.54
880.31	-19.81
880.477	-148.94
880.643	-159.86
880.809	-44.61
880.975	-7.72
881.142	-434.55
881.308	-37.11
881.474	-25.81
881.64	-90.49
881.806	-190.26
881.972	-108.82
882.138	-140.47
882.304	-127.38
882.47	-218.3
882.636	-691.8
882.802	-208.6
882.968	-34.16
883.134	-30.13
883.3	-25.39
883.466	20.39
883.632	62.44
883.798	23.13
883.964	34.22
884.129	49.94
884.295	21.76
884.461	-52.45
884.627	-30.86
884.793	-59.97
884.958	-33.15
885.124	-68.19
885.29	-99.18
885.455	-124.27
885.621	-3.74
885.787	-3.34
885.952	15.83
886.118	1.35
886.283	-12
886.449	-107.97
886.614	-135.18
886.78	-368.46
886.945	1722.95
887.111	-806.94
887.276	-658.52
887.442	-1179.09
887.607	-514.15
887.773	-279.3
887.938	-191.38
888.103	-173.99
888.269	-8.43
888.434	-18.38
888.599	-50
888.764	-39.45
888.93	-26.6
889.095	-52.49
889.26	-81.52
889.425	-24.67
889.59	28.83
889.756	15.89
889.921	1.86
890.086	47.23
890.251	23.1
890.416	-115.56
890.581	-925.81
890.746	107.5
890.911	164.97
891.076	90.98
891.241	-29.85
891.406	64.94
891.571	21.8
891.736	-153.21
891.901	-436.28
892.065	423.08
892.23	154.68
892.395	229.75
892.56	308.09
892.725	-181.25
892.889	-726.83
893.054	-89.27
893.219	23.14
893.384	48.71
893.548	-4.58
893.713	-11.3
893.878	22.9
