Data from Ofra_2a_PS_8HS21_Reflection_3.txt Node
Date: Tue Jul 20 09:56:11 EDT 2021
User: Adam
Spectrometer: FLMT01687
Trigger mode: 0
Integration Time (sec): 9.450000E-1
Scans to average: 3
Electric dark correction enabled: true
Nonlinearity correction enabled: false
Boxcar width: 3
XAxis mode: Wavelengths
Number of Pixels in Spectrum: 3648
>>>>>Begin Spectral Data<<<<<
179.494	739.64
179.716	494.72
179.937	525.27
180.158	2182.81
180.38	-1317.44
180.601	-267.29
180.823	-155.07
181.044	-65.34
181.265	-5.26
181.486	38.08
181.708	395.65
181.929	163.72
182.15	350
182.372	-24.19
182.593	-65.07
182.814	451.5
183.035	383.47
183.257	181.66
183.478	96.1
183.699	91.05
183.92	76.6
184.141	74.58
184.363	66.89
184.584	42.04
184.805	42.91
185.026	61.52
185.247	54.96
185.468	56.88
185.689	52.71
185.91	44.46
186.132	58.42
186.353	54.12
186.574	44.74
186.795	29.69
187.016	23.87
187.237	16.15
187.458	1.36
187.679	-9.37
187.9	-4.95
188.121	7.57
188.342	29.9
188.563	44.67
188.784	45.55
189.005	57.85
189.226	54.53
189.447	54.37
189.667	42.07
189.888	48.46
190.109	45.76
190.33	39.44
190.551	29.25
190.772	20.05
190.993	25.29
191.214	28.26
191.434	27.38
191.655	23.49
191.876	33.72
192.097	34.87
192.318	42.66
192.538	31.94
192.759	41.78
192.98	33.9
193.201	43.97
193.421	39.38
193.642	35.34
193.863	37.11
194.083	46.81
194.304	16.94
194.525	33.46
194.745	11.37
194.966	12.92
195.187	30.78
195.407	26.08
195.628	30.38
195.848	33.93
196.069	27.87
196.29	25.6
196.51	14.73
196.731	0.59
196.951	-5.77
197.172	-12.09
197.392	1.87
197.613	0.47
197.833	2.35
198.054	18.97
198.274	7.4
198.495	22.01
198.715	3.53
198.936	18.23
199.156	21.59
199.377	7.12
199.597	3.1
199.817	14.76
200.038	12.16
200.258	19.78
200.479	22.68
200.699	25.52
200.919	32.3
201.14	25.7
201.36	37.71
201.58	38.64
201.801	41.22
202.021	27.69
202.241	29.49
202.461	38.76
202.682	45.24
202.902	37.6
203.122	29.45
203.342	39.95
203.563	53.54
203.783	50
204.003	42.4
204.223	38.35
204.443	34.88
204.663	35.24
204.884	32.45
205.104	20.52
205.324	31.62
205.544	44.36
205.764	53.96
205.984	59.11
206.204	58.26
206.424	41.78
206.644	45.12
206.864	23.26
207.084	29.48
207.304	19.16
207.525	9.06
207.745	21.94
207.964	25.54
208.184	23.02
208.404	32.02
208.624	15.5
208.844	0.04
209.064	8.13
209.284	16.2
209.504	11.77
209.724	-7.73
209.944	10.57
210.164	24.16
210.384	50.13
210.604	48.62
210.823	18.68
211.043	12.16
211.263	23.13
211.483	12.99
211.703	15.2
211.922	22.59
212.142	31.45
212.362	36
212.582	36.12
212.801	31.07
213.021	35.3
213.241	28.3
213.461	16.37
213.68	16.85
213.9	21.25
214.12	27.74
214.339	43.64
214.559	49.51
214.779	55.19
214.998	48.79
215.218	53.62
215.438	63.37
215.657	63.07
215.877	59.97
216.096	51.01
216.316	47.61
216.535	54
216.755	38.32
216.974	30.31
217.194	22.22
217.413	32.34
217.633	33.8
217.852	34.29
218.072	28.59
218.291	58.4
218.511	48.22
218.73	54.29
218.95	56.39
219.169	59.68
219.389	56.23
219.608	61.61
219.827	38.82
220.047	56.6
220.266	54.74
220.485	56.96
220.705	43.06
220.924	47.25
221.143	29.85
221.363	27.53
221.582	21.26
221.801	23.57
222.021	19.9
222.24	28.14
222.459	15.46
222.678	19.28
222.897	20.48
223.117	24.31
223.336	19.22
223.555	-5.18
223.774	10.42
223.993	28.03
224.213	27.44
224.432	47.08
224.651	43.85
224.87	37.61
225.089	47.34
225.308	42.16
225.527	37.65
225.746	28.39
225.965	17.11
226.184	30.44
226.404	29.71
226.623	50.33
226.842	45.27
227.061	51.11
227.28	76.85
227.499	64.62
227.718	40.31
227.936	43.02
228.155	33.49
228.374	27.82
228.593	25.4
228.812	18.19
229.031	8.59
229.25	24.9
229.469	27.55
229.688	36.82
229.907	43.18
230.125	40.27
230.344	57.4
230.563	71.71
230.782	63.28
231.001	65.41
231.22	60.2
231.438	62.42
231.657	57.06
231.876	50.73
232.095	38
232.313	51.03
232.532	53.1
232.751	53
232.969	53.05
233.188	60.52
233.407	51.29
233.625	40.08
233.844	29.21
234.063	24.03
234.281	22.08
234.5	16.71
234.719	4.29
234.937	10.04
235.156	15.49
235.374	26.54
235.593	19.2
235.811	16.43
236.03	0.05
236.249	24.13
236.467	20.72
236.686	33.54
236.904	26.76
237.123	38.13
237.341	33.43
237.559	48.55
237.778	52.17
237.996	56.09
238.215	47.09
238.433	45.26
238.652	36
238.87	39.55
239.088	22.91
239.307	19.93
239.525	6.64
239.743	8.47
239.962	2.53
240.18	20.51
240.398	26.34
240.617	40.59
240.835	35.24
241.053	47.69
241.271	47.25
241.49	51.8
241.708	40.59
241.926	25.85
242.144	26.85
242.363	28.36
242.581	23.9
242.799	14.08
243.017	13.23
243.235	8.11
243.453	25.41
243.672	12.55
243.89	22.83
244.108	29.07
244.326	33.98
244.544	31.08
244.762	36.31
244.98	27
245.198	24.12
245.416	23.28
245.634	25.64
245.852	35.16
246.07	37.82
246.288	35.66
246.506	41.01
246.724	58.84
246.942	58.78
247.16	52.43
247.378	36.32
247.596	39.15
247.814	27.95
248.032	31.72
248.25	28.85
248.468	20.46
248.685	15.29
248.903	16.29
249.121	11.64
249.339	19.24
249.557	26.09
249.775	7.52
249.992	5.63
250.21	-3.71
250.428	-3.22
250.646	2.89
250.863	5.09
251.081	-8.03
251.299	15.18
251.517	16.34
251.734	29.03
251.952	27.29
252.17	0.69
252.387	4.87
252.605	3.41
252.823	-12.93
253.04	-24.43
253.258	-19.36
253.475	-7.85
253.693	22.03
253.911	20.64
254.128	15.45
254.346	14.95
254.563	21.64
254.781	18.82
254.998	20.01
255.216	14.3
255.433	15.67
255.651	22.26
255.868	26
256.086	31.08
256.303	34
256.521	26.29
256.738	16.24
256.956	6.59
257.173	10.91
257.39	11.45
257.608	16.41
257.825	17.27
258.043	23.76
258.26	27.66
258.477	32.28
258.695	35.49
258.912	40.72
259.129	28.55
259.346	26.81
259.564	29.96
259.781	34.61
259.998	36.55
260.216	32.77
260.433	29.77
260.65	42.07
260.867	21.39
261.084	29.31
261.302	26.1
261.519	16.36
261.736	13.72
261.953	27.25
262.17	16.41
262.387	40.25
262.604	21.78
262.822	36.87
263.039	43.35
263.256	36.07
263.473	20.53
263.69	22.15
263.907	23.08
264.124	20.28
264.341	6.73
264.558	9.65
264.775	14.36
264.992	21.87
265.209	30.18
265.426	19.02
265.643	27.61
265.86	29.99
266.077	36.24
266.294	36.88
266.51	33.77
266.727	13.73
266.944	22.63
267.161	17.5
267.378	1.85
267.595	-19.01
267.812	-36.07
268.028	-34.52
268.245	-9.83
268.462	-9.34
268.679	-3.72
268.896	-2.27
269.112	11.14
269.329	25.64
269.546	29.9
269.763	29.28
269.979	29.71
270.196	31.21
270.413	40.05
270.629	33.2
270.846	35.8
271.063	34.74
271.279	26.18
271.496	12.4
271.712	10.45
271.929	9.13
272.146	17.3
272.362	-5.84
272.579	-6.76
272.795	-2.02
273.012	15.44
273.228	9.7
273.445	21.29
273.661	10.7
273.878	30.72
274.094	37.9
274.311	35.15
274.527	32.71
274.744	39.29
274.96	29.41
275.177	46.45
275.393	44.04
275.609	36.26
275.826	37.93
276.042	44.59
276.259	41.04
276.475	39.7
276.691	33.14
276.908	30.76
277.124	35.57
277.34	27.78
277.557	23.18
277.773	22.82
277.989	18.27
278.205	10.82
278.422	19.2
278.638	18.07
278.854	31.88
279.07	23.63
279.286	23.16
279.503	31.65
279.719	41.26
279.935	26.44
280.151	29.18
280.367	20.08
280.583	26.62
280.799	31.36
281.016	25.22
281.232	19.91
281.448	16.03
281.664	16.9
281.88	20.6
282.096	20.19
282.312	10.15
282.528	13.44
282.744	13.26
282.96	23.51
283.176	24.19
283.392	33.73
283.608	40.04
283.824	39.28
284.04	44.38
284.256	48.26
284.471	49.57
284.687	37.25
284.903	37.5
285.119	26.1
285.335	34.53
285.551	31.68
285.767	25.96
285.982	23.16
286.198	38.1
286.414	42.42
286.63	58.76
286.846	52.6
287.061	50.15
287.277	58.88
287.493	62.99
287.709	54.93
287.924	44.7
288.14	36.93
288.356	42.79
288.571	37.48
288.787	39.1
289.003	36.93
289.218	38.68
289.434	43.45
289.65	46.5
289.865	51.22
290.081	51.14
290.296	49.01
290.512	45.73
290.727	51.89
290.943	52.59
291.159	50.59
291.374	38.12
291.59	40.52
291.805	40.24
292.021	44.59
292.236	40.01
292.451	36.74
292.667	29.19
292.882	29.84
293.098	25.74
293.313	23.23
293.529	21.14
293.744	18.2
293.959	20.81
294.175	21.24
294.39	34.32
294.605	42.62
294.821	34.86
295.036	40.32
295.251	40.73
295.467	36.84
295.682	38.24
295.897	25.48
296.112	29.15
296.328	31.46
296.543	32.45
296.758	33.31
296.973	41.14
297.188	39.7
297.404	46.9
297.619	41.95
297.834	51.33
298.049	42.52
298.264	37.73
298.479	23.03
298.694	29.72
298.909	23.99
299.125	24.9
299.34	17.96
299.555	25.45
299.77	28.62
299.985	33.91
300.2	23.67
300.415	29.07
300.63	24.13
300.845	30.89
301.06	24.98
301.275	31.57
301.49	37.79
301.704	39.46
301.919	29.69
302.134	27.77
302.349	15.53
302.564	16.93
302.779	5.82
302.994	-6.41
303.209	-10.9
303.423	6.41
303.638	12.53
303.853	17.02
304.068	18.69
304.283	19.95
304.497	16.52
304.712	24.44
304.927	15.25
305.142	15.9
305.356	14.63
305.571	20.84
305.786	16.85
306	27.58
306.215	31.96
306.43	43.79
306.644	45.26
306.859	46.89
307.074	43.05
307.288	51.57
307.503	40.64
307.717	37.57
307.932	36.76
308.147	28.22
308.361	27.84
308.576	22.15
308.79	16.84
309.005	25.95
309.219	27.39
309.434	23.83
309.648	23.84
309.863	24.69
310.077	31.1
310.292	35.73
310.506	41.07
310.72	45.69
310.935	53.16
311.149	46.81
311.364	50.79
311.578	48.68
311.792	43.43
312.007	36.02
312.221	38.08
312.435	36.95
312.649	17.92
312.864	2.66
313.078	8.04
313.292	15.04
313.507	9.09
313.721	-11.67
313.935	-7.13
314.149	26.41
314.363	35.94
314.578	57.43
314.792	50.79
315.006	52.35
315.22	57.8
315.434	46.32
315.648	43.4
315.862	32.96
316.077	14.44
316.291	23.64
316.505	23.49
316.719	3.05
316.933	10.43
317.147	15.74
317.361	25.7
317.575	21.6
317.789	18.87
318.003	26.83
318.217	39.05
318.431	45.32
318.645	53.69
318.859	46.76
319.073	43.68
319.287	39.5
319.5	34.45
319.714	36.1
319.928	33.7
320.142	28.19
320.356	36.68
320.57	33.66
320.784	31.44
320.997	31.43
321.211	34.72
321.425	24.22
321.639	22.83
321.853	14.23
322.066	15.63
322.28	20.29
322.494	21.23
322.707	13.13
322.921	25.74
323.135	24.17
323.349	26.75
323.562	30.09
323.776	26.97
323.989	22.13
324.203	28.35
324.417	18.14
324.63	21.29
324.844	10.59
325.057	14.37
325.271	3.15
325.485	10.15
325.698	5.52
325.912	14.17
326.125	22.6
326.339	36.33
326.552	34.67
326.766	44.86
326.979	46.45
327.193	47.49
327.406	50
327.619	30.09
327.833	23.23
328.046	15.52
328.26	3.53
328.473	0.22
328.686	3.99
328.9	-2.25
329.113	6.58
329.326	14.84
329.54	22.16
329.753	36.46
329.966	38.82
330.179	42.92
330.393	46.56
330.606	52.92
330.819	52.95
331.032	47.85
331.246	43.13
331.459	33.22
331.672	32.51
331.885	23.42
332.098	17.81
332.311	-0.15
332.525	9.44
332.738	14.46
332.951	24.48
333.164	7.44
333.377	3.87
333.59	4.57
333.803	14.96
334.016	10.58
334.229	12.13
334.442	22.98
334.655	49.95
334.868	59.4
335.081	61.61
335.294	63.96
335.507	64.13
335.72	52.11
335.933	56.33
336.146	41.49
336.359	32.29
336.572	25.52
336.785	26.56
336.997	15.37
337.21	26.27
337.423	14.04
337.636	22.07
337.849	22.2
338.062	27.51
338.274	28.79
338.487	26.58
338.7	25.27
338.913	26.44
339.125	25.9
339.338	34.38
339.551	36.74
339.763	30.66
339.976	32
340.189	27.57
340.402	23.48
340.614	23.79
340.827	12.18
341.039	10.99
341.252	13.65
341.465	11.95
341.677	2.86
341.89	13.23
342.102	9.17
342.315	17.41
342.527	10
342.74	8.58
342.952	13.29
343.165	34.96
343.377	23.78
343.59	27.57
343.802	37.59
344.015	42.23
344.227	42.9
344.44	38.96
344.652	40.81
344.864	44.38
345.077	45.69
345.289	34.93
345.502	39.74
345.714	32.95
345.926	35.76
346.139	26.59
346.351	18.24
346.563	27.17
346.775	21.91
346.988	19.92
347.2	19.43
347.412	21.1
347.624	26.95
347.837	30.37
348.049	22.45
348.261	25.18
348.473	20.78
348.685	28.9
348.897	26.75
349.11	24.76
349.322	23.31
349.534	29.42
349.746	35.75
349.958	39.67
350.17	45.82
350.382	31.87
350.594	27.55
350.806	33.47
351.018	35.93
351.23	32.78
351.442	21.52
351.654	14.16
351.866	25.71
352.078	20.95
352.29	20.71
352.502	17.9
352.714	19.76
352.926	24.51
353.138	26.04
353.35	25.14
353.561	23.98
353.773	17.68
353.985	21.5
354.197	15.47
354.409	20.26
354.621	20.26
354.832	11.97
355.044	20.25
355.256	21.82
355.468	16.73
355.679	23.93
355.891	19.85
356.103	21.56
356.314	29.13
356.526	27.13
356.738	29.66
356.949	26.38
357.161	21.61
357.373	24.49
357.584	28.67
357.796	25.26
358.008	18.53
358.219	27.62
358.431	30.24
358.642	36.27
358.854	37.85
359.065	32.56
359.277	29.47
359.488	30.01
359.7	22.55
359.911	17.19
360.123	17.1
360.334	14.43
360.546	7.57
360.757	13.99
360.969	25.31
361.18	22.7
361.391	25.01
361.603	23.54
361.814	26.12
362.025	33.96
362.237	30.53
362.448	25.94
362.659	20.32
362.871	24.65
363.082	28.24
363.293	25
363.504	23.66
363.716	26.91
363.927	22.82
364.138	25.27
364.349	26.91
364.56	17.1
364.772	20.67
364.983	18.44
365.194	20.49
365.405	19.03
365.616	10.19
365.827	1
366.038	18.11
366.25	19.34
366.461	31.02
366.672	25.69
366.883	37.65
367.094	38.58
367.305	34.89
367.516	30.64
367.727	24.81
367.938	13.96
368.149	18.62
368.36	10.02
368.571	13.83
368.781	18.74
368.992	12.84
369.203	13.4
369.414	7.88
369.625	2.86
369.836	5.55
370.047	5
370.258	4.18
370.468	10.75
370.679	12.37
370.89	29.41
371.101	24.52
371.312	19.09
371.522	26.47
371.733	18.37
371.944	20.38
372.155	9.01
372.365	-10.06
372.576	1.58
372.787	0.45
372.997	-1.46
373.208	9.93
373.419	6.33
373.629	22.12
373.84	31.4
374.05	27.59
374.261	27.99
374.472	33.77
374.682	31.11
374.893	28.48
375.103	30.34
375.314	30.53
375.524	29.8
375.735	30.04
375.945	19.99
376.156	20.86
376.366	20.25
376.577	12.06
376.787	8.96
376.997	9.97
377.208	8.29
377.418	14.61
377.629	14.75
377.839	22.04
378.049	26.04
378.26	24.68
378.47	29.01
378.68	33.67
378.89	29.51
379.101	21.39
379.311	8.82
379.521	7.52
379.732	1.14
379.942	-1.61
380.152	2.27
380.362	9.75
380.572	15.7
380.783	19
380.993	17.62
381.203	28.11
381.413	31.09
381.623	27.54
381.833	20.33
382.043	17.63
382.253	23.7
382.463	26.95
382.674	19.54
382.884	10.46
383.094	9.97
383.304	9.49
383.514	14.04
383.724	9.91
383.934	8.49
384.144	12.41
384.353	14.87
384.563	11.68
384.773	16.24
384.983	15.48
385.193	15.67
385.403	17.92
385.613	15.67
385.823	16
386.033	17.03
386.242	14.94
386.452	14.05
386.662	16.59
386.872	11.32
387.082	6.71
387.291	6.31
387.501	8
387.711	6.11
387.921	6.62
388.13	5.53
388.34	6.18
388.55	11.74
388.759	11.88
388.969	6.98
389.179	9.98
389.388	8.05
389.598	5.44
389.807	4.73
390.017	2.14
390.227	0.55
390.436	3.64
390.646	2.43
390.855	2.44
391.065	3.48
391.274	2.68
391.484	4.19
391.693	5
391.903	4.04
392.112	3.13
392.322	4.08
392.531	3.54
392.74	3.62
392.95	3.36
393.159	3.99
393.369	4.76
393.578	5.49
393.787	4.96
393.997	6.79
394.206	7.56
394.415	7.37
394.625	6.17
394.834	4.94
395.043	4.93
395.252	4.53
395.462	3.5
395.671	3.64
395.88	2.98
396.089	3.54
396.298	4.13
396.508	3.96
396.717	3.76
396.926	3.21
397.135	2.48
397.344	2.61
397.553	2.94
397.762	2.92
397.971	2.88
398.181	2.85
398.39	3.21
398.599	3.65
398.808	3.83
399.017	3.69
399.226	3.96
399.435	4.18
399.644	4.22
399.853	4.31
400.062	4.09
400.27	4.03
400.479	3.87
400.688	3.66
400.897	3.68
401.106	3.87
401.315	3.63
401.524	3.74
401.733	3.92
401.941	3.79
402.15	3.65
402.359	3.58
402.568	3.48
402.777	3.46
402.985	3.44
403.194	3.3
403.403	3.08
403.612	3.09
403.82	2.99
404.029	2.96
404.238	3.02
404.446	2.87
404.655	2.74
404.864	2.92
405.072	2.89
405.281	2.79
405.489	2.92
405.698	2.83
405.906	2.88
406.115	3
406.324	2.97
406.532	3.04
406.741	3.11
406.949	2.92
407.158	2.98
407.366	3.08
407.574	2.98
407.783	2.9
407.991	2.77
408.2	2.7
408.408	2.78
408.617	2.73
408.825	2.66
409.033	2.67
409.242	2.66
409.45	2.71
409.658	2.72
409.867	2.66
410.075	2.64
410.283	2.52
410.491	2.47
410.7	2.54
410.908	2.56
411.116	2.53
411.324	2.58
411.533	2.41
411.741	2.48
411.949	2.5
412.157	2.48
412.365	2.39
412.573	2.43
412.781	2.43
412.99	2.67
413.198	2.68
413.406	2.65
413.614	2.69
413.822	2.68
414.03	2.55
414.238	2.58
414.446	2.48
414.654	2.47
414.862	2.48
415.07	2.45
415.278	2.44
415.486	2.55
415.694	2.44
415.902	2.42
416.109	2.42
416.317	2.36
416.525	2.4
416.733	2.49
416.941	2.43
417.149	2.51
417.357	2.54
417.564	2.51
417.772	2.55
417.98	2.51
418.188	2.37
418.395	2.38
418.603	2.23
418.811	2.16
419.019	2.16
419.226	2.22
419.434	2.16
419.642	2.21
419.849	2.2
420.057	2.34
420.265	2.32
420.472	2.31
420.68	2.24
420.887	2.3
421.095	2.34
421.302	2.44
421.51	2.48
421.717	2.56
421.925	2.53
422.132	2.5
422.34	2.5
422.547	2.46
422.755	2.34
422.962	2.14
423.17	2.07
423.377	2.21
423.585	2.22
423.792	2.16
423.999	2.12
424.207	2.06
424.414	2.23
424.621	2.22
424.829	2.04
425.036	2.05
425.243	2.05
425.451	2.06
425.658	2.16
425.865	2.02
426.072	2.14
426.28	2.2
426.487	2.18
426.694	2.15
426.901	2.11
427.108	2.12
427.315	2.1
427.523	2.12
427.73	2.11
427.937	2.11
428.144	2.22
428.351	2.37
428.558	2.33
428.765	2.27
428.972	2.28
429.179	2.25
429.386	2.27
429.593	2.19
429.8	2.13
430.007	2.12
430.214	2.28
430.421	2.16
430.628	2.07
430.835	2.05
431.042	2.1
431.249	2.08
431.456	2.12
431.662	2.1
431.869	2.22
432.076	2.27
432.283	2.25
432.49	2.24
432.697	2.29
432.903	2.31
433.11	2.35
433.317	2.28
433.524	2.25
433.73	2.35
433.937	2.35
434.144	2.4
434.35	2.38
434.557	2.32
434.764	2.27
434.97	2.39
435.177	2.29
435.384	2.31
435.59	2.2
435.797	2.21
436.003	2.24
436.21	2.3
436.416	2.25
436.623	2.32
436.829	2.29
437.036	2.34
437.242	2.37
437.449	2.39
437.655	2.38
437.862	2.41
438.068	2.46
438.275	2.43
438.481	2.47
438.687	2.54
438.894	2.54
439.1	2.61
439.307	2.6
439.513	2.51
439.719	2.58
439.926	2.61
440.132	2.55
440.338	2.59
440.544	2.54
440.751	2.52
440.957	2.54
441.163	2.57
441.369	2.49
441.575	2.45
441.782	2.38
441.988	2.39
442.194	2.52
442.4	2.6
442.606	2.62
442.812	2.69
443.018	2.71
443.224	2.8
443.431	2.82
443.637	2.73
443.843	2.66
444.049	2.58
444.255	2.51
444.461	2.53
444.667	2.52
444.873	2.52
445.079	2.56
445.284	2.57
445.49	2.57
445.696	2.66
445.902	2.73
446.108	2.76
446.314	2.82
446.52	2.85
446.726	2.92
446.931	2.94
447.137	2.92
447.343	2.85
447.549	2.78
447.755	2.7
447.96	2.63
448.166	2.64
448.372	2.64
448.578	2.62
448.783	2.61
448.989	2.66
449.195	2.66
449.4	2.7
449.606	2.65
449.812	2.7
450.017	2.72
450.223	2.76
450.428	2.76
450.634	2.8
450.84	2.76
451.045	2.81
451.251	2.83
451.456	2.8
451.662	2.77
451.867	2.74
452.073	2.7
452.278	2.74
452.483	2.75
452.689	2.73
452.894	2.76
453.1	2.76
453.305	2.8
453.51	2.82
453.716	2.86
453.921	2.84
454.127	2.82
454.332	2.82
454.537	2.88
454.742	2.85
454.948	2.87
455.153	2.86
455.358	2.91
455.563	2.91
455.769	2.89
455.974	2.79
456.179	2.76
456.384	2.8
456.589	2.8
456.795	2.7
457	2.71
457.205	2.69
457.41	2.72
457.615	2.77
457.82	2.77
458.025	2.8
458.23	2.86
458.435	2.81
458.64	2.9
458.845	2.92
459.05	2.92
459.255	2.92
459.46	2.88
459.665	2.91
459.87	2.93
460.075	2.87
460.28	2.89
460.485	2.91
460.69	2.86
460.895	2.88
461.099	2.88
461.304	2.88
461.509	2.81
461.714	2.83
461.919	2.78
462.123	2.84
462.328	2.8
462.533	2.82
462.738	2.84
462.942	2.97
463.147	2.96
463.352	3.05
463.556	3.04
463.761	3.08
463.966	3.07
464.17	3.09
464.375	3.02
464.58	3.03
464.784	3.02
464.989	3
465.193	3.04
465.398	3.08
465.602	3.09
465.807	3.12
466.011	3.15
466.216	3.16
466.42	3.22
466.625	3.2
466.829	3.19
467.034	3.23
467.238	3.27
467.443	3.28
467.647	3.29
467.851	3.28
468.056	3.27
468.26	3.22
468.464	3.18
468.669	3.23
468.873	3.24
469.077	3.23
469.282	3.27
469.486	3.3
469.69	3.34
469.894	3.41
470.099	3.36
470.303	3.34
470.507	3.36
470.711	3.33
470.915	3.36
471.119	3.38
471.324	3.36
471.528	3.4
471.732	3.43
471.936	3.42
472.14	3.39
472.344	3.4
472.548	3.44
472.752	3.45
472.956	3.51
473.16	3.53
473.364	3.54
473.568	3.61
473.772	3.62
473.976	3.61
474.18	3.6
474.384	3.55
474.588	3.57
474.792	3.58
474.995	3.59
475.199	3.61
475.403	3.6
475.607	3.63
475.811	3.66
476.015	3.7
476.218	3.71
476.422	3.75
476.626	3.71
476.83	3.72
477.033	3.76
477.237	3.76
477.441	3.74
477.644	3.78
477.848	3.72
478.052	3.79
478.255	3.81
478.459	3.85
478.663	3.84
478.866	3.83
479.07	3.83
479.273	3.86
479.477	3.86
479.681	3.86
479.884	3.82
480.088	3.85
480.291	3.86
480.495	3.89
480.698	3.91
480.901	3.88
481.105	3.92
481.308	3.94
481.512	3.97
481.715	4.02
481.919	4.03
482.122	4.03
482.325	4.09
482.529	4.16
482.732	4.18
482.935	4.2
483.138	4.18
483.342	4.21
483.545	4.21
483.748	4.21
483.952	4.2
484.155	4.24
484.358	4.23
484.561	4.27
484.764	4.27
484.967	4.33
485.171	4.31
485.374	4.31
485.577	4.3
485.78	4.26
485.983	4.27
486.186	4.24
486.389	4.2
486.592	4.22
486.795	4.18
486.998	4.19
487.201	4.27
487.404	4.26
487.607	4.31
487.81	4.35
488.013	4.34
488.216	4.37
488.419	4.37
488.622	4.29
488.825	4.29
489.028	4.26
489.231	4.22
489.433	4.18
489.636	4.14
489.839	4.14
490.042	4.17
490.245	4.17
490.447	4.2
490.65	4.22
490.853	4.29
491.056	4.33
491.258	4.36
491.461	4.34
491.664	4.32
491.866	4.34
492.069	4.34
492.272	4.32
492.474	4.3
492.677	4.3
492.879	4.32
493.082	4.34
493.285	4.33
493.487	4.3
493.69	4.28
493.892	4.33
494.095	4.31
494.297	4.36
494.5	4.36
494.702	4.34
494.905	4.38
495.107	4.43
495.309	4.39
495.512	4.43
495.714	4.44
495.917	4.44
496.119	4.49
496.321	4.51
496.524	4.51
496.726	4.5
496.928	4.51
497.13	4.53
497.333	4.57
497.535	4.57
497.737	4.56
497.939	4.57
498.142	4.59
498.344	4.59
498.546	4.6
498.748	4.57
498.95	4.56
499.152	4.55
499.355	4.54
499.557	4.63
499.759	4.66
499.961	4.63
500.163	4.67
500.365	4.66
500.567	4.71
500.769	4.76
500.971	4.7
501.173	4.68
501.375	4.7
501.577	4.76
501.779	4.8
501.981	4.8
502.183	4.77
502.385	4.8
502.587	4.81
502.788	4.82
502.99	4.76
503.192	4.8
503.394	4.83
503.596	4.88
503.798	4.96
503.999	4.98
504.201	5.01
504.403	5.08
504.605	5.11
504.806	5.08
505.008	5.09
505.21	5.06
505.411	5.08
505.613	5.09
505.815	5.1
506.016	5.09
506.218	5.11
506.42	5.13
506.621	5.15
506.823	5.15
507.024	5.14
507.226	5.14
507.427	5.08
507.629	5.13
507.83	5.11
508.032	5.17
508.233	5.17
508.435	5.16
508.636	5.16
508.838	5.25
509.039	5.26
509.24	5.3
509.442	5.25
509.643	5.25
509.845	5.26
510.046	5.27
510.247	5.28
510.448	5.33
510.65	5.32
510.851	5.34
511.052	5.39
511.254	5.43
511.455	5.42
511.656	5.42
511.857	5.43
512.058	5.46
512.26	5.47
512.461	5.48
512.662	5.49
512.863	5.53
513.064	5.54
513.265	5.56
513.466	5.6
513.667	5.62
513.868	5.59
514.069	5.59
514.27	5.59
514.471	5.61
514.672	5.64
514.873	5.66
515.074	5.68
515.275	5.72
515.476	5.72
515.677	5.77
515.878	5.78
516.079	5.75
516.28	5.72
516.481	5.71
516.682	5.73
516.882	5.77
517.083	5.74
517.284	5.77
517.485	5.82
517.686	5.85
517.886	5.88
518.087	5.92
518.288	5.92
518.488	5.96
518.689	5.95
518.89	5.95
519.091	5.97
519.291	5.96
519.492	5.94
519.692	5.98
519.893	6.01
520.094	6.04
520.294	6.03
520.495	6.04
520.695	6.05
520.896	6.03
521.096	6.03
521.297	6.01
521.497	6.04
521.698	6.07
521.898	6.08
522.099	6.11
522.299	6.16
522.499	6.17
522.7	6.21
522.9	6.19
523.101	6.19
523.301	6.19
523.501	6.2
523.702	6.22
523.902	6.23
524.102	6.21
524.302	6.23
524.503	6.26
524.703	6.28
524.903	6.32
525.103	6.32
525.304	6.32
525.504	6.34
525.704	6.33
525.904	6.34
526.104	6.35
526.304	6.34
526.504	6.33
526.705	6.35
526.905	6.39
527.105	6.41
527.305	6.4
527.505	6.41
527.705	6.38
527.905	6.39
528.105	6.4
528.305	6.4
528.505	6.43
528.705	6.46
528.905	6.45
529.105	6.49
529.304	6.57
529.504	6.57
529.704	6.57
529.904	6.59
530.104	6.58
530.304	6.62
530.503	6.61
530.703	6.6
530.903	6.63
531.103	6.67
531.303	6.68
531.502	6.68
531.702	6.68
531.902	6.7
532.101	6.7
532.301	6.69
532.501	6.72
532.7	6.69
532.9	6.74
533.1	6.74
533.299	6.77
533.499	6.8
533.698	6.86
533.898	6.84
534.097	6.93
534.297	6.94
534.496	7.01
534.696	7.02
534.895	7.06
535.095	7.07
535.294	7.08
535.494	7.07
535.693	7.11
535.892	7.13
536.092	7.16
536.291	7.2
536.491	7.21
536.69	7.21
536.889	7.21
537.088	7.23
537.288	7.24
537.487	7.26
537.686	7.26
537.886	7.27
538.085	7.35
538.284	7.41
538.483	7.42
538.682	7.44
538.882	7.47
539.081	7.48
539.28	7.51
539.479	7.51
539.678	7.54
539.877	7.6
540.076	7.59
540.275	7.61
540.474	7.61
540.673	7.64
540.872	7.69
541.071	7.71
541.27	7.72
541.469	7.77
541.668	7.81
541.867	7.89
542.066	7.9
542.265	7.94
542.464	7.96
542.663	8.02
542.862	8.08
543.06	8.1
543.259	8.09
543.458	8.14
543.657	8.17
543.856	8.2
544.054	8.23
544.253	8.22
544.452	8.25
544.651	8.31
544.849	8.34
545.048	8.36
545.247	8.4
545.445	8.4
545.644	8.47
545.843	8.54
546.041	8.6
546.24	8.66
546.438	8.74
546.637	8.81
546.836	8.88
547.034	8.92
547.233	8.96
547.431	8.98
547.63	9.04
547.828	9.09
548.027	9.1
548.225	9.17
548.423	9.22
548.622	9.26
548.82	9.35
549.019	9.4
549.217	9.5
549.415	9.55
549.614	9.54
549.812	9.6
550.01	9.66
550.209	9.76
550.407	9.84
550.605	9.88
550.803	9.96
551.002	10.07
551.2	10.16
551.398	10.22
551.596	10.24
551.794	10.3
551.993	10.32
552.191	10.47
552.389	10.57
552.587	10.6
552.785	10.71
552.983	10.82
553.181	10.87
553.379	10.95
553.577	10.98
553.775	11.05
553.973	11.16
554.171	11.21
554.369	11.25
554.567	11.33
554.765	11.41
554.963	11.46
555.161	11.56
555.359	11.65
555.557	11.77
555.755	11.89
555.952	11.98
556.15	12.1
556.348	12.19
556.546	12.28
556.744	12.38
556.941	12.47
557.139	12.59
557.337	12.71
557.535	12.8
557.732	12.93
557.93	13.02
558.128	13.09
558.325	13.14
558.523	13.23
558.721	13.34
558.918	13.45
559.116	13.51
559.313	13.63
559.511	13.73
559.708	13.86
559.906	13.9
560.104	14
560.301	14.08
560.498	14.2
560.696	14.28
560.893	14.41
561.091	14.52
561.288	14.67
561.486	14.76
561.683	14.88
561.88	15.02
562.078	15.09
562.275	15.22
562.473	15.33
562.67	15.41
562.867	15.52
563.064	15.65
563.262	15.76
563.459	15.91
563.656	16.03
563.853	16.13
564.051	16.29
564.248	16.42
564.445	16.52
564.642	16.64
564.839	16.78
565.036	16.87
565.234	16.99
565.431	17.08
565.628	17.22
565.825	17.34
566.022	17.42
566.219	17.47
566.416	17.57
566.613	17.7
566.81	17.75
567.007	17.79
567.204	17.86
567.401	17.96
567.598	17.99
567.795	18.07
567.991	18.17
568.188	18.29
568.385	18.39
568.582	18.54
568.779	18.61
568.976	18.77
569.172	18.87
569.369	18.88
569.566	18.92
569.763	19
569.96	19.05
570.156	19.1
570.353	19.18
570.55	19.26
570.746	19.35
570.943	19.51
571.14	19.56
571.336	19.59
571.533	19.7
571.729	19.75
571.926	19.78
572.123	19.82
572.319	19.87
572.516	19.95
572.712	20.04
572.909	20.07
573.105	20.12
573.302	20.22
573.498	20.27
573.695	20.28
573.891	20.28
574.087	20.28
574.284	20.29
574.48	20.35
574.677	20.38
574.873	20.46
575.069	20.53
575.266	20.59
575.462	20.68
575.658	20.74
575.854	20.74
576.051	20.77
576.247	20.77
576.443	20.81
576.639	20.82
576.835	20.79
577.032	20.82
577.228	20.85
577.424	20.87
577.62	20.87
577.816	20.89
578.012	20.88
578.208	20.92
578.404	20.92
578.6	20.91
578.796	20.9
578.993	20.91
579.189	20.87
579.384	20.88
579.58	20.89
579.776	20.88
579.972	20.9
580.168	20.91
580.364	20.93
580.56	20.97
580.756	20.98
580.952	20.97
581.148	21
581.343	21
581.539	21.03
581.735	21
581.931	20.95
582.127	20.97
582.322	20.94
582.518	20.86
582.714	20.85
582.909	20.78
583.105	20.79
583.301	20.82
583.496	20.79
583.692	20.77
583.888	20.81
584.083	20.83
584.279	20.88
584.474	20.85
584.67	20.84
584.866	20.88
585.061	20.93
585.257	20.94
585.452	20.95
585.648	20.88
585.843	20.92
586.039	20.95
586.234	20.9
586.429	20.88
586.625	20.89
586.82	20.85
587.015	20.88
587.211	20.87
587.406	20.88
587.601	20.92
587.797	20.88
587.992	20.91
588.187	20.96
588.383	20.99
588.578	20.99
588.773	20.98
588.968	21.04
589.163	21.13
589.359	21.11
589.554	21.1
589.749	21.15
589.944	21.16
590.139	21.21
590.334	21.14
590.529	21.19
590.724	21.24
590.919	21.34
591.114	21.37
591.309	21.45
591.504	21.48
591.699	21.56
591.894	21.6
592.089	21.66
592.284	21.65
592.479	21.67
592.674	21.69
592.869	21.74
593.064	21.84
593.259	21.86
593.454	21.92
593.648	21.98
593.843	22.04
594.038	22.09
594.233	22.2
594.428	22.24
594.622	22.31
594.817	22.37
595.012	22.46
595.206	22.5
595.401	22.51
595.596	22.59
595.79	22.64
595.985	22.74
596.18	22.84
596.374	22.88
596.569	23.02
596.763	23.23
596.958	23.28
597.153	23.42
597.347	23.54
597.542	23.59
597.736	23.73
597.931	23.83
598.125	23.86
598.319	23.91
598.514	23.95
598.708	23.99
598.903	24.11
599.097	24.22
599.291	24.35
599.486	24.4
599.68	24.43
599.874	24.57
600.069	24.55
600.263	24.54
600.457	24.58
600.651	24.55
600.846	24.59
601.04	24.62
601.234	24.58
601.428	24.66
601.622	24.76
601.817	24.78
602.011	24.83
602.205	24.91
602.399	25
602.593	25.03
602.787	25.06
602.981	25.05
603.175	24.98
603.369	24.97
603.563	24.92
603.757	24.92
603.951	24.93
604.145	24.93
604.339	24.91
604.533	24.93
604.727	24.97
604.921	25.02
605.115	24.98
605.309	24.96
605.502	24.96
605.696	24.86
605.89	24.84
606.084	24.71
606.278	24.65
606.471	24.6
606.665	24.53
606.859	24.52
607.053	24.55
607.246	24.49
607.44	24.49
607.634	24.41
607.827	24.31
608.021	24.23
608.214	24.14
608.408	24.02
608.602	23.97
608.795	23.88
608.989	23.83
609.182	23.84
609.376	23.79
609.569	23.72
609.763	23.71
609.956	23.62
610.15	23.54
610.343	23.46
610.537	23.38
610.73	23.33
610.923	23.28
611.117	23.18
611.31	23.13
611.504	23.09
611.697	23.01
611.89	22.86
612.083	22.75
612.277	22.59
612.47	22.49
612.663	22.43
612.856	22.3
613.05	22.19
613.243	22.18
613.436	22.12
613.629	22.13
613.822	22.04
614.015	21.92
614.209	21.91
614.402	21.87
614.595	21.76
614.788	21.67
614.981	21.55
615.174	21.5
615.367	21.43
615.56	21.31
615.753	21.24
615.946	21.23
616.139	21.23
616.332	21.16
616.525	21.09
616.718	21.02
616.911	20.99
617.103	20.93
617.296	20.86
617.489	20.78
617.682	20.72
617.875	20.69
618.067	20.67
618.26	20.64
618.453	20.6
618.646	20.57
618.838	20.49
619.031	20.43
619.224	20.42
619.417	20.36
619.609	20.28
619.802	20.25
619.994	20.15
620.187	20.16
620.38	20.15
620.572	20.11
620.765	20.07
620.957	20.01
621.15	19.94
621.342	20.03
621.535	20
621.727	19.94
621.92	19.92
622.112	19.9
622.305	19.86
622.497	19.86
622.69	19.73
622.882	19.68
623.074	19.7
623.267	19.65
623.459	19.63
623.651	19.69
623.844	19.66
624.036	19.67
624.228	19.63
624.42	19.59
624.613	19.57
624.805	19.6
624.997	19.54
625.189	19.53
625.381	19.5
625.574	19.44
625.766	19.39
625.958	19.34
626.15	19.28
626.342	19.22
626.534	19.13
626.726	19.11
626.918	19.11
627.11	19.09
627.302	19.09
627.494	19.04
627.686	19.04
627.878	18.99
628.07	18.96
628.262	18.94
628.454	18.91
628.646	18.92
628.838	18.86
629.029	18.79
629.221	18.78
629.413	18.74
629.605	18.65
629.797	18.61
629.989	18.52
630.18	18.49
630.372	18.51
630.564	18.54
630.755	18.49
630.947	18.49
631.139	18.43
631.33	18.41
631.522	18.41
631.714	18.36
631.905	18.25
632.097	18.22
632.289	18.17
632.48	18.15
632.672	18.08
632.863	18.02
633.055	18.02
633.246	18.05
633.438	18.02
633.629	18.08
633.821	18.07
634.012	18.07
634.203	18.13
634.395	18.11
634.586	18.08
634.777	18.05
634.969	18
635.16	17.97
635.351	17.97
635.543	17.93
635.734	17.88
635.925	17.9
636.117	17.9
636.308	17.83
636.499	17.82
636.69	17.84
636.881	17.84
637.073	17.86
637.264	17.79
637.455	17.8
637.646	17.86
637.837	17.89
638.028	17.9
638.219	17.85
638.41	17.86
638.601	17.86
638.792	17.83
638.983	17.78
639.174	17.75
639.365	17.69
639.556	17.68
639.747	17.66
639.938	17.71
640.129	17.74
640.32	17.71
640.511	17.69
640.701	17.68
640.892	17.64
641.083	17.57
641.274	17.59
641.465	17.52
641.655	17.59
641.846	17.56
642.037	17.56
642.228	17.58
642.418	17.57
642.609	17.5
642.8	17.46
642.99	17.43
643.181	17.44
643.372	17.46
643.562	17.46
643.753	17.42
643.943	17.38
644.134	17.4
644.324	17.33
644.515	17.29
644.705	17.25
644.896	17.21
645.086	17.15
645.277	17.17
645.467	17.17
645.658	17.13
645.848	17.1
646.038	17.06
646.229	17.06
646.419	17.09
646.61	17.04
646.8	16.97
646.99	16.99
647.18	16.99
647.371	16.94
647.561	16.89
647.751	16.87
647.941	16.84
648.132	16.88
648.322	16.88
648.512	16.82
648.702	16.76
648.892	16.77
649.082	16.74
649.272	16.71
649.462	16.61
649.653	16.57
649.843	16.58
650.033	16.6
650.223	16.57
650.413	16.6
650.603	16.57
650.793	16.55
650.983	16.49
651.172	16.42
651.362	16.39
651.552	16.29
651.742	16.16
651.932	16.11
652.122	16.08
652.312	15.92
652.502	15.86
652.691	15.79
652.881	15.75
653.071	15.65
653.261	15.54
653.45	15.47
653.64	15.51
653.83	15.36
654.019	15.22
654.209	15.13
654.399	15.05
654.588	14.91
654.778	14.82
654.968	14.63
655.157	14.51
655.347	14.39
655.536	14.21
655.726	14.05
655.915	13.93
656.105	13.75
656.294	13.59
656.484	13.48
656.673	13.37
656.863	13.24
657.052	13.04
657.241	12.89
657.431	12.7
657.62	12.52
657.809	12.34
657.999	12.14
658.188	11.96
658.377	11.9
658.567	11.76
658.756	11.62
658.945	11.47
659.134	11.28
659.324	11.1
659.513	10.9
659.702	10.69
659.891	10.46
660.08	10.29
660.269	10.14
660.458	10.02
660.648	9.9
660.837	9.8
661.026	9.62
661.215	9.51
661.404	9.39
661.593	9.3
661.782	9.13
661.971	8.98
662.16	8.81
662.349	8.73
662.538	8.61
662.726	8.48
662.915	8.33
663.104	8.2
663.293	8.11
663.482	8.02
663.671	7.94
663.86	7.84
664.048	7.74
664.237	7.64
664.426	7.6
664.615	7.51
664.803	7.37
664.992	7.31
665.181	7.24
665.369	7.11
665.558	7.05
665.747	7
665.935	7.01
666.124	7.05
666.312	6.95
666.501	6.87
666.69	6.86
666.878	6.79
667.067	6.77
667.255	6.67
667.444	6.63
667.632	6.6
667.82	6.57
668.009	6.56
668.197	6.51
668.386	6.44
668.574	6.37
668.762	6.32
668.951	6.29
669.139	6.31
669.327	6.29
669.516	6.35
669.704	6.33
669.892	6.37
670.08	6.31
670.269	6.33
670.457	6.29
670.645	6.28
670.833	6.29
671.021	6.35
671.21	6.37
671.398	6.44
671.586	6.44
671.774	6.43
671.962	6.52
672.15	6.5
672.338	6.54
672.526	6.57
672.714	6.58
672.902	6.67
673.09	6.81
673.278	6.77
673.466	6.9
673.654	6.94
673.842	6.97
674.03	7.11
674.218	7.12
674.405	7.14
674.593	7.18
674.781	7.15
674.969	7.17
675.157	7.17
675.344	7.23
675.532	7.35
675.72	7.37
675.908	7.47
676.095	7.61
676.283	7.66
676.471	7.77
676.658	7.82
676.846	7.86
677.033	7.99
677.221	8.11
677.409	8.19
677.596	8.35
677.784	8.39
677.971	8.45
678.159	8.6
678.346	8.67
678.534	8.67
678.721	8.75
678.909	8.76
679.096	8.89
679.283	9.03
679.471	9.12
679.658	9.27
679.846	9.44
680.033	9.53
680.22	9.61
680.408	9.7
680.595	9.73
680.782	9.78
680.969	9.79
681.157	9.89
681.344	9.99
681.531	10.16
681.718	10.36
681.905	10.55
682.093	10.62
682.28	10.86
682.467	10.94
682.654	11.03
682.841	11.2
683.028	11.39
683.215	11.6
683.402	11.8
683.589	11.97
683.776	12.26
683.963	12.52
684.15	12.7
684.337	12.81
684.524	12.96
684.711	13.17
684.898	13.34
685.085	13.55
685.271	13.8
685.458	14.16
685.645	14.46
685.832	14.88
686.019	15.18
686.205	15.54
686.392	15.84
686.579	16.19
686.766	16.46
686.952	16.86
687.139	17.04
687.326	17.47
687.512	17.81
687.699	18.24
687.886	18.62
688.072	19.02
688.259	19.4
688.445	19.85
688.632	20.37
688.818	20.92
689.005	21.48
689.191	22.03
689.378	22.53
689.564	23.1
689.751	23.81
689.937	24.22
690.124	24.77
690.31	25.26
690.496	25.82
690.683	26.58
690.869	27.19
691.055	27.91
691.242	28.56
691.428	29.24
691.614	29.96
691.8	30.61
691.987	31.13
692.173	31.84
692.359	32.4
692.545	33.15
692.731	33.81
692.918	34.4
693.104	35.05
693.29	35.78
693.476	36.47
693.662	37.16
693.848	37.82
694.034	38.36
694.22	39.13
694.406	39.88
694.592	40.46
694.778	40.98
694.964	41.54
695.15	42.18
695.336	43.07
695.522	43.78
695.708	44.41
695.894	45.24
696.08	46.02
696.265	46.79
696.451	47.62
696.637	48.28
696.823	48.99
697.009	49.74
697.194	50.42
697.38	51.03
697.566	51.48
697.751	52.02
697.937	52.58
698.123	53.21
698.308	53.78
698.494	54.37
698.68	55.05
698.865	55.88
699.051	56.42
699.236	56.97
699.422	57.46
699.607	57.96
699.793	58.45
699.978	58.85
700.164	59.38
700.349	59.92
700.535	60.39
700.72	60.91
700.906	61.5
701.091	61.96
701.276	62.63
701.462	63.16
701.647	63.5
701.832	64.15
702.018	64.42
702.203	64.68
702.388	64.99
702.573	65.52
702.759	65.78
702.944	66.27
703.129	66.4
703.314	66.88
703.499	67.51
703.684	68.06
703.87	68.18
704.055	68.57
704.24	69.04
704.425	69.53
704.61	69.69
704.795	69.97
704.98	70.26
705.165	70.52
705.35	70.81
705.535	71.26
705.72	71.52
705.905	71.89
706.09	72.16
706.275	72.38
706.459	72.85
706.644	73.17
706.829	73.23
707.014	73.58
707.199	74
707.384	74.28
707.568	74.68
707.753	74.92
707.938	75.06
708.123	75.2
708.307	75.48
708.492	75.37
708.677	75.58
708.861	75.54
709.046	75.45
709.231	75.94
709.415	76.08
709.6	76.14
709.784	76.68
709.969	76.82
710.153	77.23
710.338	77.63
710.522	77.62
710.707	77.66
710.891	77.84
711.076	77.79
711.26	78
711.445	77.91
711.629	78.04
711.813	77.99
711.998	78.3
712.182	78.45
712.366	78.82
712.551	79.01
712.735	79.18
712.919	79.38
713.103	79.73
713.288	80.04
713.472	80.19
713.656	80.07
713.84	80.2
714.024	80.55
714.208	80.58
714.393	80.58
714.577	80.68
714.761	80.92
714.945	81.04
715.129	80.89
715.313	80.96
715.497	81.08
715.681	81.46
715.865	81.24
716.049	81.29
716.233	81.63
716.417	82.09
716.601	82.22
716.785	82.35
716.968	82.01
717.152	82.45
717.336	82.55
717.52	82.62
717.704	82.71
717.888	82.68
718.071	82.99
718.255	83.35
718.439	83.24
718.622	83.23
718.806	83.01
718.99	83.23
719.174	83.2
719.357	83.05
719.541	83.1
719.724	83.45
719.908	83.62
720.092	84.1
720.275	83.88
720.459	84
720.642	84.24
720.826	84.18
721.009	84.01
721.193	84.07
721.376	83.81
721.559	83.8
721.743	83.8
721.926	83.59
722.11	83.64
722.293	83.38
722.476	83.24
722.66	83.41
722.843	83.83
723.026	84.2
723.21	84.47
723.393	84.58
723.576	85.15
723.759	85.53
723.942	85.83
724.126	85.6
724.309	85.72
724.492	85.86
724.675	86.27
724.858	86.27
725.041	86.22
725.224	86.2
725.407	85.99
725.59	85.81
725.774	85.79
725.957	85.69
726.14	85.81
726.322	85.61
726.505	85.78
726.688	86.14
726.871	86.19
727.054	86.37
727.237	85.95
727.42	86.29
727.603	86.55
727.786	86.73
727.968	86.84
728.151	87.24
728.334	87.07
728.517	87.7
728.699	87.51
728.882	87.83
729.065	87.8
729.248	87.9
729.43	87.57
729.613	87.84
729.796	87.56
729.978	87.55
730.161	87.56
730.343	87.6
730.526	87.66
730.708	88.14
730.891	88.11
731.073	88.26
731.256	88.3
731.438	88.49
731.621	88.58
731.803	88.8
731.986	88.69
732.168	88.67
732.35	89.08
732.533	89.21
732.715	89.29
732.898	89.24
733.08	89.48
733.262	89.63
733.444	89.92
733.627	89.76
733.809	90.01
733.991	90.04
734.173	90.05
734.355	89.97
734.538	89.5
734.72	89.7
734.902	89.34
735.084	89.26
735.266	89.14
735.448	89.31
735.63	88.97
735.812	89.57
735.994	89.21
736.176	89.95
736.358	90.19
736.54	90.33
736.722	90.04
736.904	90.55
737.086	90.34
737.268	90.71
737.45	90.75
737.632	90.19
737.814	90.42
737.995	90.8
738.177	90.72
738.359	90.92
738.541	90.55
738.723	90.66
738.904	91.2
739.086	91.06
739.268	91.63
739.449	91.37
739.631	91.37
739.813	91.22
739.994	91.27
740.176	91.04
740.358	91.22
740.539	90.66
740.721	90.64
740.902	90.37
741.084	91.07
741.265	90.91
741.447	90.45
741.628	89.95
741.81	90.14
741.991	90.89
742.172	90.85
742.354	90.98
742.535	90.97
742.717	91.25
742.898	91.77
743.079	91.55
743.261	91.46
743.442	92.14
743.623	91.86
743.804	91.86
743.986	91.99
744.167	91.46
744.348	91.73
744.529	91.37
744.71	90.9
744.891	90.58
745.073	90.12
745.254	90.18
745.435	90.34
745.616	90.21
745.797	89.91
745.978	90.27
746.159	90.18
746.34	90.84
746.521	90.41
746.702	90.45
746.883	90.19
747.064	89.97
747.245	89.19
747.426	89.85
747.606	89.77
747.787	90.51
747.968	90.68
748.149	90.84
748.33	91.77
748.51	92.2
748.691	92.17
748.872	91.93
749.053	91.72
749.233	91.22
749.414	91.29
749.595	90.2
749.775	90.36
749.956	89.48
750.137	89.08
750.317	88.67
750.498	89.43
750.678	89.55
750.859	89.62
751.04	89.16
751.22	89.17
751.4	89.76
751.581	90.3
751.761	90.61
751.942	90.37
752.122	90.26
752.303	90.91
752.483	91.68
752.663	91.47
752.844	90.77
753.024	90.05
753.204	90.3
753.385	90.87
753.565	89.8
753.745	89.85
753.925	89.39
754.106	89.87
754.286	89.93
754.466	89.68
754.646	89.38
754.826	90.33
755.006	89.58
755.187	89.84
755.367	89.49
755.547	88.9
755.727	88.57
755.907	89.25
756.087	88.9
756.267	88.91
756.447	89.35
756.627	89.37
756.807	90.76
756.987	91.68
757.167	91.25
757.346	90.55
757.526	91.67
757.706	91.24
757.886	91.34
758.066	90.66
758.246	89.89
758.425	90.04
758.605	90.63
758.785	89.67
758.965	88.82
759.144	89.29
759.324	90.31
759.504	90.12
759.683	89.23
759.863	89.47
760.043	89.53
760.222	90.35
760.402	90.49
760.581	88.74
760.761	88.19
760.94	88.23
761.12	88.45
761.299	87.65
761.479	87.97
761.658	86.9
761.838	87.34
762.017	88.03
762.197	89.14
762.376	88.91
762.555	89.73
762.735	88.8
762.914	89.28
763.093	89.06
763.273	88.25
763.452	86.56
763.631	85.37
763.81	85.56
763.99	85.82
764.169	86.05
764.348	86.6
764.527	86.83
764.706	88.55
764.885	89.56
765.064	88.74
765.243	88.72
765.423	88.96
765.602	87.43
765.781	87.44
765.96	87.32
766.139	86.65
766.318	87.86
766.497	88.23
766.676	88.03
766.854	88.71
767.033	89.24
767.212	88.37
767.391	89.32
767.57	88.68
767.749	88.56
767.928	87.54
768.106	87.67
768.285	88.05
768.464	88.43
768.643	88.99
768.821	89.01
769	89.05
769.179	89.19
769.357	88.5
769.536	86.92
769.715	86.5
769.893	85.03
770.072	84.9
770.25	84.02
770.429	84.52
770.607	85.27
770.786	86.4
770.964	86.3
771.143	86.27
771.321	86.04
771.5	86.19
771.678	86.33
771.857	86.02
772.035	85.13
772.213	84.46
772.392	84.19
772.57	84.08
772.748	84.36
772.927	83.53
773.105	84.33
773.283	84.7
773.461	85.99
773.64	86.35
773.818	86.3
773.996	85.11
774.174	86.89
774.352	86.13
774.531	85.16
774.709	84.93
774.887	84.38
775.065	84.27
775.243	86.28
775.421	84.73
775.599	83.89
775.777	84.68
775.955	83.74
776.133	84.13
776.311	84.02
776.489	83.17
776.667	82.8
776.844	83.27
777.022	82.99
777.2	83.1
777.378	83.81
777.556	84.13
777.734	84.08
777.911	85.15
778.089	84.64
778.267	84.46
778.445	84.05
778.622	82.81
778.8	83.55
778.978	83.08
779.155	82.02
779.333	81.34
779.511	82.09
779.688	81.03
779.866	80.02
780.043	79.86
780.221	80.79
780.398	81.15
780.576	82.12
780.753	80.2
780.931	82.97
781.108	84.56
781.286	82.54
781.463	82.19
781.64	82.45
781.818	81.98
781.995	84.72
782.172	84.53
782.35	84.09
782.527	86.02
782.704	86.39
782.882	85.56
783.059	86.34
783.236	85.43
783.413	84.33
783.59	83.75
783.768	82.5
783.945	82.64
784.122	82.31
784.299	80.98
784.476	81.93
784.653	80.56
784.83	79.13
785.007	80.4
785.184	79.66
785.361	80.83
785.538	82.07
785.715	81.1
785.892	82.14
786.069	85.75
786.246	84.63
786.423	85.68
786.6	83.71
786.776	83.39
786.953	81.96
787.13	83.03
787.307	80.88
787.484	81.44
787.66	79.1
787.837	80.63
788.014	80.21
788.191	80.55
788.367	79.21
788.544	78.46
788.721	77.72
788.897	80.87
789.074	80.34
789.25	81.54
789.427	81.55
789.603	84.56
789.78	87.51
789.956	86.41
790.133	84.73
790.309	85.39
790.486	85.9
790.662	86.11
790.839	87.32
791.015	85
791.192	86.53
791.368	87.12
791.544	86.01
791.721	83.53
791.897	84.02
792.073	79.11
792.249	80.97
792.426	81.57
792.602	80.17
792.778	81.81
792.954	83
793.13	83.43
793.307	82.21
793.483	82.59
793.659	83.82
793.835	84.12
794.011	81.86
794.187	78.48
794.363	78.55
794.539	79.1
794.715	76.5
794.891	72.77
795.067	72.29
795.243	73.27
795.419	77.73
795.595	75.31
795.771	77.72
795.947	77.98
796.122	79.92
796.298	78.07
796.474	79.82
796.65	77.21
796.826	80.69
797.001	80.49
797.177	80.19
797.353	79.98
797.529	81.6
797.704	78.75
797.88	79.51
798.056	80.59
798.231	80.85
798.407	82.19
798.582	84.71
798.758	87.08
798.934	87.07
799.109	84.32
799.285	84.07
799.46	83.63
799.636	82.91
799.811	81.28
799.986	80.19
800.162	80.72
800.337	85.19
800.513	84.73
800.688	89.52
800.863	89.99
801.039	86.5
801.214	83.83
801.389	85.77
801.565	86.16
801.74	84.32
801.915	80.35
802.09	79.85
802.265	82.19
802.441	83.23
802.616	83.73
802.791	83.92
802.966	82.5
803.141	78.06
803.316	79.64
803.491	76.82
803.666	77.76
803.841	74.53
804.016	72.73
804.191	72.45
804.366	74
804.541	71.7
804.716	69.91
804.891	74.32
805.066	75.11
805.241	72.36
805.416	73.56
805.591	77.63
805.765	79.51
805.94	84.42
806.115	78.19
806.29	79.19
806.464	82.19
806.639	81.17
806.814	75.18
806.989	75.3
807.163	74.83
807.338	79.34
807.512	74.44
807.687	71.64
807.862	71.96
808.036	74.8
808.211	76.14
808.385	75.05
808.56	74.44
808.734	76.8
808.909	76.41
809.083	76.46
809.258	79.46
809.432	75.17
809.606	76.36
809.781	72.12
809.955	75.09
810.13	78.99
810.304	77.17
810.478	74.46
810.652	80.51
810.827	77.26
811.001	78.07
811.175	73.87
811.349	69.69
811.524	70.09
811.698	74.17
811.872	70.97
812.046	72.12
812.22	69.73
812.394	73.39
812.568	77.35
812.742	76.14
812.916	71.11
813.09	67.75
813.264	70.01
813.438	81.18
813.612	78.19
813.786	76.48
813.96	83.52
814.134	81.51
814.308	83.64
814.482	83.87
814.656	78.3
814.83	78.61
815.003	81.52
815.177	80.05
815.351	84.31
815.525	81.61
815.698	82.69
815.872	81.27
816.046	80.12
816.219	78.47
816.393	69.77
816.567	64.7
816.74	64.22
816.914	63.11
817.088	61.74
817.261	64.04
817.435	60.75
817.608	63.66
817.782	71.47
817.955	73.75
818.129	74.44
818.302	72.84
818.475	72.09
818.649	70.35
818.822	78.92
818.996	76.11
819.169	76.5
819.342	77.6
819.516	78.27
819.689	81.47
819.862	84.64
820.035	74.85
820.209	73.1
820.382	72.55
820.555	70.74
820.728	67.5
820.901	64.13
821.075	69.69
821.248	75.71
821.421	73.28
821.594	79.61
821.767	78.97
821.94	77
822.113	79.63
822.286	82.29
822.459	84.18
822.632	89.08
822.805	80.81
822.978	74.88
823.151	82.42
823.324	74.37
823.496	61.03
823.669	63.11
823.842	60.41
824.015	60.09
824.188	65.91
824.361	65.54
824.533	78.94
824.706	98.46
824.879	91.53
825.051	96.71
825.224	94.98
825.397	91.43
825.569	89.72
825.742	85.9
825.915	77.79
826.087	71.06
826.26	64.21
826.432	71.48
826.605	76.66
826.777	76.07
826.95	74.07
827.122	72.2
827.295	81.84
827.467	72.34
827.64	62.08
827.812	57.32
827.984	60.04
828.157	63.13
828.329	61.16
828.501	57.51
828.674	62.68
828.846	69.2
829.018	64.42
829.19	63.55
829.363	57.86
829.535	65.61
829.707	56.62
829.879	63.44
830.051	58.79
830.223	51.85
830.395	41.66
830.568	49.69
830.74	46.36
830.912	53.68
831.084	53.44
831.256	49.32
831.428	54.4
831.6	63.31
831.772	58.39
831.943	60.87
832.115	64.08
832.287	60.73
832.459	65.51
832.631	77.1
832.803	76.51
832.975	77.64
833.146	66.71
833.318	68.57
833.49	81.43
833.662	79.43
833.833	79.41
834.005	83.23
834.177	79.13
834.348	83.97
834.52	84.34
834.692	76.42
834.863	76.43
835.035	65.29
835.206	61.14
835.378	62.57
835.549	72.1
835.721	70.9
835.892	73.22
836.064	75.23
836.235	82.34
836.407	73.9
836.578	71.11
836.749	68.68
836.921	60.16
837.092	55.14
837.264	47.29
837.435	36.47
837.606	48.39
837.777	45.6
837.949	32.4
838.12	31.56
838.291	46.86
838.462	56.75
838.633	58.26
838.805	63.9
838.976	68.69
839.147	69.44
839.318	64.21
839.489	45.2
839.66	45.06
839.831	42.06
840.002	31.4
840.173	28.65
840.344	45.25
840.515	51.94
840.686	59.25
840.857	57.94
841.028	66.37
841.199	66.81
841.369	65.18
841.54	67
841.711	71.37
841.882	64.53
842.053	70.06
842.223	58.57
842.394	63.37
842.565	75.46
842.736	72.73
842.906	83.95
843.077	79.53
843.248	83.91
843.418	89.81
843.589	93.89
843.759	96.21
843.93	89.13
844.101	85.39
844.271	98.03
844.442	85.9
844.612	71.68
844.783	51.97
844.953	37.3
845.123	43.61
845.294	39.57
845.464	41.01
845.635	48.57
845.805	66.42
845.975	65.72
846.146	68.76
846.316	78.79
846.486	80.6
846.656	87.31
846.827	78.26
846.997	83.69
847.167	91.97
847.337	96.66
847.507	95.13
847.677	96.44
847.848	98.39
848.018	103.06
848.188	86.52
848.358	91.8
848.528	90.51
848.698	73.11
848.868	59.78
849.038	60.62
849.208	59.28
849.378	59.8
849.548	72.76
849.718	70.74
849.887	74.08
850.057	78.02
850.227	65.08
850.397	51.27
850.567	77.01
850.737	64.21
850.906	60.58
851.076	62.8
851.246	67.46
851.415	81.27
851.585	87.5
851.755	80.93
851.924	79.66
852.094	79.5
852.264	68.32
852.433	70.57
852.603	69.93
852.772	66.93
852.942	46.27
853.111	56.91
853.281	51.48
853.45	62.42
853.62	58.51
853.789	44.2
853.959	39.87
854.128	32.32
854.297	14.68
854.467	26.74
854.636	17.4
854.805	17.08
854.975	29.39
855.144	39.31
855.313	58.4
855.482	65.87
855.652	52.65
855.821	63.31
855.99	86.18
856.159	79.44
856.328	76.13
856.497	63.02
856.667	68.36
856.836	67.06
857.005	61.04
857.174	56.35
857.343	53.37
857.512	35.49
857.681	40.68
857.85	17.08
858.019	48.22
858.188	46.18
858.356	28.59
858.525	43.07
858.694	60.59
858.863	56.82
859.032	69.88
859.201	57.78
859.369	77.06
859.538	69.01
859.707	69.7
859.876	72.33
860.044	89.27
860.213	80.5
860.382	69
860.55	71.33
860.719	88.57
860.888	74.29
861.056	80.45
861.225	78.28
861.393	98.04
861.562	91.51
861.73	75.13
861.899	40.22
862.067	54.53
862.236	46.51
862.404	36.35
862.572	30.36
862.741	23.85
862.909	15.59
863.078	33.2
863.246	31.95
863.414	39.8
863.582	45.39
863.751	28.02
863.919	53.47
864.087	59.8
864.255	59.29
864.424	58.44
864.592	56.65
864.76	65.99
864.928	73.12
865.096	55.13
865.264	64.41
865.432	72.49
865.6	49.55
865.768	36.31
865.936	38.69
866.104	40.48
866.272	47.47
866.44	12.56
866.608	3.05
866.776	62.61
866.944	84.21
867.112	30.49
867.28	27.11
867.448	49.67
867.615	52.2
867.783	32.96
867.951	16.37
868.119	36.76
868.286	53.51
868.454	57.43
868.622	53.02
868.789	70.01
868.957	79.97
869.125	74.49
869.292	73.13
869.46	81.99
869.627	63.64
869.795	58.59
869.963	53.61
870.13	62.99
870.298	47.4
870.465	6.72
870.632	11.65
870.8	17.37
870.967	28.36
871.135	33.08
871.302	21.94
871.469	26.75
871.637	36.91
871.804	39.17
871.971	51.66
872.139	45.73
872.306	29.67
872.473	20.71
872.64	16.09
872.807	6.71
872.975	18.59
873.142	-4.7
873.309	48.34
873.476	140.95
873.643	193.98
873.81	193.15
873.977	137.98
874.144	89.45
874.311	77.95
874.478	8.77
874.645	-18.38
874.812	4.34
874.979	10.54
875.146	-7.26
875.313	-7.59
875.48	43.77
875.647	8.72
875.813	6.98
875.98	-7.78
876.147	26.34
876.314	39.89
876.481	22.44
876.647	37.56
876.814	66.99
876.981	53.79
877.147	38.72
877.314	40.47
877.481	44.09
877.647	55.38
877.814	36.36
877.98	29.81
878.147	73.19
878.314	84.47
878.48	79.71
878.647	92.96
878.813	119.69
878.979	164.31
879.146	93.27
879.312	84.03
879.479	85.21
879.645	38.96
879.811	17.34
879.978	0.9
880.144	-3.62
880.31	-25.79
880.477	-33.95
880.643	-140.7
880.809	80.75
880.975	64.64
881.142	42.02
881.308	33.8
881.474	104.03
881.64	68.84
881.806	57.22
881.972	79.49
882.138	82.78
882.304	56.34
882.47	21.35
882.636	-24.22
882.802	-34.97
882.968	-108.61
883.134	-320.86
883.3	-125.28
883.466	0.41
883.632	-22.76
883.798	-0.41
883.964	5.12
884.129	30.9
884.295	34.14
884.461	21.86
884.627	-35.53
884.793	40.75
884.958	19.86
885.124	-5.41
885.29	-5.51
885.455	4.76
885.621	5.43
885.787	9.67
885.952	-19.41
886.118	2.69
886.283	26.32
886.449	9.87
886.614	12.26
886.78	55.84
886.945	51.18
887.111	81.58
887.276	62.87
887.442	63.12
887.607	78.42
887.773	39.16
887.938	8.2
888.103	40.01
888.269	32.04
888.434	6.76
888.599	19.75
888.764	17.36
888.93	25.47
889.095	27.38
889.26	32.11
889.425	48.94
889.59	67.08
889.756	34.57
889.921	40.95
890.086	74.24
890.251	42.87
890.416	-12.19
890.581	-10.91
890.746	-8.08
890.911	-15.59
891.076	-27.48
891.241	-107.38
891.406	17.02
891.571	37.99
891.736	-7.69
891.901	13.15
892.065	42.12
892.23	39.93
892.395	51.3
892.56	52.66
892.725	65.53
892.889	127.82
893.054	65.23
893.219	4.6
893.384	-79
893.548	-335
893.713	942.57
893.878	571.74
