Data from Ofra_PS_T2_1A_9GT30_Reflection_2.txt Node
Date: Wed Jul 21 18:19:34 EDT 2021
User: Adam
Spectrometer: FLMT01687
Trigger mode: 0
Integration Time (sec): 1.100000E0
Scans to average: 2
Electric dark correction enabled: true
Nonlinearity correction enabled: false
Boxcar width: 2
XAxis mode: Wavelengths
Number of Pixels in Spectrum: 3648
>>>>>Begin Spectral Data<<<<<
179.494	520.4
179.716	607.29
179.937	577.72
180.158	563.37
180.38	926.56
180.601	517.4
180.823	142.07
181.044	5.92
181.265	236.4
181.486	82.98
181.708	54.85
181.929	129.59
182.15	7.75
182.372	161.99
182.593	79.27
182.814	29.35
183.035	55.22
183.257	7.33
183.478	-98.4
183.699	-31.23
183.92	-53.63
184.141	-74.19
184.363	-79.19
184.584	12.98
184.805	13.81
185.026	52.61
185.247	59.28
185.468	25.67
185.689	8.62
185.91	11.63
186.132	3.81
186.353	-20.34
186.574	21.06
186.795	19.35
187.016	-35.16
187.237	-32.01
187.458	-39.15
187.679	-41.95
187.9	-40.03
188.121	-41.2
188.342	-57.64
188.563	10.21
188.784	42.69
189.005	62.47
189.226	138.26
189.447	146.57
189.667	117.72
189.888	-121.43
190.109	-682.47
190.33	-495.81
190.551	-1075.66
190.772	-241.28
190.993	-222.79
191.214	-165.17
191.434	-98.86
191.655	-22.88
191.876	-49.11
192.097	-95.02
192.318	-143.95
192.538	-266.72
192.759	-186.92
192.98	-106.39
193.201	-55.34
193.421	-22.57
193.642	8.51
193.863	18.05
194.083	14.01
194.304	11.63
194.525	-5.73
194.745	-25.08
194.966	-52.35
195.187	-65.86
195.407	-105.26
195.628	-148.08
195.848	-145.02
196.069	-140.7
196.29	-64.01
196.51	-56.79
196.731	-31.61
196.951	-43.91
197.172	-37.1
197.392	-87.03
197.613	-93.77
197.833	-140.89
198.054	-107.28
198.274	-49.84
198.495	-58.62
198.715	-27.29
198.936	-21
199.156	-10.45
199.377	-74.4
199.597	-88.29
199.817	-125.37
200.038	-79.61
200.258	-128.01
200.479	-75.27
200.699	-65.28
200.919	15.79
201.14	4.79
201.36	-9.38
201.58	16.31
201.801	48.18
202.021	17.44
202.241	6.38
202.461	-6.78
202.682	-113.67
202.902	-187.57
203.122	-89.49
203.342	-65.88
203.563	3.52
203.783	28.12
204.003	-2.47
204.223	-41.63
204.443	25.68
204.663	-17.34
204.884	-13.35
205.104	19.41
205.324	62.16
205.544	26.24
205.764	30.58
205.984	51.06
206.204	44.81
206.424	27.43
206.644	1.83
206.864	3.65
207.084	-60.16
207.304	-32.14
207.525	-137.97
207.745	-78.33
207.964	6.98
208.184	-16.89
208.404	-68.92
208.624	-54.31
208.844	-67.64
209.064	-366.47
209.284	-398.83
209.504	-209.47
209.724	-69.28
209.944	-35.32
210.164	13.41
210.384	28.01
210.604	30.59
210.823	-1.61
211.043	-12.96
211.263	-16.71
211.483	-26.51
211.703	-64.71
211.922	-64.94
212.142	-21.92
212.362	-34.42
212.582	-30.19
212.801	-29.87
213.021	-23.98
213.241	-29.94
213.461	-46.1
213.68	-52.8
213.9	-36.96
214.12	-21.4
214.339	-74.98
214.559	-47.74
214.779	-4.71
214.998	-3.18
215.218	-39.26
215.438	-5.56
215.657	-36.65
215.877	-47.02
216.096	-5.77
216.316	7.96
216.535	-7.54
216.755	-10.96
216.974	-93.69
217.194	-151.77
217.413	-170.94
217.633	-182.02
217.852	-222.94
218.072	-123.39
218.291	-75.55
218.511	-26.55
218.73	-30.63
218.95	-32.95
219.169	-15.51
219.389	-45.69
219.608	-27.67
219.827	-21.78
220.047	-5.94
220.266	-8.19
220.485	-11.28
220.705	-19.96
220.924	-40.87
221.143	-6.15
221.363	-30.93
221.582	-8.71
221.801	-6.09
222.021	18.77
222.24	-49.09
222.459	0.43
222.678	-45.72
222.897	-91.69
223.117	-132.96
223.336	-97.86
223.555	-63.58
223.774	-23.57
223.993	-41.39
224.213	26.44
224.432	33.01
224.651	39.07
224.87	26
225.089	47.77
225.308	29.41
225.527	29.26
225.746	39.48
225.965	34.77
226.184	15.9
226.404	26.55
226.623	17.57
226.842	6.06
227.061	17.12
227.28	16.01
227.499	6.21
227.718	15.17
227.936	4.46
228.155	1.17
228.374	6.3
228.593	12.67
228.812	15.44
229.031	28.17
229.25	-14.04
229.469	-26.21
229.688	-9.07
229.907	-16.03
230.125	-35.32
230.344	-3.32
230.563	2.49
230.782	-7.91
231.001	-62.5
231.22	-22.43
231.438	7.75
231.657	9.75
231.876	9.33
232.095	49.32
232.313	42.15
232.532	15.93
232.751	-12.45
232.969	-4.52
233.188	-41.65
233.407	13.2
233.625	-0.49
233.844	13.42
234.063	15.69
234.281	26.66
234.5	-0.03
234.719	13.78
234.937	26.07
235.156	30.59
235.374	19.7
235.593	17.81
235.811	17.81
236.03	-7.57
236.249	-81.75
236.467	-63.88
236.686	-8.44
236.904	-7.31
237.123	-5.59
237.341	5.98
237.559	12.4
237.778	-0.21
237.996	-7.74
238.215	7.8
238.433	16.22
238.652	9.78
238.87	-26.76
239.088	-5.47
239.307	-4.5
239.525	-13.91
239.743	-36.72
239.962	-25.91
240.18	-56.05
240.398	-84.48
240.617	-87.23
240.835	-73.88
241.053	-31.22
241.271	5.68
241.49	-5.04
241.708	-18.7
241.926	-65.15
242.144	-73.62
242.363	-107.31
242.581	-122.27
242.799	-58.21
243.017	-9.46
243.235	-19.38
243.453	1.68
243.672	-5.13
243.89	-20.31
244.108	-30.94
244.326	-9.39
244.544	-4.36
244.762	16.53
244.98	38.67
245.198	41.7
245.416	30.32
245.634	-8.37
245.852	-34.84
246.07	-54.87
246.288	-80.56
246.506	-104.54
246.724	-83.9
246.942	-57.25
247.16	-19.26
247.378	14.2
247.596	19.15
247.814	23.33
248.032	-18.17
248.25	-23.7
248.468	-18.08
248.685	-10.06
248.903	20.18
249.121	33.27
249.339	12.46
249.557	-5.22
249.775	-2.09
249.992	-62.28
250.21	-47.23
250.428	-32.36
250.646	-66.82
250.863	-90.59
251.081	-58.39
251.299	-71.65
251.517	-74.27
251.734	-32.56
251.952	-20.95
252.17	-10.37
252.387	-0.45
252.605	-0.84
252.823	13.96
253.04	28.13
253.258	38.4
253.475	41.33
253.693	42.51
253.911	35.16
254.128	37.68
254.346	42.16
254.563	23.29
254.781	8.51
254.998	-11.79
255.216	-33.32
255.433	-29.45
255.651	1.63
255.868	12.86
256.086	26.71
256.303	28.26
256.521	19.44
256.738	-6.93
256.956	-26.65
257.173	-47.73
257.39	-53.74
257.608	-79.96
257.825	-1.86
258.043	29.96
258.26	42.26
258.477	58.84
258.695	64.92
258.912	-5.11
259.129	7.5
259.346	-26.24
259.564	-66.19
259.781	-91.2
259.998	-13.51
260.216	-0.96
260.433	52.1
260.65	57.17
260.867	64.04
261.084	21.21
261.302	-10.56
261.519	-50.35
261.736	-44.49
261.953	-45.55
262.17	-6.32
262.387	-23.27
262.604	-29.78
262.822	-46.31
263.039	-48.28
263.256	-101.42
263.473	-51.77
263.69	-43.36
263.907	3.99
264.124	19.88
264.341	36.29
264.558	19.92
264.775	30.76
264.992	24.78
265.209	19.24
265.426	34.56
265.643	34.82
265.86	33.82
266.077	11.73
266.294	-13.45
266.51	-50.61
266.727	-53.22
266.944	-34.35
267.161	-20.92
267.378	-40.81
267.595	-12.27
267.812	-29.32
268.028	-54.18
268.245	-38.58
268.462	-32.09
268.679	-43.87
268.896	8.61
269.112	8.51
269.329	6.78
269.546	18.09
269.763	20.08
269.979	10.14
270.196	-2.41
270.413	-27.81
270.629	-50.49
270.846	-71.6
271.063	-65.04
271.279	-60.22
271.496	-39.81
271.712	2.62
271.929	28.41
272.146	13.53
272.362	17.41
272.579	34.65
272.795	15.55
273.012	12.74
273.228	11.74
273.445	-10.4
273.661	-44.28
273.878	-61.98
274.094	-56.29
274.311	-86.26
274.527	-16.42
274.744	-22.29
274.96	-21.12
275.177	0.8
275.393	18.67
275.609	9.66
275.826	29.04
276.042	25.5
276.259	8.99
276.475	26.03
276.691	15.27
276.908	-16.28
277.124	2.41
277.34	-6.86
277.557	-39.87
277.773	-31.01
277.989	-20.28
278.205	-26.36
278.422	2.66
278.638	12.63
278.854	41.26
279.07	39.56
279.286	47.58
279.503	10.38
279.719	11.11
279.935	-38.87
280.151	-39.68
280.367	-35.42
280.583	-41.74
280.799	-36.42
281.016	-37.96
281.232	-6.83
281.448	-17.32
281.664	7.71
281.88	-18.06
282.096	-4.74
282.312	13.06
282.528	48.03
282.744	40.46
282.96	51.14
283.176	40.03
283.392	21.09
283.608	5.5
283.824	0.53
284.04	6.18
284.256	14.88
284.471	5.12
284.687	9.29
284.903	9.25
285.119	31.15
285.335	11.75
285.551	19.93
285.767	5.54
285.982	24.07
286.198	-22.2
286.414	16.75
286.63	26.28
286.846	38.02
287.061	15.84
287.277	47.47
287.493	20.91
287.709	22.98
287.924	12.83
288.14	42.88
288.356	25.56
288.571	41.74
288.787	27.41
289.003	28.58
289.218	12.11
289.434	-15.07
289.65	-1.84
289.865	-9.61
290.081	14.62
290.296	25.52
290.512	28.99
290.727	-13.88
290.943	-8.5
291.159	-24.24
291.374	-42.17
291.59	-48.78
291.805	-20.89
292.021	-13.76
292.236	-17.22
292.451	4.64
292.667	19.53
292.882	26.74
293.098	27.19
293.313	13.43
293.529	-0.04
293.744	-28
293.959	-32.69
294.175	-37.01
294.39	7.91
294.605	15.17
294.821	42.32
295.036	46.98
295.251	56.45
295.467	16.55
295.682	6.47
295.897	-54.69
296.112	-79.83
296.328	-72.43
296.543	-72.48
296.758	-66.6
296.973	-15.47
297.188	27.11
297.404	1.97
297.619	-15.53
297.834	-24.23
298.049	-44.53
298.264	-75.56
298.479	-15.22
298.694	2.19
298.909	29.16
299.125	24.18
299.34	29.94
299.555	-3.88
299.77	4.81
299.985	-47.83
300.2	-79.33
300.415	-99.31
300.63	-69.45
300.845	-67.44
301.06	-64.67
301.275	-36.32
301.49	-5.58
301.704	0.3
301.919	-27.49
302.134	-36.21
302.349	-45.27
302.564	-117.86
302.779	-200.31
302.994	-179.23
303.209	-116.07
303.423	-73.25
303.638	-0.46
303.853	1.9
304.068	3.49
304.283	8.41
304.497	8.13
304.712	7.26
304.927	8.42
305.142	-7.45
305.356	3.38
305.571	2.4
305.786	-16.15
306	-26.79
306.215	-15.35
306.43	-47.62
306.644	-51.88
306.859	-22.47
307.074	-2.51
307.288	-26.71
307.503	-32.21
307.717	-34.4
307.932	-32.85
308.147	-42.61
308.361	-15.2
308.576	-14.39
308.79	-50.9
309.005	-43.18
309.219	-31.72
309.434	-45.06
309.648	-37.92
309.863	-13.71
310.077	-14.47
310.292	3.58
310.506	9.3
310.72	20.07
310.935	22.94
311.149	15.85
311.364	13.02
311.578	20.47
311.792	4.23
312.007	16.43
312.221	1.55
312.435	2.19
312.649	-1.52
312.864	7.81
313.078	12.61
313.292	75.57
313.507	38.57
313.721	66.28
313.935	37.12
314.149	16.45
314.363	7.66
314.578	18.95
314.792	11.37
315.006	6.17
315.22	27.27
315.434	24.7
315.648	27.57
315.862	18.54
316.077	15.3
316.291	-23.52
316.505	-21.37
316.719	-54.66
316.933	-56.61
317.147	-60.15
317.361	-73.14
317.575	-92.22
317.789	-114.72
318.003	-170.13
318.217	-130.33
318.431	-34.83
318.645	6.76
318.859	13.12
319.073	27.53
319.287	20.72
319.5	-20.2
319.714	-61.09
319.928	-85.75
320.142	-91.54
320.356	-23.53
320.57	12.18
320.784	19.53
320.997	15.61
321.211	-25.3
321.425	-89.04
321.639	-118.26
321.853	-78.59
322.066	-57.06
322.28	-35.13
322.494	-40.02
322.707	-3.74
322.921	0.84
323.135	12.56
323.349	31.08
323.562	34.65
323.776	15.44
323.989	18.63
324.203	4.92
324.417	-0.64
324.63	-35.13
324.844	-42.66
325.057	-42.74
325.271	-30.28
325.485	-14.21
325.698	14.01
325.912	29.48
326.125	3.96
326.339	-4.72
326.552	-27.04
326.766	-34.43
326.979	-18.42
327.193	24.61
327.406	21.09
327.619	9.3
327.833	20.89
328.046	-6.05
328.26	-38.82
328.473	-8.16
328.686	-12.33
328.9	-16.58
329.113	-0.43
329.326	-18.92
329.54	-9.89
329.753	-15.63
329.966	-26.45
330.179	-31.87
330.393	1.92
330.606	-1.76
330.819	19.15
331.032	30.38
331.246	37.96
331.459	53.9
331.672	37.4
331.885	23.83
332.098	2.86
332.311	-17.91
332.525	-68.05
332.738	-56.16
332.951	-17.48
333.164	12.61
333.377	43.97
333.59	59.92
333.803	67.87
334.016	48.58
334.229	39.96
334.442	23.87
334.655	29.47
334.868	28.12
335.081	32.5
335.294	13.41
335.507	-3.36
335.72	-15.78
335.933	-20.69
336.146	-28.57
336.359	-18.25
336.572	-29.32
336.785	-41.07
336.997	-35.23
337.21	-19.89
337.423	-12.58
337.636	-3.02
337.849	21.02
338.062	12.43
338.274	18.2
338.487	6.16
338.7	9.63
338.913	-31.16
339.125	-32.39
339.338	-87.38
339.551	-49.53
339.763	-43.81
339.976	-20.31
340.189	-5.43
340.402	10.22
340.614	-5.21
340.827	-8.02
341.039	-29.81
341.252	-28.89
341.465	-18.69
341.677	-23.84
341.89	-42.41
342.102	-1.94
342.315	-15.37
342.527	-27.42
342.74	-27.6
342.952	-10.52
343.165	-14.23
343.377	8.2
343.59	-6.83
343.802	5.74
344.015	7.1
344.227	5.2
344.44	-1.91
344.652	14.89
344.864	-1.4
345.077	14.69
345.289	17.84
345.502	21.06
345.714	14.96
345.926	24.58
346.139	22.3
346.351	13.95
346.563	12.14
346.775	12.93
346.988	-1.55
347.2	-18.2
347.412	-52.86
347.624	-51.4
347.837	-54.36
348.049	-19.77
348.261	17.81
348.473	22.52
348.685	11.92
348.897	13.59
349.11	-17.68
349.322	-48.46
349.534	-30.57
349.746	-30.47
349.958	-52.08
350.17	-16.49
350.382	-3.14
350.594	-4.88
350.806	-0.21
351.018	12.8
351.23	-14.36
351.442	-57.37
351.654	-53.59
351.866	-34.16
352.078	-20.77
352.29	9.75
352.502	25.51
352.714	32.13
352.926	9.37
353.138	9.55
353.35	-0.26
353.561	-1.08
353.773	-17.91
353.985	4.35
354.197	-1.11
354.409	-6.88
354.621	-13.14
354.832	-8.64
355.044	-28.83
355.256	-31.62
355.468	-18.43
355.679	-15.7
355.891	-6.11
356.103	-6.96
356.314	6.18
356.526	7.76
356.738	10.81
356.949	-3.59
357.161	-5.89
357.373	-5.02
357.584	-13.02
357.796	-8.18
358.008	-8.79
358.219	11.06
358.431	6.58
358.642	14.48
358.854	6.04
359.065	0.13
359.277	-23.38
359.488	-36.4
359.7	-57.32
359.911	-62.03
360.123	-39.7
360.334	-52.18
360.546	-56.75
360.757	-48.75
360.969	-32.6
361.18	-27.66
361.391	-3.31
361.603	-14.22
361.814	-11.23
362.025	-6.89
362.237	-17.93
362.448	7.67
362.659	29.01
362.871	21.94
363.082	10.38
363.293	13.4
363.504	-7.85
363.716	-32.55
363.927	-23.45
364.138	-29.63
364.349	-39.76
364.56	-31
364.772	-25.17
364.983	-6.2
365.194	1.46
365.405	6.61
365.616	21.03
365.827	16.63
366.038	-11.77
366.25	-29.64
366.461	-47.41
366.672	-42.03
366.883	-20.84
367.094	-8.44
367.305	-10.79
367.516	-3.49
367.727	-30.27
367.938	-39.69
368.149	-39.66
368.36	-17.48
368.571	-14.05
368.781	-29.05
368.992	-36.09
369.203	-59.33
369.414	-81.16
369.625	-79.11
369.836	-41.73
370.047	-70.92
370.258	-35.64
370.468	-33.97
370.679	-46.05
370.89	-43.14
371.101	-9.58
371.312	-12.48
371.522	-10.92
371.733	-7.97
371.944	-5.38
372.155	-8.29
372.365	-23.96
372.576	-17.38
372.787	-14.87
372.997	-38.53
373.208	-35.26
373.419	-5.66
373.629	-31.25
373.84	-33.86
374.05	-23.43
374.261	-14.23
374.472	-36.27
374.682	6.03
374.893	2.15
375.103	16.63
375.314	3.68
375.524	5.79
375.735	3.12
375.945	17.42
376.156	0.93
376.366	5.37
376.577	5.58
376.787	-5.02
376.997	-16.63
377.208	-16.77
377.418	-27.08
377.629	-13.38
377.839	-9.1
378.049	-2.38
378.26	16.1
378.47	25.08
378.68	5
378.89	-0.69
379.101	-0.5
379.311	-34.9
379.521	-66.24
379.732	-60.47
379.942	-59.55
380.152	-76.68
380.362	-45.55
380.572	-26.25
380.783	-4.61
380.993	5.18
381.203	16.48
381.413	34.79
381.623	36.15
381.833	21.92
382.043	11.99
382.253	2.9
382.463	-2.42
382.674	-17.19
382.884	-31.46
383.094	-28.85
383.304	-20.9
383.514	-20.9
383.724	-12.1
383.934	-8.38
384.144	-15.46
384.353	-26.5
384.563	-25.41
384.773	-16.25
384.983	-17.52
385.193	1.95
385.403	8.44
385.613	6.29
385.823	0.07
386.033	4.41
386.242	-8.75
386.452	-8.97
386.662	-12.96
386.872	-2.54
387.082	-11.45
387.291	-13.31
387.501	-17.17
387.711	-7.4
387.921	-17.56
388.13	-14.67
388.34	-1.05
388.55	-2.46
388.759	-7.95
388.969	-2.69
389.179	-1.34
389.388	-7.14
389.598	0.81
389.807	-3.04
390.017	-9.68
390.227	-7.78
390.436	-7.61
390.646	-10.6
390.855	-5.43
391.065	-2.41
391.274	-3.86
391.484	-5.49
391.693	-2.93
391.903	-2.34
392.112	3.9
392.322	5.38
392.531	9.54
392.74	9.48
392.95	5.38
393.159	0.67
393.369	1.28
393.578	-0.66
393.787	-1.34
393.997	0.69
394.206	0.24
394.415	-0.24
394.625	-1.39
394.834	-3.34
395.043	-2.78
395.252	-1.07
395.462	0.13
395.671	0.83
395.88	1.72
396.089	1.7
396.298	0.84
396.508	0.16
396.717	0.27
396.926	0.96
397.135	0.62
397.344	0.76
397.553	2.03
397.762	3.73
397.971	3.6
398.181	3.63
398.39	3.12
398.599	2.16
398.808	1.78
399.017	2.79
399.226	4.73
399.435	5.85
399.644	6.22
399.853	5.38
400.062	4.59
400.27	3
400.479	2.6
400.688	1.6
400.897	1.84
401.106	1.96
401.315	2.26
401.524	2.31
401.733	3.1
401.941	3.59
402.15	3.42
402.359	3.37
402.568	3.7
402.777	3.74
402.985	3.22
403.194	3.25
403.403	3.3
403.612	2.73
403.82	2.55
404.029	2.96
404.238	2.86
404.446	2.89
404.655	2.68
404.864	2.53
405.072	2.19
405.281	2.3
405.489	2.11
405.698	2.23
405.906	2.32
406.115	2.3
406.324	2.29
406.532	2.51
406.741	2.82
406.949	2.86
407.158	2.87
407.366	2.79
407.574	2.69
407.783	2.69
407.991	2.49
408.2	2.66
408.408	2.81
408.617	2.72
408.825	2.51
409.033	2.62
409.242	2.62
409.45	2.57
409.658	2.52
409.867	2.65
410.075	2.52
410.283	2.26
410.491	2.24
410.7	2.15
410.908	2.15
411.116	2.5
411.324	2.66
411.533	2.54
411.741	2.79
411.949	2.7
412.157	2.39
412.365	2.33
412.573	2.37
412.781	2.43
412.99	2.4
413.198	2.64
413.406	2.74
413.614	2.71
413.822	2.5
414.03	2.53
414.238	2.26
414.446	2.31
414.654	2.2
414.862	2.3
415.07	2.3
415.278	2.58
415.486	2.23
415.694	2.43
415.902	2.31
416.109	2.22
416.317	2.04
416.525	2
416.733	1.92
416.941	1.99
417.149	1.98
417.357	2
417.564	2.3
417.772	2.53
417.98	2.53
418.188	2.54
418.395	2.56
418.603	2.72
418.811	2.44
419.019	2.22
419.226	2.49
419.434	2.52
419.642	2.22
419.849	2.26
420.057	2.42
420.265	2.24
420.472	2.05
420.68	2.1
420.887	2.06
421.095	2.04
421.302	2.02
421.51	2.16
421.717	2.15
421.925	2.23
422.132	2.2
422.34	2.08
422.547	2.15
422.755	2.12
422.962	1.97
423.17	1.92
423.377	2.07
423.585	2.08
423.792	2.02
423.999	2.09
424.207	2.17
424.414	2.13
424.621	2.08
424.829	2.16
425.036	2.18
425.243	2.23
425.451	2.16
425.658	1.87
425.865	2
426.072	1.96
426.28	2.1
426.487	2.06
426.694	2.3
426.901	2.08
427.108	2.12
427.315	1.92
427.523	2.31
427.73	2.29
427.937	2.22
428.144	2.07
428.351	2.03
428.558	1.92
428.765	1.78
428.972	1.8
429.179	1.92
429.386	2.21
429.593	1.99
429.8	2.03
430.007	2.16
430.214	2.17
430.421	1.94
430.628	1.77
430.835	1.72
431.042	1.8
431.249	1.9
431.456	1.85
431.662	2.06
431.869	2.2
432.076	2.3
432.283	2.29
432.49	2.43
432.697	2.41
432.903	2.3
433.11	2.12
433.317	2.11
433.524	2.21
433.73	2.24
433.937	2.44
434.144	2.41
434.35	2.38
434.557	2.21
434.764	2.22
434.97	2.08
435.177	2.24
435.384	2.17
435.59	2.34
435.797	2.51
436.003	2.58
436.21	2.57
436.416	2.8
436.623	2.76
436.829	2.67
437.036	2.84
437.242	2.77
437.449	2.68
437.655	2.71
437.862	2.73
438.068	2.61
438.275	2.79
438.481	2.87
438.687	2.73
438.894	2.64
439.1	2.62
439.307	2.7
439.513	2.6
439.719	2.69
439.926	2.77
440.132	2.76
440.338	2.58
440.544	2.79
440.751	2.81
440.957	2.87
441.163	2.88
441.369	3.01
441.575	2.73
441.782	2.7
441.988	2.72
442.194	2.73
442.4	2.69
442.606	3.1
442.812	3.2
443.018	3.16
443.224	3.22
443.431	3.33
443.637	3
443.843	2.92
444.049	2.98
444.255	3.01
444.461	2.9
444.667	2.93
444.873	3.07
445.079	3.06
445.284	3.08
445.49	2.97
445.696	2.81
445.902	2.66
446.108	2.65
446.314	2.62
446.52	2.74
446.726	3.03
446.931	3.11
447.137	3.07
447.343	3.06
447.549	3
447.755	2.85
447.96	2.88
448.166	2.92
448.372	2.92
448.578	2.97
448.783	3.02
448.989	3.06
449.195	3.23
449.4	3.24
449.606	3.26
449.812	3.22
450.017	3.28
450.223	3.13
450.428	3.09
450.634	3.19
450.84	3.33
451.045	3.24
451.251	3.18
451.456	3.39
451.662	3.43
451.867	3.44
452.073	3.41
452.278	3.6
452.483	3.62
452.689	3.5
452.894	3.52
453.1	3.57
453.305	3.41
453.51	3.33
453.716	3.32
453.921	3.28
454.127	3.26
454.332	3.19
454.537	3.15
454.742	3.17
454.948	3.1
455.153	3.19
455.358	3.33
455.563	3.39
455.769	3.47
455.974	3.56
456.179	3.39
456.384	3.43
456.589	3.41
456.795	3.25
457	3.22
457.205	3.46
457.41	3.45
457.615	3.44
457.82	3.49
458.025	3.47
458.23	3.34
458.435	3.31
458.64	3.2
458.845	3.43
459.05	3.45
459.255	3.38
459.46	3.42
459.665	3.49
459.87	3.45
460.075	3.45
460.28	3.48
460.485	3.54
460.69	3.66
460.895	3.45
461.099	3.38
461.304	3.53
461.509	3.53
461.714	3.38
461.919	3.52
462.123	3.47
462.328	3.51
462.533	3.4
462.738	3.56
462.942	3.49
463.147	3.62
463.352	3.59
463.556	3.63
463.761	3.55
463.966	3.61
464.17	3.6
464.375	3.54
464.58	3.56
464.784	3.57
464.989	3.47
465.193	3.52
465.398	3.59
465.602	3.76
465.807	3.82
466.011	4.03
466.216	4.02
466.42	4.03
466.625	4.01
466.829	4.06
467.034	4.04
467.238	4.15
467.443	4.07
467.647	3.96
467.851	3.97
468.056	4.01
468.26	3.91
468.464	3.94
468.669	4.11
468.873	4.29
469.077	4.21
469.282	4.36
469.486	4.4
469.69	4.28
469.894	4.1
470.099	4.13
470.303	4.14
470.507	4.17
470.711	4.11
470.915	4.11
471.119	4.08
471.324	4.04
471.528	4.09
471.732	4.2
471.936	4.19
472.14	4.28
472.344	4.37
472.548	4.42
472.752	4.54
472.956	4.77
473.16	4.78
473.364	4.66
473.568	4.61
473.772	4.67
473.976	4.56
474.18	4.58
474.384	4.75
474.588	4.76
474.792	4.66
474.995	4.7
475.199	4.75
475.403	4.73
475.607	4.73
475.811	4.7
476.015	4.76
476.218	4.81
476.422	4.75
476.626	4.9
476.83	5
477.033	4.88
477.237	4.79
477.441	4.88
477.644	4.87
477.848	4.9
478.052	4.97
478.255	5.05
478.459	5.04
478.663	5.11
478.866	5.05
479.07	5.11
479.273	5.24
479.477	5.29
479.681	5.22
479.884	5.27
480.088	5.23
480.291	5.16
480.495	5.21
480.698	5.26
480.901	5.28
481.105	5.39
481.308	5.38
481.512	5.3
481.715	5.35
481.919	5.41
482.122	5.37
482.325	5.44
482.529	5.51
482.732	5.51
482.935	5.4
483.138	5.36
483.342	5.41
483.545	5.47
483.748	5.47
483.952	5.58
484.155	5.7
484.358	5.72
484.561	5.7
484.764	5.72
484.967	5.8
485.171	5.89
485.374	5.8
485.577	5.88
485.78	5.86
485.983	5.84
486.186	5.66
486.389	5.72
486.592	5.67
486.795	5.7
486.998	5.64
487.201	5.76
487.404	5.75
487.607	5.84
487.81	5.84
488.013	5.97
488.216	5.9
488.419	5.93
488.622	5.84
488.825	5.82
489.028	5.71
489.231	5.72
489.433	5.66
489.636	5.69
489.839	5.65
490.042	5.59
490.245	5.61
490.447	5.69
490.65	5.7
490.853	5.76
491.056	5.9
491.258	5.99
491.461	5.98
491.664	6.01
491.866	6
492.069	6.03
492.272	5.9
492.474	6.02
492.677	6.1
492.879	6.17
493.082	6.19
493.285	6.36
493.487	6.3
493.69	6.21
493.892	6.16
494.095	6.08
494.297	6
494.5	5.97
494.702	5.96
494.905	6.05
495.107	6.13
495.309	6.16
495.512	6.21
495.714	6.29
495.917	6.35
496.119	6.33
496.321	6.38
496.524	6.5
496.726	6.54
496.928	6.56
497.13	6.57
497.333	6.57
497.535	6.48
497.737	6.49
497.939	6.46
498.142	6.51
498.344	6.51
498.546	6.49
498.748	6.48
498.95	6.61
499.152	6.62
499.355	6.71
499.557	6.81
499.759	6.92
499.961	6.85
500.163	6.89
500.365	6.92
500.567	7.06
500.769	7.03
500.971	7.04
501.173	6.98
501.375	7.01
501.577	6.92
501.779	6.93
501.981	7
502.183	7.06
502.385	7.03
502.587	6.96
502.788	7.04
502.99	7.09
503.192	7.2
503.394	7.24
503.596	7.33
503.798	7.35
503.999	7.37
504.201	7.38
504.403	7.47
504.605	7.55
504.806	7.52
505.008	7.58
505.21	7.63
505.411	7.64
505.613	7.65
505.815	7.7
506.016	7.8
506.218	7.89
506.42	7.86
506.621	7.96
506.823	8.02
507.024	7.92
507.226	7.89
507.427	7.94
507.629	7.99
507.83	8.1
508.032	8.11
508.233	8.21
508.435	8.31
508.636	8.35
508.838	8.3
509.039	8.38
509.24	8.42
509.442	8.42
509.643	8.36
509.845	8.41
510.046	8.5
510.247	8.49
510.448	8.5
510.65	8.62
510.851	8.75
511.052	8.79
511.254	8.82
511.455	8.99
511.656	9
511.857	9.07
512.058	9.08
512.26	9.16
512.461	9.13
512.662	9.16
512.863	9.03
513.064	9.04
513.265	9.05
513.466	9.13
513.667	9.19
513.868	9.31
514.069	9.4
514.27	9.48
514.471	9.43
514.672	9.41
514.873	9.45
515.074	9.48
515.275	9.34
515.476	9.37
515.677	9.39
515.878	9.5
516.079	9.47
516.28	9.63
516.481	9.75
516.682	9.87
516.882	9.78
517.083	9.77
517.284	9.7
517.485	9.67
517.686	9.63
517.886	9.64
518.087	9.65
518.288	9.71
518.488	9.71
518.689	9.68
518.89	9.69
519.091	9.8
519.291	9.79
519.492	9.81
519.692	9.92
519.893	10.02
520.094	10.04
520.294	10.08
520.495	10.13
520.695	10.19
520.896	10.24
521.096	10.34
521.297	10.41
521.497	10.43
521.698	10.35
521.898	10.28
522.099	10.23
522.299	10.33
522.499	10.33
522.7	10.37
522.9	10.4
523.101	10.48
523.301	10.43
523.501	10.47
523.702	10.52
523.902	10.59
524.102	10.6
524.302	10.68
524.503	10.77
524.703	10.83
524.903	10.85
525.103	10.88
525.304	10.94
525.504	10.94
525.704	10.93
525.904	10.92
526.104	10.86
526.304	10.82
526.504	10.82
526.705	10.84
526.905	10.93
527.105	10.97
527.305	10.94
527.505	10.94
527.705	10.98
527.905	10.99
528.105	11
528.305	11.03
528.505	11.16
528.705	11.26
528.905	11.24
529.105	11.32
529.304	11.41
529.504	11.45
529.704	11.35
529.904	11.38
530.104	11.37
530.304	11.39
530.503	11.34
530.703	11.36
530.903	11.36
531.103	11.4
531.303	11.37
531.502	11.41
531.702	11.54
531.902	11.62
532.101	11.66
532.301	11.72
532.501	11.74
532.7	11.71
532.9	11.73
533.1	11.73
533.299	11.79
533.499	11.84
533.698	11.77
533.898	11.81
534.097	11.91
534.297	11.96
534.496	11.95
534.696	12.04
534.895	12.11
535.095	12.13
535.294	12.11
535.494	12.17
535.693	12.22
535.892	12.25
536.092	12.23
536.291	12.23
536.491	12.28
536.69	12.35
536.889	12.31
537.088	12.38
537.288	12.49
537.487	12.58
537.686	12.6
537.886	12.71
538.085	12.74
538.284	12.79
538.483	12.76
538.682	12.83
538.882	12.92
539.081	13
539.28	12.95
539.479	12.97
539.678	13.01
539.877	13.02
540.076	13.03
540.275	13.09
540.474	13.19
540.673	13.2
540.872	13.2
541.071	13.28
541.27	13.39
541.469	13.47
541.668	13.52
541.867	13.58
542.066	13.63
542.265	13.68
542.464	13.67
542.663	13.7
542.862	13.82
543.06	13.88
543.259	13.92
543.458	14.03
543.657	14.1
543.856	14.17
544.054	14.14
544.253	14.16
544.452	14.14
544.651	14.27
544.849	14.21
545.048	14.39
545.247	14.52
545.445	14.64
545.644	14.71
545.843	14.82
546.041	14.76
546.24	14.79
546.438	14.91
546.637	14.94
546.836	15.06
547.034	15.22
547.233	15.33
547.431	15.3
547.63	15.37
547.828	15.42
548.027	15.51
548.225	15.5
548.423	15.56
548.622	15.64
548.82	15.68
549.019	15.72
549.217	15.85
549.415	15.93
549.614	16.04
549.812	16.15
550.01	16.18
550.209	16.3
550.407	16.42
550.605	16.48
550.803	16.58
551.002	16.78
551.2	16.83
551.398	16.99
551.596	17.15
551.794	17.25
551.993	17.31
552.191	17.38
552.389	17.53
552.587	17.62
552.785	17.7
552.983	17.83
553.181	17.98
553.379	17.97
553.577	18.01
553.775	18.1
553.973	18.19
554.171	18.29
554.369	18.35
554.567	18.47
554.765	18.55
554.963	18.64
555.161	18.63
555.359	18.77
555.557	18.94
555.755	19.12
555.952	19.29
556.15	19.42
556.348	19.55
556.546	19.65
556.744	19.63
556.941	19.63
557.139	19.78
557.337	19.81
557.535	19.78
557.732	19.94
557.93	20.15
558.128	20.27
558.325	20.48
558.523	20.67
558.721	20.82
558.918	20.86
559.116	20.92
559.313	20.99
559.511	21.14
559.708	21.17
559.906	21.32
560.104	21.48
560.301	21.68
560.498	21.72
560.696	21.8
560.893	21.87
561.091	22
561.288	22.08
561.486	22.27
561.683	22.38
561.88	22.5
562.078	22.69
562.275	22.77
562.473	22.89
562.67	23.11
562.867	23.31
563.064	23.37
563.262	23.49
563.459	23.54
563.656	23.63
563.853	23.61
564.051	23.67
564.248	23.76
564.445	23.86
564.642	24.04
564.839	24.27
565.036	24.46
565.234	24.64
565.431	24.84
565.628	24.9
565.825	25
566.022	25.06
566.219	25.06
566.416	25.12
566.613	25.19
566.81	25.28
567.007	25.32
567.204	25.38
567.401	25.44
567.598	25.49
567.795	25.52
567.991	25.72
568.188	25.88
568.385	26.05
568.582	26.2
568.779	26.32
568.976	26.35
569.172	26.52
569.369	26.4
569.566	26.58
569.763	26.64
569.96	26.76
570.156	26.75
570.353	26.9
570.55	26.82
570.746	26.8
570.943	26.85
571.14	26.81
571.336	26.98
571.533	27.09
571.729	27.13
571.926	27.14
572.123	27.31
572.319	27.28
572.516	27.31
572.712	27.43
572.909	27.4
573.105	27.42
573.302	27.49
573.498	27.53
573.695	27.45
573.891	27.59
574.087	27.58
574.284	27.54
574.48	27.43
574.677	27.49
574.873	27.49
575.069	27.54
575.266	27.62
575.462	27.65
575.658	27.78
575.854	27.9
576.051	27.83
576.247	27.76
576.443	27.74
576.639	27.69
576.835	27.45
577.032	27.46
577.228	27.54
577.424	27.61
577.62	27.55
577.816	27.76
578.012	27.79
578.208	27.72
578.404	27.8
578.6	27.81
578.796	27.66
578.993	27.72
579.189	27.75
579.384	27.59
579.58	27.58
579.776	27.56
579.972	27.45
580.168	27.34
580.364	27.49
580.56	27.48
580.756	27.54
580.952	27.58
581.148	27.64
581.343	27.6
581.539	27.61
581.735	27.52
581.931	27.55
582.127	27.57
582.322	27.51
582.518	27.55
582.714	27.54
582.909	27.54
583.105	27.46
583.301	27.43
583.496	27.36
583.692	27.35
583.888	27.27
584.083	27.34
584.279	27.32
584.474	27.28
584.67	27.32
584.866	27.38
585.061	27.3
585.257	27.41
585.452	27.45
585.648	27.4
585.843	27.41
586.039	27.41
586.234	27.33
586.429	27.31
586.625	27.4
586.82	27.32
587.015	27.31
587.211	27.22
587.406	27.32
587.601	27.29
587.797	27.35
587.992	27.39
588.187	27.57
588.383	27.51
588.578	27.46
588.773	27.39
588.968	27.45
589.163	27.42
589.359	27.46
589.554	27.47
589.749	27.47
589.944	27.42
590.139	27.35
590.334	27.37
590.529	27.37
590.724	27.45
590.919	27.64
591.114	27.68
591.309	27.77
591.504	27.89
591.699	27.92
591.894	27.85
592.089	27.83
592.284	27.83
592.479	27.86
592.674	27.89
592.869	27.94
593.064	28.11
593.259	28.21
593.454	28.38
593.648	28.5
593.843	28.59
594.038	28.59
594.233	28.63
594.428	28.6
594.622	28.61
594.817	28.86
595.012	28.98
595.206	29.04
595.401	29.1
595.596	29.21
595.79	29.09
595.985	29.26
596.18	29.33
596.374	29.43
596.569	29.49
596.763	29.52
596.958	29.59
597.153	29.63
597.347	29.67
597.542	29.75
597.736	29.87
597.931	29.89
598.125	30.02
598.319	30.17
598.514	30.16
598.708	30.35
598.903	30.31
599.097	30.45
599.291	30.4
599.486	30.42
599.68	30.32
599.874	30.43
600.069	30.33
600.263	30.42
600.457	30.61
600.651	30.74
600.846	30.78
601.04	30.9
601.234	30.92
601.428	30.99
601.622	31
601.817	31.05
602.011	31.03
602.205	31.05
602.399	31.02
602.593	31.09
602.787	31.2
602.981	31.25
603.175	31.41
603.369	31.35
603.563	31.38
603.757	31.45
603.951	31.48
604.145	31.43
604.339	31.48
604.533	31.35
604.727	31.2
604.921	31.12
605.115	31.08
605.309	31.19
605.502	31.23
605.696	31.18
605.89	31.21
606.084	31.16
606.278	31.04
606.471	30.98
606.665	30.94
606.859	30.93
607.053	30.95
607.246	30.93
607.44	30.97
607.634	30.92
607.827	30.8
608.021	30.63
608.214	30.52
608.408	30.39
608.602	30.33
608.795	30.22
608.989	30.21
609.182	30.08
609.376	30.06
609.569	29.94
609.763	29.9
609.956	29.78
610.15	29.73
610.343	29.55
610.537	29.55
610.73	29.47
610.923	29.37
611.117	29.41
611.31	29.38
611.504	29.23
611.697	29.13
611.89	29.11
612.083	28.93
612.277	28.88
612.47	28.84
612.663	28.87
612.856	28.71
613.05	28.71
613.243	28.6
613.436	28.54
613.629	28.4
613.822	28.38
614.015	28.32
614.209	28.15
614.402	28.11
614.595	27.97
614.788	27.91
614.981	27.73
615.174	27.62
615.367	27.47
615.56	27.38
615.753	27.31
615.946	27.24
616.139	27.3
616.332	27.39
616.525	27.32
616.718	27.38
616.911	27.42
617.103	27.42
617.296	27.29
617.489	27.22
617.682	27
617.875	26.84
618.067	26.69
618.26	26.63
618.453	26.77
618.646	26.73
618.838	26.8
619.031	26.84
619.224	26.84
619.417	26.76
619.609	26.81
619.802	26.75
619.994	26.72
620.187	26.65
620.38	26.53
620.572	26.35
620.765	26.39
620.957	26.19
621.15	26.12
621.342	26.09
621.535	26.18
621.727	26.07
621.92	26.06
622.112	26.02
622.305	26.02
622.497	26.01
622.69	25.96
622.882	26.05
623.074	26.06
623.267	25.99
623.459	25.94
623.651	25.87
623.844	25.77
624.036	25.74
624.228	25.71
624.42	25.64
624.613	25.79
624.805	25.81
624.997	25.84
625.189	25.83
625.381	25.87
625.574	25.74
625.766	25.67
625.958	25.56
626.15	25.57
626.342	25.48
626.534	25.42
626.726	25.4
626.918	25.42
627.11	25.41
627.302	25.37
627.494	25.36
627.686	25.4
627.878	25.24
628.07	25.17
628.262	25.15
628.454	25.11
628.646	25.04
628.838	25.11
629.029	25.08
629.221	25.1
629.413	25
629.605	24.95
629.797	24.84
629.989	24.82
630.18	24.71
630.372	24.73
630.564	24.62
630.755	24.68
630.947	24.71
631.139	24.66
631.33	24.51
631.522	24.66
631.714	24.56
631.905	24.48
632.097	24.41
632.289	24.45
632.48	24.34
632.672	24.31
632.863	24.15
633.055	24.17
633.246	24.27
633.438	24.2
633.629	24.14
633.821	24.15
634.012	24.15
634.203	23.92
634.395	23.9
634.586	23.95
634.777	23.92
634.969	23.87
635.16	23.97
635.351	23.88
635.543	23.82
635.734	23.9
635.925	23.9
636.117	23.95
636.308	24.01
636.499	23.94
636.69	23.74
636.881	23.7
637.073	23.73
637.264	23.68
637.455	23.79
637.646	23.98
637.837	23.97
638.028	23.74
638.219	23.76
638.41	23.74
638.601	23.54
638.792	23.59
638.983	23.65
639.174	23.57
639.365	23.55
639.556	23.54
639.747	23.35
639.938	23.37
640.129	23.3
640.32	23.22
640.511	23.36
640.701	23.52
640.892	23.37
641.083	23.51
641.274	23.56
641.465	23.4
641.655	23.31
641.846	23.35
642.037	23.19
642.228	23.01
642.418	23.09
642.609	23.1
642.8	23.15
642.99	23.19
643.181	23.23
643.372	23.17
643.562	23.04
643.753	22.92
643.943	22.75
644.134	22.59
644.324	22.54
644.515	22.45
644.705	22.52
644.896	22.52
645.086	22.56
645.277	22.53
645.467	22.6
645.658	22.53
645.848	22.45
646.038	22.45
646.229	22.34
646.419	22.25
646.61	22.13
646.8	22.16
646.99	22.11
647.18	22.02
647.371	22.09
647.561	22.08
647.751	22.04
647.941	21.97
648.132	22.02
648.322	21.81
648.512	21.82
648.702	21.95
648.892	21.98
649.082	21.96
649.272	21.99
649.462	21.82
649.653	21.61
649.843	21.49
650.033	21.46
650.223	21.33
650.413	21.29
650.603	21.35
650.793	21.42
650.983	21.4
651.172	21.35
651.362	21.34
651.552	21.24
651.742	21.13
651.932	21.08
652.122	21.07
652.312	21.04
652.502	20.97
652.691	20.98
652.881	20.92
653.071	20.88
653.261	20.74
653.45	20.57
653.64	20.48
653.83	20.32
654.019	20.22
654.209	20.13
654.399	20.06
654.588	19.85
654.778	19.77
654.968	19.57
655.157	19.48
655.347	19.36
655.536	19.22
655.726	18.95
655.915	18.84
656.105	18.69
656.294	18.49
656.484	18.35
656.673	18.25
656.863	18.17
657.052	18.01
657.241	17.81
657.431	17.56
657.62	17.37
657.809	16.97
657.999	16.77
658.188	16.54
658.377	16.28
658.567	16.11
658.756	15.98
658.945	15.78
659.134	15.58
659.324	15.49
659.513	15.32
659.702	15.17
659.891	15.07
660.08	14.85
660.269	14.79
660.458	14.49
660.648	14.33
660.837	14.02
661.026	13.96
661.215	13.68
661.404	13.5
661.593	13.37
661.782	13.1
661.971	12.91
662.16	12.65
662.349	12.5
662.538	12.2
662.726	12.15
662.915	11.98
663.104	11.9
663.293	11.76
663.482	11.76
663.671	11.48
663.86	11.32
664.048	11.17
664.237	11.09
664.426	10.8
664.615	10.76
664.803	10.55
664.992	10.33
665.181	10.14
665.369	10
665.558	9.82
665.747	9.71
665.935	9.71
666.124	9.7
666.312	9.61
666.501	9.51
666.69	9.44
666.878	9.35
667.067	9.08
667.255	9.14
667.444	9.33
667.632	9.31
667.82	9.34
668.009	9.3
668.197	9.16
668.386	8.91
668.574	8.87
668.762	8.7
668.951	8.57
669.139	8.49
669.327	8.35
669.516	8.29
669.704	8.2
669.892	8.49
670.08	8.52
670.269	8.52
670.457	8.39
670.645	8.27
670.833	8.21
671.021	8.2
671.21	8.31
671.398	8.58
671.586	8.71
671.774	8.51
671.962	8.44
672.15	8.39
672.338	8.26
672.526	8.25
672.714	8.17
672.902	8.17
673.09	8.29
673.278	8.4
673.466	8.34
673.654	8.62
673.842	8.6
674.03	8.59
674.218	8.43
674.405	8.61
674.593	8.58
674.781	8.75
674.969	8.78
675.157	8.91
675.344	9
675.532	9.08
675.72	9.22
675.908	9.2
676.095	9.18
676.283	9.15
676.471	9.33
676.658	9.31
676.846	9.46
677.033	9.57
677.221	9.63
677.409	9.37
677.596	9.42
677.784	9.47
677.971	9.64
678.159	9.78
678.346	9.95
678.534	10.05
678.721	10.28
678.909	10.25
679.096	10.3
679.283	10.61
679.471	10.78
679.658	10.79
679.846	11.06
680.033	11.27
680.22	11.35
680.408	11.45
680.595	11.62
680.782	11.62
680.969	11.78
681.157	11.94
681.344	12.04
681.531	12.14
681.718	12.41
681.905	12.51
682.093	12.64
682.28	12.88
682.467	13.25
682.654	13.42
682.841	13.67
683.028	13.97
683.215	14.32
683.402	14.21
683.589	14.47
683.776	14.74
683.963	14.87
684.15	15.09
684.337	15.51
684.524	15.74
684.711	16.16
684.898	16.4
685.085	16.66
685.271	17.17
685.458	17.62
685.645	17.77
685.832	18.21
686.019	18.65
686.205	18.82
686.392	19.08
686.579	19.56
686.766	20.17
686.952	20.52
687.139	21.15
687.326	21.44
687.512	21.87
687.699	22.13
687.886	22.52
688.072	22.91
688.259	23.5
688.445	24.05
688.632	24.5
688.818	25.34
689.005	25.96
689.191	26.39
689.378	27.07
689.564	27.71
689.751	28.09
689.937	28.4
690.124	29.18
690.31	29.59
690.496	30.15
690.683	30.74
690.869	31.47
691.055	32.07
691.242	32.69
691.428	33.33
691.614	33.97
691.8	34.78
691.987	35.45
692.173	36.23
692.359	37.05
692.545	37.61
692.731	38.08
692.918	38.66
693.104	39.07
693.29	39.61
693.476	40.59
693.662	41.14
693.848	41.88
694.034	42.62
694.22	43.07
694.406	43.64
694.592	44.47
694.778	45.04
694.964	45.75
695.15	46.48
695.336	46.85
695.522	47.53
695.708	48.12
695.894	48.67
696.08	49.45
696.265	50.14
696.451	50.6
696.637	51.11
696.823	51.74
697.009	51.96
697.194	52.48
697.38	53.15
697.566	53.85
697.751	54.37
697.937	55.42
698.123	56.12
698.308	56.7
698.494	57.34
698.68	57.94
698.865	58.27
699.051	58.57
699.236	58.7
699.422	58.93
699.607	59.37
699.793	59.88
699.978	60.4
700.164	61.22
700.349	62.06
700.535	62.56
700.72	62.67
700.906	63.22
701.091	63.36
701.276	63.24
701.462	64.08
701.647	64.83
701.832	65.22
702.018	65.83
702.203	66.4
702.388	66.04
702.573	66.34
702.759	66.92
702.944	66.99
703.129	67.59
703.314	68.24
703.499	68.45
703.684	68.49
703.87	69.38
704.055	70.01
704.24	69.97
704.425	70.63
704.61	71
704.795	71.07
704.98	71.07
705.165	71.34
705.35	71.31
705.535	71.55
705.72	71.75
705.905	71.95
706.09	72.74
706.275	73.21
706.459	73.34
706.644	73.54
706.829	73.61
707.014	73.5
707.199	73.53
707.384	73.86
707.568	74.21
707.753	74.84
707.938	75.39
708.123	75.54
708.307	75.52
708.492	75.56
708.677	75.86
708.861	75.72
709.046	75.89
709.231	76.71
709.415	77.17
709.6	77.14
709.784	77.27
709.969	77.49
710.153	77.35
710.338	77.47
710.522	77.79
710.707	78.45
710.891	78.63
711.076	78.81
711.26	78.85
711.445	78.65
711.629	78.44
711.813	78.94
711.998	79.41
712.182	79.35
712.366	79.5
712.551	80.12
712.735	80.2
712.919	80.1
713.103	80.48
713.288	80.82
713.472	80.67
713.656	80.91
713.84	81.11
714.024	81.28
714.208	81.4
714.393	81.67
714.577	81.31
714.761	81.25
714.945	81.27
715.129	81.33
715.313	81.22
715.497	81.32
715.681	82.08
715.865	82.06
716.049	81.95
716.233	81.74
716.417	82.16
716.601	81.79
716.785	81.88
716.968	82.17
717.152	82.67
717.336	82.73
717.52	82.33
717.704	82.69
717.888	83.39
718.071	83.25
718.255	83.43
718.439	83.53
718.622	83.57
718.806	83.35
718.99	83.28
719.174	83.15
719.357	83.52
719.541	83.87
719.724	83.47
719.908	84.52
720.092	84.93
720.275	85.05
720.459	84.74
720.642	84.6
720.826	84.02
721.009	83.69
721.193	83.47
721.376	83.53
721.559	83.87
721.743	83.82
721.926	83.62
722.11	83.85
722.293	83.38
722.476	83.25
722.66	83.16
722.843	83.71
723.026	83.44
723.21	84.11
723.393	84.63
723.576	84.89
723.759	84.55
723.942	84.75
724.126	84.45
724.309	84.5
724.492	84.55
724.675	84.55
724.858	85.48
725.041	86.2
725.224	86.34
725.407	86.53
725.59	87.06
725.774	86.3
725.957	85.72
726.14	85.49
726.322	85.2
726.505	84.83
726.688	85.5
726.871	85.22
727.054	85.42
727.237	85.7
727.42	86.13
727.603	85.68
727.786	86.52
727.968	86.48
728.151	86.5
728.334	86.27
728.517	86.2
728.699	86.22
728.882	86.32
729.065	86.44
729.248	87.07
729.43	87.7
729.613	88.29
729.796	89.11
729.978	88.33
730.161	88.11
730.343	87.72
730.526	88.04
730.708	86.81
730.891	87.72
731.073	87.18
731.256	86.84
731.438	85.97
731.621	86.81
731.803	86.63
731.986	86.81
732.168	86.82
732.35	87.38
732.533	87.18
732.715	87.54
732.898	88.28
733.08	88.22
733.262	88.68
733.444	88.45
733.627	88.8
733.809	88.72
733.991	89.71
734.173	88.15
734.355	88.06
734.538	88.11
734.72	88.21
734.902	88.47
735.084	89.68
735.266	90.26
735.448	90.36
735.63	90.06
735.812	89.4
735.994	89.84
736.176	89.06
736.358	88.66
736.54	89.82
736.722	89.21
736.904	88.12
737.086	88.98
737.268	89.93
737.45	89.95
737.632	90.14
737.814	90.22
737.995	90.3
738.177	89.07
738.359	87.52
738.541	88.8
738.723	89.05
738.904	88.8
739.086	89.45
739.268	89.32
739.449	89.28
739.631	89.34
739.813	89.39
739.994	89.79
740.176	91.02
740.358	90.78
740.539	91.51
740.721	92.24
740.902	92.38
741.084	92.04
741.265	91.4
741.447	91.51
741.628	90.97
741.81	90.39
741.991	90.85
742.172	91.74
742.354	91.33
742.535	91.18
742.717	91.79
742.898	92
743.079	92.61
743.261	92.45
743.442	91.16
743.623	90.96
743.804	91.21
743.986	91
744.167	90.28
744.348	92.3
744.529	92.77
744.71	91.23
744.891	90.68
745.073	90.55
745.254	89.27
745.435	88.19
745.616	88.66
745.797	88.09
745.978	88.53
746.159	89.47
746.34	88.47
746.521	90.01
746.702	89.76
746.883	89.6
747.064	89.15
747.245	90.33
747.426	88.99
747.606	89.84
747.787	90.03
747.968	90.15
748.149	90.25
748.33	91.56
748.51	90.42
748.691	90.66
748.872	90.46
749.053	90.02
749.233	87.92
749.414	88.34
749.595	87.17
749.775	86.75
749.956	86.41
750.137	87.14
750.317	87.78
750.498	90.09
750.678	90.04
750.859	90.92
751.04	91.05
751.22	89.42
751.4	88.67
751.581	87.85
751.761	87.5
751.942	87.6
752.122	88.9
752.303	86.89
752.483	88.16
752.663	87.97
752.844	87.19
753.024	87.87
753.204	89.77
753.385	89.92
753.565	89.48
753.745	90.59
753.925	89.41
754.106	88.32
754.286	86.29
754.466	86.85
754.646	86.59
754.826	86.42
755.006	86.13
755.187	88.63
755.367	88.63
755.547	88.89
755.727	89.88
755.907	91.26
756.087	90.4
756.267	90.06
756.447	89.71
756.627	88.24
756.807	87.92
756.987	88.43
757.167	88.38
757.346	87.76
757.526	88.2
757.706	87.61
757.886	87.31
758.066	87.38
758.246	88.2
758.425	88.37
758.605	88.25
758.785	88.33
758.965	88.34
759.144	86.28
759.324	86.08
759.504	86.16
759.683	85.45
759.863	83.57
760.043	82.67
760.222	83.8
760.402	83.66
760.581	84.06
760.761	86.8
760.94	87.37
761.12	87.66
761.299	88.67
761.479	88.37
761.658	87.58
761.838	87.96
762.017	87.99
762.197	88.78
762.376	88.84
762.555	89.41
762.735	90.12
762.914	88.04
763.093	86.64
763.273	84.76
763.452	83.81
763.631	83.97
763.81	84.42
763.99	84.17
764.169	85.27
764.348	84.59
764.527	82.88
764.706	84.43
764.885	85.9
765.064	85.17
765.243	85.76
765.423	88.5
765.602	86.87
765.781	84.99
765.96	84.88
766.139	84.22
766.318	83.42
766.497	83.01
766.676	83.37
766.854	84.86
767.033	84.61
767.212	83.33
767.391	84.41
767.57	85.88
767.749	87.19
767.928	89.98
768.106	90.18
768.285	88.18
768.464	85.43
768.643	82.85
768.821	82.61
769	83.55
769.179	82.63
769.357	83.16
769.536	83.42
769.715	81.14
769.893	81.71
770.072	83.04
770.25	82.41
770.429	84.14
770.607	84.03
770.786	83.08
770.964	84.48
771.143	84.76
771.321	83.7
771.5	83.98
771.678	83.18
771.857	80.36
772.035	80.29
772.213	80.89
772.392	81.2
772.57	82.41
772.748	83.78
772.927	83.42
773.105	82.19
773.283	81.73
773.461	82.24
773.64	82.81
773.818	83.49
773.996	84.36
774.174	83.05
774.352	79.64
774.531	76.82
774.709	77.9
774.887	77.63
775.065	79.76
775.243	81.19
775.421	80.89
775.599	81.4
775.777	78.37
775.955	77.11
776.133	75.21
776.311	77.58
776.489	73.86
776.667	77.79
776.844	77.74
777.022	77.89
777.2	77.76
777.378	79.08
777.556	77.86
777.734	80.28
777.911	82.71
778.089	83.3
778.267	83.85
778.445	83.97
778.622	80.66
778.8	79.15
778.978	78.39
779.155	77.23
779.333	77.11
779.511	78.11
779.688	82.15
779.866	79.87
780.043	79.2
780.221	77.82
780.398	75.54
780.576	76.87
780.753	79.57
780.931	80.38
781.108	81.77
781.286	83.68
781.463	76.95
781.64	73.71
781.818	74.47
781.995	73.46
782.172	72.54
782.35	75.12
782.527	79.99
782.704	79.35
782.882	80.66
783.059	80.69
783.236	79.02
783.413	79.52
783.59	79.07
783.768	75.68
783.945	76.99
784.122	79.13
784.299	78.03
784.476	76.9
784.653	76.47
784.83	75.51
785.007	72
785.184	71.95
785.361	71.93
785.538	78.37
785.715	79.26
785.892	82.86
786.069	84.27
786.246	85.26
786.423	81.84
786.6	81.98
786.776	81.83
786.953	80.17
787.13	84.88
787.307	82.17
787.484	80.36
787.66	79.83
787.837	79.24
788.014	73.99
788.191	72.63
788.367	72.03
788.544	72.55
788.721	71.78
788.897	73.47
789.074	76.78
789.25	75.69
789.427	75.65
789.603	74.15
789.78	74.7
789.956	71.2
790.133	71.84
790.309	73.29
790.486	76.41
790.662	70.66
790.839	71.38
791.015	73.74
791.192	67.82
791.368	68.46
791.544	71.01
791.721	72.68
791.897	69.78
792.073	69.75
792.249	62.04
792.426	62.51
792.602	65.27
792.778	66.71
792.954	67.78
793.13	72.75
793.307	69.11
793.483	62.3
793.659	62.77
793.835	66.86
794.011	66.42
794.187	70.1
794.363	70.26
794.539	72.13
794.715	65.88
794.891	64.48
795.067	65.58
795.243	72.02
795.419	69.77
795.595	69.18
795.771	68.31
795.947	68.15
796.122	62.46
796.298	66
796.474	69.01
796.65	69.64
796.826	65.45
797.001	68.46
797.177	62.54
797.353	66.97
797.529	67.77
797.704	74.96
797.88	73.9
798.056	73.27
798.231	71.37
798.407	73.72
798.582	73.43
798.758	79.1
798.934	82.32
799.109	78.93
799.285	74.74
799.46	75.97
799.636	70
799.811	72.3
799.986	72.71
800.162	74.81
800.337	72.14
800.513	71.19
800.688	66.56
800.863	76.83
801.039	73.2
801.214	68.44
801.389	68.87
801.565	65.35
801.74	54.63
801.915	66.11
802.09	71.34
802.265	73.95
802.441	74.69
802.616	77.45
802.791	70.19
802.966	70.24
803.141	70.04
803.316	68.74
803.491	71.06
803.666	71.76
803.841	69.39
804.016	63.81
804.191	67.07
804.366	58.69
804.541	60.77
804.716	62.35
804.891	63.15
805.066	65.09
805.241	69.57
805.416	66.71
805.591	63.6
805.765	67.2
805.94	66.69
806.115	65.55
806.29	60.45
806.464	59.11
806.639	56.41
806.814	55.11
806.989	52.96
807.163	65.82
807.338	68.19
807.512	67.05
807.687	59.6
807.862	71.88
808.036	65.92
808.211	72.8
808.385	71.89
808.56	83.6
808.734	77.78
808.909	73.81
809.083	66.67
809.258	75.8
809.432	71.31
809.606	60.36
809.781	59.71
809.955	61.45
810.13	64.42
810.304	57.29
810.478	60.55
810.652	72.08
810.827	75.74
811.001	64.66
811.175	67.85
811.349	62.25
811.524	49.23
811.698	35.27
811.872	40.56
812.046	42.76
812.22	52.62
812.394	57.94
812.568	67.68
812.742	67.06
812.916	59.52
813.09	52.26
813.264	52
813.438	52.21
813.612	55.93
813.786	59.05
813.96	73.32
814.134	74.67
814.308	86.69
814.482	87.37
814.656	84.04
814.83	73.53
815.003	78.88
815.177	57.14
815.351	45.99
815.525	44.78
815.698	44.12
815.872	37.09
816.046	38.78
816.219	44.15
816.393	59.49
816.567	69.76
816.74	71.55
816.914	80.75
817.088	90.21
817.261	82.96
817.435	62.01
817.608	59.96
817.782	45.78
817.955	51.09
818.129	47.31
818.302	57.17
818.475	61.13
818.649	63.98
818.822	49.28
818.996	66.04
819.169	64.3
819.342	59.77
819.516	57.55
819.689	61.42
819.862	47.14
820.035	38.66
820.209	36.4
820.382	43.33
820.555	45.28
820.728	38.35
820.901	41.83
821.075	44.15
821.248	50.99
821.421	40.11
821.594	48.01
821.767	67.54
821.94	67.84
822.113	45.02
822.286	54.87
822.459	63.98
822.632	58.66
822.805	43.92
822.978	42.91
823.151	38.1
823.324	33.15
823.496	8.77
823.669	21.56
823.842	36.57
824.015	30.13
824.188	11.99
824.361	23.21
824.533	21.72
824.706	25.48
824.879	22.21
825.051	27.34
825.224	32.41
825.397	26.51
825.569	7.69
825.742	27.21
825.915	35.61
826.087	50.75
826.26	34.51
826.432	42.75
826.605	47.82
826.777	45.2
826.95	40.56
827.122	37.49
827.295	41.13
827.467	34.78
827.64	17.3
827.812	3.55
827.984	15.9
828.157	1.78
828.329	-34.86
828.501	-13.99
828.674	1.4
828.846	-0.87
829.018	20.49
829.19	19.88
829.363	45.58
829.535	51.27
829.707	64.42
829.879	36.4
830.051	42.35
830.223	13.47
830.395	-18.62
830.568	-29.81
830.74	-28.89
830.912	-0.22
831.084	-12.59
831.256	7.02
831.428	0.35
831.6	3.25
831.772	-36.95
831.943	-51.95
832.115	-40.88
832.287	-14.22
832.459	2.13
832.631	17.71
832.803	51.58
832.975	53.99
833.146	39.37
833.318	41.9
833.49	70.08
833.662	37.83
833.833	30.19
834.005	24.99
834.177	25.98
834.348	6.95
834.52	3.75
834.692	6.09
834.863	2.33
835.035	-13.49
835.206	-46.31
835.378	-17.01
835.549	-24.74
835.721	-18.32
835.892	-13.56
836.064	3.93
836.235	9
836.407	34.33
836.578	23.56
836.749	31.09
836.921	-27.23
837.092	-69.97
837.264	-74.31
837.435	-78.78
837.606	-31.36
837.777	11.93
837.949	25.53
838.12	39.67
838.291	48.08
838.462	30.42
838.633	8.31
838.805	10.97
838.976	0.69
839.147	-68.67
839.318	-75.83
839.489	-120.4
839.66	-87.57
839.831	-48.69
840.002	-20.32
840.173	-17.87
840.344	23.85
840.515	18.31
840.686	-76.26
840.857	-41.8
841.028	-35.2
841.199	-18.02
841.369	-55.38
841.54	-40.75
841.711	-12.35
841.882	33.23
842.053	15.91
842.223	13.41
842.394	18.55
842.565	6.2
842.736	-1.56
842.906	-0.03
843.077	14.22
843.248	43.6
843.418	63.9
843.589	52.29
843.759	132.39
843.93	146.77
844.101	37.77
844.271	30.68
844.442	40.03
844.612	38.19
844.783	-0.62
844.953	-33.49
845.123	-71.69
845.294	-132.84
845.464	-447.91
845.635	-207.44
845.805	-55.62
845.975	-21.22
846.146	-47.1
846.316	-25.11
846.486	-8.51
846.656	13.39
846.827	3.21
846.997	16.45
847.167	59.13
847.337	26.35
847.507	-14.35
847.677	0.79
847.848	37.33
848.018	16.6
848.188	24.53
848.358	12.73
848.528	5.18
848.698	-27.4
848.868	-105.17
849.038	-206.2
849.208	-70.65
849.378	-48.97
849.548	-48.77
849.718	-31.14
849.887	7.36
850.057	-2.99
850.227	-8.56
850.397	-3.87
850.567	1.67
850.737	-186.74
850.906	-731.88
851.076	-722.27
851.246	-399.21
851.415	-50.39
851.585	-41.68
851.755	-90.59
851.924	-37.23
852.094	-69.57
852.264	-181.97
852.433	-1056.25
852.603	-94.43
852.772	-46.25
852.942	-4.59
853.111	-13.61
853.281	24.88
853.45	33.43
853.62	-49.75
853.789	-67.17
853.959	-56.2
854.128	-64.64
854.297	-95.96
854.467	-61.62
854.636	-38.07
854.805	-0.7
854.975	-8.01
855.144	-14.11
855.313	41.61
855.482	-184.31
855.652	-133.27
855.821	-53.34
855.99	32.69
856.159	26.99
856.328	17.49
856.497	5.68
856.667	6.21
856.836	8.46
857.005	3.14
857.174	10.61
857.343	5.64
857.512	9.67
857.681	-50.15
857.85	-106.63
858.019	-70.54
858.188	-61.18
858.356	-78.59
858.525	-142.98
858.694	-116.63
858.863	-246.24
859.032	-195.76
859.201	-208.92
859.369	-107.27
859.538	-53.72
859.707	-19
859.876	2.11
860.044	-8.44
860.213	16.06
860.382	-7.72
860.55	9.85
860.719	16.49
860.888	16.07
861.056	6.46
861.225	5.73
861.393	21.14
861.562	19.78
861.73	-27.64
861.899	-174.61
862.067	-1325.86
862.236	-21.45
862.404	-123.78
862.572	-50.5
862.741	19.39
862.909	-1.65
863.078	-102.83
863.246	-67.08
863.414	-95.26
863.582	-101.78
863.751	-87.43
863.919	-87.63
864.087	-31.6
864.255	10.03
864.424	-177.09
864.592	-17.51
864.76	21.51
864.928	129.2
865.096	-12.58
865.264	19.27
865.432	-703.41
865.6	19.25
865.768	-76.99
865.936	-90.52
866.104	-137.08
866.272	-128.59
866.44	-332.09
866.608	627.99
866.776	285.42
866.944	1863.95
867.112	-400.64
867.28	-172.26
867.448	-50.68
867.615	-13.76
867.783	-5.75
867.951	0.22
868.119	23.8
868.286	2.7
868.454	-101.11
868.622	-115.39
868.789	-147.93
868.957	-2232.14
869.125	-1659.21
869.292	-61.3
869.46	-147.34
869.627	-2.67
869.795	-7.95
869.963	19.86
870.13	26.44
870.298	67.31
870.465	6.99
870.632	-34.15
870.8	-11.74
870.967	-39.95
871.135	-127.53
871.302	-135.89
871.469	-157.41
871.637	-312.99
871.804	-167.82
871.971	-212.94
872.139	-538.84
872.306	-110.61
872.473	-78.6
872.64	-318.24
872.807	-163.8
872.975	7.7
873.142	-124.55
873.309	1663.51
873.476	-6.25
873.643	63.93
873.81	0.46
873.977	38.14
874.144	54.19
874.311	-25.53
874.478	-72.8
874.645	-56.14
874.812	-11.78
874.979	-4.82
875.146	-4.82
875.313	-25.82
875.48	3.82
875.647	-11.9
875.813	-48
875.98	-40.02
876.147	-53.32
876.314	-97.54
876.481	1103.72
876.647	-1187.08
876.814	506.99
876.981	-152.5
877.147	-90.45
877.314	-0.97
877.481	0.28
877.647	12.96
877.814	-14.02
877.98	-37.87
878.147	-21.44
878.314	43.1
878.48	-0.08
878.647	10.97
878.813	61.33
878.979	49.23
879.146	-8.44
879.312	-13.96
879.479	-36.96
879.645	-160.96
879.811	-329.5
879.978	-611.83
880.144	-112.22
880.31	-90.41
880.477	-280.09
880.643	-222.01
880.809	-130.76
880.975	-105.5
881.142	-742.27
881.308	-135.45
881.474	-94.44
881.64	-94.47
881.806	-206.84
881.972	-54.21
882.138	4.03
882.304	-54.61
882.47	-222.15
882.636	-664.34
882.802	-298.25
882.968	-54.11
883.134	-10.36
883.3	11.74
883.466	28.52
883.632	80.92
883.798	31.39
883.964	21.76
884.129	59.03
884.295	87.56
884.461	16.5
884.627	-24.11
884.793	-23.56
884.958	-24.33
885.124	-107.06
885.29	-265.06
885.455	-362.86
885.621	-155.02
885.787	-236.12
885.952	-101.51
886.118	-95.4
886.283	-105.78
886.449	-194.32
886.614	-199.38
886.78	-412.12
886.945	1230.33
887.111	-589.88
887.276	-520.17
887.442	-649.55
887.607	-317.22
887.773	-187.42
887.938	-93.34
888.103	-127.4
888.269	-77.86
888.434	-94.32
888.599	-49.17
888.764	-21.78
888.93	16.43
889.095	6.57
889.26	-23.61
889.425	-20.65
889.59	1.55
889.756	-49.91
889.921	-65.09
890.086	-9.21
890.251	-6.15
890.416	-171.74
890.581	-1602.42
890.746	230.54
890.911	590.76
891.076	216.07
891.241	-584.7
891.406	-32.37
891.571	-51.3
891.736	-267.2
891.901	-576.55
892.065	607.14
892.23	149.08
892.395	205.58
892.56	265.46
892.725	-197.27
892.889	-235.37
893.054	-83.44
893.219	-62.63
893.384	-15.94
893.548	-75.57
893.713	-105.95
893.878	-55.84
