Data from Ofra_2a_PS_2H59_Reflection_3.txt Node
Date: Tue Jul 20 09:48:43 EDT 2021
User: Adam
Spectrometer: FLMT01687
Trigger mode: 0
Integration Time (sec): 9.450000E-1
Scans to average: 3
Electric dark correction enabled: true
Nonlinearity correction enabled: false
Boxcar width: 3
XAxis mode: Wavelengths
Number of Pixels in Spectrum: 3648
>>>>>Begin Spectral Data<<<<<
179.494	831.36
179.716	556.87
179.937	632.97
180.158	2455.47
180.38	-955.23
180.601	-161.52
180.823	-18.77
181.044	68.33
181.265	179.67
181.486	147.31
181.708	641.3
181.929	-100.23
182.15	-714.77
182.372	104.87
182.593	166.27
182.814	-173.95
183.035	36.16
183.257	118.1
183.478	99.11
183.699	91.46
183.92	56.68
184.141	60.08
184.363	49.41
184.584	21.79
184.805	18.76
185.026	12.37
185.247	3.7
185.468	21.47
185.689	21
185.91	27.97
186.132	42.18
186.353	35.36
186.574	21.89
186.795	11.57
187.016	3.66
187.237	6.09
187.458	-7.13
187.679	-19.23
187.9	-9.99
188.121	0.99
188.342	39.93
188.563	26.01
188.784	32.75
189.005	50.65
189.226	49.28
189.447	34.21
189.667	22.76
189.888	17
190.109	30.46
190.33	17.39
190.551	6.98
190.772	-5.8
190.993	11.66
191.214	15.49
191.434	9.45
191.655	18.09
191.876	23.09
192.097	26.46
192.318	34.4
192.538	36.22
192.759	33.82
192.98	25.99
193.201	40.81
193.421	45.31
193.642	35.43
193.863	29.92
194.083	22.31
194.304	28.86
194.525	51.79
194.745	13.64
194.966	12.3
195.187	25.68
195.407	26.93
195.628	31.95
195.848	27.09
196.069	21.35
196.29	25.12
196.51	24.39
196.731	34.73
196.951	28.65
197.172	11.84
197.392	21.25
197.613	15.69
197.833	16.46
198.054	14.25
198.274	-7.09
198.495	0.9
198.715	-6.62
198.936	-22.66
199.156	-13.72
199.377	12.3
199.597	0.7
199.817	3.11
200.038	2.71
200.258	14.01
200.479	28.78
200.699	16.34
200.919	-3.65
201.14	10.46
201.36	22.62
201.58	25.03
201.801	15.16
202.021	22.33
202.241	31.33
202.461	36.41
202.682	42.65
202.902	38.68
203.122	36.58
203.342	44.84
203.563	40.62
203.783	39.02
204.003	35.46
204.223	33.84
204.443	29.58
204.663	31.86
204.884	18.28
205.104	5.66
205.324	10.47
205.544	10.25
205.764	6.65
205.984	16.43
206.204	6.53
206.424	21.07
206.644	28.34
206.864	33.71
207.084	45.18
207.304	37.89
207.525	37.56
207.745	51.99
207.964	63.91
208.184	39.85
208.404	22.82
208.624	7.89
208.844	-9.74
209.064	-3.31
209.284	-7.9
209.504	-6.97
209.724	-17.25
209.944	-28.01
210.164	-10.57
210.384	19.1
210.604	9.19
210.823	21.32
211.043	11.17
211.263	40.09
211.483	39.5
211.703	31.77
211.922	27.89
212.142	35.71
212.362	21.89
212.582	24.55
212.801	9.95
213.021	11.45
213.241	-0.22
213.461	-16.43
213.68	-15.4
213.9	-5.31
214.12	-11.95
214.339	-7.2
214.559	-4.69
214.779	4.18
214.998	16.03
215.218	11.73
215.438	24.32
215.657	30.31
215.877	38.76
216.096	40.86
216.316	41.49
216.535	40.21
216.755	23.71
216.974	10.07
217.194	8.92
217.413	13.91
217.633	-0.44
217.852	0.02
218.072	-14.09
218.291	29.92
218.511	28.62
218.73	31.03
218.95	22.87
219.169	37.55
219.389	20.59
219.608	28.31
219.827	-4.33
220.047	-2.07
220.266	6.89
220.485	1.82
220.705	2.87
220.924	21.42
221.143	18.59
221.363	25.99
221.582	18.98
221.801	10.51
222.021	15.63
222.24	5.41
222.459	2.3
222.678	5.08
222.897	-2.24
223.117	4.97
223.336	12.81
223.555	8.35
223.774	29.74
223.993	37.93
224.213	27.03
224.432	43.91
224.651	44.08
224.87	38.05
225.089	39.54
225.308	36.6
225.527	17.28
225.746	23.79
225.965	13.15
226.184	18.55
226.404	15
226.623	20.71
226.842	9.12
227.061	14.33
227.28	35.49
227.499	47.06
227.718	37.64
227.936	33.68
228.155	27.32
228.374	34.37
228.593	30.65
228.812	11.47
229.031	-7.36
229.25	3.77
229.469	18.61
229.688	31.59
229.907	25.07
230.125	27.79
230.344	31.9
230.563	37.1
230.782	26.09
231.001	17.04
231.22	3.73
231.438	14.71
231.657	18.28
231.876	20.36
232.095	26.33
232.313	33.09
232.532	32.58
232.751	35.3
232.969	39.76
233.188	35.95
233.407	36.71
233.625	28.16
233.844	27.39
234.063	27.6
234.281	21.23
234.5	16.16
234.719	14
234.937	17.15
235.156	8.76
235.374	11.4
235.593	10.72
235.811	12.8
236.03	-5.55
236.249	13.24
236.467	9.97
236.686	32.93
236.904	20.87
237.123	21.34
237.341	17.63
237.559	26.2
237.778	24.71
237.996	23.12
238.215	12.65
238.433	20.12
238.652	19.31
238.87	23.88
239.088	19.68
239.307	19.52
239.525	6.49
239.743	1.55
239.962	2.77
240.18	9.85
240.398	16.87
240.617	28.02
240.835	16.15
241.053	39.89
241.271	48.18
241.49	35.87
241.708	26.92
241.926	10.25
242.144	1.6
242.363	-0.48
242.581	-8.98
242.799	-25.71
243.017	-7.11
243.235	-19.8
243.453	0.85
243.672	-9.77
243.89	2.58
244.108	17.65
244.326	25.78
244.544	24.81
244.762	43.09
244.98	34.34
245.198	27.87
245.416	33.75
245.634	18.65
245.852	15.78
246.07	8.96
246.288	-13.98
246.506	-5.82
246.724	9.8
246.942	14.07
247.16	11.51
247.378	6.61
247.596	10.87
247.814	5.19
248.032	-2.12
248.25	-6.78
248.468	-10.2
248.685	4.26
248.903	2.34
249.121	2.92
249.339	14.47
249.557	19.54
249.775	5.79
249.992	-4.21
250.21	-14.69
250.428	-7.08
250.646	-5.61
250.863	-3.3
251.081	-17.37
251.299	10.32
251.517	20.68
251.734	30.72
251.952	37.81
252.17	30.64
252.387	24.38
252.605	34.81
252.823	34.45
253.04	42.71
253.258	24.97
253.475	11.85
253.693	19.95
253.911	26.15
254.128	24.68
254.346	12.91
254.563	7.36
254.781	8.83
254.998	7.02
255.216	7.12
255.433	5.54
255.651	3.11
255.868	14.05
256.086	17.51
256.303	31.29
256.521	32.73
256.738	25.77
256.956	19.88
257.173	15.17
257.39	17.49
257.608	15.57
257.825	11.72
258.043	21.57
258.26	23.7
258.477	33.21
258.695	34.29
258.912	40.79
259.129	33.39
259.346	32.47
259.564	25.79
259.781	23.89
259.998	25.21
260.216	36.19
260.433	22.15
260.65	38.77
260.867	29.04
261.084	35.74
261.302	28.93
261.519	25.56
261.736	21.33
261.953	24.44
262.17	13
262.387	13.9
262.604	5.71
262.822	12.37
263.039	6.71
263.256	-0.07
263.473	-5.62
263.69	-4.35
263.907	4.03
264.124	-3.32
264.341	-6.85
264.558	-1.99
264.775	1.25
264.992	5.53
265.209	16.2
265.426	14.76
265.643	20.44
265.86	23.71
266.077	22.01
266.294	27.54
266.51	26.89
266.727	2.12
266.944	-9.42
267.161	-11.48
267.378	-16.77
267.595	-24.05
267.812	-34.97
268.028	-17.99
268.245	-3.8
268.462	4.84
268.679	7.85
268.896	8.64
269.112	23.03
269.329	28.39
269.546	19.31
269.763	23.37
269.979	20.81
270.196	17.36
270.413	19.49
270.629	12.91
270.846	12.79
271.063	14.45
271.279	16.38
271.496	4.77
271.712	14.81
271.929	17.28
272.146	20.74
272.362	7.68
272.579	4.85
272.795	-5.86
273.012	4.15
273.228	-1.25
273.445	-0.72
273.661	0.01
273.878	17.27
274.094	20.43
274.311	25.45
274.527	32.98
274.744	31.02
274.96	27.23
275.177	32.23
275.393	26.67
275.609	27.49
275.826	24.39
276.042	17.95
276.259	22.52
276.475	19.49
276.691	18.83
276.908	20.26
277.124	18.94
277.34	11.41
277.557	10.86
277.773	8.57
277.989	12.63
278.205	-5.26
278.422	-5.27
278.638	6.11
278.854	18.41
279.07	18.34
279.286	14.99
279.503	12.13
279.719	30.96
279.935	22.89
280.151	21.32
280.367	19.03
280.583	23.91
280.799	36.74
281.016	39.34
281.232	38.88
281.448	38.83
281.664	36.43
281.88	34.53
282.096	32.44
282.312	14.95
282.528	-1.33
282.744	-3.55
282.96	-0.08
283.176	11.32
283.392	12.33
283.608	7.45
283.824	14.12
284.04	26.17
284.256	25.55
284.471	28.04
284.687	15.02
284.903	13.27
285.119	1.12
285.335	8.34
285.551	10.71
285.767	10.02
285.982	8.35
286.198	11.52
286.414	24.6
286.63	40.4
286.846	35.54
287.061	39.34
287.277	39.28
287.493	45.79
287.709	38.75
287.924	39.54
288.14	42.84
288.356	49.99
288.571	37.66
288.787	40.51
289.003	39.05
289.218	40.07
289.434	30.94
289.65	28.41
289.865	26.83
290.081	35.96
290.296	29.51
290.512	30.42
290.727	40.02
290.943	33.85
291.159	27.81
291.374	28.83
291.59	11.97
291.805	15.51
292.021	7.23
292.236	-1.15
292.451	4.21
292.667	-1.11
292.882	-13.65
293.098	-9.35
293.313	-10.01
293.529	-4.24
293.744	-2.02
293.959	3.25
294.175	1.18
294.39	7.94
294.605	12.9
294.821	12.93
295.036	11.27
295.251	4.43
295.467	-6.81
295.682	12.44
295.897	13.61
296.112	19.86
296.328	22.85
296.543	20.93
296.758	19.72
296.973	32.64
297.188	24.7
297.404	24.63
297.619	19.03
297.834	21.22
298.049	23.03
298.264	27.65
298.479	14.94
298.694	18.7
298.909	14.31
299.125	16.16
299.34	13.7
299.555	15.07
299.77	12.59
299.985	9.58
300.2	6.65
300.415	10.55
300.63	-0.45
300.845	3.24
301.06	4.58
301.275	11.46
301.49	23.89
301.704	18.8
301.919	11.52
302.134	15.77
302.349	4.52
302.564	-3.97
302.779	-11.39
302.994	-15.24
303.209	-15.27
303.423	5.2
303.638	11.63
303.853	23.21
304.068	31.73
304.283	29.23
304.497	20.25
304.712	25.98
304.927	14.36
305.142	10.26
305.356	8.47
305.571	5.73
305.786	5.02
306	11.99
306.215	11.63
306.43	17.71
306.644	19.97
306.859	26.87
307.074	28.91
307.288	29.7
307.503	22.64
307.717	16.36
307.932	15.42
308.147	13.11
308.361	1.66
308.576	-2.73
308.79	0.08
309.005	1.64
309.219	4.43
309.434	3.64
309.648	-0.83
309.863	3.6
310.077	3.21
310.292	-0.24
310.506	13.35
310.72	20.67
310.935	23.67
311.149	24.6
311.364	30.69
311.578	27.35
311.792	32.57
312.007	25.09
312.221	21.66
312.435	10.98
312.649	-20.7
312.864	-39.27
313.078	-32.52
313.292	-35.31
313.507	-30.07
313.721	-35.9
313.935	5.82
314.149	36.08
314.363	49.1
314.578	66.87
314.792	66.17
315.006	63.52
315.22	68.03
315.434	50.62
315.648	47.59
315.862	31.07
316.077	17.7
316.291	11.97
316.505	12.79
316.719	-6.67
316.933	3.57
317.147	0.98
317.361	1.72
317.575	5.36
317.789	15.52
318.003	21.25
318.217	33.63
318.431	30.28
318.645	36.76
318.859	41.63
319.073	36.97
319.287	36.25
319.5	29.6
319.714	20.71
319.928	20.05
320.142	15.47
320.356	24.86
320.57	24.07
320.784	19.15
320.997	29.58
321.211	29.63
321.425	21.18
321.639	26.16
321.853	12.4
322.066	11.38
322.28	13.32
322.494	7.61
322.707	7.11
322.921	15.32
323.135	10.63
323.349	16.48
323.562	20.12
323.776	20.04
323.989	7.13
324.203	11.1
324.417	9.22
324.63	2.99
324.844	1.01
325.057	3.94
325.271	-5.68
325.485	15.28
325.698	19.62
325.912	20.12
326.125	24.9
326.339	26.61
326.552	26.36
326.766	36.69
326.979	33.28
327.193	26.64
327.406	25.25
327.619	19.35
327.833	8.51
328.046	-0.07
328.26	-13.04
328.473	-19
328.686	-14.11
328.9	-22.12
329.113	-16.41
329.326	-10.72
329.54	-14.42
329.753	-3.21
329.966	-1.87
330.179	4.38
330.393	10.65
330.606	16.28
330.819	19.73
331.032	28.13
331.246	26.03
331.459	19.48
331.672	23.06
331.885	26.91
332.098	25.25
332.311	13.72
332.525	24.32
332.738	23.13
332.951	35.01
333.164	17.84
333.377	4.03
333.59	14.23
333.803	25.15
334.016	3.81
334.229	10
334.442	9.64
334.655	28.74
334.868	44.49
335.081	37.15
335.294	27.09
335.507	36.45
335.72	26.96
335.933	27.76
336.146	23.63
336.359	14.32
336.572	12.06
336.785	28.22
336.997	20.68
337.21	22.17
337.423	17.51
337.636	20.02
337.849	20.43
338.062	25.79
338.274	15.85
338.487	20.07
338.7	16.98
338.913	22.06
339.125	18.64
339.338	26.38
339.551	22.56
339.763	26.21
339.976	24.16
340.189	24.92
340.402	27.15
340.614	31.88
340.827	18.8
341.039	21.89
341.252	17.97
341.465	14.9
341.677	8.98
341.89	-1.6
342.102	-4.04
342.315	7.45
342.527	7.08
342.74	0.54
342.952	8.26
343.165	19.37
343.377	23.69
343.59	28.68
343.802	28.5
344.015	27.81
344.227	33.65
344.44	23.15
344.652	22.13
344.864	25.9
345.077	20.19
345.289	16.5
345.502	11.03
345.714	9.08
345.926	12.86
346.139	14.53
346.351	-2.64
346.563	0.63
346.775	-1.04
346.988	-3.79
347.2	-1.21
347.412	4.55
347.624	8.86
347.837	18.53
348.049	15.43
348.261	15.91
348.473	15
348.685	19.18
348.897	20.08
349.11	17.09
349.322	12.8
349.534	9.81
349.746	14.91
349.958	20.22
350.17	11.35
350.382	10.38
350.594	15.03
350.806	24.14
351.018	33.63
351.23	32.64
351.442	32.29
351.654	39.4
351.866	39.03
352.078	29.15
352.29	25.03
352.502	20.75
352.714	22.25
352.926	29.71
353.138	22.05
353.35	16.56
353.561	13.86
353.773	14.25
353.985	16.4
354.197	10.14
354.409	3.58
354.621	3.96
354.832	-0.12
355.044	14.92
355.256	6.47
355.468	-4.43
355.679	10.15
355.891	8.48
356.103	9.61
356.314	17.07
356.526	8.09
356.738	11.61
356.949	17.6
357.161	5.09
357.373	5.64
357.584	14.93
357.796	9.3
358.008	10.13
358.219	21.24
358.431	22.96
358.642	24.88
358.854	26.35
359.065	20.39
359.277	10.19
359.488	13.15
359.7	13.16
359.911	8.56
360.123	16.02
360.334	11.1
360.546	2.79
360.757	17.98
360.969	17.97
361.18	10.84
361.391	10.88
361.603	7.69
361.814	10.99
362.025	15.35
362.237	11.72
362.448	10.46
362.659	2.6
362.871	6.81
363.082	9.81
363.293	13.32
363.504	16.81
363.716	21.8
363.927	23.1
364.138	26.86
364.349	25.04
364.56	20.53
364.772	23.16
364.983	20.76
365.194	13.04
365.405	7.5
365.616	-1.47
365.827	-5.98
366.038	5.97
366.25	6.94
366.461	7.2
366.672	14.43
366.883	22.97
367.094	29.53
367.305	36.08
367.516	27.5
367.727	15.84
367.938	14.33
368.149	15.85
368.36	11.8
368.571	13.64
368.781	11.29
368.992	8.3
369.203	14.87
369.414	17.22
369.625	10.3
369.836	14.38
370.047	9.55
370.258	3.2
370.468	5.21
370.679	4.23
370.89	12.3
371.101	9.93
371.312	4.46
371.522	7.99
371.733	6.92
371.944	12.62
372.155	-3.01
372.365	-11.87
372.576	-11.21
372.787	-13.08
372.997	-17.26
373.208	-8.01
373.419	-14.74
373.629	0.79
373.84	-3.75
374.05	0.07
374.261	1.14
374.472	2.15
374.682	-6.62
374.893	-2.98
375.103	1.15
375.314	6.02
375.524	8.01
375.735	6.49
375.945	10.2
376.156	22.98
376.366	27.03
376.577	28.04
376.787	30.82
376.997	34.03
377.208	31.93
377.418	25
377.629	20.23
377.839	19.68
378.049	20.99
378.26	22.71
378.47	25.47
378.68	26.04
378.89	27.45
379.101	18.1
379.311	14.42
379.521	10.17
379.732	-2.4
379.942	-2.67
380.152	6.98
380.362	11.32
380.572	19.66
380.783	16.77
380.993	13.07
381.203	23.6
381.413	20.23
381.623	17.27
381.833	10.31
382.043	3.26
382.253	4.83
382.463	10.46
382.674	8.73
382.884	8.14
383.094	7.24
383.304	13.02
383.514	21.79
383.724	17.29
383.934	12.78
384.144	11.94
384.353	9.7
384.563	9.84
384.773	5.78
384.983	0.47
385.193	2.91
385.403	6.3
385.613	3.54
385.823	6.87
386.033	6.83
386.242	6.22
386.452	7.75
386.662	10.09
386.872	8.72
387.082	8.71
387.291	4.47
387.501	4.8
387.711	4.58
387.921	2.44
388.13	1.75
388.34	2.15
388.55	4.59
388.759	5.63
388.969	1.88
389.179	5.65
389.388	6.95
389.598	5.73
389.807	4.44
390.017	3.84
390.227	3.21
390.436	6.33
390.646	4.62
390.855	5.26
391.065	4.89
391.274	4.88
391.484	5.75
391.693	7.42
391.903	6.67
392.112	6.68
392.322	7.51
392.531	8.17
392.74	6.39
392.95	6.24
393.159	6.83
393.369	6.87
393.578	7.85
393.787	7.22
393.997	8.17
394.206	9.33
394.415	8.55
394.625	6.3
394.834	5.56
395.043	5.96
395.252	6.1
395.462	4.99
395.671	4.95
395.88	4.77
396.089	5.14
396.298	5.33
396.508	4.27
396.717	3.71
396.926	3.52
397.135	2.63
397.344	2.46
397.553	2.7
397.762	2.94
397.971	3.12
398.181	2.7
398.39	2.72
398.599	3.42
398.808	3.56
399.017	3.9
399.226	4.08
399.435	4.31
399.644	4.6
399.853	4.91
400.062	4.81
400.27	5
400.479	4.79
400.688	4.73
400.897	4.73
401.106	4.88
401.315	4.63
401.524	4.83
401.733	5.06
401.941	5.1
402.15	4.9
402.359	4.85
402.568	4.81
402.777	4.82
402.985	4.6
403.194	4.45
403.403	4.24
403.612	4.45
403.82	4.46
404.029	4.44
404.238	4.5
404.446	4.51
404.655	4.28
404.864	4.32
405.072	4.2
405.281	4.06
405.489	4.11
405.698	4.03
405.906	3.93
406.115	4.06
406.324	4
406.532	3.98
406.741	4.09
406.949	3.91
407.158	3.98
407.366	4.16
407.574	4.25
407.783	4.2
407.991	4.12
408.2	4
408.408	4.12
408.617	4.08
408.825	4.06
409.033	3.91
409.242	4
409.45	4.09
409.658	4.09
409.867	4.04
410.075	4.06
410.283	4.03
410.491	4.04
410.7	4.05
410.908	4.02
411.116	4.04
411.324	4.06
411.533	3.98
411.741	3.89
411.949	3.91
412.157	3.97
412.365	3.94
412.573	3.91
412.781	3.88
412.99	3.98
413.198	3.99
413.406	4.01
413.614	3.91
413.822	3.87
414.03	3.85
414.238	3.92
414.446	3.76
414.654	3.75
414.862	3.65
415.07	3.7
415.278	3.73
415.486	3.88
415.694	3.78
415.902	3.82
416.109	3.87
416.317	3.88
416.525	3.91
416.733	3.92
416.941	3.77
417.149	3.91
417.357	3.92
417.564	3.84
417.772	3.8
417.98	3.69
418.188	3.55
418.395	3.56
418.603	3.41
418.811	3.37
419.019	3.47
419.226	3.56
419.434	3.54
419.642	3.66
419.849	3.68
420.057	3.71
420.265	3.74
420.472	3.67
420.68	3.55
420.887	3.62
421.095	3.62
421.302	3.6
421.51	3.66
421.717	3.69
421.925	3.67
422.132	3.62
422.34	3.56
422.547	3.47
422.755	3.48
422.962	3.3
423.17	3.28
423.377	3.38
423.585	3.45
423.792	3.44
423.999	3.52
424.207	3.42
424.414	3.51
424.621	3.59
424.829	3.49
425.036	3.51
425.243	3.58
425.451	3.62
425.658	3.71
425.865	3.63
426.072	3.57
426.28	3.6
426.487	3.59
426.694	3.59
426.901	3.41
427.108	3.41
427.315	3.52
427.523	3.46
427.73	3.5
427.937	3.44
428.144	3.35
428.351	3.5
428.558	3.45
428.765	3.27
428.972	3.32
429.179	3.23
429.386	3.35
429.593	3.38
429.8	3.39
430.007	3.47
430.214	3.68
430.421	3.68
430.628	3.65
430.835	3.66
431.042	3.74
431.249	3.67
431.456	3.64
431.662	3.62
431.869	3.68
432.076	3.77
432.283	3.68
432.49	3.64
432.697	3.74
432.903	3.78
433.11	3.86
433.317	3.87
433.524	3.85
433.73	3.92
433.937	3.86
434.144	3.84
434.35	3.87
434.557	3.71
434.764	3.61
434.97	3.64
435.177	3.6
435.384	3.75
435.59	3.78
435.797	3.76
436.003	3.78
436.21	3.78
436.416	3.84
436.623	3.84
436.829	3.75
437.036	3.67
437.242	3.71
437.449	3.8
437.655	3.86
437.862	3.82
438.068	3.84
438.275	3.85
438.481	3.97
438.687	3.98
438.894	3.9
439.1	3.93
439.307	3.91
439.513	3.97
439.719	4.07
439.926	4.07
440.132	4.04
440.338	4.09
440.544	4.06
440.751	4.08
440.957	4.04
441.163	3.94
441.369	3.88
441.575	3.92
441.782	3.92
441.988	3.96
442.194	4.03
442.4	4.04
442.606	4.11
442.812	4.15
443.018	4.12
443.224	4.13
443.431	4.15
443.637	4.08
443.843	4.15
444.049	4.08
444.255	4.03
444.461	4.06
444.667	4.1
444.873	4.08
445.079	4.09
445.284	4.01
445.49	4.01
445.696	4.06
445.902	4.06
446.108	4.02
446.314	4.06
446.52	4.13
446.726	4.14
446.931	4.16
447.137	4.19
447.343	4.14
447.549	4.18
447.755	4.14
447.96	4.08
448.166	4.11
448.372	4.14
448.578	4.12
448.783	4.15
448.989	4.08
449.195	4.06
449.4	4.08
449.606	4.07
449.812	4.08
450.017	4.07
450.223	4.1
450.428	4.17
450.634	4.27
450.84	4.3
451.045	4.33
451.251	4.35
451.456	4.3
451.662	4.29
451.867	4.29
452.073	4.26
452.278	4.25
452.483	4.24
452.689	4.28
452.894	4.33
453.1	4.22
453.305	4.19
453.51	4.22
453.716	4.22
453.921	4.24
454.127	4.21
454.332	4.21
454.537	4.36
454.742	4.38
454.948	4.34
455.153	4.32
455.358	4.35
455.563	4.37
455.769	4.37
455.974	4.28
456.179	4.26
456.384	4.26
456.589	4.3
456.795	4.22
457	4.23
457.205	4.2
457.41	4.29
457.615	4.33
457.82	4.38
458.025	4.33
458.23	4.4
458.435	4.3
458.64	4.4
458.845	4.36
459.05	4.39
459.255	4.34
459.46	4.39
459.665	4.39
459.87	4.42
460.075	4.33
460.28	4.36
460.485	4.35
460.69	4.33
460.895	4.31
461.099	4.34
461.304	4.39
461.509	4.39
461.714	4.4
461.919	4.4
462.123	4.51
462.328	4.51
462.533	4.51
462.738	4.5
462.942	4.54
463.147	4.52
463.352	4.55
463.556	4.47
463.761	4.49
463.966	4.54
464.17	4.6
464.375	4.6
464.58	4.6
464.784	4.59
464.989	4.6
465.193	4.61
465.398	4.58
465.602	4.51
465.807	4.51
466.011	4.54
466.216	4.59
466.42	4.62
466.625	4.64
466.829	4.66
467.034	4.71
467.238	4.77
467.443	4.78
467.647	4.78
467.851	4.79
468.056	4.77
468.26	4.75
468.464	4.78
468.669	4.81
468.873	4.77
469.077	4.75
469.282	4.77
469.486	4.82
469.69	4.83
469.894	4.84
470.099	4.82
470.303	4.87
470.507	4.93
470.711	4.92
470.915	4.94
471.119	4.97
471.324	4.91
471.528	4.93
471.732	4.92
471.936	4.91
472.14	4.92
472.344	4.93
472.548	4.97
472.752	5.07
472.956	5.08
473.16	5.09
473.364	5.09
473.568	5.1
473.772	5.17
473.976	5.11
474.18	5.07
474.384	5.03
474.588	5.09
474.792	5.09
474.995	5.12
475.199	5.08
475.403	5.16
475.607	5.16
475.811	5.2
476.015	5.24
476.218	5.25
476.422	5.29
476.626	5.28
476.83	5.23
477.033	5.29
477.237	5.3
477.441	5.32
477.644	5.38
477.848	5.38
478.052	5.43
478.255	5.44
478.459	5.48
478.663	5.52
478.866	5.47
479.07	5.45
479.273	5.45
479.477	5.48
479.681	5.52
479.884	5.48
480.088	5.49
480.291	5.54
480.495	5.57
480.698	5.6
480.901	5.6
481.105	5.63
481.308	5.62
481.512	5.65
481.715	5.66
481.919	5.67
482.122	5.67
482.325	5.68
482.529	5.74
482.732	5.8
482.935	5.78
483.138	5.76
483.342	5.78
483.545	5.76
483.748	5.82
483.952	5.77
484.155	5.8
484.358	5.81
484.561	5.87
484.764	5.86
484.967	5.9
485.171	5.87
485.374	5.86
485.577	5.84
485.78	5.85
485.983	5.8
486.186	5.8
486.389	5.76
486.592	5.76
486.795	5.78
486.998	5.8
487.201	5.81
487.404	5.88
487.607	5.87
487.81	5.91
488.013	5.91
488.216	5.93
488.419	5.9
488.622	5.87
488.825	5.79
489.028	5.79
489.231	5.82
489.433	5.8
489.636	5.72
489.839	5.75
490.042	5.77
490.245	5.8
490.447	5.83
490.65	5.85
490.853	5.87
491.056	5.92
491.258	5.96
491.461	5.94
491.664	5.93
491.866	5.93
492.069	5.89
492.272	5.86
492.474	5.85
492.677	5.8
492.879	5.84
493.082	5.87
493.285	5.89
493.487	5.9
493.69	5.87
493.892	5.9
494.095	5.88
494.297	5.89
494.5	5.89
494.702	5.88
494.905	5.88
495.107	5.94
495.309	5.92
495.512	5.99
495.714	6.02
495.917	6.01
496.119	6.05
496.321	6.06
496.524	6.06
496.726	6.08
496.928	6.07
497.13	6.05
497.333	6.09
497.535	6.08
497.737	6.09
497.939	6.08
498.142	6.08
498.344	6.06
498.546	6.12
498.748	6.1
498.95	6.08
499.152	6.05
499.355	6.08
499.557	6.13
499.759	6.18
499.961	6.13
500.163	6.16
500.365	6.16
500.567	6.18
500.769	6.2
500.971	6.15
501.173	6.1
501.375	6.09
501.577	6.08
501.779	6.11
501.981	6.14
502.183	6.1
502.385	6.12
502.587	6.15
502.788	6.18
502.99	6.19
503.192	6.19
503.394	6.21
503.596	6.25
503.798	6.31
503.999	6.32
504.201	6.33
504.403	6.37
504.605	6.38
504.806	6.4
505.008	6.38
505.21	6.36
505.411	6.4
505.613	6.43
505.815	6.46
506.016	6.51
506.218	6.48
506.42	6.5
506.621	6.54
506.823	6.54
507.024	6.53
507.226	6.51
507.427	6.47
507.629	6.51
507.83	6.48
508.032	6.47
508.233	6.49
508.435	6.48
508.636	6.5
508.838	6.54
509.039	6.57
509.24	6.62
509.442	6.6
509.643	6.57
509.845	6.6
510.046	6.59
510.247	6.62
510.448	6.62
510.65	6.62
510.851	6.66
511.052	6.68
511.254	6.65
511.455	6.63
511.656	6.63
511.857	6.6
512.058	6.64
512.26	6.65
512.461	6.68
512.662	6.71
512.863	6.74
513.064	6.69
513.265	6.76
513.466	6.75
513.667	6.76
513.868	6.77
514.069	6.8
514.27	6.82
514.471	6.9
514.672	6.87
514.873	6.9
515.074	6.86
515.275	6.86
515.476	6.86
515.677	6.88
515.878	6.88
516.079	6.92
516.28	6.91
516.481	6.95
516.682	6.98
516.882	6.95
517.083	6.95
517.284	6.91
517.485	6.9
517.686	6.92
517.886	6.91
518.087	6.91
518.288	6.94
518.488	6.95
518.689	6.97
518.89	7.01
519.091	7.02
519.291	7.04
519.492	7.02
519.692	7.06
519.893	7.07
520.094	7.08
520.294	7.05
520.495	7.05
520.695	7.07
520.896	7.1
521.096	7.1
521.297	7.09
521.497	7.12
521.698	7.14
521.898	7.14
522.099	7.14
522.299	7.14
522.499	7.16
522.7	7.17
522.9	7.15
523.101	7.17
523.301	7.17
523.501	7.18
523.702	7.19
523.902	7.18
524.102	7.2
524.302	7.21
524.503	7.21
524.703	7.27
524.903	7.32
525.103	7.32
525.304	7.34
525.504	7.32
525.704	7.32
525.904	7.33
526.104	7.32
526.304	7.3
526.504	7.27
526.705	7.28
526.905	7.31
527.105	7.33
527.305	7.28
527.505	7.25
527.705	7.25
527.905	7.28
528.105	7.24
528.305	7.24
528.505	7.25
528.705	7.33
528.905	7.37
529.105	7.42
529.304	7.46
529.504	7.5
529.704	7.49
529.904	7.51
530.104	7.46
530.304	7.47
530.503	7.44
530.703	7.43
530.903	7.44
531.103	7.45
531.303	7.49
531.502	7.5
531.702	7.49
531.902	7.52
532.101	7.53
532.301	7.52
532.501	7.55
532.7	7.5
532.9	7.53
533.1	7.51
533.299	7.52
533.499	7.55
533.698	7.59
533.898	7.59
534.097	7.65
534.297	7.66
534.496	7.69
534.696	7.71
534.895	7.72
535.095	7.71
535.294	7.69
535.494	7.71
535.693	7.73
535.892	7.71
536.092	7.71
536.291	7.73
536.491	7.74
536.69	7.74
536.889	7.73
537.088	7.75
537.288	7.82
537.487	7.83
537.686	7.84
537.886	7.87
538.085	7.93
538.284	7.93
538.483	7.94
538.682	7.93
538.882	7.93
539.081	7.93
539.28	7.94
539.479	7.96
539.678	8.01
539.877	8.01
540.076	8.05
540.275	8.09
540.474	8.09
540.673	8.12
540.872	8.14
541.071	8.14
541.27	8.19
541.469	8.18
541.668	8.22
541.867	8.27
542.066	8.29
542.265	8.32
542.464	8.35
542.663	8.36
542.862	8.4
543.06	8.42
543.259	8.45
543.458	8.45
543.657	8.49
543.856	8.5
544.054	8.53
544.253	8.52
544.452	8.5
544.651	8.49
544.849	8.54
545.048	8.56
545.247	8.57
545.445	8.57
545.644	8.62
545.843	8.67
546.041	8.73
546.24	8.76
546.438	8.8
546.637	8.84
546.836	8.88
547.034	8.93
547.233	8.98
547.431	8.99
547.63	9.03
547.828	9.04
548.027	9.06
548.225	9.13
548.423	9.18
548.622	9.22
548.82	9.29
549.019	9.33
549.217	9.41
549.415	9.47
549.614	9.46
549.812	9.49
550.01	9.53
550.209	9.57
550.407	9.64
550.605	9.66
550.803	9.67
551.002	9.74
551.2	9.81
551.398	9.85
551.596	9.87
551.794	9.92
551.993	9.94
552.191	10.03
552.389	10.11
552.587	10.13
552.785	10.18
552.983	10.28
553.181	10.31
553.379	10.41
553.577	10.48
553.775	10.53
553.973	10.58
554.171	10.64
554.369	10.66
554.567	10.7
554.765	10.72
554.963	10.74
555.161	10.77
555.359	10.82
555.557	10.88
555.755	10.98
555.952	11.08
556.15	11.16
556.348	11.25
556.546	11.33
556.744	11.41
556.941	11.51
557.139	11.58
557.337	11.62
557.535	11.69
557.732	11.79
557.93	11.85
558.128	11.92
558.325	11.96
558.523	12
558.721	12.06
558.918	12.13
559.116	12.16
559.313	12.25
559.511	12.33
559.708	12.43
559.906	12.5
560.104	12.58
560.301	12.64
560.498	12.7
560.696	12.78
560.893	12.84
561.091	12.9
561.288	12.99
561.486	13.08
561.683	13.21
561.88	13.29
562.078	13.37
562.275	13.49
562.473	13.54
562.67	13.64
562.867	13.75
563.064	13.79
563.262	13.92
563.459	14
563.656	14.07
563.853	14.18
564.051	14.21
564.248	14.28
564.445	14.37
564.642	14.42
564.839	14.51
565.036	14.64
565.234	14.71
565.431	14.78
565.628	14.84
565.825	14.95
566.022	15.04
566.219	15.12
566.416	15.18
566.613	15.3
566.81	15.39
567.007	15.44
567.204	15.47
567.401	15.54
567.598	15.57
567.795	15.57
567.991	15.65
568.188	15.69
568.385	15.83
568.582	15.87
568.779	15.92
568.976	16.02
569.172	16.09
569.369	16.12
569.566	16.19
569.763	16.23
569.96	16.32
570.156	16.39
570.353	16.49
570.55	16.56
570.746	16.62
570.943	16.71
571.14	16.74
571.336	16.76
571.533	16.77
571.729	16.8
571.926	16.84
572.123	16.81
572.319	16.82
572.516	16.9
572.712	16.98
572.909	17.1
573.105	17.15
573.302	17.17
573.498	17.24
573.695	17.25
573.891	17.27
574.087	17.28
574.284	17.21
574.48	17.2
574.677	17.3
574.873	17.38
575.069	17.45
575.266	17.47
575.462	17.53
575.658	17.61
575.854	17.61
576.051	17.62
576.247	17.62
576.443	17.65
576.639	17.66
576.835	17.64
577.032	17.63
577.228	17.72
577.424	17.73
577.62	17.75
577.816	17.75
578.012	17.76
578.208	17.82
578.404	17.85
578.6	17.86
578.796	17.86
578.993	17.86
579.189	17.85
579.384	17.85
579.58	17.85
579.776	17.87
579.972	17.82
580.168	17.79
580.364	17.81
580.56	17.84
580.756	17.83
580.952	17.81
581.148	17.78
581.343	17.77
581.539	17.82
581.735	17.81
581.931	17.81
582.127	17.84
582.322	17.82
582.518	17.81
582.714	17.83
582.909	17.78
583.105	17.75
583.301	17.75
583.496	17.69
583.692	17.72
583.888	17.75
584.083	17.74
584.279	17.77
584.474	17.75
584.67	17.74
584.866	17.82
585.061	17.82
585.257	17.86
585.452	17.86
585.648	17.84
585.843	17.87
586.039	17.86
586.234	17.8
586.429	17.8
586.625	17.77
586.82	17.8
587.015	17.81
587.211	17.84
587.406	17.89
587.601	17.92
587.797	17.9
587.992	17.92
588.187	17.95
588.383	17.99
588.578	17.94
588.773	17.91
588.968	17.98
589.163	18.02
589.359	18.03
589.554	18.02
589.749	18.01
589.944	18.08
590.139	18.14
590.334	18.12
590.529	18.15
590.724	18.15
590.919	18.2
591.114	18.25
591.309	18.27
591.504	18.3
591.699	18.33
591.894	18.35
592.089	18.4
592.284	18.4
592.479	18.39
592.674	18.44
592.869	18.48
593.064	18.54
593.259	18.59
593.454	18.65
593.648	18.7
593.843	18.77
594.038	18.82
594.233	18.89
594.428	18.96
594.622	18.96
594.817	19.04
595.012	19.12
595.206	19.21
595.401	19.28
595.596	19.34
595.79	19.35
595.985	19.46
596.18	19.52
596.374	19.59
596.569	19.62
596.763	19.71
596.958	19.74
597.153	19.87
597.347	19.95
597.542	20.02
597.736	20.08
597.931	20.21
598.125	20.25
598.319	20.35
598.514	20.36
598.708	20.41
598.903	20.46
599.097	20.51
599.291	20.56
599.486	20.58
599.68	20.6
599.874	20.67
600.069	20.71
600.263	20.73
600.457	20.77
600.651	20.8
600.846	20.83
601.04	20.85
601.234	20.93
601.428	20.97
601.622	20.98
601.817	21.05
602.011	21.02
602.205	21.09
602.399	21.13
602.593	21.11
602.787	21.21
602.981	21.26
603.175	21.21
603.369	21.23
603.563	21.22
603.757	21.22
603.951	21.21
604.145	21.11
604.339	21.09
604.533	21.14
604.727	21.15
604.921	21.15
605.115	21.13
605.309	21.12
605.502	21.19
605.696	21.16
605.89	21.2
606.084	21.18
606.278	21.19
606.471	21.15
606.665	21.14
606.859	21.09
607.053	21.07
607.246	20.99
607.44	20.9
607.634	20.79
607.827	20.78
608.021	20.73
608.214	20.72
608.408	20.68
608.602	20.63
608.795	20.61
608.989	20.64
609.182	20.63
609.376	20.54
609.569	20.44
609.763	20.46
609.956	20.4
610.15	20.35
610.343	20.28
610.537	20.21
610.73	20.16
610.923	20.12
611.117	20.01
611.31	19.97
611.504	19.93
611.697	19.91
611.89	19.84
612.083	19.79
612.277	19.7
612.47	19.61
612.663	19.55
612.856	19.52
613.05	19.44
613.243	19.41
613.436	19.4
613.629	19.4
613.822	19.33
614.015	19.28
614.209	19.26
614.402	19.19
614.595	19.07
614.788	18.98
614.981	18.89
615.174	18.86
615.367	18.8
615.56	18.68
615.753	18.64
615.946	18.64
616.139	18.57
616.332	18.52
616.525	18.5
616.718	18.47
616.911	18.45
617.103	18.4
617.296	18.38
617.489	18.36
617.682	18.37
617.875	18.32
618.067	18.3
618.26	18.23
618.453	18.19
618.646	18.12
618.838	18.09
619.031	18.03
619.224	18.02
619.417	17.97
619.609	17.97
619.802	17.96
619.994	17.94
620.187	17.91
620.38	17.94
620.572	17.89
620.765	17.88
620.957	17.83
621.15	17.77
621.342	17.81
621.535	17.81
621.727	17.72
621.92	17.68
622.112	17.67
622.305	17.65
622.497	17.59
622.69	17.54
622.882	17.52
623.074	17.54
623.267	17.52
623.459	17.49
623.651	17.46
623.844	17.55
624.036	17.55
624.228	17.51
624.42	17.48
624.613	17.47
624.805	17.45
624.997	17.44
625.189	17.42
625.381	17.34
625.574	17.3
625.766	17.26
625.958	17.3
626.15	17.3
626.342	17.29
626.534	17.21
626.726	17.23
626.918	17.18
627.11	17.12
627.302	17.07
627.494	17.03
627.686	17
627.878	16.94
628.07	16.9
628.262	16.91
628.454	16.96
628.646	16.9
628.838	16.88
629.029	16.78
629.221	16.76
629.413	16.7
629.605	16.69
629.797	16.65
629.989	16.65
630.18	16.56
630.372	16.59
630.564	16.6
630.755	16.56
630.947	16.49
631.139	16.41
631.33	16.36
631.522	16.33
631.714	16.3
631.905	16.25
632.097	16.26
632.289	16.27
632.48	16.28
632.672	16.21
632.863	16.2
633.055	16.18
633.246	16.21
633.438	16.13
633.629	16.12
633.821	16.13
634.012	16.13
634.203	16.18
634.395	16.2
634.586	16.1
634.777	16.09
634.969	16.05
635.16	16
635.351	16
635.543	15.97
635.734	15.89
635.925	15.95
636.117	15.98
636.308	15.96
636.499	15.95
636.69	15.98
636.881	15.95
637.073	16.01
637.264	16
637.455	16.02
637.646	16.02
637.837	15.98
638.028	16.01
638.219	15.98
638.41	15.97
638.601	15.9
638.792	15.85
638.983	15.81
639.174	15.83
639.365	15.75
639.556	15.76
639.747	15.72
639.938	15.76
640.129	15.72
640.32	15.73
640.511	15.71
640.701	15.68
640.892	15.63
641.083	15.59
641.274	15.55
641.465	15.51
641.655	15.46
641.846	15.42
642.037	15.39
642.228	15.4
642.418	15.38
642.609	15.36
642.8	15.29
642.99	15.32
643.181	15.3
643.372	15.31
643.562	15.25
643.753	15.23
643.943	15.19
644.134	15.24
644.324	15.21
644.515	15.19
644.705	15.2
644.896	15.17
645.086	15.11
645.277	15.16
645.467	15.12
645.658	15.09
645.848	15.09
646.038	15.01
646.229	15.05
646.419	15.06
646.61	15
646.8	15
646.99	14.96
647.18	14.94
647.371	14.97
647.561	14.91
647.751	14.84
647.941	14.82
648.132	14.82
648.322	14.84
648.512	14.84
648.702	14.8
648.892	14.82
649.082	14.84
649.272	14.79
649.462	14.75
649.653	14.67
649.843	14.56
650.033	14.53
650.223	14.49
650.413	14.52
650.603	14.52
650.793	14.49
650.983	14.51
651.172	14.53
651.362	14.5
651.552	14.47
651.742	14.41
651.932	14.37
652.122	14.36
652.312	14.21
652.502	14.21
652.691	14.21
652.881	14.19
653.071	14.13
653.261	14.09
653.45	14
653.64	14.06
653.83	13.98
654.019	13.81
654.209	13.72
654.399	13.65
654.588	13.54
654.778	13.5
654.968	13.41
655.157	13.32
655.347	13.26
655.536	13.11
655.726	12.98
655.915	12.88
656.105	12.79
656.294	12.66
656.484	12.54
656.673	12.48
656.863	12.38
657.052	12.23
657.241	12.1
657.431	11.93
657.62	11.72
657.809	11.58
657.999	11.44
658.188	11.36
658.377	11.34
658.567	11.23
658.756	11.11
658.945	11.03
659.134	10.89
659.324	10.76
659.513	10.57
659.702	10.4
659.891	10.29
660.08	10.19
660.269	10.15
660.458	10.01
660.648	9.88
660.837	9.8
661.026	9.67
661.215	9.58
661.404	9.43
661.593	9.2
661.782	9.09
661.971	8.97
662.16	8.85
662.349	8.74
662.538	8.66
662.726	8.57
662.915	8.52
663.104	8.41
663.293	8.35
663.482	8.21
663.671	8.12
663.86	8
664.048	7.92
664.237	7.87
664.426	7.89
664.615	7.79
664.803	7.69
664.992	7.66
665.181	7.59
665.369	7.51
665.558	7.44
665.747	7.38
665.935	7.37
666.124	7.42
666.312	7.31
666.501	7.26
666.69	7.23
666.878	7.17
667.067	7.12
667.255	7.05
667.444	7.01
667.632	7.01
667.82	6.95
668.009	6.92
668.197	6.88
668.386	6.84
668.574	6.83
668.762	6.77
668.951	6.76
669.139	6.8
669.327	6.82
669.516	6.9
669.704	6.83
669.892	6.84
670.08	6.85
670.269	6.83
670.457	6.81
670.645	6.84
670.833	6.81
671.021	6.87
671.21	6.91
671.398	6.98
671.586	7.02
671.774	7.06
671.962	7.08
672.15	7.06
672.338	7.12
672.526	7.1
672.714	7.07
672.902	7.08
673.09	7.13
673.278	7.16
673.466	7.28
673.654	7.29
673.842	7.34
674.03	7.44
674.218	7.5
674.405	7.55
674.593	7.6
674.781	7.64
674.969	7.71
675.157	7.75
675.344	7.79
675.532	7.9
675.72	7.9
675.908	7.91
676.095	7.99
676.283	8.02
676.471	8.1
676.658	8.12
676.846	8.14
677.033	8.22
677.221	8.37
677.409	8.38
677.596	8.51
677.784	8.56
677.971	8.7
678.159	8.79
678.346	8.83
678.534	8.87
678.721	8.98
678.909	9.03
679.096	9.12
679.283	9.16
679.471	9.28
679.658	9.43
679.846	9.56
680.033	9.64
680.22	9.73
680.408	9.84
680.595	9.88
680.782	9.96
680.969	10.01
681.157	10.03
681.344	10.16
681.531	10.25
681.718	10.36
681.905	10.52
682.093	10.59
682.28	10.79
682.467	10.99
682.654	11.03
682.841	11.15
683.028	11.31
683.215	11.51
683.402	11.66
683.589	11.78
683.776	11.86
683.963	12.08
684.15	12.27
684.337	12.4
684.524	12.54
684.711	12.72
684.898	12.88
685.085	13.07
685.271	13.27
685.458	13.49
685.645	13.75
685.832	14.01
686.019	14.31
686.205	14.58
686.392	14.84
686.579	15.13
686.766	15.46
686.952	15.85
687.139	16.09
687.326	16.46
687.512	16.81
687.699	17.18
687.886	17.5
688.072	17.9
688.259	18.19
688.445	18.57
688.632	18.93
688.818	19.29
689.005	19.79
689.191	20.31
689.378	20.7
689.564	21.14
689.751	21.78
689.937	22.21
690.124	22.77
690.31	23.24
690.496	23.67
690.683	24.27
690.869	24.79
691.055	25.29
691.242	25.84
691.428	26.36
691.614	26.93
691.8	27.49
691.987	28.03
692.173	28.66
692.359	29.15
692.545	29.8
692.731	30.46
692.918	31.03
693.104	31.56
693.29	32.13
693.476	32.78
693.662	33.37
693.848	33.82
694.034	34.26
694.22	34.87
694.406	35.44
694.592	35.96
694.778	36.49
694.964	37.05
695.15	37.67
695.336	38.53
695.522	39.07
695.708	39.82
695.894	40.47
696.08	40.97
696.265	41.57
696.451	42.11
696.637	42.44
696.823	42.98
697.009	43.47
697.194	43.98
697.38	44.43
697.566	44.96
697.751	45.64
697.937	46.26
698.123	46.73
698.308	47.1
698.494	47.6
698.68	48.27
698.865	48.87
699.051	49.2
699.236	49.55
699.422	50.15
699.607	50.66
699.793	50.98
699.978	51.33
700.164	51.8
700.349	52.25
700.535	52.71
700.72	53.03
700.906	53.54
701.091	53.98
701.276	54.42
701.462	54.71
701.647	55.06
701.832	55.35
702.018	55.62
702.203	55.84
702.388	56.14
702.573	56.57
702.759	56.79
702.944	57.2
703.129	57.59
703.314	58.14
703.499	58.56
703.684	58.98
703.87	59.24
704.055	59.65
704.24	59.96
704.425	60.47
704.61	60.59
704.795	60.85
704.98	61.12
705.165	61.35
705.35	61.58
705.535	61.91
705.72	61.97
705.905	62.29
706.09	62.45
706.275	62.58
706.459	63
706.644	63.27
706.829	63.46
707.014	63.77
707.199	64.02
707.384	64.38
707.568	64.73
707.753	64.94
707.938	65.24
708.123	65.24
708.307	65.49
708.492	65.43
708.677	65.65
708.861	65.81
709.046	65.58
709.231	65.7
709.415	65.97
709.6	65.86
709.784	66.21
709.969	66.39
710.153	66.63
710.338	66.95
710.522	67.04
710.707	66.9
710.891	67.16
711.076	67.12
711.26	67.21
711.445	67.19
711.629	67.47
711.813	67.62
711.998	68
712.182	68.29
712.366	68.55
712.551	68.65
712.735	68.7
712.919	68.87
713.103	69.06
713.288	69.37
713.472	69.1
713.656	69.02
713.84	69.02
714.024	69.32
714.208	69.28
714.393	69.37
714.577	69.32
714.761	69.86
714.945	70.13
715.129	70.38
715.313	70.54
715.497	70.61
715.681	70.71
715.865	70.88
716.049	70.74
716.233	70.83
716.417	71.01
716.601	70.9
716.785	71
716.968	71.09
717.152	71.06
717.336	71.07
717.52	71.21
717.704	71.33
717.888	71.46
718.071	71.63
718.255	71.51
718.439	71.44
718.622	71.88
718.806	71.84
718.99	71.98
719.174	72.13
719.357	72.21
719.541	72.71
719.724	73.02
719.908	72.89
720.092	73.03
720.275	72.97
720.459	72.91
720.642	72.87
720.826	72.61
721.009	72.51
721.193	72.53
721.376	72.53
721.559	72.62
721.743	72.93
721.926	72.65
722.11	72.74
722.293	72.48
722.476	72.44
722.66	72.67
722.843	72.77
723.026	72.52
723.21	72.87
723.393	73.18
723.576	73.62
723.759	74.22
723.942	74.29
724.126	74.38
724.309	74.66
724.492	74.89
724.675	74.99
724.858	75.28
725.041	75.08
725.224	75.33
725.407	75.15
725.59	75.46
725.774	75.5
725.957	75.59
726.14	75.48
726.322	75.38
726.505	75.63
726.688	75.74
726.871	75.92
727.054	76.24
727.237	75.84
727.42	76.4
727.603	76.48
727.786	76.46
727.968	76.54
728.151	76.55
728.334	76.51
728.517	76.83
728.699	76.57
728.882	77.1
729.065	76.85
729.248	76.89
729.43	76.51
729.613	76.85
729.796	76.92
729.978	77.38
730.161	77.43
730.343	77.63
730.526	77.89
730.708	78.61
730.891	78.57
731.073	78.49
731.256	78.19
731.438	78.33
731.621	78.7
731.803	79.04
731.986	78.62
732.168	78.42
732.35	78.67
732.533	78.66
732.715	78.76
732.898	78.54
733.08	78.63
733.262	79.1
733.444	79.05
733.627	79.03
733.809	79.25
733.991	79.34
734.173	79.39
734.355	79.53
734.538	79.32
734.72	79.86
734.902	80.02
735.084	80.14
735.266	79.77
735.448	79.89
735.63	79.62
735.812	79.72
735.994	79.32
736.176	79.46
736.358	79.54
736.54	79.54
736.722	79.34
736.904	79.43
737.086	79.65
737.268	80.15
737.45	80.25
737.632	79.81
737.814	80.01
737.995	80.73
738.177	80.85
738.359	80.86
738.541	80.38
738.723	80.51
738.904	81.05
739.086	81.45
739.268	81.47
739.449	81.38
739.631	81.46
739.813	81.26
739.994	81.63
740.176	81.44
740.358	81.27
740.539	81.19
740.721	81.07
740.902	81.09
741.084	81.66
741.265	81.39
741.447	81.48
741.628	81.19
741.81	81.03
741.991	81.82
742.172	81.82
742.354	81.89
742.535	82.03
742.717	81.84
742.898	81.94
743.079	81.91
743.261	81.4
743.442	81.07
743.623	80.75
743.804	80.45
743.986	80.39
744.167	80.66
744.348	81.2
744.529	81.23
744.71	81.5
744.891	81.95
745.073	81.58
745.254	82.61
745.435	82.01
745.616	81.5
745.797	80.99
745.978	81.21
746.159	81.32
746.34	82.1
746.521	82.01
746.702	82.22
746.883	82.52
747.064	82.87
747.245	82.46
747.426	82.31
747.606	81.44
747.787	81.18
747.968	81.85
748.149	81.4
748.33	81.57
748.51	81.82
748.691	82.35
748.872	82.62
749.053	82.46
749.233	82.06
749.414	82.26
749.595	82.51
749.775	82.27
749.956	81.38
750.137	81.2
750.317	81.02
750.498	80.93
750.678	81
750.859	80.63
751.04	80.83
751.22	80.54
751.4	81.51
751.581	81.59
751.761	82.17
751.942	82.12
752.122	82.07
752.303	82.58
752.483	83.1
752.663	82.95
752.844	82.69
753.024	82.47
753.204	81.78
753.385	81.77
753.565	80.6
753.745	80.66
753.925	80.18
754.106	80.39
754.286	80.16
754.466	80.77
754.646	80.69
754.826	81.27
755.006	80.83
755.187	81.13
755.367	80.6
755.547	80.91
755.727	80.43
755.907	80.99
756.087	80.93
756.267	81.09
756.447	80.67
756.627	81.1
756.807	81.28
756.987	82.09
757.167	81.93
757.346	81.51
757.526	81.9
757.706	81.88
757.886	81.54
758.066	80.9
758.246	80.68
758.425	80.69
758.605	80.73
758.785	80.76
758.965	80.22
759.144	80.7
759.324	81.41
759.504	81.35
759.683	80.24
759.863	80.34
760.043	80.16
760.222	79.52
760.402	80.08
760.581	79.27
760.761	78.58
760.94	78.84
761.12	79.06
761.299	78.75
761.479	79.98
761.658	78.52
761.838	78.77
762.017	78.93
762.197	79.39
762.376	79.47
762.555	79.49
762.735	78.61
762.914	79.14
763.093	77.94
763.273	78.64
763.452	77.84
763.631	77.19
763.81	77.84
763.99	77.96
764.169	78
764.348	79.42
764.527	78.4
764.706	79.52
764.885	80.49
765.064	80.12
765.243	80.39
765.423	81.14
765.602	80.53
765.781	81
765.96	80.42
766.139	79.08
766.318	79.07
766.497	79.73
766.676	79.37
766.854	79.18
767.033	79.06
767.212	78.51
767.391	79.11
767.57	78.45
767.749	78.13
767.928	77.19
768.106	77.46
768.285	77.66
768.464	78.98
768.643	79.05
768.821	79.67
769	79.55
769.179	78.93
769.357	78.17
769.536	77.91
769.715	77.15
769.893	76.75
770.072	75.52
770.25	75.15
770.429	76.44
770.607	76.95
770.786	77.15
770.964	76.44
771.143	76.63
771.321	76.47
771.5	76.24
771.678	76.26
771.857	76.19
772.035	76.1
772.213	77.45
772.392	77.75
772.57	78.6
772.748	78.3
772.927	77.9
773.105	77.96
773.283	77.44
773.461	75.75
773.64	75.25
773.818	74.81
773.996	75.14
774.174	75.09
774.352	75.29
774.531	74.13
774.709	74.88
774.887	74.42
775.065	74.47
775.243	75.63
775.421	75.65
775.599	74.1
775.777	75.07
775.955	74.57
776.133	74.64
776.311	75.05
776.489	74.39
776.667	73.4
776.844	74.83
777.022	75.03
777.2	75.45
777.378	76.15
777.556	76.89
777.734	76.87
777.911	78.15
778.089	77.16
778.267	76.36
778.445	76.86
778.622	75.67
778.8	74.55
778.978	74.58
779.155	72.61
779.333	71.86
779.511	73.28
779.688	71.48
779.866	71.66
780.043	71.58
780.221	71.41
780.398	73.78
780.576	74
780.753	71.36
780.931	72.88
781.108	73.95
781.286	73.03
781.463	72.76
781.64	72.88
781.818	73.43
781.995	76.83
782.172	76.4
782.35	75.42
782.527	77.7
782.704	77.73
782.882	76.27
783.059	76.99
783.236	75.36
783.413	75.56
783.59	75.12
783.768	74.55
783.945	74.31
784.122	74.53
784.299	73.4
784.476	73.6
784.653	72.17
784.83	71.63
785.007	71.23
785.184	71.32
785.361	70.31
785.538	71.17
785.715	70.41
785.892	70.24
786.069	69.71
786.246	67.81
786.423	68.24
786.6	69.11
786.776	68.82
786.953	68.5
787.13	69.54
787.307	71.74
787.484	73.95
787.66	73.11
787.837	73.94
788.014	73.83
788.191	75.01
788.367	74.97
788.544	75.42
788.721	74.87
788.897	76.4
789.074	74.35
789.25	75.64
789.427	75.18
789.603	76.92
789.78	77.14
789.956	76.66
790.133	74.5
790.309	76.51
790.486	77.92
790.662	78.72
790.839	78.32
791.015	76.58
791.192	76.25
791.368	78.1
791.544	75.8
791.721	72.32
791.897	72.9
792.073	70.3
792.249	72.08
792.426	73.25
792.602	70.54
792.778	72.47
792.954	72.43
793.13	72.72
793.307	72.98
793.483	72.15
793.659	72.26
793.835	73.6
794.011	72.5
794.187	72.22
794.363	70.8
794.539	70.05
794.715	68.77
794.891	66.7
795.067	67.17
795.243	68.48
795.419	69.77
795.595	67.6
795.771	68.94
795.947	69.31
796.122	70.79
796.298	70.74
796.474	71
796.65	68.59
796.826	74.85
797.001	74.24
797.177	73.94
797.353	76.11
797.529	76.6
797.704	75.07
797.88	75.56
798.056	73.68
798.231	75.37
798.407	77.72
798.582	76.83
798.758	77.66
798.934	77.4
799.109	77.37
799.285	77.33
799.46	77.07
799.636	73.87
799.811	71.22
799.986	70.14
800.162	70.15
800.337	72.47
800.513	69.17
800.688	71.16
800.863	73.13
801.039	70.98
801.214	69.56
801.389	68.94
801.565	69.68
801.74	69.97
801.915	68.04
802.09	64.35
802.265	67.62
802.441	69.45
802.616	69.45
802.791	69.47
802.966	70.95
803.141	66.49
803.316	70.05
803.491	64.26
803.666	62.47
803.841	64.03
804.016	64.16
804.191	63.85
804.366	68.51
804.541	64.24
804.716	64.36
804.891	67.07
805.066	66.71
805.241	62.41
805.416	58.87
805.591	58.6
805.765	61.88
805.94	69.11
806.115	66.15
806.29	63.56
806.464	64.09
806.639	63.86
806.814	60.85
806.989	59.52
807.163	57.66
807.338	60.08
807.512	58.2
807.687	57.97
807.862	59.47
808.036	61.16
808.211	64.9
808.385	63.16
808.56	61.4
808.734	64.65
808.909	63.19
809.083	63.64
809.258	66.72
809.432	62.72
809.606	63.37
809.781	63.23
809.955	65.4
810.13	70.26
810.304	70.5
810.478	70.03
810.652	75.8
810.827	74.08
811.001	73.39
811.175	67.75
811.349	66.39
811.524	67.91
811.698	66.94
811.872	66.43
812.046	67.23
812.22	67.23
812.394	71.14
812.568	73.41
812.742	70.88
812.916	74.2
813.09	67.12
813.264	67.65
813.438	70.51
813.612	65.76
813.786	71.37
813.96	71.99
814.134	67.37
814.308	71.15
814.482	72.44
814.656	71.13
814.83	74.64
815.003	68.53
815.177	71.66
815.351	73.91
815.525	73.2
815.698	70.39
815.872	71.17
816.046	68.54
816.219	69.33
816.393	62.77
816.567	60.2
816.74	60.01
816.914	61.32
817.088	59
817.261	63.55
817.435	60.58
817.608	65.5
817.782	66.1
817.955	66.33
818.129	68.17
818.302	71.33
818.475	70.64
818.649	69.28
818.822	67.77
818.996	65.68
819.169	65.35
819.342	64.88
819.516	60.16
819.689	56.72
819.862	58.84
820.035	56.15
820.209	49.56
820.382	46.8
820.555	45.35
820.728	43.86
820.901	49.2
821.075	49.81
821.248	51.33
821.421	59.5
821.594	64.08
821.767	67.89
821.94	66.02
822.113	64.55
822.286	65.29
822.459	75.68
822.632	76.34
822.805	71.58
822.978	64.87
823.151	71.26
823.324	66.69
823.496	56.38
823.669	51.7
823.842	49.29
824.015	47.9
824.188	54.7
824.361	49.02
824.533	56.34
824.706	72.41
824.879	65.21
825.051	67.53
825.224	66.8
825.397	54.68
825.569	64.03
825.742	56.8
825.915	55.23
826.087	50.61
826.26	48.93
826.432	54.08
826.605	54.78
826.777	48.36
826.95	49.28
827.122	47.19
827.295	52.75
827.467	47.41
827.64	38.55
827.812	44.86
827.984	47.73
828.157	49.15
828.329	53.33
828.501	54.34
828.674	62.61
828.846	68.22
829.018	59.87
829.19	55.87
829.363	60.39
829.535	61.45
829.707	54.2
829.879	52.82
830.051	53.42
830.223	51.45
830.395	50.47
830.568	54.85
830.74	49.76
830.912	54.76
831.084	46.27
831.256	47.58
831.428	57.56
831.6	55.11
831.772	49.66
831.943	51.96
832.115	53.9
832.287	62.63
832.459	60.65
832.631	59.23
832.803	67.58
832.975	66.15
833.146	56.53
833.318	56.02
833.49	60.99
833.662	60.19
833.833	63.07
834.005	59.84
834.177	61.45
834.348	61.89
834.52	52.59
834.692	50.3
834.863	49.86
835.035	45.29
835.206	45.97
835.378	48.61
835.549	60.32
835.721	64.93
835.892	64.95
836.064	65.36
836.235	70.26
836.407	65.89
836.578	65.98
836.749	68.27
836.921	71.86
837.092	76.03
837.264	77.79
837.435	64.96
837.606	71.86
837.777	66.85
837.949	51.64
838.12	42.39
838.291	38.22
838.462	42.53
838.633	38.78
838.805	35.53
838.976	34.54
839.147	35.11
839.318	33.94
839.489	27.36
839.66	20.96
839.831	18.64
840.002	8.77
840.173	3.32
840.344	15.23
840.515	24.26
840.686	35.68
840.857	34.39
841.028	35.63
841.199	52.56
841.369	51.55
841.54	53.29
841.711	60.7
841.882	42.03
842.053	41.16
842.223	56.38
842.394	39.94
842.565	51.74
842.736	38.16
842.906	36.48
843.077	60.91
843.248	69.65
843.418	71.41
843.589	76.8
843.759	65.59
843.93	74.8
844.101	69.19
844.271	61.4
844.442	61.41
844.612	53.94
844.783	35.52
844.953	35.69
845.123	34.47
845.294	26.93
845.464	36.64
845.635	37.1
845.805	38.7
845.975	42.36
846.146	38.51
846.316	49.54
846.486	57.99
846.656	76.82
846.827	65.64
846.997	74.23
847.167	75.22
847.337	83.66
847.507	81.21
847.677	81.21
847.848	65.49
848.018	56.23
848.188	53
848.358	59.88
848.528	60.9
848.698	27.84
848.868	20.04
849.038	20.4
849.208	37.26
849.378	39.64
849.548	42.08
849.718	31.09
849.887	34.42
850.057	47.73
850.227	48.06
850.397	44.86
850.567	50.54
850.737	39.28
850.906	49.98
851.076	54.17
851.246	60.59
851.415	73.87
851.585	74.28
851.755	73.62
851.924	89.9
852.094	79.18
852.264	76.09
852.433	78.84
852.603	89.97
852.772	84.86
852.942	69.84
853.111	55.74
853.281	56.68
853.45	62.03
853.62	47.55
853.789	35.97
853.959	38.59
854.128	35.12
854.297	40.22
854.467	51.63
854.636	40.38
854.805	44.46
854.975	44.96
855.144	57.51
855.313	71.56
855.482	68.55
855.652	60.31
855.821	54.6
855.99	57.32
856.159	45.13
856.328	27.03
856.497	17.84
856.667	22.54
856.836	24.28
857.005	35.57
857.174	41.15
857.343	46.61
857.512	36.81
857.681	35.94
857.85	37.44
858.019	39.02
858.188	31.19
858.356	2.75
858.525	-4.42
858.694	9.93
858.863	30.47
859.032	20.3
859.201	-4.8
859.369	14.24
859.538	14.44
859.707	25.7
859.876	35.08
860.044	27.33
860.213	23.72
860.382	35.52
860.55	54.02
860.719	70.27
860.888	69.19
861.056	72.27
861.225	59.17
861.393	91.66
861.562	75.38
861.73	47.92
861.899	29.13
862.067	42.64
862.236	41.8
862.404	43.85
862.572	20.37
862.741	25.68
862.909	23.29
863.078	19.17
863.246	11.5
863.414	-0.42
863.582	-13.41
863.751	0.88
863.919	25.45
864.087	25.67
864.255	31.83
864.424	23.82
864.592	19.84
864.76	43.88
864.928	38.6
865.096	29.41
865.264	36.77
865.432	32.72
865.6	24.39
865.768	11.95
865.936	-17.21
866.104	-24.13
866.272	-29.41
866.44	-71.19
866.608	-77.71
866.776	-37.08
866.944	-20.53
867.112	-19.58
867.28	-17.6
867.448	0.48
867.615	38.18
867.783	26.39
867.951	31.27
868.119	63.86
868.286	77.54
868.454	61.72
868.622	71.1
868.789	63.87
868.957	88.43
869.125	81.63
869.292	75.84
869.46	67.89
869.627	73.47
869.795	52.64
869.963	53.26
870.13	54.36
870.298	50.6
870.465	5.31
870.632	-1.72
870.8	-6.06
870.967	11.07
871.135	12.72
871.302	12.6
871.469	11.23
871.637	22.24
871.804	32.26
871.971	34.4
872.139	44.44
872.306	35.29
872.473	18.46
872.64	30.36
872.807	37.28
872.975	31.68
873.142	15.22
873.309	-6.56
873.476	15.01
873.643	57.03
873.81	-10.98
873.977	-39.54
874.144	-19.29
874.311	8.93
874.478	-48.07
874.645	-56.7
874.812	-21.25
874.979	-21.91
875.146	-36.48
875.313	-72.76
875.48	-19.46
875.647	2.1
875.813	-44.54
875.98	-64.45
876.147	10.23
876.314	15.1
876.481	-2.33
876.647	0.44
876.814	21.1
876.981	30.02
877.147	23.36
877.314	-1.12
877.481	16.26
877.647	26.74
877.814	30.4
877.98	23.91
878.147	43.52
878.314	42.54
878.48	46.57
878.647	65.23
878.813	51.21
878.979	42.46
879.146	26.9
879.312	12.3
879.479	17.3
879.645	-4.1
879.811	-22.56
879.978	7.11
880.144	8.44
880.31	2.92
880.477	-14.63
880.643	-17.96
880.809	117
880.975	39.25
881.142	10.88
881.308	35.37
881.474	87.74
881.64	65.46
881.806	76.45
881.972	69.23
882.138	99.56
882.304	79.51
882.47	26.77
882.636	-43.92
882.802	-49.8
882.968	-191.7
883.134	-340.34
883.3	-148.22
883.466	-27.53
883.632	-43.17
883.798	-16.85
883.964	7.48
884.129	47.84
884.295	34.43
884.461	18.88
884.627	-17.59
884.793	15.16
884.958	20.06
885.124	-18.01
885.29	-17.13
885.455	-5.23
885.621	10.78
885.787	17.34
885.952	26.46
886.118	29.83
886.283	38.39
886.449	29.45
886.614	54.96
886.78	76.19
886.945	53.11
887.111	57.32
887.276	52.33
887.442	54.28
887.607	62.98
887.773	35.93
887.938	0.52
888.103	44.58
888.269	32.01
888.434	38.25
888.599	51.2
888.764	48.14
888.93	58.47
889.095	35.09
889.26	47.97
889.425	64
889.59	43.05
889.756	11.39
889.921	-1.67
890.086	-24.92
890.251	5.47
890.416	-77.57
890.581	-60.33
890.746	-65.28
890.911	-89.26
891.076	-123.81
891.241	-130.14
891.406	-59.61
891.571	-25.48
891.736	-44.29
891.901	-9.23
892.065	10.99
892.23	9.01
892.395	-12.78
892.56	-13.56
892.725	-21.86
892.889	-50.67
893.054	-121.76
893.219	-181.08
893.384	-268.1
893.548	-571.67
893.713	998.51
893.878	471.74
