Data from Ofra_PS_T2_2A_0GT03_Reflection_3.txt Node
Date: Wed Jul 21 16:51:53 EDT 2021
User: Adam
Spectrometer: FLMT01687
Trigger mode: 0
Integration Time (sec): 1.100000E0
Scans to average: 2
Electric dark correction enabled: true
Nonlinearity correction enabled: false
Boxcar width: 2
XAxis mode: Wavelengths
Number of Pixels in Spectrum: 3648
>>>>>Begin Spectral Data<<<<<
179.494	357.4
179.716	411.29
179.937	369.91
180.158	343.94
180.38	580.47
180.601	302.62
180.823	77.94
181.044	26.42
181.265	228.49
181.486	70.44
181.708	74.54
181.929	664.8
182.15	-234.86
182.372	79.48
182.593	87.2
182.814	47.72
183.035	79
183.257	46.77
183.478	-19.52
183.699	4.37
183.92	-18.98
184.141	-1.78
184.363	-1.18
184.584	47.35
184.805	23.54
185.026	63.19
185.247	47.37
185.468	22.42
185.689	9.27
185.91	16.74
186.132	1.49
186.353	-6
186.574	15.47
186.795	36.06
187.016	18.34
187.237	14.7
187.458	-4.72
187.679	-19.02
187.9	-28.33
188.121	-36.58
188.342	-44.02
188.563	10.37
188.784	7.1
189.005	-25.9
189.226	16.73
189.447	1.64
189.667	-166.87
189.888	-225.49
190.109	-337.34
190.33	-239.19
190.551	-625.44
190.772	-173.31
190.993	-133.59
191.214	-151.69
191.434	-147.07
191.655	-70.52
191.876	-71.18
192.097	-106.25
192.318	-145.44
192.538	-163.27
192.759	-121.63
192.98	-64.16
193.201	-17.18
193.421	-1.32
193.642	16.97
193.863	22.17
194.083	-0.7
194.304	-13.91
194.525	-14.36
194.745	-35.62
194.966	-52.78
195.187	-45.68
195.407	-77.84
195.628	-123.01
195.848	-122.76
196.069	-144.71
196.29	-111.23
196.51	-109.65
196.731	-88.25
196.951	-101.07
197.172	-88.23
197.392	-84.62
197.613	-61.81
197.833	-79.43
198.054	-64.93
198.274	-25.04
198.495	-43.1
198.715	-17.77
198.936	-35.18
199.156	-33.79
199.377	-90.87
199.597	-91.49
199.817	-103.42
200.038	-44.37
200.258	-68.58
200.479	-32.81
200.699	-24.16
200.919	33.8
201.14	28.2
201.36	19.48
201.58	43.94
201.801	61.91
202.021	37.67
202.241	15.32
202.461	11.07
202.682	-61.63
202.902	-113.53
203.122	-73.61
203.342	-23.92
203.563	-11.52
203.783	-4.64
204.003	-41
204.223	-54.88
204.443	-20.75
204.663	-45.84
204.884	-19.29
205.104	-3.55
205.324	0.13
205.544	-1.14
205.764	31.6
205.984	32.39
206.204	36.3
206.424	43.56
206.644	18.58
206.864	23.88
207.084	1.08
207.304	26.75
207.525	-37.11
207.745	42.45
207.964	35.01
208.184	24.45
208.404	-16.22
208.624	-17.88
208.844	-20.27
209.064	-181.51
209.284	-258.48
209.504	-139.92
209.724	-40.82
209.944	-45.26
210.164	-8.06
210.384	4.69
210.604	4.62
210.823	-29.42
211.043	-36.89
211.263	-35.22
211.483	-22.34
211.703	-55.33
211.922	-52.96
212.142	-5.95
212.362	-1.68
212.582	-16.36
212.801	-17.94
213.021	-10.17
213.241	-10.83
213.461	-48.2
213.68	-46.65
213.9	-43.92
214.12	-43.37
214.339	-97.37
214.559	-82.23
214.779	-38.6
214.998	-14.27
215.218	-30.17
215.438	1.61
215.657	-3.21
215.877	-24.49
216.096	-20.19
216.316	-4.02
216.535	-33.65
216.755	-26.29
216.974	-76.45
217.194	-137.52
217.413	-163.76
217.633	-124.8
217.852	-204.75
218.072	-93.42
218.291	-31.07
218.511	0.92
218.73	-28.38
218.95	-15.68
219.169	-18.28
219.389	-56.17
219.608	-40.5
219.827	-32.01
220.047	-41.64
220.266	-43.44
220.485	-33.87
220.705	-33.19
220.924	-37.85
221.143	1.59
221.363	-13.29
221.582	-1.29
221.801	-2.21
222.021	27.66
222.24	-11.56
222.459	57.53
222.678	15.25
222.897	6.84
223.117	-33.52
223.336	-30.18
223.555	-32.15
223.774	16.54
223.993	-20.1
224.213	7.99
224.432	15.9
224.651	36.45
224.87	13.96
225.089	34.28
225.308	31.44
225.527	43.03
225.746	41.06
225.965	38.48
226.184	12.37
226.404	8.2
226.623	-14.46
226.842	-16.15
227.061	-0.53
227.28	16.46
227.499	21.58
227.718	28.69
227.936	24.4
228.155	40.76
228.374	32.87
228.593	33.59
228.812	22.11
229.031	8.86
229.25	-40.12
229.469	-48.72
229.688	-93.96
229.907	-41.26
230.125	-25.5
230.344	-15.09
230.563	-15.63
230.782	11.81
231.001	-58.69
231.22	-47.03
231.438	-22.81
231.657	-5.94
231.876	-25.95
232.095	15.96
232.313	23.16
232.532	18.62
232.751	-7
232.969	-9.41
233.188	-46.87
233.407	3.98
233.625	9.83
233.844	8.56
234.063	12.49
234.281	39.65
234.5	28.53
234.719	19.56
234.937	26.34
235.156	33.42
235.374	13.46
235.593	-10.37
235.811	-32.46
236.03	-36.77
236.249	-68
236.467	-48.91
236.686	-15.06
236.904	0.2
237.123	-14.01
237.341	-26.31
237.559	-15.84
237.778	-31.07
237.996	-52.55
238.215	-7.94
238.433	6.73
238.652	-11.61
238.87	-23.13
239.088	-17.15
239.307	-38.87
239.525	-59.3
239.743	-62.43
239.962	-59.89
240.18	-61.99
240.398	-83.15
240.617	-65.41
240.835	-31.1
241.053	-26.19
241.271	-2.29
241.49	25.54
241.708	5.73
241.926	-41.05
242.144	-22.19
242.363	-52.65
242.581	-83.4
242.799	-22.61
243.017	-10.95
243.235	-22.22
243.453	-9.43
243.672	1.3
243.89	-12.14
244.108	-19.38
244.326	-3.16
244.544	6.39
244.762	-2.29
244.98	8.21
245.198	26.04
245.416	17.63
245.634	-6.17
245.852	-21.26
246.07	-43.97
246.288	-78.85
246.506	-100.6
246.724	-81.16
246.942	-63.93
247.16	-25.98
247.378	5.65
247.596	22.6
247.814	28.53
248.032	20.02
248.25	24.89
248.468	15.54
248.685	25.37
248.903	37.38
249.121	30.29
249.339	11.69
249.557	-2.71
249.775	-5.09
249.992	-53.08
250.21	-33.01
250.428	-19.67
250.646	-24.57
250.863	-42.22
251.081	-8.96
251.299	-7.47
251.517	13.33
251.734	3.07
251.952	12.04
252.17	1.07
252.387	6.14
252.605	-12.94
252.823	-5.47
253.04	8.45
253.258	12.49
253.475	-2.58
253.693	28.65
253.911	27.62
254.128	25.46
254.346	16.93
254.563	21.19
254.781	-7.21
254.998	-4.06
255.216	-11.42
255.433	-0.38
255.651	11.58
255.868	0.12
256.086	0.33
256.303	13.67
256.521	4.99
256.738	-9.53
256.956	-25.41
257.173	-52.95
257.39	-81.65
257.608	-104.37
257.825	-57.45
258.043	0.58
258.26	29.8
258.477	46.54
258.695	42.99
258.912	17.16
259.129	5.1
259.346	-12.62
259.564	-42.62
259.781	-58.15
259.998	-13.83
260.216	-1.05
260.433	13.67
260.65	17.68
260.867	48.35
261.084	20.49
261.302	-5.95
261.519	-20.54
261.736	-22.7
261.953	-47.97
262.17	-18.97
262.387	-28.45
262.604	-46.19
262.822	-43.34
263.039	-38.59
263.256	-74.16
263.473	-26.16
263.69	-0.74
263.907	17.51
264.124	21.76
264.341	10.22
264.558	-17.91
264.775	-21.71
264.992	-29.2
265.209	-15.82
265.426	1.4
265.643	14.45
265.86	20.54
266.077	20.22
266.294	0.82
266.51	-13.44
266.727	-11.5
266.944	-20.87
267.161	-34.86
267.378	-53.19
267.595	-29.4
267.812	-61.22
268.028	-86.57
268.245	-64.81
268.462	-39.37
268.679	-39.9
268.896	6.64
269.112	14.08
269.329	-1.95
269.546	-1.02
269.763	-10.38
269.979	-26.68
270.196	-25.16
270.413	-46.01
270.629	-62.83
270.846	-57.33
271.063	-57.95
271.279	-58.96
271.496	-57
271.712	-21.77
271.929	-18.79
272.146	-21.72
272.362	-21.43
272.579	3.6
272.795	11.16
273.012	24.78
273.228	25.68
273.445	3.39
273.661	0.41
273.878	-28.92
274.094	-36.46
274.311	-53.09
274.527	-5.7
274.744	1.03
274.96	4.26
275.177	9.15
275.393	19.37
275.609	26.91
275.826	35.16
276.042	24.4
276.259	29.32
276.475	47.38
276.691	19.03
276.908	-1.34
277.124	9.81
277.34	-5.3
277.557	-36.71
277.773	-17.16
277.989	-15.62
278.205	-20.83
278.422	-7.55
278.638	-11.28
278.854	-4.38
279.07	-19.81
279.286	-20.24
279.503	-39.63
279.719	-33.57
279.935	-50.72
280.151	-40.27
280.367	-25.24
280.583	-47.08
280.799	-38.91
281.016	-60.98
281.232	-31.12
281.448	-31.38
281.664	3.85
281.88	-18.89
282.096	4.59
282.312	16.36
282.528	25.49
282.744	19.2
282.96	25.05
283.176	24.54
283.392	11.88
283.608	3.11
283.824	7.11
284.04	9.67
284.256	11
284.471	2.72
284.687	2.23
284.903	1.22
285.119	18.92
285.335	6.93
285.551	9.05
285.767	8.75
285.982	-0.93
286.198	-39.1
286.414	-6.99
286.63	-4.43
286.846	12.11
287.061	-6.99
287.277	22.97
287.493	-2.83
287.709	13.03
287.924	0.24
288.14	38.22
288.356	37.66
288.571	46.31
288.787	32.63
289.003	22.55
289.218	-0.97
289.434	-29.56
289.65	-27.61
289.865	-24.98
290.081	-6.55
290.296	-4.85
290.512	-4.99
290.727	-19.81
290.943	-23.78
291.159	-15.74
291.374	-16.17
291.59	-16.42
291.805	-8.89
292.021	0.07
292.236	-16.6
292.451	-8.34
292.667	0.34
292.882	6.6
293.098	-2.36
293.313	-18.94
293.529	-36.53
293.744	-36.79
293.959	-46.37
294.175	-41.72
294.39	-5.19
294.605	7.88
294.821	9.12
295.036	8.65
295.251	0.65
295.467	-11.93
295.682	-13.85
295.897	-12.05
296.112	-17.54
296.328	-3.66
296.543	-34.69
296.758	-50.06
296.973	-29.04
297.188	4.09
297.404	-15.61
297.619	-7.77
297.834	-17.44
298.049	-18.72
298.264	-27.42
298.479	6.98
298.694	11.68
298.909	30.28
299.125	16.02
299.34	21.92
299.555	-15.52
299.77	-20.63
299.985	-47.73
300.2	-83.57
300.415	-103.71
300.63	-69.91
300.845	-62.1
301.06	-68.64
301.275	-33.34
301.49	-16.41
301.704	-25.72
301.919	-36.83
302.134	-31.34
302.349	-38.42
302.564	-95.49
302.779	-113.54
302.994	-106.07
303.209	-80.76
303.423	-59.23
303.638	11.66
303.853	6.25
304.068	2.67
304.283	7.84
304.497	13.6
304.712	2.44
304.927	3.56
305.142	-5.72
305.356	2.23
305.571	-2.85
305.786	-12.89
306	-20.86
306.215	1.2
306.43	-16.78
306.644	-15.57
306.859	17.32
307.074	38.16
307.288	-18.64
307.503	-42.28
307.717	-32.77
307.932	-45.52
308.147	-56.35
308.361	-14.74
308.576	-2.08
308.79	-39.52
309.005	-31.73
309.219	-19.75
309.434	-37.14
309.648	-35.06
309.863	-3.55
310.077	12.05
310.292	19.91
310.506	13.21
310.72	14.44
310.935	12.75
311.149	7.63
311.364	3.65
311.578	13.83
311.792	8.56
312.007	6.74
312.221	-3.86
312.435	-4.79
312.649	-12.45
312.864	-12.55
313.078	-1.04
313.292	36.41
313.507	26.53
313.721	35.58
313.935	23.6
314.149	14.65
314.363	8.53
314.578	12.3
314.792	5.62
315.006	1.36
315.22	10.69
315.434	6.03
315.648	9.46
315.862	25
316.077	26.05
316.291	9.48
316.505	0.1
316.719	-18.39
316.933	-27.33
317.147	-46.4
317.361	-71.16
317.575	-81.45
317.789	-103.06
318.003	-167.23
318.217	-128.48
318.431	-43.26
318.645	-4.19
318.859	9.34
319.073	22.08
319.287	22.13
319.5	0.07
319.714	-29.27
319.928	-55.3
320.142	-70.05
320.356	-51.67
320.57	-14.19
320.784	-8.26
320.997	-7.01
321.211	-11.44
321.425	-26.4
321.639	-56.9
321.853	-21.85
322.066	-13.4
322.28	-12.89
322.494	-16.75
322.707	-9.12
322.921	-18.79
323.135	-22.27
323.349	-18.36
323.562	-15.82
323.776	-19.43
323.989	-19.74
324.203	-31.62
324.417	-35.64
324.63	-65.72
324.844	-63.16
325.057	-58.74
325.271	-33.66
325.485	3.64
325.698	34.62
325.912	39.82
326.125	26.35
326.339	23.37
326.552	-13.62
326.766	-33.73
326.979	-27.4
327.193	2.19
327.406	-9.45
327.619	-0.38
327.833	15.89
328.046	1.61
328.26	-25.56
328.473	-3.92
328.686	-6.38
328.9	-24.01
329.113	-11.32
329.326	-38.89
329.54	-27.84
329.753	-51.77
329.966	-58.2
330.179	-49.12
330.393	-11.23
330.606	-11.18
330.819	9
331.032	23.43
331.246	24.59
331.459	40.89
331.672	29.63
331.885	18.73
332.098	2.5
332.311	-9.62
332.525	-50.06
332.738	-30.53
332.951	-7.98
333.164	15.52
333.377	25.48
333.59	38.9
333.803	29.97
334.016	32.42
334.229	13.6
334.442	-1.08
334.655	14.63
334.868	14.26
335.081	13.97
335.294	4.8
335.507	1.06
335.72	-5.47
335.933	-6.93
336.146	-17.04
336.359	-10.12
336.572	-26.56
336.785	-56.86
336.997	-42.44
337.21	-27.77
337.423	-24.51
337.636	-17.86
337.849	-0.43
338.062	-18.61
338.274	-29.19
338.487	-29.58
338.7	-37.16
338.913	-60.35
339.125	-66.34
339.338	-107.52
339.551	-107.61
339.763	-63.54
339.976	-41.31
340.189	-30.28
340.402	-15.11
340.614	-13.23
340.827	-7.45
341.039	-18.01
341.252	1.95
341.465	8.53
341.677	5.94
341.89	-30.33
342.102	-4.97
342.315	-27.04
342.527	-49.7
342.74	-44.84
342.952	-18.99
343.165	-38.3
343.377	-25.37
343.59	-28.42
343.802	-22.18
344.015	-35.86
344.227	-33.84
344.44	-29.62
344.652	-16.66
344.864	-11.12
345.077	23.47
345.289	28.55
345.502	31.14
345.714	28.44
345.926	27.07
346.139	15.42
346.351	11.4
346.563	8.55
346.775	4.29
346.988	-10.6
347.2	-40.4
347.412	-63.58
347.624	-91.59
347.837	-90.51
348.049	-62.66
348.261	-23.7
348.473	-17.62
348.685	10.11
348.897	8.11
349.11	-15.52
349.322	-42.56
349.534	-43.97
349.746	-47.65
349.958	-47.5
350.17	-37.38
350.382	4.05
350.594	-1.66
350.806	1.13
351.018	1.78
351.23	-15.65
351.442	-55.77
351.654	-39.44
351.866	-45.64
352.078	-36.6
352.29	-11.18
352.502	0.89
352.714	4.28
352.926	-4.03
353.138	-7.78
353.35	-13.58
353.561	-8.14
353.773	-24.86
353.985	-10.46
354.197	-16.28
354.409	-16.03
354.621	-27.47
354.832	-13.5
355.044	-12.5
355.256	-14.85
355.468	-1.42
355.679	2.2
355.891	15.99
356.103	-6.24
356.314	15.35
356.526	14.03
356.738	12.72
356.949	-18.75
357.161	16.25
357.373	-4.61
357.584	-20.76
357.796	-18.87
358.008	-15.22
358.219	-18.6
358.431	-16.8
358.642	-5.83
358.854	-0.22
359.065	-14.34
359.277	-38.79
359.488	-28.76
359.7	-39.64
359.911	-50.61
360.123	-19.54
360.334	-31.98
360.546	-52.99
360.757	-52.21
360.969	-42.3
361.18	-50.69
361.391	-24.21
361.603	-28.49
361.814	-29.67
362.025	-25.16
362.237	-31.12
362.448	-15.66
362.659	1.5
362.871	0.47
363.082	-7.35
363.293	-13.22
363.504	-30.1
363.716	-47.81
363.927	-44.1
364.138	-54.4
364.349	-44.25
364.56	-29.95
364.772	-25.51
364.983	-7.32
365.194	-4.51
365.405	-0.18
365.616	2.41
365.827	12.58
366.038	-12.77
366.25	-17.67
366.461	-37.7
366.672	-14.44
366.883	-6.53
367.094	1.09
367.305	4.53
367.516	9.77
367.727	-5.14
367.938	-17.4
368.149	-16.59
368.36	-12.04
368.571	-7.87
368.781	-23.22
368.992	-31.93
369.203	-49.2
369.414	-66.52
369.625	-83.67
369.836	-74.58
370.047	-99.42
370.258	-82.76
370.468	-73.19
370.679	-74.24
370.89	-66.78
371.101	-40.07
371.312	-35.46
371.522	-30.59
371.733	-5.84
371.944	2.47
372.155	9.13
372.365	9.89
372.576	12.28
372.787	6.13
372.997	-4.27
373.208	-14.29
373.419	-0.36
373.629	-33.44
373.84	-49.16
374.05	-55.89
374.261	-48.61
374.472	-63.4
374.682	-16.35
374.893	-8.49
375.103	15.31
375.314	7.68
375.524	-1.56
375.735	-1.46
375.945	7.47
376.156	-7.81
376.366	-0.98
376.577	5.87
376.787	2.95
376.997	0.93
377.208	-5.38
377.418	-16.43
377.629	-6.81
377.839	-5.08
378.049	-7.57
378.26	6.2
378.47	17.47
378.68	8.4
378.89	1.86
379.101	-3.95
379.311	-25.38
379.521	-51.97
379.732	-49.17
379.942	-48.35
380.152	-51.24
380.362	-22.9
380.572	-16.96
380.783	-12.09
380.993	0.38
381.203	11.05
381.413	12.2
381.623	14.93
381.833	22.09
382.043	11.32
382.253	4.74
382.463	8.44
382.674	1.35
382.884	-21.81
383.094	-9.83
383.304	-2.17
383.514	-3.42
383.724	2.86
383.934	3.4
384.144	-10.32
384.353	-20.62
384.563	-22.83
384.773	-17.87
384.983	-17.56
385.193	-2.99
385.403	-0.2
385.613	2.99
385.823	-1.15
386.033	4.38
386.242	-1.31
386.452	-0.4
386.662	-5.43
386.872	8.97
387.082	6.54
387.291	0.7
387.501	-10.6
387.711	-6.77
387.921	-16.32
388.13	-12.62
388.34	-5.58
388.55	-3.14
388.759	-4.39
388.969	-3.22
389.179	-3.99
389.388	-1.55
389.598	5.23
389.807	0.55
390.017	-2.34
390.227	-1.81
390.436	-3.9
390.646	-3.34
390.855	2.09
391.065	1.8
391.274	2.71
391.484	0.22
391.693	0.7
391.903	-1
392.112	3.91
392.322	2.53
392.531	5.98
392.74	4.13
392.95	2.23
393.159	0.16
393.369	0.12
393.578	0.64
393.787	0.51
393.997	1.63
394.206	0.47
394.415	1.76
394.625	1.77
394.834	1.62
395.043	2.53
395.252	4.06
395.462	5.09
395.671	4.79
395.88	5.57
396.089	5.99
396.298	4.69
396.508	2.96
396.717	2.84
396.926	2.95
397.135	2.1
397.344	2.41
397.553	3.6
397.762	4.11
397.971	3.91
398.181	4.15
398.39	3.94
398.599	3.29
398.808	3.5
399.017	4.32
399.226	5.22
399.435	6.37
399.644	6.78
399.853	5.98
400.062	5.46
400.27	4.96
400.479	4.35
400.688	3.98
400.897	4.13
401.106	4.31
401.315	4.42
401.524	4.75
401.733	5.01
401.941	5.29
402.15	5.18
402.359	5.06
402.568	5.11
402.777	5.28
402.985	5.33
403.194	5.34
403.403	5.44
403.612	5.01
403.82	4.73
404.029	4.7
404.238	4.74
404.446	4.92
404.655	4.79
404.864	4.79
405.072	4.71
405.281	4.6
405.489	4.35
405.698	4.44
405.906	4.5
406.115	4.33
406.324	4.39
406.532	4.37
406.741	4.64
406.949	4.68
407.158	4.83
407.366	4.84
407.574	4.83
407.783	4.77
407.991	4.6
408.2	4.56
408.408	4.51
408.617	4.52
408.825	4.37
409.033	4.5
409.242	4.61
409.45	4.74
409.658	4.67
409.867	4.67
410.075	4.52
410.283	4.34
410.491	4.22
410.7	4.18
410.908	4.17
411.116	4.47
411.324	4.51
411.533	4.34
411.741	4.4
411.949	4.4
412.157	4.11
412.365	4.17
412.573	4.29
412.781	4.36
412.99	4.31
413.198	4.47
413.406	4.42
413.614	4.4
413.822	4.36
414.03	4.4
414.238	4.17
414.446	4.16
414.654	4.11
414.862	4.05
415.07	4
415.278	4.26
415.486	4.16
415.694	4.26
415.902	4.15
416.109	4.13
416.317	3.86
416.525	3.77
416.733	3.72
416.941	3.81
417.149	3.85
417.357	4.03
417.564	4.13
417.772	4.18
417.98	4.04
418.188	4
418.395	3.92
418.603	3.99
418.811	3.69
419.019	3.87
419.226	3.92
419.434	4.08
419.642	3.91
419.849	4.19
420.057	4.01
420.265	4.11
420.472	3.8
420.68	3.87
420.887	3.85
421.095	4.03
421.302	4
421.51	4.17
421.717	4.35
421.925	4.27
422.132	4.12
422.34	3.76
422.547	3.78
422.755	3.51
422.962	3.43
423.17	3.41
423.377	3.51
423.585	3.63
423.792	3.56
423.999	3.6
424.207	3.57
424.414	3.76
424.621	3.53
424.829	3.59
425.036	3.57
425.243	3.74
425.451	3.54
425.658	3.55
425.865	3.61
426.072	3.62
426.28	3.71
426.487	3.98
426.694	3.86
426.901	3.76
427.108	3.79
427.315	3.7
427.523	3.73
427.73	3.85
427.937	4.09
428.144	3.99
428.351	3.86
428.558	3.74
428.765	3.64
428.972	3.47
429.179	3.49
429.386	3.75
429.593	3.66
429.8	3.69
430.007	3.87
430.214	3.96
430.421	3.85
430.628	3.79
430.835	3.68
431.042	3.69
431.249	3.78
431.456	3.76
431.662	3.94
431.869	4.17
432.076	4.09
432.283	4.17
432.49	4.14
432.697	4.2
432.903	4.06
433.11	4.16
433.317	4.19
433.524	4.37
433.73	4.21
433.937	4.34
434.144	4.26
434.35	4.17
434.557	3.98
434.764	4.22
434.97	4.24
435.177	4.47
435.384	4.46
435.59	4.52
435.797	4.6
436.003	4.55
436.21	4.44
436.416	4.42
436.623	4.48
436.829	4.47
437.036	4.58
437.242	4.57
437.449	4.69
437.655	4.82
437.862	4.77
438.068	4.72
438.275	4.8
438.481	4.93
438.687	4.79
438.894	4.76
439.1	4.83
439.307	4.95
439.513	4.78
439.719	4.8
439.926	4.97
440.132	4.89
440.338	4.8
440.544	4.91
440.751	5
440.957	5.05
441.163	5.11
441.369	5.16
441.575	5.13
441.782	5.14
441.988	5.03
442.194	5.07
442.4	5
442.606	5.2
442.812	5.25
443.018	5.16
443.224	5.17
443.431	5.24
443.637	5.09
443.843	5.07
444.049	5.24
444.255	5.24
444.461	5.33
444.667	5.36
444.873	5.36
445.079	5.25
445.284	5.34
445.49	5.18
445.696	5.1
445.902	5.06
446.108	5.2
446.314	5.17
446.52	5.21
446.726	5.4
446.931	5.47
447.137	5.42
447.343	5.38
447.549	5.36
447.755	5.18
447.96	5.21
448.166	5.21
448.372	5.15
448.578	5.18
448.783	5.2
448.989	5.19
449.195	5.29
449.4	5.37
449.606	5.41
449.812	5.44
450.017	5.47
450.223	5.45
450.428	5.42
450.634	5.47
450.84	5.58
451.045	5.58
451.251	5.51
451.456	5.73
451.662	5.76
451.867	5.82
452.073	5.8
452.278	5.93
452.483	5.97
452.689	5.92
452.894	5.85
453.1	5.83
453.305	5.81
453.51	5.66
453.716	5.64
453.921	5.71
454.127	5.73
454.332	5.62
454.537	5.67
454.742	5.65
454.948	5.57
455.153	5.6
455.358	5.68
455.563	5.73
455.769	5.85
455.974	5.86
456.179	5.83
456.384	5.77
456.589	5.73
456.795	5.62
457	5.68
457.205	5.79
457.41	5.89
457.615	5.86
457.82	5.99
458.025	5.95
458.23	5.92
458.435	5.87
458.64	5.87
458.845	5.99
459.05	6.04
459.255	6.09
459.46	6.1
459.665	6.11
459.87	5.97
460.075	5.94
460.28	5.97
460.485	6.05
460.69	6.09
460.895	6.1
461.099	6.13
461.304	6.1
461.509	6.04
461.714	5.97
461.919	6.09
462.123	6.03
462.328	6.05
462.533	6.11
462.738	6.28
462.942	6.18
463.147	6.25
463.352	6.22
463.556	6.32
463.761	6.25
463.966	6.3
464.17	6.33
464.375	6.38
464.58	6.24
464.784	6.22
464.989	6.16
465.193	6.16
465.398	6.15
465.602	6.33
465.807	6.3
466.011	6.44
466.216	6.48
466.42	6.52
466.625	6.52
466.829	6.61
467.034	6.64
467.238	6.72
467.443	6.67
467.647	6.52
467.851	6.54
468.056	6.53
468.26	6.51
468.464	6.53
468.669	6.59
468.873	6.65
469.077	6.59
469.282	6.69
469.486	6.76
469.69	6.79
469.894	6.73
470.099	6.88
470.303	6.8
470.507	6.81
470.711	6.82
470.915	6.83
471.119	6.72
471.324	6.73
471.528	6.72
471.732	6.73
471.936	6.71
472.14	6.75
472.344	6.83
472.548	6.85
472.752	7.06
472.956	7.27
473.16	7.3
473.364	7.15
473.568	7.18
473.772	7.16
473.976	7.09
474.18	7.07
474.384	7.2
474.588	7.23
474.792	7.1
474.995	7.04
475.199	7.13
475.403	7.14
475.607	7.22
475.811	7.28
476.015	7.32
476.218	7.34
476.422	7.32
476.626	7.24
476.83	7.28
477.033	7.32
477.237	7.29
477.441	7.33
477.644	7.35
477.848	7.34
478.052	7.31
478.255	7.3
478.459	7.4
478.663	7.51
478.866	7.56
479.07	7.6
479.273	7.7
479.477	7.64
479.681	7.61
479.884	7.57
480.088	7.53
480.291	7.5
480.495	7.49
480.698	7.44
480.901	7.5
481.105	7.59
481.308	7.57
481.512	7.57
481.715	7.65
481.919	7.61
482.122	7.58
482.325	7.64
482.529	7.62
482.732	7.56
482.935	7.52
483.138	7.53
483.342	7.53
483.545	7.62
483.748	7.69
483.952	7.76
484.155	7.86
484.358	7.88
484.561	7.84
484.764	7.78
484.967	7.81
485.171	7.84
485.374	7.8
485.577	7.89
485.78	7.84
485.983	7.87
486.186	7.72
486.389	7.77
486.592	7.72
486.795	7.81
486.998	7.74
487.201	7.85
487.404	7.83
487.607	7.85
487.81	7.82
488.013	7.89
488.216	7.82
488.419	7.81
488.622	7.78
488.825	7.74
489.028	7.7
489.231	7.71
489.433	7.63
489.636	7.58
489.839	7.62
490.042	7.58
490.245	7.56
490.447	7.69
490.65	7.75
490.853	7.77
491.056	7.86
491.258	7.86
491.461	7.85
491.664	7.85
491.866	7.8
492.069	7.78
492.272	7.74
492.474	7.76
492.677	7.76
492.879	7.89
493.082	7.85
493.285	7.98
493.487	7.94
493.69	7.9
493.892	7.78
494.095	7.81
494.297	7.77
494.5	7.75
494.702	7.78
494.905	7.81
495.107	7.83
495.309	7.79
495.512	7.84
495.714	7.9
495.917	7.95
496.119	7.89
496.321	7.95
496.524	7.94
496.726	7.91
496.928	7.89
497.13	7.98
497.333	7.92
497.535	7.91
497.737	7.93
497.939	7.93
498.142	7.9
498.344	7.93
498.546	7.84
498.748	7.82
498.95	7.87
499.152	7.87
499.355	7.9
499.557	8.03
499.759	8.1
499.961	8.03
500.163	8.06
500.365	8.07
500.567	8.07
500.769	8.01
500.971	8.04
501.173	8.03
501.375	8.06
501.577	8
501.779	8
501.981	8.02
502.183	8
502.385	7.94
502.587	7.98
502.788	8.02
502.99	8.04
503.192	8.07
503.394	8.02
503.596	8.01
503.798	8.02
503.999	8.07
504.201	8.06
504.403	8.11
504.605	8.1
504.806	8.05
505.008	8.02
505.21	8.05
505.411	8.06
505.613	8.09
505.815	8.11
506.016	8.13
506.218	8.18
506.42	8.24
506.621	8.27
506.823	8.3
507.024	8.23
507.226	8.19
507.427	8.18
507.629	8.24
507.83	8.3
508.032	8.31
508.233	8.39
508.435	8.44
508.636	8.45
508.838	8.35
509.039	8.37
509.24	8.32
509.442	8.27
509.643	8.2
509.845	8.21
510.046	8.31
510.247	8.31
510.448	8.33
510.65	8.38
510.851	8.49
511.052	8.47
511.254	8.5
511.455	8.52
511.656	8.51
511.857	8.52
512.058	8.55
512.26	8.51
512.461	8.53
512.662	8.6
512.863	8.56
513.064	8.51
513.265	8.6
513.466	8.61
513.667	8.59
513.868	8.59
514.069	8.64
514.27	8.64
514.471	8.59
514.672	8.57
514.873	8.53
515.074	8.5
515.275	8.43
515.476	8.44
515.677	8.52
515.878	8.61
516.079	8.63
516.28	8.69
516.481	8.78
516.682	8.72
516.882	8.62
517.083	8.65
517.284	8.62
517.485	8.58
517.686	8.64
517.886	8.69
518.087	8.73
518.288	8.77
518.488	8.79
518.689	8.74
518.89	8.8
519.091	8.8
519.291	8.75
519.492	8.76
519.692	8.82
519.893	8.84
520.094	8.75
520.294	8.8
520.495	8.75
520.695	8.78
520.896	8.73
521.096	8.83
521.297	8.87
521.497	8.9
521.698	8.86
521.898	8.86
522.099	8.83
522.299	8.9
522.499	8.89
522.7	8.91
522.9	8.92
523.101	8.95
523.301	8.93
523.501	8.94
523.702	8.96
523.902	9.04
524.102	9.03
524.302	8.98
524.503	9.05
524.703	9.1
524.903	9.09
525.103	9.05
525.304	9.08
525.504	9.13
525.704	9.18
525.904	9.18
526.104	9.19
526.304	9.24
526.504	9.22
526.705	9.13
526.905	9.21
527.105	9.25
527.305	9.19
527.505	9.14
527.705	9.14
527.905	9.11
528.105	9.14
528.305	9.15
528.505	9.2
528.705	9.32
528.905	9.29
529.105	9.28
529.304	9.32
529.504	9.39
529.704	9.31
529.904	9.33
530.104	9.34
530.304	9.35
530.503	9.29
530.703	9.27
530.903	9.24
531.103	9.29
531.303	9.3
531.502	9.31
531.702	9.34
531.902	9.4
532.101	9.37
532.301	9.41
532.501	9.44
532.7	9.5
532.9	9.54
533.1	9.6
533.299	9.65
533.499	9.64
533.698	9.61
533.898	9.54
534.097	9.49
534.297	9.47
534.496	9.55
534.696	9.63
534.895	9.7
535.095	9.79
535.294	9.8
535.494	9.77
535.693	9.77
535.892	9.81
536.092	9.75
536.291	9.73
536.491	9.8
536.69	9.8
536.889	9.74
537.088	9.74
537.288	9.81
537.487	9.82
537.686	9.83
537.886	9.9
538.085	9.98
538.284	10.04
538.483	10.02
538.682	10.04
538.882	10.05
539.081	10.04
539.28	9.94
539.479	9.98
539.678	9.97
539.877	10.02
540.076	10.05
540.275	10.15
540.474	10.17
540.673	10.2
540.872	10.14
541.071	10.25
541.27	10.26
541.469	10.31
541.668	10.32
541.867	10.38
542.066	10.36
542.265	10.37
542.464	10.3
542.663	10.34
542.862	10.45
543.06	10.5
543.259	10.55
543.458	10.67
543.657	10.71
543.856	10.78
544.054	10.77
544.253	10.77
544.452	10.79
544.651	10.88
544.849	10.85
545.048	10.87
545.247	10.97
545.445	11.03
545.644	11
545.843	11.03
546.041	11.1
546.24	11.14
546.438	11.16
546.637	11.21
546.836	11.28
547.034	11.3
547.233	11.28
547.431	11.25
547.63	11.29
547.828	11.25
548.027	11.29
548.225	11.31
548.423	11.39
548.622	11.45
548.82	11.53
549.019	11.64
549.217	11.75
549.415	11.85
549.614	11.91
549.812	11.89
550.01	11.89
550.209	11.96
550.407	11.97
550.605	11.99
550.803	12.15
551.002	12.19
551.2	12.22
551.398	12.31
551.596	12.44
551.794	12.5
551.993	12.57
552.191	12.67
552.389	12.79
552.587	12.85
552.785	12.9
552.983	12.97
553.181	13.05
553.379	13.07
553.577	13.09
553.775	13.15
553.973	13.24
554.171	13.27
554.369	13.27
554.567	13.35
554.765	13.38
554.963	13.43
555.161	13.45
555.359	13.55
555.557	13.63
555.755	13.74
555.952	13.87
556.15	13.98
556.348	14.03
556.546	14.11
556.744	14.18
556.941	14.21
557.139	14.27
557.337	14.4
557.535	14.48
557.732	14.6
557.93	14.71
558.128	14.83
558.325	14.91
558.523	14.96
558.721	15.05
558.918	15.06
559.116	15.14
559.313	15.2
559.511	15.33
559.708	15.4
559.906	15.52
560.104	15.66
560.301	15.79
560.498	15.81
560.696	15.89
560.893	15.94
561.091	16.04
561.288	16.14
561.486	16.23
561.683	16.28
561.88	16.38
562.078	16.31
562.275	16.32
562.473	16.42
562.67	16.54
562.867	16.62
563.064	16.81
563.262	16.9
563.459	17.01
563.656	17.11
563.853	17.21
564.051	17.25
564.248	17.36
564.445	17.46
564.642	17.47
564.839	17.64
565.036	17.81
565.234	17.89
565.431	17.96
565.628	18.18
565.825	18.19
566.022	18.22
566.219	18.3
566.416	18.43
566.613	18.49
566.81	18.59
567.007	18.62
567.204	18.68
567.401	18.65
567.598	18.67
567.795	18.78
567.991	18.79
568.188	18.89
568.385	18.98
568.582	19.01
568.779	19.04
568.976	19.12
569.172	19.26
569.369	19.33
569.566	19.37
569.763	19.4
569.96	19.46
570.156	19.42
570.353	19.38
570.55	19.54
570.746	19.57
570.943	19.66
571.14	19.71
571.336	19.91
571.533	20
571.729	20.05
571.926	20.06
572.123	20.15
572.319	20.17
572.516	20.07
572.712	20.12
572.909	20.17
573.105	20.16
573.302	20.16
573.498	20.27
573.695	20.21
573.891	20.21
574.087	20.25
574.284	20.26
574.48	20.26
574.677	20.41
574.873	20.47
575.069	20.54
575.266	20.64
575.462	20.71
575.658	20.72
575.854	20.73
576.051	20.71
576.247	20.64
576.443	20.62
576.639	20.59
576.835	20.59
577.032	20.59
577.228	20.69
577.424	20.59
577.62	20.6
577.816	20.64
578.012	20.6
578.208	20.52
578.404	20.62
578.6	20.58
578.796	20.6
578.993	20.74
579.189	20.78
579.384	20.66
579.58	20.65
579.776	20.59
579.972	20.47
580.168	20.39
580.364	20.48
580.56	20.48
580.756	20.41
580.952	20.34
581.148	20.39
581.343	20.43
581.539	20.51
581.735	20.54
581.931	20.59
582.127	20.58
582.322	20.51
582.518	20.46
582.714	20.49
582.909	20.57
583.105	20.55
583.301	20.53
583.496	20.51
583.692	20.47
583.888	20.39
584.083	20.39
584.279	20.46
584.474	20.43
584.67	20.43
584.866	20.35
585.061	20.16
585.257	20.14
585.452	20.18
585.648	20.2
585.843	20.24
586.039	20.35
586.234	20.25
586.429	20.23
586.625	20.17
586.82	20.23
587.015	20.25
587.211	20.21
587.406	20.2
587.601	20.27
587.797	20.2
587.992	20.21
588.187	20.35
588.383	20.31
588.578	20.3
588.773	20.33
588.968	20.33
589.163	20.3
589.359	20.34
589.554	20.37
589.749	20.37
589.944	20.41
590.139	20.42
590.334	20.44
590.529	20.44
590.724	20.47
590.919	20.55
591.114	20.59
591.309	20.59
591.504	20.58
591.699	20.69
591.894	20.69
592.089	20.63
592.284	20.74
592.479	20.84
592.674	20.77
592.869	20.82
593.064	20.94
593.259	20.94
593.454	20.94
593.648	21.04
593.843	21.03
594.038	21.12
594.233	21.23
594.428	21.26
594.622	21.27
594.817	21.47
595.012	21.45
595.206	21.42
595.401	21.45
595.596	21.48
595.79	21.5
595.985	21.6
596.18	21.72
596.374	21.89
596.569	22.02
596.763	22.01
596.958	22.12
597.153	22.17
597.347	22.15
597.542	22.24
597.736	22.33
597.931	22.41
598.125	22.48
598.319	22.64
598.514	22.64
598.708	22.69
598.903	22.76
599.097	22.84
599.291	22.86
599.486	22.92
599.68	22.95
599.874	22.98
600.069	22.98
600.263	22.96
600.457	23.05
600.651	23.13
600.846	23.16
601.04	23.22
601.234	23.39
601.428	23.37
601.622	23.41
601.817	23.4
602.011	23.47
602.205	23.45
602.399	23.52
602.593	23.5
602.787	23.53
602.981	23.5
603.175	23.48
603.369	23.39
603.563	23.4
603.757	23.51
603.951	23.51
604.145	23.48
604.339	23.64
604.533	23.6
604.727	23.49
604.921	23.44
605.115	23.47
605.309	23.42
605.502	23.51
605.696	23.48
605.89	23.4
606.084	23.3
606.278	23.19
606.471	23.14
606.665	23.07
606.859	23.07
607.053	23.01
607.246	23.01
607.44	22.89
607.634	22.76
607.827	22.75
608.021	22.69
608.214	22.63
608.408	22.52
608.602	22.6
608.795	22.6
608.989	22.56
609.182	22.49
609.376	22.45
609.569	22.28
609.763	22.16
609.956	22.08
610.15	21.94
610.343	21.94
610.537	21.89
610.73	21.76
610.923	21.78
611.117	21.84
611.31	21.75
611.504	21.7
611.697	21.67
611.89	21.62
612.083	21.54
612.277	21.46
612.47	21.41
612.663	21.4
612.856	21.34
613.05	21.2
613.243	21.11
613.436	21
613.629	20.89
613.822	20.67
614.015	20.59
614.209	20.44
614.402	20.5
614.595	20.49
614.788	20.52
614.981	20.38
615.174	20.39
615.367	20.16
615.56	20.06
615.753	19.99
615.946	19.99
616.139	20.04
616.332	20.1
616.525	20.04
616.718	20.04
616.911	20.01
617.103	19.94
617.296	19.84
617.489	19.76
617.682	19.71
617.875	19.67
618.067	19.58
618.26	19.52
618.453	19.49
618.646	19.4
618.838	19.38
619.031	19.37
619.224	19.38
619.417	19.38
619.609	19.41
619.802	19.37
619.994	19.34
620.187	19.31
620.38	19.22
620.572	19.18
620.765	19.17
620.957	19
621.15	18.95
621.342	18.94
621.535	18.89
621.727	18.85
621.92	18.84
622.112	18.76
622.305	18.78
622.497	18.65
622.69	18.64
622.882	18.64
623.074	18.7
623.267	18.59
623.459	18.62
623.651	18.54
623.844	18.63
624.036	18.61
624.228	18.59
624.42	18.6
624.613	18.71
624.805	18.65
624.997	18.65
625.189	18.62
625.381	18.56
625.574	18.4
625.766	18.27
625.958	18.21
626.15	18.28
626.342	18.28
626.534	18.32
626.726	18.33
626.918	18.32
627.11	18.18
627.302	18.18
627.494	18.13
627.686	18.2
627.878	18.14
628.07	18.17
628.262	18.11
628.454	18.14
628.646	18.05
628.838	18.01
629.029	18.03
629.221	18.07
629.413	17.95
629.605	17.88
629.797	17.84
629.989	17.79
630.18	17.62
630.372	17.68
630.564	17.69
630.755	17.62
630.947	17.62
631.139	17.58
631.33	17.46
631.522	17.51
631.714	17.54
631.905	17.54
632.097	17.47
632.289	17.42
632.48	17.29
632.672	17.25
632.863	17.13
633.055	17.16
633.246	17.24
633.438	17.17
633.629	17.13
633.821	17.16
634.012	17.11
634.203	17.07
634.395	17.21
634.586	17.22
634.777	17.17
634.969	17.2
635.16	17.2
635.351	17.07
635.543	17.07
635.734	17.11
635.925	17.11
636.117	17.09
636.308	17.11
636.499	17.06
636.69	17.01
636.881	17.02
637.073	17.02
637.264	16.96
637.455	16.92
637.646	16.9
637.837	16.88
638.028	16.81
638.219	16.82
638.41	16.76
638.601	16.68
638.792	16.69
638.983	16.71
639.174	16.68
639.365	16.68
639.556	16.59
639.747	16.5
639.938	16.49
640.129	16.45
640.32	16.49
640.511	16.62
640.701	16.67
640.892	16.58
641.083	16.6
641.274	16.54
641.465	16.44
641.655	16.38
641.846	16.38
642.037	16.33
642.228	16.38
642.418	16.44
642.609	16.49
642.8	16.59
642.99	16.54
643.181	16.46
643.372	16.41
643.562	16.28
643.753	16.11
643.943	16.08
644.134	16.01
644.324	15.98
644.515	16.03
644.705	16.05
644.896	16.08
645.086	16.08
645.277	16.03
645.467	15.98
645.658	15.97
645.848	15.87
646.038	15.85
646.229	15.81
646.419	15.73
646.61	15.72
646.8	15.74
646.99	15.71
647.18	15.67
647.371	15.62
647.561	15.55
647.751	15.59
647.941	15.57
648.132	15.59
648.322	15.64
648.512	15.6
648.702	15.48
648.892	15.47
649.082	15.43
649.272	15.36
649.462	15.27
649.653	15.18
649.843	15.16
650.033	15.2
650.223	15.14
650.413	15.14
650.603	15.27
650.793	15.27
650.983	15.24
651.172	15.26
651.362	15.3
651.552	15.21
651.742	15.03
651.932	14.96
652.122	14.98
652.312	14.98
652.502	14.9
652.691	14.87
652.881	14.71
653.071	14.56
653.261	14.42
653.45	14.29
653.64	14.34
653.83	14.34
654.019	14.27
654.209	14.22
654.399	14.22
654.588	14.02
654.778	13.88
654.968	13.74
655.157	13.58
655.347	13.52
655.536	13.4
655.726	13.29
655.915	13.14
656.105	13.05
656.294	12.94
656.484	12.91
656.673	12.88
656.863	12.96
657.052	12.81
657.241	12.59
657.431	12.34
657.62	12.12
657.809	11.87
657.999	11.85
658.188	11.82
658.377	11.72
658.567	11.67
658.756	11.53
658.945	11.34
659.134	11.1
659.324	10.96
659.513	10.71
659.702	10.61
659.891	10.47
660.08	10.46
660.269	10.43
660.458	10.4
660.648	10.27
660.837	10.2
661.026	10.1
661.215	9.98
661.404	9.91
661.593	9.83
661.782	9.67
661.971	9.54
662.16	9.43
662.349	9.27
662.538	9.15
662.726	9.11
662.915	9.04
663.104	8.94
663.293	8.94
663.482	8.98
663.671	8.94
663.86	8.83
664.048	8.75
664.237	8.71
664.426	8.57
664.615	8.52
664.803	8.47
664.992	8.34
665.181	8.26
665.369	8.1
665.558	7.99
665.747	8
665.935	8.12
666.124	8.12
666.312	8.24
666.501	8.17
666.69	8.04
666.878	7.94
667.067	7.83
667.255	7.75
667.444	7.92
667.632	8.04
667.82	8.06
668.009	8.02
668.197	7.9
668.386	7.76
668.574	7.75
668.762	7.65
668.951	7.65
669.139	7.75
669.327	7.69
669.516	7.65
669.704	7.61
669.892	7.67
670.08	7.67
670.269	7.6
670.457	7.54
670.645	7.49
670.833	7.59
671.021	7.56
671.21	7.69
671.398	7.88
671.586	8
671.774	7.84
671.962	7.94
672.15	7.93
672.338	7.72
672.526	7.81
672.714	7.7
672.902	7.67
673.09	7.81
673.278	8.01
673.466	8.02
673.654	8.3
673.842	8.23
674.03	8.13
674.218	7.99
674.405	7.94
674.593	7.9
674.781	8.08
674.969	8.16
675.157	8.34
675.344	8.47
675.532	8.55
675.72	8.58
675.908	8.68
676.095	8.72
676.283	8.7
676.471	8.87
676.658	8.86
676.846	8.86
677.033	8.86
677.221	8.91
677.409	8.62
677.596	8.71
677.784	8.71
677.971	8.67
678.159	8.76
678.346	8.9
678.534	8.91
678.721	9.03
678.909	9.08
679.096	9.11
679.283	9.21
679.471	9.29
679.658	9.34
679.846	9.48
680.033	9.52
680.22	9.62
680.408	9.66
680.595	9.68
680.782	9.69
680.969	9.7
681.157	9.79
681.344	9.99
681.531	10.1
681.718	10.24
681.905	10.43
682.093	10.48
682.28	10.51
682.467	10.77
682.654	10.97
682.841	11.17
683.028	11.42
683.215	11.62
683.402	11.49
683.589	11.54
683.776	11.7
683.963	11.66
684.15	11.75
684.337	11.98
684.524	12.12
684.711	12.25
684.898	12.44
685.085	12.51
685.271	12.74
685.458	12.89
685.645	13.02
685.832	13.32
686.019	13.6
686.205	13.81
686.392	14.08
686.579	14.31
686.766	14.48
686.952	14.65
687.139	15.04
687.326	15.24
687.512	15.57
687.699	16
687.886	16.33
688.072	16.48
688.259	16.92
688.445	17.33
688.632	17.5
688.818	18.12
689.005	18.56
689.191	19.07
689.378	19.69
689.564	20.21
689.751	20.58
689.937	21.03
690.124	21.52
690.31	21.59
690.496	22.13
690.683	22.64
690.869	23.19
691.055	23.54
691.242	24.42
691.428	24.96
691.614	25.41
691.8	26.12
691.987	26.9
692.173	27.32
692.359	27.96
692.545	28.63
692.731	28.97
692.918	29.62
693.104	30.14
693.29	30.84
693.476	31.56
693.662	32.5
693.848	32.98
694.034	33.79
694.22	34.33
694.406	35.06
694.592	35.49
694.778	36.21
694.964	36.87
695.15	37.9
695.336	38.61
695.522	39.72
695.708	40.28
695.894	40.94
696.08	41.54
696.265	42.03
696.451	42.73
696.637	43.51
696.823	44.18
697.009	44.66
697.194	45.48
697.38	45.7
697.566	46.47
697.751	47.26
697.937	47.99
698.123	48.57
698.308	49.21
698.494	49.77
698.68	50.26
698.865	51.05
699.051	51.73
699.236	52.37
699.422	53.02
699.607	53.65
699.793	54.32
699.978	54.84
700.164	55.77
700.349	56.88
700.535	57.81
700.72	58.16
700.906	58.88
701.091	59.31
701.276	59.39
701.462	59.79
701.647	60.58
701.832	61.16
702.018	61.62
702.203	61.98
702.388	62.28
702.573	62.41
702.759	63.11
702.944	63.67
703.129	64.24
703.314	64.78
703.499	65.48
703.684	65.55
703.87	66.17
704.055	67
704.24	67.33
704.425	67.98
704.61	68.8
704.795	69.32
704.98	69.48
705.165	69.95
705.35	69.94
705.535	70.47
705.72	70.65
705.905	71.14
706.09	71.76
706.275	72.47
706.459	72.49
706.644	72.57
706.829	72.75
707.014	72.83
707.199	73.01
707.384	73.32
707.568	73.94
707.753	74.5
707.938	75.02
708.123	75.28
708.307	75.56
708.492	75.64
708.677	75.77
708.861	75.86
709.046	76.08
709.231	76.71
709.415	77.11
709.6	77.05
709.784	77.26
709.969	77.39
710.153	77.06
710.338	77.18
710.522	77.96
710.707	78.51
710.891	78.86
711.076	79.65
711.26	79.79
711.445	79.78
711.629	79.95
711.813	80.22
711.998	80.18
712.182	80.5
712.366	81.21
712.551	81.87
712.735	82.28
712.919	82.3
713.103	82.58
713.288	81.97
713.472	81.46
713.656	81.82
713.84	81.94
714.024	82.17
714.208	82.58
714.393	83.45
714.577	83.44
714.761	83.27
714.945	83.36
715.129	83.37
715.313	83.23
715.497	83.42
715.681	84.18
715.865	84.04
716.049	84.2
716.233	83.97
716.417	84.26
716.601	84.08
716.785	84.36
716.968	84.42
717.152	84.71
717.336	84.48
717.52	84.74
717.704	85.04
717.888	85.98
718.071	86.14
718.255	86.3
718.439	86.33
718.622	86.38
718.806	86.17
718.99	85.97
719.174	85.62
719.357	85.87
719.541	86.16
719.724	86.25
719.908	87.2
720.092	88.08
720.275	88.2
720.459	88.08
720.642	87.55
720.826	86.9
721.009	86.43
721.193	86.01
721.376	86.13
721.559	86.73
721.743	87.13
721.926	87.79
722.11	88.15
722.293	87.98
722.476	87.92
722.66	87.58
722.843	87.25
723.026	86.63
723.21	86.68
723.393	86.86
723.576	86.73
723.759	86.35
723.942	86.9
724.126	87.36
724.309	87.65
724.492	88.15
724.675	88.44
724.858	88.94
725.041	89.04
725.224	88.79
725.407	89.05
725.59	89.44
725.774	89.25
725.957	88.77
726.14	88.88
726.322	88.49
726.505	88.79
726.688	89.19
726.871	89.21
727.054	88.88
727.237	88.72
727.42	88.7
727.603	88.39
727.786	88.57
727.968	88.92
728.151	89.5
728.334	89.03
728.517	89.12
728.699	89.62
728.882	89.88
729.065	90.25
729.248	90.22
729.43	90.69
729.613	90.95
729.796	91.14
729.978	90.15
730.161	90.63
730.343	89.92
730.526	90.28
730.708	89.78
730.891	90.14
731.073	89.89
731.256	90.49
731.438	89.98
731.621	90.5
731.803	90.82
731.986	91.2
732.168	90.56
732.35	90.57
732.533	90.63
732.715	91.19
732.898	91.8
733.08	92.36
733.262	92.44
733.444	92.63
733.627	91.85
733.809	91.21
733.991	91.61
734.173	91.66
734.355	91.4
734.538	92.6
734.72	92.41
734.902	92.11
735.084	92.32
735.266	92.02
735.448	91.91
735.63	91.64
735.812	91.99
735.994	92.21
736.176	92.52
736.358	92.4
736.54	93.82
736.722	93.13
736.904	92.46
737.086	92.28
737.268	92.13
737.45	91.68
737.632	92.17
737.814	92.61
737.995	93.27
738.177	93.4
738.359	92.58
738.541	92.85
738.723	92.75
738.904	92.27
739.086	92.47
739.268	92.88
739.449	92.78
739.631	92.86
739.813	93.12
739.994	92.74
740.176	93.24
740.358	93.4
740.539	93.74
740.721	94.06
740.902	94.69
741.084	93.62
741.265	93.03
741.447	92.31
741.628	92
741.81	91.35
741.991	92.54
742.172	93.44
742.354	94.15
742.535	94.61
742.717	95.02
742.898	95.05
743.079	95.65
743.261	95.07
743.442	94.36
743.623	94.73
743.804	94.08
743.986	93.63
744.167	92.88
744.348	92.95
744.529	92.65
744.71	91.83
744.891	90.69
745.073	91.15
745.254	90.48
745.435	90.25
745.616	90.5
745.797	91.56
745.978	92.39
746.159	93.04
746.34	91.73
746.521	93.5
746.702	91.85
746.883	91.28
747.064	90.76
747.245	91.6
747.426	90.13
747.606	90.92
747.787	91.8
747.968	92.85
748.149	92.51
748.33	93.14
748.51	94.05
748.691	93.35
748.872	94.03
749.053	93.75
749.233	92.79
749.414	92.55
749.595	92.71
749.775	91.51
749.956	91.65
750.137	92.79
750.317	92.57
750.498	92.68
750.678	93.01
750.859	93.7
751.04	92
751.22	91.17
751.4	91.29
751.581	88.67
751.761	89.29
751.942	90.29
752.122	89.7
752.303	88.7
752.483	90.07
752.663	89.79
752.844	89.41
753.024	92.06
753.204	93.24
753.385	93.45
753.565	93.14
753.745	93.76
753.925	91.73
754.106	89.85
754.286	90.18
754.466	89.82
754.646	90.47
754.826	90.35
755.006	90.59
755.187	91.55
755.367	91.19
755.547	89.15
755.727	90.08
755.907	91.76
756.087	91.15
756.267	91.71
756.447	93.08
756.627	90.57
756.807	89.06
756.987	88.61
757.167	89.63
757.346	89.27
757.526	89.25
757.706	89.63
757.886	90.23
758.066	89.39
758.246	90.12
758.425	91.27
758.605	90.89
758.785	90.91
758.965	91.16
759.144	89.76
759.324	90.69
759.504	91.45
759.683	90.97
759.863	88.72
760.043	88.84
760.222	88.47
760.402	87.86
760.581	86.22
760.761	88.18
760.94	87.48
761.12	87.65
761.299	88.14
761.479	88.42
761.658	88.13
761.838	89.95
762.017	90.46
762.197	90.29
762.376	91.01
762.555	91.66
762.735	91.5
762.914	90.33
763.093	89.57
763.273	88.94
763.452	87.67
763.631	87.44
763.81	87.83
763.99	87.72
764.169	88.03
764.348	87.43
764.527	86.36
764.706	85.66
764.885	88.03
765.064	87.45
765.243	88.23
765.423	90.29
765.602	89.35
765.781	87.84
765.96	87.58
766.139	87.31
766.318	86.1
766.497	86.63
766.676	85.16
766.854	86.93
767.033	86.74
767.212	85.53
767.391	87.82
767.57	90.19
767.749	89.45
767.928	89.46
768.106	90.83
768.285	87.62
768.464	86.07
768.643	86.7
768.821	87.68
769	87.74
769.179	89.29
769.357	88.69
769.536	89.26
769.715	88.17
769.893	89.49
770.072	87.53
770.25	88.26
770.429	86.99
770.607	86.05
770.786	84.41
770.964	87.43
771.143	87.65
771.321	89.54
771.5	91.81
771.678	90.64
771.857	89.07
772.035	89.01
772.213	86.2
772.392	83.7
772.57	85.16
772.748	85.71
772.927	83.9
773.105	85.2
773.283	85.52
773.461	85.47
773.64	85.25
773.818	86.95
773.996	87.79
774.174	87.54
774.352	85.26
774.531	83.3
774.709	82.37
774.887	81.39
775.065	83.39
775.243	84.16
775.421	85.96
775.599	87.44
775.777	84.76
775.955	82.05
776.133	81.78
776.311	81.58
776.489	80.54
776.667	83.18
776.844	84.71
777.022	84.25
777.2	84.52
777.378	84.1
777.556	83.28
777.734	84.14
777.911	87.07
778.089	85.24
778.267	85.69
778.445	85.11
778.622	84.5
778.8	83.4
778.978	84.22
779.155	82.79
779.333	84.08
779.511	83.94
779.688	85.54
779.866	82.41
780.043	82.54
780.221	81.56
780.398	79.37
780.576	77.07
780.753	80.66
780.931	79.02
781.108	79.04
781.286	80.93
781.463	80.29
781.64	78.52
781.818	82.95
781.995	80.96
782.172	80.24
782.35	79.58
782.527	81.86
782.704	79.42
782.882	83.03
783.059	83.13
783.236	83.83
783.413	85.34
783.59	83.91
783.768	80.77
783.945	82.29
784.122	82.57
784.299	82.35
784.476	84.77
784.653	85.53
784.83	81.11
785.007	80.88
785.184	78.6
785.361	76.41
785.538	78.25
785.715	84.11
785.892	84.37
786.069	85.69
786.246	85.8
786.423	86.43
786.6	82.28
786.776	83.2
786.953	79.53
787.13	80.15
787.307	77.05
787.484	75.87
787.66	74.81
787.837	75.08
788.014	72.74
788.191	73.59
788.367	76.09
788.544	75.42
788.721	75.65
788.897	79.98
789.074	81.63
789.25	77.73
789.427	78.22
789.603	79.1
789.78	76.41
789.956	72.61
790.133	72.3
790.309	74.35
790.486	74.86
790.662	76.47
790.839	76.28
791.015	78.61
791.192	75.86
791.368	77.5
791.544	76.99
791.721	80.74
791.897	81.03
792.073	80.48
792.249	76.32
792.426	78.63
792.602	78.63
792.778	80.61
792.954	80.43
793.13	80.92
793.307	75.54
793.483	67.16
793.659	68.16
793.835	72.36
794.011	68.24
794.187	73.38
794.363	78.35
794.539	80
794.715	75.75
794.891	81
795.067	77.57
795.243	80.37
795.419	76.68
795.595	74.56
795.771	74.82
795.947	73.74
796.122	69.67
796.298	72
796.474	72.95
796.65	68.83
796.826	67.01
797.001	72.17
797.177	67.69
797.353	67.58
797.529	71.04
797.704	75.13
797.88	68.65
798.056	71.26
798.231	75.31
798.407	74.54
798.582	71.78
798.758	77.74
798.934	78.32
799.109	72.33
799.285	74.17
799.46	79.47
799.636	74.7
799.811	76.5
799.986	77.04
800.162	76.84
800.337	77.05
800.513	80.65
800.688	79.25
800.863	92.43
801.039	85.23
801.214	80.26
801.389	82.06
801.565	73.72
801.74	60.08
801.915	70.66
802.09	70.56
802.265	70.05
802.441	70.79
802.616	74.51
802.791	72.09
802.966	71.4
803.141	71.15
803.316	69.77
803.491	69.78
803.666	72.84
803.841	71.68
804.016	71.6
804.191	75.22
804.366	76.95
804.541	75.17
804.716	74.82
804.891	71.46
805.066	75.96
805.241	73.73
805.416	67.51
805.591	68.8
805.765	70.08
805.94	71.5
806.115	64.83
806.29	65.22
806.464	62.21
806.639	62.76
806.814	55.08
806.989	58.25
807.163	65.35
807.338	67.45
807.512	64.48
807.687	58.42
807.862	66.76
808.036	59.21
808.211	63.69
808.385	72.23
808.56	80.68
808.734	71.06
808.909	77.4
809.083	78.68
809.258	72.07
809.432	69.89
809.606	69.5
809.781	65.06
809.955	60.9
810.13	56.87
810.304	62.01
810.478	62.41
810.652	64.17
810.827	71.01
811.001	70.02
811.175	60.52
811.349	62.58
811.524	60.68
811.698	46.27
811.872	52.56
812.046	60.43
812.22	59.57
812.394	60.2
812.568	64.21
812.742	62.49
812.916	64.1
813.09	61.72
813.264	61.94
813.438	70.85
813.612	67.24
813.786	62.3
813.96	75.51
814.134	72.69
814.308	81.72
814.482	85.79
814.656	80.48
814.83	72.45
815.003	77.49
815.177	63.85
815.351	66.86
815.525	63.75
815.698	64.28
815.872	59.26
816.046	58.19
816.219	56.71
816.393	62.87
816.567	65.14
816.74	68.37
816.914	70.31
817.088	66.22
817.261	68.28
817.435	58.66
817.608	62.1
817.782	65.58
817.955	67.65
818.129	63.73
818.302	70.32
818.475	75.02
818.649	70.77
818.822	69.63
818.996	84.15
819.169	86.9
819.342	70.32
819.516	67.53
819.689	57.29
819.862	50.06
820.035	35.16
820.209	42.83
820.382	42.67
820.555	40.47
820.728	39.66
820.901	43.08
821.075	44.01
821.248	53.14
821.421	62.76
821.594	47.16
821.767	52.62
821.94	52.55
822.113	25.53
822.286	22.57
822.459	34.47
822.632	31.22
822.805	21.4
822.978	34.16
823.151	36.38
823.324	20.36
823.496	8.06
823.669	12.57
823.842	24.11
824.015	19.7
824.188	24.65
824.361	37.53
824.533	44.31
824.706	28.54
824.879	25.03
825.051	27.68
825.224	22.64
825.397	11.39
825.569	14.78
825.742	28.01
825.915	29.56
826.087	39.99
826.26	26.32
826.432	36.72
826.605	34.25
826.777	43.22
826.95	46.93
827.122	55.36
827.295	51.43
827.467	56.33
827.64	27.23
827.812	24.28
827.984	24.13
828.157	26.46
828.329	16.17
828.501	40.89
828.674	51.35
828.846	49.71
829.018	61.08
829.19	52.98
829.363	69.25
829.535	74.99
829.707	77.03
829.879	52.92
830.051	60.94
830.223	48.4
830.395	18.68
830.568	16.01
830.74	14.82
830.912	48.72
831.084	40.6
831.256	40.19
831.428	43.88
831.6	37
831.772	-7.17
831.943	-27.08
832.115	-9.69
832.287	-7.2
832.459	15.83
832.631	28.85
832.803	38.54
832.975	45.31
833.146	37.43
833.318	10.08
833.49	16.96
833.662	19.7
833.833	6.71
834.005	17.53
834.177	32.77
834.348	25.1
834.52	31.3
834.692	35.09
834.863	41
835.035	38.64
835.206	16.99
835.378	23.75
835.549	29.18
835.721	32.68
835.892	12.72
836.064	13.75
836.235	-2.22
836.407	3.72
836.578	-26.94
836.749	11.28
836.921	12.91
837.092	1.4
837.264	-10.9
837.435	-10.47
837.606	-5.8
837.777	14.13
837.949	23.92
838.12	29.5
838.291	29.87
838.462	15.21
838.633	-2.53
838.805	-2.59
838.976	-9.15
839.147	-51.39
839.318	-30.77
839.489	-73.91
839.66	-66.72
839.831	-10.57
840.002	18.05
840.173	21.19
840.344	55.4
840.515	62.56
840.686	-119.54
840.857	-105.16
841.028	-78.79
841.199	-33.34
841.369	-40.49
841.54	1.79
841.711	7.39
841.882	15.93
842.053	-7.63
842.223	-8.87
842.394	6.57
842.565	17.38
842.736	34.39
842.906	58.23
843.077	69.43
843.248	84.78
843.418	105.77
843.589	85.76
843.759	100.41
843.93	78.89
844.101	45.23
844.271	23.69
844.442	16.95
844.612	27.13
844.783	-9.92
844.953	-39.56
845.123	-66.46
845.294	-58.97
845.464	-239.63
845.635	-48.46
845.805	14.75
845.975	15.85
846.146	-28.05
846.316	-25.65
846.486	-23.29
846.656	-13.83
846.827	-17.14
846.997	-14.27
847.167	-18.72
847.337	-9.23
847.507	-23.41
847.677	-13.27
847.848	26.57
848.018	29.09
848.188	29.41
848.358	29.01
848.528	7.62
848.698	-11.48
848.868	-75.14
849.038	-94.28
849.208	-56.39
849.378	-19.09
849.548	3.53
849.718	13.63
849.887	20.32
850.057	25.57
850.227	21.41
850.397	16.08
850.567	-22.74
850.737	-116.85
850.906	-373.44
851.076	-238.09
851.246	-85.73
851.415	23.71
851.585	17.84
851.755	-27.19
851.924	-19.33
852.094	-83.13
852.264	-164.33
852.433	-982.45
852.603	-192.76
852.772	-210.49
852.942	-56.65
853.111	-42
853.281	-6.53
853.45	34.01
853.62	6.66
853.789	7.77
853.959	49.48
854.128	33.9
854.297	-7.16
854.467	-35.68
854.636	-49.31
854.805	-29.8
854.975	-86.73
855.144	-196.92
855.313	-301.22
855.482	-353.83
855.652	-100.97
855.821	-17.95
855.99	26.58
856.159	34.44
856.328	29.16
856.497	7.39
856.667	8.48
856.836	21.1
857.005	14.34
857.174	5.99
857.343	-15.19
857.512	20.76
857.681	-32.43
857.85	-79.28
858.019	-46.85
858.188	-24.91
858.356	-58.42
858.525	-96.79
858.694	-93.03
858.863	-187.63
859.032	-137.33
859.201	-133.1
859.369	-128.25
859.538	-65.48
859.707	-50.12
859.876	-56.47
860.044	-83.26
860.213	8.28
860.382	-14.19
860.55	-9.51
860.719	16.39
860.888	33.59
861.056	13.4
861.225	6.44
861.393	12.53
861.562	-27.61
861.73	-115.77
861.899	-387.3
862.067	-2675
862.236	-104.92
862.404	-192.44
862.572	-99.95
862.741	-14.62
862.909	-9.46
863.078	-98.42
863.246	-81.83
863.414	-90.04
863.582	-61.97
863.751	-94.67
863.919	-61.88
864.087	-50.69
864.255	-64.59
864.424	-427.39
864.592	-88.34
864.76	-211.95
864.928	-459.8
865.096	-226.99
865.264	-179.18
865.432	-2131.25
865.6	-105.87
865.768	-76.67
865.936	-67.87
866.104	-63.86
866.272	-20.23
866.44	-295.96
866.608	610.73
866.776	271.87
866.944	2180.81
867.112	-380.83
867.28	-127.61
867.448	-36.42
867.615	-9.8
867.783	4.68
867.951	-19.31
868.119	-18.64
868.286	-64.26
868.454	-194.99
868.622	-183
868.789	-193.52
868.957	-3162.5
869.125	-1504.61
869.292	-52.03
869.46	-157.11
869.627	-17.59
869.795	1.08
869.963	26.66
870.13	34.49
870.298	19.7
870.465	-59.25
870.632	-89.56
870.8	-52.92
870.967	-111.09
871.135	-42.79
871.302	16.74
871.469	11.56
871.637	-47.6
871.804	-34.66
871.971	-69.12
872.139	-355.23
872.306	-19.53
872.473	-63.06
872.64	-217.06
872.807	-127.19
872.975	-17.64
873.142	-263.55
873.309	1537.16
873.476	17.02
873.643	40.56
873.81	16.74
873.977	64.31
874.144	44
874.311	-82.29
874.478	-90.3
874.645	-126.95
874.812	-150.05
874.979	-93.49
875.146	-88.89
875.313	-93.43
875.48	16.93
875.647	0.95
875.813	-8.75
875.98	13.35
876.147	-18.72
876.314	-65.98
876.481	437.81
876.647	-652.53
876.814	277.59
876.981	84.71
877.147	-8.56
877.314	27.07
877.481	38.02
877.647	7.01
877.814	-30.85
877.98	-73.03
878.147	-86.98
878.314	-35.76
878.48	-38.58
878.647	-35.39
878.813	20.91
878.979	25.23
879.146	4.02
879.312	-5.02
879.479	-24.21
879.645	-131.22
879.811	-281.62
879.978	-786.83
880.144	-206.11
880.31	-119.62
880.477	-317.86
880.643	-329.14
880.809	-124.68
880.975	-159.03
881.142	-879.77
881.308	-108.15
881.474	-60.28
881.64	-109.85
881.806	-105.51
881.972	-26.29
882.138	-35.12
882.304	-64.48
882.47	-98.34
882.636	-643.24
882.802	-318.71
882.968	-98.1
883.134	-49.01
883.3	-58.17
883.466	-13.17
883.632	31.8
883.798	4.21
883.964	2.7
884.129	35.16
884.295	80.22
884.461	44.2
884.627	39.35
884.793	15.69
884.958	0.14
885.124	-66.58
885.29	-173.1
885.455	-356.19
885.621	-156.72
885.787	-180.91
885.952	-52.91
886.118	-31.13
886.283	-47.44
886.449	-131.48
886.614	-137.46
886.78	-343.37
886.945	1547.13
887.111	-446.68
887.276	-263.49
887.442	-457.05
887.607	-235.73
887.773	-118.07
887.938	-153.2
888.103	-208.59
888.269	-130.65
888.434	-41.49
888.599	-64.4
888.764	13.13
888.93	44.28
889.095	-4.83
889.26	-81.61
889.425	-35.06
889.59	10.08
889.756	-28.17
889.921	35.67
890.086	96.57
890.251	91.53
890.416	-10.7
890.581	-278.63
890.746	99.2
890.911	268.63
891.076	168.37
891.241	-265.49
891.406	17.49
891.571	-50.89
891.736	-238.88
891.901	-421.02
892.065	493.13
892.23	104.14
892.395	133.02
892.56	189.52
892.725	-261.52
892.889	-1431.1
893.054	-251.34
893.219	-104.2
893.384	-37.69
893.548	-60.8
893.713	-64.89
893.878	-40.54
