Data from Ofra_1a_PS_2GT38_Reflection_1.txt Node
Date: Tue Jul 20 10:49:58 EDT 2021
User: Adam
Spectrometer: FLMT01687
Trigger mode: 0
Integration Time (sec): 1.004000E0
Scans to average: 2
Electric dark correction enabled: true
Nonlinearity correction enabled: false
Boxcar width: 2
XAxis mode: Wavelengths
Number of Pixels in Spectrum: 3648
>>>>>Begin Spectral Data<<<<<
179.494	-144.67
179.716	-215.27
179.937	444.48
180.158	-540.76
180.38	69.55
180.601	39.06
180.823	-35.78
181.044	-97.02
181.265	-224.11
181.486	206.27
181.708	132.46
181.929	-3409.09
182.15	29.2
182.372	376.85
182.593	517.27
182.814	-213.41
183.035	-47.88
183.257	-18.53
183.478	-22.97
183.699	-17.86
183.92	-49.22
184.141	-44.42
184.363	-32.45
184.584	-4.01
184.805	7.07
185.026	38.51
185.247	47.99
185.468	38.98
185.689	37.89
185.91	2.54
186.132	9.36
186.353	3.31
186.574	5.14
186.795	-9.73
187.016	28.12
187.237	21.25
187.458	19.67
187.679	32.35
187.9	52.79
188.121	58.23
188.342	63.87
188.563	73.47
188.784	69.27
189.005	56.23
189.226	50.98
189.447	42.87
189.667	37.68
189.888	26.58
190.109	10.71
190.33	21.7
190.551	7.2
190.772	7.32
190.993	-31.18
191.214	-10.58
191.434	-70.76
191.655	-108.06
191.876	-56.28
192.097	8.09
192.318	34.19
192.538	23.49
192.759	38.89
192.98	45.9
193.201	40.8
193.421	31.57
193.642	32.91
193.863	32.57
194.083	18.09
194.304	9.52
194.525	5.38
194.745	15.83
194.966	6.94
195.187	14.58
195.407	14.07
195.628	15.61
195.848	13.05
196.069	19.37
196.29	7.2
196.51	-6.49
196.731	-15.68
196.951	-28.3
197.172	-23.33
197.392	-30.86
197.613	6.76
197.833	-0.78
198.054	-10.49
198.274	10.51
198.495	10.07
198.715	-9.76
198.936	14.24
199.156	24.13
199.377	-7.72
199.597	13.37
199.817	7.08
200.038	-36.78
200.258	1.15
200.479	19.91
200.699	12.53
200.919	11.65
201.14	14.67
201.36	-2.74
201.58	-6.89
201.801	-6.82
202.021	-7.61
202.241	6.47
202.461	-6.86
202.682	1.36
202.902	2.15
203.122	4.54
203.342	-11.94
203.563	-10.68
203.783	-31.78
204.003	-47.48
204.223	-29.95
204.443	-9.75
204.663	-28.72
204.884	-9.55
205.104	9.88
205.324	22.73
205.544	-6.8
205.764	32.95
205.984	29.11
206.204	34.48
206.424	38.44
206.644	30.96
206.864	-9.06
207.084	5.43
207.304	-6.37
207.525	-17.25
207.745	-4.85
207.964	8.42
208.184	-0.73
208.404	7.74
208.624	10.81
208.844	4.62
209.064	0.47
209.284	-22.49
209.504	-45.24
209.724	-58.71
209.944	-53.7
210.164	-44.41
210.384	-36.36
210.604	-77.61
210.823	-66.94
211.043	-39.71
211.263	-132.48
211.483	-61.9
211.703	-23.2
211.922	-5.25
212.142	0.72
212.362	36.57
212.582	28.74
212.801	25.44
213.021	4.38
213.241	-17.95
213.461	-13.49
213.68	4.81
213.9	1.9
214.12	-1.05
214.339	13.81
214.559	13.66
214.779	12.44
214.998	19.06
215.218	23.72
215.438	24.49
215.657	12.12
215.877	-6.53
216.096	17.01
216.316	19.39
216.535	15.37
216.755	22.3
216.974	27.54
217.194	-6.12
217.413	-7.97
217.633	-14.07
217.852	-17.64
218.072	-19.28
218.291	-38.19
218.511	-44.37
218.73	-44.38
218.95	-68.48
219.169	-67.37
219.389	-16.68
219.608	-10.93
219.827	-18.56
220.047	-0.9
220.266	-5.25
220.485	-20.16
220.705	-8.63
220.924	-5.92
221.143	-7.33
221.363	16.68
221.582	9.87
221.801	7.12
222.021	18.53
222.24	11.83
222.459	17.55
222.678	27.78
222.897	19.73
223.117	18.44
223.336	52.95
223.555	43.24
223.774	82.32
223.993	85.24
224.213	88.97
224.432	40.15
224.651	25
224.87	1.89
225.089	9.93
225.308	-4.47
225.527	-1.4
225.746	15.75
225.965	15.18
226.184	6.17
226.404	21.32
226.623	40.22
226.842	23.42
227.061	23.63
227.28	26.27
227.499	18.9
227.718	8.61
227.936	13.25
228.155	23
228.374	27.05
228.593	42.36
228.812	37.36
229.031	48.88
229.25	35.21
229.469	22.84
229.688	21.47
229.907	31.81
230.125	28.75
230.344	24.5
230.563	24.59
230.782	16.97
231.001	15.22
231.22	26.23
231.438	31.76
231.657	34.81
231.876	27.41
232.095	28.98
232.313	-1.98
232.532	-1.99
232.751	-10.14
232.969	1.22
233.188	-12.16
233.407	3.56
233.625	-9.76
233.844	-5
234.063	-16.09
234.281	-8.68
234.5	-9.19
234.719	-0.12
234.937	-23.13
235.156	-5.37
235.374	7.82
235.593	16.86
235.811	34.92
236.03	42.46
236.249	35.95
236.467	25.8
236.686	7.48
236.904	16.11
237.123	13.5
237.341	11.11
237.559	9.61
237.778	38.3
237.996	6.78
238.215	-13.62
238.433	-64.01
238.652	3.08
238.87	-16.21
239.088	-0.23
239.307	4.9
239.525	17.1
239.743	-4.35
239.962	-33
240.18	-9.59
240.398	-0.93
240.617	0.06
240.835	15.3
241.053	28.24
241.271	35.23
241.49	39.1
241.708	30.07
241.926	28.77
242.144	58.6
242.363	24.72
242.581	-5.96
242.799	-37.22
243.017	-32.23
243.235	-38.32
243.453	-43.21
243.672	-23.33
243.89	3.01
244.108	24.58
244.326	45.58
244.544	44
244.762	25.73
244.98	30.56
245.198	27.18
245.416	10.23
245.634	3.03
245.852	0.4
246.07	16.06
246.288	7.61
246.506	1.49
246.724	9.86
246.942	20.35
247.16	21.41
247.378	35.37
247.596	67.1
247.814	65.19
248.032	72.36
248.25	61.69
248.468	37.48
248.685	34.81
248.903	28.74
249.121	32.94
249.339	15.75
249.557	11.71
249.775	11.85
249.992	27.28
250.21	18.96
250.428	35.15
250.646	44.29
250.863	34.95
251.081	28.18
251.299	40.18
251.517	34.08
251.734	21.33
251.952	25.78
252.17	34.78
252.387	22.31
252.605	21.8
252.823	33.65
253.04	40.34
253.258	42.23
253.475	52.76
253.693	29.9
253.911	21.5
254.128	14.51
254.346	5.92
254.563	10.45
254.781	19.45
254.998	10.13
255.216	-31.96
255.433	-54.75
255.651	-68.59
255.868	-56
256.086	-31.65
256.303	7.35
256.521	28.11
256.738	15.5
256.956	31.39
257.173	14.87
257.39	16.15
257.608	13.94
257.825	22.11
258.043	11.81
258.26	11.97
258.477	11.04
258.695	-3.94
258.912	-8.16
259.129	-17.27
259.346	-21.16
259.564	-15.31
259.781	17.02
259.998	46.86
260.216	45.6
260.433	36.29
260.65	23.16
260.867	12.52
261.084	-9.06
261.302	-20.82
261.519	-3.31
261.736	6.21
261.953	6.19
262.17	12.73
262.387	9.87
262.604	8.95
262.822	14.73
263.039	24.72
263.256	21.23
263.473	25.52
263.69	25.39
263.907	21.83
264.124	20.84
264.341	28.03
264.558	36.07
264.775	37.32
264.992	46.61
265.209	27
265.426	5.85
265.643	-3.16
265.86	-11.88
266.077	-16.63
266.294	-3.36
266.51	31.92
266.727	26.31
266.944	27.71
267.161	24.51
267.378	39.22
267.595	24.56
267.812	20.22
268.028	16.09
268.245	20.97
268.462	18.91
268.679	21.04
268.896	37.43
269.112	29.52
269.329	24.34
269.546	36.13
269.763	38.29
269.979	25.12
270.196	38.08
270.413	36.79
270.629	17.17
270.846	4.68
271.063	-5.18
271.279	0.42
271.496	1.48
271.712	2.99
271.929	13.56
272.146	12.57
272.362	7.24
272.579	-1.58
272.795	-0.92
273.012	7.31
273.228	22.16
273.445	24.46
273.661	30.24
273.878	13.46
274.094	4.96
274.311	8.51
274.527	-7.67
274.744	0.29
274.96	6.35
275.177	4.7
275.393	9.85
275.609	22.84
275.826	21.55
276.042	29.21
276.259	27.34
276.475	22.78
276.691	8.43
276.908	9.53
277.124	3.93
277.34	1.94
277.557	8.59
277.773	-0.92
277.989	3.35
278.205	0.05
278.422	-4.95
278.638	0.74
278.854	3.68
279.07	13.15
279.286	11.43
279.503	23.33
279.719	18.73
279.935	12.18
280.151	-3.93
280.367	6.82
280.583	-1.54
280.799	-1.02
281.016	-12
281.232	-9.78
281.448	-16.71
281.664	-10.24
281.88	-13.86
282.096	-3.06
282.312	1.77
282.528	4.58
282.744	-11.87
282.96	-25.04
283.176	-28.21
283.392	-48.02
283.608	-37.49
283.824	-34.92
284.04	-70.87
284.256	-40.77
284.471	-30.53
284.687	-34.53
284.903	-18.04
285.119	1.93
285.335	-0.36
285.551	18.11
285.767	11.96
285.982	20.57
286.198	4.29
286.414	19.09
286.63	-7.29
286.846	8.22
287.061	-12.03
287.277	-6.47
287.493	-0.93
287.709	-8.48
287.924	3.58
288.14	6.93
288.356	13.8
288.571	-2.52
288.787	-7.07
289.003	2.98
289.218	-2.99
289.434	-0.92
289.65	16.04
289.865	22.09
290.081	13.48
290.296	24.02
290.512	26.38
290.727	22.77
290.943	23.9
291.159	23.2
291.374	-1.04
291.59	-4.92
291.805	-17.06
292.021	-16.25
292.236	-9.21
292.451	18.01
292.667	28.38
292.882	43.97
293.098	47.4
293.313	24.64
293.529	28.22
293.744	8.87
293.959	7.49
294.175	12.13
294.39	20.32
294.605	22.41
294.821	20.68
295.036	19.59
295.251	14.58
295.467	5.82
295.682	2.65
295.897	6.37
296.112	-3.52
296.328	2.84
296.543	7.58
296.758	5.57
296.973	-6.77
297.188	-1.56
297.404	-18.16
297.619	-44.6
297.834	-66.9
298.049	-7.01
298.264	-6.02
298.479	1.28
298.694	40.99
298.909	51.54
299.125	39.42
299.34	46.37
299.555	50.2
299.77	47
299.985	36.57
300.2	45.67
300.415	43.02
300.63	38.89
300.845	26.35
301.06	30.63
301.275	18.87
301.49	7.69
301.704	10.18
301.919	4.79
302.134	3.92
302.349	-3.03
302.564	-0.76
302.779	-1.11
302.994	7.77
303.209	7.95
303.423	17.36
303.638	29.24
303.853	-1.98
304.068	-4.49
304.283	-2.64
304.497	-21.38
304.712	-10.32
304.927	7.39
305.142	8.84
305.356	20.59
305.571	28.87
305.786	19.13
306	29.26
306.215	30.71
306.43	7.69
306.644	-1.61
306.859	-5.19
307.074	18.02
307.288	18.94
307.503	27.94
307.717	33.27
307.932	39.37
308.147	19.39
308.361	10.27
308.576	-13.41
308.79	-11.3
309.005	-38.1
309.219	-11.25
309.434	3.09
309.648	5.73
309.863	5.79
310.077	3.33
310.292	9.89
310.506	-7.5
310.72	12.87
310.935	23.43
311.149	42.91
311.364	36.17
311.578	37.47
311.792	22.65
312.007	18.9
312.221	-4.55
312.435	-9.78
312.649	9.96
312.864	25.42
313.078	18.31
313.292	21.68
313.507	29.31
313.721	11.24
313.935	-11.08
314.149	2.09
314.363	3.43
314.578	-5.02
314.792	-8.83
315.006	-0.41
315.22	12.86
315.434	17.67
315.648	22.7
315.862	11.57
316.077	3.49
316.291	-9.99
316.505	-43.04
316.719	-41.29
316.933	-20.99
317.147	-11.8
317.361	-18.91
317.575	-1.55
317.789	-0.28
318.003	-4.17
318.217	-0.3
318.431	1.19
318.645	-2.43
318.859	3.65
319.073	19.23
319.287	18.12
319.5	19.7
319.714	16.28
319.928	15.39
320.142	-6.99
320.356	-0.83
320.57	-14.41
320.784	-7.96
320.997	-33.49
321.211	4.75
321.425	-5.98
321.639	3.82
321.853	15.8
322.066	17.15
322.28	8.18
322.494	7.44
322.707	18.18
322.921	5.89
323.135	21.86
323.349	17.93
323.562	34.55
323.776	25.08
323.989	43.65
324.203	22.03
324.417	23.5
324.63	3.64
324.844	-4.91
325.057	-44.98
325.271	-16.38
325.485	-18.1
325.698	5.66
325.912	16.44
326.125	13.54
326.339	23.33
326.552	12.23
326.766	-13.23
326.979	-7.87
327.193	9.33
327.406	-27.36
327.619	-3.09
327.833	10.95
328.046	11.81
328.26	10.44
328.473	24.38
328.686	16.23
328.9	22.51
329.113	13.31
329.326	11.11
329.54	28.78
329.753	34.68
329.966	29.7
330.179	30.26
330.393	28.73
330.606	19.72
330.819	11.08
331.032	11.05
331.246	23.26
331.459	35.45
331.672	33.37
331.885	41.1
332.098	44.15
332.311	29.9
332.525	29.45
332.738	30.67
332.951	17.76
333.164	18.15
333.377	20
333.59	-1.19
333.803	-6.91
334.016	-4.31
334.229	-4.17
334.442	-2.07
334.655	2.6
334.868	5.86
335.081	7.81
335.294	10.23
335.507	15.66
335.72	18.4
335.933	8.1
336.146	14.3
336.359	27.67
336.572	23.73
336.785	37.54
336.997	35.4
337.21	52.45
337.423	21.3
337.636	22.05
337.849	-12.59
338.062	-5.35
338.274	-5.02
338.487	-17.18
338.7	-33.99
338.913	-8.12
339.125	-8.75
339.338	-18.89
339.551	-12.42
339.763	-12.1
339.976	-25.63
340.189	-21.44
340.402	-4.08
340.614	22.59
340.827	37.33
341.039	47.6
341.252	28.38
341.465	2.2
341.677	-5.9
341.89	-15.72
342.102	-5.59
342.315	5.34
342.527	21.87
342.74	9.91
342.952	15.94
343.165	5.15
343.377	14.81
343.59	19.01
343.802	25.3
344.015	20.42
344.227	30.4
344.44	23.86
344.652	14.18
344.864	17.25
345.077	26.86
345.289	22.43
345.502	29.14
345.714	28.61
345.926	23.83
346.139	7.28
346.351	3.62
346.563	20.57
346.775	31.13
346.988	33.31
347.2	54.07
347.412	59.01
347.624	34.51
347.837	27.55
348.049	20.32
348.261	-11.65
348.473	-32.04
348.685	-29.95
348.897	-31.29
349.11	-11.9
349.322	14.17
349.534	20.46
349.746	19.42
349.958	-2.1
350.17	-18.38
350.382	-15.58
350.594	3.44
350.806	20.01
351.018	37.67
351.23	42.5
351.442	48.18
351.654	32.91
351.866	14.52
352.078	18.05
352.29	10.25
352.502	0.97
352.714	0.81
352.926	9.65
353.138	15.42
353.35	9.38
353.561	9.2
353.773	6.26
353.985	4.2
354.197	-5.71
354.409	-0.19
354.621	-19.93
354.832	-7.55
355.044	-15.48
355.256	-16.1
355.468	-21.14
355.679	10.7
355.891	10.01
356.103	9.63
356.314	12.38
356.526	5.43
356.738	-21.81
356.949	-20.86
357.161	-9.14
357.373	-6.35
357.584	6.86
357.796	19.37
358.008	23.04
358.219	25.39
358.431	13.11
358.642	12.94
358.854	11.6
359.065	-4.17
359.277	2.59
359.488	8.89
359.7	4.14
359.911	3.93
360.123	12.96
360.334	-7.33
360.546	-8.02
360.757	-6.8
360.969	-9.2
361.18	-19.96
361.391	0.18
361.603	10.25
361.814	14.95
362.025	19.66
362.237	24.49
362.448	26.26
362.659	18.72
362.871	5.34
363.082	-2.27
363.293	-6.63
363.504	-26.34
363.716	-27.98
363.927	3.75
364.138	0.23
364.349	-5.58
364.56	-13.71
364.772	10.03
364.983	-0.77
365.194	-5.36
365.405	-3.91
365.616	18.11
365.827	0.49
366.038	5.79
366.25	17.37
366.461	28.37
366.672	27.55
366.883	24.55
367.094	14.13
367.305	0.82
367.516	-6.62
367.727	-19.16
367.938	-17.96
368.149	-10.97
368.36	-5.97
368.571	-24.02
368.781	-24.22
368.992	-13.97
369.203	-17.59
369.414	-19.86
369.625	-17.2
369.836	5.14
370.047	-3.2
370.258	0.48
370.468	-3.56
370.679	11.18
370.89	-20.62
371.101	1.43
371.312	-4.94
371.522	1.1
371.733	-11.66
371.944	-3.44
372.155	-0.28
372.365	6.39
372.576	-2.26
372.787	21.54
372.997	19.21
373.208	8.06
373.419	2.35
373.629	7.05
373.84	-8.89
374.05	-9.66
374.261	-20.12
374.472	-8.18
374.682	-3.3
374.893	-16.36
375.103	-7.24
375.314	4.99
375.524	-7.26
375.735	8.73
375.945	23.13
376.156	17.96
376.366	24.14
376.577	37.19
376.787	27.22
376.997	26.36
377.208	28.86
377.418	17.04
377.629	14.55
377.839	15.37
378.049	15.39
378.26	4.27
378.47	4.23
378.68	5.14
378.89	9.75
379.101	10.79
379.311	22.2
379.521	15.25
379.732	17.4
379.942	4.25
380.152	-8.49
380.362	-2.96
380.572	13.84
380.783	9.75
380.993	19.84
381.203	23.99
381.413	18.19
381.623	15.55
381.833	12.59
382.043	1.46
382.253	5.1
382.463	17.02
382.674	12.15
382.884	10.97
383.094	12.45
383.304	8.52
383.514	-2.86
383.724	-6.49
383.934	-5.42
384.144	1.29
384.353	1.69
384.563	6.67
384.773	14.97
384.983	15.4
385.193	12.45
385.403	13.59
385.613	11.36
385.823	6.58
386.033	9.9
386.242	7.4
386.452	4.43
386.662	4.93
386.872	7.61
387.082	2.47
387.291	-1.11
387.501	3.9
387.711	8.22
387.921	4.8
388.13	7.9
388.34	11.7
388.55	6.79
388.759	-1.25
388.969	-3.15
389.179	-5.13
389.388	-4.24
389.598	-7.28
389.807	-6.49
390.017	-6.01
390.227	-6.03
390.436	-5.01
390.646	-1.25
390.855	0.8
391.065	3.53
391.274	3.94
391.484	2.75
391.693	0.75
391.903	-0.43
392.112	-3.26
392.322	-3.66
392.531	-3.8
392.74	-1.88
392.95	0.41
393.159	2.57
393.369	3.51
393.578	4.65
393.787	4.14
393.997	3.32
394.206	0.67
394.415	0.96
394.625	1.38
394.834	1.98
395.043	2
395.252	5.4
395.462	5.61
395.671	4.55
395.88	4.52
396.089	4.85
396.298	4.04
396.508	3.44
396.717	3.48
396.926	3.14
397.135	3.39
397.344	3.41
397.553	3.64
397.762	4.51
397.971	4.45
398.181	4.05
398.39	3.72
398.599	3.91
398.808	3.57
399.017	4.57
399.226	4.69
399.435	4.69
399.644	4.81
399.853	4.81
400.062	4.42
400.27	4.55
400.479	4.79
400.688	4.89
400.897	4.86
401.106	4.86
401.315	4.62
401.524	4.66
401.733	4.38
401.941	4.94
402.15	4.98
402.359	5.17
402.568	5.35
402.777	5.36
402.985	4.88
403.194	4.64
403.403	4.58
403.612	4.16
403.82	4.13
404.029	4.26
404.238	4.36
404.446	4.59
404.655	4.65
404.864	4.74
405.072	4.64
405.281	4.73
405.489	4.46
405.698	4.4
405.906	4.49
406.115	4.46
406.324	4.4
406.532	4.54
406.741	4.55
406.949	4.44
407.158	4.55
407.366	4.38
407.574	4.32
407.783	4.45
407.991	4.48
408.2	4.46
408.408	4.5
408.617	4.49
408.825	4.36
409.033	4.36
409.242	4.29
409.45	4.38
409.658	4.39
409.867	4.48
410.075	4.43
410.283	4.36
410.491	4.23
410.7	4.14
410.908	4.2
411.116	4.32
411.324	4.31
411.533	4.41
411.741	4.45
411.949	4.43
412.157	4.34
412.365	4.41
412.573	4.39
412.781	4.32
412.99	4.16
413.198	4.06
413.406	4.06
413.614	4.02
413.822	4.11
414.03	4.2
414.238	4.34
414.446	4.35
414.654	4.34
414.862	4.19
415.07	4.09
415.278	3.94
415.486	3.77
415.694	3.74
415.902	3.77
416.109	3.82
416.317	3.94
416.525	3.93
416.733	3.88
416.941	3.93
417.149	3.85
417.357	3.76
417.564	3.84
417.772	3.98
417.98	4.07
418.188	4.07
418.395	3.92
418.603	3.85
418.811	3.67
419.019	3.6
419.226	3.64
419.434	3.79
419.642	3.78
419.849	3.81
420.057	3.69
420.265	3.7
420.472	3.63
420.68	3.71
420.887	3.75
421.095	3.87
421.302	4.02
421.51	3.93
421.717	3.85
421.925	3.83
422.132	3.73
422.34	3.39
422.547	3.51
422.755	3.57
422.962	3.59
423.17	3.55
423.377	3.82
423.585	3.94
423.792	3.86
423.999	3.86
424.207	3.72
424.414	3.5
424.621	3.39
424.829	3.48
425.036	3.55
425.243	3.88
425.451	3.92
425.658	3.88
425.865	3.74
426.072	3.64
426.28	3.57
426.487	3.66
426.694	3.66
426.901	3.73
427.108	3.78
427.315	3.64
427.523	3.51
427.73	3.59
427.937	3.34
428.144	3.28
428.351	3.3
428.558	3.34
428.765	3.23
428.972	3.4
429.179	3.32
429.386	3.29
429.593	3.24
429.8	3.16
430.007	3.37
430.214	3.37
430.421	3.49
430.628	3.6
430.835	3.67
431.042	3.45
431.249	3.49
431.456	3.42
431.662	3.45
431.869	3.63
432.076	3.7
432.283	3.92
432.49	3.95
432.697	3.88
432.903	3.81
433.11	3.98
433.317	3.97
433.524	4.06
433.73	4.06
433.937	4.2
434.144	4.01
434.35	3.88
434.557	3.81
434.764	3.83
434.97	3.62
435.177	3.73
435.384	3.87
435.59	3.97
435.797	4.14
436.003	4.23
436.21	4.15
436.416	4.1
436.623	3.97
436.829	3.82
437.036	3.82
437.242	3.95
437.449	3.83
437.655	3.99
437.862	4.19
438.068	4.18
438.275	4.21
438.481	4.24
438.687	4.17
438.894	4.18
439.1	4.14
439.307	4.25
439.513	4.38
439.719	4.47
439.926	4.36
440.132	4.53
440.338	4.46
440.544	4.34
440.751	4.25
440.957	4.36
441.163	4.23
441.369	4.12
441.575	4.15
441.782	4.23
441.988	4.21
442.194	4.16
442.4	4.27
442.606	4.44
442.812	4.48
443.018	4.43
443.224	4.6
443.431	4.55
443.637	4.35
443.843	4.34
444.049	4.38
444.255	4.33
444.461	4.27
444.667	4.38
444.873	4.32
445.079	4.29
445.284	4.29
445.49	4.3
445.696	4.31
445.902	4.33
446.108	4.44
446.314	4.52
446.52	4.61
446.726	4.66
446.931	4.63
447.137	4.61
447.343	4.65
447.549	4.64
447.755	4.58
447.96	4.68
448.166	4.7
448.372	4.66
448.578	4.63
448.783	4.66
448.989	4.72
449.195	4.68
449.4	4.74
449.606	4.76
449.812	4.69
450.017	4.6
450.223	4.57
450.428	4.51
450.634	4.48
450.84	4.56
451.045	4.66
451.251	4.7
451.456	4.84
451.662	4.97
451.867	4.98
452.073	4.99
452.278	5.01
452.483	4.88
452.689	4.8
452.894	4.92
453.1	4.84
453.305	4.9
453.51	4.97
453.716	4.94
453.921	4.8
454.127	4.86
454.332	4.74
454.537	4.72
454.742	4.76
454.948	4.77
455.153	4.75
455.358	4.68
455.563	4.62
455.769	4.58
455.974	4.51
456.179	4.49
456.384	4.51
456.589	4.43
456.795	4.44
457	4.49
457.205	4.43
457.41	4.49
457.615	4.59
457.82	4.7
458.025	4.74
458.23	4.81
458.435	4.88
458.64	4.84
458.845	4.83
459.05	4.87
459.255	4.94
459.46	4.78
459.665	4.78
459.87	4.73
460.075	4.76
460.28	4.76
460.485	4.95
460.69	4.98
460.895	5.02
461.099	4.96
461.304	4.85
461.509	4.86
461.714	4.95
461.919	4.9
462.123	4.92
462.328	4.92
462.533	4.87
462.738	4.8
462.942	4.84
463.147	4.87
463.352	4.92
463.556	4.93
463.761	4.94
463.966	4.94
464.17	4.97
464.375	5
464.58	5
464.784	5.06
464.989	5.01
465.193	4.93
465.398	4.97
465.602	5.09
465.807	5.07
466.011	5.11
466.216	5.07
466.42	5.04
466.625	5.03
466.829	5.05
467.034	5.17
467.238	5.45
467.443	5.45
467.647	5.38
467.851	5.42
468.056	5.42
468.26	5.34
468.464	5.42
468.669	5.53
468.873	5.47
469.077	5.4
469.282	5.39
469.486	5.27
469.69	5.29
469.894	5.36
470.099	5.44
470.303	5.45
470.507	5.58
470.711	5.5
470.915	5.48
471.119	5.45
471.324	5.49
471.528	5.52
471.732	5.63
471.936	5.67
472.14	5.68
472.344	5.74
472.548	5.73
472.752	5.61
472.956	5.62
473.16	5.63
473.364	5.56
473.568	5.48
473.772	5.56
473.976	5.68
474.18	5.73
474.384	5.75
474.588	5.87
474.792	5.9
474.995	5.81
475.199	5.78
475.403	5.81
475.607	5.84
475.811	5.86
476.015	5.78
476.218	5.79
476.422	5.76
476.626	5.75
476.83	5.8
477.033	5.93
477.237	5.97
477.441	6.02
477.644	5.99
477.848	5.97
478.052	5.96
478.255	5.93
478.459	5.95
478.663	6.07
478.866	6.09
479.07	6.09
479.273	6.15
479.477	6.16
479.681	6.1
479.884	6.15
480.088	6.19
480.291	6.21
480.495	6.14
480.698	6.18
480.901	6.08
481.105	6.03
481.308	6.02
481.512	6.11
481.715	6.07
481.919	6.17
482.122	6.17
482.325	6.21
482.529	6.2
482.732	6.25
482.935	6.19
483.138	6.22
483.342	6.18
483.545	6.25
483.748	6.25
483.952	6.35
484.155	6.45
484.358	6.44
484.561	6.4
484.764	6.41
484.967	6.32
485.171	6.24
485.374	6.24
485.577	6.23
485.78	6.21
485.983	6.21
486.186	6.24
486.389	6.28
486.592	6.27
486.795	6.34
486.998	6.31
487.201	6.33
487.404	6.37
487.607	6.42
487.81	6.37
488.013	6.41
488.216	6.44
488.419	6.35
488.622	6.34
488.825	6.35
489.028	6.44
489.231	6.38
489.433	6.39
489.636	6.41
489.839	6.42
490.042	6.36
490.245	6.38
490.447	6.4
490.65	6.38
490.853	6.34
491.056	6.31
491.258	6.28
491.461	6.25
491.664	6.2
491.866	6.21
492.069	6.33
492.272	6.31
492.474	6.36
492.677	6.43
492.879	6.42
493.082	6.37
493.285	6.44
493.487	6.44
493.69	6.39
493.892	6.38
494.095	6.31
494.297	6.34
494.5	6.32
494.702	6.38
494.905	6.43
495.107	6.46
495.309	6.45
495.512	6.47
495.714	6.49
495.917	6.51
496.119	6.53
496.321	6.52
496.524	6.47
496.726	6.41
496.928	6.37
497.13	6.36
497.333	6.31
497.535	6.37
497.737	6.36
497.939	6.41
498.142	6.38
498.344	6.46
498.546	6.45
498.748	6.55
498.95	6.56
499.152	6.63
499.355	6.59
499.557	6.67
499.759	6.75
499.961	6.76
500.163	6.76
500.365	6.8
500.567	6.73
500.769	6.71
500.971	6.71
501.173	6.67
501.375	6.75
501.577	6.76
501.779	6.75
501.981	6.79
502.183	6.86
502.385	6.82
502.587	6.88
502.788	6.9
502.99	6.88
503.192	6.91
503.394	6.92
503.596	6.91
503.798	6.85
503.999	6.86
504.201	6.83
504.403	6.81
504.605	6.82
504.806	6.84
505.008	6.87
505.21	6.93
505.411	6.96
505.613	6.98
505.815	7.04
506.016	7.06
506.218	7.06
506.42	7.1
506.621	7.17
506.823	7.16
507.024	7.17
507.226	7.19
507.427	7.23
507.629	7.22
507.83	7.28
508.032	7.34
508.233	7.36
508.435	7.32
508.636	7.38
508.838	7.37
509.039	7.35
509.24	7.36
509.442	7.38
509.643	7.36
509.845	7.36
510.046	7.43
510.247	7.44
510.448	7.48
510.65	7.54
510.851	7.54
511.052	7.52
511.254	7.55
511.455	7.52
511.656	7.45
511.857	7.46
512.058	7.54
512.26	7.54
512.461	7.6
512.662	7.66
512.863	7.64
513.064	7.6
513.265	7.57
513.466	7.63
513.667	7.61
513.868	7.61
514.069	7.55
514.27	7.59
514.471	7.53
514.672	7.59
514.873	7.63
515.074	7.77
515.275	7.76
515.476	7.83
515.677	7.85
515.878	7.93
516.079	7.87
516.28	7.93
516.481	7.91
516.682	7.9
516.882	7.82
517.083	7.83
517.284	7.83
517.485	7.8
517.686	7.82
517.886	7.86
518.087	7.82
518.288	7.84
518.488	7.89
518.689	7.89
518.89	7.93
519.091	8.04
519.291	7.96
519.492	7.98
519.692	8.02
519.893	8.03
520.094	7.98
520.294	8.07
520.495	8.07
520.695	8.05
520.896	8.05
521.096	8.11
521.297	8.15
521.497	8.15
521.698	8.18
521.898	8.21
522.099	8.22
522.299	8.18
522.499	8.17
522.7	8.18
522.9	8.15
523.101	8.13
523.301	8.17
523.501	8.17
523.702	8.16
523.902	8.16
524.102	8.23
524.302	8.26
524.503	8.28
524.703	8.29
524.903	8.31
525.103	8.27
525.304	8.24
525.504	8.33
525.704	8.34
525.904	8.32
526.104	8.36
526.304	8.38
526.504	8.33
526.705	8.34
526.905	8.36
527.105	8.31
527.305	8.33
527.505	8.34
527.705	8.34
527.905	8.42
528.105	8.45
528.305	8.44
528.505	8.44
528.705	8.55
528.905	8.55
529.105	8.59
529.304	8.59
529.504	8.64
529.704	8.54
529.904	8.57
530.104	8.56
530.304	8.61
530.503	8.63
530.703	8.64
530.903	8.62
531.103	8.64
531.303	8.62
531.502	8.63
531.702	8.69
531.902	8.75
532.101	8.8
532.301	8.85
532.501	8.91
532.7	8.94
532.9	8.97
533.1	8.92
533.299	8.95
533.499	8.86
533.698	8.84
533.898	8.82
534.097	8.9
534.297	8.85
534.496	8.9
534.696	8.97
534.895	9.02
535.095	9.02
535.294	9.14
535.494	9.14
535.693	9.17
535.892	9.18
536.092	9.17
536.291	9.16
536.491	9.25
536.69	9.28
536.889	9.24
537.088	9.29
537.288	9.31
537.487	9.31
537.686	9.27
537.886	9.34
538.085	9.36
538.284	9.43
538.483	9.42
538.682	9.41
538.882	9.39
539.081	9.43
539.28	9.4
539.479	9.48
539.678	9.55
539.877	9.62
540.076	9.62
540.275	9.67
540.474	9.62
540.673	9.7
540.872	9.75
541.071	9.77
541.27	9.8
541.469	9.87
541.668	9.87
541.867	9.93
542.066	10.01
542.265	10.07
542.464	10.11
542.663	10.17
542.862	10.26
543.06	10.38
543.259	10.5
543.458	10.58
543.657	10.7
543.856	10.67
544.054	10.64
544.253	10.65
544.452	10.69
544.651	10.65
544.849	10.64
545.048	10.68
545.247	10.67
545.445	10.69
545.644	10.74
545.843	10.78
546.041	10.76
546.24	10.79
546.438	10.84
546.637	10.91
546.836	11.03
547.034	11.13
547.233	11.24
547.431	11.3
547.63	11.32
547.828	11.33
548.027	11.42
548.225	11.38
548.423	11.39
548.622	11.49
548.82	11.5
549.019	11.52
549.217	11.68
549.415	11.75
549.614	11.86
549.812	11.97
550.01	11.99
550.209	12.06
550.407	12.14
550.605	12.03
550.803	12.06
551.002	12.18
551.2	12.16
551.398	12.29
551.596	12.44
551.794	12.52
551.993	12.56
552.191	12.69
552.389	12.68
552.587	12.79
552.785	12.82
552.983	12.97
553.181	13.02
553.379	13.1
553.577	13.14
553.775	13.33
553.973	13.34
554.171	13.4
554.369	13.54
554.567	13.58
554.765	13.54
554.963	13.63
555.161	13.74
555.359	13.78
555.557	13.9
555.755	14.05
555.952	14.19
556.15	14.3
556.348	14.36
556.546	14.48
556.744	14.53
556.941	14.57
557.139	14.63
557.337	14.78
557.535	14.8
557.732	14.89
557.93	15.04
558.128	15.09
558.325	15.19
558.523	15.33
558.721	15.43
558.918	15.49
559.116	15.65
559.313	15.75
559.511	15.86
559.708	16.02
559.906	16.1
560.104	16.16
560.301	16.27
560.498	16.43
560.696	16.5
560.893	16.63
561.091	16.73
561.288	16.81
561.486	16.79
561.683	16.92
561.88	17.13
562.078	17.29
562.275	17.37
562.473	17.47
562.67	17.56
562.867	17.55
563.064	17.54
563.262	17.59
563.459	17.75
563.656	17.85
563.853	17.94
564.051	18.18
564.248	18.28
564.445	18.4
564.642	18.5
564.839	18.61
565.036	18.72
565.234	18.88
565.431	19
565.628	19.03
565.825	19.06
566.022	19.11
566.219	19.2
566.416	19.23
566.613	19.37
566.81	19.48
567.007	19.56
567.204	19.66
567.401	19.77
567.598	19.86
567.795	19.99
567.991	20.03
568.188	20.1
568.385	20.21
568.582	20.32
568.779	20.38
568.976	20.45
569.172	20.62
569.369	20.68
569.566	20.71
569.763	20.75
569.96	20.92
570.156	20.91
570.353	20.99
570.55	21.04
570.746	21.15
570.943	21.18
571.14	21.21
571.336	21.23
571.533	21.31
571.729	21.35
571.926	21.39
572.123	21.48
572.319	21.55
572.516	21.63
572.712	21.67
572.909	21.67
573.105	21.69
573.302	21.67
573.498	21.58
573.695	21.57
573.891	21.62
574.087	21.55
574.284	21.67
574.48	21.75
574.677	21.83
574.873	21.86
575.069	22
575.266	22
575.462	22.02
575.658	22.06
575.854	22.17
576.051	22.16
576.247	22.2
576.443	22.32
576.639	22.3
576.835	22.18
577.032	22.18
577.228	22.2
577.424	22.07
577.62	22.07
577.816	22.07
578.012	22.07
578.208	22.05
578.404	22.14
578.6	22.23
578.796	22.27
578.993	22.36
579.189	22.38
579.384	22.35
579.58	22.25
579.776	22.34
579.972	22.28
580.168	22.31
580.364	22.4
580.56	22.35
580.756	22.28
580.952	22.23
581.148	22.22
581.343	22.14
581.539	22.23
581.735	22.16
581.931	22.06
582.127	21.97
582.322	21.89
582.518	21.87
582.714	21.98
582.909	22.04
583.105	22.05
583.301	22.08
583.496	22.03
583.692	21.92
583.888	21.91
584.083	21.86
584.279	21.8
584.474	21.8
584.67	21.7
584.866	21.77
585.061	21.79
585.257	21.82
585.452	21.77
585.648	21.79
585.843	21.74
586.039	21.74
586.234	21.78
586.429	21.8
586.625	21.89
586.82	21.91
587.015	21.91
587.211	21.88
587.406	21.93
587.601	21.91
587.797	21.82
587.992	21.78
588.187	21.72
588.383	21.7
588.578	21.76
588.773	21.88
588.968	21.9
589.163	22.02
589.359	21.97
589.554	21.91
589.749	21.9
589.944	22.02
590.139	21.98
590.334	22.04
590.529	22.09
590.724	22.18
590.919	22.15
591.114	22.18
591.309	22.23
591.504	22.27
591.699	22.22
591.894	22.22
592.089	22.22
592.284	22.28
592.479	22.3
592.674	22.36
592.869	22.41
593.064	22.51
593.259	22.58
593.454	22.6
593.648	22.62
593.843	22.61
594.038	22.72
594.233	22.72
594.428	22.88
594.622	23.03
594.817	23.2
595.012	23.22
595.206	23.29
595.401	23.33
595.596	23.36
595.79	23.4
595.985	23.46
596.18	23.54
596.374	23.59
596.569	23.58
596.763	23.6
596.958	23.64
597.153	23.69
597.347	23.78
597.542	23.86
597.736	23.96
597.931	24.03
598.125	24.14
598.319	24.23
598.514	24.32
598.708	24.43
598.903	24.54
599.097	24.56
599.291	24.59
599.486	24.69
599.68	24.68
599.874	24.75
600.069	24.8
600.263	24.85
600.457	24.95
600.651	25.05
600.846	25.08
601.04	25.18
601.234	25.23
601.428	25.18
601.622	25.2
601.817	25.2
602.011	25.17
602.205	25.2
602.399	25.21
602.593	25.27
602.787	25.33
602.981	25.33
603.175	25.36
603.369	25.34
603.563	25.41
603.757	25.39
603.951	25.46
604.145	25.39
604.339	25.44
604.533	25.33
604.727	25.33
604.921	25.21
605.115	25.23
605.309	25.16
605.502	25.13
605.696	25.08
605.89	25.17
606.084	25.14
606.278	25.21
606.471	25.11
606.665	25.06
606.859	25.01
607.053	24.91
607.246	24.75
607.44	24.75
607.634	24.76
607.827	24.6
608.021	24.55
608.214	24.51
608.408	24.38
608.602	24.28
608.795	24.35
608.989	24.42
609.182	24.34
609.376	24.29
609.569	24.23
609.763	24.14
609.956	24.08
610.15	24.02
610.343	24.03
610.537	23.9
610.73	23.62
610.923	23.44
611.117	23.38
611.31	23.26
611.504	23.19
611.697	23.21
611.89	23.09
612.083	22.93
612.277	22.94
612.47	22.84
612.663	22.77
612.856	22.64
613.05	22.6
613.243	22.42
613.436	22.32
613.629	22.29
613.822	22.28
614.015	22.21
614.209	22.08
614.402	22.07
614.595	22
614.788	21.88
614.981	21.81
615.174	21.69
615.367	21.57
615.56	21.38
615.753	21.41
615.946	21.36
616.139	21.41
616.332	21.43
616.525	21.44
616.718	21.37
616.911	21.38
617.103	21.36
617.296	21.28
617.489	21.18
617.682	21.19
617.875	21.07
618.067	21.02
618.26	20.92
618.453	20.93
618.646	20.89
618.838	20.82
619.031	20.75
619.224	20.75
619.417	20.76
619.609	20.64
619.802	20.65
619.994	20.67
620.187	20.62
620.38	20.52
620.572	20.47
620.765	20.46
620.957	20.26
621.15	20.14
621.342	20.11
621.535	20.05
621.727	19.88
621.92	19.89
622.112	19.89
622.305	19.86
622.497	19.9
622.69	19.94
622.882	20.01
623.074	20.07
623.267	20.09
623.459	20.01
623.651	19.96
623.844	19.94
624.036	19.92
624.228	19.86
624.42	19.78
624.613	19.89
624.805	19.77
624.997	19.74
625.189	19.81
625.381	19.81
625.574	19.66
625.766	19.66
625.958	19.64
626.15	19.56
626.342	19.6
626.534	19.63
626.726	19.62
626.918	19.52
627.11	19.46
627.302	19.36
627.494	19.3
627.686	19.28
627.878	19.27
628.07	19.26
628.262	19.25
628.454	19.21
628.646	19.13
628.838	19.24
629.029	19.11
629.221	19.05
629.413	18.99
629.605	18.99
629.797	18.86
629.989	18.86
630.18	18.88
630.372	18.91
630.564	18.9
630.755	18.82
630.947	18.77
631.139	18.68
631.33	18.62
631.522	18.57
631.714	18.51
631.905	18.49
632.097	18.49
632.289	18.47
632.48	18.4
632.672	18.41
632.863	18.38
633.055	18.48
633.246	18.47
633.438	18.47
633.629	18.46
633.821	18.44
634.012	18.4
634.203	18.37
634.395	18.33
634.586	18.35
634.777	18.41
634.969	18.34
635.16	18.35
635.351	18.41
635.543	18.33
635.734	18.19
635.925	18.14
636.117	18.13
636.308	18.12
636.499	18.13
636.69	18.27
636.881	18.23
637.073	18.24
637.264	18.18
637.455	18.15
637.646	18.05
637.837	18.04
638.028	18.02
638.219	18.01
638.41	18.05
638.601	18.02
638.792	18.09
638.983	18.05
639.174	17.98
639.365	18.03
639.556	17.93
639.747	17.8
639.938	17.82
640.129	17.84
640.32	17.68
640.511	17.74
640.701	17.83
640.892	17.75
641.083	17.76
641.274	17.8
641.465	17.8
641.655	17.65
641.846	17.64
642.037	17.57
642.228	17.5
642.418	17.48
642.609	17.59
642.8	17.6
642.99	17.62
643.181	17.63
643.372	17.54
643.562	17.44
643.753	17.35
643.943	17.22
644.134	17.13
644.324	17.18
644.515	17.2
644.705	17.22
644.896	17.27
645.086	17.26
645.277	17.19
645.467	17.13
645.658	17.06
645.848	16.99
646.038	17.01
646.229	17.05
646.419	17.01
646.61	17.06
646.8	17.08
646.99	17.01
647.18	16.9
647.371	16.91
647.561	16.79
647.751	16.83
647.941	16.78
648.132	16.79
648.322	16.67
648.512	16.74
648.702	16.77
648.892	16.85
649.082	16.88
649.272	16.88
649.462	16.87
649.653	16.75
649.843	16.6
650.033	16.64
650.223	16.7
650.413	16.72
650.603	16.76
650.793	16.86
650.983	16.73
651.172	16.72
651.362	16.55
651.552	16.44
651.742	16.3
651.932	16.27
652.122	16.2
652.312	16.16
652.502	16.04
652.691	16.03
652.881	15.96
653.071	15.87
653.261	15.87
653.45	15.79
653.64	15.68
653.83	15.6
654.019	15.47
654.209	15.34
654.399	15.29
654.588	15.23
654.778	15.1
654.968	15.02
655.157	14.89
655.347	14.78
655.536	14.64
655.726	14.5
655.915	14.29
656.105	14.16
656.294	13.96
656.484	13.74
656.673	13.64
656.863	13.6
657.052	13.47
657.241	13.38
657.431	13.36
657.62	13.24
657.809	13.05
657.999	12.86
658.188	12.7
658.377	12.51
658.567	12.39
658.756	12.24
658.945	12.09
659.134	11.88
659.324	11.6
659.513	11.39
659.702	11.22
659.891	11.14
660.08	11.09
660.269	10.98
660.458	10.86
660.648	10.69
660.837	10.61
661.026	10.35
661.215	10.27
661.404	10.17
661.593	10.1
661.782	9.9
661.971	9.82
662.16	9.76
662.349	9.57
662.538	9.43
662.726	9.29
662.915	9.25
663.104	9.12
663.293	9.1
663.482	9.02
663.671	8.93
663.86	8.86
664.048	8.88
664.237	8.69
664.426	8.66
664.615	8.61
664.803	8.49
664.992	8.4
665.181	8.45
665.369	8.25
665.558	8.24
665.747	8.27
665.935	8.16
666.124	8.14
666.312	8.22
666.501	8.14
666.69	8.1
666.878	8.13
667.067	7.99
667.255	7.87
667.444	7.89
667.632	7.89
667.82	7.79
668.009	7.84
668.197	7.96
668.386	7.91
668.574	7.86
668.762	7.81
668.951	7.74
669.139	7.74
669.327	7.71
669.516	7.72
669.704	7.83
669.892	7.91
670.08	7.89
670.269	8
670.457	8.05
670.645	7.94
670.833	8.05
671.021	8.14
671.21	8.19
671.398	8.17
671.586	8.25
671.774	8.32
671.962	8.28
672.15	8.31
672.338	8.41
672.526	8.48
672.714	8.35
672.902	8.53
673.09	8.65
673.278	8.82
673.466	9
673.654	9.15
673.842	9.18
674.03	9.16
674.218	9.16
674.405	9.22
674.593	9.37
674.781	9.35
674.969	9.53
675.157	9.56
675.344	9.56
675.532	9.55
675.72	9.57
675.908	9.52
676.095	9.55
676.283	9.74
676.471	9.82
676.658	10.04
676.846	10.14
677.033	10.15
677.221	10.03
677.409	10.08
677.596	10.23
677.784	10.4
677.971	10.56
678.159	10.72
678.346	10.72
678.534	10.69
678.721	10.83
678.909	10.99
679.096	11.25
679.283	11.45
679.471	11.65
679.658	11.76
679.846	11.87
680.033	12.09
680.22	12.29
680.408	12.21
680.595	12.25
680.782	12.36
680.969	12.35
681.157	12.37
681.344	12.59
681.531	12.63
681.718	12.66
681.905	12.62
682.093	12.81
682.28	13.05
682.467	13.35
682.654	13.44
682.841	13.57
683.028	13.67
683.215	13.91
683.402	13.94
683.589	14.27
683.776	14.55
683.963	14.89
684.15	14.98
684.337	15.25
684.524	15.44
684.711	15.82
684.898	15.99
685.085	16.24
685.271	16.5
685.458	16.75
685.645	16.89
685.832	17.1
686.019	17.19
686.205	17.54
686.392	18.06
686.579	18.43
686.766	18.72
686.952	19.26
687.139	19.68
687.326	19.87
687.512	20.19
687.699	20.64
687.886	21.01
688.072	21.22
688.259	21.6
688.445	22.29
688.632	22.76
688.818	23.35
689.005	23.9
689.191	24.42
689.378	24.51
689.564	25.11
689.751	25.51
689.937	26.25
690.124	26.8
690.31	27.42
690.496	27.91
690.683	28.69
690.869	29.13
691.055	29.74
691.242	30.34
691.428	31.06
691.614	31.6
691.8	32.08
691.987	32.97
692.173	33.78
692.359	34.54
692.545	35.4
692.731	36.25
692.918	36.74
693.104	37.56
693.29	37.96
693.476	38.47
693.662	39.13
693.848	39.69
694.034	40.41
694.22	41.26
694.406	41.92
694.592	42.66
694.778	43.28
694.964	43.9
695.15	44.47
695.336	45.19
695.522	45.69
695.708	46.78
695.894	47.47
696.08	48.37
696.265	49.02
696.451	49.7
696.637	50.14
696.823	50.73
697.009	51.21
697.194	51.81
697.38	52.71
697.566	53.19
697.751	53.58
697.937	54.53
698.123	55.04
698.308	55.24
698.494	56.15
698.68	57.09
698.865	57.29
699.051	58.05
699.236	58.79
699.422	59.18
699.607	59.81
699.793	60.88
699.978	61.4
700.164	62.1
700.349	62.55
700.535	62.76
700.72	62.82
700.906	63.24
701.091	63.99
701.276	64.74
701.462	65.39
701.647	65.74
701.832	66.18
702.018	66.43
702.203	66.54
702.388	66.98
702.573	67.76
702.759	68.43
702.944	68.36
703.129	68.8
703.314	69.07
703.499	69.27
703.684	69.39
703.87	69.99
704.055	70.67
704.24	71.09
704.425	71.37
704.61	71.98
704.795	72.68
704.98	72.88
705.165	73.09
705.35	73.51
705.535	73.83
705.72	73.51
705.905	74.05
706.09	74.66
706.275	74.82
706.459	75.01
706.644	75.57
706.829	75.59
707.014	75.83
707.199	76.47
707.384	76.75
707.568	77.19
707.753	77.59
707.938	77.58
708.123	77.77
708.307	78.03
708.492	78.31
708.677	78.4
708.861	78.83
709.046	78.18
709.231	77.73
709.415	77.66
709.6	77.78
709.784	77.86
709.969	78.89
710.153	79.45
710.338	80.04
710.522	80.51
710.707	80.41
710.891	80.44
711.076	80.64
711.26	80.66
711.445	80.46
711.629	80.84
711.813	80.86
711.998	80.94
712.182	80.91
712.366	81.53
712.551	81.88
712.735	82.11
712.919	82.55
713.103	83.01
713.288	82.9
713.472	83.08
713.656	83.27
713.84	83.44
714.024	83.55
714.208	83.3
714.393	83.43
714.577	83.62
714.761	83.76
714.945	83.78
715.129	83.98
715.313	83.72
715.497	83.69
715.681	83.24
715.865	82.84
716.049	83.13
716.233	83.12
716.417	83.09
716.601	83.11
716.785	83.53
716.968	83.65
717.152	84.09
717.336	84.33
717.52	84.88
717.704	85.08
717.888	85.39
718.071	85.05
718.255	85.21
718.439	85.15
718.622	85.22
718.806	85.24
718.99	85.51
719.174	85.71
719.357	86.3
719.541	86.51
719.724	86.53
719.908	86.79
720.092	86.45
720.275	86.62
720.459	86.82
720.642	86.63
720.826	86.71
721.009	86.75
721.193	86.32
721.376	86
721.559	86.19
721.743	86.24
721.926	86.51
722.11	86.87
722.293	87.42
722.476	87.15
722.66	87.9
722.843	87.9
723.026	87.75
723.21	87.27
723.393	88.13
723.576	87.51
723.759	88.09
723.942	88.35
724.126	88.51
724.309	88.02
724.492	88.52
724.675	88.05
724.858	88.12
725.041	88.47
725.224	89.23
725.407	89.15
725.59	89.33
725.774	89.09
725.957	89.16
726.14	88.25
726.322	88.47
726.505	88.29
726.688	88.63
726.871	88.31
727.054	88.75
727.237	88.25
727.42	88.31
727.603	88.19
727.786	88.67
727.968	89.18
728.151	89.24
728.334	90.08
728.517	90.2
728.699	90.09
728.882	90.28
729.065	90.15
729.248	89.65
729.43	89.85
729.613	89.49
729.796	88.87
729.978	89.16
730.161	89.5
730.343	89.17
730.526	90.46
730.708	90.79
730.891	91.12
731.073	90.98
731.256	91.66
731.438	91.72
731.621	91.84
731.803	91.68
731.986	91.81
732.168	92.04
732.35	92.11
732.533	91.79
732.715	91.93
732.898	91.69
733.08	91.39
733.262	90.83
733.444	91.45
733.627	91.63
733.809	92.29
733.991	92.22
734.173	92.41
734.355	92.02
734.538	92.11
734.72	91.7
734.902	92.38
735.084	92.18
735.266	92.95
735.448	93.31
735.63	93.32
735.812	93.38
735.994	93.29
736.176	92.57
736.358	93.26
736.54	94.5
736.722	93.71
736.904	93.56
737.086	93.15
737.268	92.7
737.45	92.67
737.632	93.66
737.814	94.75
737.995	95.5
738.177	94.95
738.359	94.45
738.541	93.78
738.723	93.2
738.904	93.09
739.086	93.78
739.268	93.34
739.449	93.44
739.631	93.27
739.813	93.85
739.994	93.16
740.176	93.87
740.358	94.07
740.539	94.55
740.721	94.7
740.902	94.97
741.084	94.89
741.265	95.4
741.447	95.88
741.628	96
741.81	96.87
741.991	97.25
742.172	96.32
742.354	96.38
742.535	96.22
742.717	94.81
742.898	93.97
743.079	95.56
743.261	95.12
743.442	94.19
743.623	94.37
743.804	94.67
743.986	93.63
744.167	93.42
744.348	93.71
744.529	94.04
744.71	93.5
744.891	93.36
745.073	93.4
745.254	93.9
745.435	94.44
745.616	95
745.797	94.67
745.978	95.19
746.159	94.48
746.34	94.15
746.521	94.63
746.702	95.27
746.883	95.38
747.064	95.52
747.245	95.9
747.426	95.24
747.606	94.55
747.787	94.32
747.968	94.34
748.149	92.67
748.33	92.61
748.51	91.81
748.691	91.78
748.872	92.35
749.053	92.88
749.233	92.56
749.414	93.94
749.595	93.12
749.775	92.33
749.956	92.43
750.137	92.93
750.317	91.12
750.498	91.03
750.678	91.34
750.859	92.07
751.04	91.75
751.22	92.44
751.4	93.51
751.581	93.69
751.761	94.37
751.942	95.24
752.122	95.22
752.303	94.43
752.483	94.15
752.663	93.9
752.844	92.82
753.024	94.66
753.204	94.54
753.385	94.47
753.565	93.22
753.745	92.4
753.925	90.12
754.106	90.69
754.286	90.06
754.466	90.13
754.646	91.95
754.826	94
755.006	93.32
755.187	95.14
755.367	95.01
755.547	93.92
755.727	92.79
755.907	92.71
756.087	91.22
756.267	89.69
756.447	90.97
756.627	90.61
756.807	92.26
756.987	92.45
757.167	94.71
757.346	93.97
757.526	94.23
757.706	92.8
757.886	93.11
758.066	92.04
758.246	90.16
758.425	90.4
758.605	89.13
758.785	90.52
758.965	91.38
759.144	91.87
759.324	93.12
759.504	95.44
759.683	92.89
759.863	92.86
760.043	92.72
760.222	92.25
760.402	89.4
760.581	90.29
760.761	88.89
760.94	89.33
761.12	87.89
761.299	89.49
761.479	89.63
761.658	90.73
761.838	91.72
762.017	92.27
762.197	90.16
762.376	90.12
762.555	90.02
762.735	88.64
762.914	88.71
763.093	90.43
763.273	90.15
763.452	89.37
763.631	89.73
763.81	89.49
763.99	89.47
764.169	89.22
764.348	89.67
764.527	89
764.706	87.5
764.885	88.56
765.064	88.54
765.243	87.69
765.423	88.48
765.602	90.05
765.781	87.16
765.96	87.47
766.139	87.8
766.318	88.99
766.497	88.68
766.676	88.91
766.854	88.83
767.033	88.19
767.212	87.71
767.391	87.44
767.57	90.83
767.749	90.31
767.928	92.38
768.106	90.11
768.285	89.54
768.464	88.07
768.643	88.17
768.821	86.17
769	86.9
769.179	87.65
769.357	87.94
769.536	86.65
769.715	86.09
769.893	86.68
770.072	84.67
770.25	82.09
770.429	82.45
770.607	83.54
770.786	82.02
770.964	83.89
771.143	85.59
771.321	85.93
771.5	86.83
771.678	87.68
771.857	85.45
772.035	86
772.213	85.75
772.392	82.34
772.57	82.62
772.748	82.82
772.927	82.54
773.105	83.74
773.283	84.88
773.461	85.29
773.64	85.94
773.818	84.49
773.996	84.45
774.174	86.77
774.352	86.93
774.531	86.92
774.709	86.77
774.887	83.7
775.065	82.92
775.243	81.49
775.421	81.71
775.599	83.21
775.777	83.23
775.955	82.2
776.133	82.31
776.311	81
776.489	79.26
776.667	78.66
776.844	78.59
777.022	78.26
777.2	79.74
777.378	79.51
777.556	82.59
777.734	84.38
777.911	84.88
778.089	85.56
778.267	87.62
778.445	88.14
778.622	87.61
778.8	87.44
778.978	85.51
779.155	84.74
779.333	84.5
779.511	83.56
779.688	82.62
779.866	85.5
780.043	86.08
780.221	87.79
780.398	88.31
780.576	90.53
780.753	88.2
780.931	88.52
781.108	87.58
781.286	87.72
781.463	85.37
781.64	85.66
781.818	85.68
781.995	84.64
782.172	83.77
782.35	86.87
782.527	86.37
782.704	85.59
782.882	82.49
783.059	83.18
783.236	81.54
783.413	79.8
783.59	78.82
783.768	79.43
783.945	78.47
784.122	78.28
784.299	79.78
784.476	76.84
784.653	77.28
784.83	77.67
785.007	75.72
785.184	74.55
785.361	79.41
785.538	79.1
785.715	79.84
785.892	80.51
786.069	81.92
786.246	79.44
786.423	82.61
786.6	84.04
786.776	84.63
786.953	84.25
787.13	84.94
787.307	80.84
787.484	76.03
787.66	74.06
787.837	75.08
788.014	75.1
788.191	78.25
788.367	77.28
788.544	79.56
788.721	78.79
788.897	79.64
789.074	77.7
789.25	83.2
789.427	80.62
789.603	80.01
789.78	76.88
789.956	74.15
790.133	70.3
790.309	72.88
790.486	71.65
790.662	72.29
790.839	74.53
791.015	78.29
791.192	77.08
791.368	78.91
791.544	79.68
791.721	81.71
791.897	80.42
792.073	78.89
792.249	79.43
792.426	77.01
792.602	76.38
792.778	73.35
792.954	76.13
793.13	78
793.307	81.61
793.483	76.5
793.659	74.8
793.835	78.2
794.011	77.92
794.187	75.56
794.363	78.81
794.539	83.94
794.715	80.79
794.891	81.31
795.067	80.53
795.243	79.56
795.419	79.91
795.595	82.83
795.771	74.34
795.947	77.64
796.122	78.82
796.298	76.48
796.474	79.35
796.65	85.97
796.826	84.12
797.001	80.74
797.177	74.15
797.353	69.93
797.529	71.19
797.704	72.52
797.88	76.49
798.056	78.92
798.231	75.41
798.407	73.1
798.582	73.06
798.758	72.97
798.934	75.94
799.109	78.84
799.285	81.01
799.46	76.72
799.636	76.45
799.811	81.47
799.986	80.18
800.162	74.84
800.337	81.51
800.513	82.3
800.688	75.91
800.863	83.19
801.039	90.32
801.214	85.92
801.389	81.13
801.565	82.05
801.74	75.42
801.915	71.58
802.09	70.59
802.265	74.61
802.441	77.91
802.616	78.89
802.791	78.33
802.966	79.98
803.141	80.14
803.316	79.85
803.491	79.02
803.666	80.68
803.841	79.01
804.016	76.16
804.191	72.58
804.366	73.48
804.541	73.92
804.716	71.17
804.891	70.68
805.066	72.74
805.241	67.77
805.416	68.92
805.591	70.8
805.765	78.25
805.94	78.2
806.115	81.79
806.29	80.84
806.464	79.95
806.639	73.79
806.814	68.8
806.989	70.76
807.163	72.2
807.338	71.97
807.512	70.75
807.687	75.28
807.862	73.59
808.036	78.73
808.211	86.53
808.385	92.63
808.56	90.25
808.734	78.65
808.909	72.93
809.083	73.21
809.258	71.68
809.432	77.33
809.606	91.14
809.781	90.02
809.955	86.16
810.13	79.59
810.304	71.4
810.478	68.86
810.652	65.28
810.827	61.39
811.001	64.7
811.175	69.14
811.349	70.38
811.524	76.34
811.698	74.66
811.872	77.61
812.046	71.14
812.22	69.74
812.394	69.34
812.568	73.33
812.742	71.87
812.916	78.69
813.09	71.94
813.264	70.22
813.438	68.35
813.612	64.28
813.786	65.3
813.96	75.71
814.134	70.14
814.308	66.11
814.482	68.51
814.656	61.82
814.83	58.15
815.003	63.84
815.177	68.16
815.351	70.47
815.525	71.89
815.698	67.34
815.872	61.19
816.046	57.26
816.219	60.44
816.393	54.45
816.567	55.02
816.74	54.1
816.914	51.13
817.088	53.29
817.261	54.1
817.435	61.37
817.608	66.86
817.782	78.1
817.955	69.5
818.129	76.72
818.302	78.4
818.475	70.35
818.649	68.38
818.822	64.95
818.996	71.11
819.169	66.91
819.342	76.05
819.516	81.27
819.689	82.02
819.862	75.47
820.035	82.99
820.209	72.22
820.382	63.66
820.555	55.2
820.728	53.7
820.901	42.41
821.075	49.82
821.248	50.64
821.421	64.31
821.594	62.81
821.767	69.42
821.94	62.89
822.113	69.47
822.286	69.86
822.459	70.28
822.632	69.42
822.805	83.3
822.978	73.74
823.151	66.37
823.324	58.31
823.496	49.07
823.669	44.85
823.842	51.97
824.015	58.65
824.188	63.33
824.361	78.97
824.533	72.79
824.706	77.48
824.879	78.06
825.051	83.18
825.224	74.67
825.397	72.22
825.569	66.36
825.742	72.92
825.915	73.42
826.087	73.97
826.26	74.77
826.432	81.98
826.605	70.83
826.777	66.74
826.95	65.26
827.122	59.13
827.295	66.64
827.467	74.94
827.64	70.9
827.812	62.15
827.984	55.76
828.157	28.87
828.329	35.34
828.501	36.06
828.674	41.36
828.846	49.96
829.018	44.91
829.19	36.84
829.363	33.84
829.535	45.27
829.707	55.85
829.879	55.87
830.051	63.04
830.223	82.46
830.395	70.01
830.568	50.91
830.74	56.11
830.912	45.41
831.084	33.93
831.256	26.96
831.428	30.58
831.6	22.56
831.772	31.44
831.943	21.68
832.115	49.44
832.287	48.75
832.459	66.55
832.631	75.4
832.803	83.74
832.975	74.83
833.146	74.65
833.318	74.52
833.49	66.86
833.662	75.26
833.833	81.85
834.005	84.19
834.177	74.64
834.348	61.26
834.52	53.99
834.692	40.73
834.863	39.76
835.035	52.8
835.206	55.36
835.378	66.56
835.549	62.84
835.721	50.92
835.892	42.08
836.064	47.45
836.235	34.09
836.407	49.01
836.578	59.75
836.749	56.27
836.921	60.68
837.092	51.96
837.264	44.33
837.435	49.18
837.606	60.85
837.777	65.01
837.949	68.66
838.12	68.12
838.291	56.79
838.462	56.48
838.633	41.35
838.805	25.2
838.976	17.79
839.147	41.96
839.318	40.36
839.489	40.25
839.66	60.69
839.831	59.07
840.002	49.69
840.173	47.09
840.344	50.54
840.515	36.79
840.686	38.45
840.857	36.27
841.028	40.49
841.199	38.7
841.369	33.31
841.54	40.83
841.711	53.13
841.882	34.93
842.053	33.68
842.223	35.36
842.394	29.44
842.565	16.79
842.736	27.05
842.906	16.04
843.077	28.75
843.248	44.99
843.418	50.03
843.589	39.04
843.759	74.28
843.93	66.01
844.101	32.8
844.271	46.94
844.442	57.05
844.612	50.44
844.783	49.68
844.953	58.25
845.123	40.15
845.294	39.92
845.464	15.53
845.635	27.37
845.805	30.33
845.975	60.39
846.146	43.53
846.316	48.23
846.486	51.57
846.656	63.95
846.827	54.13
846.997	63.24
847.167	45.78
847.337	39.71
847.507	36.7
847.677	35.98
847.848	34.16
848.018	53.26
848.188	63.72
848.358	45.59
848.528	49.74
848.698	50.35
848.868	52.61
849.038	30.64
849.208	65.5
849.378	70.45
849.548	79.28
849.718	76.51
849.887	128.12
850.057	59.55
850.227	59.06
850.397	37.61
850.567	6.68
850.737	24.4
850.906	28.76
851.076	18.03
851.246	9.62
851.415	38.37
851.585	34.69
851.755	34.72
851.924	58.78
852.094	73.52
852.264	61.22
852.433	42.41
852.603	34.44
852.772	38.33
852.942	67.8
853.111	46.58
853.281	59.86
853.45	46.37
853.62	34.5
853.789	-0.18
853.959	44.24
854.128	22.13
854.297	27.46
854.467	42.42
854.636	52.93
854.805	28.5
854.975	42.47
855.144	41.24
855.313	24.35
855.482	25.35
855.652	41.34
855.821	23.28
855.99	61.65
856.159	71.4
856.328	90.06
856.497	64.86
856.667	66.8
856.836	51.65
857.005	23.8
857.174	32.71
857.343	4.32
857.512	19.86
857.681	1.72
857.85	-8.26
858.019	-84.99
858.188	-94.15
858.356	-48.43
858.525	-12.16
858.694	17.44
858.863	33.38
859.032	65.91
859.201	50.75
859.369	27.29
859.538	22.82
859.707	12.79
859.876	19.43
860.044	59.39
860.213	70.78
860.382	76.37
860.55	57.72
860.719	50.54
860.888	17.45
861.056	6.18
861.225	26.18
861.393	65.75
861.562	71
861.73	52.67
861.899	54.24
862.067	9.37
862.236	-5.01
862.404	-8.75
862.572	-2.11
862.741	-7.32
862.909	-0.27
863.078	10.9
863.246	11.97
863.414	21.22
863.582	29.56
863.751	42.38
863.919	40.32
864.087	47.84
864.255	37.98
864.424	25.09
864.592	26.03
864.76	-2.57
864.928	-40.35
865.096	-33.35
865.264	-24.05
865.432	-47.12
865.6	-9.86
865.768	30.8
865.936	40.42
866.104	57.35
866.272	109.9
866.44	77.86
866.608	51.86
866.776	53.2
866.944	40.97
867.112	30.67
867.28	30.11
867.448	44.68
867.615	39.8
867.783	15.88
867.951	28.26
868.119	36.55
868.286	29.96
868.454	29.17
868.622	45.16
868.789	22.26
868.957	26.9
869.125	19.61
869.292	12.5
869.46	19.56
869.627	20.28
869.795	7.58
869.963	38.4
870.13	25.57
870.298	13.68
870.465	19.44
870.632	-6.97
870.8	-15.27
870.967	-8.79
871.135	2.82
871.302	9.16
871.469	35.01
871.637	41.27
871.804	45.88
871.971	40.76
872.139	49.74
872.306	9.58
872.473	-27.2
872.64	-143.46
872.807	-157.07
872.975	-229.19
873.142	-19.56
873.309	4.7
873.476	67.95
873.643	99.71
873.81	51.2
873.977	6.45
874.144	25.66
874.311	-33.37
874.478	-68.68
874.645	-110.72
874.812	31.43
874.979	45.61
875.146	51.05
875.313	58.65
875.48	87.93
875.647	40.25
875.813	-32.78
875.98	-35.15
876.147	-122.21
876.314	-59.73
876.481	-10.29
876.647	34.27
876.814	32.4
876.981	45.21
877.147	44.93
877.314	40.37
877.481	65.18
877.647	79.05
877.814	105.92
877.98	85.91
878.147	84.49
878.314	79.59
878.48	92.34
878.647	59.59
878.813	65.46
878.979	41.08
879.146	9.59
879.312	10.65
879.479	2.38
879.645	17.63
879.811	-9.91
879.978	34.48
880.144	27.99
880.31	44.12
880.477	58.64
880.643	61.06
880.809	28.46
880.975	-27.16
881.142	-103.05
881.308	445.36
881.474	621.2
881.64	-120.36
881.806	-25.44
881.972	-33.17
882.138	11.98
882.304	1.95
882.47	-7.03
882.636	-38.78
882.802	2.8
882.968	20.87
883.134	37.09
883.3	58.5
883.466	98.34
883.632	128.57
883.798	163.17
883.964	268.45
884.129	1117.47
884.295	257.42
884.461	98.46
884.627	54.48
884.793	4.51
884.958	5.63
885.124	-11.72
885.29	-16.41
885.455	-38.96
885.621	17.2
885.787	-1.75
885.952	-14.75
886.118	21.04
886.283	1.05
886.449	4.85
886.614	3.23
886.78	30.77
886.945	76.03
887.111	59.92
887.276	16.99
887.442	10.91
887.607	-41.97
887.773	-26.27
887.938	-31.28
888.103	-9.56
888.269	2.72
888.434	25.75
888.599	-5.84
888.764	9.63
888.93	14.93
889.095	6.16
889.26	-13.82
889.425	-25.4
889.59	-48.86
889.756	-56.26
889.921	-0.33
890.086	41.42
890.251	108.4
890.416	59.08
890.581	93.55
890.746	123.79
890.911	78.19
891.076	73.71
891.241	79.93
891.406	90.33
891.571	110.1
891.736	92.58
891.901	77.76
892.065	37.32
892.23	51.13
892.395	13.23
892.56	-0.69
892.725	-32.84
892.889	48.13
893.054	-7
893.219	-14.73
893.384	15.69
893.548	-5.72
893.713	-37.5
893.878	-92.57
