Data from Ofra_PS_T2_1A_6CX18_Reflection_2.txt Node
Date: Wed Jul 21 18:09:04 EDT 2021
User: Adam
Spectrometer: FLMT01687
Trigger mode: 0
Integration Time (sec): 1.100000E0
Scans to average: 2
Electric dark correction enabled: true
Nonlinearity correction enabled: false
Boxcar width: 2
XAxis mode: Wavelengths
Number of Pixels in Spectrum: 3648
>>>>>Begin Spectral Data<<<<<
179.494	491.8
179.716	589.88
179.937	568.9
180.158	564.44
180.38	846.72
180.601	108.7
180.823	2.75
181.044	-171.21
181.265	3.49
181.486	81.7
181.708	253.98
181.929	1803.57
182.15	-898.24
182.372	0.42
182.593	23.43
182.814	31.71
183.035	48.22
183.257	28.48
183.478	-82.71
183.699	-58.95
183.92	-60.78
184.141	-10.32
184.363	-42.34
184.584	36.99
184.805	27.85
185.026	64.28
185.247	34.59
185.468	8.09
185.689	-7.79
185.91	19.72
186.132	5.91
186.353	-8.5
186.574	39.64
186.795	22.87
187.016	-51.87
187.237	-55.96
187.458	-80.43
187.679	-103.88
187.9	-60.31
188.121	-30.47
188.342	-45.24
188.563	11.48
188.784	54.96
189.005	15.79
189.226	36.67
189.447	27.52
189.667	-252.79
189.888	-537.32
190.109	-1595.78
190.33	-806.29
190.551	-1395.35
190.772	-302.6
190.993	-218.79
191.214	-189.03
191.434	-165.36
191.655	-76.41
191.876	-141.52
192.097	-198.56
192.318	-263.47
192.538	-397.29
192.759	-249.24
192.98	-114.22
193.201	-49.22
193.421	-18.16
193.642	7.75
193.863	15.23
194.083	-19.42
194.304	-34.5
194.525	-37.95
194.745	-80.8
194.966	-115.91
195.187	-98.06
195.407	-145.31
195.628	-202.77
195.848	-187.39
196.069	-161.75
196.29	-108.41
196.51	-92.96
196.731	-73.82
196.951	-61.24
197.172	-74.66
197.392	-112.76
197.613	-103.37
197.833	-166.72
198.054	-154.63
198.274	-102.85
198.495	-114.38
198.715	-92.42
198.936	-108.52
199.156	-96.51
199.377	-200.47
199.597	-178.37
199.817	-156.93
200.038	-82.01
200.258	-161.56
200.479	-77.45
200.699	-114.8
200.919	-74.07
201.14	-76.41
201.36	-70.28
201.58	-5.3
201.801	42.4
202.021	22.48
202.241	18.93
202.461	4.51
202.682	-106.36
202.902	-223.64
203.122	-170.89
203.342	-152.88
203.563	-78.16
203.783	-28.07
204.003	-61.57
204.223	-57.44
204.443	23.03
204.663	-23.34
204.884	-28.17
205.104	6.32
205.324	28.24
205.544	-4.94
205.764	34.71
205.984	40.83
206.204	39.46
206.424	30.5
206.644	-9.79
206.864	-0.15
207.084	-29.19
207.304	-35.35
207.525	-195.55
207.745	-116.84
207.964	-69.93
208.184	-128.98
208.404	-146.96
208.624	-134
208.844	-141.42
209.064	-462.15
209.284	-496.31
209.504	-276.13
209.724	-103.55
209.944	-58.94
210.164	-30.33
210.384	-8.95
210.604	-26.01
210.823	-71.23
211.043	-89.34
211.263	-70.74
211.483	-60.27
211.703	-109.22
211.922	-92.55
212.142	-17.36
212.362	1.03
212.582	-30.55
212.801	-10.24
213.021	-31.99
213.241	-41.26
213.461	-77.82
213.68	-71.46
213.9	-56.22
214.12	-31.02
214.339	-119.07
214.559	-95.54
214.779	-42.61
214.998	-43.44
215.218	-98.19
215.438	-45.55
215.657	-62.55
215.877	-60.55
216.096	-29.22
216.316	-26.49
216.535	-50.53
216.755	-24.7
216.974	-147.42
217.194	-215.53
217.413	-168.01
217.633	-154.92
217.852	-277.3
218.072	-108.02
218.291	-64.73
218.511	-28.5
218.73	-42.4
218.95	-47.49
219.169	-54.19
219.389	-90.81
219.608	-65.23
219.827	-72.61
220.047	-58.25
220.266	-42.47
220.485	-32.88
220.705	-46.55
220.924	-56.82
221.143	-11.65
221.363	-34.67
221.582	-32.43
221.801	-16.42
222.021	8.23
222.24	-86.56
222.459	-36.45
222.678	-52.55
222.897	-137.94
223.117	-204.73
223.336	-156.92
223.555	-130.47
223.774	-82.87
223.993	-63.01
224.213	3.74
224.432	-4.12
224.651	14.82
224.87	-18.69
225.089	-0.96
225.308	-9.56
225.527	8.83
225.746	-2.51
225.965	6.51
226.184	-38.65
226.404	-17.2
226.623	-38.57
226.842	-29.34
227.061	-19.77
227.28	-4.55
227.499	-27.15
227.718	0.5
227.936	-12.87
228.155	5.52
228.374	1.4
228.593	11.08
228.812	-7.98
229.031	5.94
229.25	-53.67
229.469	-58.16
229.688	-51.58
229.907	-22.07
230.125	-23.42
230.344	9.52
230.563	23.93
230.782	40.39
231.001	-33.86
231.22	-38.39
231.438	-14.81
231.657	-30.58
231.876	-60.22
232.095	4.8
232.313	12.18
232.532	-9.7
232.751	-21.26
232.969	-34.14
233.188	-109.97
233.407	-62.99
233.625	-48.58
233.844	-77.79
234.063	-51.85
234.281	-29.42
234.5	-22.71
234.719	-17.7
234.937	7.85
235.156	19.06
235.374	17.87
235.593	-3.81
235.811	-4.96
236.03	5.87
236.249	-41.85
236.467	-21.93
236.686	2.76
236.904	3.42
237.123	-31.7
237.341	-34.22
237.559	-34.41
237.778	-68.66
237.996	-94.27
238.215	-41.74
238.433	-14.71
238.652	-19.97
238.87	-31.91
239.088	-34
239.307	-35.51
239.525	-65.77
239.743	-78.49
239.962	-76.19
240.18	-87.07
240.398	-139.43
240.617	-146.67
240.835	-123.91
241.053	-93.68
241.271	-8.32
241.49	27.5
241.708	13.5
241.926	-30.26
242.144	-31.53
242.363	-140.7
242.581	-197.67
242.799	-95.38
243.017	-56.87
243.235	-82.81
243.453	-53.38
243.672	-53.03
243.89	-51.18
244.108	-61.76
244.326	-15.1
244.544	-4.43
244.762	-3.02
244.98	-0.34
245.198	12.13
245.416	-40.16
245.634	-44.94
245.852	-52.7
246.07	-69.59
246.288	-69.06
246.506	-93.72
246.724	-94.87
246.942	-82.7
247.16	-45.64
247.378	-34.38
247.596	-2.62
247.814	1.86
248.032	-25.43
248.25	-18.16
248.468	-19.36
248.685	-17.25
248.903	23.53
249.121	29.97
249.339	-1.66
249.557	-24.24
249.775	-14.54
249.992	-96.31
250.21	-80.01
250.428	-50.81
250.646	-60.53
250.863	-74.38
251.081	-45.33
251.299	-34.65
251.517	-42.9
251.734	-39.98
251.952	-44.29
252.17	-22.28
252.387	-13.22
252.605	-16.64
252.823	0.93
253.04	23.28
253.258	34.86
253.475	29.89
253.693	44.24
253.911	31.89
254.128	16.63
254.346	-14.43
254.563	-29.85
254.781	-51.41
254.998	-82.61
255.216	-99.72
255.433	-71.05
255.651	-49.65
255.868	-64.99
256.086	-34.26
256.303	-26.59
256.521	-20.85
256.738	-30.25
256.956	-59.2
257.173	-73.01
257.39	-102.79
257.608	-160.5
257.825	-89.06
258.043	-37.1
258.26	-24.88
258.477	30.92
258.695	40.65
258.912	-28.73
259.129	-35.43
259.346	-66.83
259.564	-130.74
259.781	-143.53
259.998	-52.71
260.216	-15.97
260.433	16.26
260.65	25.91
260.867	39.04
261.084	-10.32
261.302	-31.47
261.519	-35.9
261.736	-52.11
261.953	-76.06
262.17	-21.57
262.387	-58.07
262.604	-96.36
262.822	-108.39
263.039	-87.34
263.256	-142.47
263.473	-89.35
263.69	-52.53
263.907	-7.81
264.124	2.92
264.341	4.7
264.558	-1.61
264.775	19.88
264.992	5.17
265.209	9.54
265.426	30.79
265.643	34.43
265.86	28.53
266.077	32.97
266.294	13.75
266.51	-24.65
266.727	-42.45
266.944	-35.88
267.161	-31.34
267.378	-36.04
267.595	8.91
267.812	-9.18
268.028	-32.93
268.245	-34.03
268.462	-44.91
268.679	-77.96
268.896	-19.46
269.112	-13.14
269.329	-17.41
269.546	-4.89
269.763	-12.4
269.979	-32.33
270.196	-33.85
270.413	-56.06
270.629	-86.47
270.846	-95.68
271.063	-97.73
271.279	-108.32
271.496	-97.42
271.712	-52.81
271.929	-22.96
272.146	-36.36
272.362	-38.07
272.579	-1.14
272.795	-2.16
273.012	2.04
273.228	11.42
273.445	-24.16
273.661	-81.35
273.878	-125.41
274.094	-116.86
274.311	-134.52
274.527	-34.82
274.744	-36.07
274.96	-18.62
275.177	-2.9
275.393	7.88
275.609	-12.41
275.826	21.19
276.042	11.04
276.259	-11.69
276.475	8.22
276.691	9.63
276.908	-8.06
277.124	7.98
277.34	10.48
277.557	-9.45
277.773	-12.9
277.989	-17.48
278.205	-26.26
278.422	-6.51
278.638	-8.81
278.854	5.73
279.07	4.96
279.286	-2.63
279.503	-36.81
279.719	-21.06
279.935	-60.71
280.151	-75.75
280.367	-51.41
280.583	-82.35
280.799	-84.2
281.016	-106.2
281.232	-60.25
281.448	-61.54
281.664	-21.07
281.88	-42.27
282.096	-13.22
282.312	13.87
282.528	49.65
282.744	54.02
282.96	43.15
283.176	25.04
283.392	5.42
283.608	-24.37
283.824	-34.81
284.04	-22.11
284.256	-5.48
284.471	-8.39
284.687	-7.99
284.903	16.19
285.119	24.74
285.335	0.95
285.551	12.26
285.767	-5.07
285.982	-15.31
286.198	-53.96
286.414	-5.58
286.63	1.4
286.846	36.8
287.061	12.26
287.277	51.77
287.493	19.55
287.709	24
287.924	-2.1
288.14	27.58
288.356	8.19
288.571	31.67
288.787	7.25
289.003	5.04
289.218	-16.22
289.434	-45.23
289.65	-56.74
289.865	-62.28
290.081	-50.06
290.296	-29.76
290.512	-32.39
290.727	-37.76
290.943	-30.34
291.159	-34.45
291.374	-32.56
291.59	-55.64
291.805	-47.84
292.021	-43.96
292.236	-59.24
292.451	-45.53
292.667	-33.67
292.882	-30.2
293.098	-44.23
293.313	-53.31
293.529	-89.02
293.744	-82.6
293.959	-82.05
294.175	-76.13
294.39	-36.54
294.605	-11.94
294.821	10.75
295.036	19.66
295.251	29.25
295.467	-12.67
295.682	-37.79
295.897	-97.73
296.112	-115.85
296.328	-96.65
296.543	-77.82
296.758	-77.01
296.973	-44.48
297.188	-0.22
297.404	-41.62
297.619	-58.39
297.834	-67.47
298.049	-77.84
298.264	-116.48
298.479	-43.12
298.694	-37.58
298.909	-12.06
299.125	-4.31
299.34	2.72
299.555	-29.19
299.77	-5.92
299.985	-45.05
300.2	-101.37
300.415	-117.84
300.63	-72.37
300.845	-96.87
301.06	-101.15
301.275	-57.23
301.49	-31.21
301.704	-43.07
301.919	-44.89
302.134	-51.46
302.349	-61.13
302.564	-134.05
302.779	-174.42
302.994	-147.45
303.209	-81.87
303.423	-53.02
303.638	9.3
303.853	-22.86
304.068	-31.42
304.283	-23.58
304.497	-13.48
304.712	-29.61
304.927	-19.6
305.142	-34.76
305.356	-25.8
305.571	-27.62
305.786	-41.15
306	-59.07
306.215	-34.08
306.43	-62.48
306.644	-82.8
306.859	-52.38
307.074	-34.99
307.288	-58.98
307.503	-87.98
307.717	-75.11
307.932	-49.25
308.147	-43.56
308.361	-20.88
308.576	-22.06
308.79	-63.08
309.005	-77.48
309.219	-64.96
309.434	-75.17
309.648	-64.85
309.863	-34.07
310.077	-38.51
310.292	-42.29
310.506	-41.06
310.72	-22.68
310.935	-9.57
311.149	3.85
311.364	21.08
311.578	32.64
311.792	14.8
312.007	16.51
312.221	2.01
312.435	4.63
312.649	-21.56
312.864	14.26
313.078	10.71
313.292	54.84
313.507	-7.27
313.721	53.9
313.935	20.61
314.149	12.73
314.363	-6.99
314.578	3.99
314.792	-6.33
315.006	-22.54
315.22	-2.2
315.434	2.19
315.648	3.41
315.862	-6.75
316.077	-5.05
316.291	-33.61
316.505	-39.88
316.719	-42.12
316.933	-28.17
317.147	-27.63
317.361	-71.42
317.575	-84.66
317.789	-131.38
318.003	-217.29
318.217	-184.5
318.431	-83.09
318.645	-31.72
318.859	-20.04
319.073	5.91
319.287	-6.71
319.5	-38.18
319.714	-71.92
319.928	-102.49
320.142	-128.43
320.356	-80.49
320.57	-34.73
320.784	-54.59
320.997	-35.95
321.211	-28.78
321.425	-74.82
321.639	-91.83
321.853	-39.61
322.066	-20.57
322.28	-27.82
322.494	-17.29
322.707	-11.06
322.921	-33.98
323.135	-32.97
323.349	-19.68
323.562	-28.65
323.776	-44.56
323.989	-32.13
324.203	-62.14
324.417	-74.21
324.63	-97.48
324.844	-87.17
325.057	-85.75
325.271	-48.59
325.485	-15.56
325.698	12.89
325.912	24.86
326.125	7.4
326.339	1.12
326.552	-19.77
326.766	-14.38
326.979	-6.31
327.193	29.41
327.406	10.46
327.619	6.76
327.833	8.05
328.046	-21.86
328.26	-63.82
328.473	-31.85
328.686	-57.71
328.9	-52.81
329.113	-37.94
329.326	-74.65
329.54	-78.45
329.753	-91.21
329.966	-138.85
330.179	-132.07
330.393	-72.87
330.606	-35.24
330.819	-10.03
331.032	9.38
331.246	17.53
331.459	38.25
331.672	17.41
331.885	8.23
332.098	-15.9
332.311	-28.46
332.525	-83.95
332.738	-67.48
332.951	-36.32
333.164	-4.49
333.377	5.94
333.59	24.09
333.803	16.96
334.016	7.22
334.229	-2.36
334.442	-10.02
334.655	4.15
334.868	13.24
335.081	3.88
335.294	-6.46
335.507	-5.98
335.72	-12.1
335.933	-33.05
336.146	-40.63
336.359	-38.14
336.572	-56.46
336.785	-78.84
336.997	-50.15
337.21	-33.34
337.423	-32.87
337.636	-18.92
337.849	-14.96
338.062	-35.23
338.274	-19.9
338.487	-35.22
338.7	-51.06
338.913	-92.15
339.125	-115.51
339.338	-191.37
339.551	-159.92
339.763	-117.49
339.976	-70.32
340.189	-37.47
340.402	-16.82
340.614	-26.02
340.827	-22.95
341.039	-33.46
341.252	-36.46
341.465	-21.89
341.677	-13.04
341.89	-64.32
342.102	-31.72
342.315	-42.38
342.527	-77.56
342.74	-80.99
342.952	-20.39
343.165	-31.2
343.377	-7.38
343.59	-4.9
343.802	11.17
344.015	-2.16
344.227	2.6
344.44	-8.73
344.652	-10.94
344.864	-28.59
345.077	4.69
345.289	1.67
345.502	5.63
345.714	-3.11
345.926	6.77
346.139	-12.42
346.351	7.11
346.563	11.96
346.775	22.63
346.988	-1.05
347.2	-13.37
347.412	-65.82
347.624	-84.84
347.837	-95.7
348.049	-63.61
348.261	-21.04
348.473	-5.33
348.685	-15.34
348.897	-19.66
349.11	-36.25
349.322	-96.98
349.534	-86.9
349.746	-67.35
349.958	-48.83
350.17	-37.6
350.382	-1.31
350.594	-19.35
350.806	-17.69
351.018	-23.19
351.23	-36.43
351.442	-87.83
351.654	-89.22
351.866	-83.55
352.078	-89.5
352.29	-59
352.502	-37.06
352.714	-19.93
352.926	-23.76
353.138	-14.49
353.35	-20.76
353.561	-10.91
353.773	-33.6
353.985	-18.14
354.197	-28.66
354.409	-37.02
354.621	-45.78
354.832	-27.92
355.044	-46.86
355.256	-59.69
355.468	-34.44
355.679	-26.38
355.891	-30.06
356.103	-50.04
356.314	-21.28
356.526	-34.55
356.738	-45.62
356.949	-56.65
357.161	-32.09
357.373	-25.55
357.584	-28.74
357.796	-11.41
358.008	-10.84
358.219	12.9
358.431	0.33
358.642	-0.49
358.854	-0.08
359.065	-9.75
359.277	-39.3
359.488	-42.67
359.7	-48.23
359.911	-84.34
360.123	-52.68
360.334	-67.78
360.546	-95.93
360.757	-92.84
360.969	-69.96
361.18	-73
361.391	-36.55
361.603	-32.44
361.814	-25.44
362.025	-18.29
362.237	-21.75
362.448	-18.23
362.659	9.55
362.871	7.19
363.082	2.62
363.293	9.53
363.504	-14
363.716	-49.96
363.927	-52.44
364.138	-76.38
364.349	-95.94
364.56	-75.21
364.772	-65.11
364.983	-46.64
365.194	-34.61
365.405	-21.96
365.616	-3.85
365.827	1.02
366.038	-13.56
366.25	-30.36
366.461	-45.66
366.672	-31
366.883	-13.42
367.094	-5.26
367.305	-11.8
367.516	-9.33
367.727	-47.3
367.938	-61.51
368.149	-66.83
368.36	-41.99
368.571	-39.96
368.781	-43.49
368.992	-58.66
369.203	-78.85
369.414	-99.28
369.625	-103.57
369.836	-86.14
370.047	-106.9
370.258	-80.27
370.468	-79
370.679	-95.55
370.89	-94.69
371.101	-60
371.312	-70.13
371.522	-62.18
371.733	-34.75
371.944	-21.24
372.155	-17.55
372.365	-23.24
372.576	-28.47
372.787	-38.29
372.997	-66.59
373.208	-64.17
373.419	-35.73
373.629	-62.85
373.84	-64.07
374.05	-60.13
374.261	-55.87
374.472	-81.08
374.682	-20.38
374.893	-12.7
375.103	27
375.314	14.24
375.524	18.72
375.735	17.92
375.945	17.61
376.156	-16.86
376.366	-3.73
376.577	0.5
376.787	-15.87
376.997	-15.43
377.208	-13.7
377.418	-32.04
377.629	-27.62
377.839	-27.55
378.049	-26.17
378.26	-5.55
378.47	5.67
378.68	0.57
378.89	-3.7
379.101	-2.39
379.311	-35.31
379.521	-71.89
379.732	-74.89
379.942	-71.99
380.152	-96.84
380.362	-65.69
380.572	-60.31
380.783	-40.63
380.993	-23.41
381.203	-12.56
381.413	-5.21
381.623	15.83
381.833	1.29
382.043	-11.96
382.253	-24.57
382.463	-21.3
382.674	-42.24
382.884	-57.24
383.094	-53.68
383.304	-37.15
383.514	-25.42
383.724	-9.05
383.934	-8.9
384.144	-22.08
384.353	-28.63
384.563	-41.47
384.773	-29.49
384.983	-30.58
385.193	-7
385.403	-2.35
385.613	-1.18
385.823	-18.2
386.033	-9.46
386.242	-23.07
386.452	-26.91
386.662	-32.41
386.872	-15.13
387.082	-22.71
387.291	-23.38
387.501	-24.53
387.711	-19.71
387.921	-32.25
388.13	-28.16
388.34	-15.74
388.55	-14.38
388.759	-13.51
388.969	-4.23
389.179	-4.48
389.388	-6.25
389.598	-6.05
389.807	-11.64
390.017	-16.37
390.227	-12.98
390.436	-14.44
390.646	-13.15
390.855	-7.3
391.065	-5.81
391.274	-8.88
391.484	-10.5
391.693	-8.67
391.903	-9.63
392.112	-4.9
392.322	-2.42
392.531	1.72
392.74	3.23
392.95	1.17
393.159	-1.52
393.369	-1.82
393.578	-3.66
393.787	-6.35
393.997	-5.36
394.206	-7.03
394.415	-6.83
394.625	-5.25
394.834	-4.96
395.043	-2.99
395.252	0.75
395.462	3.41
395.671	4.19
395.88	5.1
396.089	5.3
396.298	2.58
396.508	1.45
396.717	1.46
396.926	1.86
397.135	1.31
397.344	2.29
397.553	3.53
397.762	4.43
397.971	4.32
398.181	5.14
398.39	4.06
398.599	3.5
398.808	2.71
399.017	3.95
399.226	4.32
399.435	5.91
399.644	6.25
399.853	5.74
400.062	4.84
400.27	4.16
400.479	3.6
400.688	2.75
400.897	3.39
401.106	3.57
401.315	3.9
401.524	3.83
401.733	4.45
401.941	4.5
402.15	4.49
402.359	4.42
402.568	4.69
402.777	4.79
402.985	4.94
403.194	4.79
403.403	4.65
403.612	4.34
403.82	3.98
404.029	3.99
404.238	3.84
404.446	4.31
404.655	4.19
404.864	4.43
405.072	4.24
405.281	4.7
405.489	4.15
405.698	4.42
405.906	4.36
406.115	4.27
406.324	4.1
406.532	4.46
406.741	4.61
406.949	4.53
407.158	4.48
407.366	4.51
407.574	4.35
407.783	4.18
407.991	4.06
408.2	4.21
408.408	4.17
408.617	4.09
408.825	4.03
409.033	4.12
409.242	4.11
409.45	4.22
409.658	4.2
409.867	4.37
410.075	4.33
410.283	4.13
410.491	4.09
410.7	4.01
410.908	3.88
411.116	4.23
411.324	4.34
411.533	4.31
411.741	4.6
411.949	4.68
412.157	4.3
412.365	4.3
412.573	4.24
412.781	4.25
412.99	4.13
413.198	4.46
413.406	4.47
413.614	4.45
413.822	4.24
414.03	4.24
414.238	3.84
414.446	4.07
414.654	3.95
414.862	3.99
415.07	3.97
415.278	4.22
415.486	3.9
415.694	4
415.902	3.86
416.109	3.9
416.317	3.81
416.525	3.73
416.733	3.77
416.941	3.98
417.149	3.93
417.357	3.93
417.564	4.19
417.772	4.45
417.98	4.31
418.188	4.22
418.395	4.35
418.603	4.45
418.811	4
419.019	4
419.226	4.23
419.434	4.25
419.642	3.94
419.849	3.99
420.057	3.89
420.265	3.85
420.472	3.49
420.68	3.62
420.887	3.5
421.095	3.65
421.302	3.57
421.51	3.81
421.717	3.76
421.925	3.94
422.132	3.79
422.34	3.51
422.547	3.54
422.755	3.39
422.962	3.32
423.17	3.29
423.377	3.41
423.585	3.47
423.792	3.46
423.999	3.39
424.207	3.36
424.414	3.58
424.621	3.5
424.829	3.41
425.036	3.58
425.243	3.76
425.451	3.57
425.658	3.47
425.865	3.85
426.072	3.84
426.28	4.1
426.487	4.07
426.694	4.13
426.901	3.81
427.108	3.66
427.315	3.29
427.523	3.51
427.73	3.55
427.937	3.71
428.144	3.66
428.351	3.71
428.558	3.83
428.765	3.75
428.972	3.6
429.179	3.83
429.386	4.12
429.593	3.8
429.8	3.7
430.007	3.87
430.214	3.93
430.421	3.62
430.628	3.61
430.835	3.64
431.042	3.83
431.249	3.84
431.456	3.82
431.662	3.98
431.869	4.18
432.076	4.04
432.283	4.09
432.49	4.12
432.697	4.07
432.903	3.73
433.11	3.73
433.317	3.78
433.524	3.92
433.73	3.9
433.937	4.18
434.144	4
434.35	3.92
434.557	3.79
434.764	3.87
434.97	3.79
435.177	3.97
435.384	3.88
435.59	3.98
435.797	4.15
436.003	4.24
436.21	4.26
436.416	4.41
436.623	4.45
436.829	4.37
437.036	4.37
437.242	4.39
437.449	4.25
437.655	4.25
437.862	4.33
438.068	4.27
438.275	4.32
438.481	4.53
438.687	4.48
438.894	4.35
439.1	4.39
439.307	4.52
439.513	4.44
439.719	4.57
439.926	4.75
440.132	4.73
440.338	4.54
440.544	4.56
440.751	4.44
440.957	4.47
441.163	4.44
441.369	4.62
441.575	4.5
441.782	4.51
441.988	4.37
442.194	4.49
442.4	4.43
442.606	4.73
442.812	4.82
443.018	4.93
443.224	4.91
443.431	4.96
443.637	4.73
443.843	4.63
444.049	4.66
444.255	4.56
444.461	4.58
444.667	4.57
444.873	4.71
445.079	4.64
445.284	4.8
445.49	4.57
445.696	4.48
445.902	4.42
446.108	4.39
446.314	4.29
446.52	4.43
446.726	4.72
446.931	4.71
447.137	4.73
447.343	4.72
447.549	4.59
447.755	4.42
447.96	4.52
448.166	4.48
448.372	4.57
448.578	4.71
448.783	4.79
448.989	4.81
449.195	4.98
449.4	4.91
449.606	4.89
449.812	4.74
450.017	4.72
450.223	4.59
450.428	4.55
450.634	4.6
450.84	4.82
451.045	4.75
451.251	4.7
451.456	5.02
451.662	5.12
451.867	5.09
452.073	5.12
452.278	5.28
452.483	5.26
452.689	5.07
452.894	5.15
453.1	5.11
453.305	5.05
453.51	4.87
453.716	4.86
453.921	4.83
454.127	4.84
454.332	4.8
454.537	4.72
454.742	4.81
454.948	4.77
455.153	4.79
455.358	4.87
455.563	5.1
455.769	5.23
455.974	5.25
456.179	5.17
456.384	5.16
456.589	5.11
456.795	4.93
457	4.92
457.205	5.16
457.41	5.14
457.615	5.1
457.82	5.17
458.025	5.2
458.23	5.03
458.435	5.16
458.64	5.09
458.845	5.21
459.05	5.19
459.255	5.3
459.46	5.22
459.665	5.21
459.87	5.24
460.075	5.24
460.28	5.23
460.485	5.33
460.69	5.48
460.895	5.37
461.099	5.35
461.304	5.49
461.509	5.48
461.714	5.36
461.919	5.49
462.123	5.41
462.328	5.4
462.533	5.32
462.738	5.45
462.942	5.29
463.147	5.39
463.352	5.35
463.556	5.36
463.761	5.29
463.966	5.37
464.17	5.36
464.375	5.27
464.58	5.27
464.784	5.22
464.989	5.22
465.193	5.16
465.398	5.16
465.602	5.26
465.807	5.31
466.011	5.35
466.216	5.47
466.42	5.61
466.625	5.71
466.829	5.8
467.034	5.89
467.238	6.05
467.443	5.94
467.647	5.83
467.851	5.85
468.056	5.85
468.26	5.7
468.464	5.77
468.669	5.85
468.873	5.98
469.077	5.9
469.282	6.03
469.486	6.11
469.69	6.14
469.894	5.99
470.099	6.04
470.303	6.14
470.507	6.02
470.711	5.88
470.915	5.87
471.119	5.81
471.324	5.69
471.528	5.72
471.732	5.83
471.936	5.85
472.14	5.98
472.344	5.96
472.548	6.01
472.752	6.2
472.956	6.42
473.16	6.33
473.364	6.25
473.568	6.17
473.772	6
473.976	5.77
474.18	5.71
474.384	5.81
474.588	5.83
474.792	5.79
474.995	5.87
475.199	6.02
475.403	6.08
475.607	6.13
475.811	6.07
476.015	6.1
476.218	6.08
476.422	5.98
476.626	5.99
476.83	6.14
477.033	6.08
477.237	6
477.441	6.05
477.644	6.08
477.848	6.02
478.052	6
478.255	5.97
478.459	5.93
478.663	6.04
478.866	6.11
479.07	6.12
479.273	6.34
479.477	6.38
479.681	6.26
479.884	6.13
480.088	6.09
480.291	6.04
480.495	6.08
480.698	6.12
480.901	6.24
481.105	6.35
481.308	6.27
481.512	6.26
481.715	6.29
481.919	6.31
482.122	6.3
482.325	6.32
482.529	6.35
482.732	6.3
482.935	6.2
483.138	6.13
483.342	6.2
483.545	6.27
483.748	6.3
483.952	6.34
484.155	6.46
484.358	6.53
484.561	6.44
484.764	6.4
484.967	6.52
485.171	6.59
485.374	6.45
485.577	6.52
485.78	6.58
485.983	6.48
486.186	6.3
486.389	6.31
486.592	6.28
486.795	6.28
486.998	6.33
487.201	6.42
487.404	6.5
487.607	6.59
487.81	6.62
488.013	6.65
488.216	6.58
488.419	6.55
488.622	6.45
488.825	6.33
489.028	6.23
489.231	6.27
489.433	6.2
489.636	6.16
489.839	6.19
490.042	6.11
490.245	6.04
490.447	6.09
490.65	6.1
490.853	6.13
491.056	6.26
491.258	6.35
491.461	6.36
491.664	6.42
491.866	6.32
492.069	6.39
492.272	6.29
492.474	6.32
492.677	6.34
492.879	6.45
493.082	6.47
493.285	6.64
493.487	6.59
493.69	6.49
493.892	6.39
494.095	6.28
494.297	6.16
494.5	6.17
494.702	6.16
494.905	6.21
495.107	6.24
495.309	6.24
495.512	6.24
495.714	6.27
495.917	6.31
496.119	6.25
496.321	6.35
496.524	6.4
496.726	6.39
496.928	6.42
497.13	6.4
497.333	6.35
497.535	6.34
497.737	6.31
497.939	6.21
498.142	6.28
498.344	6.16
498.546	6.04
498.748	6.09
498.95	6.29
499.152	6.25
499.355	6.37
499.557	6.43
499.759	6.55
499.961	6.41
500.163	6.46
500.365	6.45
500.567	6.56
500.769	6.39
500.971	6.39
501.173	6.24
501.375	6.24
501.577	6.12
501.779	6.12
501.981	6.15
502.183	6.25
502.385	6.18
502.587	6.15
502.788	6.23
502.99	6.22
503.192	6.26
503.394	6.27
503.596	6.3
503.798	6.32
503.999	6.34
504.201	6.25
504.403	6.31
504.605	6.3
504.806	6.19
505.008	6.17
505.21	6.32
505.411	6.33
505.613	6.33
505.815	6.4
506.016	6.47
506.218	6.46
506.42	6.4
506.621	6.38
506.823	6.37
507.024	6.21
507.226	6.15
507.427	6.18
507.629	6.26
507.83	6.27
508.032	6.32
508.233	6.37
508.435	6.35
508.636	6.38
508.838	6.35
509.039	6.33
509.24	6.33
509.442	6.36
509.643	6.27
509.845	6.31
510.046	6.4
510.247	6.38
510.448	6.35
510.65	6.39
510.851	6.47
511.052	6.44
511.254	6.43
511.455	6.5
511.656	6.57
511.857	6.62
512.058	6.57
512.26	6.57
512.461	6.52
512.662	6.53
512.863	6.35
513.064	6.39
513.265	6.4
513.466	6.42
513.667	6.38
513.868	6.45
514.069	6.45
514.27	6.49
514.471	6.48
514.672	6.5
514.873	6.41
515.074	6.48
515.275	6.38
515.476	6.41
515.677	6.37
515.878	6.55
516.079	6.48
516.28	6.55
516.481	6.56
516.682	6.6
516.882	6.45
517.083	6.43
517.284	6.33
517.485	6.29
517.686	6.28
517.886	6.3
518.087	6.32
518.288	6.42
518.488	6.36
518.689	6.34
518.89	6.29
519.091	6.26
519.291	6.25
519.492	6.35
519.692	6.37
519.893	6.51
520.094	6.5
520.294	6.46
520.495	6.44
520.695	6.46
520.896	6.41
521.096	6.52
521.297	6.56
521.497	6.51
521.698	6.46
521.898	6.42
522.099	6.33
522.299	6.39
522.499	6.41
522.7	6.44
522.9	6.44
523.101	6.51
523.301	6.48
523.501	6.46
523.702	6.47
523.902	6.55
524.102	6.58
524.302	6.55
524.503	6.58
524.703	6.61
524.903	6.59
525.103	6.52
525.304	6.62
525.504	6.72
525.704	6.73
525.904	6.68
526.104	6.68
526.304	6.62
526.504	6.55
526.705	6.54
526.905	6.67
527.105	6.69
527.305	6.71
527.505	6.7
527.705	6.67
527.905	6.6
528.105	6.57
528.305	6.51
528.505	6.51
528.705	6.57
528.905	6.52
529.105	6.56
529.304	6.64
529.504	6.76
529.704	6.64
529.904	6.66
530.104	6.64
530.304	6.66
530.503	6.52
530.703	6.52
530.903	6.5
531.103	6.57
531.303	6.51
531.502	6.58
531.702	6.67
531.902	6.72
532.101	6.64
532.301	6.64
532.501	6.59
532.7	6.55
532.9	6.54
533.1	6.55
533.299	6.62
533.499	6.65
533.698	6.64
533.898	6.65
534.097	6.63
534.297	6.66
534.496	6.62
534.696	6.68
534.895	6.76
535.095	6.88
535.294	6.8
535.494	6.74
535.693	6.76
535.892	6.75
536.092	6.62
536.291	6.61
536.491	6.75
536.69	6.75
536.889	6.68
537.088	6.73
537.288	6.86
537.487	6.9
537.686	6.86
537.886	6.91
538.085	6.95
538.284	6.97
538.483	6.86
538.682	6.96
538.882	6.96
539.081	6.96
539.28	6.85
539.479	6.85
539.678	6.78
539.877	6.86
540.076	6.86
540.275	6.92
540.474	7.03
540.673	7.06
540.872	6.98
541.071	7.03
541.27	7.03
541.469	7.05
541.668	7.06
541.867	7.08
542.066	7.09
542.265	7.14
542.464	7.08
542.663	7.08
542.862	7.17
543.06	7.18
543.259	7.17
543.458	7.23
543.657	7.3
543.856	7.31
544.054	7.29
544.253	7.3
544.452	7.25
544.651	7.31
544.849	7.27
545.048	7.36
545.247	7.43
545.445	7.49
545.644	7.42
545.843	7.43
546.041	7.39
546.24	7.45
546.438	7.5
546.637	7.57
546.836	7.69
547.034	7.74
547.233	7.73
547.431	7.73
547.63	7.75
547.828	7.74
548.027	7.77
548.225	7.76
548.423	7.78
548.622	7.76
548.82	7.73
549.019	7.76
549.217	7.82
549.415	7.84
549.614	7.91
549.812	7.92
550.01	7.9
550.209	7.89
550.407	7.96
550.605	7.95
550.803	8.05
551.002	8.13
551.2	8.14
551.398	8.19
551.596	8.31
551.794	8.33
551.993	8.37
552.191	8.47
552.389	8.53
552.587	8.56
552.785	8.6
552.983	8.67
553.181	8.78
553.379	8.85
553.577	8.91
553.775	8.98
553.973	9.01
554.171	9.01
554.369	8.98
554.567	8.93
554.765	8.96
554.963	9.04
555.161	8.97
555.359	9.04
555.557	9.14
555.755	9.16
555.952	9.23
556.15	9.33
556.348	9.41
556.546	9.54
556.744	9.53
556.941	9.53
557.139	9.63
557.337	9.66
557.535	9.61
557.732	9.76
557.93	9.87
558.128	9.92
558.325	9.99
558.523	10.03
558.721	10.12
558.918	10.09
559.116	10.15
559.313	10.16
559.511	10.27
559.708	10.25
559.906	10.38
560.104	10.43
560.301	10.53
560.498	10.58
560.696	10.68
560.893	10.72
561.091	10.82
561.288	10.93
561.486	10.93
561.683	10.99
561.88	11.12
562.078	11.21
562.275	11.18
562.473	11.25
562.67	11.37
562.867	11.44
563.064	11.47
563.262	11.52
563.459	11.67
563.656	11.75
563.853	11.78
564.051	11.82
564.248	11.95
564.445	12.04
564.642	12.08
564.839	12.18
565.036	12.37
565.234	12.53
565.431	12.57
565.628	12.63
565.825	12.75
566.022	12.81
566.219	12.83
566.416	12.9
566.613	13
566.81	13
567.007	12.98
567.204	13.03
567.401	13.02
567.598	13.07
567.795	13.09
567.991	13.16
568.188	13.25
568.385	13.4
568.582	13.42
568.779	13.53
568.976	13.64
569.172	13.73
569.369	13.73
569.566	13.79
569.763	13.84
569.96	13.84
570.156	13.8
570.353	13.82
570.55	13.9
570.746	14.01
570.943	14.01
571.14	14.05
571.336	14.12
571.533	14.19
571.729	14.12
571.926	14.24
572.123	14.41
572.319	14.52
572.516	14.48
572.712	14.62
572.909	14.62
573.105	14.61
573.302	14.56
573.498	14.63
573.695	14.57
573.891	14.63
574.087	14.64
574.284	14.68
574.48	14.62
574.677	14.73
574.873	14.69
575.069	14.73
575.266	14.75
575.462	14.79
575.658	14.81
575.854	14.94
576.051	14.96
576.247	15
576.443	15.06
576.639	15.05
576.835	14.92
577.032	14.86
577.228	14.94
577.424	14.98
577.62	14.92
577.816	14.99
578.012	15.06
578.208	14.98
578.404	15.02
578.6	15.15
578.796	15.21
578.993	15.26
579.189	15.25
579.384	15.13
579.58	15.01
579.776	14.94
579.972	14.9
580.168	14.89
580.364	14.81
580.56	14.82
580.756	14.78
580.952	14.72
581.148	14.71
581.343	14.87
581.539	14.94
581.735	15.01
581.931	15.09
582.127	15.14
582.322	15.09
582.518	15.06
582.714	15.05
582.909	14.95
583.105	14.96
583.301	14.96
583.496	14.92
583.692	14.87
583.888	14.9
584.083	14.93
584.279	14.91
584.474	14.88
584.67	14.9
584.866	14.88
585.061	14.73
585.257	14.83
585.452	14.85
585.648	14.84
585.843	14.86
586.039	14.94
586.234	14.86
586.429	14.86
586.625	14.96
586.82	14.93
587.015	14.91
587.211	14.82
587.406	14.9
587.601	14.9
587.797	14.94
587.992	14.94
588.187	15.05
588.383	15.01
588.578	14.85
588.773	14.86
588.968	14.95
589.163	14.95
589.359	14.89
589.554	14.97
589.749	14.97
589.944	14.96
590.139	14.98
590.334	15.04
590.529	15.04
590.724	15.05
590.919	15.13
591.114	15.08
591.309	15.1
591.504	15.21
591.699	15.29
591.894	15.29
592.089	15.31
592.284	15.33
592.479	15.42
592.674	15.4
592.869	15.49
593.064	15.66
593.259	15.8
593.454	15.83
593.648	15.92
593.843	15.83
594.038	15.8
594.233	15.7
594.428	15.68
594.622	15.72
594.817	15.84
595.012	15.91
595.206	16.07
595.401	16.13
595.596	16.19
595.79	16.26
595.985	16.4
596.18	16.47
596.374	16.59
596.569	16.56
596.763	16.57
596.958	16.56
597.153	16.56
597.347	16.57
597.542	16.71
597.736	16.75
597.931	16.76
598.125	16.81
598.319	16.87
598.514	16.89
598.708	17.04
598.903	17.11
599.097	17.22
599.291	17.27
599.486	17.25
599.68	17.25
599.874	17.32
600.069	17.23
600.263	17.18
600.457	17.28
600.651	17.29
600.846	17.28
601.04	17.4
601.234	17.45
601.428	17.51
601.622	17.54
601.817	17.56
602.011	17.57
602.205	17.68
602.399	17.64
602.593	17.61
602.787	17.66
602.981	17.68
603.175	17.62
603.369	17.67
603.563	17.78
603.757	17.78
603.951	17.82
604.145	17.89
604.339	17.91
604.533	17.78
604.727	17.78
604.921	17.67
605.115	17.64
605.309	17.72
605.502	17.74
605.696	17.7
605.89	17.74
606.084	17.66
606.278	17.51
606.471	17.43
606.665	17.38
606.859	17.31
607.053	17.29
607.246	17.34
607.44	17.35
607.634	17.33
607.827	17.31
608.021	17.23
608.214	17.08
608.408	17.05
608.602	17.02
608.795	16.94
608.989	16.93
609.182	16.9
609.376	16.87
609.569	16.79
609.763	16.7
609.956	16.61
610.15	16.43
610.343	16.37
610.537	16.3
610.73	16.33
610.923	16.27
611.117	16.37
611.31	16.32
611.504	16.33
611.697	16.21
611.89	16.12
612.083	16.01
612.277	15.97
612.47	15.89
612.663	15.82
612.856	15.88
613.05	15.82
613.243	15.75
613.436	15.61
613.629	15.62
613.822	15.48
614.015	15.37
614.209	15.23
614.402	15.24
614.595	15.18
614.788	15.09
614.981	15.03
615.174	15.02
615.367	14.97
615.56	14.9
615.753	14.86
615.946	14.81
616.139	14.84
616.332	14.87
616.525	14.78
616.718	14.85
616.911	14.83
617.103	14.78
617.296	14.76
617.489	14.7
617.682	14.57
617.875	14.61
618.067	14.54
618.26	14.39
618.453	14.48
618.646	14.43
618.838	14.43
619.031	14.48
619.224	14.51
619.417	14.52
619.609	14.59
619.802	14.53
619.994	14.44
620.187	14.4
620.38	14.29
620.572	14.2
620.765	14.25
620.957	14.17
621.15	14.05
621.342	14.04
621.535	14.07
621.727	13.98
621.92	13.95
622.112	14
622.305	14.04
622.497	13.96
622.69	13.9
622.882	13.91
623.074	13.92
623.267	13.83
623.459	13.77
623.651	13.74
623.844	13.77
624.036	13.71
624.228	13.68
624.42	13.73
624.613	13.87
624.805	13.8
624.997	13.86
625.189	13.86
625.381	13.91
625.574	13.78
625.766	13.7
625.958	13.61
626.15	13.64
626.342	13.54
626.534	13.56
626.726	13.6
626.918	13.67
627.11	13.6
627.302	13.58
627.494	13.5
627.686	13.53
627.878	13.41
628.07	13.44
628.262	13.4
628.454	13.39
628.646	13.42
628.838	13.48
629.029	13.34
629.221	13.38
629.413	13.31
629.605	13.12
629.797	13
629.989	13.05
630.18	13.02
630.372	13.02
630.564	13.11
630.755	13.16
630.947	13.16
631.139	12.95
631.33	12.87
631.522	12.9
631.714	12.87
631.905	12.89
632.097	12.92
632.289	12.98
632.48	12.9
632.672	12.84
632.863	12.71
633.055	12.78
633.246	12.79
633.438	12.72
633.629	12.73
633.821	12.77
634.012	12.73
634.203	12.63
634.395	12.66
634.586	12.66
634.777	12.57
634.969	12.57
635.16	12.59
635.351	12.55
635.543	12.52
635.734	12.57
635.925	12.6
636.117	12.67
636.308	12.72
636.499	12.63
636.69	12.59
636.881	12.5
637.073	12.54
637.264	12.47
637.455	12.53
637.646	12.63
637.837	12.7
638.028	12.61
638.219	12.71
638.41	12.64
638.601	12.52
638.792	12.53
638.983	12.42
639.174	12.31
639.365	12.4
639.556	12.37
639.747	12.28
639.938	12.44
640.129	12.34
640.32	12.22
640.511	12.38
640.701	12.57
640.892	12.48
641.083	12.63
641.274	12.77
641.465	12.67
641.655	12.5
641.846	12.54
642.037	12.45
642.228	12.3
642.418	12.35
642.609	12.37
642.8	12.34
642.99	12.32
643.181	12.43
643.372	12.41
643.562	12.36
643.753	12.34
643.943	12.27
644.134	12.13
644.324	12.15
644.515	12.11
644.705	12.13
644.896	12.22
645.086	12.26
645.277	12.13
645.467	12.15
645.658	12.08
645.848	12.05
646.038	12.01
646.229	12.03
646.419	11.97
646.61	11.96
646.8	11.96
646.99	11.97
647.18	11.92
647.371	11.94
647.561	11.87
647.751	11.9
647.941	11.83
648.132	11.84
648.322	11.82
648.512	11.96
648.702	11.88
648.892	11.92
649.082	11.89
649.272	11.8
649.462	11.55
649.653	11.49
649.843	11.4
650.033	11.42
650.223	11.49
650.413	11.54
650.603	11.61
650.793	11.65
650.983	11.52
651.172	11.47
651.362	11.45
651.552	11.34
651.742	11.3
651.932	11.33
652.122	11.31
652.312	11.32
652.502	11.3
652.691	11.26
652.881	11.17
653.071	11.11
653.261	10.94
653.45	10.79
653.64	10.67
653.83	10.6
654.019	10.55
654.209	10.57
654.399	10.65
654.588	10.61
654.778	10.54
654.968	10.45
655.157	10.37
655.347	10.19
655.536	10.05
655.726	10
655.915	9.9
656.105	9.87
656.294	9.9
656.484	9.85
656.673	9.77
656.863	9.71
657.052	9.51
657.241	9.29
657.431	9.18
657.62	8.99
657.809	8.77
657.999	8.68
658.188	8.62
658.377	8.51
658.567	8.45
658.756	8.41
658.945	8.33
659.134	8.24
659.324	8.12
659.513	7.98
659.702	7.88
659.891	7.75
660.08	7.61
660.269	7.6
660.458	7.55
660.648	7.47
660.837	7.47
661.026	7.49
661.215	7.37
661.404	7.19
661.593	7.16
661.782	6.98
661.971	6.93
662.16	6.84
662.349	6.87
662.538	6.69
662.726	6.71
662.915	6.49
663.104	6.4
663.293	6.45
663.482	6.56
663.671	6.44
663.86	6.38
664.048	6.41
664.237	6.4
664.426	6.19
664.615	6.27
664.803	6.34
664.992	6.24
665.181	6.15
665.369	6.13
665.558	6.05
665.747	5.94
665.935	6.05
666.124	6.02
666.312	6.11
666.501	6.14
666.69	6.1
666.878	5.99
667.067	5.88
667.255	5.9
667.444	6.16
667.632	6.3
667.82	6.36
668.009	6.4
668.197	6.35
668.386	6.11
668.574	6.17
668.762	6.2
668.951	6.19
669.139	6.26
669.327	6.18
669.516	6.25
669.704	6.19
669.892	6.38
670.08	6.39
670.269	6.36
670.457	6.21
670.645	6.12
670.833	6.12
671.021	6.14
671.21	6.24
671.398	6.51
671.586	6.59
671.774	6.48
671.962	6.48
672.15	6.45
672.338	6.25
672.526	6.3
672.714	6.26
672.902	6.26
673.09	6.51
673.278	6.83
673.466	6.91
673.654	7.2
673.842	7.22
674.03	7.09
674.218	6.8
674.405	6.85
674.593	6.69
674.781	6.86
674.969	6.89
675.157	7.14
675.344	7.33
675.532	7.48
675.72	7.5
675.908	7.69
676.095	7.49
676.283	7.37
676.471	7.48
676.658	7.52
676.846	7.48
677.033	7.75
677.221	7.84
677.409	7.67
677.596	7.65
677.784	7.67
677.971	7.67
678.159	7.77
678.346	7.97
678.534	7.99
678.721	8.13
678.909	8.14
679.096	8.05
679.283	8.25
679.471	8.35
679.658	8.44
679.846	8.6
680.033	8.85
680.22	8.69
680.408	8.77
680.595	8.69
680.782	8.54
680.969	8.53
681.157	8.72
681.344	8.83
681.531	8.94
681.718	8.97
681.905	9.09
682.093	9.16
682.28	9.26
682.467	9.39
682.654	9.62
682.841	9.62
683.028	9.75
683.215	9.85
683.402	9.79
683.589	9.92
683.776	10.08
683.963	10.02
684.15	10.13
684.337	10.39
684.524	10.48
684.711	10.7
684.898	10.74
685.085	10.81
685.271	11.03
685.458	11.18
685.645	11.26
685.832	11.62
686.019	11.77
686.205	11.87
686.392	12.06
686.579	12.13
686.766	12.33
686.952	12.53
687.139	12.88
687.326	13.02
687.512	13.39
687.699	13.64
687.886	13.89
688.072	14.01
688.259	14.31
688.445	14.6
688.632	14.73
688.818	15.22
689.005	15.46
689.191	15.76
689.378	16.33
689.564	16.94
689.751	17.29
689.937	17.73
690.124	18.2
690.31	18.28
690.496	18.6
690.683	18.97
690.869	19.42
691.055	19.88
691.242	20.68
691.428	21.19
691.614	21.65
691.8	22.41
691.987	22.93
692.173	23.32
692.359	23.87
692.545	24.42
692.731	24.63
692.918	25.17
693.104	25.61
693.29	26.24
693.476	26.73
693.662	27.36
693.848	27.87
694.034	28.48
694.22	28.99
694.406	29.7
694.592	30.38
694.778	31.07
694.964	31.48
695.15	31.9
695.336	32.51
695.522	33.22
695.708	33.65
695.894	34.44
696.08	35.14
696.265	35.58
696.451	36.12
696.637	36.8
696.823	37.18
697.009	37.67
697.194	38.16
697.38	38.53
697.566	38.72
697.751	39.44
697.937	40.21
698.123	40.89
698.308	41.67
698.494	42.59
698.68	42.93
698.865	43.13
699.051	43.75
699.236	43.97
699.422	44.41
699.607	45
699.793	45.52
699.978	45.88
700.164	46.39
700.349	47.06
700.535	47.5
700.72	47.99
700.906	48.56
701.091	49.07
701.276	49.54
701.462	50.23
701.647	51.18
701.832	51.58
702.018	51.99
702.203	52.2
702.388	52.27
702.573	52.42
702.759	53.1
702.944	53.27
703.129	53.59
703.314	54.02
703.499	54.2
703.684	54.09
703.87	55.36
704.055	56.17
704.24	56.74
704.425	57.5
704.61	58.3
704.795	58.3
704.98	58.42
705.165	58.44
705.35	58.33
705.535	58.38
705.72	58.5
705.905	58.98
706.09	59.68
706.275	60.21
706.459	60.38
706.644	60.51
706.829	60.72
707.014	60.76
707.199	60.93
707.384	61.28
707.568	61.6
707.753	62.13
707.938	62.47
708.123	62.56
708.307	62.87
708.492	63.34
708.677	63.34
708.861	63.27
709.046	63.39
709.231	63.87
709.415	63.95
709.6	63.62
709.784	63.71
709.969	64.16
710.153	64.1
710.338	64.05
710.522	64.79
710.707	65.48
710.891	65.8
711.076	65.89
711.26	65.92
711.445	66.02
711.629	66.3
711.813	66.29
711.998	66.75
712.182	66.83
712.366	66.88
712.551	67.15
712.735	67.46
712.919	67.28
713.103	67.92
713.288	67.73
713.472	67.42
713.656	67.86
713.84	68.2
714.024	68.24
714.208	68.31
714.393	69.21
714.577	68.77
714.761	68.78
714.945	68.84
715.129	69.38
715.313	69.06
715.497	69.3
715.681	69.66
715.865	69.57
716.049	69.37
716.233	68.85
716.417	69.25
716.601	69.3
716.785	69.66
716.968	70.28
717.152	70.88
717.336	70.97
717.52	70.87
717.704	70.91
717.888	70.9
718.071	71.06
718.255	71.26
718.439	71.38
718.622	71.79
718.806	72.03
718.99	71.49
719.174	71.2
719.357	71.62
719.541	71.49
719.724	71.45
719.908	72.6
720.092	72.83
720.275	72.79
720.459	72.98
720.642	72.72
720.826	72.42
721.009	72.5
721.193	72.27
721.376	72.49
721.559	73.51
721.743	73.44
721.926	73.81
722.11	74.1
722.293	73.47
722.476	72.54
722.66	72.87
722.843	73.13
723.026	72.79
723.21	73.31
723.393	74.52
723.576	74.28
723.759	73.56
723.942	73.95
724.126	73.72
724.309	72.56
724.492	72.91
724.675	73.52
724.858	73.86
725.041	74.52
725.224	75.08
725.407	75.17
725.59	75.37
725.774	75.21
725.957	74.51
726.14	74.33
726.322	74.32
726.505	73.77
726.688	74.16
726.871	74.57
727.054	75.16
727.237	75.27
727.42	75.93
727.603	75.76
727.786	75.87
727.968	75.92
728.151	76.04
728.334	75.82
728.517	76.4
728.699	77.05
728.882	76.75
729.065	76.89
729.248	77.33
729.43	77.45
729.613	77.98
729.796	78.9
729.978	79.37
730.161	79.03
730.343	78.72
730.526	78.81
730.708	77.43
730.891	77.44
731.073	77.86
731.256	77.57
731.438	77.25
731.621	78.44
731.803	77.93
731.986	78.03
732.168	77.86
732.35	78.08
732.533	78.27
732.715	78.25
732.898	78.51
733.08	79.08
733.262	79.44
733.444	78.81
733.627	79.56
733.809	79.8
733.991	80.28
734.173	79.42
734.355	80.39
734.538	80.36
734.72	79.8
734.902	80.03
735.084	80.44
735.266	79.97
735.448	80.48
735.63	80.77
735.812	80.64
735.994	81.66
736.176	81.81
736.358	81.46
736.54	81.79
736.722	81.07
736.904	80.28
737.086	79.92
737.268	80.09
737.45	80.63
737.632	80.97
737.814	81.19
737.995	82.07
738.177	82.43
738.359	81.53
738.541	82.25
738.723	82.34
738.904	82.24
739.086	82.02
739.268	82.96
739.449	83.42
739.631	83.28
739.813	83.35
739.994	83.91
740.176	84.47
740.358	83.64
740.539	84.36
740.721	84.62
740.902	84.98
741.084	82.82
741.265	82.82
741.447	82.61
741.628	82.64
741.81	81.67
741.991	83.47
742.172	84.13
742.354	84.59
742.535	84.52
742.717	84.92
742.898	84.13
743.079	84.91
743.261	84.48
743.442	83.87
743.623	83.63
743.804	83.72
743.986	83.54
744.167	82.51
744.348	82.39
744.529	82.29
744.71	81.99
744.891	81.47
745.073	81.77
745.254	82.1
745.435	82.73
745.616	82.91
745.797	82.5
745.978	81.71
746.159	82.07
746.34	80.55
746.521	82.12
746.702	81.46
746.883	82.43
747.064	81.3
747.245	81.71
747.426	80.03
747.606	80.97
747.787	81.34
747.968	82.47
748.149	83.93
748.33	84.84
748.51	84.24
748.691	83.93
748.872	83.95
749.053	82.02
749.233	81.42
749.414	80.72
749.595	80.09
749.775	78.91
749.956	79.63
750.137	79.63
750.317	79.99
750.498	81.81
750.678	81.49
750.859	82.34
751.04	81.85
751.22	82.39
751.4	80.34
751.581	80.68
751.761	80.59
751.942	82.85
752.122	82.32
752.303	82.86
752.483	83.56
752.663	82.92
752.844	81.13
753.024	81.98
753.204	82.81
753.385	81.35
753.565	80.77
753.745	81.54
753.925	79.86
754.106	78.69
754.286	79.71
754.466	79.2
754.646	79.16
754.826	79.41
755.006	78.57
755.187	79.37
755.367	81.12
755.547	79.51
755.727	81.29
755.907	82.88
756.087	84.82
756.267	83.15
756.447	83.25
756.627	80.24
756.807	79.41
756.987	77.02
757.167	78.25
757.346	78.58
757.526	78.61
757.706	80.05
757.886	80.22
758.066	80.39
758.246	82.01
758.425	84.35
758.605	83
758.785	83.35
758.965	82.84
759.144	80.22
759.324	79.75
759.504	80.07
759.683	79.52
759.863	78.52
760.043	79.25
760.222	78.81
760.402	77.97
760.581	78.15
760.761	80.24
760.94	79.11
761.12	81.47
761.299	82.08
761.479	82.38
761.658	79.53
761.838	80.01
762.017	77.86
762.197	78.56
762.376	78.32
762.555	80.67
762.735	81.51
762.914	81.46
763.093	81.18
763.273	80.27
763.452	79.73
763.631	80.37
763.81	79.92
763.99	79.53
764.169	79.08
764.348	77.07
764.527	76.27
764.706	77.54
764.885	78.62
765.064	77.87
765.243	79.51
765.423	79.71
765.602	78.89
765.781	76.53
765.96	75.58
766.139	74.09
766.318	75.17
766.497	74.44
766.676	75.03
766.854	77.87
767.033	78.57
767.212	76.43
767.391	77.41
767.57	78.92
767.749	78.47
767.928	78.52
768.106	78.18
768.285	76.33
768.464	75.67
768.643	75
768.821	75.9
769	78.12
769.179	77.76
769.357	76.19
769.536	76.49
769.715	75.67
769.893	76.2
770.072	78.09
770.25	78.81
770.429	78.59
770.607	78.37
770.786	76.84
770.964	77.55
771.143	76.15
771.321	75.83
771.5	77.63
771.678	75.45
771.857	73.79
772.035	74.82
772.213	74.83
772.392	72.56
772.57	75.05
772.748	75.4
772.927	74.72
773.105	75.41
773.283	75.8
773.461	74.87
773.64	74.47
773.818	74.13
773.996	74.3
774.174	74.3
774.352	71.62
774.531	69.35
774.709	71.65
774.887	70.14
775.065	69.08
775.243	71.42
775.421	72.2
775.599	74.15
775.777	71.99
775.955	69.43
776.133	67.47
776.311	68.92
776.489	64.79
776.667	67.21
776.844	69.88
777.022	69.54
777.2	68.6
777.378	68.03
777.556	67.07
777.734	70.5
777.911	74.79
778.089	73.93
778.267	75.32
778.445	73.71
778.622	71.27
778.8	69.56
778.978	72.94
779.155	72.51
779.333	74.35
779.511	71.39
779.688	72.32
779.866	65.92
780.043	65.86
780.221	66.91
780.398	67.11
780.576	69.48
780.753	72.69
780.931	71.97
781.108	70.5
781.286	73.54
781.463	68.5
781.64	66.94
781.818	68.68
781.995	69.83
782.172	69.88
782.35	70.57
782.527	74.67
782.704	72.88
782.882	72.02
783.059	69.57
783.236	71.99
783.413	70.59
783.59	70.89
783.768	68.36
783.945	70.75
784.122	69.58
784.299	68.88
784.476	68.1
784.653	68.04
784.83	66.02
785.007	63.32
785.184	64.74
785.361	63.21
785.538	69.75
785.715	73.99
785.892	75.55
786.069	77.56
786.246	77.71
786.423	75.08
786.6	73.97
786.776	73.42
786.953	70.68
787.13	73.76
787.307	73.21
787.484	70.33
787.66	69.11
787.837	70.09
788.014	67.23
788.191	64.95
788.367	61.92
788.544	64.39
788.721	61.52
788.897	64.63
789.074	66.94
789.25	66.65
789.427	64.22
789.603	65.46
789.78	65.54
789.956	62.42
790.133	59.94
790.309	63.24
790.486	66.87
790.662	61.6
790.839	60.19
791.015	63.2
791.192	62.82
791.368	62.29
791.544	63.35
791.721	66.19
791.897	68.38
792.073	64.47
792.249	58.69
792.426	63.83
792.602	65.07
792.778	62.12
792.954	62.32
793.13	62.35
793.307	54.78
793.483	48.7
793.659	49.63
793.835	54.65
794.011	54.87
794.187	56.68
794.363	56.43
794.539	61.08
794.715	57.32
794.891	57.48
795.067	56.23
795.243	63.19
795.419	61.46
795.595	59.05
795.771	62.66
795.947	66.51
796.122	60.48
796.298	62.45
796.474	65.37
796.65	66.75
796.826	63.72
797.001	66.93
797.177	63.52
797.353	64.79
797.529	60.74
797.704	63.41
797.88	60.67
798.056	51.32
798.231	49.12
798.407	52.96
798.582	50.52
798.758	59.12
798.934	73.06
799.109	69.52
799.285	62.91
799.46	67.45
799.636	60.96
799.811	53.6
799.986	57.65
800.162	62.16
800.337	58.21
800.513	55.53
800.688	55.71
800.863	62.29
801.039	57.44
801.214	55.75
801.389	58.21
801.565	60.43
801.74	45.66
801.915	49.5
802.09	48.87
802.265	54.79
802.441	54.99
802.616	57.56
802.791	55.45
802.966	53.52
803.141	48.65
803.316	47.15
803.491	54.59
803.666	58.52
803.841	62.4
804.016	62.24
804.191	62.55
804.366	53.78
804.541	52.24
804.716	51.48
804.891	52.11
805.066	55.79
805.241	55.57
805.416	50.51
805.591	45.77
805.765	45.03
805.94	44.89
806.115	52.03
806.29	50.95
806.464	59.15
806.639	54.84
806.814	45.29
806.989	31.12
807.163	43.36
807.338	37.84
807.512	41.03
807.687	35.08
807.862	49.01
808.036	45.09
808.211	47.16
808.385	53.96
808.56	75.76
808.734	84.68
808.909	79.3
809.083	73.08
809.258	78.6
809.432	62.33
809.606	38.46
809.781	40.33
809.955	46.5
810.13	39.92
810.304	39.74
810.478	40.2
810.652	41.04
810.827	48.04
811.001	41.91
811.175	41.33
811.349	44.36
811.524	40.44
811.698	26.78
811.872	36.19
812.046	48.43
812.22	59.49
812.394	58.21
812.568	69.03
812.742	60.27
812.916	49.07
813.09	41.84
813.264	44.32
813.438	38.99
813.612	45.55
813.786	44.74
813.96	50.88
814.134	48.53
814.308	63.38
814.482	58.96
814.656	56.1
814.83	57.09
815.003	62.1
815.177	47.56
815.351	45.63
815.525	43.13
815.698	36.5
815.872	28.19
816.046	18.91
816.219	21.09
816.393	32.4
816.567	42.4
816.74	43.73
816.914	46.98
817.088	52.69
817.261	47.83
817.435	19.85
817.608	29.98
817.782	30.03
817.955	21.3
818.129	20.86
818.302	35.95
818.475	38.73
818.649	38.36
818.822	30.58
818.996	52.5
819.169	51.88
819.342	36.49
819.516	43.76
819.689	57.84
819.862	39.24
820.035	43.74
820.209	49.96
820.382	47.65
820.555	49.63
820.728	39.87
820.901	29.23
821.075	22.33
821.248	22.03
821.421	15.25
821.594	20.09
821.767	38.4
821.94	57.87
822.113	41.42
822.286	39.4
822.459	50.41
822.632	41.28
822.805	32.7
822.978	30.51
823.151	17.87
823.324	4.3
823.496	-21.35
823.669	-32.25
823.842	-20.45
824.015	-23.13
824.188	-42.71
824.361	-19
824.533	-14.69
824.706	4.45
824.879	4.17
825.051	22.32
825.224	19.09
825.397	13.76
825.569	-16.69
825.742	4.61
825.915	13.24
826.087	26.12
826.26	21.04
826.432	37.43
826.605	39.74
826.777	31.56
826.95	28.42
827.122	24.24
827.295	18.65
827.467	18.86
827.64	-9.57
827.812	-22.43
827.984	-14.82
828.157	-30.52
828.329	-61.26
828.501	-35.99
828.674	-10.37
828.846	-27.73
829.018	0.97
829.19	-20.88
829.363	17.75
829.535	15.59
829.707	22.48
829.879	-1.13
830.051	-0.3
830.223	-37.4
830.395	-65.62
830.568	-66.9
830.74	-77.27
830.912	-32.29
831.084	-44.44
831.256	-27.97
831.428	-38.25
831.6	-40.93
831.772	-85.47
831.943	-80.98
832.115	-57.18
832.287	-30.72
832.459	-23.49
832.631	13.91
832.803	26.03
832.975	48.38
833.146	24.64
833.318	40.03
833.49	24.06
833.662	1
833.833	-27.01
834.005	-11.42
834.177	-11.85
834.348	-15.24
834.52	-16.85
834.692	-18.79
834.863	-54
835.035	-39.72
835.206	-77.51
835.378	-47.98
835.549	-53.67
835.721	-12.79
835.892	-8.02
836.064	-20.33
836.235	-38.36
836.407	-29.55
836.578	-83.6
836.749	-90.7
836.921	-108.88
837.092	-105.06
837.264	-87.64
837.435	-86.13
837.606	-49.07
837.777	-8.66
837.949	12.92
838.12	20.42
838.291	36.36
838.462	21.3
838.633	-5.66
838.805	-7.91
838.976	-16.46
839.147	-104.79
839.318	-98.26
839.489	-146.26
839.66	-122.37
839.831	-74.39
840.002	-36.81
840.173	-52.35
840.344	13.87
840.515	4.3
840.686	-152.7
840.857	-139.91
841.028	-119.06
841.199	-139.46
841.369	-125.88
841.54	-82.97
841.711	-42.31
841.882	-53.89
842.053	-58.64
842.223	-80.86
842.394	-71.45
842.565	-75.74
842.736	-28.47
842.906	-17.08
843.077	11.26
843.248	35.13
843.418	12.91
843.589	-34.24
843.759	12.27
843.93	-35.97
844.101	-24.6
844.271	4.47
844.442	18.48
844.612	25.16
844.783	-0.31
844.953	-39.3
845.123	-79.56
845.294	-92.97
845.464	-313.96
845.635	-189.87
845.805	-72.45
845.975	-16.2
846.146	-73.6
846.316	-66.92
846.486	-28.94
846.656	-2.68
846.827	-21.58
846.997	-22.61
847.167	5.42
847.337	-8.32
847.507	-63.33
847.677	-37.8
847.848	24.29
848.018	11.9
848.188	20.94
848.358	7.84
848.528	-15.73
848.698	-70.15
848.868	-185.62
849.038	-333.14
849.208	-146.79
849.378	-112.68
849.548	-68.63
849.718	-40.53
849.887	-29.06
850.057	-47.44
850.227	-72.56
850.397	-98.93
850.567	-228.44
850.737	-570.76
850.906	-1505.94
851.076	-1121.68
851.246	-578.93
851.415	-93.38
851.585	-46.83
851.755	-104.23
851.924	-45.92
852.094	-71.47
852.264	-161.01
852.433	-1066.11
852.603	-191.27
852.772	-181.83
852.942	-102.67
853.111	-107.87
853.281	-71.87
853.45	-19.87
853.62	-78.57
853.789	-76.39
853.959	-60.45
854.128	-62.94
854.297	-129.24
854.467	-164.25
854.636	-199.59
854.805	-88.71
854.975	-153.35
855.144	-246.23
855.313	-362.06
855.482	-708.58
855.652	-410.48
855.821	-304.87
855.99	-52.7
856.159	-4.77
856.328	6.53
856.497	-1.45
856.667	8.05
856.836	-5.55
857.005	-62.55
857.174	-104.44
857.343	-185.18
857.512	-175.98
857.681	-214.82
857.85	-251.02
858.019	-162.63
858.188	-104.24
858.356	-107.07
858.525	-177.8
858.694	-149.3
858.863	-280.32
859.032	-262.41
859.201	-357.73
859.369	-217.03
859.538	-158.03
859.707	-111.96
859.876	-109.86
860.044	-89.94
860.213	-8.57
860.382	-28.49
860.55	-21.88
860.719	15.93
860.888	2.67
861.056	-63.63
861.225	-82.93
861.393	-51.71
861.562	-65.55
861.73	-150.93
861.899	-410.86
862.067	-2768.1
862.236	-181.69
862.404	-410.3
862.572	-255.35
862.741	-89.89
862.909	-76.31
863.078	-200.64
863.246	-129.53
863.414	-119.36
863.582	-96.8
863.751	-139.67
863.919	-125.1
864.087	-43.59
864.255	-53.56
864.424	-490.74
864.592	-81.63
864.76	-139.9
864.928	-791
865.096	-339.73
865.264	-196.16
865.432	-2622.16
865.6	-215.38
865.768	-129.74
865.936	-170.46
866.104	-198.83
866.272	-264.92
866.44	-603.05
866.608	943.34
866.776	467.23
866.944	4211.05
867.112	-679.56
867.28	-260.13
867.448	-102.92
867.615	-32.27
867.783	-33.82
867.951	-60.05
868.119	-50.81
868.286	-105.99
868.454	-283.35
868.622	-271.78
868.789	-274.72
868.957	-5262.5
869.125	-2807.24
869.292	-186.18
869.46	-284.61
869.627	-57.48
869.795	-53.87
869.963	-27.53
870.13	-14.41
870.298	18.9
870.465	-116.17
870.632	-121.14
870.8	-87.63
870.967	-144.47
871.135	-206.42
871.302	-119.06
871.469	-118.53
871.637	-241.9
871.804	-148.92
871.971	-213.78
872.139	-649.65
872.306	-106.37
872.473	-103.5
872.64	-350.97
872.807	-148.62
872.975	-63.83
873.142	-463.18
873.309	3920.95
873.476	-129.06
873.643	-70.31
873.81	-32.25
873.977	45.86
874.144	27.93
874.311	-140.88
874.478	-190.97
874.645	-267.08
874.812	-277.5
874.979	-150.47
875.146	-166.06
875.313	-192.75
875.48	-74.46
875.647	-67.85
875.813	-106.23
875.98	-63.53
876.147	-70.92
876.314	-175.07
876.481	1119.63
876.647	-1613.2
876.814	544.95
876.981	-105.67
877.147	-44.19
877.314	-28.34
877.481	-8.65
877.647	-32.81
877.814	-113.93
877.98	-176.5
878.147	-91.59
878.314	-19.53
878.48	-79.34
878.647	-39.88
878.813	0.76
878.979	-36.44
879.146	-72.7
879.312	-43.42
879.479	-140.82
879.645	-202.71
879.811	-315.69
879.978	-839.5
880.144	-290.38
880.31	-114
880.477	-422.72
880.643	-526.67
880.809	-230.6
880.975	-174.08
881.142	-1217.95
881.308	-178.47
881.474	-69.96
881.64	-116.84
881.806	-236.37
881.972	-75.14
882.138	-35.71
882.304	-93.01
882.47	-163.59
882.636	-567.01
882.802	-196.42
882.968	-80.4
883.134	-55.69
883.3	-67.28
883.466	3.02
883.632	27.31
883.798	-5.22
883.964	-31.63
884.129	-29.96
884.295	-14.57
884.461	-81.52
884.627	-119.1
884.793	-125.22
884.958	-69.97
885.124	-202.25
885.29	-277
885.455	-372.21
885.621	-102.75
885.787	-204.05
885.952	-93.49
886.118	-67.58
886.283	-40.5
886.449	-119.28
886.614	-98.35
886.78	-264.9
886.945	1330.74
887.111	-923.55
887.276	-718.61
887.442	-1299.77
887.607	-422.52
887.773	-309.16
887.938	-236.23
888.103	-303.33
888.269	-249.92
888.434	-532.84
888.599	-211.55
888.764	-113.43
888.93	-95.36
889.095	-95
889.26	-142.23
889.425	-149.84
889.59	-182.62
889.756	-184.06
889.921	-123.11
890.086	-54.26
890.251	-20.78
890.416	-172.71
890.581	-1744.76
890.746	243.84
890.911	429.14
891.076	222.51
891.241	-623.69
891.406	20.83
891.571	-33.83
891.736	-333.83
891.901	-476.77
892.065	499.73
892.23	179.39
892.395	315.61
892.56	444.44
892.725	-795.9
892.889	-2440.85
893.054	-284.46
893.219	-54.9
893.384	9.53
893.548	-30.92
893.713	-28.7
893.878	-4.09
