Data from Ofra_1a_PS_8HS24_Reflection_2.txt Node
Date: Tue Jul 20 11:03:36 EDT 2021
User: Adam
Spectrometer: FLMT01687
Trigger mode: 0
Integration Time (sec): 1.004000E0
Scans to average: 2
Electric dark correction enabled: true
Nonlinearity correction enabled: false
Boxcar width: 2
XAxis mode: Wavelengths
Number of Pixels in Spectrum: 3648
>>>>>Begin Spectral Data<<<<<
179.494	85.79
179.716	-111.45
179.937	447.83
180.158	-837.58
180.38	193.34
180.601	115.14
180.823	4.93
181.044	-129.51
181.265	-359.19
181.486	207.71
181.708	95.29
181.929	3118.18
182.15	-146.54
182.372	789.66
182.593	326.18
182.814	-319.02
183.035	-47.79
183.257	-3.21
183.478	-23.22
183.699	-40.16
183.92	-81.68
184.141	-97.7
184.363	-73.59
184.584	-77.43
184.805	-39.77
185.026	23.58
185.247	12.18
185.468	-5.56
185.689	11.65
185.91	2.59
186.132	4.06
186.353	25.21
186.574	31.81
186.795	31
187.016	31.66
187.237	22.99
187.458	26.44
187.679	-7.78
187.9	-9.6
188.121	-15.84
188.342	-6.15
188.563	9.19
188.784	47.52
189.005	34.79
189.226	39.89
189.447	34.63
189.667	15.29
189.888	1.51
190.109	0.89
190.33	1.98
190.551	-10.27
190.772	9.69
190.993	-1.73
191.214	4.42
191.434	-13.05
191.655	-20.11
191.876	-1.1
192.097	35.41
192.318	44.64
192.538	27.54
192.759	21.72
192.98	25.13
193.201	7.32
193.421	-0.65
193.642	19.02
193.863	31.11
194.083	16.44
194.304	42
194.525	8.96
194.745	-13.13
194.966	-8.63
195.187	-1.09
195.407	-28.99
195.628	2.4
195.848	12.68
196.069	-3.32
196.29	6.51
196.51	1.8
196.731	-3.04
196.951	-48.36
197.172	-26.25
197.392	-49.37
197.613	-16.44
197.833	-25.22
198.054	-8.77
198.274	2.27
198.495	-5.79
198.715	-4.93
198.936	-0.99
199.156	15.18
199.377	-0.59
199.597	11.61
199.817	-12.6
200.038	-28.73
200.258	-18.94
200.479	-0.88
200.699	-4.93
200.919	13.2
201.14	16.43
201.36	11.08
201.58	-6.33
201.801	-10.84
202.021	-28.38
202.241	-34.04
202.461	-33.98
202.682	-30.71
202.902	-11.65
203.122	9.49
203.342	34.13
203.563	21.13
203.783	31.93
204.003	18.74
204.223	21.65
204.443	4.41
204.663	31.66
204.884	40.99
205.104	36.73
205.324	45.8
205.544	35.78
205.764	38.61
205.984	22.98
206.204	52.95
206.424	13.56
206.644	7.42
206.864	-20.62
207.084	-13.46
207.304	-38.49
207.525	-13.8
207.745	7.84
207.964	23.55
208.184	46.77
208.404	36.66
208.624	39.67
208.844	27.05
209.064	19.28
209.284	-19.05
209.504	-29.94
209.724	-23.16
209.944	-29.33
210.164	-36.59
210.384	-12.92
210.604	-41.62
210.823	-62.22
211.043	-44.92
211.263	-99.75
211.483	-47.15
211.703	-40.04
211.922	-47.18
212.142	-21.91
212.362	13.58
212.582	16.12
212.801	37.13
213.021	39.73
213.241	35.09
213.461	27.43
213.68	20.27
213.9	15.47
214.12	9.42
214.339	10.35
214.559	9.16
214.779	-0.64
214.998	16.1
215.218	23.54
215.438	22.11
215.657	25.3
215.877	27.45
216.096	30.15
216.316	17.39
216.535	8.14
216.755	10.13
216.974	-0.34
217.194	-7.74
217.413	7.25
217.633	5.31
217.852	-4.95
218.072	6.04
218.291	0.07
218.511	-11.07
218.73	-22.56
218.95	-40.16
219.169	-46.43
219.389	-17.39
219.608	-17.43
219.827	12.22
220.047	18.75
220.266	3.57
220.485	-42.19
220.705	-10.68
220.924	-50.82
221.143	-1.59
221.363	13.44
221.582	30.68
221.801	32.85
222.021	35.73
222.24	42.75
222.459	49.45
222.678	48.4
222.897	37.7
223.117	46.45
223.336	40.51
223.555	28.26
223.774	38.04
223.993	52.24
224.213	46.41
224.432	43.72
224.651	39.87
224.87	39.55
225.089	39.08
225.308	54.76
225.527	40.58
225.746	54.49
225.965	31.37
226.184	13.59
226.404	-7.28
226.623	1.53
226.842	-0.09
227.061	10.81
227.28	26.86
227.499	32.97
227.718	31.04
227.936	21.86
228.155	20.6
228.374	7.96
228.593	4.32
228.812	4.36
229.031	13.31
229.25	-10.95
229.469	-1.95
229.688	-5.15
229.907	4
230.125	4.24
230.344	21.86
230.563	21.63
230.782	25.54
231.001	29.14
231.22	40
231.438	43.31
231.657	35.01
231.876	29.61
232.095	32.58
232.313	23.83
232.532	29.17
232.751	18.35
232.969	26.2
233.188	6.48
233.407	9.11
233.625	-0.1
233.844	16.03
234.063	8.98
234.281	15.05
234.5	21.45
234.719	23.32
234.937	24.72
235.156	32.19
235.374	45.03
235.593	42.85
235.811	55.52
236.03	34.85
236.249	44.55
236.467	45.99
236.686	33.62
236.904	18.2
237.123	19.62
237.341	-3.67
237.559	-20.41
237.778	1.3
237.996	-27.86
238.215	-87.34
238.433	-108.25
238.652	-34.67
238.87	-42.73
239.088	-8.88
239.307	7.15
239.525	13.92
239.743	0.42
239.962	-17.79
240.18	-22.19
240.398	-13.42
240.617	-21.44
240.835	-29.18
241.053	-5.26
241.271	12.84
241.49	16.04
241.708	4.77
241.926	6.23
242.144	9.98
242.363	-5.36
242.581	-42.31
242.799	-22.13
243.017	-1.85
243.235	7.35
243.453	3.09
243.672	13.68
243.89	18.42
244.108	19.08
244.326	29.84
244.544	38.79
244.762	31.95
244.98	41.78
245.198	52.13
245.416	37.52
245.634	36.38
245.852	32.05
246.07	28.57
246.288	6.15
246.506	4.24
246.724	-15.85
246.942	-0.27
247.16	-7.62
247.378	-16.64
247.596	13.75
247.814	42.13
248.032	28.17
248.25	53.04
248.468	43.44
248.685	36.94
248.903	27.82
249.121	23.88
249.339	19.67
249.557	25.07
249.775	41.65
249.992	47.96
250.21	38.23
250.428	38.6
250.646	42.75
250.863	16.75
251.081	18.77
251.299	42.7
251.517	50.93
251.734	30.78
251.952	33.29
252.17	25.33
252.387	18.17
252.605	10
252.823	14.95
253.04	44.05
253.258	46.06
253.475	23.62
253.693	16.03
253.911	12.66
254.128	-5.1
254.346	-0.1
254.563	24.29
254.781	30.39
254.998	30.93
255.216	-2.23
255.433	-18.16
255.651	-9.42
255.868	-16.57
256.086	11.06
256.303	35.94
256.521	41.41
256.738	35.34
256.956	44.57
257.173	19.03
257.39	10.27
257.608	6.63
257.825	7.08
258.043	20.14
258.26	30.92
258.477	45.6
258.695	54.88
258.912	42.78
259.129	21.8
259.346	-11.91
259.564	-39.19
259.781	-52.45
259.998	-21.66
260.216	3.44
260.433	8.68
260.65	18.34
260.867	18.27
261.084	23.57
261.302	9.84
261.519	42.01
261.736	32.11
261.953	27.45
262.17	39.3
262.387	43.52
262.604	35.88
262.822	43.39
263.039	47.87
263.256	41.73
263.473	39.07
263.69	29.4
263.907	22.74
264.124	23.58
264.341	27.57
264.558	19.57
264.775	15.31
264.992	14.13
265.209	3.52
265.426	-35.41
265.643	-30.91
265.86	-4.08
266.077	-13.9
266.294	-4.9
266.51	32.68
266.727	36.65
266.944	27.44
267.161	26.61
267.378	25.15
267.595	-1.21
267.812	-19.75
268.028	-34.07
268.245	-19.9
268.462	-3.45
268.679	10.97
268.896	23.17
269.112	16.28
269.329	-2.55
269.546	2.97
269.763	13.74
269.979	14.19
270.196	26.55
270.413	24.67
270.629	11
270.846	6
271.063	2.5
271.279	15.93
271.496	3.97
271.712	5.77
271.929	10.16
272.146	25.13
272.362	8.3
272.579	25.14
272.795	16.33
273.012	12.84
273.228	12.66
273.445	10.77
273.661	13.88
273.878	25.36
274.094	27.69
274.311	25.67
274.527	18.06
274.744	42.71
274.96	36.61
275.177	41.99
275.393	44.51
275.609	55.75
275.826	45.11
276.042	37.94
276.259	28.22
276.475	4.92
276.691	-8.49
276.908	-7.39
277.124	22.25
277.34	31.59
277.557	25.49
277.773	28.77
277.989	17.67
278.205	-5.41
278.422	-12.57
278.638	2.16
278.854	-8.16
279.07	7.99
279.286	1.02
279.503	5.99
279.719	8.78
279.935	17.51
280.151	-0.67
280.367	8.4
280.583	4.03
280.799	5.67
281.016	-12.97
281.232	4.18
281.448	1.31
281.664	11.84
281.88	13.13
282.096	18.48
282.312	23.62
282.528	16.7
282.744	15.36
282.96	4.13
283.176	-0.41
283.392	-46.6
283.608	0.13
283.824	-39.24
284.04	-75.77
284.256	-24.49
284.471	-12.43
284.687	-24.93
284.903	-6.3
285.119	11.84
285.335	6.77
285.551	16.21
285.767	20.74
285.982	19.21
286.198	2.37
286.414	12.92
286.63	13
286.846	2.85
287.061	-13.13
287.277	-14.21
287.493	-29.27
287.709	-36.57
287.924	-16.3
288.14	9.44
288.356	43.41
288.571	37.24
288.787	33.29
289.003	46.87
289.218	19.15
289.434	-19.68
289.65	13.82
289.865	18.06
290.081	10.48
290.296	30.53
290.512	32.31
290.727	16.81
290.943	13.59
291.159	4.21
291.374	-12.63
291.59	7.42
291.805	9.28
292.021	20.48
292.236	20.07
292.451	31.85
292.667	33.34
292.882	32.34
293.098	28.19
293.313	32.13
293.529	29.44
293.744	0.41
293.959	-13.9
294.175	-3.38
294.39	-9.96
294.605	11.95
294.821	22.17
295.036	29.11
295.251	26.22
295.467	27.64
295.682	14.68
295.897	8.02
296.112	1.2
296.328	9.61
296.543	1.05
296.758	6.71
296.973	10.03
297.188	39.11
297.404	23.76
297.619	27.78
297.834	-3.49
298.049	7.23
298.264	-20.26
298.479	8.86
298.694	34.14
298.909	44.03
299.125	36.22
299.34	44.15
299.555	27.58
299.77	27.66
299.985	21.08
300.2	27.93
300.415	28.92
300.63	34.44
300.845	26.38
301.06	32.71
301.275	45.06
301.49	39.61
301.704	31.97
301.919	31.28
302.134	28.24
302.349	13.73
302.564	-1.22
302.779	-27.66
302.994	-13.78
303.209	-18.48
303.423	-14.36
303.638	-4.5
303.853	4.15
304.068	-23.08
304.283	-16.3
304.497	-31.06
304.712	-14.37
304.927	-0.5
305.142	16.48
305.356	22.42
305.571	21.72
305.786	25.06
306	41.99
306.215	28.98
306.43	17.74
306.644	12.97
306.859	2.25
307.074	3.68
307.288	17.32
307.503	33.08
307.717	36.64
307.932	33.34
308.147	22.63
308.361	28.25
308.576	-2.03
308.79	-5.77
309.005	-7.95
309.219	2.63
309.434	2.93
309.648	15.79
309.863	25.55
310.077	20.88
310.292	32.32
310.506	18.17
310.72	7.77
310.935	20.49
311.149	23.26
311.364	21.97
311.578	36.99
311.792	58.71
312.007	76.17
312.221	71.12
312.435	51.71
312.649	37.33
312.864	0.34
313.078	-18.07
313.292	-15.72
313.507	-10.87
313.721	-14.49
313.935	13.43
314.149	28.79
314.363	37.1
314.578	26.11
314.792	28.38
315.006	7.9
315.22	20.08
315.434	32.88
315.648	26.15
315.862	18.54
316.077	19.11
316.291	11.87
316.505	-33.38
316.719	-18.05
316.933	-2.9
317.147	14.96
317.361	5.44
317.575	19.14
317.789	8.16
318.003	-2.12
318.217	-1.96
318.431	-10.42
318.645	-5.86
318.859	6.09
319.073	25.56
319.287	20.4
319.5	18.08
319.714	18.54
319.928	9.81
320.142	-3.26
320.356	1.66
320.57	-7.16
320.784	-15.43
320.997	-30.5
321.211	-4.99
321.425	-21.6
321.639	0.07
321.853	12.97
322.066	14.47
322.28	-11.39
322.494	-7.86
322.707	-7.84
322.921	-18.27
323.135	-18.33
323.349	-13.15
323.562	-7.46
323.776	-6.23
323.989	7.84
324.203	6.12
324.417	18.67
324.63	14.45
324.844	6.3
325.057	-23.26
325.271	-9.13
325.485	-17.63
325.698	-6.91
325.912	16.47
326.125	24.49
326.339	30.74
326.552	30.25
326.766	11.62
326.979	-9.13
327.193	8.27
327.406	-2.76
327.619	1.22
327.833	17.92
328.046	15.9
328.26	6.11
328.473	10.94
328.686	6.6
328.9	20.23
329.113	13.79
329.326	17.51
329.54	24.18
329.753	38
329.966	25.74
330.179	33.63
330.393	41.39
330.606	32.65
330.819	11.55
331.032	17.49
331.246	27.26
331.459	21.1
331.672	11.35
331.885	9.69
332.098	12.23
332.311	-14.36
332.525	-1.26
332.738	8.82
332.951	7.65
333.164	13.68
333.377	31.59
333.59	23.45
333.803	22.1
334.016	28.94
334.229	22.34
334.442	23.8
334.655	17.68
334.868	10.08
335.081	9.65
335.294	-1.5
335.507	1.94
335.72	17.06
335.933	17.65
336.146	15.22
336.359	37.72
336.572	27.84
336.785	21.58
336.997	12.65
337.21	24.76
337.423	-20.35
337.636	-17.68
337.849	-14.86
338.062	8.84
338.274	12.48
338.487	8.52
338.7	11.9
338.913	7.18
339.125	-8.52
339.338	-13.85
339.551	-6.16
339.763	-6.72
339.976	4.12
340.189	10.9
340.402	22.83
340.614	29.44
340.827	31.76
341.039	27.02
341.252	19.55
341.465	-6.58
341.677	-10.99
341.89	-30.96
342.102	-28.21
342.315	-23.56
342.527	4.18
342.74	-22.95
342.952	-4.76
343.165	-8.86
343.377	1.99
343.59	-9.74
343.802	16.5
344.015	23.74
344.227	31.48
344.44	23.28
344.652	34.77
344.864	35.7
345.077	31
345.289	34.88
345.502	47.42
345.714	36
345.926	43.36
346.139	34.93
346.351	33.41
346.563	40.56
346.775	47.32
346.988	41.89
347.2	43.22
347.412	36.6
347.624	12.56
347.837	9.59
348.049	5.53
348.261	-1.17
348.473	-11.63
348.685	2.53
348.897	-3.73
349.11	5.8
349.322	15.97
349.534	28.43
349.746	16.65
349.958	14.89
350.17	1.65
350.382	5.49
350.594	-0.27
350.806	19.58
351.018	24.92
351.23	26.28
351.442	31.17
351.654	33.03
351.866	21.14
352.078	23.08
352.29	27.26
352.502	24.79
352.714	31.95
352.926	29.22
353.138	21.63
353.35	9.4
353.561	10.26
353.773	0.17
353.985	8.39
354.197	19.28
354.409	21.42
354.621	5.85
354.832	9.47
355.044	-9.57
355.256	-20.1
355.468	-6.29
355.679	23.11
355.891	25.43
356.103	22.09
356.314	15.53
356.526	0.5
356.738	-15.72
356.949	-15.07
357.161	11.46
357.373	14.28
357.584	21
357.796	19.98
358.008	29.3
358.219	24.56
358.431	20.39
358.642	24.78
358.854	29.62
359.065	10.08
359.277	4.83
359.488	8.3
359.7	-0.45
359.911	-6.77
360.123	1.08
360.334	-2.44
360.546	-1.53
360.757	5.87
360.969	7.26
361.18	6.46
361.391	20.12
361.603	16.07
361.814	15.72
362.025	18.23
362.237	17.97
362.448	14.24
362.659	6.24
362.871	-6.1
363.082	-12.09
363.293	-17.79
363.504	-30.22
363.716	-14.14
363.927	9.56
364.138	-6.3
364.349	-13.65
364.56	-17.55
364.772	-12.22
364.983	-15.57
365.194	-0.23
365.405	10.33
365.616	19.71
365.827	10.08
366.038	24.94
366.25	19.27
366.461	17.18
366.672	7.74
366.883	12.82
367.094	7.03
367.305	4.89
367.516	13.83
367.727	23.87
367.938	22.77
368.149	10.47
368.36	13.38
368.571	-3.26
368.781	-16.34
368.992	-12.23
369.203	-5.41
369.414	-12.79
369.625	-10.43
369.836	10.01
370.047	7.52
370.258	2.42
370.468	-3.12
370.679	2.84
370.89	-13.32
371.101	8.03
371.312	-1.84
371.522	15.08
371.733	4.51
371.944	-1.39
372.155	-3.26
372.365	0.38
372.576	-4.53
372.787	9.89
372.997	20.27
373.208	0.49
373.419	15.4
373.629	7.62
373.84	-2.47
374.05	-10.88
374.261	-17.51
374.472	-28.4
374.682	-15.39
374.893	-19.02
375.103	0.37
375.314	11.85
375.524	18.02
375.735	24.77
375.945	31.53
376.156	10.51
376.366	6.87
376.577	9.56
376.787	3.49
376.997	10.64
377.208	23.44
377.418	22.32
377.629	21.06
377.839	28.01
378.049	24.92
378.26	20.21
378.47	23.38
378.68	17.17
378.89	12.97
379.101	11.56
379.311	7.72
379.521	6.39
379.732	10.96
379.942	7.16
380.152	-2.14
380.362	1.96
380.572	8.64
380.783	12.88
380.993	14.72
381.203	12.46
381.413	24.42
381.623	28.1
381.833	28.06
382.043	29.42
382.253	32.29
382.463	29.48
382.674	25.01
382.884	24.56
383.094	25.54
383.304	29.13
383.514	20.98
383.724	16.95
383.934	10.01
384.144	11.29
384.353	13.22
384.563	15.99
384.773	21.61
384.983	22.14
385.193	21.15
385.403	13.67
385.613	15.28
385.823	3.94
386.033	5.86
386.242	1.49
386.452	2.06
386.662	1.1
386.872	9.48
387.082	6.98
387.291	4.92
387.501	10.23
387.711	9.55
387.921	7.34
388.13	10.5
388.34	11.45
388.55	6.29
388.759	0.28
388.969	-0.61
389.179	-3.95
389.388	-5.14
389.598	-2.94
389.807	-4
390.017	-2.09
390.227	-3.77
390.436	-0.18
390.646	0.32
390.855	1.64
391.065	1.49
391.274	4.4
391.484	5.21
391.693	2.59
391.903	3.57
392.112	3.39
392.322	3.1
392.531	0.77
392.74	0.99
392.95	0.95
393.159	0.13
393.369	-0.88
393.578	-1.11
393.787	-0.47
393.997	0.15
394.206	-0.4
394.415	1.77
394.625	2.31
394.834	1.13
395.043	1.68
395.252	5.31
395.462	5.15
395.671	5.11
395.88	6.7
396.089	5.92
396.298	3.92
396.508	3.23
396.717	2.37
396.926	1.89
397.135	2.25
397.344	1.57
397.553	1.66
397.762	2.9
397.971	3.2
398.181	3.79
398.39	4.11
398.599	4.64
398.808	4.45
399.017	5.54
399.226	5.26
399.435	5.83
399.644	5.8
399.853	5.88
400.062	5.01
400.27	4.93
400.479	4.81
400.688	4.67
400.897	4.53
401.106	4.64
401.315	4.55
401.524	4.44
401.733	4.17
401.941	4.66
402.15	4.44
402.359	4.38
402.568	4.52
402.777	4.99
402.985	4.28
403.194	4.13
403.403	4.43
403.612	4.11
403.82	3.68
404.029	3.94
404.238	4.03
404.446	3.96
404.655	4.2
404.864	4.28
405.072	4.34
405.281	4.43
405.489	4.28
405.698	4.29
405.906	4.52
406.115	4.46
406.324	4.57
406.532	4.79
406.741	4.77
406.949	4.63
407.158	4.78
407.366	4.57
407.574	4.43
407.783	4.47
407.991	4.4
408.2	4.36
408.408	4.48
408.617	4.34
408.825	4.07
409.033	4.01
409.242	4
409.45	3.9
409.658	3.94
409.867	4
410.075	4.07
410.283	3.86
410.491	3.81
410.7	3.67
410.908	3.8
411.116	3.89
411.324	3.87
411.533	3.87
411.741	4.01
411.949	3.95
412.157	3.7
412.365	3.84
412.573	3.93
412.781	3.9
412.99	3.92
413.198	4.14
413.406	4.14
413.614	4.23
413.822	4.35
414.03	4.3
414.238	4.28
414.446	4.24
414.654	4.03
414.862	3.91
415.07	3.78
415.278	3.86
415.486	3.67
415.694	3.7
415.902	3.75
416.109	3.76
416.317	3.63
416.525	3.74
416.733	3.67
416.941	3.7
417.149	3.65
417.357	3.7
417.564	3.65
417.772	3.69
417.98	3.66
418.188	3.7
418.395	3.36
418.603	3.43
418.811	3.48
419.019	3.41
419.226	3.46
419.434	3.74
419.642	3.65
419.849	3.58
420.057	3.58
420.265	3.5
420.472	3.37
420.68	3.53
420.887	3.48
421.095	3.43
421.302	3.43
421.51	3.47
421.717	3.49
421.925	3.62
422.132	3.71
422.34	3.59
422.547	3.48
422.755	3.35
422.962	3.32
423.17	3.1
423.377	3.18
423.585	3.42
423.792	3.45
423.999	3.33
424.207	3.29
424.414	3.46
424.621	3.39
424.829	3.39
425.036	3.45
425.243	3.59
425.451	3.55
425.658	3.44
425.865	3.44
426.072	3.47
426.28	3.52
426.487	3.4
426.694	3.26
426.901	3.27
427.108	3.29
427.315	3.27
427.523	3.23
427.73	3.41
427.937	3.3
428.144	3.27
428.351	3.3
428.558	3.48
428.765	3.41
428.972	3.42
429.179	3.35
429.386	3.31
429.593	3.18
429.8	3.2
430.007	3.28
430.214	3.4
430.421	3.45
430.628	3.44
430.835	3.42
431.042	3.32
431.249	3.24
431.456	3.33
431.662	3.49
431.869	3.65
432.076	3.73
432.283	3.92
432.49	3.81
432.697	3.77
432.903	3.69
433.11	3.86
433.317	3.8
433.524	3.83
433.73	3.75
433.937	3.88
434.144	3.64
434.35	3.58
434.557	3.62
434.764	3.7
434.97	3.52
435.177	3.73
435.384	3.78
435.59	3.85
435.797	3.91
436.003	4.03
436.21	3.93
436.416	3.89
436.623	3.81
436.829	3.8
437.036	3.77
437.242	3.92
437.449	3.9
437.655	4.08
437.862	4.07
438.068	4.01
438.275	4.01
438.481	4.1
438.687	3.99
438.894	4.11
439.1	4.23
439.307	4.26
439.513	4.37
439.719	4.38
439.926	4.43
440.132	4.54
440.338	4.5
440.544	4.48
440.751	4.47
440.957	4.55
441.163	4.41
441.369	4.35
441.575	4.24
441.782	4.39
441.988	4.24
442.194	4.23
442.4	4.23
442.606	4.4
442.812	4.34
443.018	4.37
443.224	4.5
443.431	4.57
443.637	4.41
443.843	4.44
444.049	4.55
444.255	4.51
444.461	4.5
444.667	4.59
444.873	4.63
445.079	4.56
445.284	4.49
445.49	4.54
445.696	4.46
445.902	4.39
446.108	4.41
446.314	4.44
446.52	4.51
446.726	4.69
446.931	4.69
447.137	4.72
447.343	4.83
447.549	4.75
447.755	4.72
447.96	4.74
448.166	4.71
448.372	4.66
448.578	4.66
448.783	4.64
448.989	4.71
449.195	4.74
449.4	4.8
449.606	4.86
449.812	4.78
450.017	4.79
450.223	4.76
450.428	4.68
450.634	4.68
450.84	4.74
451.045	4.7
451.251	4.75
451.456	4.81
451.662	4.86
451.867	4.98
452.073	4.95
452.278	4.97
452.483	4.91
452.689	4.87
452.894	4.88
453.1	4.88
453.305	4.86
453.51	4.95
453.716	4.96
453.921	4.94
454.127	5.04
454.332	5.02
454.537	4.97
454.742	4.96
454.948	4.98
455.153	4.88
455.358	4.89
455.563	5.04
455.769	5.01
455.974	4.92
456.179	5.01
456.384	4.98
456.589	4.82
456.795	4.88
457	4.88
457.205	4.79
457.41	4.78
457.615	4.79
457.82	4.85
458.025	4.82
458.23	4.9
458.435	4.97
458.64	5.01
458.845	4.96
459.05	5
459.255	4.94
459.46	4.91
459.665	4.89
459.87	4.89
460.075	4.89
460.28	4.93
460.485	4.96
460.69	4.94
460.895	4.94
461.099	4.86
461.304	4.8
461.509	4.87
461.714	4.97
461.919	4.91
462.123	5.05
462.328	5.02
462.533	4.9
462.738	4.81
462.942	4.86
463.147	4.81
463.352	4.91
463.556	5
463.761	5.05
463.966	5.05
464.17	5.14
464.375	5.2
464.58	5.15
464.784	5.17
464.989	5.22
465.193	5.16
465.398	5.11
465.602	5.16
465.807	5.21
466.011	5.22
466.216	5.23
466.42	5.27
466.625	5.38
466.829	5.32
467.034	5.44
467.238	5.59
467.443	5.59
467.647	5.56
467.851	5.6
468.056	5.52
468.26	5.51
468.464	5.56
468.669	5.54
468.873	5.63
469.077	5.66
469.282	5.56
469.486	5.57
469.69	5.58
469.894	5.54
470.099	5.55
470.303	5.61
470.507	5.58
470.711	5.58
470.915	5.63
471.119	5.63
471.324	5.75
471.528	5.76
471.732	5.81
471.936	5.79
472.14	5.88
472.344	5.85
472.548	5.87
472.752	5.92
472.956	5.96
473.16	5.87
473.364	5.92
473.568	5.87
473.772	5.88
473.976	5.99
474.18	6.09
474.384	5.97
474.588	6.13
474.792	6.13
474.995	6.1
475.199	6.1
475.403	6.14
475.607	6.06
475.811	6.12
476.015	6.04
476.218	6.03
476.422	6.04
476.626	6.16
476.83	6.21
477.033	6.32
477.237	6.33
477.441	6.4
477.644	6.35
477.848	6.26
478.052	6.22
478.255	6.25
478.459	6.22
478.663	6.32
478.866	6.37
479.07	6.27
479.273	6.36
479.477	6.42
479.681	6.42
479.884	6.48
480.088	6.6
480.291	6.58
480.495	6.55
480.698	6.52
480.901	6.48
481.105	6.51
481.308	6.58
481.512	6.61
481.715	6.68
481.919	6.79
482.122	6.82
482.325	6.74
482.529	6.78
482.732	6.7
482.935	6.56
483.138	6.51
483.342	6.53
483.545	6.59
483.748	6.65
483.952	6.8
484.155	6.92
484.358	6.94
484.561	6.85
484.764	6.86
484.967	6.85
485.171	6.89
485.374	6.9
485.577	6.96
485.78	6.95
485.983	6.9
486.186	6.79
486.389	6.8
486.592	6.79
486.795	6.82
486.998	6.81
487.201	6.9
487.404	6.98
487.607	6.98
487.81	6.95
488.013	7.06
488.216	7.01
488.419	6.97
488.622	6.96
488.825	6.97
489.028	6.9
489.231	6.91
489.433	6.95
489.636	7.06
489.839	7.16
490.042	7.19
490.245	7.19
490.447	7.14
490.65	7.04
490.853	7.01
491.056	6.99
491.258	7.02
491.461	7.03
491.664	7.07
491.866	7.01
492.069	7.15
492.272	7.05
492.474	7.09
492.677	7.1
492.879	7.09
493.082	7.01
493.285	7.07
493.487	7.05
493.69	7.11
493.892	7.12
494.095	7.14
494.297	7.23
494.5	7.25
494.702	7.19
494.905	7.24
495.107	7.23
495.309	7.28
495.512	7.25
495.714	7.26
495.917	7.36
496.119	7.35
496.321	7.31
496.524	7.41
496.726	7.42
496.928	7.28
497.13	7.35
497.333	7.29
497.535	7.31
497.737	7.32
497.939	7.4
498.142	7.38
498.344	7.45
498.546	7.42
498.748	7.52
498.95	7.6
499.152	7.63
499.355	7.61
499.557	7.67
499.759	7.67
499.961	7.64
500.163	7.66
500.365	7.74
500.567	7.7
500.769	7.74
500.971	7.76
501.173	7.75
501.375	7.81
501.577	7.8
501.779	7.75
501.981	7.81
502.183	7.88
502.385	7.88
502.587	8
502.788	8.08
502.99	8.06
503.192	8.09
503.394	8.1
503.596	8.05
503.798	7.98
503.999	7.99
504.201	7.93
504.403	7.96
504.605	8.05
504.806	8.18
505.008	8.23
505.21	8.4
505.411	8.46
505.613	8.48
505.815	8.48
506.016	8.55
506.218	8.52
506.42	8.48
506.621	8.6
506.823	8.6
507.024	8.6
507.226	8.62
507.427	8.7
507.629	8.65
507.83	8.74
508.032	8.71
508.233	8.78
508.435	8.81
508.636	8.89
508.838	8.88
509.039	9
509.24	9.07
509.442	9.08
509.643	9.09
509.845	9.06
510.046	9.1
510.247	9.15
510.448	9.22
510.65	9.25
510.851	9.35
511.052	9.37
511.254	9.37
511.455	9.43
511.656	9.37
511.857	9.37
512.058	9.35
512.26	9.25
512.461	9.27
512.662	9.41
512.863	9.41
513.064	9.4
513.265	9.43
513.466	9.47
513.667	9.47
513.868	9.5
514.069	9.53
514.27	9.61
514.471	9.54
514.672	9.57
514.873	9.57
515.074	9.67
515.275	9.67
515.476	9.73
515.677	9.71
515.878	9.82
516.079	9.79
516.28	9.88
516.481	9.91
516.682	9.94
516.882	9.9
517.083	9.91
517.284	9.98
517.485	9.94
517.686	9.94
517.886	9.97
518.087	9.96
518.288	9.89
518.488	9.93
518.689	9.94
518.89	10.01
519.091	10.2
519.291	10.2
519.492	10.25
519.692	10.37
519.893	10.34
520.094	10.28
520.294	10.33
520.495	10.31
520.695	10.26
520.896	10.27
521.096	10.31
521.297	10.34
521.497	10.4
521.698	10.39
521.898	10.46
522.099	10.38
522.299	10.38
522.499	10.39
522.7	10.43
522.9	10.45
523.101	10.46
523.301	10.48
523.501	10.48
523.702	10.48
523.902	10.45
524.102	10.53
524.302	10.59
524.503	10.63
524.703	10.63
524.903	10.64
525.103	10.67
525.304	10.62
525.504	10.65
525.704	10.7
525.904	10.7
526.104	10.63
526.304	10.69
526.504	10.64
526.705	10.66
526.905	10.72
527.105	10.78
527.305	10.75
527.505	10.72
527.705	10.73
527.905	10.79
528.105	10.83
528.305	10.8
528.505	10.9
528.705	10.96
528.905	10.9
529.105	10.88
529.304	10.95
529.504	10.95
529.704	10.89
529.904	10.93
530.104	10.92
530.304	10.93
530.503	10.96
530.703	10.98
530.903	10.98
531.103	11.06
531.303	11.05
531.502	11.13
531.702	11.17
531.902	11.26
532.101	11.22
532.301	11.3
532.501	11.28
532.7	11.31
532.9	11.35
533.1	11.37
533.299	11.32
533.499	11.31
533.698	11.34
533.898	11.33
534.097	11.36
534.297	11.45
534.496	11.43
534.696	11.43
534.895	11.44
535.095	11.48
535.294	11.5
535.494	11.59
535.693	11.61
535.892	11.63
536.092	11.66
536.291	11.68
536.491	11.7
536.69	11.75
536.889	11.71
537.088	11.7
537.288	11.67
537.487	11.68
537.686	11.64
537.886	11.74
538.085	11.76
538.284	11.8
538.483	11.78
538.682	11.81
538.882	11.8
539.081	11.84
539.28	11.88
539.479	11.94
539.678	12.03
539.877	12.08
540.076	12.09
540.275	12.13
540.474	12.14
540.673	12.19
540.872	12.23
541.071	12.3
541.27	12.33
541.469	12.37
541.668	12.37
541.867	12.39
542.066	12.4
542.265	12.51
542.464	12.52
542.663	12.55
542.862	12.62
543.06	12.69
543.259	12.69
543.458	12.74
543.657	12.78
543.856	12.82
544.054	12.88
544.253	12.89
544.452	12.97
544.651	13.05
544.849	13.03
545.048	13.11
545.247	13.22
545.445	13.21
545.644	13.22
545.843	13.28
546.041	13.28
546.24	13.21
546.438	13.28
546.637	13.31
546.836	13.37
547.034	13.41
547.233	13.53
547.431	13.58
547.63	13.62
547.828	13.66
548.027	13.67
548.225	13.67
548.423	13.75
548.622	13.8
548.82	13.87
549.019	13.96
549.217	14.1
549.415	14.11
549.614	14.25
549.812	14.28
550.01	14.3
550.209	14.33
550.407	14.39
550.605	14.36
550.803	14.38
551.002	14.58
551.2	14.63
551.398	14.73
551.596	14.86
551.794	15.01
551.993	15
552.191	15.08
552.389	15.19
552.587	15.24
552.785	15.23
552.983	15.32
553.181	15.42
553.379	15.44
553.577	15.48
553.775	15.64
553.973	15.72
554.171	15.76
554.369	15.84
554.567	15.98
554.765	16.01
554.963	16.05
555.161	16.13
555.359	16.17
555.557	16.26
555.755	16.42
555.952	16.58
556.15	16.66
556.348	16.74
556.546	16.83
556.744	16.92
556.941	16.89
557.139	17.01
557.337	17.14
557.535	17.19
557.732	17.23
557.93	17.42
558.128	17.51
558.325	17.59
558.523	17.73
558.721	17.89
558.918	17.95
559.116	18.06
559.313	18.18
559.511	18.31
559.708	18.33
559.906	18.42
560.104	18.47
560.301	18.5
560.498	18.55
560.696	18.71
560.893	18.9
561.091	19.04
561.288	19.22
561.486	19.24
561.683	19.35
561.88	19.43
562.078	19.53
562.275	19.55
562.473	19.71
562.67	19.73
562.867	19.77
563.064	19.84
563.262	19.98
563.459	20.07
563.656	20.13
563.853	20.18
564.051	20.34
564.248	20.37
564.445	20.47
564.642	20.64
564.839	20.8
565.036	20.89
565.234	21.12
565.431	21.28
565.628	21.38
565.825	21.49
566.022	21.65
566.219	21.67
566.416	21.74
566.613	21.87
566.81	21.93
567.007	21.93
567.204	21.96
567.401	22.03
567.598	22.01
567.795	22.16
567.991	22.25
568.188	22.47
568.385	22.56
568.582	22.72
568.779	22.73
568.976	22.79
569.172	22.85
569.369	22.88
569.566	22.92
569.763	22.98
569.96	23.07
570.156	23.1
570.353	23.22
570.55	23.32
570.746	23.46
570.943	23.49
571.14	23.51
571.336	23.55
571.533	23.57
571.729	23.56
571.926	23.67
572.123	23.76
572.319	23.78
572.516	23.85
572.712	23.86
572.909	23.85
573.105	23.9
573.302	23.98
573.498	24.03
573.695	24.12
573.891	24.18
574.087	24.13
574.284	24.15
574.48	24.16
574.677	24.22
574.873	24.24
575.069	24.33
575.266	24.35
575.462	24.35
575.658	24.34
575.854	24.41
576.051	24.43
576.247	24.42
576.443	24.36
576.639	24.39
576.835	24.3
577.032	24.23
577.228	24.29
577.424	24.4
577.62	24.35
577.816	24.44
578.012	24.51
578.208	24.45
578.404	24.42
578.6	24.5
578.796	24.5
578.993	24.57
579.189	24.63
579.384	24.66
579.58	24.62
579.776	24.57
579.972	24.57
580.168	24.59
580.364	24.53
580.56	24.55
580.756	24.57
580.952	24.53
581.148	24.56
581.343	24.6
581.539	24.61
581.735	24.58
581.931	24.51
582.127	24.45
582.322	24.46
582.518	24.44
582.714	24.39
582.909	24.44
583.105	24.33
583.301	24.35
583.496	24.4
583.692	24.33
583.888	24.36
584.083	24.44
584.279	24.32
584.474	24.27
584.67	24.38
584.866	24.4
585.061	24.37
585.257	24.42
585.452	24.4
585.648	24.36
585.843	24.32
586.039	24.33
586.234	24.41
586.429	24.32
586.625	24.38
586.82	24.39
587.015	24.43
587.211	24.39
587.406	24.5
587.601	24.53
587.797	24.51
587.992	24.41
588.187	24.35
588.383	24.32
588.578	24.25
588.773	24.26
588.968	24.39
589.163	24.44
589.359	24.51
589.554	24.52
589.749	24.53
589.944	24.64
590.139	24.71
590.334	24.72
590.529	24.79
590.724	24.87
590.919	24.77
591.114	24.79
591.309	24.8
591.504	24.87
591.699	24.83
591.894	24.85
592.089	24.86
592.284	24.92
592.479	24.84
592.674	24.96
592.869	25.08
593.064	25.1
593.259	25.13
593.454	25.33
593.648	25.31
593.843	25.32
594.038	25.42
594.233	25.41
594.428	25.36
594.622	25.52
594.817	25.63
595.012	25.66
595.206	25.81
595.401	25.92
595.596	25.92
595.79	25.88
595.985	25.96
596.18	25.98
596.374	26.12
596.569	26.14
596.763	26.25
596.958	26.31
597.153	26.42
597.347	26.42
597.542	26.53
597.736	26.64
597.931	26.64
598.125	26.65
598.319	26.66
598.514	26.54
598.708	26.55
598.903	26.63
599.097	26.72
599.291	26.79
599.486	27.05
599.68	27.09
599.874	27.27
600.069	27.39
600.263	27.46
600.457	27.51
600.651	27.58
600.846	27.53
601.04	27.5
601.234	27.55
601.428	27.54
601.622	27.55
601.817	27.53
602.011	27.46
602.205	27.47
602.399	27.39
602.593	27.45
602.787	27.5
602.981	27.6
603.175	27.61
603.369	27.69
603.563	27.73
603.757	27.75
603.951	27.69
604.145	27.8
604.339	27.92
604.533	27.81
604.727	27.77
604.921	27.88
605.115	27.72
605.309	27.49
605.502	27.5
605.696	27.54
605.89	27.52
606.084	27.62
606.278	27.65
606.471	27.66
606.665	27.56
606.859	27.45
607.053	27.25
607.246	27.2
607.44	27.04
607.634	26.98
607.827	26.92
608.021	26.87
608.214	26.91
608.408	26.89
608.602	26.85
608.795	26.87
608.989	26.9
609.182	26.86
609.376	26.85
609.569	26.81
609.763	26.73
609.956	26.63
610.15	26.47
610.343	26.4
610.537	26.44
610.73	26.25
610.923	26.2
611.117	26.24
611.31	26.14
611.504	25.99
611.697	26.1
611.89	26.01
612.083	25.82
612.277	25.82
612.47	25.73
612.663	25.6
612.856	25.53
613.05	25.54
613.243	25.53
613.436	25.5
613.629	25.32
613.822	25.36
614.015	25.23
614.209	25.1
614.402	25.02
614.595	25.03
614.788	24.88
614.981	24.76
615.174	24.66
615.367	24.59
615.56	24.37
615.753	24.38
615.946	24.29
616.139	24.28
616.332	24.19
616.525	24.3
616.718	24.27
616.911	24.38
617.103	24.31
617.296	24.27
617.489	24.14
617.682	24.09
617.875	24.01
618.067	23.92
618.26	23.86
618.453	23.92
618.646	23.76
618.838	23.75
619.031	23.7
619.224	23.64
619.417	23.68
619.609	23.75
619.802	23.66
619.994	23.69
620.187	23.65
620.38	23.48
620.572	23.37
620.765	23.4
620.957	23.28
621.15	23.28
621.342	23.29
621.535	23.27
621.727	23.24
621.92	23.27
622.112	23.25
622.305	23.22
622.497	23.18
622.69	23.12
622.882	23.16
623.074	23.21
623.267	23.16
623.459	23.19
623.651	23.1
623.844	23.11
624.036	23.09
624.228	23.15
624.42	23.04
624.613	23.04
624.805	22.85
624.997	22.81
625.189	22.76
625.381	22.78
625.574	22.85
625.766	22.92
625.958	22.81
626.15	22.81
626.342	22.75
626.534	22.68
626.726	22.59
626.918	22.62
627.11	22.54
627.302	22.55
627.494	22.58
627.686	22.57
627.878	22.53
628.07	22.49
628.262	22.5
628.454	22.45
628.646	22.43
628.838	22.54
629.029	22.44
629.221	22.4
629.413	22.32
629.605	22.25
629.797	22.05
629.989	22.04
630.18	22.01
630.372	22.02
630.564	22.02
630.755	21.99
630.947	21.95
631.139	21.85
631.33	21.73
631.522	21.76
631.714	21.79
631.905	21.75
632.097	21.74
632.289	21.72
632.48	21.66
632.672	21.59
632.863	21.52
633.055	21.54
633.246	21.61
633.438	21.48
633.629	21.41
633.821	21.46
634.012	21.44
634.203	21.26
634.395	21.33
634.586	21.33
634.777	21.28
634.969	21.24
635.16	21.27
635.351	21.2
635.543	21.1
635.734	21.03
635.925	21.02
636.117	21.02
636.308	20.98
636.499	20.95
636.69	20.99
636.881	20.96
637.073	20.92
637.264	20.86
637.455	20.91
637.646	20.92
637.837	20.81
638.028	20.83
638.219	20.88
638.41	20.95
638.601	20.82
638.792	20.84
638.983	20.81
639.174	20.74
639.365	20.69
639.556	20.63
639.747	20.6
639.938	20.55
640.129	20.56
640.32	20.45
640.511	20.47
640.701	20.5
640.892	20.51
641.083	20.47
641.274	20.41
641.465	20.35
641.655	20.22
641.846	20.13
642.037	19.98
642.228	19.91
642.418	19.84
642.609	19.81
642.8	19.74
642.99	19.82
643.181	19.82
643.372	19.81
643.562	19.74
643.753	19.69
643.943	19.5
644.134	19.4
644.324	19.4
644.515	19.43
644.705	19.41
644.896	19.57
645.086	19.63
645.277	19.55
645.467	19.55
645.658	19.48
645.848	19.34
646.038	19.25
646.229	19.27
646.419	19.13
646.61	19.15
646.8	19.17
646.99	19.2
647.18	19.18
647.371	19.23
647.561	19.14
647.751	19.1
647.941	19.05
648.132	18.99
648.322	18.91
648.512	18.98
648.702	19
648.892	19.04
649.082	18.98
649.272	18.96
649.462	18.87
649.653	18.75
649.843	18.68
650.033	18.75
650.223	18.75
650.413	18.8
650.603	18.85
650.793	18.81
650.983	18.76
651.172	18.72
651.362	18.55
651.552	18.5
651.742	18.37
651.932	18.34
652.122	18.31
652.312	18.4
652.502	18.26
652.691	18.33
652.881	18.27
653.071	18.16
653.261	17.96
653.45	17.94
653.64	17.82
653.83	17.72
654.019	17.78
654.209	17.8
654.399	17.76
654.588	17.65
654.778	17.48
654.968	17.31
655.157	17.08
655.347	16.86
655.536	16.68
655.726	16.59
655.915	16.48
656.105	16.36
656.294	16.24
656.484	16.14
656.673	16.04
656.863	15.89
657.052	15.84
657.241	15.81
657.431	15.72
657.62	15.65
657.809	15.4
657.999	15.27
658.188	15.04
658.377	14.86
658.567	14.63
658.756	14.62
658.945	14.52
659.134	14.43
659.324	14.33
659.513	14.18
659.702	13.93
659.891	13.76
660.08	13.57
660.269	13.37
660.458	13.19
660.648	13.1
660.837	12.89
661.026	12.72
661.215	12.58
661.404	12.48
661.593	12.38
661.782	12.25
661.971	12.09
662.16	12.07
662.349	11.78
662.538	11.6
662.726	11.47
662.915	11.42
663.104	11.17
663.293	11.25
663.482	11.05
663.671	10.9
663.86	10.82
664.048	10.75
664.237	10.54
664.426	10.5
664.615	10.49
664.803	10.34
664.992	10.27
665.181	10.3
665.369	10.15
665.558	9.96
665.747	9.94
665.935	9.82
666.124	9.7
666.312	9.67
666.501	9.6
666.69	9.5
666.878	9.39
667.067	9.27
667.255	9.28
667.444	9.4
667.632	9.33
667.82	9.37
668.009	9.3
668.197	9.23
668.386	9.09
668.574	9.1
668.762	8.99
668.951	9.06
669.139	8.95
669.327	8.91
669.516	8.88
669.704	8.99
669.892	8.98
670.08	9.06
670.269	9.01
670.457	9.04
670.645	8.91
670.833	8.88
671.021	8.97
671.21	9.09
671.398	9.02
671.586	9.2
671.774	9.29
671.962	9.15
672.15	9.07
672.338	9.12
672.526	9.09
672.714	9.04
672.902	9.16
673.09	9.33
673.278	9.45
673.466	9.55
673.654	9.61
673.842	9.75
674.03	9.72
674.218	9.71
674.405	9.69
674.593	9.82
674.781	9.87
674.969	10.08
675.157	10.16
675.344	10.27
675.532	10.26
675.72	10.29
675.908	10.23
676.095	10.28
676.283	10.37
676.471	10.49
676.658	10.51
676.846	10.51
677.033	10.6
677.221	10.55
677.409	10.53
677.596	10.59
677.784	10.78
677.971	10.78
678.159	11.01
678.346	11.24
678.534	11.35
678.721	11.49
678.909	11.63
679.096	11.57
679.283	11.59
679.471	11.7
679.658	11.77
679.846	11.76
680.033	12.01
680.22	12.27
680.408	12.24
680.595	12.36
680.782	12.67
680.969	12.84
681.157	12.81
681.344	13.01
681.531	13.16
681.718	13.29
681.905	13.35
682.093	13.55
682.28	13.87
682.467	14.05
682.654	14.2
682.841	14.51
683.028	14.6
683.215	14.8
683.402	14.88
683.589	15.14
683.776	15.24
683.963	15.62
684.15	15.92
684.337	16.21
684.524	16.48
684.711	16.88
684.898	16.98
685.085	17.06
685.271	17.45
685.458	17.57
685.645	17.6
685.832	18.21
686.019	18.56
686.205	18.84
686.392	19.27
686.579	19.87
686.766	20.03
686.952	20.42
687.139	20.86
687.326	21.27
687.512	21.52
687.699	21.91
687.886	22.17
688.072	22.35
688.259	22.72
688.445	23.3
688.632	23.82
688.818	24.52
689.005	25.09
689.191	25.77
689.378	26.27
689.564	26.86
689.751	27.36
689.937	28.05
690.124	28.44
690.31	28.68
690.496	29.11
690.683	29.68
690.869	30.16
691.055	30.66
691.242	31.55
691.428	32.24
691.614	32.89
691.8	33.43
691.987	34.28
692.173	34.89
692.359	35.54
692.545	36.41
692.731	37.2
692.918	37.62
693.104	38.26
693.29	38.65
693.476	39.17
693.662	39.78
693.848	40.63
694.034	41.12
694.22	41.87
694.406	42.4
694.592	43.19
694.778	43.68
694.964	44.33
695.15	45.11
695.336	45.63
695.522	46.09
695.708	46.68
695.894	47.32
696.08	47.92
696.265	48.45
696.451	48.92
696.637	49.55
696.823	49.99
697.009	50.39
697.194	50.95
697.38	51.77
697.566	52.33
697.751	53.14
697.937	53.87
698.123	54.35
698.308	54.69
698.494	55.51
698.68	56.03
698.865	56.29
699.051	56.88
699.236	57.39
699.422	57.56
699.607	57.98
699.793	58.83
699.978	59.29
700.164	59.85
700.349	60.59
700.535	60.87
700.72	61.02
700.906	61.54
701.091	61.82
701.276	61.99
701.462	62.31
701.647	62.82
701.832	63.32
702.018	64.05
702.203	64.62
702.388	65.14
702.573	65.58
702.759	66.11
702.944	66.08
703.129	66.17
703.314	66.32
703.499	66.49
703.684	66.46
703.87	67.01
704.055	67.68
704.24	68.28
704.425	68.58
704.61	68.89
704.795	69.34
704.98	69.05
705.165	69.35
705.35	69.47
705.535	69.91
705.72	69.89
705.905	70.82
706.09	71.32
706.275	71.73
706.459	72.19
706.644	72.69
706.829	72.73
707.014	72.91
707.199	73.4
707.384	73.38
707.568	73.08
707.753	73.38
707.938	73.75
708.123	73.96
708.307	74.19
708.492	75.04
708.677	75.09
708.861	74.88
709.046	74.54
709.231	74.63
709.415	74.4
709.6	74.71
709.784	74.94
709.969	75.66
710.153	75.71
710.338	76.27
710.522	76.18
710.707	76.3
710.891	76.01
711.076	76.14
711.26	76
711.445	75.95
711.629	76
711.813	76.49
711.998	76.94
712.182	76.92
712.366	77.7
712.551	78.06
712.735	78.31
712.919	78.49
713.103	79.15
713.288	78.77
713.472	78.99
713.656	78.65
713.84	78.79
714.024	78.79
714.208	79.18
714.393	79.2
714.577	79.93
714.761	79.95
714.945	79.86
715.129	79.95
715.313	79.67
715.497	79.27
715.681	79.39
715.865	79.45
716.049	79.5
716.233	79.66
716.417	79.79
716.601	79.93
716.785	80.27
716.968	80.33
717.152	80.69
717.336	81.3
717.52	81.4
717.704	81.56
717.888	81.76
718.071	81.74
718.255	81.49
718.439	81.45
718.622	81.04
718.806	80.93
718.99	80.78
719.174	80.79
719.357	80.76
719.541	81.09
719.724	81.23
719.908	81.89
720.092	82.06
720.275	82.31
720.459	82.33
720.642	82.58
720.826	82.28
721.009	82.3
721.193	81.72
721.376	82.13
721.559	81.98
721.743	82.31
721.926	82.82
722.11	83.83
722.293	84.12
722.476	84.16
722.66	84.57
722.843	84.54
723.026	84.62
723.21	84.21
723.393	84.33
723.576	83.65
723.759	83.43
723.942	83.37
724.126	83.13
724.309	83.49
724.492	83.9
724.675	83.63
724.858	83.77
725.041	84.28
725.224	84.35
725.407	84.48
725.59	84.59
725.774	84.31
725.957	83.94
726.14	83.7
726.322	83.85
726.505	84.24
726.688	84.02
726.871	84.33
727.054	84.92
727.237	84.73
727.42	84.54
727.603	84.64
727.786	84.99
727.968	84.04
728.151	84.42
728.334	84.97
728.517	85.47
728.699	85.32
728.882	85.73
729.065	85.2
729.248	85.08
729.43	85.28
729.613	85.68
729.796	86.62
729.978	86.89
730.161	86.56
730.343	86.23
730.526	86.38
730.708	85.84
730.891	86.03
731.073	86.61
731.256	87.55
731.438	87.95
731.621	88.2
731.803	88.32
731.986	88.27
732.168	88.04
732.35	88.14
732.533	88.23
732.715	88.2
732.898	87.7
733.08	87.44
733.262	86.84
733.444	86.86
733.627	87.18
733.809	87.81
733.991	88.21
734.173	87.47
734.355	87.52
734.538	87.74
734.72	88.13
734.902	88.39
735.084	88.87
735.266	89.22
735.448	89.45
735.63	89.6
735.812	89.45
735.994	90.4
736.176	90.36
736.358	89.85
736.54	90.32
736.722	89.72
736.904	88.9
737.086	88.5
737.268	89.53
737.45	89.13
737.632	89.55
737.814	90.11
737.995	90.18
738.177	89.99
738.359	89.17
738.541	89.2
738.723	88.95
738.904	89.27
739.086	89.5
739.268	90.09
739.449	90.04
739.631	89.97
739.813	89.44
739.994	88.89
740.176	89.04
740.358	89.93
740.539	89.49
740.721	90.22
740.902	90
741.084	89.63
741.265	88.94
741.447	89.4
741.628	88.77
741.81	89.4
741.991	89.66
742.172	89.66
742.354	90.24
742.535	90.71
742.717	89.66
742.898	89.03
743.079	89.26
743.261	88.27
743.442	86.9
743.623	88.04
743.804	88.65
743.986	88.4
744.167	89.19
744.348	89.77
744.529	88.48
744.71	88.34
744.891	88.47
745.073	88.84
745.254	89.32
745.435	90.06
745.616	90.34
745.797	90.22
745.978	89.59
746.159	89.31
746.34	89.33
746.521	88.68
746.702	89.08
746.883	89.47
747.064	89.5
747.245	89.87
747.426	90.2
747.606	90.08
747.787	89.54
747.968	88.56
748.149	86.23
748.33	86.09
748.51	84.62
748.691	85.23
748.872	87.18
749.053	88.99
749.233	89.3
749.414	90.93
749.595	90.19
749.775	88.78
749.956	87.77
750.137	87.6
750.317	86.86
750.498	87.19
750.678	87.37
750.859	89.02
751.04	89.53
751.22	89.22
751.4	89.97
751.581	91.55
751.761	91.19
751.942	90.63
752.122	90.01
752.303	89.31
752.483	88.85
752.663	88.49
752.844	88.34
753.024	90.23
753.204	90.91
753.385	90.56
753.565	90.8
753.745	90.83
753.925	88.76
754.106	89.1
754.286	88.49
754.466	88.76
754.646	88.3
754.826	90.71
755.006	89.16
755.187	90.42
755.367	90.18
755.547	90.16
755.727	89.49
755.907	89.35
756.087	87.83
756.267	87.04
756.447	88.51
756.627	88.64
756.807	89.9
756.987	90
757.167	89.99
757.346	89.9
757.526	89.2
757.706	88.44
757.886	88.9
758.066	88.76
758.246	85.89
758.425	85.2
758.605	83.85
758.785	83.75
758.965	84.34
759.144	84.42
759.324	86.63
759.504	87.12
759.683	85.91
759.863	85.2
760.043	86.2
760.222	84.17
760.402	84.16
760.581	86.47
760.761	86.07
760.94	86.95
761.12	86.93
761.299	89.68
761.479	88.96
761.658	89.4
761.838	89.97
762.017	90.41
762.197	87.77
762.376	88.13
762.555	88.08
762.735	87.31
762.914	87.14
763.093	87.35
763.273	86.4
763.452	85.24
763.631	85.09
763.81	84.69
763.99	84.52
764.169	85.36
764.348	85.47
764.527	85.28
764.706	84.82
764.885	84.95
765.064	84.82
765.243	85.42
765.423	85.54
765.602	85.81
765.781	84.84
765.96	82.94
766.139	81.65
766.318	82.38
766.497	81.89
766.676	81.71
766.854	83.36
767.033	85.01
767.212	84.51
767.391	84.96
767.57	87.66
767.749	86.12
767.928	85.73
768.106	84.6
768.285	84.2
768.464	82.14
768.643	82.9
768.821	83.18
769	83.55
769.179	83.08
769.357	84.85
769.536	83.6
769.715	83.28
769.893	82.68
770.072	81.99
770.25	79.08
770.429	79.37
770.607	79.82
770.786	80.51
770.964	82.41
771.143	83.67
771.321	84.2
771.5	85.58
771.678	85.81
771.857	83.56
772.035	82.74
772.213	81.99
772.392	79.01
772.57	79.98
772.748	80.6
772.927	80.19
773.105	81.65
773.283	83.67
773.461	83.63
773.64	85.54
773.818	86.2
773.996	86.07
774.174	84.98
774.352	82.76
774.531	80.74
774.709	80.99
774.887	78.11
775.065	77.19
775.243	78.16
775.421	77.14
775.599	78.34
775.777	79.17
775.955	80.41
776.133	80.38
776.311	81.45
776.489	80.64
776.667	81.03
776.844	79.98
777.022	77.93
777.2	78.41
777.378	78.04
777.556	79.93
777.734	81.37
777.911	84.4
778.089	86.34
778.267	85.13
778.445	86.34
778.622	85.96
778.8	84.62
778.978	84.12
779.155	88.74
779.333	87.93
779.511	86.08
779.688	87.54
779.866	85.44
780.043	82.72
780.221	81.65
780.398	82.47
780.576	81.51
780.753	81.89
780.931	80.71
781.108	81.69
781.286	84.39
781.463	83.69
781.64	83.36
781.818	88.28
781.995	84.31
782.172	81.21
782.35	80.04
782.527	79.99
782.704	74.58
782.882	74.3
783.059	74.49
783.236	75.89
783.413	77.27
783.59	77.92
783.768	78.14
783.945	78.8
784.122	79.27
784.299	78.97
784.476	76.47
784.653	78.06
784.83	76.66
785.007	74.26
785.184	73.26
785.361	76.18
785.538	75.8
785.715	78.34
785.892	81
786.069	83.05
786.246	83.08
786.423	82.37
786.6	81.5
786.776	80.5
786.953	78.79
787.13	78.9
787.307	80.09
787.484	77.28
787.66	76.43
787.837	75.57
788.014	76.28
788.191	75.83
788.367	76.61
788.544	75.82
788.721	76.49
788.897	73.78
789.074	75.39
789.25	76.07
789.427	77.26
789.603	73.04
789.78	75.72
789.956	72.9
790.133	71.17
790.309	68.19
790.486	73.39
790.662	71.45
790.839	70.58
791.015	73.79
791.192	73.4
791.368	71.66
791.544	73.21
791.721	77.53
791.897	74.39
792.073	74.34
792.249	72.76
792.426	72.26
792.602	70.19
792.778	70.18
792.954	71.54
793.13	73.56
793.307	72.61
793.483	69.66
793.659	69.32
793.835	71.61
794.011	75.84
794.187	73.16
794.363	72.82
794.539	74.32
794.715	71.03
794.891	65.79
795.067	67.76
795.243	70.23
795.419	69.49
795.595	77.46
795.771	77.91
795.947	81.19
796.122	78.06
796.298	81.77
796.474	80.38
796.65	83.48
796.826	81.33
797.001	85.67
797.177	74.67
797.353	74.88
797.529	74.7
797.704	73.22
797.88	72.04
798.056	75.97
798.231	71.41
798.407	71.87
798.582	72.09
798.758	70.37
798.934	74.38
799.109	71.21
799.285	72.32
799.46	70.04
799.636	73.86
799.811	75.54
799.986	77.35
800.162	71.21
800.337	76.7
800.513	75.43
800.688	66.33
800.863	73.3
801.039	74.57
801.214	68.57
801.389	67.91
801.565	75.1
801.74	69.97
801.915	72.68
802.09	76.05
802.265	73.53
802.441	76.13
802.616	72.76
802.791	73.68
802.966	72.37
803.141	71.32
803.316	64.58
803.491	68.46
803.666	67.47
803.841	67.63
804.016	69.53
804.191	72.65
804.366	71.59
804.541	67.43
804.716	69.14
804.891	71.65
805.066	68.88
805.241	69.59
805.416	79.89
805.591	77.63
805.765	85.01
805.94	90.03
806.115	89.75
806.29	81.21
806.464	88.33
806.639	81.9
806.814	82.81
806.989	83.88
807.163	89.61
807.338	84.01
807.512	83.05
807.687	80.46
807.862	79.37
808.036	78.59
808.211	78.79
808.385	79.63
808.56	79.58
808.734	75.85
808.909	75.31
809.083	79.42
809.258	82.11
809.432	76.72
809.606	81.69
809.781	80.22
809.955	73.31
810.13	65.42
810.304	69.76
810.478	69.58
810.652	67.69
810.827	62.08
811.001	64.76
811.175	64.4
811.349	62.95
811.524	67.09
811.698	69.92
811.872	66.12
812.046	64.5
812.22	61.93
812.394	54.55
812.568	59.14
812.742	64.54
812.916	71.56
813.09	73.79
813.264	73.22
813.438	71.9
813.612	66.43
813.786	54.4
813.96	56.66
814.134	57.35
814.308	53.73
814.482	58.63
814.656	64.24
814.83	66.7
815.003	68.21
815.177	72.87
815.351	71.99
815.525	81.97
815.698	72.22
815.872	66.19
816.046	53.46
816.219	50.92
816.393	42.65
816.567	47.8
816.74	52.39
816.914	60.64
817.088	70.37
817.261	67.7
817.435	69.47
817.608	59.64
817.782	56.31
817.955	58.37
818.129	60.46
818.302	60.75
818.475	67.87
818.649	64.67
818.822	57.84
818.996	72.89
819.169	78.78
819.342	78.74
819.516	95.39
819.689	86.74
819.862	73.85
820.035	67.87
820.209	60.35
820.382	40.32
820.555	46.17
820.728	43.8
820.901	29.93
821.075	38.83
821.248	59.15
821.421	57.31
821.594	61.11
821.767	69.82
821.94	63.34
822.113	62.12
822.286	71.27
822.459	72.24
822.632	78.85
822.805	81.07
822.978	75.83
823.151	63.89
823.324	55.01
823.496	43.11
823.669	51.47
823.842	66.41
824.015	78.3
824.188	74.06
824.361	83.61
824.533	71.63
824.706	60.31
824.879	59.6
825.051	75.66
825.224	69.97
825.397	69.65
825.569	61.98
825.742	65.11
825.915	62.35
826.087	57.21
826.26	56.65
826.432	76.66
826.605	76.45
826.777	74.95
826.95	70.38
827.122	56.27
827.295	57.63
827.467	39.21
827.64	37.6
827.812	40.04
827.984	77.7
828.157	60.66
828.329	70.85
828.501	56.96
828.674	65.11
828.846	63.94
829.018	58.09
829.19	56.69
829.363	65.58
829.535	68.15
829.707	59.44
829.879	53.2
830.051	53.78
830.223	60.49
830.395	42.64
830.568	42
830.74	53.55
830.912	48.47
831.084	36.38
831.256	44.09
831.428	41.64
831.6	21.95
831.772	18.5
831.943	22.76
832.115	27.48
832.287	47.49
832.459	54.22
832.631	72.57
832.803	81.07
832.975	82.08
833.146	66.71
833.318	65.42
833.49	60.98
833.662	51.16
833.833	37.78
834.005	35.77
834.177	41.52
834.348	41.03
834.52	43.09
834.692	38.32
834.863	44.82
835.035	49.7
835.206	50.79
835.378	52.06
835.549	55.11
835.721	56.18
835.892	46.59
836.064	41.43
836.235	28.37
836.407	30.85
836.578	30.47
836.749	40.92
836.921	45.46
837.092	38.53
837.264	31
837.435	19.08
837.606	25.5
837.777	17.83
837.949	39.34
838.12	50.57
838.291	62.61
838.462	73.37
838.633	75.69
838.805	64.13
838.976	65.53
839.147	65.56
839.318	54.73
839.489	54.03
839.66	80.71
839.831	76.51
840.002	69.57
840.173	70.58
840.344	73.95
840.515	43.37
840.686	48.43
840.857	51.77
841.028	50.19
841.199	46.97
841.369	50.8
841.54	56.02
841.711	63.39
841.882	68.98
842.053	55.54
842.223	64.78
842.394	54.7
842.565	40.48
842.736	38.65
842.906	38.8
843.077	37.15
843.248	39.89
843.418	32.66
843.589	31.5
843.759	60.22
843.93	73.81
844.101	54.74
844.271	100.09
844.442	75.76
844.612	56.9
844.783	57.47
844.953	64.92
845.123	49.53
845.294	54.69
845.464	51.03
845.635	35.43
845.805	38.46
845.975	51.9
846.146	52.74
846.316	49.5
846.486	64.29
846.656	59.16
846.827	46.62
846.997	57.29
847.167	55.38
847.337	45.59
847.507	49.14
847.677	47.79
847.848	57.09
848.018	53.28
848.188	58.38
848.358	42.73
848.528	63.21
848.698	26.34
848.868	31.14
849.038	18.83
849.208	45.8
849.378	52.74
849.548	58.83
849.718	43.03
849.887	16.92
850.057	-17.26
850.227	-49.8
850.397	-1.45
850.567	-7.38
850.737	66.76
850.906	59.01
851.076	59.09
851.246	81.36
851.415	111.45
851.585	22.11
851.755	46.41
851.924	40.27
852.094	7.7
852.264	-13.45
852.433	-13.82
852.603	-32.15
852.772	-30.72
852.942	23.46
853.111	41.61
853.281	54.63
853.45	51.53
853.62	50.09
853.789	6.67
853.959	22.7
854.128	18.05
854.297	35.18
854.467	39.8
854.636	77.95
854.805	70.83
854.975	76.56
855.144	65.1
855.313	77.43
855.482	37.89
855.652	37.27
855.821	27.8
855.99	47.37
856.159	33.79
856.328	29.13
856.497	33.42
856.667	54.77
856.836	59.51
857.005	57.92
857.174	52.43
857.343	46.28
857.512	32.18
857.681	11.61
857.85	20.39
858.019	5.96
858.188	6.32
858.356	5.48
858.525	18.76
858.694	43.15
858.863	40.36
859.032	42.14
859.201	55.53
859.369	64.1
859.538	42.71
859.707	52.48
859.876	57.74
860.044	71.01
860.213	65.62
860.382	54.24
860.55	50.52
860.719	64.17
860.888	39.14
861.056	32.67
861.225	38.1
861.393	42.61
861.562	39.23
861.73	42.25
861.899	47.95
862.067	39.23
862.236	36.34
862.404	44.23
862.572	34.57
862.741	18.52
862.909	28.61
863.078	6.69
863.246	-12.63
863.414	17.77
863.582	24.41
863.751	3.6
863.919	19.58
864.087	20.89
864.255	-2.18
864.424	-15.07
864.592	19.03
864.76	35.6
864.928	43.69
865.096	45.1
865.264	54.18
865.432	70.26
865.6	60.31
865.768	64.35
865.936	33.49
866.104	40.41
866.272	10.77
866.44	-16
866.608	-7.96
866.776	44.92
866.944	61.64
867.112	56.47
867.28	60.86
867.448	78.19
867.615	44.45
867.783	41.1
867.951	31.56
868.119	82.09
868.286	65.35
868.454	59.56
868.622	40.16
868.789	55.73
868.957	37.22
869.125	40.96
869.292	40.25
869.46	54.66
869.627	56.02
869.795	24.17
869.963	41.02
870.13	8.27
870.298	-13.4
870.465	6.24
870.632	-0.96
870.8	-13.91
870.967	33.45
871.135	32.06
871.302	36.78
871.469	66.68
871.637	119.6
871.804	100.12
871.971	69.58
872.139	43.46
872.306	37.31
872.473	-4.45
872.64	-101.95
872.807	-106.98
872.975	-163.35
873.142	-46.23
873.309	-46.29
873.476	17.47
873.643	59.78
873.81	43.86
873.977	35.02
874.144	120.32
874.311	80.79
874.478	22.62
874.645	8.86
874.812	60.58
874.979	44.69
875.146	62.19
875.313	80.79
875.48	105.27
875.647	64.49
875.813	-5.45
875.98	-11.03
876.147	-113.4
876.314	-94.23
876.481	-38.27
876.647	22.95
876.814	15.33
876.981	26.12
877.147	19.75
877.314	18.89
877.481	13.09
877.647	34.6
877.814	69.43
877.98	77.09
878.147	77.04
878.314	87.71
878.48	94.98
878.647	76.06
878.813	86.78
878.979	67.04
879.146	77.74
879.312	78.21
879.479	64.4
879.645	61.86
879.811	43.23
879.978	48.34
880.144	61
880.31	53.44
880.477	49.52
880.643	58.04
880.809	72.42
880.975	49.92
881.142	32.82
881.308	176.99
881.474	114.56
881.64	62.99
881.806	0.38
881.972	27.13
882.138	39.1
882.304	45.12
882.47	3.76
882.636	20.52
882.802	-12.19
882.968	1.82
883.134	10.82
883.3	16.26
883.466	65.12
883.632	102.74
883.798	41.79
883.964	-24.8
884.129	-312.23
884.295	-81.32
884.461	-123.09
884.627	-20.74
884.793	-32.95
884.958	-17.71
885.124	-35.26
885.29	-64.58
885.455	-119.22
885.621	-55.02
885.787	9.07
885.952	-7.92
886.118	54.52
886.283	59.8
886.449	66.79
886.614	42.09
886.78	48.75
886.945	3.97
887.111	-17.98
887.276	-61.7
887.442	-114.87
887.607	-63.78
887.773	-11.93
887.938	-27.09
888.103	4.39
888.269	24.49
888.434	18.84
888.599	12.56
888.764	42.59
888.93	40.75
889.095	27.66
889.26	5.91
889.425	16.14
889.59	11.72
889.756	0.21
889.921	-0.26
890.086	55.59
890.251	86.55
890.416	22.3
890.581	9.17
890.746	82.02
890.911	58.02
891.076	35.86
891.241	51.24
891.406	52.81
891.571	36.49
891.736	47.15
891.901	89.93
892.065	77.02
892.23	118.12
892.395	109.2
892.56	68.38
892.725	80.12
892.889	77.32
893.054	49.9
893.219	103.23
893.384	219.56
893.548	224.33
893.713	318.12
893.878	419.7
