Data from Ofra_1a_PS_4CX12_Reflection_1.txt Node
Date: Tue Jul 20 10:55:36 EDT 2021
User: Adam
Spectrometer: FLMT01687
Trigger mode: 0
Integration Time (sec): 1.004000E0
Scans to average: 2
Electric dark correction enabled: true
Nonlinearity correction enabled: false
Boxcar width: 2
XAxis mode: Wavelengths
Number of Pixels in Spectrum: 3648
>>>>>Begin Spectral Data<<<<<
179.494	-407.11
179.716	-591.6
179.937	1212.71
180.158	-1751.59
180.38	176.43
180.601	94.03
180.823	52.91
181.044	-5.07
181.265	-139.86
181.486	178.62
181.708	143.15
181.929	-6527.27
182.15	30.18
182.372	261.08
182.593	405.01
182.814	-352.8
183.035	-25.78
183.257	7.13
183.478	-1.25
183.699	-16.81
183.92	-25.73
184.141	-38.92
184.363	-62.12
184.584	-65.34
184.805	-3.01
185.026	16.18
185.247	10.98
185.468	16.98
185.689	25.51
185.91	-13.59
186.132	8.97
186.353	18.33
186.574	40.15
186.795	52.21
187.016	57.85
187.237	55.02
187.458	24.04
187.679	-7.01
187.9	-7.25
188.121	-9.24
188.342	10.78
188.563	18.68
188.784	43.76
189.005	25.77
189.226	23.22
189.447	13.39
189.667	15.56
189.888	-11.66
190.109	-25.23
190.33	-1.22
190.551	-17.78
190.772	-3.67
190.993	22.23
191.214	41.21
191.434	-11.81
191.655	13.26
191.876	21.29
192.097	46.47
192.318	50.07
192.538	37.94
192.759	31.35
192.98	22.59
193.201	-5.38
193.421	-15.88
193.642	2.88
193.863	3.69
194.083	-2.68
194.304	4.55
194.525	12.11
194.745	9.7
194.966	10.68
195.187	14.52
195.407	26.95
195.628	13.56
195.848	5.57
196.069	-8.35
196.29	-7.92
196.51	-43.72
196.731	-53.84
196.951	-73.31
197.172	-57.42
197.392	-78.38
197.613	-26.89
197.833	-41.45
198.054	-28.09
198.274	-21.82
198.495	-8.75
198.715	-0.55
198.936	28.35
199.156	34.04
199.377	34.51
199.597	35.35
199.817	44.17
200.038	36.23
200.258	45.03
200.479	52.4
200.699	61.75
200.919	44.28
201.14	38.88
201.36	21.69
201.58	15.42
201.801	-4.13
202.021	-12.87
202.241	7.61
202.461	3.71
202.682	30.52
202.902	38.95
203.122	45.04
203.342	31.86
203.563	17.37
203.783	-12.37
204.003	-31.27
204.223	-24.34
204.443	-21.81
204.663	-23.44
204.884	16.22
205.104	13.34
205.324	8.99
205.544	-37.98
205.764	2.36
205.984	-34.48
206.204	-22.53
206.424	-41.77
206.644	-28.97
206.864	-32.44
207.084	7.92
207.304	18.99
207.525	25.08
207.745	34.04
207.964	32
208.184	28.75
208.404	15.91
208.624	18.4
208.844	17.8
209.064	-3.2
209.284	-19.54
209.504	-43.69
209.724	-32.59
209.944	-57.77
210.164	-39.37
210.384	-40.19
210.604	-101.2
210.823	-121.34
211.043	-78.65
211.263	-184.43
211.483	-104.69
211.703	-38.4
211.922	-21.72
212.142	-6.76
212.362	19.56
212.582	21.92
212.801	19.35
213.021	-8.67
213.241	-20.14
213.461	-33.44
213.68	-26.5
213.9	-16.78
214.12	-29.51
214.339	-33.94
214.559	-12.82
214.779	-5.73
214.998	-3.29
215.218	14.89
215.438	27.93
215.657	15.48
215.877	3.46
216.096	7.87
216.316	3.71
216.535	-1.21
216.755	-2
216.974	-29.9
217.194	-38.27
217.413	-23.68
217.633	-47.64
217.852	-40.43
218.072	-9.99
218.291	-17.44
218.511	-37.72
218.73	-31.01
218.95	-49.46
219.169	-83.91
219.389	-67.53
219.608	-27
219.827	-9.87
220.047	0.91
220.266	-14.14
220.485	-17.22
220.705	-40.88
220.924	-56.67
221.143	-14.57
221.363	22.72
221.582	18.91
221.801	29.72
222.021	25.62
222.24	17.96
222.459	24.54
222.678	36.35
222.897	39.92
223.117	47.51
223.336	45.98
223.555	31.18
223.774	15.54
223.993	13.05
224.213	28.36
224.432	34.15
224.651	44.7
224.87	56.42
225.089	53.62
225.308	49.06
225.527	27.45
225.746	10.07
225.965	8.14
226.184	-7.42
226.404	-15.37
226.623	3.06
226.842	9.42
227.061	6.84
227.28	20.4
227.499	25.32
227.718	23.9
227.936	28.95
228.155	22.51
228.374	18.14
228.593	13.21
228.812	21.57
229.031	33.08
229.25	19.58
229.469	7.32
229.688	16.17
229.907	19.07
230.125	2.98
230.344	22.06
230.563	31.59
230.782	29.87
231.001	19.71
231.22	30.55
231.438	31.48
231.657	39.4
231.876	31.23
232.095	38.02
232.313	27.59
232.532	15.37
232.751	5.54
232.969	14.97
233.188	6.75
233.407	6.67
233.625	6.27
233.844	7.37
234.063	-0.2
234.281	8.23
234.5	25.82
234.719	14.7
234.937	-4.38
235.156	8.86
235.374	7.25
235.593	-3.01
235.811	36.25
236.03	38.87
236.249	29.46
236.467	24.06
236.686	4.1
236.904	-9.61
237.123	-13.17
237.341	-16.83
237.559	-33.13
237.778	-6.51
237.996	-35.9
238.215	-80.73
238.433	-122.67
238.652	-17.58
238.87	-29.75
239.088	12.86
239.307	25.62
239.525	29.19
239.743	10.87
239.962	14.1
240.18	9.44
240.398	-0.03
240.617	-2.85
240.835	-19.87
241.053	-13.82
241.271	-11.76
241.49	16.11
241.708	9.37
241.926	2.02
242.144	5.98
242.363	-12.1
242.581	-78.08
242.799	-99.18
243.017	-40.21
243.235	-29.7
243.453	-39.83
243.672	-17.18
243.89	12.59
244.108	16.94
244.326	31.5
244.544	34.02
244.762	30.86
244.98	34.51
245.198	38.89
245.416	30.85
245.634	31.57
245.852	23.17
246.07	22.9
246.288	23.82
246.506	26.05
246.724	17.93
246.942	23.55
247.16	23.39
247.378	11.04
247.596	28.64
247.814	35.52
248.032	17.84
248.25	20.92
248.468	19.61
248.685	7.55
248.903	2.81
249.121	-0.53
249.339	-3.22
249.557	-9.53
249.775	-1.97
249.992	4.47
250.21	-2.23
250.428	4.29
250.646	7.07
250.863	1.81
251.081	8.93
251.299	26.08
251.517	19.09
251.734	24.23
251.952	19
252.17	13.83
252.387	5.73
252.605	-6.52
252.823	-27.9
253.04	-0.61
253.258	5.01
253.475	3.19
253.693	8.14
253.911	2.45
254.128	-10.03
254.346	2.99
254.563	26.8
254.781	12.17
254.998	17.71
255.216	-18.27
255.433	-58.26
255.651	-58.93
255.868	-33.15
256.086	-8.98
256.303	10.77
256.521	31.4
256.738	7.97
256.956	5.37
257.173	-12.61
257.39	2.68
257.608	0.13
257.825	9.92
258.043	20.61
258.26	29.6
258.477	26.85
258.695	11.76
258.912	3.49
259.129	-6.3
259.346	-16.41
259.564	-23.12
259.781	-6.94
259.998	18.86
260.216	20.18
260.433	9.48
260.65	4.04
260.867	-13.89
261.084	-23.16
261.302	-43.42
261.519	-24.92
261.736	-13.99
261.953	4.62
262.17	11.66
262.387	16.71
262.604	16.64
262.822	18.86
263.039	24.01
263.256	29.62
263.473	34
263.69	32.34
263.907	39.73
264.124	59.64
264.341	54.82
264.558	46.08
264.775	55.34
264.992	49.52
265.209	15.84
265.426	-5.28
265.643	-10.21
265.86	-45.12
266.077	-35.5
266.294	-4.79
266.51	14.82
266.727	17.28
266.944	24.28
267.161	29.38
267.378	29.24
267.595	12.71
267.812	7.16
268.028	-5.24
268.245	-10.84
268.462	-4.55
268.679	11.65
268.896	26.42
269.112	24.11
269.329	-1.25
269.546	19.34
269.763	12.72
269.979	2.8
270.196	17.15
270.413	22.71
270.629	-16.66
270.846	-25.95
271.063	-11.97
271.279	-14.02
271.496	-22.93
271.712	0.15
271.929	6.81
272.146	1.56
272.362	3.46
272.579	7.25
272.795	12.34
273.012	25.01
273.228	36.27
273.445	43.64
273.661	52.36
273.878	40.4
274.094	24.5
274.311	2.13
274.527	-41.68
274.744	-30.45
274.96	7.94
275.177	18.44
275.393	35.6
275.609	42.47
275.826	41.87
276.042	27.55
276.259	18.89
276.475	3.65
276.691	0.66
276.908	1.84
277.124	10.87
277.34	13.83
277.557	-1.05
277.773	23.48
277.989	9.85
278.205	-1.17
278.422	9.12
278.638	35.04
278.854	19.91
279.07	29.85
279.286	24.65
279.503	26.17
279.719	20.2
279.935	17.15
280.151	11.57
280.367	19.07
280.583	5.2
280.799	-17.14
281.016	-38.18
281.232	-36.5
281.448	-29.68
281.664	-7.16
281.88	25.09
282.096	26.65
282.312	31.61
282.528	33
282.744	34.43
282.96	2.67
283.176	6.64
283.392	-20.53
283.608	-1.6
283.824	-24.96
284.04	-26.39
284.256	-0.97
284.471	14.33
284.687	7.44
284.903	-1.58
285.119	11.13
285.335	0.64
285.551	-5.8
285.767	-12.32
285.982	-5.63
286.198	-20.61
286.414	-17.75
286.63	-20.68
286.846	-45.13
287.061	-30.88
287.277	-15.37
287.493	-25.22
287.709	-18.13
287.924	1
288.14	15.34
288.356	25.92
288.571	35.71
288.787	17.16
289.003	24.15
289.218	15.38
289.434	0.74
289.65	20.45
289.865	32.48
290.081	30.43
290.296	34.61
290.512	28.12
290.727	9.82
290.943	11.02
291.159	5.9
291.374	-12.72
291.59	11.54
291.805	6.22
292.021	12.49
292.236	19.97
292.451	30.58
292.667	16.69
292.882	33.67
293.098	21.66
293.313	13.78
293.529	8.46
293.744	2.86
293.959	-12.01
294.175	6.02
294.39	-7.17
294.605	16.79
294.821	12.13
295.036	12.82
295.251	2.38
295.467	7.92
295.682	-4.02
295.897	3.38
296.112	-4.72
296.328	9.1
296.543	1.28
296.758	-0.03
296.973	7.28
297.188	22.7
297.404	0.24
297.619	8.63
297.834	-37.67
298.049	-57.14
298.264	-41.57
298.479	-41.15
298.694	-6.6
298.909	11.12
299.125	6.56
299.34	11.33
299.555	12.89
299.77	23.96
299.985	22
300.2	26.68
300.415	13.62
300.63	20.24
300.845	-0.78
301.06	-2.51
301.275	1.31
301.49	2.52
301.704	3.21
301.919	3.46
302.134	-2.14
302.349	-0.95
302.564	6.72
302.779	4.78
302.994	19.78
303.209	30.55
303.423	28.49
303.638	28.59
303.853	13.18
304.068	-17.99
304.283	-7.92
304.497	-10.01
304.712	9.04
304.927	22.34
305.142	38.02
305.356	30.95
305.571	31.97
305.786	11.79
306	9.59
306.215	-6.28
306.43	-12.05
306.644	-19.36
306.859	-22.23
307.074	-23.5
307.288	-9.02
307.503	-0.65
307.717	-8.56
307.932	-3.77
308.147	-10.51
308.361	-16.57
308.576	-34.26
308.79	-19.8
309.005	-33.16
309.219	-13.87
309.434	-6.68
309.648	-3.37
309.863	-6.54
310.077	12.92
310.292	16.78
310.506	7.52
310.72	19.88
310.935	34.56
311.149	39.49
311.364	30.44
311.578	38.6
311.792	37.83
312.007	16.14
312.221	-22.09
312.435	4.98
312.649	9.37
312.864	9.82
313.078	24
313.292	18.69
313.507	11.22
313.721	16.86
313.935	26.12
314.149	14.67
314.363	41.32
314.578	30.16
314.792	9.64
315.006	-10.91
315.22	-17.31
315.434	-12.07
315.648	-7.58
315.862	-9.52
316.077	-15.62
316.291	0.5
316.505	-35.92
316.719	-46.65
316.933	-40.81
317.147	-26.93
317.361	-27.75
317.575	-9.88
317.789	3.47
318.003	-5.33
318.217	-6.28
318.431	-33.23
318.645	-31.65
318.859	-19.3
319.073	1.19
319.287	-1.57
319.5	9.82
319.714	9.52
319.928	-1.85
320.142	-11.01
320.356	-1.62
320.57	-12.13
320.784	-4.86
320.997	-24.93
321.211	-0.55
321.425	-10.1
321.639	17.29
321.853	23.1
322.066	23.51
322.28	25.55
322.494	21.43
322.707	9.39
322.921	3.06
323.135	20.98
323.349	11.48
323.562	9.41
323.776	3.75
323.989	23.87
324.203	12.24
324.417	9.84
324.63	0.79
324.844	-6.42
325.057	-40.73
325.271	-26.48
325.485	-37.01
325.698	-8.2
325.912	14.35
326.125	14.69
326.339	18.21
326.552	28.42
326.766	18.76
326.979	22.07
327.193	28.2
327.406	9.8
327.619	6.07
327.833	5.26
328.046	6.95
328.26	-1.57
328.473	17.93
328.686	11.86
328.9	19.39
329.113	9.93
329.326	14.84
329.54	9.79
329.753	25.77
329.966	26.27
330.179	31.2
330.393	24.25
330.606	22.53
330.819	20.12
331.032	21.84
331.246	16.54
331.459	24.21
331.672	18.99
331.885	5.81
332.098	10.43
332.311	2.32
332.525	2.35
332.738	6.65
332.951	-2.29
333.164	-5.15
333.377	7.2
333.59	17.2
333.803	16.41
334.016	23.11
334.229	28.79
334.442	20.46
334.655	28.44
334.868	23.96
335.081	14.5
335.294	5.62
335.507	12.53
335.72	-3.97
335.933	-6.64
336.146	18.33
336.359	15.83
336.572	16.62
336.785	4.75
336.997	-0.5
337.21	-24.27
337.423	-49.26
337.636	-42.25
337.849	-16.5
338.062	0.97
338.274	10.1
338.487	7.98
338.7	-7.32
338.913	-3.88
339.125	-17.24
339.338	-12.16
339.551	-0.85
339.763	5.81
339.976	2.34
340.189	-13.9
340.402	-17.41
340.614	-14.01
340.827	-16.3
341.039	-27.15
341.252	-11.94
341.465	-14.24
341.677	-0.03
341.89	-7.25
342.102	4.5
342.315	8.17
342.527	14.85
342.74	-12.2
342.952	11.01
343.165	2.89
343.377	-1.15
343.59	0.13
343.802	10.93
344.015	21.83
344.227	26.23
344.44	29.71
344.652	23.69
344.864	32.28
345.077	28.17
345.289	20.93
345.502	33
345.714	32.15
345.926	25.91
346.139	0.92
346.351	11.45
346.563	19.18
346.775	20
346.988	26.73
347.2	31.67
347.412	23.05
347.624	7.53
347.837	13.19
348.049	-0.29
348.261	-4.78
348.473	-13.37
348.685	-7.73
348.897	-6.91
349.11	-1.78
349.322	7.34
349.534	16.02
349.746	19.82
349.958	5.17
350.17	11.34
350.382	1.17
350.594	4.22
350.806	16.04
351.018	27.15
351.23	28.5
351.442	35.99
351.654	35.73
351.866	20.94
352.078	15.87
352.29	12.41
352.502	-0.49
352.714	-5.53
352.926	-10.61
353.138	-3.19
353.35	-5.32
353.561	-2.61
353.773	-8.13
353.985	6.89
354.197	7.18
354.409	6.09
354.621	-11.46
354.832	3.31
355.044	-12.93
355.256	-25.71
355.468	-23.9
355.679	22.24
355.891	27.63
356.103	27.23
356.314	22.21
356.526	14.7
356.738	-11.56
356.949	-15.47
357.161	6.78
357.373	20.59
357.584	31.92
357.796	36.65
358.008	35.35
358.219	29.45
358.431	15.13
358.642	24.3
358.854	35.06
359.065	22.2
359.277	8
359.488	16.36
359.7	3.71
359.911	-9.77
360.123	0.11
360.334	-6.36
360.546	-16.14
360.757	-10.02
360.969	-11.03
361.18	-6.42
361.391	11.54
361.603	36.1
361.814	38.67
362.025	38.28
362.237	36.96
362.448	39.44
362.659	27.73
362.871	7
363.082	-1.41
363.293	-10.14
363.504	-23.12
363.716	-7.56
363.927	19.26
364.138	14.41
364.349	-16.39
364.56	-25.42
364.772	-14.47
364.983	-14.68
365.194	6.54
365.405	30.14
365.616	35.12
365.827	21.82
366.038	14.44
366.25	9.79
366.461	18.24
366.672	24.98
366.883	18.94
367.094	6.95
367.305	4.48
367.516	-17.27
367.727	-40.18
367.938	-36.75
368.149	-33.81
368.36	-33.14
368.571	-23.18
368.781	-16.45
368.992	-11.31
369.203	6.96
369.414	-6.14
369.625	-15.62
369.836	12.11
370.047	10.82
370.258	-4.46
370.468	0.53
370.679	4.85
370.89	-29.61
371.101	-1.42
371.312	-5
371.522	-7.31
371.733	-10.19
371.944	-15.94
372.155	-34.04
372.365	-25.58
372.576	-28.05
372.787	-7.57
372.997	-1.5
373.208	1.27
373.419	4.46
373.629	-2.64
373.84	-24.13
374.05	-19.13
374.261	-24.7
374.472	-13.72
374.682	2.25
374.893	-2.71
375.103	7.56
375.314	7.89
375.524	11.7
375.735	12.52
375.945	20.59
376.156	14.46
376.366	10.94
376.577	4.52
376.787	0.2
376.997	3.73
377.208	5.61
377.418	7.63
377.629	10.24
377.839	14.97
378.049	9.5
378.26	-1.67
378.47	-9.16
378.68	-9.36
378.89	-9.19
379.101	-1.42
379.311	7.02
379.521	0.29
379.732	1.87
379.942	-5.89
380.152	-11.81
380.362	-8.76
380.572	11.19
380.783	15.84
380.993	17.78
381.203	17.78
381.413	19.25
381.623	15.69
381.833	7.4
382.043	3.26
382.253	5.46
382.463	11.55
382.674	6.77
382.884	10.11
383.094	11.85
383.304	14.03
383.514	9.8
383.724	11.58
383.934	3.7
384.144	8.56
384.353	5.98
384.563	6.09
384.773	9.96
384.983	11.67
385.193	8.43
385.403	9.13
385.613	11.97
385.823	4.63
386.033	4.04
386.242	5.21
386.452	1.36
386.662	-4.29
386.872	0.61
387.082	4.82
387.291	1.37
387.501	8.94
387.711	6.88
387.921	3.59
388.13	1.07
388.34	5.3
388.55	-1.03
388.759	-1.69
388.969	-2.33
389.179	-0.21
389.388	-3.96
389.598	-4.15
389.807	-5.76
390.017	-2.16
390.227	-5.45
390.436	-0.95
390.646	-0.01
390.855	1.9
391.065	1.86
391.274	4.77
391.484	4.49
391.693	4.39
391.903	6.96
392.112	5.91
392.322	4.94
392.531	3.54
392.74	0.9
392.95	0.87
393.159	0.9
393.369	1.67
393.578	1.63
393.787	3.49
393.997	3.22
394.206	3.2
394.415	4.36
394.625	4.09
394.834	2.87
395.043	3.34
395.252	5.23
395.462	4.79
395.671	4.75
395.88	7.35
396.089	6.42
396.298	6.18
396.508	5.82
396.717	5.8
396.926	4.22
397.135	4.58
397.344	4.59
397.553	4.8
397.762	6.42
397.971	7.28
398.181	7.41
398.39	7.37
398.599	7.5
398.808	7.21
399.017	7.59
399.226	7.75
399.435	6.99
399.644	7.2
399.853	6.76
400.062	6.21
400.27	5.37
400.479	5.57
400.688	5.39
400.897	5.13
401.106	5.41
401.315	5.92
401.524	6.14
401.733	5.95
401.941	6.59
402.15	6.28
402.359	6.52
402.568	6.45
402.777	6.54
402.985	6.03
403.194	5.9
403.403	5.94
403.612	5.88
403.82	5.65
404.029	5.83
404.238	5.94
404.446	5.94
404.655	5.94
404.864	6.02
405.072	6.14
405.281	6.15
405.489	5.92
405.698	6
405.906	6.17
406.115	5.91
406.324	5.97
406.532	5.96
406.741	6.01
406.949	6
407.158	6.04
407.366	5.87
407.574	5.89
407.783	5.69
407.991	5.6
408.2	5.74
408.408	5.87
408.617	5.87
408.825	5.8
409.033	5.88
409.242	5.74
409.45	5.69
409.658	5.62
409.867	5.77
410.075	5.76
410.283	5.7
410.491	5.52
410.7	5.49
410.908	5.54
411.116	5.55
411.324	5.59
411.533	5.71
411.741	5.8
411.949	5.76
412.157	5.62
412.365	5.71
412.573	5.8
412.781	5.72
412.99	5.67
413.198	5.71
413.406	5.7
413.614	5.74
413.822	5.8
414.03	5.79
414.238	5.8
414.446	5.75
414.654	5.6
414.862	5.54
415.07	5.55
415.278	5.58
415.486	5.43
415.694	5.49
415.902	5.43
416.109	5.4
416.317	5.28
416.525	5.33
416.733	5.28
416.941	5.38
417.149	5.2
417.357	5.16
417.564	5.17
417.772	5.21
417.98	5.28
418.188	5.43
418.395	5.26
418.603	5.21
418.811	5.14
419.019	4.91
419.226	4.92
419.434	4.97
419.642	4.91
419.849	4.91
420.057	5.03
420.265	4.94
420.472	5.1
420.68	5.17
420.887	5.15
421.095	5.11
421.302	5.25
421.51	5.22
421.717	5.18
421.925	5.25
422.132	5.23
422.34	5
422.547	4.99
422.755	5.13
422.962	5.04
423.17	4.85
423.377	4.93
423.585	5.07
423.792	4.96
423.999	5.03
424.207	5.15
424.414	5.04
424.621	4.99
424.829	5.05
425.036	5.03
425.243	5.01
425.451	5.11
425.658	5.08
425.865	5.07
426.072	5.01
426.28	5.11
426.487	4.92
426.694	4.83
426.901	4.85
427.108	4.8
427.315	4.71
427.523	4.71
427.73	4.79
427.937	4.66
428.144	4.69
428.351	4.68
428.558	4.93
428.765	4.8
428.972	4.89
429.179	4.76
429.386	4.79
429.593	4.7
429.8	4.75
430.007	4.71
430.214	4.98
430.421	5.07
430.628	5.11
430.835	5.11
431.042	5.08
431.249	5.02
431.456	4.97
431.662	5.06
431.869	5.23
432.076	5.35
432.283	5.44
432.49	5.4
432.697	5.3
432.903	5.1
433.11	5.18
433.317	5.08
433.524	5.21
433.73	5.28
433.937	5.53
434.144	5.4
434.35	5.4
434.557	5.4
434.764	5.39
434.97	5.27
435.177	5.42
435.384	5.51
435.59	5.54
435.797	5.63
436.003	5.76
436.21	5.58
436.416	5.52
436.623	5.52
436.829	5.35
437.036	5.24
437.242	5.46
437.449	5.39
437.655	5.44
437.862	5.53
438.068	5.63
438.275	5.69
438.481	5.76
438.687	5.69
438.894	5.83
439.1	5.77
439.307	5.79
439.513	5.87
439.719	6.02
439.926	6.01
440.132	6.04
440.338	5.96
440.544	5.91
440.751	5.65
440.957	5.7
441.163	5.67
441.369	5.7
441.575	5.72
441.782	5.9
441.988	5.85
442.194	5.87
442.4	5.81
442.606	5.84
442.812	5.84
443.018	5.9
443.224	5.96
443.431	5.98
443.637	5.86
443.843	5.87
444.049	5.81
444.255	5.87
444.461	5.88
444.667	6.02
444.873	6.01
445.079	5.94
445.284	5.96
445.49	5.84
445.696	5.8
445.902	5.8
446.108	5.96
446.314	5.86
446.52	6.05
446.726	6.14
446.931	6.17
447.137	6.14
447.343	6.19
447.549	6.21
447.755	6.18
447.96	6.21
448.166	6.19
448.372	6.19
448.578	6.1
448.783	6.08
448.989	6.2
449.195	6.19
449.4	6.2
449.606	6.24
449.812	6.22
450.017	6.1
450.223	6.12
450.428	6.12
450.634	6.08
450.84	6.18
451.045	6.24
451.251	6.28
451.456	6.34
451.662	6.38
451.867	6.29
452.073	6.28
452.278	6.22
452.483	6.17
452.689	6.24
452.894	6.45
453.1	6.42
453.305	6.45
453.51	6.5
453.716	6.45
453.921	6.43
454.127	6.5
454.332	6.56
454.537	6.53
454.742	6.59
454.948	6.55
455.153	6.63
455.358	6.63
455.563	6.77
455.769	6.75
455.974	6.78
456.179	6.69
456.384	6.69
456.589	6.66
456.795	6.69
457	6.65
457.205	6.59
457.41	6.52
457.615	6.44
457.82	6.47
458.025	6.43
458.23	6.5
458.435	6.62
458.64	6.66
458.845	6.75
459.05	6.83
459.255	6.9
459.46	6.9
459.665	6.94
459.87	6.85
460.075	6.9
460.28	6.83
460.485	6.96
460.69	6.95
460.895	7.04
461.099	6.94
461.304	6.86
461.509	6.88
461.714	6.96
461.919	6.89
462.123	6.92
462.328	6.99
462.533	6.81
462.738	6.72
462.942	6.71
463.147	6.74
463.352	6.81
463.556	6.84
463.761	6.83
463.966	6.97
464.17	7.03
464.375	7.15
464.58	7.17
464.784	7.24
464.989	7.17
465.193	7.15
465.398	7.08
465.602	7.25
465.807	7.25
466.011	7.33
466.216	7.32
466.42	7.37
466.625	7.33
466.829	7.36
467.034	7.46
467.238	7.54
467.443	7.51
467.647	7.39
467.851	7.42
468.056	7.36
468.26	7.37
468.464	7.5
468.669	7.61
468.873	7.62
469.077	7.58
469.282	7.56
469.486	7.5
469.69	7.52
469.894	7.57
470.099	7.62
470.303	7.59
470.507	7.63
470.711	7.68
470.915	7.69
471.119	7.65
471.324	7.72
471.528	7.7
471.732	7.68
471.936	7.62
472.14	7.63
472.344	7.73
472.548	7.77
472.752	7.74
472.956	7.84
473.16	7.9
473.364	7.8
473.568	7.74
473.772	7.69
473.976	7.72
474.18	7.76
474.384	7.81
474.588	7.86
474.792	7.92
474.995	7.86
475.199	7.84
475.403	7.92
475.607	7.99
475.811	8.05
476.015	7.96
476.218	7.9
476.422	7.87
476.626	7.82
476.83	7.94
477.033	8.04
477.237	8.14
477.441	8.15
477.644	8.16
477.848	8.14
478.052	8.15
478.255	8.14
478.459	8.08
478.663	8.18
478.866	8.12
479.07	8.12
479.273	8.14
479.477	8.24
479.681	8.18
479.884	8.18
480.088	8.24
480.291	8.18
480.495	8.06
480.698	8.06
480.901	8.04
481.105	8.04
481.308	8.06
481.512	8.09
481.715	8.19
481.919	8.34
482.122	8.35
482.325	8.44
482.529	8.51
482.732	8.52
482.935	8.48
483.138	8.47
483.342	8.44
483.545	8.45
483.748	8.46
483.952	8.45
484.155	8.54
484.358	8.54
484.561	8.53
484.764	8.47
484.967	8.44
485.171	8.34
485.374	8.29
485.577	8.38
485.78	8.38
485.983	8.3
486.186	8.25
486.389	8.31
486.592	8.22
486.795	8.28
486.998	8.27
487.201	8.36
487.404	8.46
487.607	8.47
487.81	8.37
488.013	8.44
488.216	8.4
488.419	8.28
488.622	8.24
488.825	8.37
489.028	8.38
489.231	8.38
489.433	8.44
489.636	8.4
489.839	8.38
490.042	8.42
490.245	8.41
490.447	8.37
490.65	8.42
490.853	8.36
491.056	8.3
491.258	8.31
491.461	8.27
491.664	8.31
491.866	8.24
492.069	8.29
492.272	8.33
492.474	8.42
492.677	8.44
492.879	8.47
493.082	8.51
493.285	8.56
493.487	8.49
493.69	8.42
493.892	8.43
494.095	8.35
494.297	8.34
494.5	8.34
494.702	8.39
494.905	8.4
495.107	8.43
495.309	8.44
495.512	8.4
495.714	8.41
495.917	8.44
496.119	8.5
496.321	8.44
496.524	8.48
496.726	8.47
496.928	8.48
497.13	8.42
497.333	8.41
497.535	8.47
497.737	8.45
497.939	8.44
498.142	8.41
498.344	8.47
498.546	8.4
498.748	8.49
498.95	8.54
499.152	8.56
499.355	8.55
499.557	8.6
499.759	8.62
499.961	8.62
500.163	8.64
500.365	8.68
500.567	8.7
500.769	8.67
500.971	8.66
501.173	8.62
501.375	8.65
501.577	8.59
501.779	8.55
501.981	8.54
502.183	8.62
502.385	8.68
502.587	8.73
502.788	8.76
502.99	8.8
503.192	8.8
503.394	8.72
503.596	8.77
503.798	8.76
503.999	8.75
504.201	8.74
504.403	8.77
504.605	8.77
504.806	8.81
505.008	8.88
505.21	8.92
505.411	8.95
505.613	9.04
505.815	9.05
506.016	9.05
506.218	9.1
506.42	9.04
506.621	9.05
506.823	9.03
507.024	8.99
507.226	8.98
507.427	9.03
507.629	8.99
507.83	9.03
508.032	9
508.233	9.05
508.435	9.08
508.636	9.07
508.838	9.04
509.039	9.11
509.24	9.07
509.442	9.11
509.643	9.15
509.845	9.17
510.046	9.24
510.247	9.25
510.448	9.32
510.65	9.3
510.851	9.39
511.052	9.33
511.254	9.33
511.455	9.21
511.656	9.2
511.857	9.12
512.058	9.13
512.26	9.19
512.461	9.25
512.662	9.34
512.863	9.35
513.064	9.36
513.265	9.32
513.466	9.35
513.667	9.36
513.868	9.36
514.069	9.35
514.27	9.43
514.471	9.35
514.672	9.31
514.873	9.41
515.074	9.47
515.275	9.43
515.476	9.53
515.677	9.56
515.878	9.49
516.079	9.49
516.28	9.47
516.481	9.49
516.682	9.48
516.882	9.49
517.083	9.46
517.284	9.5
517.485	9.47
517.686	9.49
517.886	9.51
518.087	9.5
518.288	9.5
518.488	9.5
518.689	9.51
518.89	9.48
519.091	9.6
519.291	9.66
519.492	9.69
519.692	9.72
519.893	9.77
520.094	9.71
520.294	9.65
520.495	9.62
520.695	9.6
520.896	9.61
521.096	9.67
521.297	9.69
521.497	9.69
521.698	9.71
521.898	9.75
522.099	9.74
522.299	9.8
522.499	9.76
522.7	9.8
522.9	9.79
523.101	9.73
523.301	9.7
523.501	9.77
523.702	9.74
523.902	9.76
524.102	9.9
524.302	9.95
524.503	9.95
524.703	9.96
524.903	10.02
525.103	9.95
525.304	9.95
525.504	10.04
525.704	10.03
525.904	9.93
526.104	9.89
526.304	9.89
526.504	9.84
526.705	9.88
526.905	9.97
527.105	10
527.305	9.99
527.505	9.92
527.705	9.87
527.905	9.91
528.105	9.94
528.305	9.97
528.505	10.09
528.705	10.22
528.905	10.2
529.105	10.22
529.304	10.27
529.504	10.24
529.704	10.16
529.904	10.2
530.104	10.21
530.304	10.19
530.503	10.23
530.703	10.23
530.903	10.19
531.103	10.27
531.303	10.28
531.502	10.29
531.702	10.36
531.902	10.42
532.101	10.33
532.301	10.38
532.501	10.47
532.7	10.5
532.9	10.52
533.1	10.56
533.299	10.57
533.499	10.47
533.698	10.47
533.898	10.49
534.097	10.57
534.297	10.54
534.496	10.56
534.696	10.59
534.895	10.59
535.095	10.59
535.294	10.66
535.494	10.68
535.693	10.71
535.892	10.66
536.092	10.63
536.291	10.63
536.491	10.67
536.69	10.64
536.889	10.69
537.088	10.77
537.288	10.76
537.487	10.8
537.686	10.81
537.886	10.86
538.085	10.81
538.284	10.85
538.483	10.87
538.682	10.94
538.882	10.96
539.081	11.1
539.28	11.11
539.479	11.13
539.678	11.15
539.877	11.18
540.076	11.14
540.275	11.2
540.474	11.2
540.673	11.24
540.872	11.24
541.071	11.27
541.27	11.27
541.469	11.32
541.668	11.31
541.867	11.39
542.066	11.41
542.265	11.49
542.464	11.5
542.663	11.65
542.862	11.76
543.06	11.83
543.259	11.93
543.458	11.99
543.657	12.01
543.856	11.98
544.054	11.97
544.253	11.9
544.452	12
544.651	11.99
544.849	12.03
545.048	12.14
545.247	12.25
545.445	12.24
545.644	12.29
545.843	12.3
546.041	12.27
546.24	12.25
546.438	12.3
546.637	12.37
546.836	12.46
547.034	12.51
547.233	12.6
547.431	12.68
547.63	12.67
547.828	12.72
548.027	12.81
548.225	12.84
548.423	12.83
548.622	12.9
548.82	12.93
549.019	12.94
549.217	13.08
549.415	13.17
549.614	13.34
549.812	13.45
550.01	13.54
550.209	13.56
550.407	13.58
550.605	13.53
550.803	13.53
551.002	13.65
551.2	13.71
551.398	13.89
551.596	13.97
551.794	14.05
551.993	14.1
552.191	14.16
552.389	14.16
552.587	14.19
552.785	14.27
552.983	14.38
553.181	14.44
553.379	14.47
553.577	14.55
553.775	14.69
553.973	14.82
554.171	14.9
554.369	15
554.567	15.11
554.765	15.17
554.963	15.18
555.161	15.27
555.359	15.37
555.557	15.53
555.755	15.65
555.952	15.78
556.15	15.88
556.348	16.01
556.546	16.1
556.744	16.13
556.941	16.17
557.139	16.26
557.337	16.41
557.535	16.44
557.732	16.56
557.93	16.74
558.128	16.91
558.325	16.95
558.523	17.09
558.721	17.21
558.918	17.33
559.116	17.38
559.313	17.54
559.511	17.68
559.708	17.76
559.906	17.88
560.104	17.96
560.301	18.06
560.498	18.15
560.696	18.31
560.893	18.34
561.091	18.51
561.288	18.64
561.486	18.69
561.683	18.77
561.88	18.92
562.078	19.03
562.275	19.14
562.473	19.27
562.67	19.38
562.867	19.5
563.064	19.54
563.262	19.62
563.459	19.79
563.656	19.93
563.853	19.98
564.051	20.21
564.248	20.33
564.445	20.42
564.642	20.51
564.839	20.66
565.036	20.75
565.234	20.97
565.431	21.19
565.628	21.32
565.825	21.52
566.022	21.71
566.219	21.59
566.416	21.6
566.613	21.71
566.81	21.77
567.007	21.78
567.204	22.02
567.401	22.1
567.598	22.19
567.795	22.29
567.991	22.38
568.188	22.56
568.385	22.65
568.582	22.81
568.779	22.87
568.976	22.94
569.172	22.88
569.369	22.99
569.566	22.99
569.763	23
569.96	23.16
570.156	23.39
570.353	23.46
570.55	23.58
570.746	23.73
570.943	23.72
571.14	23.68
571.336	23.76
571.533	23.79
571.729	23.84
571.926	23.98
572.123	24.05
572.319	24.13
572.516	24.29
572.712	24.34
572.909	24.26
573.105	24.33
573.302	24.3
573.498	24.23
573.695	24.32
573.891	24.45
574.087	24.42
574.284	24.47
574.48	24.56
574.677	24.52
574.873	24.55
575.069	24.69
575.266	24.84
575.462	24.82
575.658	24.91
575.854	24.93
576.051	24.89
576.247	24.77
576.443	24.81
576.639	24.73
576.835	24.71
577.032	24.62
577.228	24.67
577.424	24.7
577.62	24.73
577.816	24.74
578.012	24.92
578.208	24.99
578.404	24.96
578.6	25.07
578.796	25.08
578.993	25.1
579.189	25.06
579.384	25.12
579.58	25.07
579.776	25.15
579.972	25.12
580.168	25.09
580.364	25.1
580.56	25.05
580.756	24.94
580.952	24.92
581.148	24.97
581.343	24.98
581.539	25.01
581.735	25.05
581.931	25
582.127	24.91
582.322	24.8
582.518	24.69
582.714	24.64
582.909	24.62
583.105	24.62
583.301	24.65
583.496	24.66
583.692	24.57
583.888	24.6
584.083	24.58
584.279	24.53
584.474	24.62
584.67	24.65
584.866	24.62
585.061	24.63
585.257	24.62
585.452	24.53
585.648	24.54
585.843	24.49
586.039	24.53
586.234	24.53
586.429	24.57
586.625	24.72
586.82	24.78
587.015	24.77
587.211	24.85
587.406	24.84
587.601	24.76
587.797	24.75
587.992	24.7
588.187	24.54
588.383	24.56
588.578	24.57
588.773	24.65
588.968	24.73
589.163	24.94
589.359	24.93
589.554	24.86
589.749	24.85
589.944	24.92
590.139	24.88
590.334	25.1
590.529	25.18
590.724	25.19
590.919	25.11
591.114	25.1
591.309	25.04
591.504	25.07
591.699	25.08
591.894	25.14
592.089	25.2
592.284	25.26
592.479	25.23
592.674	25.33
592.869	25.33
593.064	25.38
593.259	25.4
593.454	25.49
593.648	25.52
593.843	25.64
594.038	25.74
594.233	25.75
594.428	25.87
594.622	25.95
594.817	26.07
595.012	26.15
595.206	26.23
595.401	26.32
595.596	26.46
595.79	26.52
595.985	26.55
596.18	26.69
596.374	26.82
596.569	26.77
596.763	26.89
596.958	27
597.153	27.09
597.347	27.08
597.542	27.18
597.736	27.25
597.931	27.27
598.125	27.42
598.319	27.53
598.514	27.57
598.708	27.59
598.903	27.75
599.097	27.66
599.291	27.67
599.486	27.84
599.68	27.96
599.874	28.03
600.069	28.09
600.263	28.24
600.457	28.26
600.651	28.26
600.846	28.21
601.04	28.31
601.234	28.3
601.428	28.31
601.622	28.36
601.817	28.49
602.011	28.52
602.205	28.53
602.399	28.51
602.593	28.52
602.787	28.44
602.981	28.43
603.175	28.5
603.369	28.56
603.563	28.64
603.757	28.77
603.951	28.66
604.145	28.56
604.339	28.57
604.533	28.5
604.727	28.4
604.921	28.43
605.115	28.43
605.309	28.35
605.502	28.44
605.696	28.49
605.89	28.5
606.084	28.55
606.278	28.63
606.471	28.48
606.665	28.26
606.859	28.2
607.053	28.07
607.246	28.01
607.44	27.87
607.634	27.93
607.827	27.86
608.021	27.79
608.214	27.61
608.408	27.59
608.602	27.47
608.795	27.49
608.989	27.46
609.182	27.45
609.376	27.41
609.569	27.41
609.763	27.3
609.956	27.24
610.15	27.17
610.343	27.05
610.537	26.97
610.73	26.85
610.923	26.75
611.117	26.77
611.31	26.64
611.504	26.57
611.697	26.51
611.89	26.44
612.083	26.17
612.277	26.2
612.47	25.99
612.663	25.88
612.856	25.68
613.05	25.55
613.243	25.46
613.436	25.38
613.629	25.27
613.822	25.31
614.015	25.28
614.209	25.21
614.402	25.18
614.595	25.06
614.788	24.96
614.981	24.86
615.174	24.66
615.367	24.53
615.56	24.45
615.753	24.34
615.946	24.32
616.139	24.35
616.332	24.41
616.525	24.34
616.718	24.35
616.911	24.21
617.103	24.18
617.296	24.02
617.489	23.91
617.682	23.87
617.875	23.85
618.067	23.77
618.26	23.7
618.453	23.73
618.646	23.63
618.838	23.63
619.031	23.55
619.224	23.51
619.417	23.54
619.609	23.54
619.802	23.44
619.994	23.5
620.187	23.42
620.38	23.34
620.572	23.27
620.765	23.24
620.957	23.15
621.15	23.11
621.342	23.09
621.535	23.05
621.727	23.04
621.92	23.01
622.112	23.01
622.305	22.93
622.497	22.85
622.69	22.77
622.882	22.8
623.074	22.8
623.267	22.77
623.459	22.76
623.651	22.79
623.844	22.75
624.036	22.81
624.228	22.76
624.42	22.69
624.613	22.64
624.805	22.53
624.997	22.42
625.189	22.49
625.381	22.52
625.574	22.48
625.766	22.43
625.958	22.38
626.15	22.31
626.342	22.28
626.534	22.25
626.726	22.23
626.918	22.17
627.11	22.06
627.302	22.01
627.494	21.92
627.686	21.85
627.878	21.84
628.07	21.93
628.262	21.91
628.454	21.93
628.646	21.95
628.838	21.92
629.029	21.77
629.221	21.78
629.413	21.71
629.605	21.54
629.797	21.49
629.989	21.46
630.18	21.49
630.372	21.48
630.564	21.47
630.755	21.38
630.947	21.41
631.139	21.21
631.33	21.2
631.522	21.31
631.714	21.26
631.905	21.24
632.097	21.31
632.289	21.35
632.48	21.31
632.672	21.3
632.863	21.18
633.055	21.13
633.246	21.03
633.438	20.99
633.629	21.02
633.821	21.11
634.012	21.04
634.203	21.02
634.395	21.04
634.586	20.93
634.777	20.83
634.969	20.88
635.16	20.82
635.351	20.71
635.543	20.74
635.734	20.72
635.925	20.76
636.117	20.78
636.308	20.84
636.499	20.87
636.69	20.86
636.881	20.71
637.073	20.72
637.264	20.69
637.455	20.63
637.646	20.65
637.837	20.68
638.028	20.67
638.219	20.74
638.41	20.77
638.601	20.72
638.792	20.7
638.983	20.58
639.174	20.43
639.365	20.45
639.556	20.41
639.747	20.36
639.938	20.41
640.129	20.39
640.32	20.28
640.511	20.26
640.701	20.22
640.892	20.17
641.083	20.13
641.274	20.14
641.465	20.16
641.655	20.15
641.846	20.21
642.037	20.19
642.228	20.07
642.418	19.95
642.609	19.94
642.8	19.77
642.99	19.78
643.181	19.88
643.372	19.89
643.562	19.84
643.753	19.87
643.943	19.82
644.134	19.66
644.324	19.73
644.515	19.71
644.705	19.69
644.896	19.73
645.086	19.85
645.277	19.7
645.467	19.74
645.658	19.67
645.848	19.6
646.038	19.6
646.229	19.71
646.419	19.54
646.61	19.62
646.8	19.66
646.99	19.54
647.18	19.51
647.371	19.6
647.561	19.61
647.751	19.56
647.941	19.54
648.132	19.4
648.322	19.35
648.512	19.19
648.702	19.16
648.892	19.18
649.082	19.31
649.272	19.23
649.462	19.28
649.653	19.27
649.843	19.23
650.033	19.16
650.223	19.2
650.413	19.21
650.603	19.18
650.793	19.13
650.983	19.01
651.172	18.96
651.362	18.79
651.552	18.7
651.742	18.61
651.932	18.52
652.122	18.53
652.312	18.49
652.502	18.38
652.691	18.4
652.881	18.35
653.071	18.21
653.261	18.1
653.45	18.04
653.64	17.83
653.83	17.85
654.019	17.71
654.209	17.65
654.399	17.58
654.588	17.5
654.778	17.32
654.968	17.23
655.157	17.12
655.347	16.92
655.536	16.7
655.726	16.42
655.915	16.22
656.105	16.11
656.294	15.94
656.484	15.87
656.673	15.83
656.863	15.76
657.052	15.52
657.241	15.42
657.431	15.25
657.62	15.13
657.809	14.84
657.999	14.68
658.188	14.52
658.377	14.36
658.567	14.19
658.756	14.09
658.945	13.9
659.134	13.7
659.324	13.5
659.513	13.34
659.702	13.16
659.891	13
660.08	12.98
660.269	12.86
660.458	12.59
660.648	12.44
660.837	12.45
661.026	12.15
661.215	11.99
661.404	11.93
661.593	11.89
661.782	11.57
661.971	11.38
662.16	11.26
662.349	11.05
662.538	10.86
662.726	10.73
662.915	10.74
663.104	10.63
663.293	10.64
663.482	10.54
663.671	10.45
663.86	10.3
664.048	10.21
664.237	10.06
664.426	10.04
664.615	9.94
664.803	9.81
664.992	9.64
665.181	9.6
665.369	9.37
665.558	9.39
665.747	9.48
665.935	9.52
666.124	9.56
666.312	9.66
666.501	9.65
666.69	9.6
666.878	9.57
667.067	9.39
667.255	9.32
667.444	9.34
667.632	9.34
667.82	9.31
668.009	9.35
668.197	9.36
668.386	9.22
668.574	9.21
668.762	9.11
668.951	9.04
669.139	9.03
669.327	9.08
669.516	9.04
669.704	9.21
669.892	9.33
670.08	9.29
670.269	9.34
670.457	9.34
670.645	9.28
670.833	9.36
671.021	9.54
671.21	9.61
671.398	9.66
671.586	9.64
671.774	9.62
671.962	9.58
672.15	9.51
672.338	9.53
672.526	9.62
672.714	9.68
672.902	9.74
673.09	9.86
673.278	10
673.466	10.15
673.654	10.12
673.842	10.21
674.03	10.33
674.218	10.37
674.405	10.33
674.593	10.5
674.781	10.59
674.969	10.75
675.157	10.93
675.344	11.06
675.532	11.15
675.72	11.23
675.908	11.15
676.095	11.11
676.283	11.37
676.471	11.49
676.658	11.57
676.846	11.72
677.033	11.86
677.221	11.75
677.409	11.78
677.596	11.82
677.784	11.89
677.971	11.8
678.159	12.02
678.346	12.05
678.534	12.22
678.721	12.32
678.909	12.55
679.096	12.57
679.283	12.8
679.471	12.83
679.658	12.85
679.846	13.01
680.033	13.26
680.22	13.55
680.408	13.63
680.595	13.87
680.782	14.08
680.969	14.22
681.157	14.17
681.344	14.27
681.531	14.47
681.718	14.58
681.905	14.63
682.093	14.89
682.28	15.3
682.467	15.37
682.654	15.31
682.841	15.5
683.028	15.48
683.215	15.66
683.402	15.88
683.589	16.19
683.776	16.36
683.963	16.66
684.15	16.81
684.337	17.1
684.524	17.34
684.711	17.7
684.898	17.95
685.085	18.08
685.271	18.34
685.458	18.69
685.645	18.89
685.832	19.11
686.019	19.41
686.205	19.76
686.392	20.1
686.579	20.58
686.766	21.09
686.952	21.63
687.139	21.99
687.326	22.52
687.512	22.83
687.699	23.17
687.886	23.49
688.072	23.89
688.259	24.11
688.445	24.53
688.632	25.1
688.818	25.72
689.005	26.19
689.191	26.91
689.378	27.67
689.564	28.15
689.751	28.73
689.937	29.56
690.124	30.17
690.31	30.44
690.496	31.1
690.683	31.59
690.869	32.13
691.055	32.74
691.242	33.55
691.428	34.27
691.614	35.06
691.8	35.78
691.987	36.65
692.173	37.44
692.359	38.06
692.545	38.73
692.731	39.4
692.918	39.79
693.104	40.39
693.29	41.05
693.476	42.02
693.662	42.81
693.848	43.65
694.034	44.42
694.22	45.29
694.406	45.92
694.592	46.78
694.778	47.49
694.964	48.24
695.15	48.91
695.336	49.49
695.522	50.06
695.708	51.05
695.894	51.92
696.08	52.74
696.265	53.59
696.451	54.29
696.637	54.83
696.823	55.27
697.009	55.97
697.194	56.64
697.38	57.48
697.566	58.04
697.751	58.87
697.937	59.48
698.123	60.08
698.308	60.46
698.494	61.54
698.68	62.14
698.865	62.89
699.051	63.32
699.236	64.07
699.422	64.32
699.607	64.91
699.793	65.69
699.978	66.18
700.164	66.48
700.349	66.94
700.535	67.25
700.72	67.5
700.906	68.36
701.091	68.99
701.276	69.39
701.462	70.25
701.647	70.6
701.832	71.28
702.018	72.19
702.203	72.88
702.388	73.1
702.573	73.86
702.759	74.25
702.944	74.1
703.129	74.26
703.314	74.69
703.499	74.59
703.684	74.81
703.87	75.55
704.055	76.21
704.24	76.72
704.425	77.22
704.61	77.59
704.795	78.13
704.98	78.01
705.165	78.45
705.35	79
705.535	79.29
705.72	79.41
705.905	80.18
706.09	80.52
706.275	80.67
706.459	80.85
706.644	80.96
706.829	81.09
707.014	81.25
707.199	81.81
707.384	82.11
707.568	82.22
707.753	82.8
707.938	83.19
708.123	83.5
708.307	83.71
708.492	84.46
708.677	84.55
708.861	84.38
709.046	83.99
709.231	84.26
709.415	84.21
709.6	84.43
709.784	84.88
709.969	85.64
710.153	85.5
710.338	85.98
710.522	86.06
710.707	86
710.891	86.11
711.076	86.67
711.26	86.68
711.445	87.1
711.629	87.48
711.813	87.71
711.998	88.05
712.182	87.73
712.366	88.23
712.551	88.58
712.735	88.72
712.919	88.95
713.103	89.76
713.288	89.37
713.472	89.34
713.656	88.96
713.84	88.93
714.024	88.87
714.208	88.72
714.393	89.24
714.577	89.71
714.761	89.47
714.945	89.22
715.129	89.9
715.313	89.58
715.497	89.68
715.681	90.07
715.865	90.24
716.049	90.03
716.233	89.92
716.417	90
716.601	90.19
716.785	90.44
716.968	90.45
717.152	90.73
717.336	90.72
717.52	90.94
717.704	91.24
717.888	91.65
718.071	91.58
718.255	92.09
718.439	91.79
718.622	91.82
718.806	91.46
718.99	91.83
719.174	91.8
719.357	92.12
719.541	92.55
719.724	92.89
719.908	92.84
720.092	92.24
720.275	92.28
720.459	92.32
720.642	92.01
720.826	92.01
721.009	92.48
721.193	92.43
721.376	92.62
721.559	92.92
721.743	93.71
721.926	93.73
722.11	94.38
722.293	94.43
722.476	94.36
722.66	94.26
722.843	94.65
723.026	94.68
723.21	94.56
723.393	95.6
723.576	95.62
723.759	95.74
723.942	95.66
724.126	95.33
724.309	94.71
724.492	94.52
724.675	94.32
724.858	94.67
725.041	95.2
725.224	95.92
725.407	95.74
725.59	96.4
725.774	95.9
725.957	95.82
726.14	95.64
726.322	96.32
726.505	96.05
726.688	96.05
726.871	96.06
727.054	96.21
727.237	95.62
727.42	95.6
727.603	95.95
727.786	96.33
727.968	95.66
728.151	96.13
728.334	96.38
728.517	96.38
728.699	96.34
728.882	96.58
729.065	96.05
729.248	96.31
729.43	96.42
729.613	96.4
729.796	97.33
729.978	98.55
730.161	98.38
730.343	98.34
730.526	98.45
730.708	98
730.891	98.03
731.073	98.75
731.256	99.4
731.438	99.88
731.621	100.33
731.803	100.22
731.986	100.06
732.168	100.38
732.35	100.45
732.533	100.03
732.715	99.81
732.898	99.49
733.08	99.23
733.262	98.66
733.444	99.54
733.627	100.7
733.809	100.78
733.991	101.04
734.173	101.13
734.355	100.42
734.538	100.04
734.72	100.42
734.902	99.96
735.084	100.43
735.266	101.09
735.448	100.76
735.63	100.36
735.812	100.87
735.994	100.59
736.176	100.38
736.358	101.06
736.54	101.82
736.722	101.47
736.904	102.05
737.086	101.62
737.268	101.91
737.45	102.45
737.632	102.96
737.814	103.22
737.995	103.79
738.177	103.22
738.359	102.59
738.541	102.09
738.723	102.5
738.904	102.61
739.086	102.66
739.268	102.91
739.449	102.98
739.631	101.89
739.813	100.86
739.994	100.54
740.176	100.74
740.358	101.52
740.539	101.8
740.721	103.2
740.902	103.58
741.084	103.71
741.265	103.34
741.447	104.21
741.628	104.09
741.81	103.45
741.991	103.08
742.172	102.8
742.354	102.02
742.535	102.04
742.717	102.72
742.898	102.75
743.079	104.13
743.261	105.2
743.442	103.94
743.623	103.93
743.804	103.98
743.986	103.39
744.167	101.95
744.348	102.19
744.529	101.43
744.71	100.67
744.891	100.04
745.073	100.48
745.254	101.05
745.435	101.48
745.616	102.21
745.797	101.73
745.978	101.57
746.159	101.7
746.34	102.23
746.521	103.23
746.702	104.26
746.883	105.1
747.064	104.43
747.245	104.6
747.426	104.25
747.606	103.21
747.787	103.39
747.968	103.93
748.149	103.83
748.33	102
748.51	102.44
748.691	101.79
748.872	103.27
749.053	102.66
749.233	102.66
749.414	103.2
749.595	103.12
749.775	101.19
749.956	100.91
750.137	101.49
750.317	100.71
750.498	100.37
750.678	100.34
750.859	101.59
751.04	101.55
751.22	101.56
751.4	101.76
751.581	102.38
751.761	101.52
751.942	101.69
752.122	101.25
752.303	101.56
752.483	101.31
752.663	100.93
752.844	100.73
753.024	102.65
753.204	102.29
753.385	103.02
753.565	102.77
753.745	102.56
753.925	99.77
754.106	100.32
754.286	98.66
754.466	99.09
754.646	99.22
754.826	101.54
755.006	100.89
755.187	101.8
755.367	100.96
755.547	100.76
755.727	100
755.907	99.19
756.087	98.89
756.267	98.94
756.447	99.97
756.627	100.09
756.807	101.13
756.987	100.5
757.167	100.64
757.346	99.25
757.526	99.27
757.706	98.17
757.886	98.8
758.066	99.6
758.246	98.73
758.425	97.91
758.605	97.19
758.785	98.3
758.965	98.77
759.144	99.06
759.324	99.99
759.504	101.97
759.683	100.42
759.863	100.16
760.043	100.46
760.222	101.01
760.402	99.7
760.581	100.1
760.761	99.25
760.94	99.14
761.12	97.79
761.299	98.62
761.479	99.2
761.658	99.52
761.838	100.65
762.017	100.65
762.197	99.94
762.376	99.9
762.555	99.65
762.735	98.82
762.914	98.11
763.093	97.69
763.273	97.13
763.452	97.12
763.631	96.95
763.81	97.96
763.99	98.81
764.169	99.24
764.348	98.35
764.527	97.79
764.706	96.27
764.885	97.19
765.064	97.49
765.243	96.45
765.423	96.92
765.602	99.04
765.781	96.2
765.96	95.67
766.139	97.02
766.318	98.22
766.497	96
766.676	96.15
766.854	95.67
767.033	96.45
767.212	97.69
767.391	98.8
767.57	101.93
767.749	100.93
767.928	100.38
768.106	96.39
768.285	94.72
768.464	93.04
768.643	92.75
768.821	91.6
769	92.82
769.179	95.24
769.357	95.23
769.536	95.32
769.715	94.93
769.893	94.57
770.072	91.51
770.25	89.87
770.429	90.33
770.607	91.62
770.786	91.36
770.964	94.39
771.143	95.33
771.321	95.35
771.5	96.83
771.678	97.13
771.857	94.33
772.035	95.72
772.213	93.08
772.392	89.64
772.57	89.98
772.748	89.97
772.927	89.12
773.105	92.64
773.283	94.08
773.461	95.71
773.64	96.49
773.818	96.1
773.996	95.12
774.174	96.03
774.352	95.26
774.531	95.19
774.709	94.17
774.887	92.91
775.065	93.43
775.243	92.62
775.421	92.45
775.599	94.2
775.777	94.52
775.955	91.5
776.133	90.47
776.311	89.73
776.489	89
776.667	89.07
776.844	89.6
777.022	90.85
777.2	90.35
777.378	88.01
777.556	89.54
777.734	89.85
777.911	89.63
778.089	92.12
778.267	92.82
778.445	95.41
778.622	96.1
778.8	92.83
778.978	90.03
779.155	91.61
779.333	89.51
779.511	87.69
779.688	91.56
779.866	95.35
780.043	95.44
780.221	93.64
780.398	95.32
780.576	93.38
780.753	91.48
780.931	90.71
781.108	92.18
781.286	92.18
781.463	90.39
781.64	92.59
781.818	95.86
781.995	93.55
782.172	93.96
782.35	95.06
782.527	91.97
782.704	87.5
782.882	86.09
783.059	85.28
783.236	85.56
783.413	85.14
783.59	87.13
783.768	89.16
783.945	89.38
784.122	91.06
784.299	93.24
784.476	89.64
784.653	89.07
784.83	85.93
785.007	83.61
785.184	83.28
785.361	87.83
785.538	87.55
785.715	90.82
785.892	92.04
786.069	93.35
786.246	90.56
786.423	91.81
786.6	91.48
786.776	90.95
786.953	88.63
787.13	90.64
787.307	88.38
787.484	85.66
787.66	86.52
787.837	86.35
788.014	87.64
788.191	87.45
788.367	89.09
788.544	87.09
788.721	86.55
788.897	86.27
789.074	85.44
789.25	87.89
789.427	88.08
789.603	84.96
789.78	82.73
789.956	82.24
790.133	77.15
790.309	79.76
790.486	82.99
790.662	81.57
790.839	84.63
791.015	89.56
791.192	87.69
791.368	87.77
791.544	90.03
791.721	87.08
791.897	83.68
792.073	81.16
792.249	78.7
792.426	78.58
792.602	82.37
792.778	82.35
792.954	85.25
793.13	88.97
793.307	90.2
793.483	87.2
793.659	88.62
793.835	93.66
794.011	95.12
794.187	90.88
794.363	92.08
794.539	93.23
794.715	85.84
794.891	83.6
795.067	84.7
795.243	85.1
795.419	80.02
795.595	83.44
795.771	81.76
795.947	80.24
796.122	78.26
796.298	81.35
796.474	82.46
796.65	82.51
796.826	82.21
797.001	79.47
797.177	76.36
797.353	76.01
797.529	78.57
797.704	80.29
797.88	80.22
798.056	79.98
798.231	77.49
798.407	76.36
798.582	75.36
798.758	78.79
798.934	83.65
799.109	78.92
799.285	79.97
799.46	79.07
799.636	77.16
799.811	78.36
799.986	81.72
800.162	76.24
800.337	79.47
800.513	78.39
800.688	69.15
800.863	76.3
801.039	78.41
801.214	77.68
801.389	79.76
801.565	84.11
801.74	72.48
801.915	70.67
802.09	68.19
802.265	67.41
802.441	66.55
802.616	69.85
802.791	71.51
802.966	73.48
803.141	72.66
803.316	75.59
803.491	74.98
803.666	74.58
803.841	72.09
804.016	77.46
804.191	74.54
804.366	74.59
804.541	79.71
804.716	78.9
804.891	75.47
805.066	79.41
805.241	82.46
805.416	85.17
805.591	91.66
805.765	100.82
805.94	96.04
806.115	93.79
806.29	88
806.464	88.49
806.639	79.52
806.814	81.59
806.989	87.68
807.163	98.58
807.338	88.61
807.512	86.62
807.687	85.65
807.862	75.76
808.036	72.07
808.211	78.74
808.385	81.09
808.56	75.19
808.734	75.53
808.909	70.46
809.083	74.19
809.258	72.89
809.432	82.09
809.606	86.08
809.781	84.9
809.955	85.87
810.13	88.55
810.304	84.02
810.478	76.97
810.652	72.63
810.827	72.29
811.001	71.47
811.175	72.93
811.349	82.41
811.524	85.24
811.698	80.52
811.872	85.1
812.046	83.41
812.22	76.11
812.394	77.74
812.568	78.96
812.742	61.51
812.916	60.65
813.09	59.04
813.264	52.09
813.438	52.02
813.612	62.97
813.786	63.39
813.96	71.98
814.134	77.35
814.308	81.67
814.482	80.11
814.656	85.9
814.83	85.03
815.003	97.19
815.177	88.21
815.351	97.58
815.525	97.81
815.698	91.74
815.872	70.86
816.046	71.27
816.219	64.12
816.393	59.07
816.567	59.02
816.74	62.59
816.914	65.03
817.088	69.27
817.261	77.3
817.435	86.63
817.608	92.21
817.782	90.93
817.955	85.22
818.129	79.12
818.302	71.05
818.475	81
818.649	82.21
818.822	84.56
818.996	93.73
819.169	94.85
819.342	89.42
819.516	95.15
819.689	90.48
819.862	80.43
820.035	83.33
820.209	80.63
820.382	75.77
820.555	74.46
820.728	74.85
820.901	62.83
821.075	71.66
821.248	67.55
821.421	74.78
821.594	68.35
821.767	82.72
821.94	69.34
822.113	75.62
822.286	72.6
822.459	73.47
822.632	73.36
822.805	78.99
822.978	77.28
823.151	72.17
823.324	63.72
823.496	55
823.669	64.22
823.842	68.41
824.015	72.52
824.188	79.93
824.361	82.17
824.533	66.68
824.706	61.53
824.879	63.74
825.051	75.12
825.224	81.1
825.397	82.91
825.569	79.62
825.742	76.14
825.915	79.65
826.087	67.23
826.26	57.97
826.432	55.88
826.605	54.91
826.777	50.04
826.95	57.56
827.122	55.03
827.295	70.05
827.467	88.34
827.64	77.8
827.812	67.07
827.984	82.32
828.157	69.96
828.329	66.09
828.501	63.26
828.674	70.37
828.846	68.55
829.018	63.56
829.19	50.61
829.363	52.06
829.535	43.3
829.707	48.5
829.879	46.38
830.051	62.46
830.223	75
830.395	70.76
830.568	71.01
830.74	75.95
830.912	75.17
831.084	69.63
831.256	72.62
831.428	67.01
831.6	71.15
831.772	45.87
831.943	33.82
832.115	36.36
832.287	35.94
832.459	26.76
832.631	50.31
832.803	64.61
832.975	68.84
833.146	66.19
833.318	73.6
833.49	72.21
833.662	81.15
833.833	71.68
834.005	78.07
834.177	83.05
834.348	79.26
834.52	72.53
834.692	68.14
834.863	62.36
835.035	69.81
835.206	60.83
835.378	58.08
835.549	53.59
835.721	56.11
835.892	46.31
836.064	49.98
836.235	45.25
836.407	57.91
836.578	57.65
836.749	48.34
836.921	43.13
837.092	42.27
837.264	35.47
837.435	23.57
837.606	42.66
837.777	52.09
837.949	57.49
838.12	59.23
838.291	73.47
838.462	71.81
838.633	68.36
838.805	58.9
838.976	64.3
839.147	39.21
839.318	48.71
839.489	39.29
839.66	57.84
839.831	53.58
840.002	63.24
840.173	49.71
840.344	51.13
840.515	36.09
840.686	40.72
840.857	52.75
841.028	56.1
841.199	60.35
841.369	68.87
841.54	62.2
841.711	84.27
841.882	80.62
842.053	76.56
842.223	65.55
842.394	47.88
842.565	32.61
842.736	37.43
842.906	19.06
843.077	28.29
843.248	44.92
843.418	33.36
843.589	12.35
843.759	32.86
843.93	40.29
844.101	40.09
844.271	49.54
844.442	73.9
844.612	63.41
844.783	57.72
844.953	57.13
845.123	57.7
845.294	53.99
845.464	58.61
845.635	52.16
845.805	47.9
845.975	37.67
846.146	31.64
846.316	35.92
846.486	35.76
846.656	49.15
846.827	60.54
846.997	68.46
847.167	59.71
847.337	53.79
847.507	60.48
847.677	46.19
847.848	58.2
848.018	67.24
848.188	67.94
848.358	32.26
848.528	34.18
848.698	6.23
848.868	7.32
849.038	15.63
849.208	41.33
849.378	44.54
849.548	50.63
849.718	56.06
849.887	59.63
850.057	28.72
850.227	64.01
850.397	59.87
850.567	23.37
850.737	52.33
850.906	56.52
851.076	28.98
851.246	52.23
851.415	92.87
851.585	98.21
851.755	109.3
851.924	131.5
852.094	134.03
852.264	105.78
852.433	68.24
852.603	42.89
852.772	45.9
852.942	59.3
853.111	48.13
853.281	44.93
853.45	38.49
853.62	16.46
853.789	-16.58
853.959	7.23
854.128	20.09
854.297	32.51
854.467	40.2
854.636	49.45
854.805	43.63
854.975	41
855.144	29.48
855.313	23.9
855.482	-2.04
855.652	-15.29
855.821	-44.09
855.99	-47.6
856.159	-22.85
856.328	-20.72
856.497	8.76
856.667	22.86
856.836	39.92
857.005	31.77
857.174	29.49
857.343	-5.43
857.512	9.23
857.681	6.17
857.85	-4.77
858.019	-22.38
858.188	23.16
858.356	32.38
858.525	16.85
858.694	11.18
858.863	24.3
859.032	22.58
859.201	-19.65
859.369	-22.11
859.538	1.41
859.707	-34.36
859.876	11.2
860.044	42.44
860.213	62.74
860.382	72.45
860.55	76.7
860.719	62.33
860.888	54.07
861.056	43.66
861.225	26.38
861.393	37.84
861.562	49.41
861.73	33.56
861.899	12.92
862.067	5.39
862.236	15.22
862.404	8.77
862.572	9.09
862.741	22.97
862.909	30.22
863.078	27.48
863.246	-0.9
863.414	8.56
863.582	6.27
863.751	1.11
863.919	-3.2
864.087	16.56
864.255	18.68
864.424	36.25
864.592	80.28
864.76	87.32
864.928	97.73
865.096	81.69
865.264	76.97
865.432	32.92
865.6	89.15
865.768	52.46
865.936	82.21
866.104	71.28
866.272	73.27
866.44	2.24
866.608	25.09
866.776	22.85
866.944	54.57
867.112	67.04
867.28	53.33
867.448	59.61
867.615	40.92
867.783	19.86
867.951	10.45
868.119	33.76
868.286	96.39
868.454	79.49
868.622	58.2
868.789	61.32
868.957	78.7
869.125	53.14
869.292	47.7
869.46	56
869.627	86.79
869.795	19.22
869.963	18.55
870.13	-3.92
870.298	1.17
870.465	-23.71
870.632	-25.7
870.8	11.05
870.967	54.37
871.135	41.94
871.302	46
871.469	70.11
871.637	48.77
871.804	47.13
871.971	39.48
872.139	24.27
872.306	-28.12
872.473	-42.07
872.64	-134.42
872.807	-55.24
872.975	-128.45
873.142	-14.22
873.309	-3.96
873.476	19.95
873.643	22.74
873.81	-0.33
873.977	-36.71
874.144	-6.35
874.311	-47.13
874.478	-75.47
874.645	-51.22
874.812	26.05
874.979	-9.58
875.146	-7.46
875.313	-25.74
875.48	5.08
875.647	-31.21
875.813	-34.69
875.98	-50.26
876.147	-113.82
876.314	-80.27
876.481	-8.6
876.647	-8.08
876.814	-0.86
876.981	13.99
877.147	15.21
877.314	19.02
877.481	39.14
877.647	62.63
877.814	53.03
877.98	44.01
878.147	41.61
878.314	45.47
878.48	43.68
878.647	65.04
878.813	68.5
878.979	55.32
879.146	51.63
879.312	60.25
879.479	70.64
879.645	61.13
879.811	46.83
879.978	54.96
880.144	59.25
880.31	33.86
880.477	23.61
880.643	13.6
880.809	-78.39
880.975	-119.3
881.142	-165.86
881.308	339.43
881.474	244.54
881.64	61.73
881.806	24.6
881.972	53.09
882.138	43.39
882.304	30.78
882.47	1.26
882.636	18.45
882.802	-27.47
882.968	-51.13
883.134	-5.4
883.3	-10.17
883.466	-16.46
883.632	61.89
883.798	8.85
883.964	-54.86
884.129	-566.81
884.295	-53.15
884.461	-118.54
884.627	-8.02
884.793	-7.4
884.958	49.65
885.124	37.43
885.29	24.27
885.455	-18.29
885.621	27.54
885.787	-22.03
885.952	-49.16
886.118	17.27
886.283	26.07
886.449	-12.64
886.614	1.34
886.78	22.44
886.945	-1.49
887.111	-18.98
887.276	-39.88
887.442	-121.56
887.607	-92.75
887.773	-46.57
887.938	-20.74
888.103	5.3
888.269	49.71
888.434	50.18
888.599	36.69
888.764	53.05
888.93	59.07
889.095	36.38
889.26	25.21
889.425	20.85
889.59	-48.49
889.756	-32.38
889.921	-11.03
890.086	18.26
890.251	139.19
890.416	84.68
890.581	70.7
890.746	105.93
890.911	71.25
891.076	42.42
891.241	71.81
891.406	95.22
891.571	187.92
891.736	190.95
891.901	109.65
892.065	50.27
892.23	59.74
892.395	15.76
892.56	35.22
892.725	104.63
892.889	264.66
893.054	154.16
893.219	69.98
893.384	63.4
893.548	-24.28
893.713	-67.81
893.878	-155.39
