Data from Ofra_1a_PS_1GT42_Reflection_3.txt Node
Date: Tue Jul 20 10:45:31 EDT 2021
User: Adam
Spectrometer: FLMT01687
Trigger mode: 0
Integration Time (sec): 1.004000E0
Scans to average: 2
Electric dark correction enabled: true
Nonlinearity correction enabled: false
Boxcar width: 2
XAxis mode: Wavelengths
Number of Pixels in Spectrum: 3648
>>>>>Begin Spectral Data<<<<<
179.494	-247.72
179.716	-290.08
179.937	555.18
180.158	-583.44
180.38	34.28
180.601	-28.22
180.823	-92.2
181.044	-113.86
181.265	-147.97
181.486	52.62
181.708	-1.35
181.929	2872.73
182.15	-53.03
182.372	362.56
182.593	208.36
182.814	-220.71
183.035	-73.89
183.257	3.25
183.478	-6.98
183.699	-21.86
183.92	-34.01
184.141	-33.32
184.363	-26.36
184.584	-41.9
184.805	-2.52
185.026	32.36
185.247	21.52
185.468	-34.95
185.689	-1.8
185.91	-21.64
186.132	-4.04
186.353	5.04
186.574	24.13
186.795	28.8
187.016	39.17
187.237	6.4
187.458	18.67
187.679	-3.27
187.9	11.36
188.121	19.95
188.342	39.78
188.563	49.13
188.784	80.68
189.005	48.08
189.226	23.02
189.447	21.99
189.667	-1.2
189.888	-29.25
190.109	-30.47
190.33	-0.78
190.551	-25.42
190.772	-11.22
190.993	-27.96
191.214	-44.23
191.434	-75.14
191.655	-79.15
191.876	-22.36
192.097	28.96
192.318	39.38
192.538	-25.8
192.759	-13.1
192.98	-16.02
193.201	-14.05
193.421	-25.64
193.642	7.29
193.863	16.48
194.083	15.54
194.304	9.37
194.525	14.85
194.745	-4.95
194.966	7.56
195.187	18.79
195.407	13.74
195.628	23.01
195.848	25.13
196.069	-11.08
196.29	-21.51
196.51	-18.28
196.731	-20.82
196.951	-5.05
197.172	13.71
197.392	-4.47
197.613	26.98
197.833	16.87
198.054	12.87
198.274	10.17
198.495	2.11
198.715	-32.07
198.936	-6.52
199.156	-0.48
199.377	-3.97
199.597	16.03
199.817	15.79
200.038	-33.8
200.258	0.36
200.479	5.31
200.699	-12.55
200.919	-20.73
201.14	-9.32
201.36	-9.89
201.58	-11.17
201.801	24.97
202.021	3.74
202.241	33.43
202.461	-0.1
202.682	-8.37
202.902	-5.52
203.122	4.84
203.342	1.64
203.563	-5.73
203.783	-0.07
204.003	-17.56
204.223	3.66
204.443	24.8
204.663	36.15
204.884	41.74
205.104	27.33
205.324	49.29
205.544	-16.98
205.764	7.13
205.984	-5.74
206.204	25.92
206.424	-34.82
206.644	-29.86
206.864	-72.28
207.084	-39.42
207.304	-103.82
207.525	-67.14
207.745	-44.55
207.964	-20.06
208.184	-21.15
208.404	15.51
208.624	25.85
208.844	9.89
209.064	6.68
209.284	-10.86
209.504	-2.66
209.724	-19.52
209.944	-4.72
210.164	-21.17
210.384	4.43
210.604	-45.43
210.823	-23.38
211.043	-15.57
211.263	-51.4
211.483	-57.09
211.703	-29.24
211.922	-52.1
212.142	-52.49
212.362	-28.75
212.582	-43.49
212.801	-55.61
213.021	-41.86
213.241	-41.85
213.461	-19.93
213.68	9.46
213.9	-9.53
214.12	-2.26
214.339	6.14
214.559	1.37
214.779	-10.23
214.998	21.16
215.218	11.44
215.438	14.01
215.657	13.29
215.877	3.43
216.096	6.16
216.316	7.07
216.535	5.04
216.755	-0.6
216.974	2.52
217.194	-13.85
217.413	-20.24
217.633	-44.63
217.852	-31.16
218.072	-17.99
218.291	-21.96
218.511	-21.98
218.73	-22.5
218.95	-56.65
219.169	-56.5
219.389	-29.08
219.608	-31.49
219.827	-6.76
220.047	12.39
220.266	-8.6
220.485	-17.28
220.705	-7.31
220.924	-38.68
221.143	-16.9
221.363	-5.32
221.582	-9.89
221.801	-16.56
222.021	-5.91
222.24	-4.3
222.459	17.01
222.678	15.89
222.897	31.31
223.117	38.68
223.336	31.32
223.555	10.95
223.774	19.16
223.993	20.41
224.213	36.26
224.432	46.85
224.651	47.76
224.87	48.46
225.089	48.83
225.308	34.77
225.527	16.39
225.746	-2.44
225.965	-16.02
226.184	-43.73
226.404	-32.78
226.623	-13.69
226.842	-6.05
227.061	3.64
227.28	9.31
227.499	10.97
227.718	11.43
227.936	13.31
228.155	0.38
228.374	7.69
228.593	-10.18
228.812	-24.16
229.031	-7.67
229.25	-6.05
229.469	-15.32
229.688	-8.42
229.907	8.84
230.125	5.62
230.344	11.63
230.563	22.61
230.782	37.35
231.001	28.64
231.22	17.52
231.438	33.06
231.657	8.93
231.876	-6.89
232.095	0.92
232.313	-9.82
232.532	-24.93
232.751	-4.68
232.969	7.34
233.188	-2.2
233.407	7.98
233.625	15.18
233.844	2.97
234.063	-1.06
234.281	-2.04
234.5	0.1
234.719	1.65
234.937	-10.01
235.156	-16.12
235.374	-6.43
235.593	11.63
235.811	25.13
236.03	31.35
236.249	34.4
236.467	32.72
236.686	13.66
236.904	12.78
237.123	-2.3
237.341	-9.55
237.559	-29.68
237.778	1.55
237.996	-44.11
238.215	-47.77
238.433	-52.02
238.652	16.89
238.87	-12.95
239.088	5
239.307	5.18
239.525	8.05
239.743	-7.79
239.962	-27.09
240.18	-20.82
240.398	-21.98
240.617	-36.14
240.835	-44.34
241.053	4.66
241.271	24.62
241.49	34.66
241.708	26.62
241.926	25.49
242.144	25.46
242.363	2.37
242.581	-48.27
242.799	-43.9
243.017	-19.47
243.235	-17.29
243.453	-42.86
243.672	-21.67
243.89	-8.74
244.108	0.12
244.326	11.41
244.544	29.98
244.762	16.03
244.98	19.42
245.198	9.23
245.416	2.93
245.634	-4.14
245.852	-9.9
246.07	5.17
246.288	14.58
246.506	12.44
246.724	12.9
246.942	21.8
247.16	12.42
247.378	-0.34
247.596	21.78
247.814	-3.32
248.032	-0.45
248.25	16.02
248.468	28.41
248.685	24.63
248.903	35.26
249.121	45.1
249.339	32.91
249.557	40.11
249.775	35.05
249.992	32.28
250.21	12.72
250.428	25.39
250.646	16.69
250.863	20.01
251.081	23.21
251.299	31.91
251.517	24.41
251.734	35.71
251.952	15.08
252.17	16.78
252.387	14.05
252.605	19.97
252.823	-24.3
253.04	19.34
253.258	4.21
253.475	26.09
253.693	10.56
253.911	27.95
254.128	17.79
254.346	27.69
254.563	25.31
254.781	29.51
254.998	24.32
255.216	-3.47
255.433	-21.23
255.651	-38.92
255.868	-30.8
256.086	-25.88
256.303	-6.7
256.521	4.99
256.738	9.76
256.956	3.72
257.173	-17.47
257.39	-9.46
257.608	-15.36
257.825	1.85
258.043	21.42
258.26	33.42
258.477	25.58
258.695	36.03
258.912	17.53
259.129	4.73
259.346	-3.92
259.564	19.56
259.781	0.48
259.998	10.47
260.216	1.71
260.433	-2.58
260.65	-17.55
260.867	-22.76
261.084	-29.56
261.302	-43.46
261.519	-27.87
261.736	-23.88
261.953	-2.67
262.17	14.63
262.387	18.74
262.604	22.02
262.822	33.03
263.039	23.65
263.256	14.9
263.473	10.45
263.69	17.83
263.907	29.4
264.124	36.1
264.341	40.23
264.558	47.54
264.775	54.41
264.992	27.71
265.209	6.82
265.426	8.45
265.643	6.86
265.86	-28.28
266.077	-35.55
266.294	3.08
266.51	25.12
266.727	34.17
266.944	39.33
267.161	48.01
267.378	47.47
267.595	20.01
267.812	3.45
268.028	-28.4
268.245	-15.25
268.462	-7.92
268.679	-4.62
268.896	12.81
269.112	23.04
269.329	-19.7
269.546	-19.65
269.763	-5.52
269.979	-16.83
270.196	-8.72
270.413	6.96
270.629	3.37
270.846	-1.91
271.063	17.66
271.279	26.43
271.496	27.94
271.712	28.61
271.929	40.49
272.146	30.74
272.362	14.3
272.579	-2
272.795	-20.37
273.012	-26.66
273.228	-8.38
273.445	10.99
273.661	27.53
273.878	30.47
274.094	21.81
274.311	15.09
274.527	-14.79
274.744	4.76
274.96	5.26
275.177	1.94
275.393	7.39
275.609	31.77
275.826	22.61
276.042	27.81
276.259	29.25
276.475	17.33
276.691	2
276.908	0.45
277.124	6.41
277.34	0.35
277.557	4.61
277.773	4.33
277.989	4.32
278.205	-2.71
278.422	-4.38
278.638	1.5
278.854	2.16
279.07	12.75
279.286	16.56
279.503	15.72
279.719	20.17
279.935	9.73
280.151	-10.18
280.367	-12.21
280.583	-20.02
280.799	-23.99
281.016	-57.89
281.232	-33.26
281.448	-26.85
281.664	-9.01
281.88	3.96
282.096	20.7
282.312	13.48
282.528	13.22
282.744	14.6
282.96	-12.03
283.176	-14.74
283.392	-47.2
283.608	-41.4
283.824	-65.08
284.04	-100.48
284.256	-59
284.471	-30.29
284.687	-17.91
284.903	-12.9
285.119	11.24
285.335	19.32
285.551	30.76
285.767	15.02
285.982	19.73
286.198	17.37
286.414	2.84
286.63	-35.53
286.846	-18.75
287.061	9.12
287.277	5.19
287.493	-11.68
287.709	11.47
287.924	20.26
288.14	39.16
288.356	32.22
288.571	41.77
288.787	25.73
289.003	20.66
289.218	-29.47
289.434	-26.03
289.65	-1.01
289.865	-2.23
290.081	-8
290.296	4.61
290.512	-5.83
290.727	-23.05
290.943	-10.13
291.159	-4.95
291.374	-14.76
291.59	2.35
291.805	-0.05
292.021	-9.83
292.236	-16.17
292.451	-0.55
292.667	-11.32
292.882	-0.05
293.098	-2.52
293.313	2.17
293.529	-10.07
293.744	-12.79
293.959	-13.67
294.175	-6.1
294.39	-29.98
294.605	-7.92
294.821	-13.66
295.036	-16.94
295.251	-12.19
295.467	-4.89
295.682	-7.77
295.897	-9.63
296.112	-7.01
296.328	4.17
296.543	0.6
296.758	-7.24
296.973	-1.72
297.188	-5.7
297.404	-21.17
297.619	-39.97
297.834	-74.35
298.049	-63.64
298.264	-48.23
298.479	-51.9
298.694	4.73
298.909	33.83
299.125	37.87
299.34	32.38
299.555	36.68
299.77	33.33
299.985	20.11
300.2	27.49
300.415	30.16
300.63	23.63
300.845	5.66
301.06	7.42
301.275	-3.06
301.49	8.72
301.704	10.39
301.919	9.93
302.134	9.09
302.349	2.25
302.564	-18.06
302.779	-31.27
302.994	-20.18
303.209	-25.31
303.423	-13.64
303.638	-4.26
303.853	-6.77
304.068	-11.44
304.283	-4.43
304.497	-14.29
304.712	-5.43
304.927	11.62
305.142	20.51
305.356	21.76
305.571	31.37
305.786	32.67
306	47.48
306.215	44.07
306.43	38
306.644	28.66
306.859	29.51
307.074	9.44
307.288	8.01
307.503	-2.38
307.717	-0.81
307.932	2.86
308.147	-5.02
308.361	-12.39
308.576	-21.02
308.79	-25.17
309.005	-57.89
309.219	-22.1
309.434	-0.44
309.648	11.31
309.863	12.96
310.077	23.11
310.292	20.99
310.506	20.41
310.72	18.08
310.935	18.06
311.149	19.46
311.364	4.5
311.578	-12.88
311.792	-17.52
312.007	-25.92
312.221	-26.75
312.435	-3.72
312.649	17.89
312.864	26.91
313.078	33.33
313.292	30.4
313.507	25.37
313.721	23.38
313.935	9.03
314.149	4.05
314.363	19.3
314.578	12.23
314.792	-22.07
315.006	-28.21
315.22	-26.47
315.434	-29.37
315.648	-40.88
315.862	-26.15
316.077	-14.5
316.291	-6.75
316.505	-33.76
316.719	-13.78
316.933	-16.45
317.147	-17.82
317.361	-23.85
317.575	-2.91
317.789	1.22
318.003	-0.05
318.217	1.13
318.431	9.1
318.645	6.53
318.859	8.38
319.073	14.58
319.287	13.53
319.5	12.53
319.714	13.98
319.928	8.13
320.142	1.68
320.356	4.74
320.57	-21.06
320.784	-18.55
320.997	-27.49
321.211	-8.26
321.425	-26.02
321.639	-0.23
321.853	6.56
322.066	2.09
322.28	-8.19
322.494	6.85
322.707	3
322.921	-1.59
323.135	17.37
323.349	28.5
323.562	25.02
323.776	19.16
323.989	18.61
324.203	-1.31
324.417	-11.85
324.63	-14.43
324.844	-8.2
325.057	-23.41
325.271	-10.29
325.485	-11.23
325.698	11.19
325.912	28.23
326.125	17.25
326.339	20.79
326.552	20.27
326.766	3.74
326.979	-15.71
327.193	9.59
327.406	-9.14
327.619	-3.68
327.833	-10.3
328.046	-4.41
328.26	-17.06
328.473	-1.41
328.686	3.37
328.9	14.64
329.113	8.4
329.326	10.87
329.54	8.37
329.753	12.8
329.966	0.44
330.179	0.33
330.393	2.99
330.606	2.69
330.819	-11.69
331.032	1.02
331.246	11.77
331.459	17.51
331.672	17.79
331.885	23.65
332.098	12.83
332.311	10.35
332.525	14.73
332.738	13.64
332.951	3.69
333.164	20.08
333.377	19.4
333.59	1.33
333.803	1.47
334.016	10.82
334.229	-0.99
334.442	3.52
334.655	7.33
334.868	10.52
335.081	4.37
335.294	-7.57
335.507	3.34
335.72	8.75
335.933	2.85
336.146	6.36
336.359	20.55
336.572	11.38
336.785	3.43
336.997	-5.89
337.21	-1.6
337.423	-20.03
337.636	-26.07
337.849	-24.96
338.062	-6.28
338.274	6.15
338.487	-11.08
338.7	-26.14
338.913	-17.26
339.125	-21.48
339.338	-37.59
339.551	-15.3
339.763	-0.21
339.976	1.97
340.189	-3.95
340.402	25.92
340.614	24.59
340.827	23.5
341.039	31.94
341.252	21.52
341.465	-1.91
341.677	-1.37
341.89	-5.8
342.102	-1.77
342.315	5.25
342.527	6.28
342.74	-11.24
342.952	-5.1
343.165	-5.9
343.377	3.16
343.59	14.25
343.802	27.34
344.015	23.64
344.227	19.32
344.44	3.89
344.652	-0.48
344.864	9.43
345.077	19.61
345.289	27.12
345.502	41.42
345.714	38.89
345.926	40.01
346.139	18.98
346.351	14.62
346.563	18.22
346.775	10.97
346.988	2.17
347.2	2.19
347.412	-0.37
347.624	-15.43
347.837	-2.91
348.049	3.29
348.261	3.49
348.473	1.9
348.685	7.98
348.897	-17.09
349.11	-11.36
349.322	-0.05
349.534	-12.37
349.746	-6.25
349.958	-5.55
350.17	-19.87
350.382	-23.11
350.594	-0.91
350.806	11.06
351.018	19.25
351.23	19.09
351.442	21.33
351.654	18.25
351.866	10.25
352.078	15.1
352.29	22.47
352.502	27.63
352.714	31.81
352.926	26.49
353.138	41.72
353.35	24.92
353.561	21.79
353.773	25.69
353.985	34.52
354.197	30.89
354.409	33.98
354.621	16.01
354.832	4.2
355.044	-31.1
355.256	-52.9
355.468	-74.13
355.679	-11.64
355.891	-5.47
356.103	14.89
356.314	2.04
356.526	-3.11
356.738	-24.17
356.949	-32.65
357.161	-38.34
357.373	-12.54
357.584	0.54
357.796	5.86
358.008	12.89
358.219	20.13
358.431	2.94
358.642	14.47
358.854	19.53
359.065	10.79
359.277	7.76
359.488	13.79
359.7	1.83
359.911	-8.96
360.123	12.63
360.334	10.7
360.546	12.9
360.757	21.85
360.969	21.56
361.18	9.94
361.391	16.05
361.603	23.42
361.814	27.05
362.025	33.65
362.237	38.63
362.448	32.76
362.659	20.03
362.871	0.1
363.082	-9.59
363.293	-19.01
363.504	-25.84
363.716	-18.48
363.927	0.69
364.138	-6.44
364.349	-18.9
364.56	-27
364.772	-8.61
364.983	-6.08
365.194	-2.53
365.405	-0.84
365.616	13.58
365.827	0.56
366.038	0.88
366.25	9.9
366.461	19.86
366.672	20.75
366.883	22.71
367.094	20.72
367.305	2.75
367.516	-8.07
367.727	-20.05
367.938	-21.14
368.149	-25.84
368.36	-25.54
368.571	-46.91
368.781	-59.54
368.992	-42.62
369.203	-33.03
369.414	-24.97
369.625	-20.44
369.836	15.66
370.047	4.18
370.258	3.94
370.468	-6.95
370.679	3.3
370.89	-40.05
371.101	-21.72
371.312	-27.28
371.522	-13.55
371.733	-14.67
371.944	-13.07
372.155	-15.87
372.365	-11.64
372.576	-15.06
372.787	-0.47
372.997	3.2
373.208	-1.91
373.419	-8.73
373.629	-13.11
373.84	-24.3
374.05	-20.82
374.261	-33.28
374.472	-29.12
374.682	-26.41
374.893	-33.49
375.103	-25.24
375.314	-11.17
375.524	-5.77
375.735	-2.28
375.945	-0.15
376.156	2.95
376.366	4.47
376.577	20.87
376.787	24.38
376.997	30.05
377.208	24.53
377.418	22.18
377.629	6.98
377.839	-0.76
378.049	0.16
378.26	-10.79
378.47	-15.97
378.68	-3.04
378.89	5.05
379.101	-1.87
379.311	4.34
379.521	-5.58
379.732	-1.15
379.942	-2.3
380.152	-2.55
380.362	3.06
380.572	18.03
380.783	18.55
380.993	20.89
381.203	20.32
381.413	20.33
381.623	17.71
381.833	13.98
382.043	10.3
382.253	15.79
382.463	18.02
382.674	15.26
382.884	18.16
383.094	19.96
383.304	17.29
383.514	18.9
383.724	16.57
383.934	5.33
384.144	6.98
384.353	6.95
384.563	0.76
384.773	6.6
384.983	7.08
385.193	4.28
385.403	1.38
385.613	5.22
385.823	-0.39
386.033	1.47
386.242	-1.42
386.452	-2.85
386.662	-7.5
386.872	1.36
387.082	0.77
387.291	0.79
387.501	4.99
387.711	3.39
387.921	-1.03
388.13	2.2
388.34	3.07
388.55	0.39
388.759	0.82
388.969	-1.91
389.179	-2.77
389.388	-4.47
389.598	-4.3
389.807	-3.71
390.017	0.38
390.227	-2.01
390.436	0.07
390.646	-1.35
390.855	-2.14
391.065	-1.66
391.274	-1.94
391.484	-1.51
391.693	-0.81
391.903	-1.09
392.112	-2.66
392.322	-2.63
392.531	-3.42
392.74	-2.51
392.95	-1.66
393.159	-1.84
393.369	-1.9
393.578	-0.78
393.787	-0.65
393.997	0.01
394.206	0.24
394.415	1.61
394.625	0.44
394.834	-0.84
395.043	-0.47
395.252	1.4
395.462	2
395.671	1.05
395.88	2.61
396.089	3.05
396.298	1.68
396.508	1.24
396.717	2.44
396.926	1.5
397.135	1.58
397.344	1.95
397.553	1.86
397.762	2.01
397.971	2.31
398.181	2.13
398.39	1.8
398.599	2.61
398.808	2.47
399.017	3.47
399.226	3.29
399.435	2.93
399.644	2.83
399.853	3.14
400.062	2.23
400.27	1.86
400.479	2.31
400.688	2.15
400.897	2.06
401.106	2.85
401.315	3
401.524	2.88
401.733	2.63
401.941	2.86
402.15	2.13
402.359	2.25
402.568	2.32
402.777	2.45
402.985	1.92
403.194	2.05
403.403	2.41
403.612	2.34
403.82	2.06
404.029	2.44
404.238	2.42
404.446	2.34
404.655	2.3
404.864	2.39
405.072	2.2
405.281	2.23
405.489	1.95
405.698	2.14
405.906	2.29
406.115	2.26
406.324	2.39
406.532	2.61
406.741	2.48
406.949	2.5
407.158	2.64
407.366	2.56
407.574	2.41
407.783	2.49
407.991	2.38
408.2	2.41
408.408	2.26
408.617	2.3
408.825	2.14
409.033	2.23
409.242	2.15
409.45	2.3
409.658	2.23
409.867	2.31
410.075	2.3
410.283	2.21
410.491	2.02
410.7	2
410.908	2.13
411.116	2.05
411.324	2.06
411.533	2.2
411.741	2.18
411.949	2.12
412.157	1.97
412.365	2.07
412.573	1.98
412.781	2.01
412.99	1.91
413.198	2.1
413.406	2.1
413.614	2.27
413.822	2.38
414.03	2.51
414.238	2.52
414.446	2.57
414.654	2.43
414.862	2.2
415.07	2.01
415.278	1.98
415.486	1.74
415.694	1.82
415.902	1.89
416.109	1.95
416.317	1.93
416.525	2.05
416.733	1.88
416.941	1.82
417.149	1.72
417.357	1.79
417.564	1.75
417.772	1.95
417.98	2.09
418.188	2.07
418.395	1.75
418.603	1.59
418.811	1.49
419.019	1.4
419.226	1.54
419.434	1.84
419.642	1.93
419.849	1.86
420.057	1.9
420.265	1.9
420.472	1.76
420.68	1.84
420.887	1.86
421.095	1.81
421.302	1.8
421.51	1.83
421.717	1.89
421.925	1.94
422.132	2
422.34	1.84
422.547	1.79
422.755	1.67
422.962	1.79
423.17	1.61
423.377	1.73
423.585	1.92
423.792	1.97
423.999	1.93
424.207	1.96
424.414	1.99
424.621	1.95
424.829	1.94
425.036	1.73
425.243	1.82
425.451	1.88
425.658	1.9
425.865	1.94
426.072	2.03
426.28	2.08
426.487	1.93
426.694	1.83
426.901	1.81
427.108	1.72
427.315	1.7
427.523	1.6
427.73	1.6
427.937	1.45
428.144	1.59
428.351	1.6
428.558	1.8
428.765	1.72
428.972	1.81
429.179	1.68
429.386	1.78
429.593	1.56
429.8	1.62
430.007	1.68
430.214	1.72
430.421	1.68
430.628	1.86
430.835	1.85
431.042	1.64
431.249	1.73
431.456	1.7
431.662	1.76
431.869	1.86
432.076	2.03
432.283	2.15
432.49	2.06
432.697	2.03
432.903	2.03
433.11	2.16
433.317	2.17
433.524	2.28
433.73	2.2
433.937	2.24
434.144	2.04
434.35	1.98
434.557	2.01
434.764	2.1
434.97	2.01
435.177	2.16
435.384	2.15
435.59	2.1
435.797	2.09
436.003	2.11
436.21	1.98
436.416	2.05
436.623	2.13
436.829	2.16
437.036	2.11
437.242	2.23
437.449	2.17
437.655	2.25
437.862	2.27
438.068	2.42
438.275	2.45
438.481	2.44
438.687	2.31
438.894	2.4
439.1	2.33
439.307	2.31
439.513	2.3
439.719	2.36
439.926	2.37
440.132	2.44
440.338	2.45
440.544	2.44
440.751	2.42
440.957	2.39
441.163	2.28
441.369	2.23
441.575	2.24
441.782	2.3
441.988	2.23
442.194	2.3
442.4	2.26
442.606	2.45
442.812	2.47
443.018	2.52
443.224	2.54
443.431	2.65
443.637	2.5
443.843	2.55
444.049	2.53
444.255	2.5
444.461	2.42
444.667	2.46
444.873	2.37
445.079	2.44
445.284	2.47
445.49	2.59
445.696	2.56
445.902	2.56
446.108	2.54
446.314	2.49
446.52	2.49
446.726	2.64
446.931	2.57
447.137	2.65
447.343	2.79
447.549	2.82
447.755	2.66
447.96	2.77
448.166	2.74
448.372	2.69
448.578	2.66
448.783	2.69
448.989	2.76
449.195	2.72
449.4	2.77
449.606	2.78
449.812	2.73
450.017	2.75
450.223	2.73
450.428	2.67
450.634	2.62
450.84	2.68
451.045	2.61
451.251	2.69
451.456	2.62
451.662	2.67
451.867	2.68
452.073	2.72
452.278	2.72
452.483	2.83
452.689	2.84
452.894	3.01
453.1	2.93
453.305	2.94
453.51	3.01
453.716	3
453.921	2.95
454.127	2.93
454.332	2.9
454.537	2.78
454.742	2.76
454.948	2.68
455.153	2.77
455.358	2.77
455.563	2.92
455.769	2.98
455.974	3.02
456.179	2.96
456.384	2.95
456.589	2.77
456.795	2.73
457	2.7
457.205	2.73
457.41	2.74
457.615	2.78
457.82	2.88
458.025	2.87
458.23	2.81
458.435	2.89
458.64	2.95
458.845	2.85
459.05	2.9
459.255	2.95
459.46	2.92
459.665	2.92
459.87	2.95
460.075	2.97
460.28	3.03
460.485	3.09
460.69	3.06
460.895	3.15
461.099	3.08
461.304	3.02
461.509	2.95
461.714	3.04
461.919	2.89
462.123	2.9
462.328	2.88
462.533	2.84
462.738	2.75
462.942	2.8
463.147	2.79
463.352	2.88
463.556	2.98
463.761	3.06
463.966	3.07
464.17	3.16
464.375	3.24
464.58	3.11
464.784	3.05
464.989	3.06
465.193	3.01
465.398	2.93
465.602	3.15
465.807	3.17
466.011	3.24
466.216	3.16
466.42	3.2
466.625	3.14
466.829	3.2
467.034	3.22
467.238	3.47
467.443	3.41
467.647	3.34
467.851	3.3
468.056	3.23
468.26	3.14
468.464	3.25
468.669	3.34
468.873	3.39
469.077	3.45
469.282	3.44
469.486	3.39
469.69	3.4
469.894	3.41
470.099	3.41
470.303	3.37
470.507	3.4
470.711	3.35
470.915	3.42
471.119	3.47
471.324	3.58
471.528	3.64
471.732	3.63
471.936	3.61
472.14	3.61
472.344	3.63
472.548	3.49
472.752	3.56
472.956	3.55
473.16	3.52
473.364	3.55
473.568	3.65
473.772	3.62
473.976	3.65
474.18	3.72
474.384	3.64
474.588	3.64
474.792	3.67
474.995	3.68
475.199	3.61
475.403	3.69
475.607	3.72
475.811	3.7
476.015	3.67
476.218	3.6
476.422	3.53
476.626	3.53
476.83	3.57
477.033	3.7
477.237	3.81
477.441	3.88
477.644	3.89
477.848	3.92
478.052	3.89
478.255	3.87
478.459	3.83
478.663	3.87
478.866	3.92
479.07	3.86
479.273	3.91
479.477	3.87
479.681	3.86
479.884	3.79
480.088	3.8
480.291	3.8
480.495	3.85
480.698	3.86
480.901	3.88
481.105	3.9
481.308	3.91
481.512	4
481.715	4.08
481.919	4.18
482.122	4.19
482.325	4.21
482.529	4.15
482.732	4
482.935	3.98
483.138	3.94
483.342	3.95
483.545	4.07
483.748	4.23
483.952	4.24
484.155	4.36
484.358	4.4
484.561	4.33
484.764	4.23
484.967	4.24
485.171	4.24
485.374	4.2
485.577	4.21
485.78	4.29
485.983	4.21
486.186	4.17
486.389	4.21
486.592	4.18
486.795	4.22
486.998	4.18
487.201	4.2
487.404	4.28
487.607	4.34
487.81	4.29
488.013	4.34
488.216	4.36
488.419	4.27
488.622	4.2
488.825	4.2
489.028	4.25
489.231	4.25
489.433	4.27
489.636	4.28
489.839	4.33
490.042	4.33
490.245	4.27
490.447	4.21
490.65	4.22
490.853	4.18
491.056	4.19
491.258	4.24
491.461	4.27
491.664	4.28
491.866	4.25
492.069	4.3
492.272	4.24
492.474	4.25
492.677	4.29
492.879	4.3
493.082	4.28
493.285	4.4
493.487	4.43
493.69	4.39
493.892	4.4
494.095	4.39
494.297	4.37
494.5	4.4
494.702	4.36
494.905	4.41
495.107	4.42
495.309	4.44
495.512	4.4
495.714	4.49
495.917	4.54
496.119	4.58
496.321	4.56
496.524	4.48
496.726	4.46
496.928	4.36
497.13	4.32
497.333	4.3
497.535	4.42
497.737	4.45
497.939	4.51
498.142	4.52
498.344	4.53
498.546	4.56
498.748	4.59
498.95	4.59
499.152	4.61
499.355	4.57
499.557	4.56
499.759	4.57
499.961	4.57
500.163	4.59
500.365	4.66
500.567	4.66
500.769	4.62
500.971	4.69
501.173	4.62
501.375	4.67
501.577	4.73
501.779	4.74
501.981	4.72
502.183	4.75
502.385	4.69
502.587	4.7
502.788	4.75
502.99	4.8
503.192	4.85
503.394	4.9
503.596	4.88
503.798	4.83
503.999	4.84
504.201	4.8
504.403	4.79
504.605	4.82
504.806	4.86
505.008	4.86
505.21	4.99
505.411	5.06
505.613	5.12
505.815	5.14
506.016	5.19
506.218	5.14
506.42	5.11
506.621	5.13
506.823	5.14
507.024	5.16
507.226	5.15
507.427	5.2
507.629	5.17
507.83	5.19
508.032	5.16
508.233	5.27
508.435	5.27
508.636	5.35
508.838	5.4
509.039	5.45
509.24	5.44
509.442	5.47
509.643	5.43
509.845	5.46
510.046	5.52
510.247	5.52
510.448	5.56
510.65	5.6
510.851	5.67
511.052	5.61
511.254	5.71
511.455	5.66
511.656	5.64
511.857	5.59
512.058	5.61
512.26	5.53
512.461	5.57
512.662	5.63
512.863	5.58
513.064	5.64
513.265	5.66
513.466	5.69
513.667	5.73
513.868	5.71
514.069	5.68
514.27	5.7
514.471	5.67
514.672	5.62
514.873	5.62
515.074	5.64
515.275	5.67
515.476	5.71
515.677	5.76
515.878	5.94
516.079	5.95
516.28	5.97
516.481	5.97
516.682	5.9
516.882	5.83
517.083	5.85
517.284	5.86
517.485	5.86
517.686	5.95
517.886	5.98
518.087	5.97
518.288	5.99
518.488	6.02
518.689	6.01
518.89	6.04
519.091	6.13
519.291	6.08
519.492	6.07
519.692	6.09
519.893	6.07
520.094	5.96
520.294	6.03
520.495	6.03
520.695	6.05
520.896	6.05
521.096	6.11
521.297	6.09
521.497	6.12
521.698	6.12
521.898	6.11
522.099	6.14
522.299	6.12
522.499	6.09
522.7	6.15
522.9	6.22
523.101	6.21
523.301	6.23
523.501	6.28
523.702	6.25
523.902	6.25
524.102	6.31
524.302	6.42
524.503	6.45
524.703	6.46
524.903	6.44
525.103	6.39
525.304	6.33
525.504	6.34
525.704	6.33
525.904	6.3
526.104	6.33
526.304	6.38
526.504	6.4
526.705	6.43
526.905	6.5
527.105	6.51
527.305	6.48
527.505	6.44
527.705	6.43
527.905	6.45
528.105	6.46
528.305	6.48
528.505	6.52
528.705	6.6
528.905	6.62
529.105	6.66
529.304	6.71
529.504	6.7
529.704	6.68
529.904	6.71
530.104	6.69
530.304	6.65
530.503	6.71
530.703	6.71
530.903	6.7
531.103	6.73
531.303	6.78
531.502	6.81
531.702	6.83
531.902	6.88
532.101	6.91
532.301	6.97
532.501	7.05
532.7	7.09
532.9	7.1
533.1	7.12
533.299	7.09
533.499	7.01
533.698	7.01
533.898	7.06
534.097	7.09
534.297	7.12
534.496	7.18
534.696	7.19
534.895	7.21
535.095	7.19
535.294	7.23
535.494	7.24
535.693	7.28
535.892	7.26
536.092	7.28
536.291	7.28
536.491	7.3
536.69	7.32
536.889	7.3
537.088	7.36
537.288	7.37
537.487	7.37
537.686	7.36
537.886	7.4
538.085	7.41
538.284	7.45
538.483	7.45
538.682	7.49
538.882	7.52
539.081	7.57
539.28	7.59
539.479	7.65
539.678	7.66
539.877	7.73
540.076	7.72
540.275	7.75
540.474	7.81
540.673	7.92
540.872	7.96
541.071	8.06
541.27	8.11
541.469	8.1
541.668	8.09
541.867	8.09
542.066	8.06
542.265	8.11
542.464	8.17
542.663	8.2
542.862	8.29
543.06	8.37
543.259	8.43
543.458	8.42
543.657	8.45
543.856	8.54
544.054	8.52
544.253	8.54
544.452	8.61
544.651	8.63
544.849	8.54
545.048	8.67
545.247	8.72
545.445	8.8
545.644	8.88
545.843	8.96
546.041	8.95
546.24	8.97
546.438	9.05
546.637	9.1
546.836	9.13
547.034	9.21
547.233	9.3
547.431	9.32
547.63	9.3
547.828	9.38
548.027	9.41
548.225	9.48
548.423	9.55
548.622	9.66
548.82	9.71
549.019	9.77
549.217	9.86
549.415	9.92
549.614	10.11
549.812	10.16
550.01	10.25
550.209	10.29
550.407	10.37
550.605	10.3
550.803	10.41
551.002	10.51
551.2	10.54
551.398	10.63
551.596	10.72
551.794	10.81
551.993	10.83
552.191	10.91
552.389	10.9
552.587	10.97
552.785	10.97
552.983	11.02
553.181	11.11
553.379	11.19
553.577	11.26
553.775	11.43
553.973	11.55
554.171	11.65
554.369	11.78
554.567	11.96
554.765	11.97
554.963	12.01
555.161	12.02
555.359	12.05
555.557	12.1
555.755	12.22
555.952	12.42
556.15	12.57
556.348	12.66
556.546	12.78
556.744	12.81
556.941	12.78
557.139	12.87
557.337	12.98
557.535	12.92
557.732	13.07
557.93	13.21
558.128	13.25
558.325	13.39
558.523	13.57
558.721	13.69
558.918	13.82
559.116	13.99
559.313	14.13
559.511	14.26
559.708	14.29
559.906	14.4
560.104	14.46
560.301	14.54
560.498	14.59
560.696	14.72
560.893	14.81
561.091	14.94
561.288	15.04
561.486	15.15
561.683	15.29
561.88	15.39
562.078	15.5
562.275	15.63
562.473	15.73
562.67	15.8
562.867	15.92
563.064	15.96
563.262	15.98
563.459	16.13
563.656	16.29
563.853	16.33
564.051	16.48
564.248	16.67
564.445	16.76
564.642	16.9
564.839	17.07
565.036	17.19
565.234	17.31
565.431	17.46
565.628	17.45
565.825	17.49
566.022	17.59
566.219	17.64
566.416	17.68
566.613	17.85
566.81	18.03
567.007	18.06
567.204	18.16
567.401	18.29
567.598	18.32
567.795	18.31
567.991	18.33
568.188	18.39
568.385	18.39
568.582	18.54
568.779	18.65
568.976	18.83
569.172	18.94
569.369	19.06
569.566	19.07
569.763	19.07
569.96	19.16
570.156	19.18
570.353	19.28
570.55	19.34
570.746	19.51
570.943	19.57
571.14	19.62
571.336	19.57
571.533	19.6
571.729	19.66
571.926	19.7
572.123	19.76
572.319	19.94
572.516	20.01
572.712	20.03
572.909	20.07
573.105	20.11
573.302	20.13
573.498	20.17
573.695	20.23
573.891	20.24
574.087	20.15
574.284	20.12
574.48	20.14
574.677	20.19
574.873	20.26
575.069	20.46
575.266	20.54
575.462	20.59
575.658	20.57
575.854	20.55
576.051	20.59
576.247	20.55
576.443	20.52
576.639	20.55
576.835	20.52
577.032	20.48
577.228	20.52
577.424	20.63
577.62	20.66
577.816	20.77
578.012	20.78
578.208	20.8
578.404	20.81
578.6	20.79
578.796	20.8
578.993	20.79
579.189	20.83
579.384	20.83
579.58	20.78
579.776	20.7
579.972	20.75
580.168	20.72
580.364	20.8
580.56	20.84
580.756	20.86
580.952	20.85
581.148	20.85
581.343	20.79
581.539	20.76
581.735	20.76
581.931	20.71
582.127	20.6
582.322	20.58
582.518	20.56
582.714	20.58
582.909	20.64
583.105	20.76
583.301	20.66
583.496	20.73
583.692	20.61
583.888	20.55
584.083	20.48
584.279	20.45
584.474	20.36
584.67	20.37
584.866	20.34
585.061	20.34
585.257	20.45
585.452	20.48
585.648	20.53
585.843	20.52
586.039	20.53
586.234	20.56
586.429	20.62
586.625	20.63
586.82	20.74
587.015	20.64
587.211	20.57
587.406	20.52
587.601	20.61
587.797	20.55
587.992	20.65
588.187	20.63
588.383	20.71
588.578	20.69
588.773	20.74
588.968	20.81
589.163	20.89
589.359	20.81
589.554	20.77
589.749	20.72
589.944	20.7
590.139	20.68
590.334	20.8
590.529	20.89
590.724	20.96
590.919	20.94
591.114	21.04
591.309	21.06
591.504	21.09
591.699	21.19
591.894	21.24
592.089	21.22
592.284	21.22
592.479	21.27
592.674	21.27
592.869	21.35
593.064	21.46
593.259	21.59
593.454	21.71
593.648	21.7
593.843	21.8
594.038	21.84
594.233	21.82
594.428	21.89
594.622	22.05
594.817	22.13
595.012	22.22
595.206	22.41
595.401	22.51
595.596	22.55
595.79	22.55
595.985	22.57
596.18	22.66
596.374	22.76
596.569	22.83
596.763	22.94
596.958	23.1
597.153	23.12
597.347	23.03
597.542	23.07
597.736	23.19
597.931	23.26
598.125	23.33
598.319	23.43
598.514	23.53
598.708	23.62
598.903	23.7
599.097	23.78
599.291	23.9
599.486	24.09
599.68	24.13
599.874	24.19
600.069	24.28
600.263	24.37
600.457	24.32
600.651	24.37
600.846	24.38
601.04	24.36
601.234	24.31
601.428	24.36
601.622	24.4
601.817	24.46
602.011	24.52
602.205	24.59
602.399	24.64
602.593	24.62
602.787	24.54
602.981	24.58
603.175	24.62
603.369	24.55
603.563	24.6
603.757	24.71
603.951	24.66
604.145	24.72
604.339	24.8
604.533	24.76
604.727	24.74
604.921	24.72
605.115	24.62
605.309	24.53
605.502	24.62
605.696	24.49
605.89	24.54
606.084	24.57
606.278	24.59
606.471	24.43
606.665	24.46
606.859	24.4
607.053	24.27
607.246	24.21
607.44	24.11
607.634	24.02
607.827	23.93
608.021	23.81
608.214	23.7
608.408	23.76
608.602	23.62
608.795	23.56
608.989	23.5
609.182	23.49
609.376	23.35
609.569	23.37
609.763	23.36
609.956	23.4
610.15	23.29
610.343	23.24
610.537	23.18
610.73	22.99
610.923	22.88
611.117	22.83
611.31	22.66
611.504	22.58
611.697	22.62
611.89	22.49
612.083	22.32
612.277	22.37
612.47	22.29
612.663	22.2
612.856	22.07
613.05	22.07
613.243	21.89
613.436	21.81
613.629	21.67
613.822	21.74
614.015	21.7
614.209	21.7
614.402	21.58
614.595	21.53
614.788	21.36
614.981	21.18
615.174	21
615.367	20.98
615.56	20.75
615.753	20.82
615.946	20.8
616.139	20.8
616.332	20.71
616.525	20.87
616.718	20.76
616.911	20.77
617.103	20.78
617.296	20.82
617.489	20.65
617.682	20.63
617.875	20.57
618.067	20.51
618.26	20.39
618.453	20.37
618.646	20.29
618.838	20.2
619.031	20.12
619.224	20.17
619.417	20.09
619.609	20.02
619.802	19.96
619.994	19.97
620.187	19.8
620.38	19.78
620.572	19.72
620.765	19.78
620.957	19.67
621.15	19.67
621.342	19.69
621.535	19.69
621.727	19.5
621.92	19.52
622.112	19.57
622.305	19.59
622.497	19.51
622.69	19.61
622.882	19.67
623.074	19.61
623.267	19.5
623.459	19.48
623.651	19.36
623.844	19.31
624.036	19.3
624.228	19.34
624.42	19.32
624.613	19.3
624.805	19.25
624.997	19.18
625.189	19.12
625.381	19.09
625.574	19.08
625.766	19.04
625.958	19.14
626.15	19.11
626.342	19.12
626.534	19.08
626.726	19.09
626.918	18.97
627.11	18.91
627.302	18.87
627.494	18.9
627.686	18.81
627.878	18.83
628.07	18.87
628.262	18.83
628.454	18.75
628.646	18.73
628.838	18.68
629.029	18.55
629.221	18.43
629.413	18.42
629.605	18.36
629.797	18.31
629.989	18.29
630.18	18.35
630.372	18.32
630.564	18.35
630.755	18.28
630.947	18.27
631.139	18.15
631.33	18.1
631.522	17.99
631.714	17.86
631.905	17.84
632.097	17.88
632.289	17.74
632.48	17.73
632.672	17.89
632.863	17.79
633.055	17.78
633.246	17.83
633.438	17.84
633.629	17.76
633.821	17.78
634.012	17.76
634.203	17.72
634.395	17.69
634.586	17.58
634.777	17.58
634.969	17.58
635.16	17.61
635.351	17.52
635.543	17.56
635.734	17.46
635.925	17.42
636.117	17.42
636.308	17.5
636.499	17.47
636.69	17.52
636.881	17.57
637.073	17.6
637.264	17.59
637.455	17.6
637.646	17.67
637.837	17.59
638.028	17.51
638.219	17.53
638.41	17.61
638.601	17.55
638.792	17.54
638.983	17.49
639.174	17.43
639.365	17.33
639.556	17.18
639.747	17.15
639.938	17.26
640.129	17.22
640.32	17.18
640.511	17.25
640.701	17.26
640.892	17.15
641.083	17.06
641.274	17.06
641.465	17.05
641.655	17.07
641.846	17.1
642.037	17.06
642.228	17.01
642.418	16.98
642.609	16.93
642.8	16.91
642.99	16.92
643.181	16.87
643.372	16.82
643.562	16.81
643.753	16.75
643.943	16.71
644.134	16.7
644.324	16.71
644.515	16.64
644.705	16.61
644.896	16.67
645.086	16.66
645.277	16.68
645.467	16.71
645.658	16.64
645.848	16.61
646.038	16.61
646.229	16.53
646.419	16.37
646.61	16.39
646.8	16.35
646.99	16.3
647.18	16.25
647.371	16.29
647.561	16.24
647.751	16.2
647.941	16.15
648.132	16.14
648.322	16.11
648.512	16.12
648.702	16.15
648.892	16.11
649.082	16.13
649.272	16.16
649.462	16.21
649.653	16.18
649.843	16.12
650.033	16.09
650.223	16
650.413	15.89
650.603	15.91
650.793	15.94
650.983	15.88
651.172	15.88
651.362	15.76
651.552	15.69
651.742	15.57
651.932	15.57
652.122	15.49
652.312	15.49
652.502	15.32
652.691	15.39
652.881	15.26
653.071	15.22
653.261	15.06
653.45	15.03
653.64	14.8
653.83	14.74
654.019	14.6
654.209	14.62
654.399	14.46
654.588	14.43
654.778	14.3
654.968	14.19
655.157	14.03
655.347	13.87
655.536	13.76
655.726	13.61
655.915	13.46
656.105	13.33
656.294	13.25
656.484	13.05
656.673	12.86
656.863	12.75
657.052	12.49
657.241	12.34
657.431	12.31
657.62	12.27
657.809	12.02
657.999	11.95
658.188	11.85
658.377	11.62
658.567	11.44
658.756	11.31
658.945	11.19
659.134	11.06
659.324	10.82
659.513	10.6
659.702	10.43
659.891	10.32
660.08	10.06
660.269	9.94
660.458	9.76
660.648	9.64
660.837	9.41
661.026	9.29
661.215	9.13
661.404	9.02
661.593	8.91
661.782	8.73
661.971	8.53
662.16	8.45
662.349	8.28
662.538	8.15
662.726	8.07
662.915	8.08
663.104	7.94
663.293	7.92
663.482	7.75
663.671	7.63
663.86	7.53
664.048	7.44
664.237	7.37
664.426	7.33
664.615	7.28
664.803	7.14
664.992	7.02
665.181	6.97
665.369	6.84
665.558	6.73
665.747	6.76
665.935	6.79
666.124	6.7
666.312	6.72
666.501	6.7
666.69	6.63
666.878	6.55
667.067	6.41
667.255	6.31
667.444	6.36
667.632	6.34
667.82	6.39
668.009	6.4
668.197	6.4
668.386	6.27
668.574	6.26
668.762	6.15
668.951	6.18
669.139	6.15
669.327	6.13
669.516	6.05
669.704	6.01
669.892	6
670.08	6.04
670.269	6.03
670.457	6.09
670.645	6.04
670.833	6.1
671.021	6.14
671.21	6.19
671.398	6.1
671.586	6.27
671.774	6.24
671.962	6.31
672.15	6.47
672.338	6.57
672.526	6.59
672.714	6.68
672.902	6.64
673.09	6.69
673.278	6.79
673.466	6.84
673.654	6.83
673.842	6.95
674.03	6.94
674.218	6.86
674.405	6.87
674.593	6.98
674.781	6.9
674.969	7
675.157	7.18
675.344	7.27
675.532	7.2
675.72	7.38
675.908	7.27
676.095	7.19
676.283	7.3
676.471	7.41
676.658	7.45
676.846	7.6
677.033	7.69
677.221	7.72
677.409	7.75
677.596	7.84
677.784	7.89
677.971	7.86
678.159	7.91
678.346	8.02
678.534	8.17
678.721	8.21
678.909	8.4
679.096	8.48
679.283	8.54
679.471	8.56
679.658	8.81
679.846	8.8
680.033	9.1
680.22	9.43
680.408	9.4
680.595	9.44
680.782	9.65
680.969	9.7
681.157	9.64
681.344	9.83
681.531	10.02
681.718	10.18
681.905	10.19
682.093	10.39
682.28	10.61
682.467	10.76
682.654	10.93
682.841	11.2
683.028	11.19
683.215	11.5
683.402	11.57
683.589	11.67
683.776	11.85
683.963	12.16
684.15	12.31
684.337	12.59
684.524	12.91
684.711	13.03
684.898	13.2
685.085	13.32
685.271	13.58
685.458	13.89
685.645	14.11
685.832	14.38
686.019	14.55
686.205	14.84
686.392	15.15
686.579	15.59
686.766	16.05
686.952	16.51
687.139	16.87
687.326	17.28
687.512	17.66
687.699	18.07
687.886	18.49
688.072	18.85
688.259	19.21
688.445	19.68
688.632	20.05
688.818	20.61
689.005	21.09
689.191	21.57
689.378	21.97
689.564	22.69
689.751	23.08
689.937	23.76
690.124	24.31
690.31	24.92
690.496	25.3
690.683	26.24
690.869	26.86
691.055	27.57
691.242	28.28
691.428	29.07
691.614	29.63
691.8	30.4
691.987	31.16
692.173	31.93
692.359	32.6
692.545	33.24
692.731	33.84
692.918	34.18
693.104	34.66
693.29	35.29
693.476	36.11
693.662	36.75
693.848	37.68
694.034	38.68
694.22	39.37
694.406	39.93
694.592	40.8
694.778	41.31
694.964	41.98
695.15	42.74
695.336	43.43
695.522	44.05
695.708	45.34
695.894	45.98
696.08	46.85
696.265	47.69
696.451	48.18
696.637	48.52
696.823	49.26
697.009	49.99
697.194	50.43
697.38	51.35
697.566	52.09
697.751	52.76
697.937	53.4
698.123	54.01
698.308	54.45
698.494	54.99
698.68	55.61
698.865	56.13
699.051	56.93
699.236	57.53
699.422	58.36
699.607	59.09
699.793	59.96
699.978	60.47
700.164	60.85
700.349	61.31
700.535	61.55
700.72	61.79
700.906	62.16
701.091	62.84
701.276	63.22
701.462	63.66
701.647	64.1
701.832	64.86
702.018	65.66
702.203	66.23
702.388	66.65
702.573	67.1
702.759	67.41
702.944	67.37
703.129	67.6
703.314	67.93
703.499	68.25
703.684	68.45
703.87	68.81
704.055	69.39
704.24	69.98
704.425	70.24
704.61	70.84
704.795	71.5
704.98	71.51
705.165	71.69
705.35	72.29
705.535	72.39
705.72	72.73
705.905	73.03
706.09	73.55
706.275	73.53
706.459	73.94
706.644	73.9
706.829	74.39
707.014	74.61
707.199	75.15
707.384	75.26
707.568	75.81
707.753	76.26
707.938	76.31
708.123	76.55
708.307	77.1
708.492	77.47
708.677	77.47
708.861	77.78
709.046	77.54
709.231	77.23
709.415	76.86
709.6	76.68
709.784	77.09
709.969	77.85
710.153	78.02
710.338	78.57
710.522	79.11
710.707	78.72
710.891	78.68
711.076	79.09
711.26	79.47
711.445	79.61
711.629	80
711.813	80.19
711.998	80.47
712.182	80.12
712.366	80.18
712.551	80.49
712.735	80.36
712.919	80.52
713.103	80.75
713.288	81.1
713.472	81.55
713.656	81.66
713.84	81.55
714.024	81.88
714.208	81.86
714.393	81.58
714.577	81.95
714.761	82.5
714.945	82.4
715.129	82.59
715.313	82.46
715.497	82.38
715.681	82
715.865	81.72
716.049	81.57
716.233	81.9
716.417	82.05
716.601	82.07
716.785	82.67
716.968	83.1
717.152	83.52
717.336	83.6
717.52	84.29
717.704	84.54
717.888	84.39
718.071	83.95
718.255	83.93
718.439	83.84
718.622	83.78
718.806	83.65
718.99	83.8
719.174	84.05
719.357	83.79
719.541	83.97
719.724	84.31
719.908	84.43
720.092	84.02
720.275	84.12
720.459	84.41
720.642	84.82
720.826	84.4
721.009	84.78
721.193	84.29
721.376	84.09
721.559	83.96
721.743	84.91
721.926	84.98
722.11	85.92
722.293	86.34
722.476	85.8
722.66	86.32
722.843	86.36
723.026	86.9
723.21	86.56
723.393	87.6
723.576	86.71
723.759	87.45
723.942	87.01
724.126	86.75
724.309	85.99
724.492	86.19
724.675	85.65
724.858	85.67
725.041	86.41
725.224	87.04
725.407	87.4
725.59	87.63
725.774	87.64
725.957	87.29
726.14	86.98
726.322	87.26
726.505	87.52
726.688	87.88
726.871	88.05
727.054	88.83
727.237	88.19
727.42	87.54
727.603	87.31
727.786	86.9
727.968	86.26
728.151	86.79
728.334	87.69
728.517	87.78
728.699	88.53
728.882	88.52
729.065	87.76
729.248	87.78
729.43	87.83
729.613	87.66
729.796	88.01
729.978	88.49
730.161	88.24
730.343	88.27
730.526	88.61
730.708	88.39
730.891	88.35
731.073	88.3
731.256	88.33
731.438	88.32
731.621	88.71
731.803	88.82
731.986	88.66
732.168	88.9
732.35	89.04
732.533	89.09
732.715	89.84
732.898	90.01
733.08	89.66
733.262	89.64
733.444	89.95
733.627	89.71
733.809	90.73
733.991	91.2
734.173	91.3
734.355	91.02
734.538	91.32
734.72	90.75
734.902	91.62
735.084	91.15
735.266	91.48
735.448	91.53
735.63	91.82
735.812	90.86
735.994	91.34
736.176	91.64
736.358	91.6
736.54	91.67
736.722	91.48
736.904	91.38
737.086	90.75
737.268	90.83
737.45	91.11
737.632	91.72
737.814	92.45
737.995	92.65
738.177	92.65
738.359	91.98
738.541	91.15
738.723	91.05
738.904	90.82
739.086	90.92
739.268	90.79
739.449	91.07
739.631	89.91
739.813	89.76
739.994	88.98
740.176	89.43
740.358	90.27
740.539	90.82
740.721	91.18
740.902	91.75
741.084	92.3
741.265	92.13
741.447	93
741.628	93.02
741.81	93.37
741.991	93.42
742.172	92.76
742.354	92.13
742.535	92.28
742.717	90.84
742.898	90.06
743.079	90.45
743.261	89.67
743.442	88.46
743.623	89.66
743.804	90.75
743.986	90.91
744.167	90.76
744.348	92.27
744.529	92.12
744.71	91.57
744.891	90.68
745.073	92.31
745.254	92.39
745.435	92.35
745.616	91.85
745.797	92.42
745.978	91.84
746.159	90.61
746.34	91.25
746.521	91.33
746.702	91.97
746.883	91.74
747.064	92.21
747.245	92.93
747.426	92.56
747.606	91.67
747.787	91.89
747.968	91.61
748.149	90.59
748.33	90.22
748.51	90.27
748.691	89.75
748.872	91.23
749.053	91.11
749.233	91.9
749.414	92.02
749.595	92.52
749.775	91.57
749.956	90.94
750.137	90.9
750.317	90.99
750.498	90.04
750.678	89.99
750.859	91.01
751.04	90.22
751.22	89.49
751.4	90.94
751.581	92.52
751.761	92.18
751.942	93.3
752.122	93.67
752.303	92.91
752.483	90.62
752.663	90.54
752.844	90.18
753.024	91.82
753.204	92.7
753.385	93.82
753.565	93.16
753.745	93.02
753.925	91.38
754.106	91.74
754.286	90.99
754.466	91.94
754.646	91.05
754.826	92.59
755.006	89.71
755.187	90.96
755.367	89.31
755.547	91.06
755.727	90.58
755.907	92.05
756.087	90.73
756.267	90.08
756.447	90.03
756.627	89.41
756.807	90.65
756.987	90.6
757.167	91.21
757.346	91.44
757.526	91.77
757.706	91.21
757.886	91.81
758.066	92.39
758.246	90.94
758.425	90.5
758.605	89.52
758.785	88.94
758.965	89.8
759.144	89.22
759.324	90.63
759.504	91.3
759.683	91.62
759.863	92.36
760.043	92.48
760.222	91.61
760.402	90.31
760.581	90.4
760.761	89.82
760.94	90.37
761.12	89.45
761.299	92.18
761.479	92.23
761.658	91.84
761.838	92.48
762.017	93.29
762.197	90.27
762.376	90.68
762.555	90.27
762.735	89.5
762.914	89.25
763.093	91.05
763.273	91.36
763.452	90.93
763.631	91.8
763.81	90.98
763.99	90.08
764.169	88.87
764.348	88.99
764.527	88.47
764.706	87.96
764.885	86.83
765.064	87.94
765.243	87.63
765.423	87.69
765.602	89.08
765.781	88.93
765.96	87.78
766.139	88.29
766.318	89.58
766.497	88.43
766.676	89.03
766.854	89.59
767.033	90.81
767.212	90.35
767.391	92.91
767.57	95.89
767.749	95.24
767.928	95.26
768.106	93.98
768.285	92.54
768.464	91.24
768.643	90.83
768.821	89.93
769	90.53
769.179	89.01
769.357	87.6
769.536	87.63
769.715	85.38
769.893	84.69
770.072	83.94
770.25	83.62
770.429	85.34
770.607	86.41
770.786	86.11
770.964	87.7
771.143	88.71
771.321	86.86
771.5	87.68
771.678	88.57
771.857	88.86
772.035	89.73
772.213	89.34
772.392	86.81
772.57	85.77
772.748	83.92
772.927	83.25
773.105	83.67
773.283	84.52
773.461	84.84
773.64	86.26
773.818	86.59
773.996	87.2
774.174	88.27
774.352	88.04
774.531	87.23
774.709	86.8
774.887	85.58
775.065	86.56
775.243	85.95
775.421	87.43
775.599	86.8
775.777	86.99
775.955	86.04
776.133	87.39
776.311	84.44
776.489	85.45
776.667	86.52
776.844	86.73
777.022	85.82
777.2	89.06
777.378	86.98
777.556	88.42
777.734	88.06
777.911	88.76
778.089	88.92
778.267	88.3
778.445	87.1
778.622	86.35
778.8	83.68
778.978	81.97
779.155	85.09
779.333	86.28
779.511	88.64
779.688	90.21
779.866	89.93
780.043	88.69
780.221	86.19
780.398	85.81
780.576	85.78
780.753	86.56
780.931	86.67
781.108	86.37
781.286	84.64
781.463	84.71
781.64	83.03
781.818	84
781.995	86.52
782.172	85.72
782.35	85.23
782.527	86.01
782.704	83.06
782.882	79.89
783.059	81.56
783.236	82.59
783.413	80.47
783.59	80.14
783.768	81.18
783.945	80.57
784.122	79.63
784.299	82.19
784.476	82.31
784.653	80.96
784.83	80.85
785.007	82.29
785.184	82.89
785.361	84.08
785.538	84.82
785.715	86.62
785.892	85.01
786.069	83.96
786.246	82.26
786.423	83.07
786.6	83.35
786.776	83.73
786.953	83.36
787.13	85.85
787.307	86.01
787.484	82.39
787.66	82.72
787.837	81.26
788.014	82.2
788.191	79.44
788.367	78.28
788.544	80.04
788.721	81.81
788.897	78.02
789.074	80.48
789.25	82.45
789.427	77.64
789.603	74.82
789.78	76.63
789.956	74.23
790.133	72.3
790.309	74.21
790.486	77.1
790.662	76.65
790.839	80.07
791.015	82.63
791.192	82.25
791.368	81.94
791.544	83.88
791.721	81.62
791.897	79.72
792.073	77.73
792.249	77.42
792.426	76.88
792.602	77.64
792.778	79.28
792.954	79.1
793.13	74.87
793.307	73.03
793.483	71.91
793.659	71.82
793.835	76.61
794.011	84.97
794.187	84.96
794.363	85.27
794.539	85.86
794.715	84.82
794.891	81.29
795.067	79.91
795.243	81.78
795.419	80.36
795.595	83.88
795.771	85.98
795.947	87.99
796.122	82.24
796.298	82.26
796.474	85.85
796.65	78.97
796.826	77.55
797.001	79.55
797.177	73.19
797.353	68.05
797.529	73.59
797.704	75.54
797.88	74.95
798.056	79.27
798.231	76.36
798.407	73.87
798.582	72.05
798.758	73.04
798.934	79.21
799.109	82.02
799.285	86
799.46	82.74
799.636	84.86
799.811	82.51
799.986	78.69
800.162	72.4
800.337	77.23
800.513	73.7
800.688	66.34
800.863	70.93
801.039	73.84
801.214	66.95
801.389	69.69
801.565	74.84
801.74	72.58
801.915	71.19
802.09	72.33
802.265	70.71
802.441	70.22
802.616	73.45
802.791	72.54
802.966	81.42
803.141	82.1
803.316	82.77
803.491	75.33
803.666	79.89
803.841	73.47
804.016	71.72
804.191	72.17
804.366	75.78
804.541	77.69
804.716	78.68
804.891	82
805.066	80.59
805.241	82.65
805.416	83.96
805.591	89.42
805.765	94.91
805.94	95.04
806.115	93.05
806.29	82.78
806.464	74.79
806.639	72.42
806.814	74.12
806.989	72.54
807.163	76.21
807.338	75.19
807.512	68.54
807.687	68.38
807.862	73.93
808.036	75.37
808.211	77.41
808.385	84.1
808.56	85.63
808.734	77.84
808.909	74.18
809.083	77.27
809.258	82.49
809.432	74.69
809.606	79.11
809.781	89.53
809.955	91.42
810.13	74.74
810.304	75.17
810.478	73.86
810.652	68.9
810.827	65.39
811.001	70.43
811.175	73.33
811.349	79.7
811.524	83.7
811.698	86.46
811.872	89.57
812.046	87.96
812.22	79.86
812.394	72.52
812.568	72.43
812.742	63.68
812.916	66.22
813.09	68.71
813.264	66.78
813.438	60.96
813.612	62.03
813.786	58.55
813.96	59.47
814.134	61.94
814.308	73.7
814.482	78.35
814.656	73.87
814.83	74.46
815.003	82.79
815.177	70.91
815.351	73.97
815.525	76.16
815.698	76.37
815.872	66.84
816.046	72.56
816.219	73.3
816.393	75.43
816.567	69.1
816.74	72.47
816.914	70.92
817.088	66.22
817.261	75.88
817.435	80.74
817.608	72.36
817.782	68.43
817.955	69.1
818.129	59.78
818.302	56.63
818.475	64
818.649	67.78
818.822	62.78
818.996	70.47
819.169	77.76
819.342	78.41
819.516	83.54
819.689	87.49
819.862	77.24
820.035	69.22
820.209	59.39
820.382	49.85
820.555	43.69
820.728	48.61
820.901	50.67
821.075	50.16
821.248	61.1
821.421	62.36
821.594	60.12
821.767	72.49
821.94	71.55
822.113	68.04
822.286	80.6
822.459	87.35
822.632	81.54
822.805	85.93
822.978	81.06
823.151	71.07
823.324	52.37
823.496	44.33
823.669	50.99
823.842	58.65
824.015	62.28
824.188	69.51
824.361	63.26
824.533	53.77
824.706	42.29
824.879	37.18
825.051	47.42
825.224	52.43
825.397	53.74
825.569	58.92
825.742	67.71
825.915	66.93
826.087	51.11
826.26	50.59
826.432	45.06
826.605	30.22
826.777	28.19
826.95	38.07
827.122	31.88
827.295	43.94
827.467	76.52
827.64	67.59
827.812	72.06
827.984	88.95
828.157	71.88
828.329	58
828.501	65.09
828.674	60.62
828.846	71.41
829.018	77.28
829.19	55.72
829.363	41.99
829.535	48.83
829.707	43.66
829.879	25.4
830.051	36.76
830.223	60.2
830.395	46.43
830.568	39.87
830.74	32.16
830.912	34.91
831.084	34.56
831.256	35.85
831.428	40.82
831.6	47.5
831.772	39.53
831.943	25.94
832.115	45.73
832.287	54.17
832.459	62.89
832.631	79.13
832.803	79.23
832.975	64.68
833.146	54.79
833.318	57.7
833.49	62.51
833.662	78.15
833.833	93.7
834.005	89.07
834.177	89.82
834.348	77.47
834.52	61.85
834.692	58.64
834.863	63.13
835.035	62.39
835.206	63.51
835.378	68.69
835.549	72.35
835.721	67.48
835.892	63.7
836.064	64.95
836.235	64.11
836.407	65.35
836.578	66.71
836.749	64.04
836.921	49.12
837.092	53.08
837.264	40.71
837.435	31.03
837.606	41.17
837.777	53.66
837.949	50.61
838.12	48.38
838.291	53.09
838.462	48.84
838.633	46.07
838.805	38.68
838.976	46.03
839.147	61.02
839.318	62.48
839.489	51.96
839.66	64.35
839.831	50.7
840.002	39.27
840.173	48.88
840.344	44.94
840.515	30.67
840.686	44.2
840.857	52.73
841.028	47.36
841.199	56.99
841.369	68.47
841.54	94.1
841.711	97.48
841.882	95.27
842.053	87.44
842.223	81.69
842.394	61.09
842.565	44.84
842.736	38.85
842.906	27.03
843.077	39.85
843.248	48.92
843.418	49.94
843.589	43
843.759	64.03
843.93	66.51
844.101	65.43
844.271	76.59
844.442	60.84
844.612	52.53
844.783	21.96
844.953	12.7
845.123	20.26
845.294	31.95
845.464	13.24
845.635	44.7
845.805	65.97
845.975	73.39
846.146	47.92
846.316	52.32
846.486	44.53
846.656	32.33
846.827	14.81
846.997	39.39
847.167	33.27
847.337	28.88
847.507	37.04
847.677	47.98
847.848	40.96
848.018	59.94
848.188	68.98
848.358	59.34
848.528	50.84
848.698	56.08
848.868	58.75
849.038	47.29
849.208	58.75
849.378	59.69
849.548	44.77
849.718	17.95
849.887	9.35
850.057	-7.32
850.227	-0.14
850.397	17.24
850.567	-11.51
850.737	7.05
850.906	-25.02
851.076	-17.46
851.246	9.76
851.415	5.73
851.585	16.31
851.755	50.18
851.924	40.06
852.094	-7.09
852.264	9.48
852.433	8.92
852.603	7.44
852.772	40.48
852.942	69.77
853.111	59.5
853.281	52.78
853.45	21.97
853.62	7.81
853.789	-3.97
853.959	24.2
854.128	34.34
854.297	52
854.467	48.28
854.636	50.62
854.805	45.74
854.975	33
855.144	39.61
855.313	43.33
855.482	36.83
855.652	28.14
855.821	15.37
855.99	3.56
856.159	-21.57
856.328	-25.1
856.497	-2.85
856.667	18.39
856.836	38.68
857.005	57.73
857.174	67.25
857.343	75.24
857.512	42.01
857.681	21.2
857.85	26.29
858.019	-7.16
858.188	-11.55
858.356	21.92
858.525	25.7
858.694	45.62
858.863	34.08
859.032	28.5
859.201	14.41
859.369	35.16
859.538	29.7
859.707	41.02
859.876	59
860.044	73.09
860.213	71.96
860.382	61.11
860.55	55.4
860.719	56.7
860.888	42.35
861.056	26.32
861.225	2.6
861.393	-8.28
861.562	-23.64
861.73	-40.3
861.899	-52.53
862.067	-54.58
862.236	-65.95
862.404	-41.26
862.572	-23.56
862.741	13.54
862.909	5.35
863.078	26.77
863.246	15.2
863.414	34.57
863.582	7.13
863.751	31.2
863.919	53.85
864.087	48.26
864.255	38.92
864.424	38.92
864.592	30.25
864.76	-1.86
864.928	12.12
865.096	-15.6
865.264	1.94
865.432	10.65
865.6	38.9
865.768	-8.06
865.936	14.26
866.104	12.72
866.272	-82
866.44	-32.55
866.608	7.68
866.776	18.28
866.944	26.68
867.112	27.21
867.28	17.14
867.448	9.58
867.615	7.36
867.783	12.87
867.951	22.06
868.119	15.66
868.286	27.19
868.454	33.63
868.622	14.47
868.789	0.19
868.957	19.61
869.125	23
869.292	-2.02
869.46	17.94
869.627	50.72
869.795	21.91
869.963	22.13
870.13	-3.22
870.298	10.56
870.465	3.82
870.632	-1.24
870.8	-2.07
870.967	38.73
871.135	9.98
871.302	14.74
871.469	30.61
871.637	29.25
871.804	31.34
871.971	2.81
872.139	-17.77
872.306	-41.62
872.473	-64.4
872.64	-164.22
872.807	-117.82
872.975	-149.57
873.142	-2.19
873.309	39.23
873.476	79.11
873.643	114.59
873.81	81.7
873.977	63.63
874.144	48.71
874.311	-14.31
874.478	-20.39
874.645	-31.79
874.812	11.81
874.979	5.83
875.146	-25.96
875.313	-18.16
875.48	32.96
875.647	56.81
875.813	16.73
875.98	39.68
876.147	-8.93
876.314	-35.33
876.481	-26.35
876.647	4.92
876.814	-1.45
876.981	23.89
877.147	-6.33
877.314	12.2
877.481	23.97
877.647	55.99
877.814	73.31
877.98	116.63
878.147	97.94
878.314	108.52
878.48	118.59
878.647	88.44
878.813	72.26
878.979	52.74
879.146	64.92
879.312	50.47
879.479	52.33
879.645	45.5
879.811	43.32
879.978	31.34
880.144	23.58
880.31	8.89
880.477	13.51
880.643	-3.16
880.809	-37.39
880.975	-12.62
881.142	-41.08
881.308	271.87
881.474	216.7
881.64	36.22
881.806	-10.39
881.972	-7.79
882.138	36.5
882.304	44.47
882.47	-9.07
882.636	-31.6
882.802	-17.11
882.968	-30.48
883.134	-12.21
883.3	9.24
883.466	61.18
883.632	76.33
883.798	76.22
883.964	64.86
884.129	-164.19
884.295	33.6
884.461	-31.35
884.627	18.68
884.793	-1.63
884.958	34.4
885.124	6.48
885.29	15.5
885.455	-53.35
885.621	-20.19
885.787	-8.56
885.952	13.36
886.118	38.79
886.283	69.23
886.449	58.71
886.614	48.82
886.78	21.78
886.945	-35.05
887.111	-85.43
887.276	-83.23
887.442	-171.64
887.607	-113.62
887.773	-40.04
887.938	-16.32
888.103	-4.37
888.269	30.11
888.434	23.76
888.599	10.35
888.764	29.27
888.93	31.37
889.095	11.93
889.26	-8.16
889.425	-22
889.59	-107.8
889.756	-82.7
889.921	-55.39
890.086	-75.68
890.251	35.45
890.416	13.67
890.581	-52.55
890.746	-43.86
890.911	-13.48
891.076	-12.99
891.241	-18.63
891.406	-5.48
891.571	7.91
891.736	-77.47
891.901	-20.15
892.065	8.5
892.23	24.54
892.395	11.16
892.56	53.97
892.725	143.18
892.889	280.34
893.054	150.03
893.219	94.47
893.384	43.12
893.548	-60.32
893.713	-121.56
893.878	-190.33
