Data from Ofra_PS_T2_1A_2GT41_Reflection_2.txt Node
Date: Wed Jul 21 17:57:01 EDT 2021
User: Adam
Spectrometer: FLMT01687
Trigger mode: 0
Integration Time (sec): 1.100000E0
Scans to average: 2
Electric dark correction enabled: true
Nonlinearity correction enabled: false
Boxcar width: 2
XAxis mode: Wavelengths
Number of Pixels in Spectrum: 3648
>>>>>Begin Spectral Data<<<<<
179.494	500.2
179.716	580.71
179.937	560.74
180.158	528.81
180.38	832.66
180.601	341.57
180.823	107.48
181.044	-69.55
181.265	194.3
181.486	66.02
181.708	95.67
181.929	386.22
182.15	-355.28
182.372	81
182.593	16.64
182.814	35.07
183.035	82.91
183.257	99.24
183.478	101.44
183.699	120.89
183.92	59.18
184.141	60.51
184.363	17.8
184.584	49.46
184.805	62.19
185.026	105.28
185.247	83.9
185.468	56.23
185.689	54.22
185.91	34.25
186.132	21.76
186.353	14.71
186.574	47.64
186.795	38.77
187.016	22.4
187.237	-2.55
187.458	-22.01
187.679	-31.63
187.9	-35.85
188.121	-50.9
188.342	-34.09
188.563	24.1
188.784	77.8
189.005	107.17
189.226	169.27
189.447	141.81
189.667	120.75
189.888	-245.44
190.109	-1161.36
190.33	-696.94
190.551	-1317.04
190.772	-332.02
190.993	-271.42
191.214	-215.56
191.434	-145.92
191.655	-47.15
191.876	-69.85
192.097	-89.2
192.318	-139.6
192.538	-198.02
192.759	-135.83
192.98	-23.42
193.201	8.48
193.421	45.04
193.642	43.87
193.863	57.5
194.083	18.9
194.304	13.2
194.525	-11
194.745	-27.98
194.966	-68.86
195.187	-65.29
195.407	-103.42
195.628	-145.38
195.848	-137.52
196.069	-117.65
196.29	-55.93
196.51	-65.43
196.731	-62.85
196.951	-58.5
197.172	-59.44
197.392	-96.13
197.613	-82.02
197.833	-97.59
198.054	-103.99
198.274	-44.31
198.495	-56.16
198.715	-23.84
198.936	-37.52
199.156	-6.96
199.377	-105.47
199.597	-103.2
199.817	-118.79
200.038	-44.8
200.258	-120.83
200.479	-49.9
200.699	-27.08
200.919	20.07
201.14	-1.41
201.36	2.39
201.58	21.51
201.801	37.72
202.021	0.93
202.241	-12.65
202.461	-11.97
202.682	-96.24
202.902	-169.98
203.122	-89.46
203.342	-67.66
203.563	-17.81
203.783	9.85
204.003	-29.36
204.223	-19.54
204.443	35.89
204.663	0.95
204.884	-7.23
205.104	47.63
205.324	60.92
205.544	53.51
205.764	66.33
205.984	88.02
206.204	85.27
206.424	64.98
206.644	27.54
206.864	30.35
207.084	-19.62
207.304	14.48
207.525	-70.39
207.745	-5.68
207.964	22.96
208.184	-38.38
208.404	-103.92
208.624	-95.06
208.844	-95.35
209.064	-396.14
209.284	-352.91
209.504	-178.47
209.724	-29.93
209.944	-12.74
210.164	19.6
210.384	39.93
210.604	35.57
210.823	-10.74
211.043	-27.64
211.263	-28.83
211.483	-37.94
211.703	-79.32
211.922	-55.57
212.142	4.87
212.362	28.02
212.582	5.3
212.801	8.64
213.021	-15.63
213.241	-38.19
213.461	-57.03
213.68	-80.73
213.9	-40.5
214.12	-12.63
214.339	-50.07
214.559	-34.96
214.779	18.22
214.998	0.65
215.218	-23.49
215.438	-0.27
215.657	-10.28
215.877	-19.59
216.096	12.99
216.316	16.62
216.535	6.31
216.755	-4.11
216.974	-92.78
217.194	-149.8
217.413	-151.58
217.633	-153.09
217.852	-244.77
218.072	-111.15
218.291	-54.15
218.511	-13.48
218.73	-33.16
218.95	-21.81
219.169	-22.51
219.389	-69.11
219.608	-60.79
219.827	-54.94
220.047	-47.21
220.266	-16.73
220.485	-3.37
220.705	8.74
220.924	-7.56
221.143	17.41
221.363	-13.04
221.582	1.69
221.801	2.28
222.021	10.64
222.24	-37.33
222.459	61.92
222.678	30.54
222.897	7.56
223.117	16.82
223.336	52.65
223.555	8.58
223.774	60.54
223.993	62.35
224.213	78.49
224.432	32.74
224.651	32.42
224.87	-11.54
225.089	4.97
225.308	5.42
225.527	21.84
225.746	24.35
225.965	36.49
226.184	29.66
226.404	33.85
226.623	8.98
226.842	13.85
227.061	21.16
227.28	18.63
227.499	2.24
227.718	19.17
227.936	14.13
228.155	25.96
228.374	25.98
228.593	22.33
228.812	22.87
229.031	5.62
229.25	-60.79
229.469	-75.29
229.688	-50.23
229.907	-8.7
230.125	13.59
230.344	38.53
230.563	57
230.782	49.28
231.001	-27.98
231.22	-35.24
231.438	0.65
231.657	-6.03
231.876	-8.47
232.095	53.06
232.313	68.46
232.532	59.7
232.751	41.81
232.969	18.15
233.188	-43.11
233.407	9.39
233.625	2.92
233.844	-7.68
234.063	2.36
234.281	3.53
234.5	-16.36
234.719	-4.56
234.937	24.01
235.156	23.25
235.374	27.64
235.593	21.1
235.811	-1.95
236.03	-27.11
236.249	-59.12
236.467	-40.64
236.686	-7.58
236.904	9.24
237.123	-7.71
237.341	-13.93
237.559	-7.76
237.778	-34.74
237.996	-56.64
238.215	2.08
238.433	28.09
238.652	30.48
238.87	9.74
239.088	21.19
239.307	-1.32
239.525	-15.04
239.743	-38.01
239.962	-13.47
240.18	-49.21
240.398	-76.33
240.617	-82.31
240.835	-81.74
241.053	-43.78
241.271	31.03
241.49	41.75
241.708	29.82
241.926	64.67
242.144	12.94
242.363	-53.08
242.581	-69.07
242.799	-22.75
243.017	-7.24
243.235	-18.17
243.453	-10.1
243.672	-18.3
243.89	-19.99
244.108	-41.57
244.326	-14.21
244.544	-7.05
244.762	2.9
244.98	11.1
245.198	21.37
245.416	-15.31
245.634	-20.24
245.852	-31.46
246.07	-35.48
246.288	-35.84
246.506	-48.2
246.724	-9.59
246.942	-0.02
247.16	37.54
247.378	49.13
247.596	71.7
247.814	70.52
248.032	42.29
248.25	37.85
248.468	26.63
248.685	38.42
248.903	43.01
249.121	47.67
249.339	-5.74
249.557	-14.17
249.775	-9.81
249.992	-75.45
250.21	-78.54
250.428	-42.56
250.646	-69.26
250.863	-84.22
251.081	-41.73
251.299	-6.82
251.517	3.35
251.734	27
251.952	25.37
252.17	9.99
252.387	3.24
252.605	-17.67
252.823	-17.34
253.04	0.74
253.258	24.17
253.475	16.44
253.693	39.08
253.911	40.68
254.128	38.24
254.346	19.81
254.563	15.22
254.781	3.11
254.998	-27.18
255.216	-36.18
255.433	-22.55
255.651	20.11
255.868	55.62
256.086	90.83
256.303	80.27
256.521	66.21
256.738	43.11
256.956	8.86
257.173	-26.76
257.39	-47.68
257.608	-69.85
257.825	-23.9
258.043	4.78
258.26	27.22
258.477	74.66
258.695	77.62
258.912	25.12
259.129	28.68
259.346	-21.66
259.564	-58.12
259.781	-81.37
259.998	-7.09
260.216	23.62
260.433	77.08
260.65	69.82
260.867	70.2
261.084	41.63
261.302	23.04
261.519	10.3
261.736	-21.68
261.953	-37.4
262.17	9.08
262.387	-40.59
262.604	-62.61
262.822	-72.36
263.039	-49.29
263.256	-119.96
263.473	-46.16
263.69	-30.97
263.907	16.66
264.124	18.47
264.341	25.27
264.558	20.24
264.775	37.65
264.992	30.08
265.209	32.27
265.426	56.4
265.643	51.77
265.86	45.18
266.077	40.85
266.294	34.94
266.51	-12.53
266.727	-36.52
266.944	-20.04
267.161	-24
267.378	-19.02
267.595	6.6
267.812	-4.23
268.028	-25.85
268.245	7.74
268.462	-25.09
268.679	-36.37
268.896	7.24
269.112	20.13
269.329	3.08
269.546	20.9
269.763	10.43
269.979	2.43
270.196	-15.87
270.413	-44.34
270.629	-73.7
270.846	-79.99
271.063	-71.17
271.279	-76.65
271.496	-64.81
271.712	-21.05
271.929	16.91
272.146	-16.53
272.362	-8.75
272.579	34.17
272.795	34.09
273.012	28.14
273.228	47.75
273.445	38.36
273.661	4.92
273.878	-53.66
274.094	-51.82
274.311	-78.17
274.527	-22.57
274.744	-8.39
274.96	14.11
275.177	25.25
275.393	43.65
275.609	48.43
275.826	50.01
276.042	38.71
276.259	31.77
276.475	37.87
276.691	36.95
276.908	21.25
277.124	37.14
277.34	19.02
277.557	-1.54
277.773	-13.13
277.989	-18.41
278.205	-13.67
278.422	15.82
278.638	23.25
278.854	47.1
279.07	53.43
279.286	39.85
279.503	-7.83
279.719	-16.85
279.935	-52.61
280.151	-69.03
280.367	-42.31
280.583	-36
280.799	-27.12
281.016	-31.95
281.232	3.31
281.448	-0.57
281.664	19.76
281.88	-8.3
282.096	8.99
282.312	30.48
282.528	50.76
282.744	66.27
282.96	58.65
283.176	26.8
283.392	13.54
283.608	6.24
283.824	-4.02
284.04	11.37
284.256	30.85
284.471	17.41
284.687	9.31
284.903	28.22
285.119	37.86
285.335	16.69
285.551	33.72
285.767	23.92
285.982	4.64
286.198	-31.19
286.414	19.59
286.63	19.96
286.846	36
287.061	7.48
287.277	43.37
287.493	8.07
287.709	20.06
287.924	-4.19
288.14	31.75
288.356	21.51
288.571	33.34
288.787	11.43
289.003	17.64
289.218	11.09
289.434	-24.21
289.65	-1.46
289.865	-3.89
290.081	19.22
290.296	9.65
290.512	17.85
290.727	-20.5
290.943	-16.26
291.159	-20.89
291.374	-24.05
291.59	-33.19
291.805	-18.43
292.021	-11.38
292.236	-19.1
292.451	5.59
292.667	18.55
292.882	41.57
293.098	44.1
293.313	46.42
293.529	17.94
293.744	-18.58
293.959	-38.91
294.175	-31.55
294.39	1.65
294.605	15.54
294.821	40.35
295.036	48.06
295.251	52.51
295.467	9.46
295.682	-0.02
295.897	-54.22
296.112	-68.35
296.328	-54.52
296.543	-56.73
296.758	-73.38
296.973	-15.85
297.188	8.89
297.404	-41.37
297.619	-47.69
297.834	-40.83
298.049	-47.23
298.264	-74.7
298.479	-5.88
298.694	2.34
298.909	23.31
299.125	9.35
299.34	18.41
299.555	-21.22
299.77	-4.27
299.985	-53.88
300.2	-92.57
300.415	-97.14
300.63	-48.06
300.845	-53.32
301.06	-42.65
301.275	-1.09
301.49	17.47
301.704	4.53
301.919	-22.15
302.134	-35.31
302.349	-39.58
302.564	-128.49
302.779	-170.57
302.994	-146.28
303.209	-78.36
303.423	-26.96
303.638	45.2
303.853	8.66
304.068	5.91
304.283	12.06
304.497	-5.84
304.712	-10.02
304.927	3.19
305.142	-0.56
305.356	6.65
305.571	3.87
305.786	-11.48
306	-22.71
306.215	-11.11
306.43	-35.18
306.644	-11.28
306.859	29.15
307.074	42.98
307.288	10.78
307.503	4.57
307.717	-25.27
307.932	-35.14
308.147	-46.63
308.361	-28.73
308.576	-30.06
308.79	-56.93
309.005	-41.49
309.219	-30.78
309.434	-35.24
309.648	-30.18
309.863	-5.52
310.077	-6.53
310.292	-5.24
310.506	-1.05
310.72	6.59
310.935	16.85
311.149	14.84
311.364	21.81
311.578	30.42
311.792	18.27
312.007	20.32
312.221	3.91
312.435	15.79
312.649	-4.36
312.864	27.67
313.078	39.06
313.292	107.49
313.507	83.66
313.721	139.59
313.935	70.74
314.149	44.84
314.363	17.86
314.578	12.85
314.792	4.43
315.006	-15.85
315.22	7.5
315.434	15.48
315.648	24.61
315.862	14.92
316.077	21.92
316.291	-8.19
316.505	3.37
316.719	-21.8
316.933	-3.63
317.147	16.84
317.361	-10.76
317.575	-54.39
317.789	-60.58
318.003	-109.33
318.217	-125.33
318.431	-23.47
318.645	27.71
318.859	29.83
319.073	60.94
319.287	47.66
319.5	9.19
319.714	-30.09
319.928	-72.28
320.142	-100.59
320.356	-18.71
320.57	15.06
320.784	19.87
320.997	56.5
321.211	35.27
321.425	-44.93
321.639	-67.27
321.853	-22.79
322.066	-26.43
322.28	-20.02
322.494	-3.81
322.707	18.72
322.921	-2.98
323.135	5.96
323.349	10.19
323.562	-18.04
323.776	-42.87
323.989	-30.06
324.203	-62.43
324.417	-50.76
324.63	-58.1
324.844	-51.25
325.057	-49.42
325.271	-27.55
325.485	-11.05
325.698	15.53
325.912	28.92
326.125	1.74
326.339	12.55
326.552	-8.75
326.766	-9.4
326.979	9.85
327.193	36.33
327.406	23.87
327.619	23.29
327.833	43.26
328.046	12.18
328.26	-6.33
328.473	16.74
328.686	-17.92
328.9	-29.42
329.113	-2.22
329.326	-19.64
329.54	3.19
329.753	27.98
329.966	-20.04
330.179	-10.36
330.393	0.37
330.606	-18.02
330.819	4.46
331.032	28.21
331.246	20.83
331.459	48.17
331.672	40.5
331.885	19.89
332.098	-5.33
332.311	-14.09
332.525	-72.84
332.738	-33.22
332.951	15.46
333.164	36.85
333.377	50.01
333.59	68.04
333.803	50.69
334.016	26.68
334.229	26.83
334.442	20.77
334.655	37.4
334.868	47.86
335.081	50.59
335.294	43.57
335.507	36.73
335.72	13.95
335.933	-9.06
336.146	-8.77
336.359	-5.42
336.572	-25.03
336.785	-50.26
336.997	-39.57
337.21	-28.05
337.423	-35.23
337.636	-26.04
337.849	-13.54
338.062	-3.41
338.274	11.73
338.487	13.88
338.7	-4.24
338.913	-20.84
339.125	-46.82
339.338	-103.02
339.551	-84.57
339.763	-29.83
339.976	-19.65
340.189	-2.01
340.402	6.25
340.614	-3.82
340.827	-1.13
341.039	-2.28
341.252	-6.57
341.465	16.45
341.677	24.83
341.89	-21.21
342.102	2.59
342.315	-0.95
342.527	-44.16
342.74	-37.8
342.952	3.83
343.165	-5.76
343.377	21.39
343.59	26.77
343.802	36.22
344.015	42
344.227	51.11
344.44	28.89
344.652	33.74
344.864	20.52
345.077	31
345.289	30.53
345.502	40.68
345.714	26.13
345.926	27.12
346.139	19.81
346.351	26.97
346.563	35.43
346.775	45.52
346.988	39.84
347.2	20.69
347.412	-17
347.624	-54.45
347.837	-71.24
348.049	-36.15
348.261	-2.07
348.473	14.7
348.685	20.81
348.897	8.54
349.11	-9.78
349.322	-35.07
349.534	-25.27
349.746	-24.32
349.958	-4.91
350.17	-19.9
350.382	6.74
350.594	-0.36
350.806	2.1
351.018	-5.49
351.23	-14.54
351.442	-49.33
351.654	-74.82
351.866	-52.34
352.078	-36
352.29	-11.28
352.502	11.3
352.714	32.01
352.926	20.54
353.138	15.65
353.35	8.39
353.561	2.37
353.773	-17.63
353.985	-12.18
354.197	-8.72
354.409	-4.35
354.621	-8.23
354.832	4.43
355.044	4.35
355.256	5.37
355.468	12.02
355.679	7.58
355.891	16.06
356.103	-4.11
356.314	1.65
356.526	10.86
356.738	6.67
356.949	-10.9
357.161	23.44
357.373	9.98
357.584	-12.38
357.796	5.93
358.008	2.38
358.219	8.91
358.431	15.09
358.642	26.13
358.854	19.29
359.065	5.21
359.277	-19.62
359.488	-34.37
359.7	-49.86
359.911	-58.62
360.123	-25.06
360.334	-40.23
360.546	-32.22
360.757	-34.81
360.969	-22.78
361.18	-26.79
361.391	-20.84
361.603	-48.52
361.814	-40.96
362.025	-53.22
362.237	-46.04
362.448	-20.54
362.659	4.16
362.871	0.26
363.082	-0.3
363.293	-0.86
363.504	-13.35
363.716	-38.32
363.927	-40.64
364.138	-53.22
364.349	-67.89
364.56	-51.31
364.772	-32.94
364.983	-12.6
365.194	-4.08
365.405	10.43
365.616	20.68
365.827	7.14
366.038	-19.74
366.25	-23.28
366.461	-64.14
366.672	-35.36
366.883	1.64
367.094	11.13
367.305	5.07
367.516	24.65
367.727	-8.36
367.938	-28.13
368.149	-23.74
368.36	-9.49
368.571	-9.63
368.781	-11.78
368.992	-23.97
369.203	-37.27
369.414	-52.06
369.625	-66.36
369.836	-60.82
370.047	-67.16
370.258	-49.71
370.468	-42
370.679	-50.63
370.89	-44.52
371.101	-21.99
371.312	-32.84
371.522	-38.45
371.733	-24.54
371.944	-18.23
372.155	-8.68
372.365	-5.45
372.576	4.06
372.787	6.33
372.997	-15.63
373.208	-22.78
373.419	5.91
373.629	-15.78
373.84	-19.25
374.05	-11.21
374.261	-4.58
374.472	-31.05
374.682	3.62
374.893	0.71
375.103	31.01
375.314	23.36
375.524	23.24
375.735	29.69
375.945	35.22
376.156	13.69
376.366	11.56
376.577	17.46
376.787	2.9
376.997	9.05
377.208	2.53
377.418	1.88
377.629	10.4
377.839	13.85
378.049	9.24
378.26	19.71
378.47	27.11
378.68	13.46
378.89	1.14
379.101	-13.42
379.311	-40.7
379.521	-75.26
379.732	-76.71
379.942	-54.89
380.152	-47.71
380.362	-27.33
380.572	-25.57
380.783	-8.32
380.993	0.88
381.203	4.92
381.413	27.66
381.623	41.55
381.833	26.82
382.043	10.54
382.253	4.06
382.463	-2.96
382.674	-11.86
382.884	-25.1
383.094	-23.71
383.304	-17.81
383.514	-11.66
383.724	-4.89
383.934	-3.45
384.144	-12.64
384.353	-20.49
384.563	-25.49
384.773	-21.65
384.983	-29.28
385.193	-11.7
385.403	-2.39
385.613	-3.19
385.823	-11.64
386.033	-3.05
386.242	-10.22
386.452	-18.49
386.662	-20.88
386.872	-4.24
387.082	-6.37
387.291	-12.49
387.501	-10.07
387.711	-8.56
387.921	-20.1
388.13	-19.19
388.34	-2.2
388.55	-8.33
388.759	-8
388.969	1.56
389.179	1.28
389.388	-7.14
389.598	-0.48
389.807	-6.7
390.017	-12.08
390.227	-11.35
390.436	-11.21
390.646	-7.91
390.855	-2.6
391.065	-3.46
391.274	-5.26
391.484	-5.35
391.693	-5
391.903	-2.78
392.112	3.7
392.322	7.87
392.531	10.59
392.74	12.6
392.95	6.29
393.159	3.7
393.369	1.62
393.578	0.7
393.787	-3.16
393.997	-0.49
394.206	-2.87
394.415	-1.79
394.625	-1.54
394.834	-2.16
395.043	-1.59
395.252	0.91
395.462	2.44
395.671	4.16
395.88	5.25
396.089	5.95
396.298	3.87
396.508	3.71
396.717	2.23
396.926	2.66
397.135	2.18
397.344	2.48
397.553	2.18
397.762	3.6
397.971	3.56
398.181	3.69
398.39	3.39
398.599	2.89
398.808	2.58
399.017	3.26
399.226	4.46
399.435	5.98
399.644	6.15
399.853	5
400.062	4.06
400.27	3.41
400.479	2.56
400.688	2.03
400.897	2.46
401.106	2.8
401.315	2.27
401.524	2.09
401.733	2.65
401.941	3.14
402.15	3.29
402.359	3.18
402.568	3.71
402.777	3.68
402.985	3.39
403.194	3.04
403.403	3.2
403.612	2.58
403.82	2.36
404.029	2.5
404.238	2.45
404.446	2.78
404.655	2.72
404.864	2.73
405.072	2.44
405.281	2.75
405.489	2.37
405.698	2.57
405.906	2.6
406.115	2.62
406.324	2.6
406.532	2.73
406.741	2.94
406.949	2.9
407.158	2.89
407.366	2.88
407.574	2.94
407.783	2.77
407.991	2.54
408.2	2.66
408.408	2.58
408.617	2.37
408.825	2.25
409.033	2.47
409.242	2.45
409.45	2.47
409.658	2.48
409.867	2.66
410.075	2.51
410.283	2.47
410.491	2.39
410.7	2.31
410.908	2.3
411.116	2.66
411.324	2.64
411.533	2.59
411.741	2.88
411.949	2.81
412.157	2.48
412.365	2.45
412.573	2.52
412.781	2.53
412.99	2.41
413.198	2.57
413.406	2.58
413.614	2.64
413.822	2.41
414.03	2.43
414.238	2.31
414.446	2.32
414.654	2.11
414.862	2.24
415.07	2.3
415.278	2.41
415.486	2.27
415.694	2.31
415.902	2.23
416.109	2.09
416.317	2.08
416.525	1.98
416.733	1.97
416.941	2.05
417.149	2
417.357	2.03
417.564	2.24
417.772	2.48
417.98	2.38
418.188	2.58
418.395	2.55
418.603	2.61
418.811	2.3
419.019	2.28
419.226	2.39
419.434	2.52
419.642	2.34
419.849	2.54
420.057	2.6
420.265	2.54
420.472	2.28
420.68	2.32
420.887	2.18
421.095	2.17
421.302	2.03
421.51	2.16
421.717	2.25
421.925	2.38
422.132	2.31
422.34	2.2
422.547	2.29
422.755	2.2
422.962	1.96
423.17	1.87
423.377	2
423.585	2.02
423.792	1.91
423.999	2.07
424.207	2.1
424.414	2.27
424.621	2.12
424.829	2.29
425.036	2.31
425.243	2.47
425.451	2.26
425.658	2.1
425.865	2.27
426.072	2.2
426.28	2.41
426.487	2.43
426.694	2.6
426.901	2.3
427.108	2.28
427.315	2.06
427.523	2.3
427.73	2.38
427.937	2.34
428.144	2.17
428.351	2.09
428.558	2.27
428.765	2.13
428.972	2.14
429.179	2.47
429.386	2.74
429.593	2.27
429.8	2.19
430.007	2.3
430.214	2.41
430.421	2.15
430.628	2.11
430.835	1.96
431.042	2.03
431.249	1.94
431.456	1.93
431.662	2.1
431.869	2.45
432.076	2.43
432.283	2.55
432.49	2.51
432.697	2.52
432.903	2.21
433.11	2.16
433.317	2.07
433.524	2.35
433.73	2.22
433.937	2.49
434.144	2.39
434.35	2.38
434.557	2.22
434.764	2.29
434.97	2.19
435.177	2.4
435.384	2.28
435.59	2.36
435.797	2.54
436.003	2.71
436.21	2.66
436.416	2.83
436.623	2.83
436.829	2.91
437.036	2.94
437.242	2.94
437.449	2.83
437.655	2.78
437.862	2.65
438.068	2.51
438.275	2.59
438.481	2.79
438.687	2.75
438.894	2.68
439.1	2.73
439.307	2.78
439.513	2.61
439.719	2.68
439.926	2.86
440.132	2.87
440.338	2.7
440.544	2.9
440.751	2.84
440.957	2.81
441.163	2.73
441.369	2.88
441.575	2.66
441.782	2.64
441.988	2.55
442.194	2.57
442.4	2.55
442.606	2.86
442.812	2.98
443.018	3.03
443.224	3.02
443.431	3.19
443.637	2.93
443.843	2.74
444.049	2.75
444.255	2.82
444.461	2.72
444.667	2.71
444.873	2.94
445.079	2.98
445.284	3.03
445.49	2.77
445.696	2.65
445.902	2.52
446.108	2.4
446.314	2.32
446.52	2.44
446.726	2.73
446.931	2.75
447.137	2.84
447.343	2.94
447.549	2.85
447.755	2.68
447.96	2.69
448.166	2.56
448.372	2.45
448.578	2.6
448.783	2.67
448.989	2.79
449.195	3.01
449.4	3.04
449.606	2.98
449.812	2.84
450.017	2.89
450.223	2.7
450.428	2.59
450.634	2.73
450.84	2.88
451.045	2.69
451.251	2.65
451.456	3
451.662	3.03
451.867	3.09
452.073	3.14
452.278	3.28
452.483	3.35
452.689	3.19
452.894	3.13
453.1	3.13
453.305	3.08
453.51	2.83
453.716	2.78
453.921	2.86
454.127	2.77
454.332	2.71
454.537	2.64
454.742	2.82
454.948	2.78
455.153	2.91
455.358	2.99
455.563	3.17
455.769	3.17
455.974	3.13
456.179	2.93
456.384	2.93
456.589	2.84
456.795	2.68
457	2.62
457.205	2.93
457.41	2.94
457.615	2.94
457.82	3.04
458.025	3.13
458.23	2.95
458.435	2.98
458.64	2.83
458.845	2.97
459.05	2.96
459.255	3.01
459.46	2.98
459.665	3.03
459.87	2.93
460.075	2.96
460.28	2.99
460.485	3.15
460.69	3.24
460.895	3.15
461.099	3.1
461.304	3.13
461.509	3
461.714	2.96
461.919	3.08
462.123	2.99
462.328	3.04
462.533	2.95
462.738	3.12
462.942	3.06
463.147	3.16
463.352	3.19
463.556	3.24
463.761	3.18
463.966	3.18
464.17	3.19
464.375	3.03
464.58	3.02
464.784	2.95
464.989	2.89
465.193	2.91
465.398	3
465.602	3.15
465.807	3.12
466.011	3.18
466.216	3.2
466.42	3.22
466.625	3.29
466.829	3.37
467.034	3.54
467.238	3.75
467.443	3.69
467.647	3.54
467.851	3.57
468.056	3.52
468.26	3.31
468.464	3.38
468.669	3.52
468.873	3.64
469.077	3.59
469.282	3.64
469.486	3.62
469.69	3.57
469.894	3.34
470.099	3.36
470.303	3.46
470.507	3.43
470.711	3.3
470.915	3.35
471.119	3.3
471.324	3.21
471.528	3.21
471.732	3.35
471.936	3.41
472.14	3.55
472.344	3.59
472.548	3.68
472.752	3.83
472.956	3.98
473.16	3.88
473.364	3.82
473.568	3.79
473.772	3.69
473.976	3.6
474.18	3.57
474.384	3.64
474.588	3.59
474.792	3.48
474.995	3.49
475.199	3.59
475.403	3.62
475.607	3.68
475.811	3.72
476.015	3.75
476.218	3.76
476.422	3.69
476.626	3.74
476.83	3.79
477.033	3.75
477.237	3.69
477.441	3.71
477.644	3.7
477.848	3.72
478.052	3.68
478.255	3.74
478.459	3.8
478.663	3.89
478.866	3.93
479.07	3.99
479.273	4.09
479.477	4.12
479.681	4.06
479.884	4
480.088	3.99
480.291	3.94
480.495	3.95
480.698	3.92
480.901	3.93
481.105	4
481.308	4
481.512	3.96
481.715	4.02
481.919	4.07
482.122	4.08
482.325	4.03
482.529	4.08
482.732	4.05
482.935	3.92
483.138	3.9
483.342	3.99
483.545	4.03
483.748	4.05
483.952	4.23
484.155	4.36
484.358	4.39
484.561	4.37
484.764	4.31
484.967	4.32
485.171	4.34
485.374	4.34
485.577	4.38
485.78	4.49
485.983	4.48
486.186	4.37
486.389	4.3
486.592	4.32
486.795	4.31
486.998	4.21
487.201	4.29
487.404	4.39
487.607	4.4
487.81	4.41
488.013	4.56
488.216	4.54
488.419	4.52
488.622	4.47
488.825	4.4
489.028	4.31
489.231	4.23
489.433	4.17
489.636	4.1
489.839	4.1
490.042	4.03
490.245	4.13
490.447	4.21
490.65	4.28
490.853	4.3
491.056	4.37
491.258	4.33
491.461	4.3
491.664	4.32
491.866	4.3
492.069	4.42
492.272	4.36
492.474	4.43
492.677	4.48
492.879	4.57
493.082	4.53
493.285	4.7
493.487	4.65
493.69	4.52
493.892	4.41
494.095	4.36
494.297	4.28
494.5	4.31
494.702	4.44
494.905	4.5
495.107	4.53
495.309	4.53
495.512	4.59
495.714	4.6
495.917	4.65
496.119	4.66
496.321	4.7
496.524	4.72
496.726	4.71
496.928	4.77
497.13	4.77
497.333	4.73
497.535	4.7
497.737	4.66
497.939	4.61
498.142	4.68
498.344	4.67
498.546	4.6
498.748	4.69
498.95	4.84
499.152	4.76
499.355	4.86
499.557	5.04
499.759	5.06
499.961	4.92
500.163	5.02
500.365	4.97
500.567	4.93
500.769	4.9
500.971	4.95
501.173	4.87
501.375	4.92
501.577	4.9
501.779	4.89
501.981	4.92
502.183	4.98
502.385	4.95
502.587	4.9
502.788	4.99
502.99	5.02
503.192	5.04
503.394	5.05
503.596	5.12
503.798	5.2
503.999	5.22
504.201	5.28
504.403	5.35
504.605	5.36
504.806	5.23
505.008	5.24
505.21	5.24
505.411	5.21
505.613	5.25
505.815	5.3
506.016	5.38
506.218	5.49
506.42	5.52
506.621	5.48
506.823	5.5
507.024	5.4
507.226	5.3
507.427	5.31
507.629	5.37
507.83	5.38
508.032	5.38
508.233	5.49
508.435	5.53
508.636	5.61
508.838	5.6
509.039	5.62
509.24	5.58
509.442	5.57
509.643	5.48
509.845	5.54
510.046	5.65
510.247	5.67
510.448	5.67
510.65	5.73
510.851	5.81
511.052	5.75
511.254	5.75
511.455	5.89
511.656	5.93
511.857	5.92
512.058	5.97
512.26	5.96
512.461	5.91
512.662	5.93
512.863	5.83
513.064	5.81
513.265	5.84
513.466	5.87
513.667	5.8
513.868	5.85
514.069	5.95
514.27	5.99
514.471	5.92
514.672	5.95
514.873	6
515.074	6
515.275	5.88
515.476	5.95
515.677	5.98
515.878	6.11
516.079	6.04
516.28	6.12
516.481	6.15
516.682	6.18
516.882	6.05
517.083	6.06
517.284	6.07
517.485	6.06
517.686	6.02
517.886	5.99
518.087	6.09
518.288	6.11
518.488	6.1
518.689	6.13
518.89	6.16
519.091	6.12
519.291	6.12
519.492	6.16
519.692	6.15
519.893	6.23
520.094	6.24
520.294	6.17
520.495	6.14
520.695	6.16
520.896	6.15
521.096	6.2
521.297	6.31
521.497	6.37
521.698	6.35
521.898	6.33
522.099	6.31
522.299	6.34
522.499	6.3
522.7	6.34
522.9	6.35
523.101	6.4
523.301	6.38
523.501	6.41
523.702	6.42
523.902	6.5
524.102	6.58
524.302	6.57
524.503	6.63
524.703	6.63
524.903	6.63
525.103	6.54
525.304	6.63
525.504	6.66
525.704	6.74
525.904	6.71
526.104	6.7
526.304	6.7
526.504	6.7
526.705	6.68
526.905	6.77
527.105	6.8
527.305	6.77
527.505	6.67
527.705	6.64
527.905	6.6
528.105	6.6
528.305	6.6
528.505	6.69
528.705	6.83
528.905	6.84
529.105	6.88
529.304	6.93
529.504	7.04
529.704	6.93
529.904	6.98
530.104	6.99
530.304	7.1
530.503	7.02
530.703	7.01
530.903	7.01
531.103	7.04
531.303	6.94
531.502	7.03
531.702	7.12
531.902	7.12
532.101	7.12
532.301	7.17
532.501	7.14
532.7	7.12
532.9	7.15
533.1	7.14
533.299	7.16
533.499	7.21
533.698	7.19
533.898	7.16
534.097	7.18
534.297	7.25
534.496	7.22
534.696	7.31
534.895	7.45
535.095	7.58
535.294	7.54
535.494	7.54
535.693	7.49
535.892	7.46
536.092	7.31
536.291	7.29
536.491	7.39
536.69	7.43
536.889	7.39
537.088	7.46
537.288	7.55
537.487	7.57
537.686	7.59
537.886	7.64
538.085	7.7
538.284	7.83
538.483	7.79
538.682	7.88
538.882	7.89
539.081	7.96
539.28	7.82
539.479	7.82
539.678	7.74
539.877	7.87
540.076	7.89
540.275	7.95
540.474	8.09
540.673	8.19
540.872	8.14
541.071	8.17
541.27	8.2
541.469	8.16
541.668	8.17
541.867	8.2
542.066	8.23
542.265	8.34
542.464	8.33
542.663	8.38
542.862	8.54
543.06	8.63
543.259	8.64
543.458	8.78
543.657	8.84
543.856	8.83
544.054	8.82
544.253	8.79
544.452	8.78
544.651	8.8
544.849	8.74
545.048	8.82
545.247	8.88
545.445	8.94
545.644	9.05
545.843	9.08
546.041	9.12
546.24	9.21
546.438	9.29
546.637	9.29
546.836	9.48
547.034	9.54
547.233	9.61
547.431	9.54
547.63	9.6
547.828	9.57
548.027	9.63
548.225	9.6
548.423	9.7
548.622	9.74
548.82	9.82
549.019	9.83
549.217	9.96
549.415	10.03
549.614	10.1
549.812	10.11
550.01	10.15
550.209	10.17
550.407	10.22
550.605	10.2
550.803	10.33
551.002	10.4
551.2	10.5
551.398	10.64
551.596	10.9
551.794	10.99
551.993	11.08
552.191	11.07
552.389	11.16
552.587	11.15
552.785	11.16
552.983	11.21
553.181	11.36
553.379	11.35
553.577	11.39
553.775	11.55
553.973	11.67
554.171	11.78
554.369	11.84
554.567	11.9
554.765	11.92
554.963	11.98
555.161	11.93
555.359	12.07
555.557	12.2
555.755	12.27
555.952	12.47
556.15	12.58
556.348	12.62
556.546	12.73
556.744	12.8
556.941	12.77
557.139	12.96
557.337	13.04
557.535	13.04
557.732	13.12
557.93	13.35
558.128	13.34
558.325	13.45
558.523	13.51
558.721	13.62
558.918	13.58
559.116	13.69
559.313	13.73
559.511	13.99
559.708	14.07
559.906	14.1
560.104	14.19
560.301	14.35
560.498	14.37
560.696	14.46
560.893	14.65
561.091	14.73
561.288	14.85
561.486	14.89
561.683	14.94
561.88	15
562.078	15.16
562.275	15.18
562.473	15.24
562.67	15.47
562.867	15.58
563.064	15.64
563.262	15.71
563.459	15.82
563.656	15.87
563.853	15.95
564.051	16.02
564.248	16.25
564.445	16.38
564.642	16.48
564.839	16.69
565.036	16.81
565.234	16.94
565.431	16.94
565.628	17.05
565.825	17.05
566.022	17.11
566.219	17.04
566.416	17.2
566.613	17.2
566.81	17.26
567.007	17.29
567.204	17.39
567.401	17.39
567.598	17.44
567.795	17.48
567.991	17.56
568.188	17.66
568.385	17.79
568.582	17.87
568.779	17.95
568.976	18.02
569.172	18.11
569.369	18.17
569.566	18.21
569.763	18.24
569.96	18.32
570.156	18.25
570.353	18.24
570.55	18.27
570.746	18.32
570.943	18.31
571.14	18.42
571.336	18.48
571.533	18.6
571.729	18.65
571.926	18.68
572.123	18.69
572.319	18.77
572.516	18.72
572.712	18.74
572.909	18.76
573.105	18.85
573.302	18.84
573.498	18.91
573.695	18.94
573.891	18.95
574.087	18.9
574.284	18.85
574.48	18.74
574.677	18.74
574.873	18.75
575.069	18.84
575.266	18.98
575.462	19.01
575.658	19.15
575.854	19.21
576.051	19.18
576.247	19.08
576.443	19.08
576.639	18.96
576.835	18.86
577.032	18.75
577.228	18.86
577.424	18.99
577.62	18.93
577.816	19.02
578.012	19.11
578.208	18.97
578.404	18.97
578.6	18.98
578.796	18.98
578.993	18.94
579.189	19.03
579.384	18.85
579.58	18.87
579.776	18.82
579.972	18.82
580.168	18.72
580.364	18.73
580.56	18.7
580.756	18.62
580.952	18.64
581.148	18.65
581.343	18.7
581.539	18.75
581.735	18.84
581.931	18.79
582.127	18.85
582.322	18.81
582.518	18.75
582.714	18.62
582.909	18.55
583.105	18.5
583.301	18.46
583.496	18.49
583.692	18.5
583.888	18.53
584.083	18.58
584.279	18.6
584.474	18.56
584.67	18.59
584.866	18.62
585.061	18.42
585.257	18.48
585.452	18.47
585.648	18.4
585.843	18.35
586.039	18.46
586.234	18.38
586.429	18.28
586.625	18.33
586.82	18.27
587.015	18.21
587.211	18.15
587.406	18.24
587.601	18.22
587.797	18.18
587.992	18.14
588.187	18.22
588.383	18.17
588.578	18.15
588.773	18.17
588.968	18.24
589.163	18.23
589.359	18.21
589.554	18.23
589.749	18.29
589.944	18.38
590.139	18.36
590.334	18.4
590.529	18.4
590.724	18.44
590.919	18.42
591.114	18.43
591.309	18.55
591.504	18.62
591.699	18.57
591.894	18.64
592.089	18.64
592.284	18.58
592.479	18.69
592.674	18.72
592.869	18.68
593.064	18.74
593.259	18.87
593.454	18.87
593.648	18.92
593.843	18.93
594.038	19.06
594.233	19.05
594.428	18.97
594.622	19.03
594.817	19.18
595.012	19.16
595.206	19.18
595.401	19.29
595.596	19.35
595.79	19.43
595.985	19.57
596.18	19.67
596.374	19.75
596.569	19.79
596.763	19.79
596.958	19.8
597.153	19.88
597.347	19.92
597.542	20.05
597.736	20.03
597.931	20.09
598.125	20.1
598.319	20.26
598.514	20.24
598.708	20.26
598.903	20.28
599.097	20.36
599.291	20.36
599.486	20.39
599.68	20.44
599.874	20.59
600.069	20.64
600.263	20.63
600.457	20.75
600.651	20.79
600.846	20.76
601.04	20.82
601.234	20.9
601.428	20.91
601.622	21.04
601.817	20.99
602.011	20.93
602.205	20.99
602.399	21.02
602.593	21.02
602.787	21.1
602.981	21.12
603.175	21.1
603.369	20.99
603.563	21.03
603.757	21.1
603.951	21.09
604.145	21.02
604.339	21.18
604.533	21.01
604.727	20.96
604.921	20.98
605.115	21.02
605.309	21.04
605.502	21.08
605.696	21.03
605.89	21.01
606.084	21.01
606.278	20.84
606.471	20.77
606.665	20.76
606.859	20.62
607.053	20.54
607.246	20.53
607.44	20.52
607.634	20.36
607.827	20.38
608.021	20.17
608.214	20.11
608.408	20.02
608.602	20.04
608.795	19.96
608.989	20.05
609.182	20.03
609.376	20.06
609.569	19.88
609.763	19.86
609.956	19.78
610.15	19.66
610.343	19.49
610.537	19.51
610.73	19.46
610.923	19.4
611.117	19.44
611.31	19.38
611.504	19.35
611.697	19.24
611.89	19.22
612.083	19.13
612.277	19.12
612.47	19.12
612.663	19.06
612.856	18.99
613.05	18.84
613.243	18.79
613.436	18.62
613.629	18.59
613.822	18.5
614.015	18.48
614.209	18.39
614.402	18.42
614.595	18.32
614.788	18.25
614.981	18.04
615.174	17.91
615.367	17.74
615.56	17.65
615.753	17.64
615.946	17.7
616.139	17.73
616.332	17.83
616.525	17.89
616.718	17.87
616.911	17.81
617.103	17.78
617.296	17.63
617.489	17.47
617.682	17.34
617.875	17.34
618.067	17.24
618.26	17.17
618.453	17.17
618.646	17.19
618.838	17.17
619.031	17.29
619.224	17.32
619.417	17.33
619.609	17.3
619.802	17.19
619.994	17.04
620.187	17.01
620.38	16.9
620.572	16.83
620.765	16.88
620.957	16.83
621.15	16.7
621.342	16.72
621.535	16.73
621.727	16.67
621.92	16.51
622.112	16.53
622.305	16.53
622.497	16.46
622.69	16.46
622.882	16.59
623.074	16.66
623.267	16.58
623.459	16.45
623.651	16.3
623.844	16.29
624.036	16.27
624.228	16.2
624.42	16.26
624.613	16.43
624.805	16.38
624.997	16.33
625.189	16.42
625.381	16.42
625.574	16.28
625.766	16.18
625.958	16.12
626.15	16.09
626.342	16.08
626.534	16.11
626.726	16.18
626.918	16.16
627.11	16.08
627.302	16.08
627.494	16.01
627.686	16.02
627.878	15.86
628.07	15.8
628.262	15.69
628.454	15.67
628.646	15.64
628.838	15.74
629.029	15.67
629.221	15.75
629.413	15.63
629.605	15.5
629.797	15.41
629.989	15.45
630.18	15.38
630.372	15.45
630.564	15.53
630.755	15.58
630.947	15.62
631.139	15.49
631.33	15.34
631.522	15.35
631.714	15.33
631.905	15.29
632.097	15.23
632.289	15.24
632.48	15.1
632.672	15.01
632.863	14.88
633.055	14.96
633.246	15
633.438	14.95
633.629	14.92
633.821	14.96
634.012	14.87
634.203	14.73
634.395	14.81
634.586	14.74
634.777	14.64
634.969	14.68
635.16	14.71
635.351	14.58
635.543	14.56
635.734	14.63
635.925	14.58
636.117	14.62
636.308	14.62
636.499	14.6
636.69	14.45
636.881	14.41
637.073	14.42
637.264	14.35
637.455	14.38
637.646	14.52
637.837	14.54
638.028	14.41
638.219	14.39
638.41	14.3
638.601	14.15
638.792	14.18
638.983	14.13
639.174	14.11
639.365	14.18
639.556	14.14
639.747	14.04
639.938	14.09
640.129	14.05
640.32	13.92
640.511	13.99
640.701	14.09
640.892	14.06
641.083	14.15
641.274	14.19
641.465	14.12
641.655	13.9
641.846	13.87
642.037	13.76
642.228	13.72
642.418	13.81
642.609	13.86
642.8	13.81
642.99	13.75
643.181	13.75
643.372	13.65
643.562	13.61
643.753	13.6
643.943	13.51
644.134	13.44
644.324	13.34
644.515	13.34
644.705	13.38
644.896	13.39
645.086	13.36
645.277	13.36
645.467	13.34
645.658	13.21
645.848	13.28
646.038	13.28
646.229	13.24
646.419	13.12
646.61	13.18
646.8	13.1
646.99	13.08
647.18	13.03
647.371	13.08
647.561	13.03
647.751	13.04
647.941	12.97
648.132	13.05
648.322	13.12
648.512	13.16
648.702	13.1
648.892	13.11
649.082	13.2
649.272	12.99
649.462	12.81
649.653	12.71
649.843	12.65
650.033	12.56
650.223	12.61
650.413	12.63
650.603	12.7
650.793	12.8
650.983	12.7
651.172	12.64
651.362	12.7
651.552	12.64
651.742	12.5
651.932	12.45
652.122	12.46
652.312	12.4
652.502	12.4
652.691	12.41
652.881	12.3
653.071	12.3
653.261	12.2
653.45	12.07
653.64	12.02
653.83	11.9
654.019	11.74
654.209	11.72
654.399	11.78
654.588	11.73
654.778	11.78
654.968	11.72
655.157	11.66
655.347	11.51
655.536	11.36
655.726	11.21
655.915	11.07
656.105	10.99
656.294	10.88
656.484	10.72
656.673	10.67
656.863	10.65
657.052	10.5
657.241	10.31
657.431	10.21
657.62	10.03
657.809	9.75
657.999	9.55
658.188	9.47
658.377	9.33
658.567	9.25
658.756	9.23
658.945	9.14
659.134	9.04
659.324	8.98
659.513	8.86
659.702	8.76
659.891	8.65
660.08	8.5
660.269	8.45
660.458	8.26
660.648	8.19
660.837	8.1
661.026	8.05
661.215	7.81
661.404	7.74
661.593	7.63
661.782	7.4
661.971	7.34
662.16	7.24
662.349	7.15
662.538	6.93
662.726	6.94
662.915	6.75
663.104	6.67
663.293	6.66
663.482	6.76
663.671	6.67
663.86	6.58
664.048	6.5
664.237	6.43
664.426	6.2
664.615	6.22
664.803	6.24
664.992	6.13
665.181	6
665.369	5.9
665.558	5.75
665.747	5.63
665.935	5.71
666.124	5.79
666.312	5.86
666.501	5.84
666.69	5.81
666.878	5.73
667.067	5.63
667.255	5.69
667.444	5.91
667.632	5.92
667.82	6
668.009	5.91
668.197	5.87
668.386	5.72
668.574	5.77
668.762	5.63
668.951	5.64
669.139	5.64
669.327	5.49
669.516	5.58
669.704	5.58
669.892	5.74
670.08	5.74
670.269	5.66
670.457	5.53
670.645	5.41
670.833	5.44
671.021	5.35
671.21	5.56
671.398	5.73
671.586	5.79
671.774	5.61
671.962	5.62
672.15	5.61
672.338	5.5
672.526	5.6
672.714	5.59
672.902	5.68
673.09	5.83
673.278	6.02
673.466	6.01
673.654	6.29
673.842	6.28
674.03	6.19
674.218	6.1
674.405	6.24
674.593	6.04
674.781	6.18
674.969	6.24
675.157	6.31
675.344	6.35
675.532	6.49
675.72	6.52
675.908	6.63
676.095	6.62
676.283	6.64
676.471	6.84
676.658	6.86
676.846	6.81
677.033	6.93
677.221	7.05
677.409	6.89
677.596	7.02
677.784	7.02
677.971	7.1
678.159	7.11
678.346	7.24
678.534	7.32
678.721	7.64
678.909	7.57
679.096	7.67
679.283	7.84
679.471	7.85
679.658	7.91
679.846	8.27
680.033	8.45
680.22	8.35
680.408	8.43
680.595	8.47
680.782	8.29
680.969	8.46
681.157	8.7
681.344	8.71
681.531	8.68
681.718	8.74
681.905	8.88
682.093	9.15
682.28	9.45
682.467	9.71
682.654	9.88
682.841	9.88
683.028	10.02
683.215	10.12
683.402	10.08
683.589	10.31
683.776	10.53
683.963	10.52
684.15	10.79
684.337	10.98
684.524	11.12
684.711	11.29
684.898	11.33
685.085	11.31
685.271	11.69
685.458	11.88
685.645	11.98
685.832	12.46
686.019	12.84
686.205	12.98
686.392	13.29
686.579	13.6
686.766	13.91
686.952	14.17
687.139	14.79
687.326	14.95
687.512	15.14
687.699	15.43
687.886	15.64
688.072	15.54
688.259	16.03
688.445	16.62
688.632	16.77
688.818	17.34
689.005	17.83
689.191	18.12
689.378	18.55
689.564	19.04
689.751	19.42
689.937	19.9
690.124	20.45
690.31	20.77
690.496	21.24
690.683	21.8
690.869	22.39
691.055	22.92
691.242	23.67
691.428	24.23
691.614	24.7
691.8	25.26
691.987	25.9
692.173	26.49
692.359	27.19
692.545	27.87
692.731	28.54
692.918	28.98
693.104	29.47
693.29	30.07
693.476	30.75
693.662	31.34
693.848	32.14
694.034	32.73
694.22	33.25
694.406	33.96
694.592	34.63
694.778	35.18
694.964	35.8
695.15	36.67
695.336	37.16
695.522	37.83
695.708	38.56
695.894	39.35
696.08	39.9
696.265	40.61
696.451	41.17
696.637	41.94
696.823	42.51
697.009	43.11
697.194	43.57
697.38	44.29
697.566	44.99
697.751	45.72
697.937	46.58
698.123	47.57
698.308	48.3
698.494	48.78
698.68	49.28
698.865	49.93
699.051	50.29
699.236	50.61
699.422	51.08
699.607	51.62
699.793	51.93
699.978	52.34
700.164	52.9
700.349	53.82
700.535	54.45
700.72	54.89
700.906	55.87
701.091	56.5
701.276	56.71
701.462	57.42
701.647	58.35
701.832	58.7
702.018	59.34
702.203	60.01
702.388	60.41
702.573	60.7
702.759	61.64
702.944	62.11
703.129	62.18
703.314	62.6
703.499	63.02
703.684	63.29
703.87	64.21
704.055	65.43
704.24	65.94
704.425	66.72
704.61	67.14
704.795	66.89
704.98	66.99
705.165	67.1
705.35	67.19
705.535	67.54
705.72	68.22
705.905	68.78
706.09	69.42
706.275	69.82
706.459	69.93
706.644	69.99
706.829	70.6
707.014	70.93
707.199	71.87
707.384	72.4
707.568	73
707.753	73.32
707.938	73.86
708.123	73.71
708.307	73.85
708.492	74.21
708.677	74.16
708.861	74.13
709.046	74.49
709.231	75.47
709.415	75.94
709.6	75.9
709.784	76.35
709.969	76.42
710.153	76
710.338	75.81
710.522	76.43
710.707	76.95
710.891	77.12
711.076	77.32
711.26	77.69
711.445	77.8
711.629	77.91
711.813	78.36
711.998	78.93
712.182	79
712.366	79.74
712.551	80.18
712.735	80.61
712.919	80.69
713.103	81.33
713.288	80.9
713.472	80.81
713.656	81.52
713.84	81.65
714.024	81.62
714.208	82.1
714.393	83.03
714.577	82.92
714.761	83.18
714.945	83.45
715.129	83.55
715.313	83.07
715.497	82.89
715.681	83.67
715.865	83.87
716.049	83.96
716.233	84.4
716.417	84.48
716.601	84.15
716.785	84.33
716.968	84.76
717.152	84.89
717.336	85.55
717.52	85.77
717.704	86.05
717.888	86.49
718.071	86.6
718.255	86.44
718.439	86.27
718.622	86.42
718.806	86.46
718.99	85.99
719.174	85.83
719.357	85.89
719.541	85.77
719.724	85.74
719.908	86.98
720.092	87.66
720.275	88.18
720.459	88.48
720.642	88.32
720.826	87.89
721.009	87.38
721.193	86.88
721.376	86.8
721.559	87.61
721.743	87.9
721.926	88.8
722.11	89.64
722.293	89.83
722.476	89.62
722.66	89.48
722.843	89.15
723.026	88.55
723.21	88.7
723.393	89.27
723.576	89.29
723.759	88.96
723.942	89.5
724.126	89.23
724.309	88.73
724.492	88.7
724.675	89.08
724.858	89.26
725.041	89.96
725.224	90.02
725.407	90.69
725.59	91.42
725.774	91.32
725.957	90.89
726.14	90.73
726.322	90.64
726.505	90.2
726.688	90.89
726.871	91.24
727.054	91.62
727.237	91.36
727.42	91.64
727.603	91.8
727.786	92.05
727.968	92.54
728.151	92.41
728.334	92.4
728.517	92.14
728.699	92.67
728.882	91.86
729.065	92.71
729.248	93.03
729.43	93.32
729.613	93.58
729.796	94.49
729.978	93.96
730.161	93.69
730.343	93.39
730.526	93.69
730.708	92.74
730.891	93.06
731.073	92.7
731.256	92.49
731.438	91.86
731.621	93.13
731.803	93.03
731.986	93.78
732.168	93.39
732.35	93.59
732.533	93.37
732.715	93.39
732.898	93.5
733.08	93.77
733.262	93.66
733.444	92.95
733.627	93.6
733.809	93.96
733.991	94.93
734.173	94.39
734.355	94.86
734.538	94.71
734.72	94.08
734.902	93.68
735.084	94.63
735.266	94.63
735.448	94.72
735.63	94.94
735.812	95.29
735.994	96.05
736.176	96.59
736.358	95.65
736.54	96.86
736.722	96.15
736.904	94.77
737.086	94.52
737.268	95.89
737.45	95.14
737.632	95.43
737.814	95.04
737.995	95.05
738.177	94.75
738.359	94.36
738.541	95.15
738.723	95.9
738.904	96.56
739.086	97.07
739.268	97.13
739.449	97.27
739.631	97.04
739.813	97.07
739.994	96.78
740.176	97.57
740.358	96.53
740.539	97.78
740.721	97.75
740.902	98.19
741.084	97.57
741.265	97.62
741.447	97.47
741.628	97.45
741.81	96.17
741.991	96.93
742.172	97.96
742.354	97.82
742.535	97.88
742.717	98.87
742.898	98.94
743.079	99.13
743.261	99.07
743.442	98.48
743.623	99.01
743.804	98.83
743.986	99.47
744.167	97.63
744.348	97.27
744.529	97.15
744.71	95.48
744.891	94.41
745.073	94.85
745.254	94.92
745.435	94.23
745.616	95.06
745.797	95.49
745.978	95.45
746.159	96.03
746.34	95.47
746.521	97.36
746.702	95.64
746.883	96.81
747.064	96.46
747.245	97.38
747.426	96.27
747.606	97.38
747.787	97.05
747.968	97.84
748.149	97.15
748.33	97.05
748.51	97.49
748.691	97.01
748.872	96.59
749.053	96.63
749.233	96.01
749.414	95.82
749.595	95.07
749.775	94.15
749.956	93.89
750.137	93.43
750.317	93.88
750.498	97.14
750.678	97.83
750.859	98.02
751.04	99
751.22	97.65
751.4	95.7
751.581	94.74
751.761	96.39
751.942	96.68
752.122	96.32
752.303	95.04
752.483	95.36
752.663	93.97
752.844	92.8
753.024	95.03
753.204	96.34
753.385	96.14
753.565	96.33
753.745	97.63
753.925	95.28
754.106	95.27
754.286	96.17
754.466	96.07
754.646	95.7
754.826	95.8
755.006	93.21
755.187	92.92
755.367	93.13
755.547	93.81
755.727	95.36
755.907	97.54
756.087	98.65
756.267	98.12
756.447	96.63
756.627	95.04
756.807	95.91
756.987	94.65
757.167	95.24
757.346	95.74
757.526	95.14
757.706	94.58
757.886	94.72
758.066	95.76
758.246	96.8
758.425	96.34
758.605	95.62
758.785	96.26
758.965	95.17
759.144	92.73
759.324	94.42
759.504	94.77
759.683	93.86
759.863	92.35
760.043	91.8
760.222	91.67
760.402	91.14
760.581	91.23
760.761	92.76
760.94	92.45
761.12	93.77
761.299	93.87
761.479	93.69
761.658	92.46
761.838	94.24
762.017	93.78
762.197	93.29
762.376	92.7
762.555	93.74
762.735	93
762.914	91.48
763.093	92.65
763.273	91.82
763.452	91.39
763.631	91.52
763.81	91.13
763.99	91.06
764.169	92.68
764.348	91.3
764.527	90.78
764.706	92.86
764.885	94.25
765.064	92.43
765.243	93.48
765.423	95.2
765.602	93.2
765.781	89.16
765.96	88.93
766.139	87.57
766.318	87.39
766.497	87.09
766.676	88.37
766.854	90.38
767.033	92.02
767.212	90.49
767.391	91.2
767.57	93.18
767.749	92.85
767.928	93.94
768.106	94.72
768.285	92.45
768.464	90.61
768.643	90.04
768.821	88.03
769	89.26
769.179	89.15
769.357	89.09
769.536	87.95
769.715	88.16
769.893	88.4
770.072	88.74
770.25	90.2
770.429	90.87
770.607	91.05
770.786	88.46
770.964	90.85
771.143	89.61
771.321	90.63
771.5	90.25
771.678	89.44
771.857	87.36
772.035	87.66
772.213	87.03
772.392	85.72
772.57	89.53
772.748	90.94
772.927	89.57
773.105	89.2
773.283	90.51
773.461	87.6
773.64	90.02
773.818	91.06
773.996	93.32
774.174	91.9
774.352	90.83
774.531	86.24
774.709	88.05
774.887	85.86
775.065	84.73
775.243	85.37
775.421	86.81
775.599	85.91
775.777	85.24
775.955	85.47
776.133	85
776.311	84.6
776.489	82.61
776.667	82.39
776.844	83.39
777.022	82.61
777.2	81.47
777.378	81.92
777.556	81.97
777.734	85.82
777.911	91.76
778.089	92.44
778.267	90.87
778.445	90.21
778.622	87.49
778.8	82.66
778.978	84.25
779.155	86.4
779.333	87.37
779.511	86.88
779.688	91.62
779.866	87.03
780.043	82.89
780.221	83.14
780.398	79.8
780.576	78.39
780.753	83.15
780.931	85.07
781.108	84.13
781.286	88.48
781.463	82.79
781.64	78.07
781.818	80.4
781.995	80.75
782.172	81.71
782.35	84.09
782.527	91.07
782.704	89.11
782.882	91.24
783.059	88.82
783.236	90.26
783.413	87.99
783.59	87.59
783.768	83.98
783.945	85.25
784.122	86.15
784.299	85.24
784.476	84.44
784.653	85.82
784.83	82.44
785.007	77.17
785.184	78.7
785.361	79.13
785.538	84.14
785.715	86.76
785.892	90.22
786.069	89.23
786.246	94.08
786.423	90.35
786.6	92.21
786.776	93.65
786.953	92.41
787.13	90.67
787.307	87.58
787.484	83.57
787.66	81.36
787.837	80.92
788.014	77.76
788.191	77.87
788.367	74.75
788.544	77.07
788.721	75.33
788.897	78.64
789.074	83.27
789.25	84.32
789.427	83.1
789.603	85.57
789.78	85.16
789.956	78.79
790.133	80.4
790.309	82.57
790.486	84.2
790.662	81.23
790.839	83.48
791.015	82.68
791.192	77.69
791.368	77.16
791.544	77.98
791.721	77.88
791.897	77
792.073	77.65
792.249	68.57
792.426	67.99
792.602	70.28
792.778	72.26
792.954	71.42
793.13	79.11
793.307	73.75
793.483	65.66
793.659	62.52
793.835	64.2
794.011	62.98
794.187	66.51
794.363	67.66
794.539	77.43
794.715	77.06
794.891	75.72
795.067	75.72
795.243	84.17
795.419	78.78
795.595	76.24
795.771	76.41
795.947	76.98
796.122	71.44
796.298	74.24
796.474	77.1
796.65	80.24
796.826	79.77
797.001	81.43
797.177	73.64
797.353	78.74
797.529	76.93
797.704	76.63
797.88	74.79
798.056	77.54
798.231	70.75
798.407	69.7
798.582	73.76
798.758	81.35
798.934	86.4
799.109	87.28
799.285	86.83
799.46	87.54
799.636	85.55
799.811	85.18
799.986	87.54
800.162	92.3
800.337	92.09
800.513	85.9
800.688	82.72
800.863	89.73
801.039	79.32
801.214	70.55
801.389	77.81
801.565	78.38
801.74	58.22
801.915	67.74
802.09	72.98
802.265	74.01
802.441	67.4
802.616	75.05
802.791	73.59
802.966	72.51
803.141	65.93
803.316	69.8
803.491	77.84
803.666	81.05
803.841	75.48
804.016	72.98
804.191	72.02
804.366	64.09
804.541	61.72
804.716	64.12
804.891	64.68
805.066	71.7
805.241	68.36
805.416	62.09
805.591	64.41
805.765	70.88
805.94	68.08
806.115	69.61
806.29	66.68
806.464	63.24
806.639	54.67
806.814	48.11
806.989	44.15
807.163	62.39
807.338	71.19
807.512	69.68
807.687	61.07
807.862	70.04
808.036	69.53
808.211	62.19
808.385	69.21
808.56	90.8
808.734	87.72
808.909	82.43
809.083	87.97
809.258	95.73
809.432	80.99
809.606	74.62
809.781	71.12
809.955	78.08
810.13	70.56
810.304	65.07
810.478	59.69
810.652	62.83
810.827	61.1
811.001	54.36
811.175	63.25
811.349	72.46
811.524	65.35
811.698	49.7
811.872	52.29
812.046	60.64
812.22	63.68
812.394	61
812.568	70.22
812.742	81.72
812.916	71.32
813.09	59.11
813.264	57.61
813.438	57.18
813.612	44.75
813.786	42.31
813.96	60.03
814.134	67.92
814.308	79.6
814.482	93.57
814.656	90.36
814.83	86.26
815.003	85.65
815.177	70.32
815.351	59.13
815.525	60.72
815.698	49.58
815.872	44.58
816.046	36.48
816.219	46.32
816.393	54.47
816.567	57.28
816.74	58.01
816.914	65.02
817.088	67.61
817.261	66.04
817.435	61.36
817.608	64.11
817.782	70.45
817.955	65.01
818.129	56.22
818.302	65.85
818.475	74.24
818.649	70.51
818.822	54.27
818.996	70.29
819.169	62.68
819.342	42.75
819.516	59.79
819.689	80.84
819.862	65.83
820.035	56.82
820.209	60.56
820.382	50.81
820.555	51.77
820.728	45.54
820.901	48.51
821.075	57.47
821.248	65.18
821.421	61.72
821.594	60.76
821.767	84.9
821.94	86.97
822.113	60.2
822.286	50.06
822.459	66.88
822.632	67.06
822.805	58.35
822.978	73.66
823.151	78.61
823.324	66.07
823.496	37.14
823.669	38.55
823.842	39.54
824.015	32
824.188	15.37
824.361	15.25
824.533	14.58
824.706	25.64
824.879	32.1
825.051	58.19
825.224	51.06
825.397	45.45
825.569	28.06
825.742	44.16
825.915	54.23
826.087	72.31
826.26	49.8
826.432	52.14
826.605	45.3
826.777	11.9
826.95	19.73
827.122	29.45
827.295	39.3
827.467	53.73
827.64	45.19
827.812	23.34
827.984	29.93
828.157	25.15
828.329	-12.68
828.501	6.64
828.674	47.35
828.846	31.33
829.018	48.4
829.19	38.05
829.363	67
829.535	61.91
829.707	74.86
829.879	37.61
830.051	36.01
830.223	17.68
830.395	-11.47
830.568	-19.25
830.74	-15.57
830.912	23.1
831.084	-12.76
831.256	-3.04
831.428	-12.1
831.6	-12.94
831.772	-72.78
831.943	-56.79
832.115	-34.8
832.287	6.14
832.459	13.09
832.631	31.42
832.803	67.59
832.975	90.84
833.146	62.29
833.318	61.45
833.49	82.08
833.662	41.23
833.833	12.33
834.005	10.53
834.177	8.29
834.348	-7.97
834.52	-29.88
834.692	-6.91
834.863	-35.78
835.035	-28.21
835.206	-69.41
835.378	-18.1
835.549	-26.78
835.721	10.29
835.892	4.04
836.064	9.69
836.235	3.46
836.407	15.78
836.578	-10.41
836.749	-1.51
836.921	-36.1
837.092	-38.48
837.264	-50.06
837.435	-62.48
837.606	-12.66
837.777	29.08
837.949	39.02
838.12	47.3
838.291	61.21
838.462	52.65
838.633	31.77
838.805	25.89
838.976	24.33
839.147	-6.33
839.318	-14.9
839.489	-49.74
839.66	-39.24
839.831	17.97
840.002	11.42
840.173	1.27
840.344	61.23
840.515	114.44
840.686	17.27
840.857	45.7
841.028	26.81
841.199	5.55
841.369	-27.21
841.54	-13.41
841.711	-2.53
841.882	11.16
842.053	2.64
842.223	-14.42
842.394	-15.36
842.565	-10.82
842.736	16.46
842.906	31.95
843.077	48.66
843.248	87.78
843.418	80.05
843.589	41.62
843.759	111.63
843.93	100.13
844.101	40.82
844.271	55.34
844.442	67.84
844.612	62.81
844.783	42.56
844.953	6.2
845.123	-1.96
845.294	-4.23
845.464	-154.1
845.635	-28.2
845.805	75.74
845.975	42.62
846.146	-3.92
846.316	-23.32
846.486	1.3
846.656	24.72
846.827	18.22
846.997	30.62
847.167	48.85
847.337	12.04
847.507	-22.37
847.677	-2.81
847.848	33.53
848.018	42.83
848.188	54.46
848.358	38.58
848.528	8.07
848.698	-18.02
848.868	-106.38
849.038	-217.49
849.208	-78.9
849.378	-17.36
849.548	-26.89
849.718	-12.29
849.887	11.08
850.057	-11.85
850.227	-55.12
850.397	-81.44
850.567	-195.14
850.737	-386.2
850.906	-1162.81
851.076	-780.66
851.246	-351.96
851.415	-29.66
851.585	-72.07
851.755	-103.7
851.924	-47.78
852.094	-85.94
852.264	-219.08
852.433	-1102.16
852.603	-215.41
852.772	-144.45
852.942	-69.96
853.111	-38.05
853.281	25.26
853.45	61.13
853.62	-4.24
853.789	-5.47
853.959	50.33
854.128	-18.55
854.297	-71.66
854.467	-95.88
854.636	-85.92
854.805	-54.43
854.975	-84.3
855.144	-134.86
855.313	100.52
855.482	-282.66
855.652	-119.45
855.821	-47.17
855.99	69.57
856.159	38.94
856.328	45.69
856.497	12.46
856.667	15.48
856.836	-14.77
857.005	-36
857.174	-58.51
857.343	-47.04
857.512	-20.59
857.681	-51.95
857.85	-132.02
858.019	-55.19
858.188	-43.53
858.356	-53.74
858.525	-100.5
858.694	-63.61
858.863	-173.54
859.032	-126.69
859.201	-252.58
859.369	-199.04
859.538	-84.95
859.707	-72.5
859.876	-111.24
860.044	-39.56
860.213	31.69
860.382	17.19
860.55	34.9
860.719	56.68
860.888	52.17
861.056	-9.79
861.225	-43.19
861.393	1.93
861.562	25.99
861.73	-40.48
861.899	51.7
862.067	350.86
862.236	-22.1
862.404	-178.17
862.572	-114.05
862.741	-42.17
862.909	-48.64
863.078	-150.04
863.246	-107.26
863.414	-101.54
863.582	-89.87
863.751	-111.65
863.919	-77
864.087	-33.15
864.255	16.04
864.424	-165.04
864.592	8.46
864.76	-28.88
864.928	2.2
865.096	-164.41
865.264	-161.79
865.432	-1780.11
865.6	-105.12
865.768	-123.51
865.936	-135.7
866.104	-96.27
866.272	-102.27
866.44	-301.28
866.608	578.94
866.776	262.47
866.944	2707.56
867.112	-427.22
867.28	-179.52
867.448	-71.71
867.615	-19.29
867.783	8.53
867.951	-33.75
868.119	-10.51
868.286	-3.75
868.454	-83.23
868.622	-140.39
868.789	-117.39
868.957	-2980.36
869.125	-2376.97
869.292	-170.33
869.46	-173.52
869.627	2.13
869.795	-17.39
869.963	7.72
870.13	25.7
870.298	37.54
870.465	-57.79
870.632	-74.67
870.8	-55.42
870.967	-79.79
871.135	-141.13
871.302	-95.57
871.469	-81.69
871.637	-55.6
871.804	-58.58
871.971	-101.43
872.139	-312.67
872.306	18.71
872.473	-25.56
872.64	-221.57
872.807	-42.94
872.975	29.23
873.142	-219.36
873.309	2035.81
873.476	17.3
873.643	94.81
873.81	63.26
873.977	92.2
874.144	90.37
874.311	-18.41
874.478	-138.86
874.645	-173.4
874.812	-105.8
874.979	-104.5
875.146	-113.23
875.313	-112.84
875.48	-23.28
875.647	-52.86
875.813	-86.82
875.98	-37.35
876.147	-46.57
876.314	-146.24
876.481	1128.31
876.647	-1308.15
876.814	634.33
876.981	-99.33
877.147	-36.19
877.314	14.06
877.481	65.25
877.647	70.07
877.814	16.66
877.98	-0.04
878.147	40.19
878.314	70.74
878.48	61.33
878.647	64.54
878.813	95.36
878.979	85.82
879.146	27.25
879.312	21.75
879.479	-5.02
879.645	-89.41
879.811	-254.65
879.978	-680.34
880.144	-159.34
880.31	-65.56
880.477	-242.63
880.643	-243.05
880.809	-65.38
880.975	-26.11
881.142	-431.14
881.308	-47.51
881.474	-27.14
881.64	-30.34
881.806	-166.42
881.972	-97.32
882.138	-115.57
882.304	-106.41
882.47	-255.5
882.636	-809.22
882.802	-233.2
882.968	-64.32
883.134	-50.99
883.3	-35.08
883.466	12.57
883.632	48.11
883.798	22.22
883.964	12.17
884.129	25.56
884.295	58.08
884.461	-29.39
884.627	-50.78
884.793	-65.18
884.958	-43.51
885.124	-175.5
885.29	-246.57
885.455	-400.61
885.621	-82.77
885.787	-158.16
885.952	-50.54
886.118	-43.1
886.283	-31.08
886.449	-154.62
886.614	-124.33
886.78	-307.02
886.945	1264.34
887.111	-619.22
887.276	-499.57
887.442	-1077.5
887.607	-338.33
887.773	-257.09
887.938	-223.3
888.103	-255.5
888.269	-114.83
888.434	-292.03
888.599	-72.57
888.764	5.22
888.93	27.21
889.095	-17.6
889.26	-41.25
889.425	-4.39
889.59	-19.21
889.756	-76.12
889.921	-47.91
890.086	-20.81
890.251	-67.04
890.416	-262.99
890.581	-1868.15
890.746	229.37
890.911	519.9
891.076	187.83
891.241	-477.05
891.406	3.85
891.571	-111.67
891.736	-309.75
891.901	-825.88
892.065	679.4
892.23	167.6
892.395	230.77
892.56	265.39
892.725	-9.57
892.889	79.88
893.054	-25.63
893.219	37.59
893.384	25.61
893.548	-32.34
893.713	-63.51
893.878	-44.04
