Data from Ofra_PS_T2_2A_8HS21_Reflection_1.txt Node
Date: Wed Jul 21 17:19:17 EDT 2021
User: Adam
Spectrometer: FLMT01687
Trigger mode: 0
Integration Time (sec): 1.100000E0
Scans to average: 2
Electric dark correction enabled: true
Nonlinearity correction enabled: false
Boxcar width: 2
XAxis mode: Wavelengths
Number of Pixels in Spectrum: 3648
>>>>>Begin Spectral Data<<<<<
179.494	709.4
179.716	774.59
179.937	713.66
180.158	701.94
180.38	1169.84
180.601	286.6
180.823	56.71
181.044	-95.38
181.265	-79.6
181.486	-24.2
181.708	114.95
181.929	881.12
182.15	-371.48
182.372	38.6
182.593	5.31
182.814	43.42
183.035	86.13
183.257	54.03
183.478	-15.27
183.699	64.92
183.92	10.49
184.141	-0.74
184.363	-48.89
184.584	16.14
184.805	3.41
185.026	55.69
185.247	57.42
185.468	33.09
185.689	35.17
185.91	26.84
186.132	17.12
186.353	25.32
186.574	78.35
186.795	42.69
187.016	-6.8
187.237	-52.41
187.458	-127.78
187.679	-107.54
187.9	-79.93
188.121	-51.14
188.342	-1.18
188.563	53.54
188.784	83.71
189.005	74.1
189.226	85.33
189.447	24.48
189.667	-203.76
189.888	-471.31
190.109	-1211.36
190.33	-559.19
190.551	-849.34
190.772	-170.64
190.993	-166.05
191.214	-183.35
191.434	-174.2
191.655	-67.7
191.876	-161.41
192.097	-189.82
192.318	-243.39
192.538	-322.8
192.759	-263.84
192.98	-139.19
193.201	-54.7
193.421	-20.38
193.642	6.5
193.863	19.19
194.083	-8.76
194.304	-20.77
194.525	-31.31
194.745	-31.5
194.966	-65.81
195.187	-47.69
195.407	-62.36
195.628	-77.51
195.848	-99.35
196.069	-62.61
196.29	0.44
196.51	-22.33
196.731	-38.45
196.951	-82.55
197.172	-122.83
197.392	-193.27
197.613	-194.55
197.833	-214.15
198.054	-154.13
198.274	-91.68
198.495	-92.74
198.715	-67.08
198.936	-93.18
199.156	-82.72
199.377	-200.22
199.597	-178.14
199.817	-186.74
200.038	-101.78
200.258	-187.52
200.479	-81.6
200.699	-124.51
200.919	-40.95
201.14	-69.6
201.36	-51.06
201.58	-17.92
201.801	19.67
202.021	-19.54
202.241	-17.23
202.461	-31.6
202.682	-132.75
202.902	-187.07
203.122	-108.24
203.342	-77.83
203.563	-22.51
203.783	4.54
204.003	-32.94
204.223	-46.67
204.443	9.75
204.663	-12.36
204.884	16.1
205.104	58.11
205.324	62.87
205.544	44.69
205.764	54.38
205.984	53.01
206.204	33.43
206.424	34.58
206.644	-1.58
206.864	4.78
207.084	-64.5
207.304	-53.55
207.525	-234.3
207.745	-124.91
207.964	-51.89
208.184	-86.04
208.404	-98.32
208.624	-86.01
208.844	-65.33
209.064	-402.25
209.284	-426.62
209.504	-196.95
209.724	-49.7
209.944	-54.46
210.164	0.46
210.384	12.31
210.604	-11.63
210.823	-60.87
211.043	-69.91
211.263	-63.01
211.483	-52.04
211.703	-101.86
211.922	-73.4
212.142	-5.1
212.362	11.18
212.582	-3.53
212.801	17.82
213.021	1.51
213.241	-1.58
213.461	-44.54
213.68	-60.43
213.9	-41.55
214.12	-42.17
214.339	-127.27
214.559	-123.08
214.779	-64.7
214.998	-67.52
215.218	-114.63
215.438	-51.15
215.657	-45.45
215.877	-33.25
216.096	-2.19
216.316	9.1
216.535	-20.61
216.755	-16.58
216.974	-106.64
217.194	-157.42
217.413	-146.1
217.633	-110.28
217.852	-192.85
218.072	-73.56
218.291	-46.83
218.511	2.92
218.73	-41.41
218.95	-32.44
219.169	-40.36
219.389	-78.86
219.608	-83.71
219.827	-65.6
220.047	-48.71
220.266	-54.39
220.485	-56.43
220.705	-31.51
220.924	-48.95
221.143	-12.95
221.363	-33.06
221.582	-12.58
221.801	-9.59
222.021	7.96
222.24	-51.08
222.459	-4.6
222.678	-22.56
222.897	-74.96
223.117	-93.99
223.336	-46.48
223.555	3.26
223.774	18.2
223.993	38.18
224.213	64.48
224.432	6.4
224.651	28.55
224.87	0.23
225.089	13.6
225.308	4.04
225.527	37.18
225.746	22.54
225.965	12.5
226.184	-38.49
226.404	1.37
226.623	-38.25
226.842	-31.25
227.061	8.51
227.28	20.14
227.499	6.6
227.718	35.28
227.936	37.28
228.155	37.47
228.374	39.79
228.593	32.18
228.812	31.2
229.031	9.42
229.25	-34.54
229.469	-32.62
229.688	-27.93
229.907	-7.98
230.125	4.17
230.344	14.37
230.563	7.39
230.782	12.84
231.001	-82.03
231.22	-64.13
231.438	-34.45
231.657	-23.87
231.876	-45.68
232.095	17.76
232.313	30.66
232.532	19.37
232.751	-2.76
232.969	1.51
233.188	-54.05
233.407	-30.32
233.625	-21.72
233.844	-21.1
234.063	7.17
234.281	31.94
234.5	14.74
234.719	17.99
234.937	29.74
235.156	16.78
235.374	1.42
235.593	-1.83
235.811	-6.01
236.03	-25.06
236.249	-72.95
236.467	-65.55
236.686	-19.16
236.904	-2.65
237.123	-23.24
237.341	-25.48
237.559	-17.22
237.778	-39.01
237.996	-79.45
238.215	-32.64
238.433	4.89
238.652	4.4
238.87	-17.93
239.088	7.63
239.307	8.21
239.525	-24.48
239.743	-56.42
239.962	-33.6
240.18	-83.26
240.398	-134.6
240.617	-115.54
240.835	-78.48
241.053	-80.05
241.271	12.09
241.49	25.47
241.708	14.33
241.926	-4.97
242.144	-9.32
242.363	-97.78
242.581	-119.76
242.799	-83.03
243.017	-45.5
243.235	-52.29
243.453	-26.24
243.672	-16.52
243.89	-15.39
244.108	-35.89
244.326	-19.84
244.544	-22.52
244.762	-28.55
244.98	-30.13
245.198	-16.38
245.416	-40.69
245.634	-34.59
245.852	-43.9
246.07	-58.07
246.288	-58.44
246.506	-79.12
246.724	-42.69
246.942	-25.3
247.16	15.92
247.378	21.15
247.596	43.17
247.814	14.79
248.032	-20.35
248.25	-21.17
248.468	-2.39
248.685	5.66
248.903	41.57
249.121	59.17
249.339	26.55
249.557	6
249.775	6.03
249.992	-84.06
250.21	-87.91
250.428	-45.59
250.646	-79.91
250.863	-96.67
251.081	-50.53
251.299	-41.01
251.517	-66.33
251.734	-24.48
251.952	-25.16
252.17	-15.66
252.387	-9.74
252.605	-17.23
252.823	-16.74
253.04	-1.78
253.258	13.6
253.475	-1.98
253.693	34.05
253.911	45.33
254.128	39.93
254.346	20.31
254.563	13.23
254.781	-20.62
254.998	-54.3
255.216	-61.81
255.433	-33.42
255.651	10.93
255.868	35.87
256.086	44.98
256.303	34.53
256.521	22.57
256.738	3.38
256.956	-42.46
257.173	-56.82
257.39	-75.25
257.608	-88.43
257.825	-21.82
258.043	31.46
258.26	32
258.477	87.85
258.695	73.75
258.912	-8.97
259.129	-10.56
259.346	-48.03
259.564	-115.93
259.781	-141.03
259.998	-54.11
260.216	-25
260.433	23.59
260.65	32.16
260.867	47.94
261.084	21.26
261.302	-3.56
261.519	-25.4
261.736	-52.87
261.953	-77.07
262.17	-41.14
262.387	-65.1
262.604	-84.29
262.822	-70.35
263.039	-39.19
263.256	-81.19
263.473	-45.83
263.69	-19.58
263.907	17.46
264.124	21.52
264.341	25.47
264.558	9.91
264.775	16.72
264.992	-5.88
265.209	-8.44
265.426	13.37
265.643	23.83
265.86	39.26
266.077	58.42
266.294	46.95
266.51	12.27
266.727	-9.41
266.944	-11.66
267.161	-38.23
267.378	-21.53
267.595	15.66
267.812	-11.15
268.028	-41.45
268.245	-15.5
268.462	-34.91
268.679	-43.6
268.896	24.55
269.112	31.11
269.329	25.53
269.546	31.3
269.763	14.51
269.979	-3.38
270.196	-4.59
270.413	-46.27
270.629	-62.47
270.846	-66.83
271.063	-56.17
271.279	-67.82
271.496	-49.38
271.712	-21.63
271.929	-5.13
272.146	-36.45
272.362	-31.61
272.579	7.76
272.795	21.48
273.012	27.53
273.228	17.68
273.445	-12.7
273.661	-43.91
273.878	-93.43
274.094	-86.23
274.311	-96.53
274.527	-30.25
274.744	-30.42
274.96	-15.1
275.177	-7.42
275.393	13.65
275.609	11.2
275.826	47.02
276.042	51.41
276.259	43.57
276.475	48.12
276.691	38.73
276.908	-4.52
277.124	3.52
277.34	4.08
277.557	-20.38
277.773	-12.32
277.989	-7.07
278.205	-21.05
278.422	-8.8
278.638	-3.04
278.854	6.35
279.07	9.96
279.286	6.6
279.503	-26.25
279.719	-31.82
279.935	-51.24
280.151	-67.52
280.367	-44.16
280.583	-55.74
280.799	-54.19
281.016	-67.91
281.232	-22.15
281.448	-9.55
281.664	18.93
281.88	19.74
282.096	35.01
282.312	57.17
282.528	54.75
282.744	48
282.96	43.29
283.176	14.09
283.392	-0.62
283.608	-7.26
283.824	-2.89
284.04	-1.47
284.256	1.92
284.471	-13.26
284.687	-16.48
284.903	8.35
285.119	44.05
285.335	21.47
285.551	30.55
285.767	3.52
285.982	-28.14
286.198	-86.42
286.414	-7.67
286.63	-2.98
286.846	35.15
287.061	16.76
287.277	52.67
287.493	18.2
287.709	33.05
287.924	3.19
288.14	34.89
288.356	21.37
288.571	45.25
288.787	14.24
289.003	19.65
289.218	-1.17
289.434	-47.3
289.65	-42.33
289.865	-48.69
290.081	-38.23
290.296	-24.46
290.512	-10.13
290.727	-52.26
290.943	-34.38
291.159	-39.14
291.374	-30.89
291.59	-36.64
291.805	-18.07
292.021	-8.35
292.236	-11.16
292.451	9.19
292.667	14.47
292.882	21.68
293.098	13.16
293.313	2.34
293.529	-32.87
293.744	-38.51
293.959	-48.88
294.175	-38.25
294.39	-3.44
294.605	9.74
294.821	34.09
295.036	51.71
295.251	51.36
295.467	45.3
295.682	26.38
295.897	-42.93
296.112	-68.09
296.328	-62.81
296.543	-112.93
296.758	-90.92
296.973	-26.17
297.188	18.8
297.404	-3.65
297.619	-8.62
297.834	-20.57
298.049	-49.08
298.264	-87.57
298.479	-21.2
298.694	-3.31
298.909	18.9
299.125	24.71
299.34	41.53
299.555	6.85
299.77	9.5
299.985	-43.68
300.2	-98.07
300.415	-132.23
300.63	-86.24
300.845	-92.5
301.06	-83.89
301.275	-33.4
301.49	-4.69
301.704	-24.47
301.919	-36.37
302.134	-43.57
302.349	-50.9
302.564	-132
302.779	-170.14
302.994	-152.78
303.209	-88.64
303.423	-66.94
303.638	15.87
303.853	-10.78
304.068	-17.96
304.283	-26.61
304.497	-24.75
304.712	-33.22
304.927	-4.94
305.142	-8.52
305.356	2.49
305.571	-4.36
305.786	-19.6
306	-30.82
306.215	-25.06
306.43	-63.03
306.644	-53.58
306.859	17.22
307.074	11.14
307.288	-9.9
307.503	21.47
307.717	2.48
307.932	-24.65
308.147	-31.7
308.361	-10.1
308.576	-24.92
308.79	-64.61
309.005	-55.41
309.219	-40.19
309.434	-59.62
309.648	-61.79
309.863	-15.88
310.077	-22.36
310.292	-23.78
310.506	-26.43
310.72	-2.04
310.935	-18.13
311.149	-7.56
311.364	2.8
311.578	24.21
311.792	8.94
312.007	21.01
312.221	-3.52
312.435	2.64
312.649	-7.19
312.864	44.06
313.078	49.27
313.292	132.84
313.507	117.19
313.721	142.1
313.935	45.38
314.149	37.78
314.363	16.17
314.578	20.24
314.792	23.63
315.006	3.32
315.22	17.92
315.434	29
315.648	30.69
315.862	29.01
316.077	41.78
316.291	20.03
316.505	5.35
316.719	2.95
316.933	-2.75
317.147	-4.06
317.361	-51.59
317.575	-57.8
317.789	-95.3
318.003	-162.39
318.217	-128.92
318.431	-17.12
318.645	30.85
318.859	25.37
319.073	50.65
319.287	35.77
319.5	3.89
319.714	-53.02
319.928	-80
320.142	-96.38
320.356	-51.22
320.57	-26.49
320.784	-36.35
320.997	-35.73
321.211	-40.44
321.425	-86.54
321.639	-103.74
321.853	-32.99
322.066	-12.76
322.28	-24.75
322.494	-3.6
322.707	17.87
322.921	3.16
323.135	0.8
323.349	15.98
323.562	-14.04
323.776	-24.15
323.989	-22.28
324.203	-46.15
324.417	-57.43
324.63	-51.17
324.844	-55.62
325.057	-67.81
325.271	-29.46
325.485	-5
325.698	14.5
325.912	31.94
326.125	18.18
326.339	6.52
326.552	-6.73
326.766	-17.18
326.979	-16.44
327.193	27.84
327.406	2.61
327.619	1.18
327.833	22.08
328.046	7.58
328.26	-23.68
328.473	5.44
328.686	-17.88
328.9	-20.81
329.113	-5.99
329.326	-29.53
329.54	-3.65
329.753	10.73
329.966	-13.32
330.179	-4.33
330.393	6.06
330.606	11.61
330.819	23.08
331.032	35.86
331.246	27.45
331.459	53.36
331.672	38.72
331.885	25.64
332.098	3.05
332.311	-2.27
332.525	-55.86
332.738	-15.18
332.951	11.79
333.164	34.6
333.377	64.02
333.59	73.51
333.803	51.91
334.016	47.88
334.229	25.74
334.442	9.54
334.655	17.98
334.868	39.26
335.081	18.28
335.294	23.62
335.507	11.55
335.72	11.11
335.933	-18.26
336.146	-9.88
336.359	-5.99
336.572	-37.41
336.785	-74.93
336.997	-58.92
337.21	-35.44
337.423	-29.62
337.636	-16.69
337.849	10.04
338.062	10.78
338.274	6.5
338.487	-15.94
338.7	-7.84
338.913	-63.56
339.125	-91.64
339.338	-142.14
339.551	-103.18
339.763	-76.16
339.976	-33.91
340.189	3.41
340.402	12.74
340.614	-6.9
340.827	-12.45
341.039	-27.69
341.252	-29.22
341.465	-13
341.677	-5.33
341.89	-33.55
342.102	2.27
342.315	-13.82
342.527	-43.41
342.74	-36.33
342.952	-15.9
343.165	-20.61
343.377	-4.49
343.59	1.71
343.802	24.03
344.015	36.23
344.227	48.27
344.44	43.99
344.652	39.19
344.864	18.25
345.077	27.85
345.289	22.53
345.502	24.67
345.714	19.05
345.926	21.3
346.139	0.8
346.351	5.96
346.563	20.02
346.775	30.92
346.988	23.26
347.2	30.84
347.412	-10.44
347.624	-38.05
347.837	-72.78
348.049	-60.36
348.261	-37.71
348.473	-34.64
348.685	-44.33
348.897	-29.85
349.11	-44.19
349.322	-69.39
349.534	-33.49
349.746	-14.22
349.958	-11.77
350.17	-20.09
350.382	5.21
350.594	6.26
350.806	5.11
351.018	3.95
351.23	12.32
351.442	-48.56
351.654	-62.94
351.866	-55.33
352.078	-36.68
352.29	-11.98
352.502	21.68
352.714	28.06
352.926	16.75
353.138	15.42
353.35	-1.33
353.561	-14.26
353.773	-32.98
353.985	-10.86
354.197	-28.03
354.409	-29.93
354.621	-28.1
354.832	-3.56
355.044	-22.72
355.256	-14.89
355.468	6.39
355.679	0.26
355.891	-0.57
356.103	-1.88
356.314	-3.92
356.526	-12.85
356.738	-0.17
356.949	-13.8
357.161	1.61
357.373	-2.24
357.584	-9.85
357.796	-11.04
358.008	-18.19
358.219	-7.29
358.431	-8.35
358.642	0.29
358.854	4.38
359.065	-4.1
359.277	-37.83
359.488	-41.89
359.7	-78.85
359.911	-83.28
360.123	-60.98
360.334	-62.93
360.546	-79.19
360.757	-49.08
360.969	-39.03
361.18	-31
361.391	-14.64
361.603	-22.44
361.814	-25.14
362.025	-30.53
362.237	-34.76
362.448	-18.46
362.659	6.05
362.871	-5.2
363.082	-7.54
363.293	8.21
363.504	-25.51
363.716	-40.11
363.927	-44.52
364.138	-51.92
364.349	-75.77
364.56	-48.11
364.772	-49.59
364.983	-18.64
365.194	-20.22
365.405	-6.95
365.616	13.61
365.827	19.55
366.038	-12.2
366.25	-4.05
366.461	-40.01
366.672	-27.82
366.883	-11.97
367.094	7.53
367.305	-16.8
367.516	-2.42
367.727	-40.23
367.938	-51.64
368.149	-59.66
368.36	-26.79
368.571	-10.9
368.781	-18.43
368.992	-30.79
369.203	-39.67
369.414	-60.97
369.625	-83.91
369.836	-69.38
370.047	-89.39
370.258	-68.4
370.468	-70.41
370.679	-88.64
370.89	-74.92
371.101	-45.98
371.312	-43.86
371.522	-31.42
371.733	-10.54
371.944	-1.73
372.155	13.08
372.365	-4
372.576	-2.22
372.787	-3.09
372.997	-21.95
373.208	-28.7
373.419	4.94
373.629	-19.39
373.84	-23.4
374.05	-28.14
374.261	-21.45
374.472	-33.97
374.682	17.9
374.893	12.77
375.103	45.77
375.314	33.4
375.524	24.87
375.735	16.75
375.945	31.35
376.156	-1.66
376.366	6.08
376.577	16.45
376.787	-3.59
376.997	-3.89
377.208	3.82
377.418	-10.31
377.629	-1.41
377.839	0.71
378.049	-4
378.26	3.9
378.47	14.18
378.68	0.54
378.89	-7.1
379.101	-5.73
379.311	-28.09
379.521	-62.2
379.732	-63.9
379.942	-43.89
380.152	-68.39
380.362	-42.4
380.572	-25.89
380.783	-11.58
380.993	-8.51
381.203	9.75
381.413	27.56
381.623	24
381.833	25.17
382.043	13.79
382.253	14.82
382.463	11.46
382.674	6.24
382.884	-16.57
383.094	-14.61
383.304	-11.27
383.514	-11.04
383.724	5.24
383.934	2.38
384.144	-1.13
384.353	-13.19
384.563	-11.07
384.773	-12.96
384.983	-7.89
385.193	7.69
385.403	13.91
385.613	14.27
385.823	5.59
386.033	6.75
386.242	-3.59
386.452	-8.81
386.662	-24.51
386.872	-9.96
387.082	-14.22
387.291	-18.05
387.501	-13.93
387.711	-3.72
387.921	-12.47
388.13	-5.09
388.34	11.09
388.55	5.93
388.759	8.31
388.969	12.41
389.179	9.75
389.388	1.57
389.598	7.75
389.807	-2.98
390.017	-5.76
390.227	-4.12
390.436	-1.64
390.646	-0.35
390.855	7.06
391.065	8.23
391.274	5.15
391.484	2.74
391.693	4.35
391.903	7.47
392.112	11.68
392.322	17.61
392.531	21.32
392.74	23.09
392.95	17.93
393.159	14.49
393.369	11.6
393.578	11.48
393.787	7.73
393.997	9.43
394.206	10.61
394.415	11.5
394.625	10.91
394.834	10.58
395.043	12.06
395.252	13.95
395.462	16.27
395.671	17.32
395.88	18.49
396.089	19.6
396.298	17.79
396.508	16.85
396.717	16.76
396.926	17.97
397.135	17.17
397.344	17.18
397.553	17.72
397.762	18.71
397.971	17.77
398.181	18.18
398.39	18.24
398.599	18.16
398.808	17.28
399.017	18.25
399.226	19.57
399.435	20.59
399.644	20.32
399.853	19.91
400.062	18.94
400.27	18.41
400.479	17.63
400.688	17.09
400.897	17.42
401.106	17.63
401.315	17.41
401.524	17.49
401.733	18.06
401.941	18.71
402.15	18.83
402.359	18.36
402.568	19.09
402.777	19.43
402.985	18.99
403.194	18.91
403.403	19.09
403.612	18.45
403.82	17.96
404.029	17.72
404.238	17.61
404.446	17.82
404.655	17.83
404.864	17.74
405.072	17.69
405.281	18.12
405.489	17.79
405.698	17.64
405.906	17.62
406.115	17.72
406.324	17.39
406.532	17.47
406.741	17.61
406.949	17.66
407.158	17.51
407.366	17.5
407.574	17.27
407.783	17.35
407.991	17.19
408.2	17.23
408.408	17.05
408.617	17.01
408.825	16.57
409.033	16.67
409.242	16.84
409.45	17.08
409.658	17
409.867	17.22
410.075	16.93
410.283	16.64
410.491	16.28
410.7	16.25
410.908	16.23
411.116	16.5
411.324	16.56
411.533	16.44
411.741	16.69
411.949	16.53
412.157	16.35
412.365	16.27
412.573	16.49
412.781	16.42
412.99	16.4
413.198	16.36
413.406	16.33
413.614	16.11
413.822	15.84
414.03	15.68
414.238	15.51
414.446	15.66
414.654	15.56
414.862	15.83
415.07	16.08
415.278	16.17
415.486	15.76
415.694	15.82
415.902	15.4
416.109	15.14
416.317	15.25
416.525	15.28
416.733	15.3
416.941	15.44
417.149	15.39
417.357	15.3
417.564	15.46
417.772	15.53
417.98	15.42
418.188	15.49
418.395	15.37
418.603	15.36
418.811	15.17
419.019	15.03
419.226	15.14
419.434	15.24
419.642	14.94
419.849	15.07
420.057	15.22
420.265	15.08
420.472	14.72
420.68	14.99
420.887	14.79
421.095	14.6
421.302	14.48
421.51	14.66
421.717	14.48
421.925	14.5
422.132	14.42
422.34	14.28
422.547	14.33
422.755	14.29
422.962	14.24
423.17	14.3
423.377	14.43
423.585	14.44
423.792	14.44
423.999	14.45
424.207	14.5
424.414	14.62
424.621	14.65
424.829	14.56
425.036	14.51
425.243	14.6
425.451	14.39
425.658	14.07
425.865	14.19
426.072	14.28
426.28	14.55
426.487	14.61
426.694	14.82
426.901	14.72
427.108	14.72
427.315	14.39
427.523	14.71
427.73	14.74
427.937	14.67
428.144	14.55
428.351	14.56
428.558	14.6
428.765	14.51
428.972	14.61
429.179	14.83
429.386	15.18
429.593	14.92
429.8	14.99
430.007	15.3
430.214	15.42
430.421	15.19
430.628	15.1
430.835	14.9
431.042	14.97
431.249	14.99
431.456	15.05
431.662	15.39
431.869	15.71
432.076	15.74
432.283	15.86
432.49	15.76
432.697	15.72
432.903	15.59
433.11	15.36
433.317	15.49
433.524	15.75
433.73	15.77
433.937	16.09
434.144	16.14
434.35	16.01
434.557	15.92
434.764	16.03
434.97	15.99
435.177	16.09
435.384	16.1
435.59	16.3
435.797	16.43
436.003	16.61
436.21	16.71
436.416	16.94
436.623	17.04
436.829	17.05
437.036	17.1
437.242	17.17
437.449	17.08
437.655	16.99
437.862	16.97
438.068	16.86
438.275	17.07
438.481	17.3
438.687	17.47
438.894	17.54
439.1	17.65
439.307	17.66
439.513	17.62
439.719	17.57
439.926	17.73
440.132	17.77
440.338	17.61
440.544	17.69
440.751	17.71
440.957	17.77
441.163	17.71
441.369	17.86
441.575	17.67
441.782	17.76
441.988	17.67
442.194	17.81
442.4	17.84
442.606	18.16
442.812	18.22
443.018	18.37
443.224	18.26
443.431	18.44
443.637	18.19
443.843	18.11
444.049	18.07
444.255	18.2
444.461	18.24
444.667	18.31
444.873	18.5
445.079	18.58
445.284	18.64
445.49	18.42
445.696	18.37
445.902	18.33
446.108	18.3
446.314	18.28
446.52	18.51
446.726	18.72
446.931	18.83
447.137	18.92
447.343	19.02
447.549	18.87
447.755	18.81
447.96	18.83
448.166	18.76
448.372	18.72
448.578	18.84
448.783	18.86
448.989	18.97
449.195	19.29
449.4	19.32
449.606	19.22
449.812	19.16
450.017	19.05
450.223	18.71
450.428	18.58
450.634	18.75
450.84	19
451.045	18.93
451.251	18.98
451.456	19.35
451.662	19.54
451.867	19.6
452.073	19.71
452.278	19.85
452.483	19.85
452.689	19.63
452.894	19.6
453.1	19.61
453.305	19.58
453.51	19.47
453.716	19.44
453.921	19.38
454.127	19.38
454.332	19.4
454.537	19.38
454.742	19.52
454.948	19.58
455.153	19.49
455.358	19.48
455.563	19.68
455.769	19.81
455.974	19.73
456.179	19.74
456.384	19.79
456.589	19.62
456.795	19.41
457	19.36
457.205	19.58
457.41	19.59
457.615	19.63
457.82	19.71
458.025	19.82
458.23	19.77
458.435	19.83
458.64	19.77
458.845	19.88
459.05	19.74
459.255	19.67
459.46	19.58
459.665	19.66
459.87	19.74
460.075	19.93
460.28	20.02
460.485	20.23
460.69	20.23
460.895	19.98
461.099	19.94
461.304	20.03
461.509	19.9
461.714	19.91
461.919	20.18
462.123	20.14
462.328	20.23
462.533	20.22
462.738	20.29
462.942	20.01
463.147	20.17
463.352	20.13
463.556	20.34
463.761	20.43
463.966	20.64
464.17	20.65
464.375	20.68
464.58	20.58
464.784	20.46
464.989	20.45
465.193	20.49
465.398	20.52
465.602	20.63
465.807	20.75
466.011	20.93
466.216	21.08
466.42	21.08
466.625	21.2
466.829	21.27
467.034	21.27
467.238	21.3
467.443	21.31
467.647	21.26
467.851	21.38
468.056	21.46
468.26	21.43
468.464	21.52
468.669	21.69
468.873	21.83
469.077	21.82
469.282	21.98
469.486	22.12
469.69	22.06
469.894	21.88
470.099	22.08
470.303	22.18
470.507	21.96
470.711	21.94
470.915	22.01
471.119	21.88
471.324	21.68
471.528	21.85
471.732	21.95
471.936	22
472.14	22.06
472.344	22.26
472.548	22.35
472.752	22.52
472.956	22.8
473.16	22.76
473.364	22.69
473.568	22.76
473.772	22.79
473.976	22.6
474.18	22.76
474.384	22.8
474.588	22.83
474.792	22.76
474.995	22.87
475.199	22.96
475.403	23.2
475.607	23.28
475.811	23.31
476.015	23.41
476.218	23.49
476.422	23.47
476.626	23.42
476.83	23.47
477.033	23.5
477.237	23.45
477.441	23.45
477.644	23.6
477.848	23.71
478.052	23.67
478.255	23.7
478.459	23.74
478.663	23.77
478.866	23.84
479.07	24
479.273	24.17
479.477	24.21
479.681	24.21
479.884	24.16
480.088	24.11
480.291	24.1
480.495	24.13
480.698	24.21
480.901	24.4
481.105	24.53
481.308	24.54
481.512	24.64
481.715	24.67
481.919	24.58
482.122	24.52
482.325	24.59
482.529	24.57
482.732	24.61
482.935	24.51
483.138	24.51
483.342	24.56
483.545	24.67
483.748	24.69
483.952	24.87
484.155	25.07
484.358	25.04
484.561	24.95
484.764	25
484.967	25.03
485.171	25.07
485.374	25
485.577	25.09
485.78	25.13
485.983	25.22
486.186	25.11
486.389	25.13
486.592	25.19
486.795	25.31
486.998	25.2
487.201	25.27
487.404	25.47
487.607	25.47
487.81	25.4
488.013	25.54
488.216	25.57
488.419	25.47
488.622	25.5
488.825	25.53
489.028	25.41
489.231	25.25
489.433	25.11
489.636	25
489.839	24.87
490.042	24.9
490.245	25
490.447	25.18
490.65	25.25
490.853	25.37
491.056	25.4
491.258	25.5
491.461	25.44
491.664	25.45
491.866	25.36
492.069	25.44
492.272	25.29
492.474	25.34
492.677	25.42
492.879	25.49
493.082	25.52
493.285	25.67
493.487	25.71
493.69	25.61
493.892	25.59
494.095	25.56
494.297	25.57
494.5	25.44
494.702	25.48
494.905	25.58
495.107	25.53
495.309	25.45
495.512	25.55
495.714	25.52
495.917	25.42
496.119	25.38
496.321	25.42
496.524	25.52
496.726	25.65
496.928	25.68
497.13	25.8
497.333	25.84
497.535	25.77
497.737	25.62
497.939	25.63
498.142	25.6
498.344	25.58
498.546	25.54
498.748	25.74
498.95	25.86
499.152	25.87
499.355	25.93
499.557	26.05
499.759	26.11
499.961	25.98
500.163	26.03
500.365	26.09
500.567	26.11
500.769	25.97
500.971	26.13
501.173	26.08
501.375	26.04
501.577	26.02
501.779	25.98
501.981	25.84
502.183	25.88
502.385	25.92
502.587	25.85
502.788	25.96
502.99	26.08
503.192	26.13
503.394	26.06
503.596	26.12
503.798	26.2
503.999	26.24
504.201	26.35
504.403	26.4
504.605	26.44
504.806	26.34
505.008	26.33
505.21	26.3
505.411	26.32
505.613	26.36
505.815	26.54
506.016	26.69
506.218	26.82
506.42	26.88
506.621	26.98
506.823	26.95
507.024	26.81
507.226	26.66
507.427	26.6
507.629	26.57
507.83	26.62
508.032	26.65
508.233	26.8
508.435	26.96
508.636	27.05
508.838	26.98
509.039	27.05
509.24	27.05
509.442	27.02
509.643	26.98
509.845	27.03
510.046	27.14
510.247	27.14
510.448	27.17
510.65	27.23
510.851	27.3
511.052	27.25
511.254	27.26
511.455	27.32
511.656	27.32
511.857	27.35
512.058	27.4
512.26	27.49
512.461	27.47
512.662	27.54
512.863	27.57
513.064	27.55
513.265	27.53
513.466	27.63
513.667	27.6
513.868	27.6
514.069	27.72
514.27	27.85
514.471	27.88
514.672	27.91
514.873	27.97
515.074	27.94
515.275	27.81
515.476	27.73
515.677	27.78
515.878	27.91
516.079	27.91
516.28	27.95
516.481	28.07
516.682	28.15
516.882	28
517.083	28.05
517.284	28.1
517.485	28.09
517.686	28.01
517.886	27.98
518.087	27.93
518.288	28.01
518.488	27.95
518.689	28
518.89	28.04
519.091	28.05
519.291	27.89
519.492	27.98
519.692	27.92
519.893	28.01
520.094	28.03
520.294	28.08
520.495	28.12
520.695	28.2
520.896	28.16
521.096	28.27
521.297	28.39
521.497	28.3
521.698	28.31
521.898	28.22
522.099	28.15
522.299	28.17
522.499	28.21
522.7	28.21
522.9	28.27
523.101	28.32
523.301	28.38
523.501	28.37
523.702	28.47
523.902	28.59
524.102	28.62
524.302	28.5
524.503	28.64
524.703	28.53
524.903	28.5
525.103	28.48
525.304	28.54
525.504	28.61
525.704	28.65
525.904	28.62
526.104	28.55
526.304	28.6
526.504	28.51
526.705	28.58
526.905	28.76
527.105	28.87
527.305	28.78
527.505	28.71
527.705	28.63
527.905	28.55
528.105	28.48
528.305	28.44
528.505	28.54
528.705	28.71
528.905	28.66
529.105	28.72
529.304	28.84
529.504	28.94
529.704	28.88
529.904	28.93
530.104	28.91
530.304	28.95
530.503	28.87
530.703	28.73
530.903	28.7
531.103	28.72
531.303	28.64
531.502	28.68
531.702	28.8
531.902	28.78
532.101	28.74
532.301	28.81
532.501	28.86
532.7	28.94
532.9	29.01
533.1	29.08
533.299	29.13
533.499	29.05
533.698	28.98
533.898	29.1
534.097	29.08
534.297	29.1
534.496	29.17
534.696	29.19
534.895	29.17
535.095	29.3
535.294	29.22
535.494	29.18
535.693	29.25
535.892	29.25
536.092	29.16
536.291	29.16
536.491	29.24
536.69	29.24
536.889	29.15
537.088	29.09
537.288	29.14
537.487	29.3
537.686	29.34
537.886	29.43
538.085	29.52
538.284	29.68
538.483	29.53
538.682	29.54
538.882	29.56
539.081	29.68
539.28	29.6
539.479	29.66
539.678	29.66
539.877	29.75
540.076	29.78
540.275	29.85
540.474	29.95
540.673	30.01
540.872	29.98
541.071	29.99
541.27	30
541.469	30.05
541.668	30.05
541.867	30.09
542.066	30.12
542.265	30.21
542.464	30.15
542.663	30.26
542.862	30.38
543.06	30.54
543.259	30.58
543.458	30.66
543.657	30.63
543.856	30.65
544.054	30.53
544.253	30.51
544.452	30.49
544.651	30.6
544.849	30.59
545.048	30.69
545.247	30.76
545.445	30.85
545.644	30.89
545.843	30.92
546.041	30.99
546.24	31.07
546.438	31.06
546.637	31.02
546.836	31.15
547.034	31.23
547.233	31.22
547.431	31.27
547.63	31.37
547.828	31.4
548.027	31.38
548.225	31.34
548.423	31.49
548.622	31.55
548.82	31.53
549.019	31.65
549.217	31.89
549.415	31.87
549.614	31.93
549.812	31.99
550.01	31.99
550.209	32
550.407	32.15
550.605	32.26
550.803	32.38
551.002	32.41
551.2	32.5
551.398	32.51
551.596	32.65
551.794	32.81
551.993	32.93
552.191	32.95
552.389	33.1
552.587	33.08
552.785	33.11
552.983	33.2
553.181	33.34
553.379	33.33
553.577	33.42
553.775	33.43
553.973	33.51
554.171	33.65
554.369	33.69
554.567	33.82
554.765	33.93
554.963	34.04
555.161	33.96
555.359	34.13
555.557	34.26
555.755	34.37
555.952	34.54
556.15	34.69
556.348	34.72
556.546	34.77
556.744	34.81
556.941	34.83
557.139	34.85
557.337	34.88
557.535	34.9
557.732	34.94
557.93	35.09
558.128	35.23
558.325	35.43
558.523	35.5
558.721	35.65
558.918	35.68
559.116	35.86
559.313	35.94
559.511	36.17
559.708	36.31
559.906	36.36
560.104	36.28
560.301	36.38
560.498	36.34
560.696	36.43
560.893	36.6
561.091	36.8
561.288	36.95
561.486	37.2
561.683	37.37
561.88	37.49
562.078	37.65
562.275	37.72
562.473	37.81
562.67	37.96
562.867	38.03
563.064	38.11
563.262	38.3
563.459	38.37
563.656	38.49
563.853	38.66
564.051	38.77
564.248	38.82
564.445	38.92
564.642	38.89
564.839	39.07
565.036	39.25
565.234	39.52
565.431	39.65
565.628	39.89
565.825	40
566.022	40.22
566.219	40.3
566.416	40.48
566.613	40.66
566.81	40.76
567.007	40.72
567.204	40.79
567.401	40.93
567.598	41
567.795	41.09
567.991	41.22
568.188	41.35
568.385	41.46
568.582	41.55
568.779	41.59
568.976	41.83
569.172	42.07
569.369	42.13
569.566	42.16
569.763	42.36
569.96	42.33
570.156	42.23
570.353	42.36
570.55	42.46
570.746	42.54
570.943	42.66
571.14	42.64
571.336	42.69
571.533	42.9
571.729	42.91
571.926	43
572.123	43.27
572.319	43.37
572.516	43.36
572.712	43.54
572.909	43.64
573.105	43.73
573.302	43.74
573.498	43.87
573.695	43.96
573.891	44.13
574.087	44.18
574.284	44.22
574.48	44.19
574.677	44.11
574.873	44.04
575.069	44.11
575.266	44.24
575.462	44.23
575.658	44.39
575.854	44.55
576.051	44.67
576.247	44.73
576.443	44.88
576.639	44.87
576.835	44.74
577.032	44.51
577.228	44.7
577.424	44.75
577.62	44.7
577.816	44.9
578.012	45.1
578.208	44.92
578.404	45.01
578.6	45.17
578.796	45.12
578.993	45.14
579.189	45.19
579.384	45.11
579.58	45.1
579.776	45.11
579.972	45.01
580.168	44.92
580.364	44.96
580.56	44.89
580.756	44.83
580.952	44.92
581.148	45.07
581.343	45.02
581.539	45.17
581.735	45.25
581.931	45.27
582.127	45.28
582.322	45.29
582.518	45.25
582.714	45.24
582.909	45.22
583.105	45.17
583.301	45.08
583.496	45.15
583.692	45.12
583.888	45.05
584.083	45.16
584.279	45.27
584.474	45.14
584.67	45.1
584.866	45.09
585.061	44.79
585.257	44.86
585.452	44.98
585.648	45.07
585.843	45.18
586.039	45.34
586.234	45.37
586.429	45.17
586.625	45.17
586.82	45.12
587.015	45.23
587.211	45.05
587.406	45.21
587.601	45.23
587.797	45.28
587.992	45.2
588.187	45.36
588.383	45.25
588.578	45.26
588.773	45.19
588.968	45.24
589.163	45.16
589.359	45.19
589.554	45.19
589.749	45.23
589.944	45.31
590.139	45.37
590.334	45.53
590.529	45.44
590.724	45.49
590.919	45.57
591.114	45.55
591.309	45.56
591.504	45.65
591.699	45.71
591.894	45.76
592.089	45.78
592.284	45.77
592.479	46
592.674	45.84
592.869	45.92
593.064	46.08
593.259	46.24
593.454	46.32
593.648	46.43
593.843	46.31
594.038	46.31
594.233	46.28
594.428	46.23
594.622	46.3
594.817	46.52
595.012	46.54
595.206	46.51
595.401	46.53
595.596	46.7
595.79	46.73
595.985	46.88
596.18	47.06
596.374	47.25
596.569	47.34
596.763	47.3
596.958	47.33
597.153	47.33
597.347	47.17
597.542	47.28
597.736	47.32
597.931	47.3
598.125	47.41
598.319	47.71
598.514	47.63
598.708	47.89
598.903	47.89
599.097	47.92
599.291	47.78
599.486	47.8
599.68	47.71
599.874	48
600.069	47.93
600.263	48.01
600.457	48.14
600.651	48.15
600.846	48.04
601.04	48.21
601.234	48.33
601.428	48.35
601.622	48.41
601.817	48.56
602.011	48.57
602.205	48.55
602.399	48.63
602.593	48.72
602.787	48.63
602.981	48.61
603.175	48.75
603.369	48.65
603.563	48.64
603.757	48.81
603.951	48.86
604.145	48.71
604.339	48.84
604.533	48.78
604.727	48.64
604.921	48.49
605.115	48.48
605.309	48.58
605.502	48.72
605.696	48.65
605.89	48.65
606.084	48.74
606.278	48.6
606.471	48.42
606.665	48.38
606.859	48.44
607.053	48.4
607.246	48.41
607.44	48.52
607.634	48.59
607.827	48.6
608.021	48.51
608.214	48.36
608.408	48.16
608.602	48.12
608.795	48.02
608.989	47.94
609.182	47.94
609.376	48.02
609.569	47.89
609.763	47.73
609.956	47.63
610.15	47.58
610.343	47.43
610.537	47.4
610.73	47.39
610.923	47.35
611.117	47.29
611.31	47.26
611.504	47.13
611.697	47.05
611.89	47.08
612.083	46.98
612.277	46.99
612.47	47
612.663	47.02
612.856	46.89
613.05	46.72
613.243	46.59
613.436	46.41
613.629	46.37
613.822	46.25
614.015	46.37
614.209	46.25
614.402	46.33
614.595	46.25
614.788	46.27
614.981	46.03
615.174	45.89
615.367	45.77
615.56	45.7
615.753	45.56
615.946	45.46
616.139	45.61
616.332	45.7
616.525	45.67
616.718	45.74
616.911	45.83
617.103	45.81
617.296	45.7
617.489	45.62
617.682	45.6
617.875	45.53
618.067	45.39
618.26	45.28
618.453	45.26
618.646	45.13
618.838	45.15
619.031	45.37
619.224	45.36
619.417	45.35
619.609	45.44
619.802	45.37
619.994	45.22
620.187	45.19
620.38	45.08
620.572	44.9
620.765	44.98
620.957	44.74
621.15	44.61
621.342	44.67
621.535	44.77
621.727	44.69
621.92	44.77
622.112	44.81
622.305	44.79
622.497	44.56
622.69	44.53
622.882	44.53
623.074	44.59
623.267	44.62
623.459	44.71
623.651	44.64
623.844	44.65
624.036	44.62
624.228	44.45
624.42	44.5
624.613	44.53
624.805	44.45
624.997	44.33
625.189	44.36
625.381	44.39
625.574	44.28
625.766	44.23
625.958	44.25
626.15	44.32
626.342	44.31
626.534	44.3
626.726	44.32
626.918	44.25
627.11	44.18
627.302	43.96
627.494	44.06
627.686	43.89
627.878	43.94
628.07	43.96
628.262	43.91
628.454	43.76
628.646	43.87
628.838	43.81
629.029	43.68
629.221	43.83
629.413	43.78
629.605	43.59
629.797	43.54
629.989	43.59
630.18	43.44
630.372	43.42
630.564	43.52
630.755	43.52
630.947	43.4
631.139	43.44
631.33	43.24
631.522	43.26
631.714	43.24
631.905	43.18
632.097	43.14
632.289	43.21
632.48	43.09
632.672	42.92
632.863	42.89
633.055	42.76
633.246	42.71
633.438	42.66
633.629	42.62
633.821	42.59
634.012	42.63
634.203	42.61
634.395	42.6
634.586	42.66
634.777	42.56
634.969	42.61
635.16	42.64
635.351	42.51
635.543	42.47
635.734	42.55
635.925	42.46
636.117	42.5
636.308	42.63
636.499	42.6
636.69	42.48
636.881	42.44
637.073	42.42
637.264	42.31
637.455	42.39
637.646	42.59
637.837	42.6
638.028	42.43
638.219	42.46
638.41	42.3
638.601	41.94
638.792	41.99
638.983	42.03
639.174	41.96
639.365	42.01
639.556	42.07
639.747	41.85
639.938	41.88
640.129	41.85
640.32	41.78
640.511	41.89
640.701	42.05
640.892	41.97
641.083	41.96
641.274	42.08
641.465	41.98
641.655	41.81
641.846	41.69
642.037	41.65
642.228	41.49
642.418	41.59
642.609	41.71
642.8	41.86
642.99	41.81
643.181	41.94
643.372	41.86
643.562	41.71
643.753	41.52
643.943	41.47
644.134	41.21
644.324	41.14
644.515	41.21
644.705	41.33
644.896	41.35
645.086	41.4
645.277	41.29
645.467	41.07
645.658	40.97
645.848	40.92
646.038	40.92
646.229	40.81
646.419	40.83
646.61	40.73
646.8	40.66
646.99	40.6
647.18	40.68
647.371	40.75
647.561	40.78
647.751	40.78
647.941	40.76
648.132	40.8
648.322	40.62
648.512	40.69
648.702	40.71
648.892	40.75
649.082	40.64
649.272	40.59
649.462	40.37
649.653	40.21
649.843	40.07
650.033	40.13
650.223	40.17
650.413	40.14
650.603	40.22
650.793	40.26
650.983	40.18
651.172	40.12
651.362	40.05
651.552	39.93
651.742	39.72
651.932	39.65
652.122	39.59
652.312	39.64
652.502	39.64
652.691	39.71
652.881	39.78
653.071	39.69
653.261	39.49
653.45	39.34
653.64	39.25
653.83	38.87
654.019	38.83
654.209	38.92
654.399	38.95
654.588	38.87
654.778	38.87
654.968	38.66
655.157	38.49
655.347	38.32
655.536	38.21
655.726	38.06
655.915	37.93
656.105	37.74
656.294	37.53
656.484	37.22
656.673	37.17
656.863	37.11
657.052	36.8
657.241	36.67
657.431	36.42
657.62	36.28
657.809	36
657.999	36.06
658.188	35.86
658.377	35.74
658.567	35.47
658.756	35.33
658.945	35.04
659.134	34.79
659.324	34.59
659.513	34.46
659.702	34.25
659.891	34
660.08	33.85
660.269	33.81
660.458	33.45
660.648	33.33
660.837	33.17
661.026	33
661.215	32.71
661.404	32.55
661.593	32.26
661.782	31.93
661.971	31.72
662.16	31.6
662.349	31.3
662.538	31.16
662.726	31.09
662.915	30.86
663.104	30.55
663.293	30.56
663.482	30.39
663.671	30.3
663.86	30.14
664.048	29.98
664.237	29.79
664.426	29.64
664.615	29.46
664.803	29.41
664.992	29.32
665.181	29.2
665.369	29.02
665.558	28.96
665.747	28.71
665.935	28.66
666.124	28.65
666.312	28.53
666.501	28.4
666.69	28.24
666.878	28.05
667.067	27.82
667.255	27.87
667.444	27.9
667.632	27.9
667.82	28.02
668.009	27.93
668.197	27.83
668.386	27.69
668.574	27.74
668.762	27.58
668.951	27.54
669.139	27.41
669.327	27.16
669.516	27.23
669.704	27.17
669.892	27.35
670.08	27.36
670.269	27.37
670.457	27.19
670.645	27.01
670.833	26.92
671.021	26.89
671.21	27.01
671.398	27.16
671.586	27.23
671.774	26.96
671.962	27.01
672.15	26.91
672.338	26.73
672.526	26.83
672.714	26.82
672.902	26.78
673.09	27
673.278	27.2
673.466	27.19
673.654	27.48
673.842	27.61
674.03	27.58
674.218	27.61
674.405	27.71
674.593	27.7
674.781	27.71
674.969	27.75
675.157	27.76
675.344	27.93
675.532	28.04
675.72	28.16
675.908	28.19
676.095	28.19
676.283	28.39
676.471	28.64
676.658	28.71
676.846	28.87
677.033	29.17
677.221	29.01
677.409	29.13
677.596	29.27
677.784	29.51
677.971	29.62
678.159	29.85
678.346	29.8
678.534	29.98
678.721	30.13
678.909	30.24
679.096	30.37
679.283	30.62
679.471	30.76
679.658	30.81
679.846	31.09
680.033	31.34
680.22	31.54
680.408	31.64
680.595	31.8
680.782	31.85
680.969	32.07
681.157	32.16
681.344	32.38
681.531	32.56
681.718	32.65
681.905	32.9
682.093	33.06
682.28	33.39
682.467	33.75
682.654	34.05
682.841	34.2
683.028	34.7
683.215	34.9
683.402	34.87
683.589	35.2
683.776	35.46
683.963	35.58
684.15	35.92
684.337	36.43
684.524	36.73
684.711	37.09
684.898	37.28
685.085	37.59
685.271	38.08
685.458	38.32
685.645	38.6
685.832	39.19
686.019	39.54
686.205	39.74
686.392	40.15
686.579	40.68
686.766	41
686.952	41.36
687.139	42.04
687.326	42.41
687.512	42.81
687.699	43.18
687.886	43.55
688.072	43.88
688.259	44.4
688.445	44.94
688.632	45.41
688.818	46.21
689.005	46.69
689.191	47.4
689.378	47.86
689.564	48.45
689.751	48.87
689.937	49.25
690.124	49.68
690.31	50.02
690.496	50.62
690.683	51.2
690.869	51.69
691.055	52.21
691.242	53
691.428	53.43
691.614	53.83
691.8	54.52
691.987	54.84
692.173	55.26
692.359	55.76
692.545	56.32
692.731	56.8
692.918	57.46
693.104	58
693.29	58.67
693.476	59.14
693.662	59.61
693.848	60.07
694.034	60.36
694.22	60.77
694.406	61.37
694.592	61.86
694.778	62.59
694.964	63.27
695.15	63.63
695.336	63.75
695.522	64.45
695.708	64.81
695.894	65.19
696.08	65.7
696.265	66.36
696.451	66.82
696.637	67.18
696.823	67.42
697.009	67.45
697.194	67.77
697.38	67.83
697.566	68.03
697.751	68.62
697.937	69.42
698.123	69.87
698.308	70.59
698.494	71.2
698.68	71.49
698.865	71.77
699.051	72.01
699.236	71.98
699.422	72.01
699.607	72.12
699.793	72.38
699.978	72.69
700.164	72.86
700.349	73.52
700.535	73.89
700.72	74.06
700.906	74.55
701.091	74.64
701.276	74.49
701.462	74.88
701.647	75.34
701.832	75.26
702.018	75.67
702.203	75.69
702.388	75.57
702.573	75.34
702.759	75.7
702.944	76.01
703.129	76.23
703.314	76.29
703.499	76.44
703.684	76.44
703.87	77.12
704.055	78.04
704.24	78.64
704.425	79.2
704.61	79.42
704.795	79.09
704.98	78.78
705.165	78.7
705.35	78.79
705.535	79.09
705.72	79.18
705.905	79.48
706.09	79.99
706.275	79.92
706.459	79.8
706.644	79.89
706.829	79.72
707.014	79.3
707.199	79.9
707.384	80.24
707.568	80.42
707.753	80.86
707.938	81.32
708.123	81.07
708.307	80.99
708.492	80.95
708.677	80.62
708.861	80.59
709.046	80.41
709.231	80.97
709.415	81.36
709.6	81.33
709.784	81.1
709.969	81.37
710.153	80.83
710.338	80.45
710.522	80.82
710.707	81.41
710.891	81.4
711.076	81.69
711.26	81.53
711.445	81.5
711.629	81.13
711.813	81.56
711.998	81.8
712.182	81.82
712.366	82.25
712.551	83.14
712.735	83
712.919	82.71
713.103	83.43
713.288	82.99
713.472	82.15
713.656	82.69
713.84	82.76
714.024	82.33
714.208	82.33
714.393	83.16
714.577	82.79
714.761	83.27
714.945	83.59
715.129	83.87
715.313	83.45
715.497	83.23
715.681	83.57
715.865	83.52
716.049	83.62
716.233	83.17
716.417	83.58
716.601	83.01
716.785	83.14
716.968	83.19
717.152	83.74
717.336	83.56
717.52	83.42
717.704	83.01
717.888	83.25
718.071	83.09
718.255	83.02
718.439	82.78
718.622	83.36
718.806	83.54
718.99	83.47
719.174	83.31
719.357	83.55
719.541	83.49
719.724	83.19
719.908	84.04
720.092	85.13
720.275	85.71
720.459	85.54
720.642	85.13
720.826	84.5
721.009	83.51
721.193	83.16
721.376	83.49
721.559	84.23
721.743	84.59
721.926	85.3
722.11	85.26
722.293	84.46
722.476	84.05
722.66	83.73
722.843	83.35
723.026	82.85
723.21	83.85
723.393	84.54
723.576	84.3
723.759	84.14
723.942	84.98
724.126	84.47
724.309	84.25
724.492	84.62
724.675	84.79
724.858	84.74
725.041	85.16
725.224	84.45
725.407	84.99
725.59	85.39
725.774	84.91
725.957	84.6
726.14	84.67
726.322	84.44
726.505	83.71
726.688	84.52
726.871	83.97
727.054	84.56
727.237	83.98
727.42	84.67
727.603	84.52
727.786	85.23
727.968	85.34
728.151	85.78
728.334	85.77
728.517	85.62
728.699	86.22
728.882	85.78
729.065	86.08
729.248	86.38
729.43	87.07
729.613	87.23
729.796	87.8
729.978	87.37
730.161	86.88
730.343	86.53
730.526	86.88
730.708	85.93
730.891	86.08
731.073	85.89
731.256	85.12
731.438	84.62
731.621	85.75
731.803	85.95
731.986	86.35
732.168	86.53
732.35	86.18
732.533	85.72
732.715	85.36
732.898	85.58
733.08	85.82
733.262	85.96
733.444	85.82
733.627	86.21
733.809	86.83
733.991	87.43
734.173	86.78
734.355	86.82
734.538	87.54
734.72	86.81
734.902	87.01
735.084	87.36
735.266	87.77
735.448	87.5
735.63	86.61
735.812	86.12
735.994	88.01
736.176	87.77
736.358	86.92
736.54	88.58
736.722	87.98
736.904	86.36
737.086	86.19
737.268	87.35
737.45	86.58
737.632	86.68
737.814	86.44
737.995	86.23
738.177	85.69
738.359	85.29
738.541	86.3
738.723	86.68
738.904	88.15
739.086	88.07
739.268	88.92
739.449	88.05
739.631	87.93
739.813	87.56
739.994	87.84
740.176	87.95
740.358	88.45
740.539	89.32
740.721	89.01
740.902	90.19
741.084	89.25
741.265	88.86
741.447	88.6
741.628	88.97
741.81	86.75
741.991	87.25
742.172	87.75
742.354	87.7
742.535	86.6
742.717	87.49
742.898	88.18
743.079	88.74
743.261	89.22
743.442	89.1
743.623	90.31
743.804	89.63
743.986	89.66
744.167	87.28
744.348	87.24
744.529	86.74
744.71	85.89
744.891	84.74
745.073	85.61
745.254	85.72
745.435	84.62
745.616	84.22
745.797	83.62
745.978	84.08
746.159	84.52
746.34	83.14
746.521	84.9
746.702	85
746.883	84.14
747.064	84.53
747.245	86.58
747.426	85.75
747.606	87.24
747.787	88.29
747.968	87.5
748.149	87.4
748.33	88.44
748.51	87.71
748.691	87.32
748.872	87.88
749.053	88
749.233	86.94
749.414	86.7
749.595	85.72
749.775	84.83
749.956	83.54
750.137	83.21
750.317	84.35
750.498	86.43
750.678	86.44
750.859	87.22
751.04	87.14
751.22	85.24
751.4	84.59
751.581	84
751.761	85.01
751.942	86.85
752.122	87.67
752.303	86.08
752.483	87.39
752.663	86.11
752.844	83.43
753.024	84.89
753.204	86.16
753.385	84.72
753.565	84.63
753.745	85.33
753.925	83.41
754.106	82.41
754.286	83.17
754.466	82.35
754.646	83.19
754.826	82.91
755.006	82.16
755.187	82.39
755.367	83.82
755.547	83.54
755.727	84.3
755.907	85.86
756.087	86.29
756.267	85.24
756.447	84.9
756.627	83.84
756.807	84.54
756.987	83.29
757.167	84.34
757.346	84.79
757.526	83.26
757.706	82.93
757.886	83.82
758.066	84.01
758.246	84.75
758.425	85.02
758.605	84.34
758.785	84.39
758.965	84.03
759.144	80.84
759.324	83.76
759.504	84.41
759.683	83.56
759.863	81.85
760.043	82.97
760.222	81.54
760.402	81.49
760.581	81.66
760.761	83.04
760.94	82.34
761.12	85.06
761.299	85.46
761.479	84.9
761.658	83
761.838	83.53
762.017	81.3
762.197	79.61
762.376	79.86
762.555	81.32
762.735	82.55
762.914	81.07
763.093	82.3
763.273	81.71
763.452	81.06
763.631	80.48
763.81	81.05
763.99	80.38
764.169	81.56
764.348	79.49
764.527	77.76
764.706	78.98
764.885	80.16
765.064	78.52
765.243	81.06
765.423	83.25
765.602	82.59
765.781	78.95
765.96	78.48
766.139	77.47
766.318	78.13
766.497	76.78
766.676	78.18
766.854	81.65
767.033	83.23
767.212	81.03
767.391	82.12
767.57	83
767.749	81.67
767.928	81.73
768.106	82.74
768.285	80.24
768.464	79.58
768.643	78.91
768.821	78.47
769	78.9
769.179	79.94
769.357	78.7
769.536	77.66
769.715	78.14
769.893	79.46
770.072	79.23
770.25	80.49
770.429	81.23
770.607	79.14
770.786	77.7
770.964	80.39
771.143	79.7
771.321	80.73
771.5	81.12
771.678	79.53
771.857	75.21
772.035	76.37
772.213	74.45
772.392	73.44
772.57	74.93
772.748	76.61
772.927	74.14
773.105	73.82
773.283	76.31
773.461	76.95
773.64	77.97
773.818	77.72
773.996	79.26
774.174	76.45
774.352	73.92
774.531	70.23
774.709	74.08
774.887	72
775.065	71.05
775.243	71.47
775.421	75.2
775.599	73.75
775.777	73.34
775.955	73.01
776.133	71.03
776.311	69.82
776.489	68.08
776.667	69.35
776.844	72.49
777.022	72.48
777.2	72.05
777.378	74.35
777.556	75.76
777.734	77.91
777.911	82.15
778.089	81.58
778.267	79.76
778.445	76.4
778.622	74.09
778.8	71.04
778.978	74.35
779.155	73.07
779.333	75.68
779.511	73.4
779.688	73.95
779.866	66.03
780.043	66.02
780.221	65.16
780.398	66.29
780.576	69.57
780.753	74.3
780.931	73.09
781.108	73.77
781.286	75.16
781.463	70.74
781.64	68.08
781.818	68.37
781.995	67.33
782.172	64.4
782.35	64.87
782.527	72.28
782.704	72.47
782.882	73.88
783.059	72.78
783.236	73.84
783.413	69.81
783.59	72.55
783.768	67.6
783.945	73.88
784.122	74.46
784.299	73.64
784.476	70.33
784.653	71.39
784.83	66.34
785.007	62.86
785.184	66.37
785.361	67.5
785.538	74.09
785.715	76.39
785.892	78.7
786.069	77.78
786.246	79.43
786.423	75.49
786.6	73.32
786.776	74.16
786.953	68.92
787.13	71.11
787.307	70.64
787.484	71.17
787.66	68.18
787.837	73.23
788.014	70.86
788.191	69.77
788.367	66.88
788.544	72.59
788.721	68.34
788.897	67.99
789.074	69.44
789.25	69
789.427	67.34
789.603	70.21
789.78	71.69
789.956	70.45
790.133	70.4
790.309	71.07
790.486	71.64
790.662	68.25
790.839	67.73
791.015	71.03
791.192	67.35
791.368	68.89
791.544	70.59
791.721	68.07
791.897	66.62
792.073	62.69
792.249	53.37
792.426	53.42
792.602	57.78
792.778	54.23
792.954	54.3
793.13	59.12
793.307	53.61
793.483	45.33
793.659	46.31
793.835	51.61
794.011	47.97
794.187	48.71
794.363	51.15
794.539	55.33
794.715	48.9
794.891	50.12
795.067	50.81
795.243	56.38
795.419	56.85
795.595	58.94
795.771	60.17
795.947	59.94
796.122	56.15
796.298	55.07
796.474	60.14
796.65	59.28
796.826	58.56
797.001	59.37
797.177	55.96
797.353	56.18
797.529	58.48
797.704	57.71
797.88	56.27
798.056	56.61
798.231	51.03
798.407	56.02
798.582	60.1
798.758	67.4
798.934	75.93
799.109	78
799.285	66.85
799.46	69.5
799.636	63.75
799.811	57.86
799.986	59.47
800.162	64.25
800.337	60.24
800.513	59.22
800.688	58.71
800.863	65.87
801.039	59.61
801.214	58.07
801.389	61.02
801.565	56.04
801.74	44.89
801.915	56.89
802.09	52.18
802.265	53.36
802.441	54.06
802.616	53.76
802.791	53.03
802.966	60.2
803.141	58.64
803.316	61.16
803.491	63.7
803.666	63.75
803.841	61.5
804.016	58.51
804.191	56.83
804.366	56.3
804.541	54.99
804.716	56
804.891	53.1
805.066	56.15
805.241	52.2
805.416	48.89
805.591	43.14
805.765	50.28
805.94	48.76
806.115	48.72
806.29	40.65
806.464	46.56
806.639	40.59
806.814	38.11
806.989	32.54
807.163	49.62
807.338	43.72
807.512	40.84
807.687	29.93
807.862	49.21
808.036	50.39
808.211	56.59
808.385	65.57
808.56	83.31
808.734	73.14
808.909	63.67
809.083	59.6
809.258	71.96
809.432	66.85
809.606	56.78
809.781	54.52
809.955	56.08
810.13	51.32
810.304	45.98
810.478	43.4
810.652	51.73
810.827	56.95
811.001	47.12
811.175	45.68
811.349	52.28
811.524	44.61
811.698	32.34
811.872	30.91
812.046	36.16
812.22	42.41
812.394	39.86
812.568	42.06
812.742	43.54
812.916	36.31
813.09	31.16
813.264	35.53
813.438	42.67
813.612	46.28
813.786	44.56
813.96	54.73
814.134	60.16
814.308	69.84
814.482	65.94
814.656	66.63
814.83	62.18
815.003	59.79
815.177	42.47
815.351	33.54
815.525	37.2
815.698	28.98
815.872	24.8
816.046	19.74
816.219	29.78
816.393	42.62
816.567	51.05
816.74	44.18
816.914	56.53
817.088	61.33
817.261	40.17
817.435	24.82
817.608	26.72
817.782	7.02
817.955	5.29
818.129	19.27
818.302	27.83
818.475	46.7
818.649	53.96
818.822	47.2
818.996	62.66
819.169	65.85
819.342	47.89
819.516	57.46
819.689	59.24
819.862	37.78
820.035	30.39
820.209	30.82
820.382	28.4
820.555	30.14
820.728	19.25
820.901	19.74
821.075	14.23
821.248	11.22
821.421	-3.47
821.594	9.7
821.767	42.27
821.94	67.87
822.113	46.95
822.286	53.47
822.459	69.78
822.632	50.73
822.805	23.19
822.978	32
823.151	23.39
823.324	-3.57
823.496	-22.83
823.669	-26.04
823.842	-19.32
824.015	-33.7
824.188	-25.8
824.361	-8.83
824.533	-4.85
824.706	8.51
824.879	14.01
825.051	26.03
825.224	20.75
825.397	19.11
825.569	-7.71
825.742	14.86
825.915	11.25
826.087	31.12
826.26	30.55
826.432	36.11
826.605	36.6
826.777	29.6
826.95	8.15
827.122	-10.55
827.295	2.71
827.467	-7
827.64	-35.54
827.812	-18.57
827.984	-9.33
828.157	-38.04
828.329	-80.09
828.501	-62.04
828.674	-29.1
828.846	-44.2
829.018	-8.8
829.19	-1.38
829.363	33.21
829.535	23.64
829.707	34.76
829.879	0.36
830.051	-6.71
830.223	-43.93
830.395	-79.3
830.568	-77.31
830.74	-64.03
830.912	-15.34
831.084	-29.09
831.256	-29.36
831.428	-46.81
831.6	-76.88
831.772	-126.94
831.943	-108.45
832.115	-78.75
832.287	-48.9
832.459	-13.59
832.631	19.77
832.803	45.45
832.975	82.08
833.146	66.87
833.318	63.04
833.49	51.72
833.662	11.51
833.833	-23.02
834.005	1.59
834.177	15.19
834.348	13.78
834.52	-3.77
834.692	7.43
834.863	-23.81
835.035	-36.44
835.206	-129.49
835.378	-92.56
835.549	-89.77
835.721	-74.04
835.892	-89.01
836.064	-63.79
836.235	-62.99
836.407	-33.53
836.578	-66.08
836.749	-47.44
836.921	-32.21
837.092	-51.46
837.264	-67.52
837.435	-78.28
837.606	-19.21
837.777	11.97
837.949	23.24
838.12	27.11
838.291	51.42
838.462	27.66
838.633	1.75
838.805	1.61
838.976	-5.34
839.147	-72.65
839.318	-78.05
839.489	-134.03
839.66	-101.84
839.831	-48.9
840.002	-35.59
840.173	-50.19
840.344	15.86
840.515	-23.98
840.686	-220.04
840.857	-183.54
841.028	-163.12
841.199	-139.99
841.369	-141.66
841.54	-87.52
841.711	-46.71
841.882	-10.34
842.053	-31.16
842.223	-16.74
842.394	-22.46
842.565	-30.7
842.736	-25.3
842.906	-14.61
843.077	-13.72
843.248	3.16
843.418	13.37
843.589	-32.83
843.759	-16.93
843.93	0.57
844.101	-9.56
844.271	-9.8
844.442	11.9
844.612	20.52
844.783	1.19
844.953	-24.35
845.123	-44.26
845.294	-40.49
845.464	-271.27
845.635	-145.48
845.805	-63.28
845.975	3.35
846.146	-68.01
846.316	-50.57
846.486	-27.69
846.656	-8.07
846.827	-29.64
846.997	-23.64
847.167	24.17
847.337	10.94
847.507	-33.34
847.677	-11.69
847.848	33.75
848.018	11.71
848.188	18.36
848.358	2.81
848.528	-19.39
848.698	-67.28
848.868	-177.48
849.038	-321.38
849.208	-101.53
849.378	-70.06
849.548	-65.3
849.718	-30.24
849.887	-9.55
850.057	-45.24
850.227	-79.57
850.397	-90.73
850.567	-198.58
850.737	-526.85
850.906	-1450.94
851.076	-1024.02
851.246	-482.07
851.415	-53.1
851.585	-38.95
851.755	-78.08
851.924	-25.43
852.094	-50.04
852.264	-175.17
852.433	-1280.53
852.603	-231.62
852.772	-242.58
852.942	-123.57
853.111	-114.4
853.281	-50.91
853.45	-22.54
853.62	-111.94
853.789	-137.09
853.959	-157.4
854.128	-142.84
854.297	-199.07
854.467	-187.76
854.636	-158.49
854.805	-82.7
854.975	-125.26
855.144	-125.68
855.313	4.37
855.482	-380.84
855.652	-186.88
855.821	-164.75
855.99	-48.73
856.159	-22.87
856.328	-3.75
856.497	-14.02
856.667	1.95
856.836	8.25
857.005	-42.05
857.174	-102.84
857.343	-187.96
857.512	-165.37
857.681	-211.29
857.85	-231.58
858.019	-123.92
858.188	-86.42
858.356	-123.63
858.525	-175.8
858.694	-149.42
858.863	-274.27
859.032	-227.29
859.201	-320.29
859.369	-256.31
859.538	-201.65
859.707	-124.58
859.876	-117.75
860.044	-85.11
860.213	8.44
860.382	-4.74
860.55	-12.35
860.719	8.74
860.888	11.83
861.056	-41.75
861.225	-51.67
861.393	-32.58
861.562	-44.96
861.73	-125.93
861.899	-368.98
862.067	-2316.38
862.236	-80.98
862.404	-231.63
862.572	-80.95
862.741	-25.18
862.909	-27.8
863.078	-176.67
863.246	-114.68
863.414	-128.98
863.582	-91
863.751	-125.26
863.919	-80.46
864.087	-47.67
864.255	-73.93
864.424	-400.3
864.592	-78.65
864.76	-151.91
864.928	-371.8
865.096	-204.38
865.264	-109.1
865.432	-1444.89
865.6	-188.88
865.768	-172.7
865.936	-175.97
866.104	-215.09
866.272	-309.3
866.44	-537.3
866.608	916.17
866.776	444.62
866.944	4073.84
867.112	-810.91
867.28	-334.39
867.448	-152.92
867.615	-89.28
867.783	-83.25
867.951	-81.99
868.119	-61.78
868.286	-103.83
868.454	-298.45
868.622	-295.64
868.789	-436.37
868.957	-6041.07
869.125	-3283.55
869.292	-184.95
869.46	-263.36
869.627	-13.4
869.795	-62.82
869.963	-17.67
870.13	12.75
870.298	35.17
870.465	-49.41
870.632	-43.75
870.8	-60.37
870.967	-135.36
871.135	-215.52
871.302	-176.03
871.469	-208.35
871.637	-265.75
871.804	-142.92
871.971	-191.45
872.139	-573.37
872.306	-81.37
872.473	-88.71
872.64	-333.37
872.807	-40.83
872.975	51.71
873.142	-191.91
873.309	1475
873.476	-9.47
873.643	26.14
873.81	-56.1
873.977	-16.22
874.144	-6
874.311	-148.88
874.478	-202.84
874.645	-235.6
874.812	-139.1
874.979	-94.5
875.146	-95.35
875.313	-108.28
875.48	8.42
875.647	-21.98
875.813	-53.41
875.98	-23.4
876.147	-56.48
876.314	-143.48
876.481	1338.64
876.647	-1516.57
876.814	643.39
876.981	-107.21
877.147	-79.99
877.314	-0.28
877.481	17.28
877.647	32.15
877.814	-9.85
877.98	-63.27
878.147	-6.25
878.314	32.83
878.48	-25.49
878.647	3.71
878.813	75.58
878.979	49.61
879.146	-1.77
879.312	-17.52
879.479	-89.16
879.645	-243.14
879.811	-460.8
879.978	-1170.04
880.144	-423.81
880.31	-211.04
880.477	-485.03
880.643	-513.29
880.809	-233.35
880.975	-133.16
881.142	-880.68
881.308	-132.96
881.474	-90.44
881.64	-104.81
881.806	-212.24
881.972	-122.49
882.138	-178.54
882.304	-211.74
882.47	-334.15
882.636	-1251.43
882.802	-380.18
882.968	-116.89
883.134	-99.47
883.3	-126.04
883.466	-35.51
883.632	-10.1
883.798	-33.58
883.964	-50.35
884.129	-22.55
884.295	6.3
884.461	-72.24
884.627	-143.73
884.793	-186.96
884.958	-109.86
885.124	-217.37
885.29	-311.01
885.455	-493.57
885.621	-142.23
885.787	-260.6
885.952	-151.47
886.118	-158.99
886.283	-138.41
886.449	-261.31
886.614	-253.88
886.78	-542.21
886.945	1902.87
887.111	-866.91
887.276	-661.22
887.442	-1259.77
887.607	-577.24
887.773	-405.02
887.938	-411.95
888.103	-488.47
888.269	-354.14
888.434	-740.95
888.599	-333.35
888.764	-154.64
888.93	-93.19
889.095	-88.15
889.26	-110.13
889.425	-61.31
889.59	-48.68
889.756	-104.96
889.921	-72.57
890.086	-14.09
890.251	-11.77
890.416	-185.3
890.581	-1267.34
890.746	236.7
890.911	349.52
891.076	222.13
891.241	-628.92
891.406	-60.62
891.571	-125.77
891.736	-515.94
891.901	-979.42
892.065	1179.95
892.23	238.75
892.395	319.91
892.56	460.33
892.725	-698.24
892.889	-1777.44
893.054	-296.14
893.219	-127.16
893.384	-56.55
893.548	-94.45
893.713	-110.99
893.878	-63.9
