Data from Ofra_PS_T2_2A_1GT43_Reflection_2.txt Node
Date: Wed Jul 21 16:56:04 EDT 2021
User: Adam
Spectrometer: FLMT01687
Trigger mode: 0
Integration Time (sec): 1.100000E0
Scans to average: 2
Electric dark correction enabled: true
Nonlinearity correction enabled: false
Boxcar width: 2
XAxis mode: Wavelengths
Number of Pixels in Spectrum: 3648
>>>>>Begin Spectral Data<<<<<
179.494	286
179.716	376.71
179.937	376.11
180.158	365.12
180.38	631.56
180.601	329.56
180.823	115.73
181.044	-13.03
181.265	120.96
181.486	83.51
181.708	74.71
181.929	-13.27
182.15	-45.77
182.372	91.39
182.593	59.76
182.814	6.8
183.035	11.57
183.257	28.81
183.478	-19.68
183.699	37.98
183.92	53.63
184.141	45.47
184.363	26.14
184.584	63.36
184.805	47.79
185.026	59.55
185.247	72.63
185.468	52.49
185.689	26.78
185.91	35.06
186.132	46.65
186.353	27.29
186.574	59.31
186.795	66.77
187.016	39.71
187.237	14.91
187.458	27.75
187.679	13.91
187.9	22.76
188.121	22.29
188.342	18.31
188.563	39.42
188.784	70.22
189.005	67.43
189.226	100.64
189.447	115.58
189.667	30.83
189.888	-222.91
190.109	-751.3
190.33	-435.16
190.551	-793.36
190.772	-124.09
190.993	-95.11
191.214	-83.73
191.434	-50.23
191.655	-20.55
191.876	-59.06
192.097	-82.78
192.318	-165.27
192.538	-230.35
192.759	-141.01
192.98	-38.31
193.201	5.43
193.421	50.32
193.642	44.25
193.863	54.99
194.083	23.83
194.304	7.03
194.525	-7.9
194.745	-30.82
194.966	-41.73
195.187	-50.14
195.407	-64.87
195.628	-108.49
195.848	-96.7
196.069	-92.83
196.29	-52.21
196.51	-62.68
196.731	-44.44
196.951	-52.19
197.172	-53.48
197.392	-68.64
197.613	-69.46
197.833	-80.99
198.054	-45.69
198.274	-30.61
198.495	-37.79
198.715	11.72
198.936	4.73
199.156	-9.56
199.377	-67.07
199.597	-61.71
199.817	-90.39
200.038	-40.16
200.258	-84.57
200.479	-21.25
200.699	-17.4
200.919	11.66
201.14	-25.58
201.36	-9.61
201.58	10.6
201.801	31.42
202.021	2.88
202.241	4.24
202.461	-13.08
202.682	-75.92
202.902	-131.18
203.122	-53.61
203.342	-25.5
203.563	5.26
203.783	25.1
204.003	7.31
204.223	-0.27
204.443	28.3
204.663	24.51
204.884	47.46
205.104	75.05
205.324	106.16
205.544	122.02
205.764	101.22
205.984	71.39
206.204	57.71
206.424	36.08
206.644	2.45
206.864	-8.93
207.084	-24.41
207.304	32.64
207.525	-18.59
207.745	-29.74
207.964	41.59
208.184	-10.55
208.404	-48.98
208.624	-36.5
208.844	-19.08
209.064	-212.79
209.284	-165.41
209.504	-66.32
209.724	-4.17
209.944	-13.64
210.164	17.23
210.384	14.44
210.604	7.15
210.823	-26.35
211.043	-32.9
211.263	-21.41
211.483	-16.57
211.703	-40.25
211.922	7.2
212.142	58.92
212.362	86.58
212.582	71.24
212.801	61.15
213.021	38.74
213.241	18.73
213.461	-28.59
213.68	-39.59
213.9	-42.89
214.12	-39.58
214.339	-63.89
214.559	-45.43
214.779	-9.08
214.998	1.61
215.218	-24.01
215.438	-3.22
215.657	2.26
215.877	-20.08
216.096	15.69
216.316	21.65
216.535	-8.87
216.755	-13.15
216.974	-68.72
217.194	-114.04
217.413	-129.83
217.633	-91.93
217.852	-162.86
218.072	-51.19
218.291	-23.62
218.511	15.57
218.73	3.43
218.95	-1.56
219.169	-10.03
219.389	-41.13
219.608	-32.95
219.827	-36.77
220.047	-37.55
220.266	-20.76
220.485	-18.91
220.705	-7.85
220.924	-19.13
221.143	27.47
221.363	12.22
221.582	26.57
221.801	31.16
222.021	56.44
222.24	28.14
222.459	97.68
222.678	77.62
222.897	-18.43
223.117	-52.56
223.336	-38.37
223.555	-15.37
223.774	35.33
223.993	101.39
224.213	131.9
224.432	120.48
224.651	100.58
224.87	46.76
225.089	42.32
225.308	17.55
225.527	33.47
225.746	28.65
225.965	37.48
226.184	21.63
226.404	38.63
226.623	8.64
226.842	1.38
227.061	21.79
227.28	27.98
227.499	18.06
227.718	30.87
227.936	36.77
228.155	40.5
228.374	34.78
228.593	42.52
228.812	44.3
229.031	14.03
229.25	-21.88
229.469	-29.9
229.688	-41.73
229.907	-12.76
230.125	-5.96
230.344	10.49
230.563	38.82
230.782	48.23
231.001	2.13
231.22	35.96
231.438	38.29
231.657	17.9
231.876	12.15
232.095	43.13
232.313	31.62
232.532	26.96
232.751	-2.74
232.969	-30.34
233.188	-124.62
233.407	-44.24
233.625	-29.17
233.844	-32.97
234.063	-5.92
234.281	26.35
234.5	20.01
234.719	27.65
234.937	28.02
235.156	30.64
235.374	28.74
235.593	13.57
235.811	14.51
236.03	27.88
236.249	7.8
236.467	-0.53
236.686	25.59
236.904	26.65
237.123	24.43
237.341	17.6
237.559	26.07
237.778	7.55
237.996	11.96
238.215	27.72
238.433	44.53
238.652	32
238.87	25.98
239.088	25.59
239.307	11.02
239.525	-8.74
239.743	-18.2
239.962	-10.04
240.18	-45.25
240.398	-55.95
240.617	-49.48
240.835	-24.76
241.053	-11.11
241.271	43.17
241.49	40.07
241.708	25.85
241.926	12.39
242.144	7.59
242.363	-34.94
242.581	-59.32
242.799	-45.13
243.017	-14.61
243.235	-23.06
243.453	-14.43
243.672	-20.55
243.89	2.16
244.108	-0.8
244.326	18.42
244.544	33.56
244.762	54.06
244.98	50.29
245.198	45.29
245.416	22.53
245.634	3.37
245.852	-22.76
246.07	-22.59
246.288	-18.32
246.506	-38.43
246.724	-12.7
246.942	15.54
247.16	27.87
247.378	37.18
247.596	64.04
247.814	71.01
248.032	34.51
248.25	31.14
248.468	1.92
248.685	-9.99
248.903	6.22
249.121	22.01
249.339	-2.23
249.557	4.22
249.775	2.09
249.992	-36.92
250.21	-31.69
250.428	-23.45
250.646	-54.21
250.863	-58.57
251.081	-55.24
251.299	-85.93
251.517	-75.59
251.734	-42.33
251.952	-38.37
252.17	-19.98
252.387	4.55
252.605	2.35
252.823	7.31
253.04	19.2
253.258	15.93
253.475	-8.19
253.693	11.17
253.911	22.42
254.128	12.17
254.346	28.17
254.563	25.18
254.781	-0.59
254.998	-11.7
255.216	0.31
255.433	6.21
255.651	61.56
255.868	74.04
256.086	64.14
256.303	58.24
256.521	31.5
256.738	-3.34
256.956	-21.11
257.173	-40.53
257.39	-62.94
257.608	-64.87
257.825	-31.58
258.043	-9.56
258.26	4.99
258.477	25.99
258.695	13.49
258.912	-32.71
259.129	-13.96
259.346	-53.97
259.564	-79.05
259.781	-100.05
259.998	-24.04
260.216	-5.01
260.433	35.79
260.65	48.25
260.867	64.1
261.084	37.85
261.302	26.01
261.519	18.31
261.736	-11.36
261.953	-24.11
262.17	10.22
262.387	-23.44
262.604	-38.75
262.822	-32.76
263.039	-26.27
263.256	-46.54
263.473	10.11
263.69	13.03
263.907	28.59
264.124	32.02
264.341	23
264.558	7.34
264.775	24.26
264.992	12.85
265.209	25.55
265.426	45.45
265.643	42.22
265.86	37.6
266.077	40.5
266.294	24.7
266.51	-17.94
266.727	-7.94
266.944	-4.49
267.161	-1.83
267.378	4.44
267.595	31.12
267.812	-6.5
268.028	-2.69
268.245	5.73
268.462	-17.23
268.679	-22.2
268.896	31.31
269.112	28.54
269.329	22.6
269.546	26.82
269.763	22.94
269.979	13.6
270.196	6.68
270.413	-11
270.629	-25.3
270.846	-38.52
271.063	-41.8
271.279	-45.94
271.496	-32.25
271.712	3.1
271.929	21.38
272.146	15.75
272.362	20.5
272.579	40.22
272.795	41.38
273.012	32.96
273.228	43.51
273.445	1.92
273.661	-19.16
273.878	-55.81
274.094	-40.04
274.311	-65.25
274.527	-0.93
274.744	0.22
274.96	5.4
275.177	8.61
275.393	19.18
275.609	31.71
275.826	43.07
276.042	54.34
276.259	62.43
276.475	61.4
276.691	55.15
276.908	30.2
277.124	30.03
277.34	14.83
277.557	10.9
277.773	-5.35
277.989	-3.01
278.205	-1.95
278.422	20.48
278.638	15.58
278.854	33.95
279.07	39.82
279.286	56.94
279.503	33.68
279.719	40.3
279.935	18.68
280.151	23.29
280.367	4.22
280.583	-15.21
280.799	-15.01
281.016	-34.46
281.232	-9.79
281.448	-20.94
281.664	10
281.88	-21.88
282.096	9.04
282.312	14.27
282.528	32.09
282.744	46.99
282.96	54.96
283.176	41.26
283.392	37.84
283.608	33.03
283.824	11.65
284.04	17.17
284.256	21.18
284.471	15.96
284.687	9.18
284.903	35.85
285.119	35.26
285.335	12.87
285.551	13.58
285.767	14.89
285.982	-0.17
286.198	0.04
286.414	39.25
286.63	30.16
286.846	47.51
287.061	19.71
287.277	34.23
287.493	12.87
287.709	14.54
287.924	-11.83
288.14	20.17
288.356	20.85
288.571	34.68
288.787	23.06
289.003	24.5
289.218	18.23
289.434	-12.69
289.65	-7.57
289.865	-2.62
290.081	13.09
290.296	23.87
290.512	34.74
290.727	-3.28
290.943	-1.35
291.159	-5.92
291.374	-8.25
291.59	-20.86
291.805	4.1
292.021	13.12
292.236	11.89
292.451	23.52
292.667	35.59
292.882	32.69
293.098	28.38
293.313	16.52
293.529	-5.79
293.744	-29.8
293.959	-20.17
294.175	-10.22
294.39	13.2
294.605	19.84
294.821	26.31
295.036	29.57
295.251	18.07
295.467	12.01
295.682	6.71
295.897	-20.43
296.112	-32.81
296.328	-18.9
296.543	-54.05
296.758	-62.07
296.973	-7
297.188	19.36
297.404	-8.14
297.619	1.8
297.834	4.55
298.049	-16.47
298.264	-49.68
298.479	-4.34
298.694	-13.4
298.909	8.62
299.125	16.61
299.34	30.46
299.555	8.97
299.77	28.68
299.985	-16.56
300.2	-55.74
300.415	-59.03
300.63	-30.42
300.845	-43.77
301.06	-38.12
301.275	-19.91
301.49	-11.24
301.704	-9.05
301.919	-11.13
302.134	-10.74
302.349	-12.74
302.564	-56.03
302.779	-61.92
302.994	-45.53
303.209	-46.12
303.423	-6.5
303.638	25.32
303.853	5.24
304.068	13.56
304.283	14.58
304.497	8.18
304.712	0.2
304.927	2.94
305.142	-3.28
305.356	9.78
305.571	-0.94
305.786	-8.28
306	-23.82
306.215	-28.59
306.43	-60.66
306.644	-44.08
306.859	-11.92
307.074	3.25
307.288	-16.94
307.503	-7.36
307.717	-12.5
307.932	-27.11
308.147	-23.28
308.361	2.2
308.576	-1.79
308.79	-20.19
309.005	6.91
309.219	26.71
309.434	17.85
309.648	22.29
309.863	32.28
310.077	30.86
310.292	0.93
310.506	-0.84
310.72	10.44
310.935	15.44
311.149	5.85
311.364	32.62
311.578	44.71
311.792	31.62
312.007	26.64
312.221	17.39
312.435	9.45
312.649	-4.73
312.864	24.24
313.078	49.51
313.292	94.91
313.507	67.97
313.721	118.11
313.935	42.22
314.149	16.71
314.363	16.81
314.578	18.22
314.792	13.5
315.006	12.55
315.22	32.45
315.434	28.3
315.648	33.8
315.862	28.73
316.077	21.81
316.291	-6.09
316.505	15.06
316.719	6.23
316.933	11.97
317.147	14.73
317.361	-25.9
317.575	-63.47
317.789	-77.9
318.003	-147.07
318.217	-114.97
318.431	-25.67
318.645	28.73
318.859	22.76
319.073	38.2
319.287	21.06
319.5	-4.98
319.714	-52.28
319.928	-57.41
320.142	-82.62
320.356	-39.46
320.57	-19.19
320.784	-35.7
320.997	-58.85
321.211	-31.9
321.425	-64.61
321.639	-97.68
321.853	-48.22
322.066	-28.83
322.28	-31.3
322.494	-10.28
322.707	12.58
322.921	5.79
323.135	13.08
323.349	24.05
323.562	-7.46
323.776	-2.39
323.989	-2.94
324.203	-22.36
324.417	-41.78
324.63	-52.19
324.844	-71.41
325.057	-62.35
325.271	-46.32
325.485	3.32
325.698	35.64
325.912	52.19
326.125	40.65
326.339	40.59
326.552	18.5
326.766	5.31
326.979	21.71
327.193	55.52
327.406	56.64
327.619	41.82
327.833	53.03
328.046	21.64
328.26	-19.46
328.473	-4.92
328.686	-17.43
328.9	-21
329.113	3.64
329.326	-2.19
329.54	-0.19
329.753	-11.89
329.966	-36.51
330.179	-41.57
330.393	-16.16
330.606	-15.9
330.819	6.8
331.032	22.18
331.246	30.12
331.459	41.89
331.672	42.58
331.885	36.69
332.098	24.2
332.311	16.01
332.525	-19.89
332.738	-56.55
332.951	-21.11
333.164	1.26
333.377	20.04
333.59	38.45
333.803	63.14
334.016	54.15
334.229	57.29
334.442	43.56
334.655	61.19
334.868	51.2
335.081	35.23
335.294	22.37
335.507	17.43
335.72	-1.58
335.933	-4.58
336.146	-3.96
336.359	-8.57
336.572	-39.83
336.785	-51.26
336.997	-27.26
337.21	2.44
337.423	16.41
337.636	39.07
337.849	45.3
338.062	19.1
338.274	8.97
338.487	-1.85
338.7	-7.21
338.913	-43.17
339.125	-61
339.338	-107.3
339.551	-92.98
339.763	-58.64
339.976	-21.73
340.189	18.61
340.402	25.66
340.614	22.67
340.827	17.77
341.039	19.82
341.252	31.14
341.465	34.68
341.677	23.84
341.89	3.39
342.102	9.41
342.315	-23.35
342.527	-58.26
342.74	-26.92
342.952	10.52
343.165	20.31
343.377	39.43
343.59	40.98
343.802	39.55
344.015	21.25
344.227	14.37
344.44	19.82
344.652	32.42
344.864	34.5
345.077	47.32
345.289	48.31
345.502	40.81
345.714	30.32
345.926	33.33
346.139	16.96
346.351	13.31
346.563	13.49
346.775	13.62
346.988	-5.24
347.2	-13.88
347.412	-47.2
347.624	-44.58
347.837	-52.25
348.049	-24.92
348.261	22.18
348.473	28.17
348.685	37.82
348.897	35.83
349.11	16.99
349.322	-9.88
349.534	-2.03
349.746	-2.81
349.958	6.71
350.17	14.43
350.382	26
350.594	29.34
350.806	37.13
351.018	32.18
351.23	26.66
351.442	7.33
351.654	0.31
351.866	-21.19
352.078	-33.32
352.29	-8.28
352.502	1.54
352.714	10.91
352.926	-10.73
353.138	-3.96
353.35	-11.91
353.561	-15.84
353.773	-39.07
353.985	-16.28
354.197	-10.73
354.409	-14.11
354.621	-17.56
354.832	4.58
355.044	9.8
355.256	4.71
355.468	23.47
355.679	28.23
355.891	37.96
356.103	35.01
356.314	41.8
356.526	37.55
356.738	39.22
356.949	20.76
357.161	14.6
357.373	-5.77
357.584	-22.99
357.796	0.3
358.008	0.55
358.219	11.65
358.431	18.63
358.642	33.01
358.854	9.32
359.065	12.85
359.277	-9.01
359.488	-9.86
359.7	-27.47
359.911	-32.19
360.123	-19.74
360.334	-31.04
360.546	-34.2
360.757	-34.2
360.969	-25.08
361.18	-40.33
361.391	-15.78
361.603	-26.2
361.814	-16.86
362.025	-16.1
362.237	-9.69
362.448	3.28
362.659	27.19
362.871	28.29
363.082	32.38
363.293	24.33
363.504	4.81
363.716	-26.72
363.927	-44.5
364.138	-52.27
364.349	-56.62
364.56	-39.2
364.772	-29.3
364.983	-4.38
365.194	-4.54
365.405	15.51
365.616	21.9
365.827	18.19
366.038	-11.09
366.25	-20.96
366.461	-51.63
366.672	-23.36
366.883	-2.07
367.094	14.79
367.305	11.63
367.516	18.08
367.727	-0.11
367.938	-9.45
368.149	-8.23
368.36	13.77
368.571	17.43
368.781	8.13
368.992	-9.85
369.203	-25.37
369.414	-51.84
369.625	-58.79
369.836	-56.22
370.047	-52.71
370.258	-33.27
370.468	-33.33
370.679	-41.12
370.89	-28.58
371.101	-10.08
371.312	-5.78
371.522	14.34
371.733	16.74
371.944	11.81
372.155	16.16
372.365	10.89
372.576	7.25
372.787	5.83
372.997	6.21
373.208	-0.41
373.419	20.17
373.629	2.75
373.84	-6.07
374.05	-22.87
374.261	-18.9
374.472	-37.95
374.682	-8.99
374.893	-3.17
375.103	33.33
375.314	32.33
375.524	27.6
375.735	29.59
375.945	40.55
376.156	17.88
376.366	12.28
376.577	15.78
376.787	9.55
376.997	4.93
377.208	4.64
377.418	7.95
377.629	16.93
377.839	16.21
378.049	18.21
378.26	32.92
378.47	35.76
378.68	13.49
378.89	9.52
379.101	0.02
379.311	-31.35
379.521	-58.89
379.732	-36.27
379.942	-23.19
380.152	-20.38
380.362	10.75
380.572	10.02
380.783	12.48
380.993	16.06
381.203	14.57
381.413	4.9
381.623	7.85
381.833	8.44
382.043	-3.53
382.253	-1.34
382.463	-2.76
382.674	-8.32
382.884	-22.49
383.094	-15.78
383.304	-10.83
383.514	-4.04
383.724	7.81
383.934	9.44
384.144	-7.27
384.353	-17.92
384.563	-20.78
384.773	-21.15
384.983	-25.76
385.193	-2.28
385.403	5.77
385.613	10.03
385.823	5.83
386.033	13.93
386.242	3.32
386.452	-2.9
386.662	-14.25
386.872	-3.88
387.082	-11.71
387.291	-15.74
387.501	-16.34
387.711	-4.59
387.921	-14.3
388.13	-11.25
388.34	-0.68
388.55	-4.74
388.759	-8.35
388.969	-1.26
389.179	-3.51
389.388	-8.29
389.598	-0.14
389.807	-3.94
390.017	-10.16
390.227	-2.88
390.436	-0.89
390.646	-1.1
390.855	1.79
391.065	3.57
391.274	0.25
391.484	0.11
391.693	-1.38
391.903	0.48
392.112	4.71
392.322	7.91
392.531	8.56
392.74	9.64
392.95	5.85
393.159	3.23
393.369	1.56
393.578	1.75
393.787	1.56
393.997	3.03
394.206	2.74
394.415	2.01
394.625	2.7
394.834	1.2
395.043	2.85
395.252	4.37
395.462	6.53
395.671	6.8
395.88	7.32
396.089	7.46
396.298	7.05
396.508	5.99
396.717	4.94
396.926	6.2
397.135	5.41
397.344	5.15
397.553	6.04
397.762	7.72
397.971	7.58
398.181	7.61
398.39	7.18
398.599	6.47
398.808	5.93
399.017	5.71
399.226	6.77
399.435	7.13
399.644	7.51
399.853	6.67
400.062	6.79
400.27	6.09
400.479	5.65
400.688	5.03
400.897	5.41
401.106	4.91
401.315	4.98
401.524	5.24
401.733	5.23
401.941	5.7
402.15	6.04
402.359	5.71
402.568	6.01
402.777	6.22
402.985	5.89
403.194	5.71
403.403	5.96
403.612	5.7
403.82	5.59
404.029	5.61
404.238	5.61
404.446	5.9
404.655	5.81
404.864	5.75
405.072	5.47
405.281	5.59
405.489	5.31
405.698	5.27
405.906	5.36
406.115	5.47
406.324	5.39
406.532	5.44
406.741	5.73
406.949	5.73
407.158	5.68
407.366	5.81
407.574	5.83
407.783	5.68
407.991	5.51
408.2	5.58
408.408	5.55
408.617	5.45
408.825	5.27
409.033	5.37
409.242	5.49
409.45	5.4
409.658	5.24
409.867	5.36
410.075	5.27
410.283	5.17
410.491	5.06
410.7	5.01
410.908	5.12
411.116	5.33
411.324	5.23
411.533	5.21
411.741	5.46
411.949	5.29
412.157	5.02
412.365	4.99
412.573	5.01
412.781	4.97
412.99	4.87
413.198	4.98
413.406	5.11
413.614	5.19
413.822	5.03
414.03	5.03
414.238	4.93
414.446	4.85
414.654	4.69
414.862	4.73
415.07	4.85
415.278	5.06
415.486	4.9
415.694	5.03
415.902	4.91
416.109	4.9
416.317	4.73
416.525	4.51
416.733	4.41
416.941	4.58
417.149	4.42
417.357	4.41
417.564	4.59
417.772	4.74
417.98	4.6
418.188	4.62
418.395	4.62
418.603	4.85
418.811	4.45
419.019	4.32
419.226	4.54
419.434	4.6
419.642	4.32
419.849	4.58
420.057	4.68
420.265	4.62
420.472	4.52
420.68	4.63
420.887	4.57
421.095	4.68
421.302	4.58
421.51	4.73
421.717	4.88
421.925	4.9
422.132	4.69
422.34	4.38
422.547	4.29
422.755	4.17
422.962	4.05
423.17	4.19
423.377	4.4
423.585	4.39
423.792	4.27
423.999	4.39
424.207	4.31
424.414	4.37
424.621	4.26
424.829	4.33
425.036	4.27
425.243	4.24
425.451	4.14
425.658	4.09
425.865	4.15
426.072	4.16
426.28	4.38
426.487	4.34
426.694	4.3
426.901	4.12
427.108	4.15
427.315	4.13
427.523	4.44
427.73	4.64
427.937	4.69
428.144	4.63
428.351	4.49
428.558	4.35
428.765	4.28
428.972	4.15
429.179	4.28
429.386	4.45
429.593	4.36
429.8	4.19
430.007	4.46
430.214	4.35
430.421	4.14
430.628	4.04
430.835	4.09
431.042	4.08
431.249	4.24
431.456	4.28
431.662	4.49
431.869	4.72
432.076	4.73
432.283	4.79
432.49	4.76
432.697	4.66
432.903	4.4
433.11	4.35
433.317	4.32
433.524	4.52
433.73	4.59
433.937	4.86
434.144	4.82
434.35	4.79
434.557	4.63
434.764	4.67
434.97	4.52
435.177	4.66
435.384	4.61
435.59	4.79
435.797	4.92
436.003	5.06
436.21	5.08
436.416	5.23
436.623	5.16
436.829	5.18
437.036	5.26
437.242	5.29
437.449	5.27
437.655	5.32
437.862	5.26
438.068	5.21
438.275	5.28
438.481	5.37
438.687	5.36
438.894	5.34
439.1	5.4
439.307	5.46
439.513	5.4
439.719	5.42
439.926	5.55
440.132	5.54
440.338	5.46
440.544	5.5
440.751	5.49
440.957	5.56
441.163	5.49
441.369	5.52
441.575	5.48
441.782	5.52
441.988	5.31
442.194	5.4
442.4	5.39
442.606	5.65
442.812	5.69
443.018	5.74
443.224	5.73
443.431	5.85
443.637	5.57
443.843	5.52
444.049	5.61
444.255	5.59
444.461	5.67
444.667	5.7
444.873	5.94
445.079	6.03
445.284	6.09
445.49	5.89
445.696	5.85
445.902	5.71
446.108	5.56
446.314	5.5
446.52	5.54
446.726	5.78
446.931	5.72
447.137	5.84
447.343	5.92
447.549	5.89
447.755	5.74
447.96	5.8
448.166	5.77
448.372	5.73
448.578	5.85
448.783	5.89
448.989	5.94
449.195	6.06
449.4	6.07
449.606	6.05
449.812	5.98
450.017	5.9
450.223	5.79
450.428	5.74
450.634	5.76
450.84	5.79
451.045	5.89
451.251	5.83
451.456	6.05
451.662	6.09
451.867	6.24
452.073	6.27
452.278	6.42
452.483	6.48
452.689	6.44
452.894	6.4
453.1	6.35
453.305	6.28
453.51	6.2
453.716	6.22
453.921	6.26
454.127	6.27
454.332	6.22
454.537	6.19
454.742	6.17
454.948	6.15
455.153	6.17
455.358	6.3
455.563	6.38
455.769	6.48
455.974	6.44
456.179	6.36
456.384	6.29
456.589	6.23
456.795	6.01
457	5.97
457.205	6.12
457.41	6.18
457.615	6.15
457.82	6.25
458.025	6.36
458.23	6.26
458.435	6.21
458.64	6.19
458.845	6.32
459.05	6.26
459.255	6.29
459.46	6.32
459.665	6.38
459.87	6.39
460.075	6.47
460.28	6.44
460.485	6.53
460.69	6.51
460.895	6.35
461.099	6.3
461.304	6.49
461.509	6.45
461.714	6.43
461.919	6.64
462.123	6.55
462.328	6.6
462.533	6.58
462.738	6.75
462.942	6.68
463.147	6.82
463.352	6.72
463.556	6.67
463.761	6.62
463.966	6.62
464.17	6.58
464.375	6.59
464.58	6.66
464.784	6.57
464.989	6.51
465.193	6.59
465.398	6.59
465.602	6.64
465.807	6.73
466.011	6.87
466.216	6.8
466.42	6.84
466.625	6.86
466.829	6.93
467.034	6.94
467.238	7.08
467.443	7.06
467.647	7.03
467.851	7.06
468.056	7.11
468.26	7.12
468.464	7.12
468.669	7.17
468.873	7.31
469.077	7.32
469.282	7.38
469.486	7.37
469.69	7.52
469.894	7.41
470.099	7.4
470.303	7.44
470.507	7.46
470.711	7.33
470.915	7.34
471.119	7.32
471.324	7.28
471.528	7.33
471.732	7.4
471.936	7.45
472.14	7.5
472.344	7.58
472.548	7.72
472.752	7.8
472.956	7.94
473.16	7.92
473.364	7.84
473.568	7.84
473.772	7.9
473.976	7.79
474.18	7.91
474.384	7.99
474.588	7.95
474.792	7.91
474.995	8.02
475.199	8.14
475.403	8.21
475.607	8.34
475.811	8.29
476.015	8.31
476.218	8.29
476.422	8.15
476.626	8.14
476.83	8.3
477.033	8.21
477.237	8.13
477.441	8.25
477.644	8.28
477.848	8.28
478.052	8.3
478.255	8.35
478.459	8.41
478.663	8.48
478.866	8.44
479.07	8.49
479.273	8.62
479.477	8.69
479.681	8.66
479.884	8.62
480.088	8.65
480.291	8.65
480.495	8.6
480.698	8.63
480.901	8.73
481.105	8.83
481.308	8.8
481.512	8.82
481.715	8.88
481.919	8.97
482.122	8.96
482.325	8.97
482.529	9.01
482.732	8.99
482.935	8.93
483.138	8.89
483.342	8.96
483.545	8.95
483.748	9.02
483.952	9.1
484.155	9.2
484.358	9.14
484.561	9.17
484.764	9.12
484.967	9.15
485.171	9.18
485.374	9.18
485.577	9.26
485.78	9.33
485.983	9.3
486.186	9.2
486.389	9.2
486.592	9.16
486.795	9.2
486.998	9.19
487.201	9.28
487.404	9.43
487.607	9.55
487.81	9.51
488.013	9.57
488.216	9.6
488.419	9.6
488.622	9.51
488.825	9.48
489.028	9.44
489.231	9.44
489.433	9.3
489.636	9.23
489.839	9.21
490.042	9.18
490.245	9.12
490.447	9.15
490.65	9.2
490.853	9.27
491.056	9.38
491.258	9.42
491.461	9.46
491.664	9.55
491.866	9.55
492.069	9.62
492.272	9.65
492.474	9.74
492.677	9.69
492.879	9.7
493.082	9.62
493.285	9.71
493.487	9.71
493.69	9.74
493.892	9.73
494.095	9.74
494.297	9.63
494.5	9.68
494.702	9.69
494.905	9.71
495.107	9.74
495.309	9.82
495.512	9.87
495.714	9.94
495.917	10.07
496.119	10.16
496.321	10.23
496.524	10.28
496.726	10.25
496.928	10.21
497.13	10.16
497.333	10.18
497.535	10.16
497.737	10.27
497.939	10.27
498.142	10.31
498.344	10.27
498.546	10.25
498.748	10.2
498.95	10.35
499.152	10.38
499.355	10.51
499.557	10.58
499.759	10.74
499.961	10.73
500.163	10.82
500.365	10.77
500.567	10.82
500.769	10.72
500.971	10.76
501.173	10.74
501.375	10.79
501.577	10.77
501.779	10.83
501.981	10.87
502.183	10.86
502.385	10.82
502.587	10.88
502.788	11
502.99	10.99
503.192	11.1
503.394	11.15
503.596	11.15
503.798	11.15
503.999	11.21
504.201	11.23
504.403	11.34
504.605	11.47
504.806	11.45
505.008	11.48
505.21	11.56
505.411	11.61
505.613	11.6
505.815	11.68
506.016	11.69
506.218	11.75
506.42	11.74
506.621	11.82
506.823	11.87
507.024	11.95
507.226	11.97
507.427	11.99
507.629	12
507.83	12.08
508.032	12.09
508.233	12.17
508.435	12.27
508.636	12.35
508.838	12.28
509.039	12.35
509.24	12.4
509.442	12.46
509.643	12.38
509.845	12.51
510.046	12.58
510.247	12.62
510.448	12.64
510.65	12.8
510.851	12.89
511.052	12.86
511.254	12.91
511.455	12.99
511.656	12.99
511.857	12.99
512.058	13.05
512.26	13.06
512.461	13.11
512.662	13.23
512.863	13.22
513.064	13.28
513.265	13.36
513.466	13.43
513.667	13.42
513.868	13.42
514.069	13.53
514.27	13.51
514.471	13.38
514.672	13.47
514.873	13.59
515.074	13.63
515.275	13.63
515.476	13.76
515.677	13.76
515.878	13.87
516.079	13.86
516.28	13.95
516.481	14.09
516.682	14.14
516.882	14.05
517.083	14.04
517.284	14
517.485	13.97
517.686	13.93
517.886	14.01
518.087	14.03
518.288	14.07
518.488	14.09
518.689	14.16
518.89	14.17
519.091	14.31
519.291	14.38
519.492	14.41
519.692	14.46
519.893	14.52
520.094	14.47
520.294	14.45
520.495	14.4
520.695	14.44
520.896	14.42
521.096	14.45
521.297	14.57
521.497	14.61
521.698	14.6
521.898	14.66
522.099	14.76
522.299	14.81
522.499	14.9
522.7	14.95
522.9	14.93
523.101	14.92
523.301	14.93
523.501	14.92
523.702	14.97
523.902	15.11
524.102	15.19
524.302	15.14
524.503	15.17
524.703	15.2
524.903	15.16
525.103	15.17
525.304	15.23
525.504	15.31
525.704	15.37
525.904	15.41
526.104	15.45
526.304	15.52
526.504	15.52
526.705	15.49
526.905	15.51
527.105	15.58
527.305	15.58
527.505	15.58
527.705	15.58
527.905	15.65
528.105	15.65
528.305	15.7
528.505	15.73
528.705	15.81
528.905	15.78
529.105	15.79
529.304	15.8
529.504	15.92
529.704	15.92
529.904	15.95
530.104	15.93
530.304	15.96
530.503	15.95
530.703	15.95
530.903	15.96
531.103	16.04
531.303	16.09
531.502	16.13
531.702	16.19
531.902	16.17
532.101	16.14
532.301	16.2
532.501	16.12
532.7	16.17
532.9	16.3
533.1	16.37
533.299	16.39
533.499	16.53
533.698	16.49
533.898	16.49
534.097	16.56
534.297	16.61
534.496	16.62
534.696	16.75
534.895	16.86
535.095	16.9
535.294	16.88
535.494	16.9
535.693	16.88
535.892	16.9
536.092	16.91
536.291	16.98
536.491	17.09
536.69	17.13
536.889	17.13
537.088	17.09
537.288	17.19
537.487	17.17
537.686	17.23
537.886	17.25
538.085	17.35
538.284	17.36
538.483	17.35
538.682	17.41
538.882	17.47
539.081	17.61
539.28	17.64
539.479	17.73
539.678	17.7
539.877	17.74
540.076	17.75
540.275	17.75
540.474	17.78
540.673	17.87
540.872	17.88
541.071	17.91
541.27	18.02
541.469	18.1
541.668	18.16
541.867	18.25
542.066	18.33
542.265	18.4
542.464	18.44
542.663	18.57
542.862	18.69
543.06	18.77
543.259	18.83
543.458	18.91
543.657	18.87
543.856	18.93
544.054	18.85
544.253	18.84
544.452	18.86
544.651	19.02
544.849	19.05
545.048	19.26
545.247	19.38
545.445	19.5
545.644	19.55
545.843	19.58
546.041	19.63
546.24	19.75
546.438	19.84
546.637	19.85
546.836	20.03
547.034	20.07
547.233	20.05
547.431	20.1
547.63	20.21
547.828	20.24
548.027	20.31
548.225	20.35
548.423	20.37
548.622	20.45
548.82	20.5
549.019	20.59
549.217	20.78
549.415	20.91
549.614	21.07
549.812	21.16
550.01	21.12
550.209	21.15
550.407	21.3
550.605	21.31
550.803	21.48
551.002	21.66
551.2	21.78
551.398	21.86
551.596	22.03
551.794	22.06
551.993	22.15
552.191	22.22
552.389	22.32
552.587	22.29
552.785	22.42
552.983	22.53
553.181	22.67
553.379	22.77
553.577	22.91
553.775	22.96
553.973	23.05
554.171	23.21
554.369	23.33
554.567	23.42
554.765	23.47
554.963	23.64
555.161	23.58
555.359	23.72
555.557	23.89
555.755	24.05
555.952	24.13
556.15	24.28
556.348	24.32
556.546	24.43
556.744	24.48
556.941	24.53
557.139	24.63
557.337	24.68
557.535	24.65
557.732	24.9
557.93	25.1
558.128	25.25
558.325	25.42
558.523	25.55
558.721	25.57
558.918	25.67
559.116	25.71
559.313	25.71
559.511	25.96
559.708	26.1
559.906	26.16
560.104	26.31
560.301	26.55
560.498	26.65
560.696	26.81
560.893	26.94
561.091	27.09
561.288	27.12
561.486	27.15
561.683	27.27
561.88	27.39
562.078	27.51
562.275	27.74
562.473	27.89
562.67	28
562.867	28.05
563.064	28.18
563.262	28.26
563.459	28.33
563.656	28.43
563.853	28.65
564.051	28.74
564.248	28.88
564.445	29.03
564.642	29.13
564.839	29.22
565.036	29.42
565.234	29.63
565.431	29.74
565.628	29.84
565.825	29.91
566.022	30.08
566.219	30.08
566.416	30.2
566.613	30.31
566.81	30.41
567.007	30.33
567.204	30.36
567.401	30.46
567.598	30.51
567.795	30.75
567.991	30.89
568.188	31.07
568.385	31.1
568.582	31.3
568.779	31.32
568.976	31.37
569.172	31.42
569.369	31.48
569.566	31.47
569.763	31.58
569.96	31.66
570.156	31.69
570.353	31.74
570.55	31.83
570.746	31.71
570.943	31.68
571.14	31.66
571.336	31.76
571.533	31.83
571.729	31.84
571.926	32.03
572.123	32.13
572.319	32.14
572.516	32.03
572.712	32.24
572.909	32.17
573.105	32.25
573.302	32.25
573.498	32.39
573.695	32.33
573.891	32.46
574.087	32.44
574.284	32.51
574.48	32.47
574.677	32.52
574.873	32.39
575.069	32.52
575.266	32.53
575.462	32.57
575.658	32.57
575.854	32.78
576.051	32.77
576.247	32.77
576.443	32.78
576.639	32.72
576.835	32.62
577.032	32.46
577.228	32.58
577.424	32.56
577.62	32.6
577.816	32.64
578.012	32.8
578.208	32.69
578.404	32.79
578.6	32.8
578.796	32.85
578.993	32.75
579.189	32.68
579.384	32.53
579.58	32.56
579.776	32.42
579.972	32.41
580.168	32.42
580.364	32.51
580.56	32.37
580.756	32.36
580.952	32.39
581.148	32.41
581.343	32.38
581.539	32.47
581.735	32.47
581.931	32.42
582.127	32.42
582.322	32.32
582.518	32.32
582.714	32.38
582.909	32.47
583.105	32.47
583.301	32.49
583.496	32.55
583.692	32.5
583.888	32.42
584.083	32.41
584.279	32.45
584.474	32.43
584.67	32.47
584.866	32.5
585.061	32.45
585.257	32.46
585.452	32.42
585.648	32.37
585.843	32.36
586.039	32.34
586.234	32.3
586.429	32.36
586.625	32.38
586.82	32.3
587.015	32.32
587.211	32.23
587.406	32.13
587.601	32.11
587.797	32.15
587.992	32.21
588.187	32.36
588.383	32.35
588.578	32.36
588.773	32.4
588.968	32.38
589.163	32.51
589.359	32.58
589.554	32.6
589.749	32.64
589.944	32.71
590.139	32.63
590.334	32.62
590.529	32.62
590.724	32.68
590.919	32.77
591.114	32.83
591.309	32.9
591.504	33.03
591.699	33.02
591.894	33.03
592.089	33.01
592.284	33.09
592.479	33.2
592.674	33.32
592.869	33.39
593.064	33.42
593.259	33.55
593.454	33.61
593.648	33.64
593.843	33.58
594.038	33.7
594.233	33.69
594.428	33.71
594.622	33.77
594.817	33.95
595.012	33.95
595.206	34.04
595.401	34.06
595.596	33.99
595.79	34.08
595.985	34.34
596.18	34.39
596.374	34.52
596.569	34.82
596.763	34.86
596.958	34.92
597.153	34.96
597.347	34.88
597.542	34.96
597.736	34.94
597.931	34.99
598.125	35.06
598.319	35.28
598.514	35.2
598.708	35.32
598.903	35.37
599.097	35.49
599.291	35.54
599.486	35.6
599.68	35.64
599.874	35.76
600.069	35.79
600.263	35.81
600.457	35.98
600.651	36.08
600.846	36.11
601.04	36.16
601.234	36.16
601.428	36.18
601.622	36.17
601.817	36.15
602.011	36.25
602.205	36.33
602.399	36.37
602.593	36.44
602.787	36.48
602.981	36.47
603.175	36.53
603.369	36.48
603.563	36.47
603.757	36.49
603.951	36.43
604.145	36.34
604.339	36.33
604.533	36.27
604.727	36.2
604.921	36.17
605.115	36.35
605.309	36.42
605.502	36.48
605.696	36.48
605.89	36.49
606.084	36.3
606.278	36.15
606.471	36.03
606.665	35.91
606.859	35.84
607.053	35.83
607.246	35.84
607.44	35.89
607.634	35.97
607.827	36.02
608.021	35.95
608.214	35.94
608.408	35.75
608.602	35.72
608.795	35.65
608.989	35.7
609.182	35.65
609.376	35.62
609.569	35.47
609.763	35.25
609.956	35.04
610.15	34.93
610.343	34.88
610.537	34.76
610.73	34.71
610.923	34.71
611.117	34.7
611.31	34.61
611.504	34.53
611.697	34.54
611.89	34.31
612.083	34.18
612.277	34.19
612.47	34.16
612.663	34.01
612.856	34.08
613.05	33.89
613.243	33.74
613.436	33.71
613.629	33.76
613.822	33.57
614.015	33.63
614.209	33.48
614.402	33.38
614.595	33.27
614.788	33.23
614.981	33.1
615.174	33.05
615.367	33.02
615.56	32.85
615.753	32.81
615.946	32.63
616.139	32.65
616.332	32.66
616.525	32.66
616.718	32.64
616.911	32.71
617.103	32.6
617.296	32.46
617.489	32.44
617.682	32.38
617.875	32.4
618.067	32.36
618.26	32.27
618.453	32.26
618.646	32.21
618.838	32.14
619.031	32.23
619.224	32.25
619.417	32.19
619.609	32.16
619.802	32.1
619.994	32
620.187	31.85
620.38	31.8
620.572	31.69
620.765	31.64
620.957	31.42
621.15	31.47
621.342	31.33
621.535	31.31
621.727	31.25
621.92	31.33
622.112	31.23
622.305	31.38
622.497	31.34
622.69	31.33
622.882	31.25
623.074	31.45
623.267	31.28
623.459	31.19
623.651	31.11
623.844	31.14
624.036	30.94
624.228	30.9
624.42	30.92
624.613	30.99
624.805	30.98
624.997	31.05
625.189	31.04
625.381	31.1
625.574	30.97
625.766	30.92
625.958	30.87
626.15	30.91
626.342	30.84
626.534	30.96
626.726	30.98
626.918	30.93
627.11	30.82
627.302	30.76
627.494	30.73
627.686	30.66
627.878	30.57
628.07	30.61
628.262	30.56
628.454	30.44
628.646	30.41
628.838	30.35
629.029	30.21
629.221	30.19
629.413	30.1
629.605	30.01
629.797	29.98
629.989	30.1
630.18	30.07
630.372	30.15
630.564	30.17
630.755	30.23
630.947	30.2
631.139	30.1
631.33	29.98
631.522	30.07
631.714	29.97
631.905	29.82
632.097	30
632.289	30.06
632.48	29.97
632.672	29.86
632.863	29.84
633.055	29.64
633.246	29.57
633.438	29.44
633.629	29.46
633.821	29.47
634.012	29.4
634.203	29.3
634.395	29.31
634.586	29.3
634.777	29.24
634.969	29.34
635.16	29.43
635.351	29.43
635.543	29.51
635.734	29.53
635.925	29.47
636.117	29.38
636.308	29.34
636.499	29.2
636.69	29.08
636.881	29.07
637.073	29.11
637.264	29.03
637.455	29.05
637.646	29.12
637.837	29.12
638.028	29.03
638.219	29.11
638.41	29.05
638.601	29.04
638.792	29.08
638.983	29.09
639.174	29.01
639.365	29
639.556	28.84
639.747	28.73
639.938	28.72
640.129	28.7
640.32	28.7
640.511	28.82
640.701	28.83
640.892	28.65
641.083	28.65
641.274	28.65
641.465	28.54
641.655	28.46
641.846	28.49
642.037	28.39
642.228	28.36
642.418	28.4
642.609	28.36
642.8	28.39
642.99	28.33
643.181	28.34
643.372	28.29
643.562	28.32
643.753	28.28
643.943	28.19
644.134	27.99
644.324	27.91
644.515	27.78
644.705	27.81
644.896	27.81
645.086	27.81
645.277	27.79
645.467	27.81
645.658	27.73
645.848	27.8
646.038	27.81
646.229	27.78
646.419	27.67
646.61	27.65
646.8	27.5
646.99	27.38
647.18	27.35
647.371	27.31
647.561	27.25
647.751	27.18
647.941	27.13
648.132	27.08
648.322	27.07
648.512	26.98
648.702	26.98
648.892	27.01
649.082	26.98
649.272	26.83
649.462	26.64
649.653	26.57
649.843	26.55
650.033	26.41
650.223	26.43
650.413	26.53
650.603	26.49
650.793	26.41
650.983	26.34
651.172	26.28
651.362	26.12
651.552	26.02
651.742	25.86
651.932	25.84
652.122	25.85
652.312	25.87
652.502	25.88
652.691	25.78
652.881	25.66
653.071	25.44
653.261	25.3
653.45	25.06
653.64	25.11
653.83	24.99
654.019	24.93
654.209	24.83
654.399	24.85
654.588	24.65
654.778	24.52
654.968	24.35
655.157	24.23
655.347	24.02
655.536	23.85
655.726	23.58
655.915	23.47
656.105	23.23
656.294	23.16
656.484	22.96
656.673	22.89
656.863	22.73
657.052	22.67
657.241	22.38
657.431	22.21
657.62	22.03
657.809	21.72
657.999	21.43
658.188	21.3
658.377	21.12
658.567	20.87
658.756	20.68
658.945	20.49
659.134	20.16
659.324	19.93
659.513	19.77
659.702	19.56
659.891	19.43
660.08	19.25
660.269	19.1
660.458	18.93
660.648	18.72
660.837	18.5
661.026	18.35
661.215	18.01
661.404	17.72
661.593	17.7
661.782	17.4
661.971	17.28
662.16	17.3
662.349	17.19
662.538	16.8
662.726	16.66
662.915	16.39
663.104	16.06
663.293	15.89
663.482	15.79
663.671	15.66
663.86	15.49
664.048	15.41
664.237	15.21
664.426	15.05
664.615	14.87
664.803	14.71
664.992	14.4
665.181	14.25
665.369	14.05
665.558	13.93
665.747	13.88
665.935	13.9
666.124	13.9
666.312	13.83
666.501	13.69
666.69	13.43
666.878	13.24
667.067	12.98
667.255	12.98
667.444	13.19
667.632	13.32
667.82	13.48
668.009	13.46
668.197	13.39
668.386	12.99
668.574	12.93
668.762	12.7
668.951	12.53
669.139	12.42
669.327	12.34
669.516	12.26
669.704	12.14
669.892	12.3
670.08	12.32
670.269	12.26
670.457	12.11
670.645	12.01
670.833	12.04
671.021	11.94
671.21	12.01
671.398	12.14
671.586	12.2
671.774	12
671.962	12.05
672.15	12.07
672.338	11.97
672.526	12.04
672.714	12.04
672.902	12.05
673.09	12.12
673.278	12.27
673.466	12.28
673.654	12.42
673.842	12.44
674.03	12.45
674.218	12.27
674.405	12.3
674.593	12.28
674.781	12.31
674.969	12.32
675.157	12.44
675.344	12.49
675.532	12.64
675.72	12.72
675.908	12.84
676.095	12.86
676.283	12.98
676.471	13.08
676.658	13.16
676.846	13.1
677.033	13.25
677.221	13.36
677.409	13.18
677.596	13.29
677.784	13.36
677.971	13.4
678.159	13.38
678.346	13.57
678.534	13.59
678.721	13.95
678.909	14.12
679.096	14.18
679.283	14.34
679.471	14.54
679.658	14.56
679.846	14.79
680.033	15.22
680.22	15.41
680.408	15.42
680.595	15.47
680.782	15.44
680.969	15.38
681.157	15.65
681.344	15.9
681.531	16.08
681.718	16.35
681.905	16.58
682.093	16.69
682.28	17.04
682.467	17.47
682.654	17.67
682.841	17.87
683.028	18.18
683.215	18.39
683.402	18.44
683.589	18.79
683.776	19.16
683.963	19.29
684.15	19.42
684.337	19.77
684.524	20.06
684.711	20.28
684.898	20.39
685.085	20.85
685.271	21.35
685.458	21.63
685.645	22.01
685.832	22.68
686.019	23.12
686.205	23.3
686.392	23.77
686.579	24.18
686.766	24.79
686.952	25.24
687.139	25.98
687.326	26.28
687.512	26.73
687.699	27.1
687.886	27.54
688.072	27.94
688.259	28.62
688.445	29.31
688.632	29.82
688.818	30.36
689.005	30.89
689.191	31.47
689.378	32.16
689.564	32.74
689.751	33.3
689.937	33.85
690.124	34.43
690.31	34.85
690.496	35.43
690.683	36.22
690.869	36.88
691.055	37.56
691.242	38.48
691.428	39.25
691.614	39.84
691.8	40.64
691.987	41.27
692.173	41.85
692.359	42.55
692.545	43.3
692.731	43.73
692.918	44.41
693.104	45
693.29	45.61
693.476	46.11
693.662	46.83
693.848	47.56
694.034	48.22
694.22	48.64
694.406	49.49
694.592	50.52
694.778	51.16
694.964	51.72
695.15	52.51
695.336	53.01
695.522	53.58
695.708	54.27
695.894	55.11
696.08	55.89
696.265	56.51
696.451	57.21
696.637	57.72
696.823	58.09
697.009	58.67
697.194	59.34
697.38	59.59
697.566	60.29
697.751	60.89
697.937	61.61
698.123	61.92
698.308	62.54
698.494	62.93
698.68	63.34
698.865	63.88
699.051	64.81
699.236	65.11
699.422	65.67
699.607	66.15
699.793	66.46
699.978	66.56
700.164	67.07
700.349	67.46
700.535	68
700.72	68.37
700.906	69.33
701.091	69.78
701.276	70.34
701.462	71.08
701.647	71.69
701.832	71.88
702.018	72.26
702.203	72.34
702.388	72.29
702.573	72.27
702.759	72.64
702.944	72.99
703.129	73.36
703.314	73.95
703.499	74.39
703.684	74.65
703.87	75.46
704.055	76.19
704.24	76.26
704.425	77.09
704.61	77.51
704.795	77.46
704.98	77.57
705.165	77.99
705.35	77.95
705.535	77.91
705.72	78.03
705.905	78.45
706.09	79.16
706.275	79.42
706.459	79.81
706.644	80.19
706.829	80.29
707.014	79.94
707.199	80.3
707.384	80.55
707.568	80.78
707.753	81.22
707.938	81.52
708.123	81.21
708.307	81.3
708.492	81.69
708.677	81.99
708.861	82.15
709.046	82.01
709.231	82.6
709.415	83
709.6	82.63
709.784	82.68
709.969	83.14
710.153	83.05
710.338	82.7
710.522	83.18
710.707	83.52
710.891	83.62
711.076	83.7
711.26	83.77
711.445	83.97
711.629	84.17
711.813	84.71
711.998	84.92
712.182	85
712.366	85.04
712.551	85.35
712.735	85.35
712.919	85.04
713.103	85.46
713.288	85.65
713.472	85.61
713.656	86.01
713.84	86.58
714.024	87.09
714.208	86.96
714.393	87.12
714.577	87.33
714.761	87.43
714.945	87.16
715.129	87.36
715.313	87.28
715.497	86.92
715.681	87.38
715.865	87.23
716.049	87.42
716.233	87.38
716.417	87.99
716.601	87.53
716.785	87.74
716.968	87.45
717.152	87.6
717.336	87.53
717.52	87.61
717.704	87.78
717.888	87.77
718.071	88.4
718.255	88.32
718.439	87.87
718.622	87.58
718.806	88.37
718.99	87.71
719.174	87.57
719.357	88.42
719.541	88.67
719.724	88.19
719.908	88.98
720.092	89.41
720.275	89.48
720.459	89.5
720.642	89.9
720.826	89.37
721.009	89.25
721.193	88.94
721.376	89.08
721.559	88.98
721.743	89.26
721.926	89.27
722.11	89.52
722.293	88.88
722.476	88.38
722.66	88.04
722.843	88.28
723.026	88.09
723.21	88.83
723.393	89.83
723.576	90.15
723.759	89.9
723.942	90.01
724.126	89.56
724.309	88.86
724.492	89.02
724.675	88.55
724.858	88.75
725.041	89.56
725.224	90.01
725.407	90.03
725.59	91.13
725.774	90.89
725.957	90.31
726.14	89.74
726.322	89.77
726.505	89.09
726.688	89.69
726.871	89.78
727.054	90.59
727.237	90.53
727.42	90.83
727.603	90.45
727.786	91.03
727.968	90.88
728.151	90.86
728.334	90.57
728.517	90.68
728.699	90.7
728.882	90.39
729.065	91.12
729.248	91.17
729.43	90.89
729.613	91.27
729.796	92.24
729.978	91.63
730.161	92.23
730.343	92.4
730.526	92.67
730.708	91.93
730.891	92.37
731.073	92.33
731.256	91.78
731.438	91.07
731.621	91.4
731.803	91.22
731.986	90.82
732.168	91.12
732.35	91.46
732.533	91.88
732.715	92.05
732.898	92.17
733.08	92.45
733.262	91.8
733.444	91.07
733.627	90.89
733.809	91.56
733.991	92.54
734.173	92.46
734.355	92.81
734.538	93.49
734.72	93.56
734.902	93.18
735.084	94.33
735.266	94.32
735.448	94.05
735.63	93.69
735.812	93.64
735.994	93.59
736.176	93.97
736.358	93.51
736.54	94.25
736.722	93.34
736.904	93.1
737.086	93.06
737.268	94.5
737.45	94.55
737.632	95.48
737.814	95.21
737.995	94.89
738.177	93.51
738.359	92.25
738.541	92.48
738.723	92.48
738.904	92.71
739.086	93.57
739.268	94.46
739.449	95.58
739.631	95.59
739.813	95.87
739.994	95.5
740.176	95.67
740.358	94.43
740.539	95.05
740.721	95.79
740.902	96.37
741.084	96.36
741.265	96.4
741.447	96.33
741.628	95.53
741.81	94.53
741.991	94.81
742.172	94.65
742.354	94.89
742.535	95.22
742.717	95.53
742.898	95.58
743.079	96.53
743.261	95.83
743.442	95.1
743.623	95.86
743.804	96.34
743.986	96.44
744.167	95.87
744.348	96.29
744.529	95.75
744.71	93.82
744.891	92.7
745.073	92.36
745.254	91.32
745.435	90.63
745.616	90.93
745.797	91.14
745.978	91.78
746.159	93.11
746.34	92.73
746.521	94.56
746.702	93.56
746.883	93.48
747.064	93.02
747.245	94.42
747.426	93.78
747.606	93.58
747.787	93.82
747.968	93.32
748.149	93.39
748.33	93.12
748.51	94.1
748.691	94.36
748.872	94.96
749.053	94.88
749.233	94.48
749.414	94.22
749.595	93.08
749.775	92.1
749.956	90.71
750.137	90.59
750.317	91.7
750.498	93.7
750.678	94.34
750.859	95.42
751.04	95.45
751.22	93.67
751.4	92.32
751.581	91.7
751.761	91.44
751.942	90.81
752.122	91.67
752.303	92.13
752.483	92.55
752.663	92.63
752.844	93.33
753.024	94.15
753.204	95.12
753.385	93.93
753.565	94.38
753.745	94.19
753.925	93.02
754.106	90.65
754.286	91.77
754.466	90.97
754.646	90.98
754.826	90.61
755.006	90.8
755.187	91.61
755.367	92.24
755.547	92.03
755.727	93.91
755.907	95.16
756.087	94.44
756.267	94.15
756.447	93.86
756.627	91.62
756.807	91.93
756.987	92.14
757.167	90.44
757.346	90.5
757.526	91.47
757.706	91.5
757.886	92.06
758.066	94.92
758.246	95.74
758.425	95.02
758.605	94.47
758.785	93.97
758.965	91.9
759.144	90.47
759.324	92.15
759.504	92.48
759.683	91.74
759.863	91.13
760.043	90.84
760.222	89.56
760.402	88.74
760.581	88.63
760.761	90.88
760.94	91.59
761.12	91.84
761.299	91.7
761.479	91.65
761.658	90.12
761.838	88.67
762.017	88.74
762.197	89.91
762.376	89.64
762.555	90.5
762.735	91.98
762.914	90.15
763.093	89.57
763.273	89.87
763.452	89.16
763.631	88.84
763.81	90.16
763.99	89.72
764.169	89.6
764.348	88.36
764.527	87.84
764.706	89.22
764.885	89.89
765.064	90.06
765.243	90.9
765.423	93.35
765.602	92.9
765.781	90.98
765.96	89.38
766.139	88.42
766.318	87.6
766.497	86.86
766.676	86.68
766.854	88.99
767.033	90.03
767.212	87.97
767.391	88.53
767.57	90.78
767.749	90.47
767.928	90.01
768.106	90.23
768.285	87.05
768.464	86.01
768.643	85.13
768.821	86.48
769	87.33
769.179	88.57
769.357	87.68
769.536	88.01
769.715	87.6
769.893	88.25
770.072	89.45
770.25	90.07
770.429	89.3
770.607	88.02
770.786	86.76
770.964	86.35
771.143	86.65
771.321	87.52
771.5	88.33
771.678	88.82
771.857	87.98
772.035	87.2
772.213	86.49
772.392	85.14
772.57	84.27
772.748	84.55
772.927	83.11
773.105	81.96
773.283	83.22
773.461	84.21
773.64	85.99
773.818	88.77
773.996	90.69
774.174	88.73
774.352	87.15
774.531	83.61
774.709	85.54
774.887	84.78
775.065	85.48
775.243	85.78
775.421	86.87
775.599	85.22
775.777	83.23
775.955	80.66
776.133	78.79
776.311	79.31
776.489	77.51
776.667	80.66
776.844	83.49
777.022	84.52
777.2	85.21
777.378	84.32
777.556	82.82
777.734	85.55
777.911	88.95
778.089	87.75
778.267	89.14
778.445	88.73
778.622	86.08
778.8	82.92
778.978	82.94
779.155	83.41
779.333	85.84
779.511	87.51
779.688	89.01
779.866	87.27
780.043	84.64
780.221	83.79
780.398	79.16
780.576	80.41
780.753	83.28
780.931	83.47
781.108	81.78
781.286	85.58
781.463	84.31
781.64	81.39
781.818	83.25
781.995	84.47
782.172	84.98
782.35	84.56
782.527	87.24
782.704	86.06
782.882	87.05
783.059	87.43
783.236	89.25
783.413	90.96
783.59	92.39
783.768	88.96
783.945	90.66
784.122	91.28
784.299	89.9
784.476	85.93
784.653	86.55
784.83	81.5
785.007	77.15
785.184	75.74
785.361	76.12
785.538	78.04
785.715	81.06
785.892	81.46
786.069	82.04
786.246	86.02
786.423	84.97
786.6	86.18
786.776	87.04
786.953	84.41
787.13	86.34
787.307	85.13
787.484	81.04
787.66	80.39
787.837	83.05
788.014	78.5
788.191	78.47
788.367	78.72
788.544	82.21
788.721	81.37
788.897	81.64
789.074	82.88
789.25	81.81
789.427	77.35
789.603	75.31
789.78	76.26
789.956	76.95
790.133	76.75
790.309	78.3
790.486	83.49
790.662	81.09
790.839	79.46
791.015	81.56
791.192	80.25
791.368	81.35
791.544	81.43
791.721	83.65
791.897	82.52
792.073	82.73
792.249	75.97
792.426	78.47
792.602	78.4
792.778	81.74
792.954	82.4
793.13	79.69
793.307	71.44
793.483	64.71
793.659	59.61
793.835	63.76
794.011	64.05
794.187	71.82
794.363	73.99
794.539	80.28
794.715	73.89
794.891	76.41
795.067	73.9
795.243	80.5
795.419	76.45
795.595	77.5
795.771	78
795.947	79
796.122	73.49
796.298	76.52
796.474	73.15
796.65	74.91
796.826	71.3
797.001	68.25
797.177	68.63
797.353	74.14
797.529	71.93
797.704	78.89
797.88	81.06
798.056	76.11
798.231	76.44
798.407	79.75
798.582	78.28
798.758	84.14
798.934	87.75
799.109	83.7
799.285	79.27
799.46	76.69
799.636	72.66
799.811	69.39
799.986	70.9
800.162	75.14
800.337	80.52
800.513	74.7
800.688	77.08
800.863	84.93
801.039	75.82
801.214	67.35
801.389	76.82
801.565	74.36
801.74	59.31
801.915	68.01
802.09	75.2
802.265	71.5
802.441	68.32
802.616	71.12
802.791	71.73
802.966	64.74
803.141	63.68
803.316	60.5
803.491	66.82
803.666	72.44
803.841	74.99
804.016	75.3
804.191	80.33
804.366	76.34
804.541	66.27
804.716	68.85
804.891	63.36
805.066	63.12
805.241	62.48
805.416	61.1
805.591	58.33
805.765	65.21
805.94	70.41
806.115	67.98
806.29	66.69
806.464	69.37
806.639	66.67
806.814	53.56
806.989	52.15
807.163	58.32
807.338	57.98
807.512	51.67
807.687	50.52
807.862	64.17
808.036	66.02
808.211	69.59
808.385	85.04
808.56	98.87
808.734	99.96
808.909	93.33
809.083	89.96
809.258	81.84
809.432	75.48
809.606	66.7
809.781	64.24
809.955	68.64
810.13	72.88
810.304	72.93
810.478	68.3
810.652	76.01
810.827	70.14
811.001	61.7
811.175	56.82
811.349	62.78
811.524	58.3
811.698	50.18
811.872	57.87
812.046	73.07
812.22	72.52
812.394	71.25
812.568	74.07
812.742	73.22
812.916	62.8
813.09	63.3
813.264	59.87
813.438	71.54
813.612	68.51
813.786	68.64
813.96	73.9
814.134	81.37
814.308	79.36
814.482	82.49
814.656	81.72
814.83	83.56
815.003	89.9
815.177	81.58
815.351	68.32
815.525	66.4
815.698	59.83
815.872	47.7
816.046	44.98
816.219	55.97
816.393	71.1
816.567	69.6
816.74	71.19
816.914	76.08
817.088	83.33
817.261	80.83
817.435	85.02
817.608	86.01
817.782	84.36
817.955	79.85
818.129	58.01
818.302	60.77
818.475	65.42
818.649	68.99
818.822	55.63
818.996	79.66
819.169	86.63
819.342	68.74
819.516	72.2
819.689	79.43
819.862	61.77
820.035	50.23
820.209	59.54
820.382	51.01
820.555	61.05
820.728	58.35
820.901	59.9
821.075	67.78
821.248	74.55
821.421	63.98
821.594	64.9
821.767	85.2
821.94	85.18
822.113	67.34
822.286	68.02
822.459	79.61
822.632	62.76
822.805	42.7
822.978	45.91
823.151	44.41
823.324	35.85
823.496	24.05
823.669	27.87
823.842	44.15
824.015	29.56
824.188	33.44
824.361	45.46
824.533	52.94
824.706	51.18
824.879	64.11
825.051	60.1
825.224	53.46
825.397	41.94
825.569	41.11
825.742	54.51
825.915	70.95
826.087	89.6
826.26	72.53
826.432	75.91
826.605	62.92
826.777	56
826.95	52.2
827.122	42.96
827.295	35.93
827.467	41.42
827.64	18.25
827.812	6.68
827.984	27.9
828.157	31.44
828.329	-0.45
828.501	10.13
828.674	40.64
828.846	28.89
829.018	50.96
829.19	36
829.363	45.48
829.535	38.84
829.707	36.68
829.879	5.33
830.051	11.42
830.223	12.02
830.395	1.33
830.568	14.92
830.74	23.36
830.912	59.77
831.084	37.51
831.256	31.42
831.428	20.42
831.6	2.7
831.772	-30.48
831.943	-6.37
832.115	11.76
832.287	27.85
832.459	51.96
832.631	62.89
832.803	55.59
832.975	69
833.146	57.6
833.318	57.29
833.49	52.85
833.662	55.71
833.833	36.52
834.005	37
834.177	43.38
834.348	44.25
834.52	28.57
834.692	37.83
834.863	55.9
835.035	37.8
835.206	29.79
835.378	67.05
835.549	48.16
835.721	40.35
835.892	29.79
836.064	23.22
836.235	25.75
836.407	55.78
836.578	46.33
836.749	76.82
836.921	78.15
837.092	11.49
837.264	-23.75
837.435	-20.86
837.606	-4.78
837.777	26.86
837.949	46.18
838.12	45.58
838.291	54.62
838.462	44.62
838.633	17.92
838.805	15.82
838.976	51.42
839.147	19.34
839.318	2.34
839.489	-14.69
839.66	-30.05
839.831	-21.6
840.002	-6.2
840.173	1.35
840.344	38
840.515	64.99
840.686	-46.61
840.857	-36.97
841.028	-7.14
841.199	-20.68
841.369	-35.77
841.54	7.57
841.711	20.55
841.882	24.86
842.053	21.07
842.223	31.2
842.394	37.43
842.565	28.84
842.736	36.55
842.906	47.71
843.077	53.28
843.248	70.34
843.418	83.18
843.589	55.1
843.759	133.67
843.93	99.21
844.101	44.66
844.271	45.16
844.442	45.85
844.612	34.47
844.783	20.44
844.953	6.53
845.123	4.3
845.294	8.46
845.464	-97.46
845.635	-6.75
845.805	28.63
845.975	16.68
846.146	-0.25
846.316	0.04
846.486	8.7
846.656	29.77
846.827	26.45
846.997	23.88
847.167	38.32
847.337	28.01
847.507	13.75
847.677	44.38
847.848	86.56
848.018	68.08
848.188	72.98
848.358	57.29
848.528	44.4
848.698	30.36
848.868	-11.52
849.038	-45.9
849.208	4.74
849.378	37.8
849.548	2.68
849.718	17.6
849.887	24.4
850.057	-2.69
850.227	-37.76
850.397	-58.83
850.567	-129.57
850.737	-331.09
850.906	-640.63
851.076	-433.2
851.246	-134.82
851.415	33.93
851.585	32.53
851.755	11.42
851.924	52.38
852.094	42.81
852.264	7.41
852.433	-192.79
852.603	-8.04
852.772	50.34
852.942	32.11
853.111	16.25
853.281	12
853.45	39.02
853.62	-42.36
853.789	-48.19
853.959	-51.43
854.128	-39.32
854.297	-66.56
854.467	-73.57
854.636	-35.14
854.805	20.65
854.975	31.4
855.144	14.93
855.313	323.43
855.482	-80.66
855.652	-103.35
855.821	-60.9
855.99	62.59
856.159	59.21
856.328	64.61
856.497	55.94
856.667	41.14
856.836	28.69
857.005	3.53
857.174	-1.66
857.343	-28.48
857.512	18.58
857.681	-12.79
857.85	-93.73
858.019	-53.41
858.188	-33.51
858.356	-60.26
858.525	-98.29
858.694	-65.35
858.863	-117.01
859.032	-67.91
859.201	-106.16
859.369	-38.9
859.538	2.02
859.707	-34.08
859.876	-58.26
860.044	-52.23
860.213	0.04
860.382	-4.46
860.55	3.07
860.719	36.76
860.888	64.67
861.056	30.15
861.225	33.87
861.393	86.14
861.562	111.69
861.73	21.19
861.899	155.76
862.067	1.72
862.236	-2.73
862.404	-136.46
862.572	-56.3
862.741	-15.79
862.909	-41.84
863.078	-158.65
863.246	-129.63
863.414	-119.02
863.582	-95.71
863.751	-76.69
863.919	-47.45
864.087	-6.24
864.255	13.86
864.424	-153.98
864.592	16.62
864.76	-17.58
864.928	-47.6
865.096	-158.44
865.264	-113.88
865.432	-1539.77
865.6	-50.75
865.768	-64.89
865.936	-33.47
866.104	24.16
866.272	38.59
866.44	-142.72
866.608	312.77
866.776	209.13
866.944	2356.98
867.112	-465.04
867.28	-172.09
867.448	-90.09
867.615	-4.62
867.783	-2.52
867.951	-6.7
868.119	-2.47
868.286	14.91
868.454	-118.69
868.622	-91.53
868.789	-159.96
868.957	-2289.29
869.125	-1948.68
869.292	-121.5
869.46	-170.47
869.627	25.22
869.795	-6.58
869.963	48.16
870.13	42.06
870.298	47.54
870.465	-20.71
870.632	-11.42
870.8	-26.31
870.967	-49.54
871.135	-95.89
871.302	-58.26
871.469	-56.97
871.637	-87.37
871.804	-19.04
871.971	-10.57
872.139	-156.05
872.306	67.19
872.473	17.74
872.64	-141.42
872.807	13.8
872.975	54.95
873.142	-141.64
873.309	1247.3
873.476	82.37
873.643	121.64
873.81	87.06
873.977	90.12
874.144	86.1
874.311	-43.65
874.478	-110.25
874.645	-112.02
874.812	-80.06
874.979	-40.07
875.146	-14.18
875.313	-39.99
875.48	11.68
875.647	-6.22
875.813	-37.75
875.98	-11.23
876.147	-17.71
876.314	-35.25
876.481	448.35
876.647	-451.12
876.814	116.32
876.981	169.81
877.147	9.38
877.314	36.79
877.481	37.6
877.647	8.81
877.814	8.57
877.98	-7.95
878.147	-5.38
878.314	47.7
878.48	64.4
878.647	42.98
878.813	77.81
878.979	56.77
879.146	20.43
879.312	9.73
879.479	-68.69
879.645	-164.57
879.811	-234.54
879.978	-611.07
880.144	-135.53
880.31	-3.2
880.477	-77.36
880.643	-121.3
880.809	-8.14
880.975	-21.91
881.142	-575
881.308	-85.45
881.474	-2.82
881.64	18.16
881.806	-17.29
881.972	34.26
882.138	99.71
882.304	87.46
882.47	-81.03
882.636	-252.87
882.802	-110.67
882.968	-26.01
883.134	-9.05
883.3	-5.67
883.466	15.1
883.632	23.88
883.798	1.49
883.964	-20.48
884.129	10.98
884.295	-1.27
884.461	-2.57
884.627	-11.5
884.793	-27.84
884.958	-22.19
885.124	-84.24
885.29	-148.05
885.455	-282.28
885.621	-80.49
885.787	-167.22
885.952	-53.88
886.118	-65.09
886.283	-47.85
886.449	-91.44
886.614	-58.3
886.78	-142.88
886.945	451.64
887.111	-339.6
887.276	-342.33
887.442	-610.45
887.607	-237.5
887.773	-166.08
887.938	-142.43
888.103	-161.46
888.269	-92.02
888.434	-309.46
888.599	-133.53
888.764	-69.04
888.93	-28.71
889.095	-46.02
889.26	-31.47
889.425	2.04
889.59	69.07
889.756	46.7
889.921	45.94
890.086	59.07
890.251	65.16
890.416	-71.28
890.581	-671.77
890.746	104.82
890.911	118.15
891.076	124.53
891.241	-154.1
891.406	33.49
891.571	30.69
891.736	-122.25
891.901	-241.15
892.065	-7.14
892.23	45.57
892.395	100.29
892.56	135.98
892.725	23.83
892.889	-276.83
893.054	-103
893.219	-12.63
893.384	26.12
893.548	4.1
893.713	-19.54
893.878	25
