Data from Ofra_PS_T2_2A_1GT43_Reflection_3.txt Node
Date: Wed Jul 21 16:56:13 EDT 2021
User: Adam
Spectrometer: FLMT01687
Trigger mode: 0
Integration Time (sec): 1.100000E0
Scans to average: 2
Electric dark correction enabled: true
Nonlinearity correction enabled: false
Boxcar width: 2
XAxis mode: Wavelengths
Number of Pixels in Spectrum: 3648
>>>>>Begin Spectral Data<<<<<
179.494	314.4
179.716	363.53
179.937	356.25
180.158	372.75
180.38	545.62
180.601	308.29
180.823	145.01
181.044	39.81
181.265	196.32
181.486	61.93
181.708	39.49
181.929	-110.2
182.15	-257.75
182.372	181.42
182.593	42.86
182.814	18.07
183.035	58.43
183.257	69.23
183.478	-35.11
183.699	-1.04
183.92	0
184.141	-13.2
184.363	-43.9
184.584	0.38
184.805	20.02
185.026	40.04
185.247	39.31
185.468	29.28
185.689	31.32
185.91	-1.99
186.132	-19.85
186.353	-22.52
186.574	28.6
186.795	28.45
187.016	38.03
187.237	37.29
187.458	33.38
187.679	4.62
187.9	18.55
188.121	12.51
188.342	56.35
188.563	91.22
188.784	99.39
189.005	103.47
189.226	179.49
189.447	138.98
189.667	107.77
189.888	16.26
190.109	-315.58
190.33	-319.35
190.551	-600
190.772	-100.24
190.993	-84.49
191.214	-43.89
191.434	-48.93
191.655	-29.08
191.876	-76.2
192.097	-87.06
192.318	-183.81
192.538	-259.53
192.759	-122.31
192.98	-43.85
193.201	-14.46
193.421	18.5
193.642	40.3
193.863	36.88
194.083	17.75
194.304	3.69
194.525	-9.15
194.745	-53.63
194.966	-52.91
195.187	-59.23
195.407	-92.87
195.628	-140.03
195.848	-121.05
196.069	-109.94
196.29	-53.89
196.51	-44.72
196.731	-42.99
196.951	-41.66
197.172	-35.57
197.392	-61.75
197.613	-42.7
197.833	-58.68
198.054	-54.95
198.274	-53.87
198.495	-64.2
198.715	-36.18
198.936	-45.77
199.156	-41.1
199.377	-119.09
199.597	-85.18
199.817	-101.5
200.038	-43.92
200.258	-75.5
200.479	27.75
200.699	-17.49
200.919	15.08
201.14	-2.42
201.36	-7.25
201.58	12.36
201.801	50.9
202.021	25.82
202.241	25.87
202.461	11.95
202.682	-68.88
202.902	-178.32
203.122	-87.55
203.342	-72.14
203.563	-48.85
203.783	-20.14
204.003	-26.01
204.223	-72.6
204.443	-6.02
204.663	-18.59
204.884	-6.93
205.104	21.99
205.324	82.11
205.544	51.32
205.764	81.66
205.984	90.99
206.204	79.66
206.424	51.6
206.644	39.34
206.864	31.69
207.084	0.89
207.304	43.07
207.525	-21.56
207.745	24.2
207.964	9.64
208.184	-45.22
208.404	-97.47
208.624	-87.72
208.844	-108.08
209.064	-402.3
209.284	-367.62
209.504	-166.6
209.724	-37.38
209.944	-16.08
210.164	39.68
210.384	43.79
210.604	17.9
210.823	-17.25
211.043	-30.41
211.263	-37.91
211.483	-33.88
211.703	-59.02
211.922	-29.97
212.142	21.41
212.362	41.01
212.582	38.51
212.801	41.62
213.021	25.87
213.241	11.21
213.461	-16.68
213.68	-35.65
213.9	-19.96
214.12	-15.44
214.339	-45.71
214.559	-18.3
214.779	12.68
214.998	23.11
215.218	-0.59
215.438	20.82
215.657	16.91
215.877	-8.67
216.096	19.62
216.316	36.74
216.535	28.36
216.755	24.79
216.974	-2.61
217.194	-64.04
217.413	-53.35
217.633	-53.73
217.852	-111.71
218.072	-19.36
218.291	16.6
218.511	29.21
218.73	7.22
218.95	3.18
219.169	5.74
219.389	-42.39
219.608	-22.31
219.827	-0.36
220.047	17.7
220.266	16.52
220.485	30.59
220.705	22.77
220.924	0.97
221.143	22.57
221.363	8.85
221.582	16.85
221.801	11.91
222.021	35.72
222.24	-24.3
222.459	0.52
222.678	-31.02
222.897	-46.52
223.117	-120.61
223.336	-63.61
223.555	-20.1
223.774	19.95
223.993	29.4
224.213	84.08
224.432	63.4
224.651	48.54
224.87	40.97
225.089	41.6
225.308	22.43
225.527	30.92
225.746	34.52
225.965	11.73
226.184	-7.85
226.404	8.63
226.623	-2.68
226.842	-4.9
227.061	8.95
227.28	20.75
227.499	13.53
227.718	15.49
227.936	13.46
228.155	31.21
228.374	7.21
228.593	8.63
228.812	13.74
229.031	-7.1
229.25	-40.21
229.469	-29.14
229.688	-14.43
229.907	15.08
230.125	29.52
230.344	50.24
230.563	68.65
230.782	75.32
231.001	13.33
231.22	24.03
231.438	30.02
231.657	21.07
231.876	2.74
232.095	40.9
232.313	42.75
232.532	29.72
232.751	19.21
232.969	20.26
233.188	18.53
233.407	37.67
233.625	32.83
233.844	-4.75
234.063	12.87
234.281	22.03
234.5	15.13
234.719	22.89
234.937	47.87
235.156	45.5
235.374	38.93
235.593	24.2
235.811	7.48
236.03	3.51
236.249	-41.01
236.467	-31.33
236.686	12.44
236.904	25.22
237.123	14.57
237.341	24.46
237.559	29.25
237.778	14.86
237.996	-7.45
238.215	20.43
238.433	28.59
238.652	11.28
238.87	-2.15
239.088	12.69
239.307	-1.12
239.525	-24.96
239.743	-24.75
239.962	-23.79
240.18	-56.25
240.398	-77.18
240.617	-84.09
240.835	-65.37
241.053	-52.05
241.271	10.25
241.49	14.14
241.708	7.46
241.926	-29.27
242.144	3.02
242.363	-53.92
242.581	-103.22
242.799	-61.68
243.017	-7.82
243.235	-29.21
243.453	-8.94
243.672	10.73
243.89	4.73
244.108	-16.45
244.326	2.58
244.544	1.62
244.762	2.73
244.98	17.96
245.198	8.51
245.416	-29.46
245.634	-40.44
245.852	-51.6
246.07	-77.16
246.288	-58.78
246.506	-63.5
246.724	-55.79
246.942	-42.3
247.16	-24.96
247.378	-20.46
247.596	1.88
247.814	-0.88
248.032	-19.25
248.25	-0.45
248.468	-9.11
248.685	-10.86
248.903	28.84
249.121	41.38
249.339	17.17
249.557	19.73
249.775	26.99
249.992	-41.28
250.21	-51.5
250.428	-31.14
250.646	-53.22
250.863	-72.14
251.081	-36.78
251.299	-42.07
251.517	-32.33
251.734	-18.09
251.952	-15.58
252.17	-8
252.387	3.11
252.605	0.27
252.823	15.87
253.04	29.36
253.258	34.79
253.475	43.37
253.693	54.69
253.911	48.34
254.128	42.31
254.346	47.27
254.563	23.13
254.781	-5.63
254.998	-34.01
255.216	-45.33
255.433	-41.98
255.651	-7.55
255.868	19.79
256.086	65.26
256.303	62.35
256.521	63.86
256.738	41.61
256.956	7.55
257.173	-22.73
257.39	-38.82
257.608	-70.34
257.825	-47.99
258.043	-9.36
258.26	-15.89
258.477	25.39
258.695	17.36
258.912	-17.06
259.129	-5.02
259.346	-18.07
259.564	-48.33
259.781	-58.56
259.998	-0.44
260.216	12.62
260.433	44.54
260.65	46.88
260.867	53.19
261.084	17.63
261.302	3.36
261.519	-12.97
261.736	-46.05
261.953	-43.65
262.17	-19.49
262.387	-48.84
262.604	-54.83
262.822	-35.33
263.039	-30.44
263.256	-47.53
263.473	-7.55
263.69	11.97
263.907	26.87
264.124	32.52
264.341	29.73
264.558	18.27
264.775	0.66
264.992	-12.2
265.209	-10.31
265.426	13.06
265.643	16.78
265.86	31.43
266.077	31.69
266.294	23.7
266.51	-5.21
266.727	-17.89
266.944	-14.3
267.161	-26.05
267.378	-22.01
267.595	17.45
267.812	-4.21
268.028	-33.77
268.245	-18.1
268.462	-39.66
268.679	-51.75
268.896	-6.39
269.112	8.7
269.329	12.84
269.546	26.02
269.763	21.82
269.979	35.8
270.196	20.97
270.413	0
270.629	-5.28
270.846	-5.74
271.063	-30.96
271.279	-24.34
271.496	-4.28
271.712	11.44
271.929	6.62
272.146	17.04
272.362	21.82
272.579	30.2
272.795	54.22
273.012	68.45
273.228	69.28
273.445	56.28
273.661	57.03
273.878	16.59
274.094	6.09
274.311	-22.69
274.527	7.52
274.744	10.65
274.96	-5.57
275.177	-1.82
275.393	19
275.609	16.02
275.826	13.98
276.042	23.64
276.259	18.64
276.475	31.65
276.691	22.3
276.908	11.72
277.124	23.91
277.34	13.5
277.557	-2.86
277.773	-7.43
277.989	-6.07
278.205	-1.32
278.422	16.58
278.638	14.98
278.854	51.06
279.07	68.08
279.286	75.1
279.503	65.34
279.719	61.18
279.935	14.42
280.151	-1.22
280.367	-25.33
280.583	-40.03
280.799	-39.91
281.016	-56.14
281.232	-13.14
281.448	-6.81
281.664	-0.52
281.88	-19.97
282.096	11.46
282.312	13.78
282.528	9.61
282.744	14.96
282.96	33.29
283.176	31.68
283.392	14.81
283.608	6.54
283.824	0.97
284.04	1.48
284.256	1.04
284.471	-1.49
284.687	-5.02
284.903	22.93
285.119	43.86
285.335	21.1
285.551	30.99
285.767	23.93
285.982	3.65
286.198	-39.69
286.414	5.26
286.63	3
286.846	26.72
287.061	7.79
287.277	26.8
287.493	5.05
287.709	23.78
287.924	7.52
288.14	43.4
288.356	50.47
288.571	57.85
288.787	32.42
289.003	26.76
289.218	9.32
289.434	-19.7
289.65	-22.8
289.865	-23.03
290.081	-14.89
290.296	-15.25
290.512	0.81
290.727	-28.28
290.943	-27.48
291.159	-21.31
291.374	-11.71
291.59	-29.32
291.805	-16.3
292.021	5.21
292.236	8.25
292.451	10.27
292.667	26.36
292.882	28.2
293.098	15.21
293.313	3.48
293.529	-13.3
293.744	-39.7
293.959	-25.49
294.175	-25.45
294.39	0.13
294.605	8.43
294.821	17.8
295.036	23.63
295.251	21.42
295.467	12.58
295.682	-5.01
295.897	-30.13
296.112	-41.66
296.328	-30.37
296.543	-49.09
296.758	-19.45
296.973	19.74
297.188	37.99
297.404	28.02
297.619	25.9
297.834	10.84
298.049	-2.09
298.264	-24.75
298.479	11.89
298.694	20.62
298.909	23.58
299.125	24.07
299.34	29.81
299.555	4.03
299.77	-3.48
299.985	-16.41
300.2	-57.55
300.415	-77.7
300.63	-43.69
300.845	-40.51
301.06	-35.04
301.275	4.85
301.49	32.79
301.704	14.27
301.919	5.84
302.134	-3.53
302.349	-14.9
302.564	-75.71
302.779	-111.12
302.994	-74.29
303.209	-36.95
303.423	-22.78
303.638	34.5
303.853	26.8
304.068	10.19
304.283	4.8
304.497	7.57
304.712	-8.14
304.927	5.68
305.142	3.99
305.356	12.7
305.571	-2.1
305.786	-19.11
306	-34.71
306.215	-41.05
306.43	-48.98
306.644	7.7
306.859	76.15
307.074	61.53
307.288	47.83
307.503	46.98
307.717	9.68
307.932	-15.08
308.147	-15.42
308.361	-2.53
308.576	-6.6
308.79	-45.87
309.005	-27.71
309.219	-8.89
309.434	-24.42
309.648	-24.1
309.863	-9.44
310.077	-21.67
310.292	-35.16
310.506	-26.09
310.72	-12.03
310.935	-5.3
311.149	-2.18
311.364	14.9
311.578	21.09
311.792	2.41
312.007	12.57
312.221	2.22
312.435	-5.4
312.649	-12.1
312.864	15.04
313.078	21.69
313.292	51.7
313.507	19.64
313.721	30.12
313.935	14.75
314.149	-6.33
314.363	3.29
314.578	7.06
314.792	12.78
315.006	3.02
315.22	18.53
315.434	10.52
315.648	26.17
315.862	16.67
316.077	15.17
316.291	-6.94
316.505	9.45
316.719	-6.18
316.933	-18.85
317.147	-22.03
317.361	-67.6
317.575	-78.83
317.789	-100.93
318.003	-142.93
318.217	-105.08
318.431	3.28
318.645	42.66
318.859	39.74
319.073	54.18
319.287	38.4
319.5	13.56
319.714	-33.35
319.928	-64.29
320.142	-76.78
320.356	-18.42
320.57	-8.84
320.784	-18.65
320.997	-20.43
321.211	-25.25
321.425	-75.47
321.639	-83.27
321.853	-18.59
322.066	-1.75
322.28	7.22
322.494	23.88
322.707	26.69
322.921	12.4
323.135	11.96
323.349	13.33
323.562	-5.35
323.776	-7.09
323.989	-20.8
324.203	-48.35
324.417	-58.05
324.63	-63.51
324.844	-50.43
325.057	-37.06
325.271	3.3
325.485	21.5
325.698	47.99
325.912	49.31
326.125	33.14
326.339	23.61
326.552	13.7
326.766	8.21
326.979	31.35
327.193	53.52
327.406	45.35
327.619	35.83
327.833	37.03
328.046	2.62
328.26	-26.16
328.473	2.39
328.686	-27.17
328.9	-20.83
329.113	2.2
329.326	0.25
329.54	-8.47
329.753	-1.95
329.966	-14.51
330.179	-18.22
330.393	0
330.606	1.38
330.819	33.88
331.032	34.76
331.246	37.98
331.459	51.51
331.672	41.28
331.885	23.17
332.098	14.75
332.311	-0.57
332.525	-47.63
332.738	-37.88
332.951	-10.47
333.164	7.2
333.377	12.07
333.59	32.98
333.803	35.44
334.016	18.49
334.229	13.52
334.442	37.69
334.655	64.58
334.868	54.45
335.081	52.69
335.294	41.95
335.507	17
335.72	-5.01
335.933	10.07
336.146	8.18
336.359	2.6
336.572	-3.05
336.785	-29.1
336.997	-29.07
337.21	0.93
337.423	6.28
337.636	8.09
337.849	31.4
338.062	31.91
338.274	29.96
338.487	25.72
338.7	29.6
338.913	2.91
339.125	-17.25
339.338	-65.28
339.551	-44.67
339.763	-13.25
339.976	4.27
340.189	21.77
340.402	16.71
340.614	8.12
340.827	-2.08
341.039	-25.25
341.252	-20.8
341.465	14.58
341.677	7.42
341.89	-18.67
342.102	19.46
342.315	-7.48
342.527	-47.21
342.74	-25.32
342.952	5.6
343.165	3.72
343.377	24.97
343.59	24.52
343.802	26.9
344.015	14.1
344.227	3.04
344.44	-1.73
344.652	5.42
344.864	12.87
345.077	32.25
345.289	37.94
345.502	36.16
345.714	31.21
345.926	25.26
346.139	15.1
346.351	6.92
346.563	5.88
346.775	9.23
346.988	-7.75
347.2	-10.12
347.412	-46.11
347.624	-47.27
347.837	-71.45
348.049	-21.87
348.261	-13.12
348.473	9.88
348.685	1.35
348.897	9.43
349.11	-31.87
349.322	-43.35
349.534	-17.67
349.746	-8.54
349.958	4.67
350.17	28.33
350.382	26.83
350.594	-1.73
350.806	-1.93
351.018	-11.97
351.23	-32.08
351.442	-67.04
351.654	-55.16
351.866	-28.31
352.078	-13.34
352.29	8.49
352.502	13.8
352.714	20.24
352.926	8.44
353.138	3.85
353.35	-0.49
353.561	0.66
353.773	-14.31
353.985	-2.13
354.197	-5.17
354.409	-21.55
354.621	-21.91
354.832	-15.03
355.044	-30.53
355.256	-26.49
355.468	-6.87
355.679	-10.62
355.891	4.63
356.103	1.89
356.314	8.78
356.526	17.04
356.738	25.47
356.949	17.17
357.161	29.32
357.373	6.93
357.584	-6.11
357.796	5.53
358.008	7.84
358.219	20.82
358.431	29.66
358.642	33.53
358.854	16.63
359.065	1.42
359.277	-32.56
359.488	-38.38
359.7	-48.5
359.911	-42.02
360.123	-25.67
360.334	-32.04
360.546	-35.85
360.757	-40.44
360.969	-30.02
361.18	-21.03
361.391	-1.16
361.603	-7.37
361.814	9.55
362.025	9.1
362.237	3.75
362.448	21.55
362.659	35.79
362.871	31.29
363.082	26.94
363.293	13.42
363.504	-1.59
363.716	-25.1
363.927	-46.66
364.138	-66.46
364.349	-69.9
364.56	-65.91
364.772	-56.28
364.983	-31.25
365.194	-28.25
365.405	-2.81
365.616	12.77
365.827	15
366.038	-5.64
366.25	-8.95
366.461	-50.24
366.672	-29.37
366.883	-6.89
367.094	9.98
367.305	1.33
367.516	11.69
367.727	-19.43
367.938	-38.04
368.149	-33.3
368.36	0.27
368.571	9.74
368.781	15.43
368.992	1.18
369.203	-15.05
369.414	-45.56
369.625	-50.93
369.836	-54.85
370.047	-72.76
370.258	-64.94
370.468	-56.43
370.679	-73.11
370.89	-60.28
371.101	-25.93
371.312	-21.93
371.522	-8.4
371.733	-0.55
371.944	0
372.155	-1.87
372.365	-5.18
372.576	-14.86
372.787	-10.8
372.997	-28.92
373.208	-25.95
373.419	0.42
373.629	-10.31
373.84	-24.53
374.05	-13.74
374.261	-16.23
374.472	-19.6
374.682	6.72
374.893	19.86
375.103	32.42
375.314	35.29
375.524	23.37
375.735	16.86
375.945	22.86
376.156	3.22
376.366	3.09
376.577	0.23
376.787	-6.62
376.997	-5.41
377.208	-2.08
377.418	-11.45
377.629	0.95
377.839	1.75
378.049	0
378.26	15.74
378.47	22.28
378.68	14.88
378.89	17.18
379.101	11.37
379.311	-14.53
379.521	-32.97
379.732	-22.25
379.942	-21.53
380.152	-20.55
380.362	5.99
380.572	3.67
380.783	10.82
380.993	23.24
381.203	23.95
381.413	33.68
381.623	45.02
381.833	32.13
382.043	20.36
382.253	12.93
382.463	4.62
382.674	-9.64
382.884	-20.14
383.094	-24.98
383.304	-17.27
383.514	-5.35
383.724	5.91
383.934	4.26
384.144	0.35
384.353	-4.28
384.563	-18.01
384.773	-12.57
384.983	-20.47
385.193	-0.41
385.403	-0.54
385.613	2.81
385.823	-8.56
386.033	3.7
386.242	-2.96
386.452	-1.49
386.662	-6.91
386.872	5.33
387.082	1
387.291	-6.54
387.501	-7.57
387.711	-0.58
387.921	-8.39
388.13	-4.91
388.34	4.1
388.55	0.97
388.759	0.15
388.969	8.05
389.179	1.73
389.388	-2.07
389.598	4.88
389.807	-2.22
390.017	-7.08
390.227	0.42
390.436	1.53
390.646	0.67
390.855	6.53
391.065	6.37
391.274	3.12
391.484	0.17
391.693	1.25
391.903	1.51
392.112	7.2
392.322	9.76
392.531	16
392.74	16.13
392.95	11.63
393.159	7.29
393.369	6.86
393.578	5.3
393.787	3.91
393.997	4.96
394.206	5.51
394.415	4.62
394.625	4.26
394.834	3.34
395.043	5.69
395.252	7.47
395.462	9.31
395.671	8.65
395.88	9.87
396.089	9.77
396.298	7.13
396.508	5.86
396.717	4.87
396.926	5.26
397.135	4.38
397.344	5.42
397.553	6.62
397.762	8.19
397.971	7.72
398.181	7.77
398.39	6.92
398.599	6.12
398.808	6.3
399.017	7.11
399.226	8.6
399.435	9.88
399.644	10.49
399.853	9.63
400.062	9.2
400.27	8.08
400.479	7.61
400.688	6.19
400.897	6.39
401.106	6.38
401.315	6.48
401.524	6.52
401.733	7.41
401.941	7.82
402.15	7.64
402.359	7.8
402.568	7.83
402.777	7.82
402.985	7.38
403.194	7.36
403.403	7.03
403.612	6.67
403.82	6.45
404.029	6.78
404.238	6.85
404.446	7.36
404.655	7.29
404.864	7.28
405.072	6.99
405.281	6.82
405.489	6.37
405.698	6.49
405.906	6.45
406.115	6.47
406.324	6.66
406.532	6.84
406.741	6.95
406.949	7.07
407.158	7.08
407.366	7.11
407.574	7.18
407.783	7.26
407.991	7.01
408.2	6.98
408.408	6.87
408.617	6.72
408.825	6.54
409.033	6.69
409.242	6.77
409.45	6.77
409.658	6.64
409.867	6.66
410.075	6.39
410.283	6.34
410.491	6.18
410.7	6.2
410.908	6.25
411.116	6.58
411.324	6.52
411.533	6.52
411.741	6.56
411.949	6.52
412.157	6.35
412.365	6.18
412.573	6.25
412.781	6.34
412.99	6.28
413.198	6.49
413.406	6.65
413.614	6.64
413.822	6.36
414.03	6.27
414.238	5.98
414.446	6.07
414.654	5.85
414.862	6.04
415.07	6.1
415.278	6.33
415.486	6.01
415.694	6.24
415.902	6.01
416.109	5.97
416.317	5.84
416.525	5.83
416.733	5.7
416.941	5.93
417.149	5.88
417.357	5.97
417.564	6.04
417.772	6.25
417.98	6.04
418.188	6.04
418.395	5.94
418.603	6.13
418.811	5.76
419.019	5.81
419.226	5.99
419.434	5.99
419.642	5.74
419.849	5.95
420.057	5.92
420.265	5.79
420.472	5.64
420.68	5.65
420.887	5.52
421.095	5.52
421.302	5.47
421.51	5.56
421.717	5.58
421.925	5.69
422.132	5.67
422.34	5.46
422.547	5.49
422.755	5.45
422.962	5.46
423.17	5.3
423.377	5.38
423.585	5.34
423.792	5.24
423.999	5.16
424.207	5.31
424.414	5.46
424.621	5.38
424.829	5.44
425.036	5.46
425.243	5.57
425.451	5.39
425.658	5.26
425.865	5.45
426.072	5.5
426.28	5.65
426.487	5.56
426.694	5.64
426.901	5.49
427.108	5.38
427.315	5.05
427.523	5.27
427.73	5.38
427.937	5.28
428.144	5.14
428.351	5.21
428.558	5.41
428.765	5.17
428.972	5.11
429.179	5.35
429.386	5.53
429.593	5.21
429.8	5.4
430.007	5.62
430.214	5.72
430.421	5.63
430.628	5.56
430.835	5.38
431.042	5.53
431.249	5.48
431.456	5.42
431.662	5.5
431.869	5.73
432.076	5.57
432.283	5.63
432.49	5.75
432.697	5.75
432.903	5.62
433.11	5.65
433.317	5.69
433.524	5.82
433.73	5.83
433.937	6.11
434.144	6.08
434.35	6.01
434.557	5.77
434.764	5.84
434.97	5.8
435.177	5.89
435.384	5.87
435.59	6.04
435.797	6.14
436.003	6.05
436.21	6
436.416	6.08
436.623	6.07
436.829	6.21
437.036	6.32
437.242	6.4
437.449	6.39
437.655	6.43
437.862	6.39
438.068	6.39
438.275	6.52
438.481	6.73
438.687	6.79
438.894	6.76
439.1	6.87
439.307	6.99
439.513	6.92
439.719	6.89
439.926	7.01
440.132	6.91
440.338	6.76
440.544	6.85
440.751	6.78
440.957	6.79
441.163	6.79
441.369	6.87
441.575	6.65
441.782	6.7
441.988	6.61
442.194	6.6
442.4	6.56
442.606	6.77
442.812	6.9
443.018	6.99
443.224	7.07
443.431	7.09
443.637	6.99
443.843	6.91
444.049	6.86
444.255	6.83
444.461	6.92
444.667	6.93
444.873	6.93
445.079	6.98
445.284	7.03
445.49	6.8
445.696	6.64
445.902	6.6
446.108	6.61
446.314	6.6
446.52	6.74
446.726	6.99
446.931	7.07
447.137	7.06
447.343	7.08
447.549	6.96
447.755	6.85
447.96	6.88
448.166	6.78
448.372	6.75
448.578	6.9
448.783	6.93
448.989	6.99
449.195	7.18
449.4	7.18
449.606	7.13
449.812	7.09
450.017	7.13
450.223	7.05
450.428	6.97
450.634	7.07
450.84	7.22
451.045	7.04
451.251	6.99
451.456	7.29
451.662	7.24
451.867	7.23
452.073	7.34
452.278	7.47
452.483	7.47
452.689	7.48
452.894	7.49
453.1	7.46
453.305	7.35
453.51	7.26
453.716	7.23
453.921	7.28
454.127	7.21
454.332	7.18
454.537	7.08
454.742	7.13
454.948	7.06
455.153	7.16
455.358	7.27
455.563	7.48
455.769	7.56
455.974	7.49
456.179	7.39
456.384	7.32
456.589	7.2
456.795	7.08
457	7.13
457.205	7.3
457.41	7.36
457.615	7.33
457.82	7.37
458.025	7.37
458.23	7.28
458.435	7.32
458.64	7.25
458.845	7.36
459.05	7.42
459.255	7.44
459.46	7.36
459.665	7.48
459.87	7.49
460.075	7.42
460.28	7.5
460.485	7.63
460.69	7.66
460.895	7.48
461.099	7.47
461.304	7.5
461.509	7.47
461.714	7.36
461.919	7.52
462.123	7.5
462.328	7.49
462.533	7.56
462.738	7.63
462.942	7.6
463.147	7.71
463.352	7.76
463.556	7.68
463.761	7.72
463.966	7.7
464.17	7.68
464.375	7.58
464.58	7.66
464.784	7.67
464.989	7.62
465.193	7.69
465.398	7.71
465.602	7.75
465.807	7.75
466.011	7.9
466.216	7.86
466.42	7.94
466.625	7.93
466.829	7.92
467.034	7.94
467.238	8.09
467.443	8.01
467.647	7.95
467.851	8.09
468.056	8.09
468.26	8.03
468.464	8.06
468.669	8.17
468.873	8.21
469.077	8.18
469.282	8.24
469.486	8.25
469.69	8.28
469.894	8.12
470.099	8.23
470.303	8.24
470.507	8.27
470.711	8.15
470.915	8.22
471.119	8.17
471.324	8.11
471.528	8.09
471.732	8.23
471.936	8.22
472.14	8.31
472.344	8.45
472.548	8.55
472.752	8.6
472.956	8.82
473.16	8.76
473.364	8.57
473.568	8.54
473.772	8.58
473.976	8.41
474.18	8.44
474.384	8.59
474.588	8.61
474.792	8.51
474.995	8.63
475.199	8.78
475.403	8.9
475.607	8.98
475.811	9.03
476.015	9.01
476.218	8.98
476.422	8.92
476.626	8.97
476.83	9
477.033	9.01
477.237	8.93
477.441	8.95
477.644	8.99
477.848	9.06
478.052	9.07
478.255	9.16
478.459	9.15
478.663	9.27
478.866	9.23
479.07	9.29
479.273	9.31
479.477	9.33
479.681	9.24
479.884	9.23
480.088	9.22
480.291	9.19
480.495	9.2
480.698	9.18
480.901	9.27
481.105	9.35
481.308	9.32
481.512	9.34
481.715	9.41
481.919	9.45
482.122	9.43
482.325	9.47
482.529	9.51
482.732	9.51
482.935	9.46
483.138	9.41
483.342	9.51
483.545	9.58
483.748	9.59
483.952	9.64
484.155	9.74
484.358	9.74
484.561	9.63
484.764	9.62
484.967	9.69
485.171	9.79
485.374	9.76
485.577	9.87
485.78	9.87
485.983	9.84
486.186	9.69
486.389	9.66
486.592	9.66
486.795	9.75
486.998	9.69
487.201	9.71
487.404	9.78
487.607	9.79
487.81	9.85
488.013	9.95
488.216	10.02
488.419	10
488.622	10.02
488.825	9.87
489.028	9.78
489.231	9.77
489.433	9.73
489.636	9.63
489.839	9.66
490.042	9.62
490.245	9.59
490.447	9.6
490.65	9.63
490.853	9.65
491.056	9.73
491.258	9.76
491.461	9.83
491.664	9.94
491.866	9.95
492.069	10.04
492.272	10.01
492.474	10.05
492.677	9.95
492.879	10
493.082	10.01
493.285	10.08
493.487	10.07
493.69	10.11
493.892	10.04
494.095	9.98
494.297	10
494.5	10.05
494.702	10.02
494.905	10.09
495.107	10.16
495.309	10.12
495.512	10.11
495.714	10.15
495.917	10.14
496.119	10.11
496.321	10.18
496.524	10.19
496.726	10.29
496.928	10.38
497.13	10.4
497.333	10.41
497.535	10.43
497.737	10.44
497.939	10.47
498.142	10.48
498.344	10.49
498.546	10.5
498.748	10.57
498.95	10.58
499.152	10.55
499.355	10.57
499.557	10.63
499.759	10.67
499.961	10.7
500.163	10.8
500.365	10.78
500.567	10.85
500.769	10.79
500.971	10.75
501.173	10.67
501.375	10.77
501.577	10.69
501.779	10.72
501.981	10.73
502.183	10.82
502.385	10.75
502.587	10.73
502.788	10.78
502.99	10.84
503.192	10.92
503.394	10.94
503.596	11.02
503.798	11.14
503.999	11.23
504.201	11.17
504.403	11.29
504.605	11.32
504.806	11.17
505.008	11.12
505.21	11.27
505.411	11.3
505.613	11.33
505.815	11.47
506.016	11.52
506.218	11.56
506.42	11.54
506.621	11.61
506.823	11.6
507.024	11.64
507.226	11.62
507.427	11.61
507.629	11.71
507.83	11.8
508.032	11.8
508.233	11.9
508.435	11.98
508.636	11.91
508.838	11.87
509.039	11.87
509.24	11.94
509.442	11.98
509.643	12.06
509.845	12.06
510.046	12.15
510.247	12.12
510.448	12.13
510.65	12.16
510.851	12.31
511.052	12.36
511.254	12.39
511.455	12.48
511.656	12.45
511.857	12.47
512.058	12.51
512.26	12.43
512.461	12.46
512.662	12.61
512.863	12.56
513.064	12.46
513.265	12.59
513.466	12.64
513.667	12.57
513.868	12.6
514.069	12.74
514.27	12.83
514.471	12.79
514.672	12.82
514.873	12.79
515.074	12.8
515.275	12.76
515.476	12.81
515.677	12.91
515.878	13.13
516.079	13.21
516.28	13.23
516.481	13.25
516.682	13.31
516.882	13.17
517.083	13.12
517.284	13.12
517.485	13.15
517.686	13.07
517.886	13.1
518.087	13.14
518.288	13.2
518.488	13.23
518.689	13.26
518.89	13.29
519.091	13.36
519.291	13.34
519.492	13.38
519.692	13.47
519.893	13.6
520.094	13.58
520.294	13.52
520.495	13.49
520.695	13.46
520.896	13.37
521.096	13.48
521.297	13.6
521.497	13.65
521.698	13.67
521.898	13.77
522.099	13.73
522.299	13.78
522.499	13.77
522.7	13.78
522.9	13.8
523.101	13.9
523.301	13.94
523.501	14.03
523.702	14.08
523.902	14.14
524.102	14.18
524.302	14.16
524.503	14.18
524.703	14.25
524.903	14.26
525.103	14.17
525.304	14.2
525.504	14.27
525.704	14.24
525.904	14.21
526.104	14.31
526.304	14.34
526.504	14.35
526.705	14.37
526.905	14.42
527.105	14.36
527.305	14.36
527.505	14.24
527.705	14.29
527.905	14.3
528.105	14.37
528.305	14.37
528.505	14.54
528.705	14.53
528.905	14.54
529.105	14.51
529.304	14.57
529.504	14.63
529.704	14.68
529.904	14.74
530.104	14.79
530.304	14.84
530.503	14.82
530.703	14.8
530.903	14.79
531.103	14.85
531.303	14.83
531.502	14.89
531.702	14.94
531.902	14.94
532.101	14.91
532.301	14.96
532.501	14.99
532.7	15.05
532.9	15.11
533.1	15.18
533.299	15.19
533.499	15.18
533.698	15.18
533.898	15.14
534.097	15.14
534.297	15.25
534.496	15.24
534.696	15.33
534.895	15.53
535.095	15.64
535.294	15.59
535.494	15.6
535.693	15.57
535.892	15.5
536.092	15.47
536.291	15.51
536.491	15.63
536.69	15.72
536.889	15.76
537.088	15.79
537.288	15.89
537.487	15.93
537.686	15.94
537.886	16.01
538.085	16.1
538.284	16.14
538.483	16.15
538.682	16.21
538.882	16.27
539.081	16.28
539.28	16.28
539.479	16.3
539.678	16.31
539.877	16.3
540.076	16.37
540.275	16.37
540.474	16.45
540.673	16.46
540.872	16.53
541.071	16.6
541.27	16.7
541.469	16.71
541.668	16.81
541.867	16.9
542.066	16.9
542.265	16.95
542.464	17.03
542.663	17.11
542.862	17.21
543.06	17.31
543.259	17.45
543.458	17.49
543.657	17.52
543.856	17.47
544.054	17.46
544.253	17.47
544.452	17.53
544.651	17.57
544.849	17.62
545.048	17.76
545.247	17.73
545.445	17.81
545.644	17.91
545.843	17.98
546.041	17.97
546.24	18.17
546.438	18.26
546.637	18.3
546.836	18.41
547.034	18.55
547.233	18.55
547.431	18.53
547.63	18.62
547.828	18.64
548.027	18.67
548.225	18.77
548.423	18.85
548.622	18.94
548.82	18.98
549.019	19.05
549.217	19.16
549.415	19.23
549.614	19.31
549.812	19.4
550.01	19.43
550.209	19.43
550.407	19.54
550.605	19.49
550.803	19.6
551.002	19.76
551.2	19.82
551.398	19.89
551.596	20.09
551.794	20.15
551.993	20.25
552.191	20.43
552.389	20.59
552.587	20.65
552.785	20.79
552.983	20.86
553.181	20.93
553.379	20.99
553.577	21.08
553.775	21.15
553.973	21.25
554.171	21.26
554.369	21.3
554.567	21.43
554.765	21.53
554.963	21.61
555.161	21.7
555.359	21.84
555.557	21.93
555.755	22.01
555.952	22.19
556.15	22.33
556.348	22.4
556.546	22.5
556.744	22.57
556.941	22.54
557.139	22.67
557.337	22.81
557.535	22.91
557.732	23.05
557.93	23.18
558.128	23.24
558.325	23.37
558.523	23.42
558.721	23.6
558.918	23.65
559.116	23.75
559.313	23.81
559.511	24.02
559.708	24.02
559.906	24.12
560.104	24.2
560.301	24.3
560.498	24.37
560.696	24.47
560.893	24.68
561.091	24.84
561.288	24.97
561.486	25.04
561.683	25.22
561.88	25.29
562.078	25.45
562.275	25.49
562.473	25.67
562.67	25.82
562.867	25.96
563.064	26.01
563.262	26.18
563.459	26.22
563.656	26.31
563.853	26.45
564.051	26.59
564.248	26.63
564.445	26.77
564.642	26.81
564.839	26.91
565.036	27.05
565.234	27.23
565.431	27.32
565.628	27.42
565.825	27.51
566.022	27.67
566.219	27.74
566.416	27.87
566.613	28.04
566.81	28.15
567.007	28.07
567.204	28.22
567.401	28.24
567.598	28.25
567.795	28.28
567.991	28.36
568.188	28.43
568.385	28.6
568.582	28.64
568.779	28.74
568.976	28.87
569.172	28.92
569.369	28.91
569.566	29.03
569.763	29.08
569.96	29.06
570.156	29.13
570.353	29.15
570.55	29.29
570.746	29.39
570.943	29.61
571.14	29.58
571.336	29.73
571.533	29.8
571.729	29.75
571.926	29.83
572.123	29.89
572.319	29.93
572.516	29.8
572.712	29.95
572.909	29.86
573.105	30.03
573.302	30.05
573.498	30.22
573.695	30.21
573.891	30.25
574.087	30.27
574.284	30.25
574.48	30.19
574.677	30.23
574.873	30.18
575.069	30.23
575.266	30.29
575.462	30.23
575.658	30.17
575.854	30.39
576.051	30.28
576.247	30.19
576.443	30.28
576.639	30.24
576.835	30.11
577.032	30.13
577.228	30.32
577.424	30.36
577.62	30.47
577.816	30.48
578.012	30.5
578.208	30.39
578.404	30.36
578.6	30.31
578.796	30.32
578.993	30.32
579.189	30.21
579.384	30.12
579.58	30.12
579.776	30.07
579.972	29.99
580.168	29.98
580.364	30.03
580.56	29.92
580.756	29.93
580.952	29.86
581.148	29.93
581.343	29.97
581.539	30.16
581.735	30.17
581.931	30.32
582.127	30.37
582.322	30.35
582.518	30.2
582.714	30.15
582.909	30.06
583.105	29.98
583.301	29.88
583.496	29.91
583.692	29.9
583.888	29.84
584.083	29.9
584.279	29.99
584.474	29.93
584.67	30.04
584.866	30.15
585.061	30
585.257	29.97
585.452	30.03
585.648	29.96
585.843	29.89
586.039	29.98
586.234	29.97
586.429	29.86
586.625	29.85
586.82	29.84
587.015	29.84
587.211	29.73
587.406	29.85
587.601	29.78
587.797	29.79
587.992	29.81
588.187	29.99
588.383	29.96
588.578	30.01
588.773	30.06
588.968	30.01
589.163	30
589.359	29.98
589.554	29.99
589.749	29.99
589.944	30.08
590.139	30.16
590.334	30.2
590.529	30.21
590.724	30.3
590.919	30.34
591.114	30.3
591.309	30.41
591.504	30.57
591.699	30.48
591.894	30.59
592.089	30.57
592.284	30.58
592.479	30.65
592.674	30.77
592.869	30.83
593.064	30.87
593.259	30.88
593.454	30.93
593.648	30.89
593.843	30.89
594.038	30.96
594.233	31.06
594.428	31.14
594.622	31.24
594.817	31.34
595.012	31.53
595.206	31.56
595.401	31.51
595.596	31.54
595.79	31.57
595.985	31.56
596.18	31.65
596.374	31.85
596.569	31.93
596.763	31.95
596.958	32.03
597.153	32.17
597.347	32.12
597.542	32.29
597.736	32.36
597.931	32.43
598.125	32.45
598.319	32.58
598.514	32.48
598.708	32.57
598.903	32.71
599.097	32.74
599.291	32.82
599.486	32.91
599.68	32.94
599.874	33.03
600.069	33.06
600.263	33.03
600.457	33.16
600.651	33.2
600.846	33.12
601.04	33.22
601.234	33.35
601.428	33.4
601.622	33.48
601.817	33.52
602.011	33.57
602.205	33.51
602.399	33.52
602.593	33.6
602.787	33.55
602.981	33.53
603.175	33.64
603.369	33.63
603.563	33.61
603.757	33.76
603.951	33.74
604.145	33.59
604.339	33.54
604.533	33.38
604.727	33.29
604.921	33.25
605.115	33.3
605.309	33.31
605.502	33.39
605.696	33.29
605.89	33.3
606.084	33.26
606.278	33.26
606.471	33.15
606.665	33.1
606.859	33.07
607.053	32.96
607.246	32.93
607.44	32.93
607.634	32.94
607.827	32.88
608.021	32.83
608.214	32.83
608.408	32.76
608.602	32.69
608.795	32.66
608.989	32.57
609.182	32.39
609.376	32.36
609.569	32.35
609.763	32.23
609.956	32.13
610.15	32.03
610.343	31.93
610.537	31.81
610.73	31.78
610.923	31.86
611.117	31.86
611.31	31.83
611.504	31.78
611.697	31.57
611.89	31.41
612.083	31.37
612.277	31.31
612.47	31.2
612.663	31.22
612.856	31.15
613.05	31.03
613.243	30.94
613.436	30.87
613.629	30.71
613.822	30.55
614.015	30.43
614.209	30.33
614.402	30.27
614.595	30.37
614.788	30.37
614.981	30.34
615.174	30.1
615.367	30.03
615.56	29.88
615.753	29.81
615.946	29.65
616.139	29.7
616.332	29.67
616.525	29.6
616.718	29.56
616.911	29.58
617.103	29.52
617.296	29.46
617.489	29.44
617.682	29.39
617.875	29.38
618.067	29.47
618.26	29.33
618.453	29.29
618.646	29.28
618.838	29.22
619.031	29.19
619.224	29.15
619.417	29.07
619.609	29.03
619.802	28.93
619.994	28.77
620.187	28.73
620.38	28.8
620.572	28.74
620.765	28.87
620.957	28.79
621.15	28.78
621.342	28.63
621.535	28.6
621.727	28.47
621.92	28.37
622.112	28.42
622.305	28.46
622.497	28.41
622.69	28.44
622.882	28.44
623.074	28.37
623.267	28.41
623.459	28.34
623.651	28.25
623.844	28.36
624.036	28.38
624.228	28.25
624.42	28.24
624.613	28.35
624.805	28.27
624.997	28.15
625.189	28.14
625.381	28.17
625.574	27.87
625.766	27.78
625.958	27.87
626.15	27.87
626.342	27.88
626.534	27.94
626.726	27.99
626.918	27.89
627.11	27.78
627.302	27.72
627.494	27.74
627.686	27.68
627.878	27.56
628.07	27.57
628.262	27.48
628.454	27.43
628.646	27.5
628.838	27.64
629.029	27.55
629.221	27.61
629.413	27.6
629.605	27.36
629.797	27.28
629.989	27.31
630.18	27.28
630.372	27.23
630.564	27.21
630.755	27.19
630.947	27.15
631.139	26.99
631.33	26.9
631.522	27.02
631.714	26.98
631.905	26.95
632.097	26.88
632.289	26.94
632.48	26.85
632.672	26.79
632.863	26.68
633.055	26.69
633.246	26.68
633.438	26.68
633.629	26.62
633.821	26.64
634.012	26.64
634.203	26.48
634.395	26.52
634.586	26.6
634.777	26.56
634.969	26.62
635.16	26.74
635.351	26.56
635.543	26.49
635.734	26.42
635.925	26.29
636.117	26.34
636.308	26.4
636.499	26.37
636.69	26.38
636.881	26.46
637.073	26.42
637.264	26.38
637.455	26.43
637.646	26.58
637.837	26.66
638.028	26.52
638.219	26.45
638.41	26.34
638.601	26.12
638.792	26.03
638.983	26
639.174	26.1
639.365	26.14
639.556	26.2
639.747	26.19
639.938	26.29
640.129	26.24
640.32	26.18
640.511	26.21
640.701	26.23
640.892	26.16
641.083	26.09
641.274	26.07
641.465	25.99
641.655	25.85
641.846	25.79
642.037	25.85
642.228	25.84
642.418	25.85
642.609	25.89
642.8	25.91
642.99	25.79
643.181	25.8
643.372	25.74
643.562	25.61
643.753	25.58
643.943	25.49
644.134	25.41
644.324	25.45
644.515	25.53
644.705	25.44
644.896	25.51
645.086	25.44
645.277	25.39
645.467	25.31
645.658	25.34
645.848	25.24
646.038	25.18
646.229	25.1
646.419	24.98
646.61	24.86
646.8	24.83
646.99	24.82
647.18	24.79
647.371	24.78
647.561	24.8
647.751	24.85
647.941	24.73
648.132	24.73
648.322	24.67
648.512	24.67
648.702	24.57
648.892	24.62
649.082	24.64
649.272	24.54
649.462	24.4
649.653	24.3
649.843	24.25
650.033	24.15
650.223	24.19
650.413	24.1
650.603	24.16
650.793	24.18
650.983	24.09
651.172	24.01
651.362	24.07
651.552	23.83
651.742	23.69
651.932	23.63
652.122	23.52
652.312	23.51
652.502	23.54
652.691	23.47
652.881	23.35
653.071	23.32
653.261	23.13
653.45	22.96
653.64	22.86
653.83	22.71
654.019	22.56
654.209	22.48
654.399	22.38
654.588	22.31
654.778	22.15
654.968	21.97
655.157	21.77
655.347	21.75
655.536	21.48
655.726	21.31
655.915	21.18
656.105	21.06
656.294	20.87
656.484	20.81
656.673	20.78
656.863	20.73
657.052	20.56
657.241	20.27
657.431	19.97
657.62	19.74
657.809	19.37
657.999	19.18
658.188	19.06
658.377	18.9
658.567	18.75
658.756	18.66
658.945	18.4
659.134	18.15
659.324	18.02
659.513	17.79
659.702	17.49
659.891	17.34
660.08	17.28
660.269	17.11
660.458	16.95
660.648	16.83
660.837	16.64
661.026	16.44
661.215	16.2
661.404	15.97
661.593	15.84
661.782	15.58
661.971	15.35
662.16	15.12
662.349	14.96
662.538	14.77
662.726	14.8
662.915	14.6
663.104	14.52
663.293	14.45
663.482	14.36
663.671	14.12
663.86	14
664.048	13.9
664.237	13.84
664.426	13.57
664.615	13.45
664.803	13.33
664.992	13.16
665.181	12.9
665.369	12.81
665.558	12.75
665.747	12.63
665.935	12.57
666.124	12.56
666.312	12.5
666.501	12.35
666.69	12.24
666.878	12.12
667.067	11.93
667.255	11.94
667.444	12.02
667.632	11.96
667.82	11.98
668.009	11.95
668.197	11.81
668.386	11.55
668.574	11.56
668.762	11.43
668.951	11.33
669.139	11.29
669.327	11.26
669.516	11.27
669.704	11.14
669.892	11.28
670.08	11.2
670.269	11.14
670.457	11
670.645	10.93
670.833	10.86
671.021	10.93
671.21	11.01
671.398	11.12
671.586	11.14
671.774	11.04
671.962	10.9
672.15	10.93
672.338	10.88
672.526	10.98
672.714	10.91
672.902	11.07
673.09	11.11
673.278	11.23
673.466	11.18
673.654	11.4
673.842	11.32
674.03	11.26
674.218	11.07
674.405	11.19
674.593	11.09
674.781	11.28
674.969	11.35
675.157	11.63
675.344	11.71
675.532	11.84
675.72	11.93
675.908	11.91
676.095	11.74
676.283	11.78
676.471	11.94
676.658	11.87
676.846	12.02
677.033	12.29
677.221	12.44
677.409	12.34
677.596	12.46
677.784	12.51
677.971	12.5
678.159	12.43
678.346	12.58
678.534	12.69
678.721	12.97
678.909	13.1
679.096	13.19
679.283	13.33
679.471	13.37
679.658	13.45
679.846	13.55
680.033	13.79
680.22	13.89
680.408	14
680.595	14.03
680.782	14.23
680.969	14.35
681.157	14.45
681.344	14.53
681.531	14.59
681.718	14.66
681.905	14.86
682.093	15.13
682.28	15.4
682.467	15.72
682.654	15.86
682.841	16.02
683.028	16.19
683.215	16.46
683.402	16.53
683.589	16.85
683.776	17.26
683.963	17.41
684.15	17.68
684.337	18.03
684.524	18.4
684.711	18.45
684.898	18.67
685.085	18.97
685.271	19.41
685.458	19.47
685.645	19.74
685.832	20.31
686.019	20.72
686.205	20.96
686.392	21.47
686.579	22.03
686.766	22.31
686.952	22.61
687.139	23.1
687.326	23.37
687.512	23.72
687.699	24.19
687.886	24.58
688.072	24.94
688.259	25.52
688.445	26.07
688.632	26.47
688.818	27.17
689.005	27.69
689.191	28.14
689.378	28.75
689.564	29.4
689.751	30
689.937	30.43
690.124	31.12
690.31	31.57
690.496	32.16
690.683	32.66
690.869	33.41
691.055	33.92
691.242	34.62
691.428	35.15
691.614	35.67
691.8	36.45
691.987	37.14
692.173	37.77
692.359	38.43
692.545	39.08
692.731	39.33
692.918	40.13
693.104	40.65
693.29	41.3
693.476	42.09
693.662	43.02
693.848	43.43
694.034	44.12
694.22	44.8
694.406	45.27
694.592	45.9
694.778	46.55
694.964	47.05
695.15	47.78
695.336	48.27
695.522	49.08
695.708	49.61
695.894	50.32
696.08	50.89
696.265	51.48
696.451	51.84
696.637	52.66
696.823	53.18
697.009	53.62
697.194	54.25
697.38	54.86
697.566	55.32
697.751	56.09
697.937	56.78
698.123	57.56
698.308	58.19
698.494	58.84
698.68	59.13
698.865	59.8
699.051	60.16
699.236	60.49
699.422	60.8
699.607	61.4
699.793	61.75
699.978	62.36
700.164	62.73
700.349	63.57
700.535	64.17
700.72	64.46
700.906	65.11
701.091	65.64
701.276	65.92
701.462	66.43
701.647	67.06
701.832	67.17
702.018	67.48
702.203	67.67
702.388	67.69
702.573	68.17
702.759	68.65
702.944	69.18
703.129	69.31
703.314	69.72
703.499	69.92
703.684	70.08
703.87	70.84
704.055	71.82
704.24	72.22
704.425	72.57
704.61	73
704.795	73.04
704.98	73.1
705.165	73.04
705.35	73.45
705.535	73.83
705.72	73.79
705.905	74.07
706.09	74.91
706.275	75.03
706.459	74.95
706.644	75.38
706.829	75.64
707.014	75.61
707.199	75.83
707.384	76.25
707.568	76.25
707.753	76.55
707.938	76.62
708.123	76.75
708.307	76.9
708.492	77.2
708.677	77.34
708.861	77.49
709.046	77.37
709.231	78.01
709.415	78.48
709.6	78.32
709.784	78.52
709.969	78.64
710.153	78.21
710.338	78.08
710.522	78.58
710.707	79.17
710.891	79.86
711.076	80.16
711.26	80.35
711.445	80.36
711.629	80.19
711.813	80.11
711.998	80.44
712.182	80.66
712.366	81.03
712.551	81.57
712.735	81.94
712.919	81.6
713.103	82.01
713.288	81.54
713.472	81.47
713.656	81.83
713.84	82.14
714.024	82.26
714.208	82.3
714.393	82.36
714.577	81.93
714.761	82.28
714.945	82.1
715.129	82.12
715.313	82.44
715.497	82.55
715.681	82.94
715.865	82.97
716.049	83.66
716.233	83.49
716.417	84
716.601	83.34
716.785	83.25
716.968	83.43
717.152	83.61
717.336	83.03
717.52	83.5
717.704	83.47
717.888	83.6
718.071	83.57
718.255	84.07
718.439	83.73
718.622	84.16
718.806	83.99
718.99	83.73
719.174	83.14
719.357	83.25
719.541	83.25
719.724	83.3
719.908	84.35
720.092	85.1
720.275	85.51
720.459	85.13
720.642	85.15
720.826	84.31
721.009	84.21
721.193	83.79
721.376	84.05
721.559	84.05
721.743	84.46
721.926	84.62
722.11	85.42
722.293	85.17
722.476	85.16
722.66	84.95
722.843	84.79
723.026	84.24
723.21	84.78
723.393	85.26
723.576	84.94
723.759	84.52
723.942	84.6
724.126	84.66
724.309	84.52
724.492	84.93
724.675	85.52
724.858	85.76
725.041	85.58
725.224	85.58
725.407	85.71
725.59	85.95
725.774	86.11
725.957	85.84
726.14	85.81
726.322	85.8
726.505	85.18
726.688	85.55
726.871	85.93
727.054	86.38
727.237	86.45
727.42	87.13
727.603	86.6
727.786	86.89
727.968	86.8
728.151	86.81
728.334	86.55
728.517	86.65
728.699	86.89
728.882	86.61
729.065	86.76
729.248	87.39
729.43	87.9
729.613	88.24
729.796	89.11
729.978	88.54
730.161	88.13
730.343	88.03
730.526	89.07
730.708	88.29
730.891	89.49
731.073	89.49
731.256	89.21
731.438	87.47
731.621	88.15
731.803	87.48
731.986	87.58
732.168	87.18
732.35	87.37
732.533	86.98
732.715	87.04
732.898	87.42
733.08	88.02
733.262	88.47
733.444	88.26
733.627	88.53
733.809	88.92
733.991	89.19
734.173	88.78
734.355	88.73
734.538	89.01
734.72	88.05
734.902	88.09
735.084	88.74
735.266	88.9
735.448	88.84
735.63	88.86
735.812	88.78
735.994	88.64
736.176	88.9
736.358	88.33
736.54	88.74
736.722	88.21
736.904	87.91
737.086	87.64
737.268	88.55
737.45	89.4
737.632	89.77
737.814	89.48
737.995	89.64
738.177	89.16
738.359	88.24
738.541	88.94
738.723	89.56
738.904	89.52
739.086	90.29
739.268	90.1
739.449	90.36
739.631	90.39
739.813	91.1
739.994	90.92
740.176	91.53
740.358	90.7
740.539	91.01
740.721	90.76
740.902	91.75
741.084	91.13
741.265	90.42
741.447	90.52
741.628	90.74
741.81	89.16
741.991	89.98
742.172	91.29
742.354	90.7
742.535	90.64
742.717	91.15
742.898	90.97
743.079	91.5
743.261	91.26
743.442	90.95
743.623	91.44
743.804	90.77
743.986	90.66
744.167	90.06
744.348	90.14
744.529	89.41
744.71	89.39
744.891	88.42
745.073	89.29
745.254	88.09
745.435	87.49
745.616	86.6
745.797	86.41
745.978	85.76
746.159	86.46
746.34	86.64
746.521	89.17
746.702	88.53
746.883	88.87
747.064	88.67
747.245	89.06
747.426	87.9
747.606	88.93
747.787	89.22
747.968	89.16
748.149	89.48
748.33	90.72
748.51	90.6
748.691	88.77
748.872	89.28
749.053	89.22
749.233	87.84
749.414	87.32
749.595	88.81
749.775	88.28
749.956	88.37
750.137	88.77
750.317	90.17
750.498	92.17
750.678	92.47
750.859	92.75
751.04	92.95
751.22	91.28
751.4	89.62
751.581	89.31
751.761	89.32
751.942	89.03
752.122	89.03
752.303	89.16
752.483	89.42
752.663	88.77
752.844	87.38
753.024	89.26
753.204	89.32
753.385	88.79
753.565	88.7
753.745	90.16
753.925	88.96
754.106	88.07
754.286	88.23
754.466	87.93
754.646	88.3
754.826	87.27
755.006	86.99
755.187	88.07
755.367	89.44
755.547	89.49
755.727	91.32
755.907	92.09
756.087	91.59
756.267	89.19
756.447	88.15
756.627	87.18
756.807	86.98
756.987	87.57
757.167	88.91
757.346	89.66
757.526	89.03
757.706	90.79
757.886	90.4
758.066	90.88
758.246	90.85
758.425	90.62
758.605	89.16
758.785	89.33
758.965	88.93
759.144	87.67
759.324	87.97
759.504	88.76
759.683	87.84
759.863	86.66
760.043	86.59
760.222	86.49
760.402	84.35
760.581	84.89
760.761	86.51
760.94	86.13
761.12	87.69
761.299	88.16
761.479	87.6
761.658	86.29
761.838	86.51
762.017	85.35
762.197	86.37
762.376	86.98
762.555	88.42
762.735	89.68
762.914	89.3
763.093	88.27
763.273	87.44
763.452	85.1
763.631	83.83
763.81	83.22
763.99	83.21
764.169	83.31
764.348	83.19
764.527	81.85
764.706	84.07
764.885	86.04
765.064	85.11
765.243	85.43
765.423	87.96
765.602	86.35
765.781	82.84
765.96	81.68
766.139	82.04
766.318	81.04
766.497	81.24
766.676	83.45
766.854	86.47
767.033	86.5
767.212	86.42
767.391	85.68
767.57	85.2
767.749	85.31
767.928	86.29
768.106	85.59
768.285	83.86
768.464	83.79
768.643	82.39
768.821	81.58
769	82.5
769.179	83.44
769.357	82.38
769.536	82.43
769.715	82.67
769.893	84.32
770.072	85.33
770.25	87.4
770.429	88.26
770.607	87.1
770.786	85.94
770.964	86.89
771.143	85.75
771.321	86.02
771.5	88.3
771.678	86.6
771.857	85.37
772.035	85.43
772.213	83.43
772.392	80.72
772.57	82.88
772.748	82.99
772.927	82.04
773.105	82.46
773.283	84.27
773.461	83.48
773.64	83.85
773.818	84.81
773.996	85.05
774.174	83.43
774.352	81.96
774.531	79.94
774.709	81.15
774.887	80.93
775.065	81.09
775.243	82.23
775.421	81.79
775.599	82.65
775.777	81.22
775.955	80.25
776.133	78.54
776.311	81.63
776.489	77.14
776.667	77.6
776.844	79.4
777.022	79.15
777.2	76.27
777.378	77.83
777.556	79.76
777.734	81.63
777.911	84.64
778.089	84.43
778.267	82.81
778.445	79.36
778.622	77.07
778.8	73.38
778.978	76.21
779.155	78.19
779.333	81.58
779.511	81.69
779.688	83.66
779.866	80.12
780.043	76.79
780.221	74.06
780.398	72.24
780.576	73.81
780.753	76.17
780.931	77.08
781.108	76.34
781.286	77.29
781.463	74.55
781.64	72.49
781.818	73.74
781.995	75.39
782.172	76.1
782.35	77.56
782.527	77.93
782.704	78.02
782.882	80.58
783.059	78.82
783.236	79.05
783.413	82.11
783.59	82.93
783.768	78.07
783.945	80.35
784.122	78.82
784.299	78.43
784.476	76.93
784.653	77.68
784.83	74.74
785.007	73.68
785.184	73.55
785.361	71.08
785.538	77.86
785.715	80.2
785.892	81.6
786.069	80.75
786.246	83.16
786.423	77.28
786.6	78.69
786.776	80.11
786.953	78.71
787.13	82.46
787.307	83.46
787.484	78.89
787.66	76.49
787.837	77.41
788.014	74.63
788.191	70.89
788.367	72.39
788.544	75.06
788.721	75.39
788.897	76.88
789.074	78.01
789.25	77.62
789.427	77.76
789.603	75.34
789.78	73.92
789.956	76.11
790.133	75
790.309	76.17
790.486	82.06
790.662	80
790.839	80.77
791.015	81.31
791.192	76.73
791.368	75.08
791.544	74.68
791.721	74.15
791.897	73.94
792.073	73.93
792.249	68.57
792.426	72.73
792.602	72.53
792.778	76.06
792.954	78.64
793.13	82.21
793.307	75.44
793.483	70.8
793.659	70.85
793.835	73.36
794.011	71.99
794.187	74.36
794.363	75.05
794.539	79.5
794.715	71.53
794.891	75
795.067	77.15
795.243	82.51
795.419	77.2
795.595	75.18
795.771	71.42
795.947	71.63
796.122	68.35
796.298	68.97
796.474	74.45
796.65	71.63
796.826	69.12
797.001	67.09
797.177	63.31
797.353	64.77
797.529	66.96
797.704	67.36
797.88	68.58
798.056	67.42
798.231	63.62
798.407	67.57
798.582	72.95
798.758	78.2
798.934	81.71
799.109	83.27
799.285	78.6
799.46	78.44
799.636	75.09
799.811	73.77
799.986	72.88
800.162	73.6
800.337	66.16
800.513	62.05
800.688	63.93
800.863	73.65
801.039	74.65
801.214	80.06
801.389	87.82
801.565	80.8
801.74	64.83
801.915	73.59
802.09	69.47
802.265	74.31
802.441	76.13
802.616	81.7
802.791	74.3
802.966	75.32
803.141	71.29
803.316	68.47
803.491	75.93
803.666	78.46
803.841	79.06
804.016	76.19
804.191	79.31
804.366	67.74
804.541	65.32
804.716	63.24
804.891	58
805.066	62.99
805.241	64.59
805.416	61.39
805.591	60.56
805.765	65.08
805.94	62.87
806.115	62.52
806.29	59.38
806.464	57.26
806.639	56.57
806.814	54.05
806.989	52.6
807.163	64.59
807.338	67.18
807.512	61
807.687	48.96
807.862	55.54
808.036	54.07
808.211	54.74
808.385	65.86
808.56	85.02
808.734	94.32
808.909	87.61
809.083	83.97
809.258	84.83
809.432	79.7
809.606	68.41
809.781	79.4
809.955	85.03
810.13	81.62
810.304	73.24
810.478	70.81
810.652	62.44
810.827	60.26
811.001	58.15
811.175	60.8
811.349	59.27
811.524	54.69
811.698	49.56
811.872	47.73
812.046	55.85
812.22	59.37
812.394	58.26
812.568	67.94
812.742	66.09
812.916	58.43
813.09	53.61
813.264	58.08
813.438	59.58
813.612	60.03
813.786	56.52
813.96	64.94
814.134	64.04
814.308	67.23
814.482	73.11
814.656	74.84
814.83	67.86
815.003	73.22
815.177	65.03
815.351	66.74
815.525	70.43
815.698	75.4
815.872	66.2
816.046	56.51
816.219	53.7
816.393	62.07
816.567	66.27
816.74	65.97
816.914	78.23
817.088	76.19
817.261	69.19
817.435	59.26
817.608	69.99
817.782	60.73
817.955	61.42
818.129	55.3
818.302	61.14
818.475	65.1
818.649	65.03
818.822	59.44
818.996	78.8
819.169	81.6
819.342	64.31
819.516	76.02
819.689	81.62
819.862	68.08
820.035	58.9
820.209	63.33
820.382	61.5
820.555	57.79
820.728	38.47
820.901	44.64
821.075	48.91
821.248	41.22
821.421	33.58
821.594	59.58
821.767	68.22
821.94	75.12
822.113	55.71
822.286	58.38
822.459	54.18
822.632	46.25
822.805	43.38
822.978	53.88
823.151	60.39
823.324	52.15
823.496	34.66
823.669	24.71
823.842	36.01
824.015	23.35
824.188	39.42
824.361	45.09
824.533	41.21
824.706	43.93
824.879	49.13
825.051	38.62
825.224	47
825.397	50.2
825.569	43.15
825.742	54.31
825.915	75.13
826.087	85.45
826.26	60.09
826.432	65.66
826.605	70.92
826.777	58.41
826.95	47.62
827.122	47.66
827.295	60.88
827.467	52.9
827.64	35.74
827.812	28.98
827.984	42.93
828.157	28.39
828.329	8.04
828.501	37.37
828.674	64.18
828.846	51.9
829.018	49.85
829.19	37.37
829.363	48.09
829.535	43.53
829.707	55.24
829.879	53.36
830.051	58.43
830.223	31.77
830.395	10.16
830.568	-4.96
830.74	-17.39
830.912	6.66
831.084	10.65
831.256	12.42
831.428	24.54
831.6	19.69
831.772	-8.96
831.943	-29.6
832.115	9.77
832.287	18.11
832.459	26.05
832.631	37.66
832.803	61.11
832.975	68.35
833.146	43.95
833.318	45.71
833.49	55.7
833.662	47.56
833.833	8.48
834.005	24.86
834.177	38.65
834.348	48.87
834.52	42.57
834.692	64.34
834.863	63
835.035	40.34
835.206	-9.58
835.378	5.84
835.549	6.95
835.721	24.14
835.892	11.5
836.064	17.83
836.235	22.7
836.407	40.2
836.578	13.22
836.749	34.12
836.921	6.79
837.092	-39.09
837.264	-52.95
837.435	-49.49
837.606	-9.79
837.777	25.22
837.949	35
838.12	46.73
838.291	49.56
838.462	42.29
838.633	21.54
838.805	33
838.976	45.29
839.147	31.52
839.318	-12.58
839.489	-40.8
839.66	-26.95
839.831	-21.37
840.002	1.04
840.173	19.11
840.344	72.01
840.515	71.04
840.686	18.09
840.857	-3.47
841.028	-10.84
841.199	-19.95
841.369	-40.62
841.54	-25.37
841.711	-5.02
841.882	7.36
842.053	-10.88
842.223	-5.19
842.394	6.92
842.565	8.4
842.736	24.46
842.906	48.04
843.077	61.22
843.248	79.97
843.418	72.57
843.589	50.06
843.759	85.4
843.93	63.46
844.101	48.4
844.271	50.56
844.442	36.42
844.612	31.49
844.783	3.73
844.953	-40.71
845.123	-97.05
845.294	-93.63
845.464	-326.87
845.635	-209.38
845.805	-93.94
845.975	-39.01
846.146	-70.73
846.316	-29.96
846.486	12.63
846.656	31.52
846.827	32.56
846.997	32.77
847.167	20.02
847.337	6.6
847.507	-33.66
847.677	-6.97
847.848	52.6
848.018	55.38
848.188	45.72
848.358	36.88
848.528	21.92
848.698	-20.71
848.868	-94.76
849.038	-145.59
849.208	-3.96
849.378	27.73
849.548	10.8
849.718	28.14
849.887	43.94
850.057	6.6
850.227	-13.58
850.397	-9.7
850.567	-97.25
850.737	-285.65
850.906	-832.5
851.076	-597.66
851.246	-340.84
851.415	-38.56
851.585	-18.31
851.755	-23.79
851.924	19.45
852.094	-3.45
852.264	-30.53
852.433	-424.04
852.603	-46.78
852.772	-53.24
852.942	16.24
853.111	0
853.281	13.7
853.45	7.65
853.62	-35.54
853.789	-46.8
853.959	-48.66
854.128	-7.12
854.297	-21.18
854.467	-31.56
854.636	1.65
854.805	40.88
854.975	27.79
855.144	92.88
855.313	507.69
855.482	177.37
855.652	-9.51
855.821	27.03
855.99	46.15
856.159	26.79
856.328	49.26
856.497	62.65
856.667	51.22
856.836	39.7
857.005	22.05
857.174	-23.39
857.343	-51.83
857.512	17.98
857.681	26.19
857.85	19.61
858.019	69.81
858.188	60
858.356	12.42
858.525	-16.63
858.694	-6.21
858.863	-134.66
859.032	-103.81
859.201	-115.33
859.369	-35.97
859.538	0
859.707	29.54
859.876	20.92
860.044	18.92
860.213	45.09
860.382	25.15
860.55	43.72
860.719	67.94
860.888	50.89
861.056	3.53
861.225	8.8
861.393	29.35
861.562	7.94
861.73	-61.52
861.899	-105.24
862.067	-1024.14
862.236	-56.16
862.404	-166.86
862.572	-46.2
862.741	-20.17
862.909	-23.99
863.078	-128.94
863.246	-76.87
863.414	-60.45
863.582	3.17
863.751	-4.85
863.919	42.02
864.087	96.19
864.255	93.72
864.424	-5.98
864.592	39.79
864.76	-47.82
864.928	-429.6
865.096	-185.35
865.264	-131
865.432	-1063.64
865.6	147
865.768	34.66
865.936	17.99
866.104	50.11
866.272	27.19
866.44	-170.08
866.608	295.11
866.776	143.05
866.944	1200
867.112	-246.61
867.28	-87.65
867.448	-19.58
867.615	17.51
867.783	16.25
867.951	12.41
868.119	39.4
868.286	29.68
868.454	-59.41
868.622	5.01
868.789	27.07
868.957	-1157.14
869.125	-1610.53
869.292	-80.34
869.46	-261.56
869.627	-59.83
869.795	-56.21
869.963	-19.91
870.13	-5.6
870.298	29.25
870.465	-4.57
870.632	-16.15
870.8	-22.02
870.967	-40.8
871.135	-129.02
871.302	-142
871.469	-140.71
871.637	-121.71
871.804	-121.58
871.971	-137.55
872.139	-397.67
872.306	-39.97
872.473	-90.71
872.64	-310.3
872.807	-171.43
872.975	-16.46
873.142	-250.91
873.309	1435.14
873.476	-30.22
873.643	32.02
873.81	1.65
873.977	44.8
874.144	50.22
874.311	5.65
874.478	-11.19
874.645	-12.46
874.812	-6.68
874.979	4.32
875.146	20.98
875.313	-5.31
875.48	50.38
875.647	24.8
875.813	7.3
875.98	3.53
876.147	-12.91
876.314	-45.16
876.481	352.07
876.647	-512.36
876.814	87.05
876.981	182.31
877.147	31.5
877.314	36.43
877.481	76.1
877.647	74.6
877.814	39.16
877.98	42.52
878.147	40.64
878.314	37.63
878.48	-20.13
878.647	28.2
878.813	49.74
878.979	37.19
879.146	12.29
879.312	14.21
879.479	-33.89
879.645	-102.77
879.811	-211.99
879.978	-654.96
880.144	-194.66
880.31	-109.98
880.477	-344.68
880.643	-415.14
880.809	-171.25
880.975	-155.21
881.142	-976.36
881.308	-101.37
881.474	-63.39
881.64	-82.72
881.806	-106.5
881.972	-16.69
882.138	-55.4
882.304	-47.55
882.47	-90.72
882.636	-432.79
882.802	-125.16
882.968	-5.59
883.134	-0.3
883.3	-2.36
883.466	20.69
883.632	43.85
883.798	12.33
883.964	0.64
884.129	-2.63
884.295	29.06
884.461	-21.08
884.627	-30.71
884.793	-51.4
884.958	-6.74
885.124	-62.48
885.29	-135.86
885.455	-263.59
885.621	-59.58
885.787	-131.88
885.952	-89.35
886.118	-77.3
886.283	-32.71
886.449	-102.2
886.614	-110.89
886.78	-214.62
886.945	1067.21
887.111	-705.78
887.276	-550.57
887.442	-755.45
887.607	-287.26
887.773	-138.54
887.938	-112.01
888.103	-112.38
888.269	-150.9
888.434	-285.41
888.599	-113.03
888.764	-42.19
888.93	-50.64
889.095	-47.07
889.26	-74.83
889.425	-36.81
889.59	-3.83
889.756	-3.21
889.921	33.11
890.086	56.09
890.251	22.08
890.416	-100.23
890.581	-1059.68
890.746	204.64
890.911	271.34
891.076	121.24
891.241	-78.36
891.406	96.29
891.571	71.8
891.736	-130.73
891.901	-512.39
892.065	797.8
892.23	187.12
892.395	273.58
892.56	370.23
892.725	-370.31
892.889	-1002.44
893.054	-54.89
893.219	13.78
893.384	39.89
893.548	-14.13
893.713	-19.24
893.878	-43.46
