Data from Ofra_PS_T2_2A_4HS13_Reflection_3.txt Node
Date: Wed Jul 21 17:13:12 EDT 2021
User: Adam
Spectrometer: FLMT01687
Trigger mode: 0
Integration Time (sec): 1.100000E0
Scans to average: 2
Electric dark correction enabled: true
Nonlinearity correction enabled: false
Boxcar width: 2
XAxis mode: Wavelengths
Number of Pixels in Spectrum: 3648
>>>>>Begin Spectral Data<<<<<
179.494	451
179.716	518.59
179.937	533.82
180.158	558.44
180.38	822.34
180.601	363.95
180.823	160.81
181.044	86.14
181.265	318.93
181.486	161.33
181.708	132.74
181.929	450.51
182.15	191.9
182.372	269
182.593	138.41
182.814	17.77
183.035	52.39
183.257	69.41
183.478	-16.33
183.699	91.57
183.92	112.95
184.141	121.25
184.363	26.26
184.584	101.44
184.805	55.88
185.026	58.52
185.247	41.82
185.468	42.43
185.689	41.11
185.91	53.5
186.132	49.2
186.353	52.94
186.574	101.62
186.795	57.52
187.016	1.11
187.237	-8.29
187.458	-66.99
187.679	-62.34
187.9	-12.66
188.121	9.01
188.342	56.52
188.563	93.55
188.784	132.8
189.005	118.89
189.226	158.03
189.447	144.93
189.667	175.36
189.888	-68.84
190.109	-660.71
190.33	-512.1
190.551	-1143.14
190.772	-302.6
190.993	-218.79
191.214	-196.23
191.434	-113.22
191.655	-0.21
191.876	-20.03
192.097	-56.95
192.318	-91.96
192.538	-154.47
192.759	-148.6
192.98	-40.77
193.201	-27.1
193.421	-16.5
193.642	0.07
193.863	-0.84
194.083	-33.86
194.304	-35.28
194.525	-15.78
194.745	3.39
194.966	-9.79
195.187	3.95
195.407	5.59
195.628	-74.26
195.848	-108.19
196.069	-117.44
196.29	-79.46
196.51	-73.94
196.731	-68.71
196.951	-76.58
197.172	-82.73
197.392	-129.57
197.613	-161.93
197.833	-171.12
198.054	-129.68
198.274	-61.19
198.495	-53.36
198.715	-19.14
198.936	-32.15
199.156	-27.91
199.377	-118.93
199.597	-115.58
199.817	-115.85
200.038	-48.08
200.258	-83.28
200.479	-9.48
200.699	-13.03
200.919	35.73
201.14	9.5
201.36	-12.63
201.58	13.64
201.801	45.26
202.021	0.27
202.241	4.29
202.461	-13.03
202.682	-118.43
202.902	-210.07
203.122	-104.68
203.342	-55.49
203.563	4.37
203.783	39.95
204.003	30.67
204.223	12.61
204.443	45.73
204.663	15.79
204.884	26.73
205.104	66.09
205.324	104.66
205.544	78.38
205.764	88.63
205.984	87.07
206.204	85.01
206.424	77.3
206.644	75.31
206.864	78.01
207.084	67.84
207.304	59.31
207.525	-1.48
207.745	4.17
207.964	26.48
208.184	-23.57
208.404	-52.99
208.624	-65.39
208.844	-63.31
209.064	-349.48
209.284	-305.89
209.504	-132.6
209.724	4.04
209.944	1.54
210.164	57.4
210.384	49.63
210.604	23.81
210.823	-13.48
211.043	-25.99
211.263	-38.25
211.483	-36.71
211.703	-58.15
211.922	-51.58
212.142	10.8
212.362	20.03
212.582	12.27
212.801	18.87
213.021	-10.39
213.241	-35.65
213.461	-63.88
213.68	-95.7
213.9	-61.96
214.12	-22.02
214.339	-69.89
214.559	-48.96
214.779	22.11
214.998	6.6
215.218	-23.34
215.438	12.4
215.657	-5.15
215.877	-26.72
216.096	-3.43
216.316	10.68
216.535	-6.7
216.755	10.1
216.974	-51.63
217.194	-72.99
217.413	-86.82
217.633	-77.58
217.852	-147.17
218.072	-68.1
218.291	-20.83
218.511	21.22
218.73	-2.04
218.95	-7.57
219.169	3.74
219.389	-41.29
219.608	-42.61
219.827	-31.47
220.047	-7.12
220.266	-1.28
220.485	12.52
220.705	42.14
220.924	26.4
221.143	44.23
221.363	28.13
221.582	36.66
221.801	42.5
222.021	59.84
222.24	46.26
222.459	109.17
222.678	73.3
222.897	11.12
223.117	13.5
223.336	37.7
223.555	46.8
223.774	73.19
223.993	84.4
224.213	117.91
224.432	71.41
224.651	67.73
224.87	45.54
225.089	58.52
225.308	33.02
225.527	54.47
225.746	46.6
225.965	40.37
226.184	4.27
226.404	11.58
226.623	-17.71
226.842	-10.58
227.061	26.6
227.28	33.23
227.499	28.51
227.718	49.05
227.936	50.1
228.155	39.35
228.374	33.3
228.593	32.24
228.812	21.46
229.031	5.31
229.25	-38.08
229.469	-29.83
229.688	-24.52
229.907	-5.85
230.125	7.71
230.344	29.2
230.563	20.44
230.782	36.73
231.001	-29.68
231.22	-2
231.438	19.89
231.657	31.49
231.876	2.15
232.095	52.3
232.313	40.94
232.532	8.81
232.751	4.47
232.969	20.98
233.188	-53.38
233.407	9.56
233.625	11.42
233.844	-8.87
234.063	-7.05
234.281	21.36
234.5	6.54
234.719	31.86
234.937	53.47
235.156	53.26
235.374	59.26
235.593	48.48
235.811	32.66
236.03	11.89
236.249	8.53
236.467	-2.78
236.686	20.75
236.904	22.62
237.123	3.34
237.341	-9.75
237.559	-6.36
237.778	-28.03
237.996	-34.42
238.215	-0.68
238.433	34.01
238.652	40.2
238.87	27.39
239.088	33.61
239.307	32.69
239.525	21.59
239.743	-8.16
239.962	-7.65
240.18	-16.21
240.398	-40.5
240.617	-55.35
240.835	-39.57
241.053	7.84
241.271	18.22
241.49	35.55
241.708	21.89
241.926	42.14
242.144	17.31
242.363	-14.79
242.581	-41.97
242.799	9.04
243.017	36.78
243.235	18.04
243.453	17.96
243.672	15.37
243.89	-0.39
244.108	-29.18
244.326	-2.19
244.544	13.06
244.762	22.27
244.98	40.5
245.198	60.09
245.416	45.97
245.634	29.69
245.852	30.34
246.07	29.32
246.288	18.49
246.506	-18.64
246.724	12.25
246.942	17.11
247.16	21.08
247.378	47.68
247.596	70.34
247.814	56.08
248.032	8.15
248.25	23.08
248.468	0.59
248.685	7.4
248.903	35.1
249.121	51.47
249.339	21.92
249.557	6.26
249.775	10.04
249.992	-45.3
250.21	-39.67
250.428	-14.9
250.646	-24.16
250.863	-55.98
251.081	-32.59
251.299	-35.17
251.517	-28.84
251.734	-25.1
251.952	-34.9
252.17	-30.45
252.387	-12.8
252.605	-28.41
252.823	-19.89
253.04	-4.43
253.258	24.25
253.475	5.87
253.693	38.98
253.911	47.7
254.128	75.49
254.346	86.57
254.563	72.6
254.781	56.58
254.998	34.6
255.216	9.28
255.433	6.03
255.651	41.22
255.868	66.66
256.086	89.1
256.303	79.93
256.521	46.65
256.738	20.62
256.956	-25.03
257.173	-49.83
257.39	-51.89
257.608	-60.15
257.825	32.39
258.043	97.78
258.26	95
258.477	129.29
258.695	130.58
258.912	72.27
259.129	48.49
259.346	21.92
259.564	-29.19
259.781	-61.32
259.998	-21.78
260.216	2.62
260.433	51.41
260.65	59.39
260.867	77.66
261.084	44.92
261.302	11.06
261.519	-14.45
261.736	-37.52
261.953	-55.86
262.17	0.52
262.387	-3.36
262.604	-33.77
262.822	-45.02
263.039	-38.59
263.256	-100.6
263.473	-52.73
263.69	-22.2
263.907	18.28
264.124	36.69
264.341	54.91
264.558	34.78
264.775	40.35
264.992	29.78
265.209	26.94
265.426	39.84
265.643	43.54
265.86	54.94
266.077	60.68
266.294	54.21
266.51	24.35
266.727	-3.53
266.944	-7.53
267.161	-15.01
267.378	-2.45
267.595	23.35
267.812	7.25
268.028	2.09
268.245	38.13
268.462	-0.53
268.679	-15.09
268.896	38.78
269.112	26.01
269.329	8.88
269.546	16.64
269.763	8.64
269.979	-3.69
270.196	1.26
270.413	-13.12
270.629	-44.46
270.846	-51.38
271.063	-42.77
271.279	-60.99
271.496	-60.21
271.712	-11.96
271.929	15.07
272.146	-12.4
272.362	21.66
272.579	41.04
272.795	44.37
273.012	20.02
273.228	30.89
273.445	0.57
273.661	-19.08
273.878	-60.44
274.094	-29.67
274.311	-58.38
274.527	2.97
274.744	12.25
274.96	21.37
275.177	28.63
275.393	49.71
275.609	34.55
275.826	45.65
276.042	31.77
276.259	2.44
276.475	4.06
276.691	21.57
276.908	-6.5
277.124	17.88
277.34	23.5
277.557	11.9
277.773	-4.99
277.989	-1.11
278.205	-11.29
278.422	9.17
278.638	12.57
278.854	25.09
279.07	26.41
279.286	27.37
279.503	-8.59
279.719	-13.55
279.935	-36.52
280.151	-49.57
280.367	-36.55
280.583	-51.13
280.799	-36.68
281.016	-47.91
281.232	-3.26
281.448	18.29
281.664	52.51
281.88	47.1
282.096	68.43
282.312	82.55
282.528	88.35
282.744	91.42
282.96	77.48
283.176	48.34
283.392	43.24
283.608	22.46
283.824	22.34
284.04	36.12
284.256	47.76
284.471	19.98
284.687	11.73
284.903	21.3
285.119	43.41
285.335	9.75
285.551	34.98
285.767	21.96
285.982	-5.79
286.198	-57.85
286.414	12.62
286.63	9.56
286.846	36.65
287.061	14.31
287.277	51.3
287.493	21.28
287.709	34.96
287.924	27.96
288.14	75.23
288.356	51.07
288.571	67.34
288.787	49.79
289.003	43.32
289.218	16.93
289.434	-13.28
289.65	-15.12
289.865	-30.69
290.081	-7.46
290.296	-10.86
290.512	5.97
290.727	-26.25
290.943	-10.82
291.159	-27.05
291.374	-19.13
291.59	-29.43
291.805	-16.55
292.021	-17.29
292.236	-7.49
292.451	6.91
292.667	19.62
292.882	44.52
293.098	44.38
293.313	20.53
293.529	3.6
293.744	-26.21
293.959	-42.78
294.175	-35.15
294.39	0.44
294.605	17.14
294.821	51.23
295.036	63.44
295.251	70.33
295.467	51.42
295.682	42.59
295.897	-17.22
296.112	-44.65
296.328	-39.65
296.543	-57.57
296.758	-38.81
296.973	14.93
297.188	39.71
297.404	19.58
297.619	24.8
297.834	8.93
298.049	-8.06
298.264	-29.32
298.479	11.95
298.694	13.9
298.909	33.14
299.125	36.73
299.34	53.13
299.555	39.15
299.77	60.08
299.985	-4.21
300.2	-58.06
300.415	-76.83
300.63	-34.54
300.845	-48.97
301.06	-31.65
301.275	11.21
301.49	21.59
301.704	-8.69
301.919	-37.34
302.134	-58.51
302.349	-70.36
302.564	-152.98
302.779	-166.72
302.994	-83.5
303.209	-3.17
303.423	23.62
303.638	71.23
303.853	20.9
304.068	-4.93
304.283	-9.19
304.497	-8.24
304.712	-17.06
304.927	4.43
305.142	7.08
305.356	20.82
305.571	8.81
305.786	10.04
306	-16.6
306.215	1.42
306.43	-19.59
306.644	-13.8
306.859	15.17
307.074	39.15
307.288	-5.64
307.503	-5
307.717	-8.66
307.932	-10.04
308.147	-11.84
308.361	20.85
308.576	5.02
308.79	-26.6
309.005	-36.93
309.219	-25.86
309.434	-45.35
309.648	-44.25
309.863	7.77
310.077	17.34
310.292	14.68
310.506	10.1
310.72	33.07
310.935	22.71
311.149	7.2
311.364	22.41
311.578	42.46
311.792	24.86
312.007	22.53
312.221	10.5
312.435	10.73
312.649	-6.74
312.864	22.98
313.078	43.92
313.292	115.6
313.507	97.67
313.721	129.21
313.935	52.16
314.149	41.87
314.363	34.41
314.578	28.61
314.792	29.24
315.006	21.22
315.22	32.61
315.434	32.18
315.648	43.5
315.862	35.44
316.077	34.91
316.291	24.59
316.505	5.19
316.719	-6.69
316.933	-4.04
317.147	-5.05
317.361	-65.66
317.575	-69.09
317.789	-96.33
318.003	-178.31
318.217	-123.51
318.431	-31.66
318.645	24.13
318.859	12.74
319.073	47.93
319.287	23.01
319.5	-12.36
319.714	-62.44
319.928	-74.91
320.142	-101.7
320.356	-33.79
320.57	10.77
320.784	4.17
320.997	-2.58
321.211	-10.83
321.425	-61.02
321.639	-69.77
321.853	2.8
322.066	11.79
322.28	21.06
322.494	31.56
322.707	49.75
322.921	16.49
323.135	13.12
323.349	10.93
323.562	-9.1
323.776	-29.26
323.989	-9.67
324.203	-20.53
324.417	-15.95
324.63	-27.07
324.844	-38.54
325.057	-56.65
325.271	-31.53
325.485	-4.38
325.698	21.49
325.912	39.11
326.125	21.42
326.339	25.04
326.552	18.35
326.766	8.29
326.979	25.82
327.193	54.5
327.406	39.02
327.619	19.14
327.833	32.59
328.046	-5.49
328.26	-43.64
328.473	-10.15
328.686	-40.03
328.9	-34.02
329.113	6.89
329.326	18.48
329.54	4.22
329.753	14.47
329.966	15.21
330.179	10.18
330.393	12.57
330.606	8.73
330.819	22.26
331.032	28.88
331.246	27.95
331.459	51.1
331.672	44.42
331.885	44.63
332.098	21.96
332.311	29.19
332.525	-30.82
332.738	-9.72
332.951	21.24
333.164	32.55
333.377	31.03
333.59	52.46
333.803	56.14
334.016	38.08
334.229	41.76
334.442	45.55
334.655	61.89
334.868	56.39
335.081	46.12
335.294	28.22
335.507	18.06
335.72	13.14
335.933	-11.2
336.146	-9.43
336.359	10.89
336.572	-18.83
336.785	-35.92
336.997	-4.86
337.21	6.95
337.423	-7.07
337.636	-3.62
337.849	3.91
338.062	-1.81
338.274	-10.62
338.487	-7.24
338.7	1.9
338.913	-41.55
339.125	-74.53
339.338	-108.68
339.551	-74.25
339.763	-28.53
339.976	15.67
340.189	53.81
340.402	73.75
340.614	42.58
340.827	22.28
341.039	14.4
341.252	11.32
341.465	6.18
341.677	17.67
341.89	-9.35
342.102	14.32
342.315	-3.85
342.527	-14.3
342.74	-19.52
342.952	32.78
343.165	21.54
343.377	44.43
343.59	50.22
343.802	54.68
344.015	49.49
344.227	58.11
344.44	40.59
344.652	23.72
344.864	12.47
345.077	27.89
345.289	25.81
345.502	32.62
345.714	26.07
345.926	38.32
346.139	17.78
346.351	31.47
346.563	26.47
346.775	52.38
346.988	31.88
347.2	29.31
347.412	-23.63
347.624	-35.73
347.837	-78.57
348.049	-41.03
348.261	16.49
348.473	26.54
348.685	30.16
348.897	29.58
349.11	16.35
349.322	-18.58
349.534	21.67
349.746	31.41
349.958	39.23
350.17	17.23
350.382	24.31
350.594	-3.74
350.806	-7.14
351.018	-3.52
351.23	-1.93
351.442	-35.85
351.654	-37.02
351.866	-29.21
352.078	-30.4
352.29	-2.14
352.502	13.99
352.714	28.62
352.926	26.74
353.138	23.17
353.35	15.14
353.561	14.59
353.773	0.06
353.985	7.84
354.197	-1.03
354.409	-11.84
354.621	-13.2
354.832	-11.53
355.044	-28.76
355.256	-26.85
355.468	-2.04
355.679	-3.99
355.891	1.94
356.103	-6.87
356.314	3.39
356.526	-13.52
356.738	-1.55
356.949	-7.66
357.161	23.18
357.373	30.03
357.584	25.9
357.796	17.47
358.008	16
358.219	17.77
358.431	11.25
358.642	25.92
358.854	28.66
359.065	24.76
359.277	-5.55
359.488	-10.15
359.7	-35.06
359.911	-56.83
360.123	-33.55
360.334	-48.81
360.546	-67.78
360.757	-65.75
360.969	-32.29
361.18	-29.87
361.391	13.19
361.603	15.16
361.814	37.16
362.025	19.29
362.237	14.22
362.448	21.79
362.659	34.13
362.871	27.64
363.082	22.29
363.293	21.26
363.504	1.37
363.716	-38.57
363.927	-66.45
364.138	-78.19
364.349	-96.12
364.56	-87.92
364.772	-60.25
364.983	-24.43
365.194	-24.13
365.405	-7.48
365.616	19.8
365.827	22.21
366.038	-7.29
366.25	-4.49
366.461	-18.29
366.672	-5.9
366.883	9.05
367.094	21.83
367.305	7.79
367.516	11.28
367.727	-27.32
367.938	-39.9
368.149	-40.46
368.36	-9.43
368.571	-4.1
368.781	-10.54
368.992	-24.69
369.203	-43.42
369.414	-73.17
369.625	-84.56
369.836	-68.79
370.047	-91.19
370.258	-59.57
370.468	-66.04
370.679	-74.09
370.89	-64.13
371.101	-29.97
371.312	-43.1
371.522	-19.39
371.733	-3.37
371.944	8.9
372.155	12.33
372.365	4.58
372.576	1.24
372.787	-12.5
372.997	-43.23
373.208	-44.74
373.419	-14.17
373.629	-53.9
373.84	-50.12
374.05	-47.41
374.261	-36.94
374.472	-63.05
374.682	12.02
374.893	23.99
375.103	57.51
375.314	47.98
375.524	50.38
375.735	40.7
375.945	42.12
376.156	6
376.366	8.07
376.577	13.75
376.787	-2.51
376.997	-3.85
377.208	2.13
377.418	-9.26
377.629	1.47
377.839	-2.16
378.049	-5.82
378.26	12.08
378.47	18.44
378.68	10.96
378.89	13.1
379.101	11.12
379.311	-18.36
379.521	-35.92
379.732	-41.44
379.942	-47.22
380.152	-61.89
380.362	-32.38
380.572	-29.96
380.783	-10.23
380.993	10.67
381.203	26.4
381.413	51.51
381.623	57.51
381.833	45.49
382.043	32.31
382.253	15.48
382.463	-2.55
382.674	-16.43
382.884	-38.29
383.094	-37.58
383.304	-20.94
383.514	-10.67
383.724	8.09
383.934	3.56
384.144	-3.12
384.353	-11.98
384.563	-16.26
384.773	-16.12
384.983	-15.59
385.193	0.44
385.403	2.64
385.613	4.51
385.823	-8.53
386.033	3.94
386.242	-8.63
386.452	-12.77
386.662	-21.87
386.872	-6.18
387.082	-12.27
387.291	-11.41
387.501	-5.85
387.711	1.79
387.921	-4.98
388.13	-10.23
388.34	-1.02
388.55	-8.05
388.759	-12.33
388.969	-6.2
389.179	-2.7
389.388	-3.01
389.598	8.01
389.807	2.48
390.017	-4.16
390.227	-2.87
390.436	-5.51
390.646	-8.64
390.855	-2.32
391.065	-1.51
391.274	-5.24
391.484	-5.84
391.693	-2.45
391.903	-3.01
392.112	3.86
392.322	9.26
392.531	12.48
392.74	9.19
392.95	5.52
393.159	3.35
393.369	1.39
393.578	-0.34
393.787	-1.49
393.997	0.42
394.206	-2.09
394.415	-1.84
394.625	-2.69
394.834	-1.83
395.043	-0.5
395.252	1.86
395.462	4.23
395.671	6.38
395.88	6.55
396.089	6.94
396.298	4.78
396.508	3.38
396.717	2.76
396.926	3.32
397.135	3.12
397.344	3.73
397.553	4.88
397.762	5.55
397.971	5.24
398.181	5.25
398.39	4.51
398.599	3.23
398.808	3.06
399.017	3.93
399.226	4.82
399.435	5.83
399.644	6.21
399.853	5.57
400.062	4.97
400.27	4.06
400.479	3.84
400.688	3.05
400.897	3.29
401.106	3.42
401.315	3.58
401.524	3.53
401.733	4.18
401.941	4.54
402.15	4.44
402.359	3.98
402.568	4.54
402.777	4.67
402.985	4.24
403.194	4.18
403.403	4.53
403.612	3.85
403.82	3.53
404.029	3.94
404.238	3.81
404.446	3.99
404.655	3.81
404.864	3.92
405.072	3.47
405.281	3.74
405.489	3.52
405.698	3.61
405.906	3.66
406.115	3.67
406.324	3.63
406.532	3.76
406.741	3.97
406.949	3.88
407.158	3.83
407.366	3.73
407.574	3.55
407.783	3.54
407.991	3.39
408.2	3.55
408.408	3.57
408.617	3.51
408.825	3.41
409.033	3.53
409.242	3.55
409.45	3.67
409.658	3.68
409.867	3.77
410.075	3.61
410.283	3.44
410.491	3.18
410.7	3.09
410.908	3.06
411.116	3.32
411.324	3.31
411.533	3.25
411.741	3.49
411.949	3.47
412.157	3.24
412.365	3.37
412.573	3.53
412.781	3.46
412.99	3.42
413.198	3.67
413.406	3.68
413.614	3.57
413.822	3.45
414.03	3.4
414.238	3.13
414.446	3.19
414.654	3.12
414.862	3.26
415.07	3.3
415.278	3.4
415.486	3.16
415.694	3.32
415.902	3.1
416.109	3.05
416.317	3.04
416.525	2.92
416.733	2.78
416.941	2.97
417.149	3
417.357	3.11
417.564	3.3
417.772	3.62
417.98	3.52
418.188	3.5
418.395	3.37
418.603	3.48
418.811	3.15
419.019	3.13
419.226	3.36
419.434	3.53
419.642	3.31
419.849	3.39
420.057	3.41
420.265	3.27
420.472	2.94
420.68	2.97
420.887	2.87
421.095	2.94
421.302	2.86
421.51	3.08
421.717	3.21
421.925	3.26
422.132	3.15
422.34	2.94
422.547	2.99
422.755	2.8
422.962	2.75
423.17	2.61
423.377	2.64
423.585	2.63
423.792	2.59
423.999	2.6
424.207	2.67
424.414	2.93
424.621	2.91
424.829	2.94
425.036	2.91
425.243	3.12
425.451	2.96
425.658	2.67
425.865	3.06
426.072	3.14
426.28	3.28
426.487	3.08
426.694	3.3
426.901	2.89
427.108	2.79
427.315	2.58
427.523	2.96
427.73	2.88
427.937	2.9
428.144	2.82
428.351	2.65
428.558	2.67
428.765	2.55
428.972	2.48
429.179	2.75
429.386	3.09
429.593	2.82
429.8	2.85
430.007	3.05
430.214	3.08
430.421	2.79
430.628	2.72
430.835	2.61
431.042	2.73
431.249	2.7
431.456	2.78
431.662	2.98
431.869	3.26
432.076	3.18
432.283	3.25
432.49	3.18
432.697	3.13
432.903	2.78
433.11	2.71
433.317	2.72
433.524	2.89
433.73	2.82
433.937	3.15
434.144	3.03
434.35	2.92
434.557	2.72
434.764	2.78
434.97	2.66
435.177	2.9
435.384	2.83
435.59	3
435.797	3.26
436.003	3.33
436.21	3.16
436.416	3.31
436.623	3.23
436.829	3.12
437.036	3.17
437.242	3.22
437.449	3.1
437.655	3.21
437.862	3.22
438.068	3.09
438.275	3.2
438.481	3.44
438.687	3.32
438.894	3.25
439.1	3.3
439.307	3.4
439.513	3.32
439.719	3.31
439.926	3.42
440.132	3.41
440.338	3.26
440.544	3.35
440.751	3.39
440.957	3.43
441.163	3.5
441.369	3.61
441.575	3.34
441.782	3.28
441.988	3.1
442.194	3.01
442.4	2.92
442.606	3.34
442.812	3.48
443.018	3.61
443.224	3.63
443.431	3.78
443.637	3.5
443.843	3.38
444.049	3.42
444.255	3.37
444.461	3.34
444.667	3.33
444.873	3.51
445.079	3.47
445.284	3.52
445.49	3.26
445.696	3.05
445.902	2.86
446.108	2.78
446.314	2.75
446.52	2.86
446.726	3.19
446.931	3.28
447.137	3.35
447.343	3.4
447.549	3.39
447.755	3.21
447.96	3.25
448.166	3.15
448.372	3.13
448.578	3.18
448.783	3.19
448.989	3.26
449.195	3.45
449.4	3.45
449.606	3.38
449.812	3.32
450.017	3.28
450.223	3.17
450.428	3.06
450.634	3.18
450.84	3.3
451.045	3.22
451.251	3.19
451.456	3.49
451.662	3.55
451.867	3.62
452.073	3.64
452.278	3.73
452.483	3.74
452.689	3.65
452.894	3.64
453.1	3.64
453.305	3.54
453.51	3.4
453.716	3.33
453.921	3.23
454.127	3.22
454.332	3.13
454.537	3.09
454.742	3.15
454.948	3.17
455.153	3.16
455.358	3.3
455.563	3.49
455.769	3.55
455.974	3.54
456.179	3.45
456.384	3.46
456.589	3.3
456.795	3.19
457	3.17
457.205	3.47
457.41	3.44
457.615	3.4
457.82	3.39
458.025	3.41
458.23	3.15
458.435	3.13
458.64	3.18
458.845	3.33
459.05	3.25
459.255	3.32
459.46	3.39
459.665	3.34
459.87	3.32
460.075	3.34
460.28	3.31
460.485	3.31
460.69	3.3
460.895	3.13
461.099	3.2
461.304	3.32
461.509	3.31
461.714	3.3
461.919	3.48
462.123	3.34
462.328	3.34
462.533	3.28
462.738	3.35
462.942	3.27
463.147	3.43
463.352	3.46
463.556	3.53
463.761	3.57
463.966	3.59
464.17	3.52
464.375	3.37
464.58	3.31
464.784	3.23
464.989	3.15
465.193	3.06
465.398	3.16
465.602	3.25
465.807	3.26
466.011	3.36
466.216	3.42
466.42	3.43
466.625	3.45
466.829	3.5
467.034	3.52
467.238	3.76
467.443	3.74
467.647	3.69
467.851	3.76
468.056	3.83
468.26	3.66
468.464	3.64
468.669	3.69
468.873	3.82
469.077	3.72
469.282	3.83
469.486	3.81
469.69	3.84
469.894	3.63
470.099	3.66
470.303	3.71
470.507	3.69
470.711	3.58
470.915	3.58
471.119	3.52
471.324	3.4
471.528	3.36
471.732	3.4
471.936	3.39
472.14	3.48
472.344	3.55
472.548	3.69
472.752	3.91
472.956	4.15
473.16	4.11
473.364	3.98
473.568	3.95
473.772	3.87
473.976	3.63
474.18	3.7
474.384	3.82
474.588	3.83
474.792	3.7
474.995	3.84
475.199	3.95
475.403	3.99
475.607	3.97
475.811	3.98
476.015	3.99
476.218	3.93
476.422	3.82
476.626	3.87
476.83	4.03
477.033	4.02
477.237	3.86
477.441	3.98
477.644	3.96
477.848	3.89
478.052	3.76
478.255	3.89
478.459	3.88
478.663	4.02
478.866	4.02
479.07	4.1
479.273	4.2
479.477	4.15
479.681	4.02
479.884	3.95
480.088	3.89
480.291	3.76
480.495	3.83
480.698	3.85
480.901	3.89
481.105	4.07
481.308	4.1
481.512	4.08
481.715	4.12
481.919	4.19
482.122	4.14
482.325	4.14
482.529	4.16
482.732	4.15
482.935	4.08
483.138	4.01
483.342	4.12
483.545	4.19
483.748	4.2
483.952	4.28
484.155	4.41
484.358	4.33
484.561	4.31
484.764	4.32
484.967	4.41
485.171	4.45
485.374	4.38
485.577	4.4
485.78	4.4
485.983	4.36
486.186	4.21
486.389	4.25
486.592	4.22
486.795	4.25
486.998	4.16
487.201	4.22
487.404	4.31
487.607	4.36
487.81	4.39
488.013	4.45
488.216	4.51
488.419	4.43
488.622	4.39
488.825	4.28
489.028	4.29
489.231	4.28
489.433	4.22
489.636	4.23
489.839	4.34
490.042	4.26
490.245	4.19
490.447	4.3
490.65	4.28
490.853	4.22
491.056	4.34
491.258	4.37
491.461	4.37
491.664	4.42
491.866	4.38
492.069	4.47
492.272	4.44
492.474	4.45
492.677	4.47
492.879	4.57
493.082	4.52
493.285	4.7
493.487	4.67
493.69	4.62
493.892	4.52
494.095	4.48
494.297	4.42
494.5	4.47
494.702	4.55
494.905	4.63
495.107	4.62
495.309	4.6
495.512	4.59
495.714	4.58
495.917	4.63
496.119	4.6
496.321	4.72
496.524	4.81
496.726	4.83
496.928	4.78
497.13	4.81
497.333	4.79
497.535	4.78
497.737	4.73
497.939	4.72
498.142	4.78
498.344	4.66
498.546	4.55
498.748	4.61
498.95	4.74
499.152	4.7
499.355	4.78
499.557	4.89
499.759	4.96
499.961	4.87
500.163	4.91
500.365	4.92
500.567	5
500.769	4.92
500.971	4.96
501.173	4.94
501.375	4.94
501.577	4.85
501.779	4.84
501.981	4.89
502.183	4.86
502.385	4.86
502.587	4.8
502.788	4.88
502.99	4.89
503.192	4.98
503.394	4.96
503.596	5.02
503.798	5.08
503.999	5.11
504.201	5.11
504.403	5.17
504.605	5.21
504.806	5.13
505.008	5.13
505.21	5.23
505.411	5.28
505.613	5.29
505.815	5.32
506.016	5.33
506.218	5.36
506.42	5.35
506.621	5.37
506.823	5.4
507.024	5.4
507.226	5.3
507.427	5.26
507.629	5.34
507.83	5.37
508.032	5.4
508.233	5.54
508.435	5.66
508.636	5.69
508.838	5.66
509.039	5.61
509.24	5.6
509.442	5.59
509.643	5.56
509.845	5.58
510.046	5.65
510.247	5.69
510.448	5.72
510.65	5.74
510.851	5.89
511.052	5.95
511.254	5.89
511.455	5.94
511.656	6.02
511.857	6.04
512.058	6
512.26	6.01
512.461	6
512.662	6.01
512.863	5.88
513.064	5.94
513.265	5.95
513.466	6.01
513.667	5.96
513.868	6.04
514.069	6.1
514.27	6.2
514.471	6.15
514.672	6.23
514.873	6.27
515.074	6.26
515.275	6.13
515.476	6.18
515.677	6.2
515.878	6.27
516.079	6.27
516.28	6.39
516.481	6.47
516.682	6.47
516.882	6.4
517.083	6.4
517.284	6.37
517.485	6.32
517.686	6.31
517.886	6.33
518.087	6.4
518.288	6.46
518.488	6.48
518.689	6.51
518.89	6.46
519.091	6.53
519.291	6.58
519.492	6.62
519.692	6.67
519.893	6.84
520.094	6.79
520.294	6.7
520.495	6.71
520.695	6.75
520.896	6.71
521.096	6.77
521.297	6.89
521.497	6.89
521.698	6.86
521.898	6.85
522.099	6.86
522.299	6.92
522.499	7.01
522.7	7.03
522.9	7.07
523.101	7.16
523.301	7.12
523.501	7.02
523.702	7.05
523.902	7.17
524.102	7.17
524.302	7.16
524.503	7.28
524.703	7.31
524.903	7.25
525.103	7.17
525.304	7.29
525.504	7.35
525.704	7.39
525.904	7.44
526.104	7.41
526.304	7.37
526.504	7.34
526.705	7.37
526.905	7.42
527.105	7.54
527.305	7.55
527.505	7.48
527.705	7.46
527.905	7.49
528.105	7.46
528.305	7.49
528.505	7.6
528.705	7.68
528.905	7.65
529.105	7.68
529.304	7.72
529.504	7.84
529.704	7.76
529.904	7.77
530.104	7.81
530.304	7.89
530.503	7.83
530.703	7.82
530.903	7.85
531.103	7.92
531.303	7.85
531.502	7.89
531.702	8.01
531.902	8.03
532.101	7.97
532.301	7.98
532.501	7.98
532.7	7.98
532.9	7.99
533.1	8.09
533.299	8.13
533.499	8.17
533.698	8.12
533.898	8.12
534.097	8.06
534.297	8.15
534.496	8.15
534.696	8.25
534.895	8.39
535.095	8.56
535.294	8.53
535.494	8.54
535.693	8.6
535.892	8.56
536.092	8.42
536.291	8.41
536.491	8.46
536.69	8.48
536.889	8.45
537.088	8.49
537.288	8.57
537.487	8.67
537.686	8.68
537.886	8.76
538.085	8.82
538.284	8.95
538.483	8.88
538.682	8.95
538.882	9.01
539.081	9.11
539.28	9
539.479	9.02
539.678	9.02
539.877	9.12
540.076	9.09
540.275	9.1
540.474	9.26
540.673	9.29
540.872	9.21
541.071	9.26
541.27	9.34
541.469	9.37
541.668	9.36
541.867	9.44
542.066	9.53
542.265	9.63
542.464	9.62
542.663	9.72
542.862	9.88
543.06	9.94
543.259	9.9
543.458	9.99
543.657	10.05
543.856	10.08
544.054	10.04
544.253	10.1
544.452	10.14
544.651	10.22
544.849	10.16
545.048	10.24
545.247	10.3
545.445	10.35
545.644	10.35
545.843	10.36
546.041	10.41
546.24	10.56
546.438	10.69
546.637	10.74
546.836	10.95
547.034	11.07
547.233	11.04
547.431	11
547.63	11.09
547.828	11.1
548.027	11.14
548.225	11.2
548.423	11.27
548.622	11.36
548.82	11.39
549.019	11.45
549.217	11.61
549.415	11.67
549.614	11.67
549.812	11.7
550.01	11.67
550.209	11.71
550.407	11.79
550.605	11.9
550.803	12
551.002	12.17
551.2	12.19
551.398	12.26
551.596	12.36
551.794	12.4
551.993	12.41
552.191	12.48
552.389	12.65
552.587	12.73
552.785	12.83
552.983	12.98
553.181	13.11
553.379	13.11
553.577	13.11
553.775	13.16
553.973	13.21
554.171	13.32
554.369	13.33
554.567	13.43
554.765	13.55
554.963	13.63
555.161	13.58
555.359	13.74
555.557	13.91
555.755	13.93
555.952	14.11
556.15	14.21
556.348	14.28
556.546	14.38
556.744	14.41
556.941	14.36
557.139	14.52
557.337	14.56
557.535	14.52
557.732	14.69
557.93	14.87
558.128	14.93
558.325	15.05
558.523	15.15
558.721	15.27
558.918	15.35
559.116	15.45
559.313	15.49
559.511	15.67
559.708	15.7
559.906	15.77
560.104	15.83
560.301	15.92
560.498	15.9
560.696	15.99
560.893	16.13
561.091	16.27
561.288	16.45
561.486	16.57
561.683	16.68
561.88	16.77
562.078	16.82
562.275	16.8
562.473	16.89
562.67	17.03
562.867	17.14
563.064	17.22
563.262	17.27
563.459	17.35
563.656	17.44
563.853	17.47
564.051	17.56
564.248	17.77
564.445	17.91
564.642	17.93
564.839	18.04
565.036	18.2
565.234	18.39
565.431	18.49
565.628	18.61
565.825	18.73
566.022	18.87
566.219	18.84
566.416	18.89
566.613	18.99
566.81	19.02
567.007	18.98
567.204	19.05
567.401	19.08
567.598	19.05
567.795	19.11
567.991	19.19
568.188	19.29
568.385	19.48
568.582	19.64
568.779	19.74
568.976	19.83
569.172	19.93
569.369	19.82
569.566	19.85
569.763	19.92
569.96	19.93
570.156	19.95
570.353	20.04
570.55	20.04
570.746	20.06
570.943	20.17
571.14	20.16
571.336	20.22
571.533	20.34
571.729	20.32
571.926	20.41
572.123	20.52
572.319	20.59
572.516	20.56
572.712	20.69
572.909	20.58
573.105	20.64
573.302	20.63
573.498	20.73
573.695	20.71
573.891	20.77
574.087	20.78
574.284	20.85
574.48	20.76
574.677	20.87
574.873	21.03
575.069	21.12
575.266	21.14
575.462	21.17
575.658	21.19
575.854	21.14
576.051	21.1
576.247	21.11
576.443	21.12
576.639	21.11
576.835	21.1
577.032	21.05
577.228	21.16
577.424	21.29
577.62	21.25
577.816	21.36
578.012	21.36
578.208	21.23
578.404	21.24
578.6	21.31
578.796	21.17
578.993	21.2
579.189	21.27
579.384	21.08
579.58	20.99
579.776	20.99
579.972	20.89
580.168	20.87
580.364	21.02
580.56	20.95
580.756	20.91
580.952	20.98
581.148	21
581.343	20.96
581.539	21.11
581.735	21.19
581.931	21.2
582.127	21.17
582.322	21.12
582.518	21.1
582.714	21.08
582.909	21
583.105	20.93
583.301	20.94
583.496	20.97
583.692	20.89
583.888	20.9
584.083	21.03
584.279	21.08
584.474	21.08
584.67	21.2
584.866	21.26
585.061	21.1
585.257	21.1
585.452	21.06
585.648	20.96
585.843	20.98
586.039	21.03
586.234	21.02
586.429	20.94
586.625	21.03
586.82	21.01
587.015	20.94
587.211	20.79
587.406	20.89
587.601	20.8
587.797	20.78
587.992	20.84
588.187	21
588.383	20.91
588.578	20.96
588.773	20.99
588.968	21.02
589.163	21.07
589.359	21.04
589.554	21.03
589.749	21.03
589.944	21.05
590.139	20.98
590.334	21.05
590.529	21
590.724	21.07
590.919	21.17
591.114	21.14
591.309	21.24
591.504	21.33
591.699	21.25
591.894	21.3
592.089	21.31
592.284	21.36
592.479	21.48
592.674	21.53
592.869	21.51
593.064	21.72
593.259	21.76
593.454	21.75
593.648	21.81
593.843	21.87
594.038	21.85
594.233	21.78
594.428	21.75
594.622	21.88
594.817	21.93
595.012	22.02
595.206	22.12
595.401	22.18
595.596	22.16
595.79	22.2
595.985	22.24
596.18	22.34
596.374	22.46
596.569	22.52
596.763	22.53
596.958	22.6
597.153	22.64
597.347	22.69
597.542	22.83
597.736	22.8
597.931	22.83
598.125	22.85
598.319	23
598.514	22.96
598.708	23.19
598.903	23.2
599.097	23.27
599.291	23.21
599.486	23.06
599.68	22.9
599.874	23.05
600.069	22.96
600.263	22.96
600.457	23.15
600.651	23.26
600.846	23.15
601.04	23.28
601.234	23.38
601.428	23.48
601.622	23.5
601.817	23.51
602.011	23.6
602.205	23.6
602.399	23.54
602.593	23.58
602.787	23.64
602.981	23.51
603.175	23.48
603.369	23.48
603.563	23.52
603.757	23.63
603.951	23.67
604.145	23.64
604.339	23.68
604.533	23.48
604.727	23.35
604.921	23.28
605.115	23.32
605.309	23.26
605.502	23.35
605.696	23.26
605.89	23.29
606.084	23.19
606.278	23.11
606.471	22.96
606.665	22.87
606.859	22.75
607.053	22.69
607.246	22.7
607.44	22.72
607.634	22.72
607.827	22.78
608.021	22.62
608.214	22.55
608.408	22.55
608.602	22.41
608.795	22.26
608.989	22.21
609.182	22.1
609.376	22.06
609.569	22.07
609.763	21.93
609.956	21.87
610.15	21.82
610.343	21.78
610.537	21.76
610.73	21.87
610.923	21.92
611.117	21.89
611.31	21.78
611.504	21.7
611.697	21.48
611.89	21.42
612.083	21.22
612.277	21.21
612.47	21.11
612.663	21.1
612.856	20.98
613.05	20.95
613.243	20.9
613.436	20.79
613.629	20.77
613.822	20.6
614.015	20.54
614.209	20.36
614.402	20.49
614.595	20.49
614.788	20.58
614.981	20.49
615.174	20.45
615.367	20.19
615.56	20.02
615.753	19.93
615.946	19.9
616.139	19.89
616.332	20.12
616.525	20.08
616.718	20.11
616.911	20.21
617.103	20.19
617.296	19.98
617.489	19.94
617.682	19.85
617.875	19.76
618.067	19.65
618.26	19.62
618.453	19.64
618.646	19.62
618.838	19.64
619.031	19.78
619.224	19.74
619.417	19.72
619.609	19.75
619.802	19.66
619.994	19.6
620.187	19.58
620.38	19.51
620.572	19.37
620.765	19.48
620.957	19.31
621.15	19.3
621.342	19.28
621.535	19.37
621.727	19.27
621.92	19.29
622.112	19.24
622.305	19.31
622.497	19.14
622.69	19.08
622.882	19.09
623.074	19.2
623.267	19.15
623.459	19.07
623.651	18.92
623.844	18.93
624.036	18.82
624.228	18.73
624.42	18.78
624.613	18.96
624.805	18.83
624.997	18.81
625.189	18.76
625.381	18.8
625.574	18.65
625.766	18.72
625.958	18.68
626.15	18.79
626.342	18.79
626.534	18.87
626.726	18.8
626.918	18.83
627.11	18.76
627.302	18.73
627.494	18.61
627.686	18.6
627.878	18.47
628.07	18.49
628.262	18.48
628.454	18.53
628.646	18.6
628.838	18.73
629.029	18.61
629.221	18.67
629.413	18.55
629.605	18.41
629.797	18.33
629.989	18.34
630.18	18.2
630.372	18.17
630.564	18.19
630.755	18.25
630.947	18.29
631.139	18.15
631.33	18.1
631.522	18.19
631.714	18.12
631.905	18.1
632.097	18.11
632.289	18.13
632.48	17.97
632.672	17.91
632.863	17.74
633.055	17.73
633.246	17.73
633.438	17.68
633.629	17.66
633.821	17.69
634.012	17.62
634.203	17.52
634.395	17.5
634.586	17.54
634.777	17.53
634.969	17.58
635.16	17.71
635.351	17.69
635.543	17.6
635.734	17.65
635.925	17.62
636.117	17.57
636.308	17.56
636.499	17.52
636.69	17.39
636.881	17.39
637.073	17.52
637.264	17.51
637.455	17.54
637.646	17.66
637.837	17.7
638.028	17.54
638.219	17.59
638.41	17.51
638.601	17.42
638.792	17.43
638.983	17.38
639.174	17.33
639.365	17.4
639.556	17.38
639.747	17.23
639.938	17.29
640.129	17.2
640.32	17.11
640.511	17.1
640.701	17.27
640.892	17.16
641.083	17.21
641.274	17.2
641.465	17.23
641.655	17.08
641.846	17.05
642.037	17.01
642.228	16.91
642.418	16.89
642.609	16.87
642.8	16.89
642.99	16.82
643.181	16.97
643.372	16.91
643.562	16.89
643.753	16.79
643.943	16.75
644.134	16.56
644.324	16.47
644.515	16.37
644.705	16.45
644.896	16.42
645.086	16.53
645.277	16.59
645.467	16.68
645.658	16.56
645.848	16.58
646.038	16.46
646.229	16.39
646.419	16.26
646.61	16.3
646.8	16.23
646.99	16.23
647.18	16.21
647.371	16.21
647.561	16.13
647.751	16.14
647.941	16.03
648.132	15.94
648.322	15.94
648.512	16
648.702	15.97
648.892	16
649.082	15.99
649.272	15.85
649.462	15.65
649.653	15.53
649.843	15.51
650.033	15.49
650.223	15.48
650.413	15.49
650.603	15.53
650.793	15.52
650.983	15.46
651.172	15.37
651.362	15.32
651.552	15.19
651.742	15.08
651.932	14.98
652.122	15.09
652.312	15.16
652.502	15.14
652.691	15.12
652.881	15
653.071	14.93
653.261	14.69
653.45	14.52
653.64	14.42
653.83	14.41
654.019	14.21
654.209	14.15
654.399	14.12
654.588	13.99
654.778	13.84
654.968	13.75
655.157	13.65
655.347	13.53
655.536	13.35
655.726	13.22
655.915	13
656.105	12.9
656.294	12.77
656.484	12.66
656.673	12.61
656.863	12.63
657.052	12.4
657.241	12.25
657.431	12.07
657.62	11.88
657.809	11.59
657.999	11.43
658.188	11.34
658.377	11.22
658.567	11.1
658.756	10.99
658.945	10.96
659.134	10.74
659.324	10.53
659.513	10.28
659.702	10.15
659.891	9.88
660.08	9.78
660.269	9.77
660.458	9.73
660.648	9.6
660.837	9.51
661.026	9.39
661.215	9.22
661.404	8.97
661.593	8.89
661.782	8.7
661.971	8.58
662.16	8.37
662.349	8.36
662.538	8.19
662.726	8.19
662.915	8.05
663.104	8.01
663.293	7.95
663.482	8.02
663.671	7.88
663.86	7.76
664.048	7.65
664.237	7.56
664.426	7.26
664.615	7.22
664.803	7.17
664.992	7.15
665.181	7.02
665.369	6.91
665.558	6.83
665.747	6.73
665.935	6.66
666.124	6.62
666.312	6.7
666.501	6.62
666.69	6.48
666.878	6.34
667.067	6.17
667.255	6.17
667.444	6.35
667.632	6.45
667.82	6.54
668.009	6.55
668.197	6.53
668.386	6.38
668.574	6.53
668.762	6.41
668.951	6.4
669.139	6.35
669.327	6.24
669.516	6.24
669.704	6.25
669.892	6.33
670.08	6.28
670.269	6.27
670.457	6.03
670.645	5.87
670.833	5.85
671.021	5.85
671.21	5.91
671.398	6.13
671.586	6.24
671.774	6.15
671.962	6.13
672.15	6.1
672.338	5.92
672.526	5.95
672.714	5.92
672.902	6.04
673.09	6.18
673.278	6.42
673.466	6.44
673.654	6.62
673.842	6.55
674.03	6.57
674.218	6.35
674.405	6.45
674.593	6.42
674.781	6.57
674.969	6.56
675.157	6.62
675.344	6.68
675.532	6.76
675.72	6.78
675.908	6.89
676.095	6.89
676.283	6.9
676.471	7.02
676.658	6.98
676.846	6.96
677.033	7.07
677.221	7.15
677.409	6.96
677.596	7.08
677.784	7.05
677.971	7.09
678.159	7.13
678.346	7.28
678.534	7.36
678.721	7.54
678.909	7.61
679.096	7.58
679.283	7.83
679.471	7.97
679.658	8.03
679.846	8.28
680.033	8.5
680.22	8.5
680.408	8.43
680.595	8.55
680.782	8.46
680.969	8.66
681.157	8.74
681.344	8.91
681.531	9.02
681.718	9.04
681.905	9.05
682.093	9.15
682.28	9.32
682.467	9.52
682.654	9.76
682.841	9.87
683.028	10.15
683.215	10.3
683.402	10.23
683.589	10.44
683.776	10.67
683.963	10.69
684.15	10.92
684.337	11.16
684.524	11.37
684.711	11.59
684.898	11.68
685.085	11.97
685.271	12.32
685.458	12.56
685.645	12.83
685.832	13.23
686.019	13.44
686.205	13.66
686.392	13.89
686.579	14.03
686.766	14.47
686.952	14.78
687.139	15.28
687.326	15.57
687.512	16.05
687.699	16.35
687.886	16.6
688.072	16.77
688.259	17.32
688.445	17.7
688.632	18.02
688.818	18.64
689.005	19.11
689.191	19.43
689.378	20.05
689.564	20.56
689.751	20.9
689.937	21.3
690.124	21.85
690.31	22
690.496	22.46
690.683	23
690.869	23.52
691.055	24.04
691.242	24.77
691.428	25.39
691.614	25.88
691.8	26.44
691.987	27.13
692.173	27.72
692.359	28.15
692.545	28.92
692.731	29.49
692.918	29.97
693.104	30.56
693.29	31.24
693.476	31.7
693.662	32.36
693.848	32.89
694.034	33.34
694.22	33.85
694.406	34.6
694.592	35.42
694.778	35.93
694.964	36.57
695.15	37.1
695.336	37.56
695.522	38.05
695.708	38.74
695.894	39.54
696.08	40.38
696.265	40.86
696.451	41.61
696.637	42.31
696.823	42.65
697.009	43.1
697.194	43.6
697.38	43.69
697.566	44.25
697.751	44.96
697.937	45.62
698.123	46.35
698.308	47.08
698.494	47.57
698.68	48.11
698.865	48.58
699.051	49.31
699.236	49.52
699.422	49.86
699.607	50.1
699.793	50.46
699.978	50.59
700.164	51.14
700.349	51.79
700.535	52.11
700.72	52.63
700.906	53.4
701.091	53.84
701.276	54.07
701.462	54.83
701.647	55.34
701.832	55.6
702.018	56.26
702.203	56.76
702.388	56.9
702.573	57.3
702.759	57.78
702.944	58.04
703.129	58.42
703.314	58.83
703.499	59.16
703.684	59.37
703.87	60.44
704.055	60.95
704.24	61.53
704.425	61.98
704.61	62.41
704.795	62.24
704.98	62.46
705.165	62.46
705.35	62.58
705.535	62.91
705.72	63.04
705.905	63.38
706.09	63.94
706.275	64.3
706.459	64.51
706.644	64.67
706.829	64.87
707.014	65.02
707.199	65.34
707.384	65.46
707.568	65.79
707.753	66.43
707.938	66.61
708.123	66.67
708.307	66.54
708.492	66.46
708.677	66.22
708.861	66.3
709.046	66.25
709.231	66.91
709.415	67.65
709.6	67.67
709.784	67.84
709.969	68.49
710.153	68.53
710.338	68.47
710.522	68.79
710.707	69.23
710.891	69.14
711.076	69.39
711.26	69.32
711.445	69.65
711.629	69.72
711.813	69.96
711.998	70.29
712.182	70.43
712.366	70.54
712.551	71.34
712.735	71.75
712.919	71.47
713.103	71.98
713.288	71.77
713.472	71.04
713.656	71.36
713.84	71.6
714.024	71.51
714.208	71.63
714.393	72.34
714.577	72.31
714.761	72.24
714.945	72.6
715.129	72.73
715.313	72.43
715.497	72.36
715.681	72.99
715.865	72.61
716.049	73.11
716.233	73.08
716.417	73.18
716.601	73.1
716.785	73.42
716.968	73.39
717.152	73.53
717.336	73.57
717.52	73.58
717.704	73.51
717.888	73.93
718.071	74.52
718.255	74.64
718.439	74.72
718.622	75.28
718.806	75.27
718.99	74.81
719.174	74.81
719.357	74.98
719.541	74.76
719.724	74.57
719.908	75.4
720.092	76.07
720.275	75.96
720.459	76.28
720.642	75.94
720.826	75.49
721.009	74.86
721.193	74.61
721.376	74.71
721.559	75.69
721.743	75.78
721.926	76.16
722.11	76.46
722.293	75.91
722.476	75.42
722.66	75.52
722.843	75.41
723.026	75.56
723.21	76.02
723.393	76.76
723.576	76.49
723.759	75.98
723.942	76.04
724.126	76.3
724.309	75.79
724.492	76.19
724.675	76.42
724.858	76.98
725.041	77.09
725.224	77.37
725.407	77.24
725.59	78.04
725.774	77.6
725.957	77.05
726.14	77.02
726.322	77.07
726.505	76.7
726.688	76.98
726.871	76.83
727.054	76.91
727.237	76.64
727.42	76.89
727.603	76.89
727.786	77.47
727.968	77.67
728.151	78.15
728.334	78.1
728.517	77.75
728.699	78.21
728.882	78.11
729.065	78.23
729.248	78.43
729.43	79.43
729.613	80.1
729.796	80.79
729.978	80.49
730.161	80.31
730.343	79.67
730.526	79.4
730.708	78.49
730.891	78.92
731.073	78.6
731.256	78.85
731.438	78.98
731.621	79.67
731.803	80.02
731.986	80.53
732.168	80.02
732.35	79.83
732.533	79.52
732.715	79.57
732.898	80.38
733.08	80.66
733.262	80.87
733.444	80.65
733.627	80.45
733.809	80.59
733.991	81.46
734.173	80.72
734.355	81.16
734.538	81.36
734.72	80.28
734.902	80.01
735.084	79.73
735.266	80.01
735.448	79.95
735.63	80.04
735.812	79.81
735.994	81.62
736.176	81.61
736.358	81.24
736.54	82.48
736.722	81.56
736.904	80.81
737.086	80.93
737.268	82.13
737.45	81.84
737.632	82.9
737.814	81.82
737.995	81.83
738.177	81.61
738.359	80.65
738.541	80.82
738.723	81.4
738.904	81.74
739.086	81.35
739.268	81.35
739.449	82.28
739.631	82.26
739.813	82.46
739.994	82.2
740.176	83.3
740.358	82.41
740.539	84.2
740.721	83.39
740.902	84.42
741.084	83.33
741.265	83.34
741.447	82.47
741.628	83.01
741.81	81.97
741.991	83.25
742.172	84.55
742.354	84.61
742.535	84.8
742.717	85.64
742.898	85.51
743.079	84.65
743.261	83.97
743.442	83.39
743.623	83.6
743.804	83.7
743.986	83.52
744.167	82.75
744.348	82.23
744.529	82.5
744.71	81.25
744.891	80.3
745.073	81.54
745.254	81.13
745.435	80.48
745.616	80.34
745.797	81
745.978	80.22
746.159	81.72
746.34	80.44
746.521	82.47
746.702	81.72
746.883	81.6
747.064	80.59
747.245	81.41
747.426	80.23
747.606	81.89
747.787	82.58
747.968	82.94
748.149	83.25
748.33	83.71
748.51	82.62
748.691	81.3
748.872	81.53
749.053	81.06
749.233	80.66
749.414	80.2
749.595	80.68
749.775	79.44
749.956	78.94
750.137	79.02
750.317	80.49
750.498	82.17
750.678	84.01
750.859	85.21
751.04	84.11
751.22	82.3
751.4	81.34
751.581	80.41
751.761	80.89
751.942	82.26
752.122	81.86
752.303	82.02
752.483	81.78
752.663	81.24
752.844	79.91
753.024	81.58
753.204	82.63
753.385	81.53
753.565	80.66
753.745	81.52
753.925	80.92
754.106	79.26
754.286	80.36
754.466	81.54
754.646	82.39
754.826	83.01
755.006	82.59
755.187	83.16
755.367	82.74
755.547	82.37
755.727	82.89
755.907	82.79
756.087	83.43
756.267	83.17
756.447	82.26
756.627	80.14
756.807	81.23
756.987	79.41
757.167	80.35
757.346	79.75
757.526	79.43
757.706	79.97
757.886	81.04
758.066	81.84
758.246	84.13
758.425	85.45
758.605	82.68
758.785	82.24
758.965	81.1
759.144	78.64
759.324	79
759.504	80.46
759.683	80.85
759.863	79.55
760.043	79.05
760.222	78.83
760.402	78.59
760.581	78.03
760.761	79.84
760.94	79.17
761.12	81.13
761.299	82.2
761.479	82.05
761.658	79.66
761.838	80.48
762.017	78.82
762.197	77.44
762.376	77.73
762.555	78.75
762.735	81.35
762.914	79.95
763.093	80.38
763.273	79.46
763.452	79.54
763.631	76.95
763.81	77.6
763.99	77.99
764.169	79.22
764.348	77.35
764.527	77.02
764.706	78.58
764.885	79.23
765.064	77.24
765.243	78.87
765.423	80.83
765.602	79.91
765.781	77.9
765.96	78.02
766.139	76.5
766.318	76.52
766.497	76.45
766.676	76.85
766.854	79.42
767.033	81.75
767.212	80.87
767.391	80.82
767.57	82.07
767.749	80.46
767.928	80.55
768.106	80.57
768.285	78.79
768.464	78.21
768.643	78.05
768.821	77.47
769	77.98
769.179	78.1
769.357	77.91
769.536	76.49
769.715	76.44
769.893	76.45
770.072	76.99
770.25	76.32
770.429	78.41
770.607	76.53
770.786	77.47
770.964	77.97
771.143	77.81
771.321	79.21
771.5	80.4
771.678	78.89
771.857	77.75
772.035	78.6
772.213	75.41
772.392	73.26
772.57	75.48
772.748	76.38
772.927	75.87
773.105	77.31
773.283	78.8
773.461	76.85
773.64	77.18
773.818	75.62
773.996	76.39
774.174	76.68
774.352	75.41
774.531	73.53
774.709	77.49
774.887	77.28
775.065	76.19
775.243	76.08
775.421	76.57
775.599	75.93
775.777	73.25
775.955	72.15
776.133	72.44
776.311	74.31
776.489	71.77
776.667	74.31
776.844	77.19
777.022	75.98
777.2	74.47
777.378	73.76
777.556	73.81
777.734	75.49
777.911	78.7
778.089	76.9
778.267	78
778.445	76.15
778.622	70.72
778.8	68.65
778.978	73.47
779.155	74.55
779.333	74.89
779.511	76.73
779.688	79.29
779.866	72.93
780.043	69.7
780.221	68.96
780.398	66.97
780.576	68.2
780.753	70.53
780.931	71.56
781.108	72.82
781.286	77.55
781.463	72.88
781.64	70.75
781.818	73.85
781.995	74.3
782.172	71.18
782.35	70.88
782.527	73.27
782.704	69.37
782.882	69.88
783.059	69.44
783.236	74.34
783.413	74.85
783.59	77
783.768	74.08
783.945	77.5
784.122	75.13
784.299	76.41
784.476	72.92
784.653	70.84
784.83	69.02
785.007	64.35
785.184	62.33
785.361	64.15
785.538	71.07
785.715	72.83
785.892	77.97
786.069	80.33
786.246	83.03
786.423	80.65
786.6	79.22
786.776	79.5
786.953	76.81
787.13	76.4
787.307	75.48
787.484	77.81
787.66	73.1
787.837	76.08
788.014	72.49
788.191	70.13
788.367	65.28
788.544	70.19
788.721	67.19
788.897	72.82
789.074	74.22
789.25	74.65
789.427	75.26
789.603	77.05
789.78	75.07
789.956	77.07
790.133	76.1
790.309	74.6
790.486	78.25
790.662	75.49
790.839	75.14
791.015	75.86
791.192	73.33
791.368	70.5
791.544	69.38
791.721	69.18
791.897	71.66
792.073	70.49
792.249	64.6
792.426	69.61
792.602	69.03
792.778	66.86
792.954	65.83
793.13	69.31
793.307	62.14
793.483	56.1
793.659	55.48
793.835	63.51
794.011	60.94
794.187	59.83
794.363	65.8
794.539	72.06
794.715	60.28
794.891	62.78
795.067	65.61
795.243	64.63
795.419	59.34
795.595	59.33
795.771	60.23
795.947	60.09
796.122	55.43
796.298	60.49
796.474	64.95
796.65	61.9
796.826	62.14
797.001	64.67
797.177	56.03
797.353	60.71
797.529	65.36
797.704	62.58
797.88	64.42
798.056	67.24
798.231	64.06
798.407	66.02
798.582	68.91
798.758	72.98
798.934	80.8
799.109	79.74
799.285	71.54
799.46	72.48
799.636	68.74
799.811	61.61
799.986	64.88
800.162	74.15
800.337	73.28
800.513	67.41
800.688	64.71
800.863	72.45
801.039	62.4
801.214	61.65
801.389	67.65
801.565	70.53
801.74	59.45
801.915	66.71
802.09	66.1
802.265	71.93
802.441	68.45
802.616	65.12
802.791	64.71
802.966	64.05
803.141	58.61
803.316	60.79
803.491	66.72
803.666	71.29
803.841	72.31
804.016	67.95
804.191	67.11
804.366	58.73
804.541	51.23
804.716	49.3
804.891	51.09
805.066	56.29
805.241	60.12
805.416	61.83
805.591	58.1
805.765	59.36
805.94	53.86
806.115	53.24
806.29	45.81
806.464	51.04
806.639	49.09
806.814	50.08
806.989	42.67
807.163	55.19
807.338	57.45
807.512	51.77
807.687	38.01
807.862	59.99
808.036	61.53
808.211	64.38
808.385	76.86
808.56	93.65
808.734	96.46
808.909	84.38
809.083	77.56
809.258	77.31
809.432	70.13
809.606	48.53
809.781	50.29
809.955	60.61
810.13	59.71
810.304	59.48
810.478	60.6
810.652	70.67
810.827	66.07
811.001	58.99
811.175	58.83
811.349	61.93
811.524	50.59
811.698	39.77
811.872	47
812.046	58.86
812.22	61.98
812.394	62.8
812.568	74.09
812.742	71.73
812.916	65.55
813.09	52.58
813.264	51.22
813.438	50.94
813.612	51.67
813.786	42.42
813.96	57.29
814.134	65.51
814.308	76.7
814.482	75.61
814.656	79.85
814.83	77.81
815.003	69.45
815.177	54.54
815.351	48.6
815.525	45.07
815.698	33.18
815.872	32.32
816.046	24.3
816.219	32.42
816.393	53.47
816.567	64.74
816.74	66.01
816.914	76.01
817.088	78.6
817.261	63.56
817.435	58.92
817.608	55.88
817.782	39.11
817.955	39.58
818.129	42.09
818.302	46.16
818.475	58.9
818.649	69.94
818.822	60.06
818.996	77.78
819.169	73.47
819.342	56.38
819.516	61.34
819.689	65.56
819.862	51.69
820.035	53.51
820.209	51.67
820.382	48.81
820.555	47.62
820.728	33.11
820.901	24.85
821.075	28.88
821.248	33.57
821.421	32.52
821.594	41.32
821.767	71.53
821.94	88.84
822.113	57.54
822.286	50.12
822.459	61.04
822.632	46.59
822.805	26.77
822.978	40.89
823.151	41.38
823.324	24.73
823.496	4.26
823.669	13.16
823.842	23.38
824.015	24.81
824.188	25
824.361	37.88
824.533	27.74
824.706	30.38
824.879	23.66
825.051	35.19
825.224	28.81
825.397	20.35
825.569	4.22
825.742	32.9
825.915	49.05
826.087	40.74
826.26	31.32
826.432	38.86
826.605	34.39
826.777	22.34
826.95	39.4
827.122	34.52
827.295	25.04
827.467	26.44
827.64	-0.82
827.812	-5.21
827.984	1.46
828.157	-0.52
828.329	-36.18
828.501	-19.24
828.674	5.62
828.846	4.03
829.018	30.67
829.19	25.74
829.363	40.55
829.535	27.4
829.707	28.21
829.879	-2.32
830.051	5.3
830.223	-1.25
830.395	-16.34
830.568	-4.05
830.74	7.25
830.912	30.23
831.084	15.87
831.256	14.51
831.428	-7.85
831.6	-11.81
831.772	-45.36
831.943	-39.45
832.115	-18.88
832.287	19.31
832.459	35.08
832.631	45.97
832.803	59.43
832.975	81.74
833.146	62.19
833.318	46.47
833.49	43.14
833.662	31.65
833.833	10.21
834.005	18.31
834.177	26.63
834.348	25.48
834.52	19.04
834.692	25.64
834.863	13.08
835.035	3.73
835.206	-28.94
835.378	4.56
835.549	2.68
835.721	10.88
835.892	5.05
836.064	12.57
836.235	-0.14
836.407	18.14
836.578	2.96
836.749	0.53
836.921	-18.92
837.092	-43.41
837.264	-49.27
837.435	-69.41
837.606	-16.13
837.777	32.56
837.949	55.82
838.12	59.09
838.291	74.26
838.462	76.1
838.633	34.47
838.805	23.14
838.976	16.42
839.147	-8.37
839.318	-51.64
839.489	-72.2
839.66	-48.51
839.831	-1.01
840.002	-14.45
840.173	2.08
840.344	45.24
840.515	43.65
840.686	-21.55
840.857	48.31
841.028	25
841.199	4.95
841.369	-14.26
841.54	-19.4
841.711	-7.43
841.882	30.93
842.053	16.54
842.223	8.83
842.394	11.76
842.565	18.58
842.736	-2.31
842.906	4.41
843.077	12.96
843.248	50.54
843.418	28.2
843.589	22.32
843.759	105.34
843.93	119.8
844.101	42.46
844.271	53.99
844.442	52.99
844.612	36.97
844.783	-8.55
844.953	-45.01
845.123	-71.08
845.294	-53.38
845.464	-230.67
845.635	-51.2
845.805	2.81
845.975	11.92
846.146	-43.63
846.316	-27.87
846.486	-6.71
846.656	22.54
846.827	8.59
846.997	6.67
847.167	23.68
847.337	23.98
847.507	-20.73
847.677	3.46
847.848	63.17
848.018	60.51
848.188	43.94
848.358	30.87
848.528	4.21
848.698	-39.59
848.868	-163.28
849.038	-226.63
849.208	-65.76
849.378	12.87
849.548	8.27
849.718	34.78
849.887	58.83
850.057	36.94
850.227	-16.93
850.397	-65.68
850.567	-214.88
850.737	-595.54
850.906	-1888.44
851.076	-1189.65
851.246	-490.97
851.415	-52.94
851.585	-33.24
851.755	-51.69
851.924	13.85
852.094	-14.5
852.264	-103.93
852.433	-670.91
852.603	-84.34
852.772	-20.05
852.942	0.64
853.111	-6.24
853.281	26.14
853.45	54.76
853.62	-23.54
853.789	-36.85
853.959	12.26
854.128	-37.3
854.297	-73.01
854.467	-99.58
854.636	-65.28
854.805	10.43
854.975	12.1
855.144	20.07
855.313	307.17
855.482	-121.72
855.652	-225.62
855.821	-191.5
855.99	-8.78
856.159	25.91
856.328	36.7
856.497	40.14
856.667	66.59
856.836	62.5
857.005	24.78
857.174	24.91
857.343	-12.99
857.512	5.86
857.681	-52.18
857.85	-80.34
858.019	-31.53
858.188	-26.04
858.356	-72.61
858.525	-125.44
858.694	-103.62
858.863	-244
859.032	-167.43
859.201	-254.46
859.369	-121.36
859.538	-94.84
859.707	-44.58
859.876	-60.87
860.044	-4.22
860.213	45.44
860.382	36.12
860.55	27.06
860.719	67.58
860.888	83.41
861.056	39.99
861.225	12.49
861.393	58.51
861.562	57.1
861.73	-34.33
861.899	-148.56
862.067	-264.66
862.236	-34.54
862.404	-225.29
862.572	-110.15
862.741	-23.26
862.909	-42.4
863.078	-148.76
863.246	-92.48
863.414	-40.41
863.582	7.68
863.751	6.36
863.919	-3.37
864.087	65.6
864.255	-10.38
864.424	-370.02
864.592	-31.56
864.76	-19.38
864.928	-133.4
865.096	-55.02
865.264	-3.71
865.432	-1244.89
865.6	35.13
865.768	-86.42
865.936	-81.97
866.104	-69.88
866.272	-107.42
866.44	-343.21
866.608	457.47
866.776	216.28
866.944	2376.16
867.112	-403.71
867.28	-193.87
867.448	-63.39
867.615	-32.56
867.783	-11.86
867.951	-23.09
868.119	23.28
868.286	-34.12
868.454	-111.08
868.622	-113.54
868.789	-107.8
868.957	-2862.5
869.125	-1796.71
869.292	-102.89
869.46	-132.73
869.627	4.08
869.795	-9.66
869.963	22.24
870.13	43.15
870.298	59.41
870.465	-2.74
870.632	-9.54
870.8	-15.21
870.967	-65.65
871.135	-171.81
871.302	-129.39
871.469	-182.25
871.637	-224.82
871.804	-146.67
871.971	-162.8
872.139	-494.77
872.306	-40.25
872.473	-62.27
872.64	-214.48
872.807	0.41
872.975	73.82
873.142	-109.73
873.309	872.3
873.476	100.98
873.643	137.2
873.81	61.33
873.977	83.2
874.144	59.07
874.311	-79.47
874.478	-130.97
874.645	-138.88
874.812	-69.9
874.979	-7.59
875.146	-23.58
875.313	-21.9
875.48	44.38
875.647	21.44
875.813	-4.32
875.98	18.65
876.147	-3.39
876.314	-31.56
876.481	685.74
876.647	-1107.58
876.814	342.88
876.981	153.94
877.147	39.46
877.314	62.27
877.481	96.2
877.647	74.98
877.814	37.6
877.98	12.95
878.147	44.59
878.314	103.37
878.48	64.03
878.647	47.99
878.813	94.25
878.979	64.9
879.146	8.52
879.312	0.73
879.479	-32.68
879.645	-174.63
879.811	-343.14
879.978	-857.82
880.144	-215.38
880.31	-121.02
880.477	-343.39
880.643	-450.62
880.809	-184.94
880.975	-167.13
881.142	-1002.5
881.308	-109.33
881.474	-22.06
881.64	-51.02
881.806	-89.5
881.972	-20.18
882.138	-38.65
882.304	-101.66
882.47	-164.39
882.636	-879.3
882.802	-215.53
882.968	-16.58
883.134	15.29
883.3	9.24
883.466	52.27
883.632	90.5
883.798	41.92
883.964	25.48
884.129	29.14
884.295	38.64
884.461	-84.16
884.627	-91.06
884.793	-102.62
884.958	-38.96
885.124	-95.68
885.29	-158.97
885.455	-137.74
885.621	38.84
885.787	-88.37
885.952	-15.36
886.118	0.89
886.283	-32.57
886.449	-138.6
886.614	-109.06
886.78	-291.44
886.945	1493.03
887.111	-649.57
887.276	-461.22
887.442	-1065.23
887.607	-480.54
887.773	-293.87
887.938	-276.96
888.103	-296.83
888.269	-107.15
888.434	-211.76
888.599	-87.14
888.764	40.09
888.93	27.78
889.095	-0.52
889.26	-46.28
889.425	-15.27
889.59	22.13
889.756	-19.06
889.921	-15.39
890.086	32.58
890.251	18.81
890.416	-166.53
890.581	-1420.56
890.746	151.7
890.911	89.01
891.076	91.12
891.241	-106.53
891.406	54.78
891.571	5.98
891.736	-295.3
891.901	-450.22
892.065	427.2
892.23	129.22
892.395	188.8
892.56	273.63
892.725	-163.09
892.889	-575
893.054	-79.1
893.219	-28.93
893.384	24.59
893.548	-43.03
893.713	-49.77
893.878	-18.11
