Data from Ofra_2a_PS_6EV18_Reflection_1.txt Node
Date: Tue Jul 20 09:52:55 EDT 2021
User: Adam
Spectrometer: FLMT01687
Trigger mode: 0
Integration Time (sec): 9.450000E-1
Scans to average: 3
Electric dark correction enabled: true
Nonlinearity correction enabled: false
Boxcar width: 3
XAxis mode: Wavelengths
Number of Pixels in Spectrum: 3648
>>>>>Begin Spectral Data<<<<<
179.494	913.02
179.716	566.64
179.937	642.31
180.158	2721.48
180.38	-1292.73
180.601	-256.04
180.823	-55.55
181.044	-7.87
181.265	-99.88
181.486	80.2
181.708	840.22
181.929	91.28
182.15	-85.8
182.372	107.85
182.593	26.28
182.814	243.26
183.035	95.97
183.257	53.8
183.478	18.7
183.699	47.36
183.92	53.69
184.141	54.96
184.363	63.78
184.584	44.22
184.805	56.39
185.026	69.42
185.247	36.06
185.468	22.05
185.689	21.63
185.91	-2.32
186.132	3.17
186.353	-12.29
186.574	7.05
186.795	5.29
187.016	10.38
187.237	8.37
187.458	0.39
187.679	-17.02
187.9	-7.35
188.121	-3.19
188.342	28.91
188.563	26.05
188.784	46.71
189.005	61.11
189.226	61.69
189.447	63.37
189.667	55.73
189.888	46.65
190.109	48.55
190.33	21.18
190.551	27.02
190.772	29.01
190.993	26.97
191.214	24.19
191.434	19.49
191.655	23.6
191.876	33.54
192.097	30.21
192.318	45.47
192.538	49.74
192.759	60.15
192.98	53.96
193.201	62.12
193.421	61.6
193.642	54.5
193.863	29.5
194.083	14.87
194.304	-10.13
194.525	25.99
194.745	-1.43
194.966	-2.45
195.187	19.09
195.407	27.73
195.628	28.37
195.848	34.46
196.069	26.66
196.29	24.33
196.51	21.15
196.731	25
196.951	14.38
197.172	20.32
197.392	24.3
197.613	17.57
197.833	16.95
198.054	25.72
198.274	-2.07
198.495	18.67
198.715	0.52
198.936	-10.23
199.156	-7.88
199.377	3.27
199.597	4.3
199.817	32.14
200.038	21.97
200.258	37.9
200.479	37.07
200.699	33.36
200.919	18.16
201.14	12.69
201.36	10.58
201.58	15.92
201.801	9.23
202.021	17.62
202.241	21.74
202.461	39.04
202.682	40.39
202.902	33.78
203.122	25.22
203.342	37.26
203.563	33.29
203.783	34.57
204.003	31.75
204.223	39.16
204.443	34.89
204.663	38.04
204.884	33.99
205.104	38.82
205.324	44
205.544	47.66
205.764	39.94
205.984	41.58
206.204	41.75
206.424	38.17
206.644	28.36
206.864	21.17
207.084	28.86
207.304	24.81
207.525	27.12
207.745	37.82
207.964	29.11
208.184	28.21
208.404	23.3
208.624	-9.78
208.844	-11.31
209.064	-19.7
209.284	-17.86
209.504	-14.06
209.724	-35.78
209.944	-39.76
210.164	-4.16
210.384	-0.34
210.604	1.63
210.823	-11.29
211.043	-15.08
211.263	15.44
211.483	16.34
211.703	19.07
211.922	24.98
212.142	37.48
212.362	43.78
212.582	38.1
212.801	28.62
213.021	31.29
213.241	4.7
213.461	-1.53
213.68	-11.43
213.9	-9.03
214.12	-12.46
214.339	-5.27
214.559	3.76
214.779	20.78
214.998	22.62
215.218	26.54
215.438	36.93
215.657	45.62
215.877	47.66
216.096	37.89
216.316	30.91
216.535	28.59
216.755	25.38
216.974	11.05
217.194	14.49
217.413	19.27
217.633	21.95
217.852	28.78
218.072	41.65
218.291	46.24
218.511	36.21
218.73	32.95
218.95	36.34
219.169	49.88
219.389	35.67
219.608	30.43
219.827	8.63
220.047	37.56
220.266	37.82
220.485	37.53
220.705	16.04
220.924	27.04
221.143	15
221.363	18.61
221.582	7.97
221.801	10.33
222.021	13.78
222.24	36.91
222.459	31.98
222.678	38.37
222.897	40.42
223.117	27.03
223.336	21.06
223.555	14.96
223.774	9.66
223.993	19.06
224.213	19.25
224.432	14.76
224.651	22.77
224.87	33.39
225.089	32.8
225.308	28.52
225.527	35.15
225.746	39.8
225.965	37.18
226.184	38.56
226.404	36.44
226.623	46.28
226.842	51.79
227.061	38.09
227.28	58.5
227.499	59.48
227.718	48.68
227.936	34.22
228.155	29.61
228.374	23.18
228.593	25.41
228.812	14.04
229.031	-4.42
229.25	14.71
229.469	36.02
229.688	27.65
229.907	38.27
230.125	32.38
230.344	38.66
230.563	53.17
230.782	42.6
231.001	47.54
231.22	57.83
231.438	51.56
231.657	56.19
231.876	50.98
232.095	46.81
232.313	52.55
232.532	46.91
232.751	53.33
232.969	51.8
233.188	50.58
233.407	55.23
233.625	58.32
233.844	57.8
234.063	54.47
234.281	45.31
234.5	42.16
234.719	41.93
234.937	42.2
235.156	33.89
235.374	30.08
235.593	33.8
235.811	23.31
236.03	2.35
236.249	11.04
236.467	16.25
236.686	23.46
236.904	16.77
237.123	0.62
237.341	6.28
237.559	21.58
237.778	23.23
237.996	21.8
238.215	13.5
238.433	23.49
238.652	25.97
238.87	28.58
239.088	15.39
239.307	12.07
239.525	3
239.743	8.99
239.962	7.55
240.18	16.6
240.398	20.13
240.617	36.28
240.835	33.09
241.053	48.89
241.271	47.26
241.49	40.75
241.708	34.68
241.926	29.72
242.144	27.75
242.363	17.69
242.581	11.12
242.799	-0.16
243.017	12.27
243.235	11.22
243.453	14.82
243.672	14.58
243.89	34.14
244.108	42.42
244.326	47.94
244.544	38.74
244.762	30.87
244.98	28.36
245.198	19.31
245.416	15.08
245.634	12
245.852	15.07
246.07	18.29
246.288	20.21
246.506	38.28
246.724	47.84
246.942	48.47
247.16	38.67
247.378	30.7
247.596	29.08
247.814	25.28
248.032	6.36
248.25	2.72
248.468	10.83
248.685	22.4
248.903	27.8
249.121	27.1
249.339	27.11
249.557	29.95
249.775	23.82
249.992	15.14
250.21	6.47
250.428	9.6
250.646	17.17
250.863	19.92
251.081	28.43
251.299	40.22
251.517	62.39
251.734	61.93
251.952	64.53
252.17	63.77
252.387	59.19
252.605	60.07
252.823	48.2
253.04	29.11
253.258	26.01
253.475	20.54
253.693	36.13
253.911	41.45
254.128	36.43
254.346	41.8
254.563	40.6
254.781	40.23
254.998	41.33
255.216	28.81
255.433	20.82
255.651	17.17
255.868	17.18
256.086	14.24
256.303	16.21
256.521	10.63
256.738	10.51
256.956	9.16
257.173	11.09
257.39	15.27
257.608	21.28
257.825	19.12
258.043	19.4
258.26	18.03
258.477	22.04
258.695	23.03
258.912	24.95
259.129	20.48
259.346	23.64
259.564	22.77
259.781	32.17
259.998	37.69
260.216	37.66
260.433	35.71
260.65	44.33
260.867	39.54
261.084	53.84
261.302	55.81
261.519	52.01
261.736	49.17
261.953	35.85
262.17	31.38
262.387	23.81
262.604	0.84
262.822	-9.5
263.039	-1.28
263.256	-0.67
263.473	2.24
263.69	-5.59
263.907	8.34
264.124	6.95
264.341	6.31
264.558	11.88
264.775	10.88
264.992	7.42
265.209	20.9
265.426	15.24
265.643	18.25
265.86	17.32
266.077	15.31
266.294	21.7
266.51	23.37
266.727	3.65
266.944	-1.36
267.161	-3.32
267.378	-0.31
267.595	-8.85
267.812	-12.51
268.028	-2.45
268.245	12.51
268.462	29.71
268.679	24.74
268.896	27.57
269.112	31.96
269.329	30.77
269.546	32.65
269.763	35.1
269.979	22.63
270.196	31.14
270.413	26.9
270.629	24.18
270.846	25.86
271.063	24.43
271.279	20.31
271.496	14.79
271.712	17.1
271.929	19.85
272.146	23.81
272.362	7.71
272.579	4.13
272.795	-1.33
273.012	5.63
273.228	2.47
273.445	-0.37
273.661	-5.06
273.878	8.7
274.094	9.33
274.311	13.76
274.527	15.42
274.744	13.43
274.96	15.46
275.177	26.5
275.393	28.53
275.609	32.61
275.826	39.78
276.042	49.96
276.259	45.63
276.475	45.66
276.691	36.14
276.908	29.47
277.124	28.54
277.34	15.85
277.557	17.15
277.773	13.89
277.989	12.57
278.205	3.55
278.422	10.77
278.638	17.2
278.854	29.23
279.07	19.59
279.286	28.55
279.503	34.06
279.719	51.94
279.935	43.85
280.151	43.28
280.367	35.75
280.583	33
280.799	33.25
281.016	32.13
281.232	17.29
281.448	22.68
281.664	14.79
281.88	14.58
282.096	14.02
282.312	10.75
282.528	-4.8
282.744	0.36
282.96	-2.06
283.176	1.59
283.392	4.34
283.608	15.66
283.824	13.22
284.04	26.03
284.256	40.83
284.471	47.93
284.687	49.71
284.903	52.81
285.119	42.13
285.335	34.22
285.551	32.58
285.767	23.84
285.982	10.35
286.198	-0.94
286.414	11.32
286.63	16.79
286.846	23.94
287.061	33.4
287.277	28.62
287.493	40.82
287.709	45.24
287.924	35.5
288.14	37.1
288.356	41.01
288.571	22.86
288.787	23.18
289.003	13.28
289.218	13.89
289.434	19.69
289.65	23.91
289.865	22.83
290.081	25.94
290.296	29.18
290.512	40.57
290.727	45.64
290.943	38.53
291.159	30.1
291.374	26.66
291.59	26.52
291.805	22.5
292.021	8.53
292.236	0.66
292.451	9.51
292.667	12.89
292.882	9.39
293.098	8.87
293.313	10.76
293.529	12.46
293.744	20.75
293.959	16.77
294.175	21.97
294.39	37.56
294.605	39.06
294.821	29.2
295.036	35.58
295.251	38.88
295.467	23.87
295.682	24.4
295.897	16.01
296.112	15.04
296.328	29.84
296.543	22.04
296.758	10.05
296.973	19.22
297.188	10.39
297.404	17.23
297.619	20.32
297.834	16.02
298.049	20.01
298.264	22.75
298.479	17.96
298.694	25.4
298.909	19.45
299.125	21.67
299.34	21.65
299.555	26.35
299.77	26.77
299.985	24.76
300.2	23.47
300.415	30.03
300.63	21.06
300.845	21.98
301.06	20.17
301.275	21.81
301.49	31.55
301.704	31.55
301.919	23.7
302.134	23.25
302.349	13.61
302.564	9.4
302.779	10.09
302.994	-3.56
303.209	-10.68
303.423	-0.16
303.638	12.1
303.853	23.96
304.068	22.47
304.283	19.25
304.497	27.09
304.712	34.29
304.927	26.08
305.142	19.79
305.356	23.72
305.571	30.15
305.786	30.24
306	37.88
306.215	32.05
306.43	45.27
306.644	52.05
306.859	50.95
307.074	37.27
307.288	40.61
307.503	32.56
307.717	30.49
307.932	27.27
308.147	23.1
308.361	10.43
308.576	16.28
308.79	13.5
309.005	11.86
309.219	15.04
309.434	5.96
309.648	-0.81
309.863	9.67
310.077	7.44
310.292	16.72
310.506	28.96
310.72	32.9
310.935	45.2
311.149	50.86
311.364	46.39
311.578	42.46
311.792	29.75
312.007	20.08
312.221	26.86
312.435	17.5
312.649	10.04
312.864	10.55
313.078	24.58
313.292	32.4
313.507	41.47
313.721	26.65
313.935	46.53
314.149	39.82
314.363	52.09
314.578	75.59
314.792	76.88
315.006	77.54
315.22	79.73
315.434	62.45
315.648	62.71
315.862	44.2
316.077	25.36
316.291	25.78
316.505	17.23
316.719	-2.16
316.933	10.44
317.147	13.42
317.361	25.7
317.575	19.68
317.789	23.29
318.003	26.45
318.217	36.74
318.431	36.38
318.645	33.88
318.859	26.23
319.073	27.37
319.287	29.38
319.5	29.08
319.714	25
319.928	32.5
320.142	28.9
320.356	31.61
320.57	33.46
320.784	28.87
320.997	33.35
321.211	36.47
321.425	21.26
321.639	30.66
321.853	19.88
322.066	18.73
322.28	19.19
322.494	15.72
322.707	11.92
322.921	18.33
323.135	18.84
323.349	29.93
323.562	30.84
323.776	24.38
323.989	21.46
324.203	23.41
324.417	11.72
324.63	5.24
324.844	-10.94
325.057	-10.95
325.271	-18.24
325.485	-18.54
325.698	-19.66
325.912	-2.5
326.125	2.43
326.339	13.55
326.552	16.55
326.766	30.36
326.979	37.45
327.193	33.07
327.406	31.87
327.619	23.01
327.833	24.86
328.046	10.14
328.26	-6.96
328.473	-15.72
328.686	-5.58
328.9	-8.75
329.113	2.38
329.326	14.16
329.54	22.69
329.753	26.95
329.966	32.31
330.179	36.19
330.393	37.2
330.606	34.3
330.819	32.45
331.032	38.65
331.246	43.62
331.459	44.64
331.672	47.74
331.885	44.86
332.098	45.08
332.311	23.47
332.525	22.86
332.738	29.18
332.951	29.86
333.164	18.23
333.377	9.89
333.59	13.84
333.803	23.37
334.016	12.27
334.229	12.45
334.442	11.14
334.655	29.41
334.868	36.02
335.081	45.16
335.294	38.85
335.507	47.83
335.72	36.86
335.933	38.08
336.146	32.68
336.359	35.46
336.572	19.67
336.785	31.91
336.997	25.39
337.21	24.67
337.423	21.61
337.636	16.83
337.849	15.4
338.062	18.65
338.274	12.56
338.487	9.21
338.7	13
338.913	9.26
339.125	8.15
339.338	13.67
339.551	24.53
339.763	24.73
339.976	24.53
340.189	17.39
340.402	17.5
340.614	22.65
340.827	8.68
341.039	5.57
341.252	5.05
341.465	-0.52
341.677	-1.03
341.89	-2.15
342.102	-2
342.315	13.09
342.527	6.08
342.74	11.24
342.952	21.61
343.165	38.98
343.377	44.95
343.59	40.83
343.802	34.67
344.015	35.94
344.227	21.61
344.44	12.09
344.652	11.63
344.864	7.39
345.077	-0.44
345.289	-1.46
345.502	-0.97
345.714	0.45
345.926	15.5
346.139	14.71
346.351	-0.14
346.563	9.17
346.775	0.91
346.988	3.83
347.2	14.94
347.412	9.48
347.624	2.24
347.837	14.78
348.049	10.27
348.261	11.29
348.473	2.01
348.685	-0.5
348.897	-6.56
349.11	-0.81
349.322	-3.14
349.534	-0.31
349.746	17.6
349.958	26.25
350.17	25.26
350.382	28.78
350.594	36.12
350.806	43.04
351.018	44.07
351.23	39.18
351.442	41.72
351.654	48.36
351.866	56.79
352.078	49.12
352.29	44.12
352.502	46.62
352.714	47.75
352.926	43.78
353.138	33.8
353.35	16.37
353.561	9.02
353.773	14.38
353.985	20.8
354.197	13.49
354.409	20.53
354.621	22.65
354.832	24.06
355.044	30.17
355.256	24.11
355.468	8.24
355.679	12.85
355.891	4.23
356.103	7.23
356.314	12.4
356.526	16.25
356.738	13.66
356.949	22.06
357.161	24.19
357.373	30.7
357.584	34.39
357.796	24.96
358.008	13.37
358.219	25.53
358.431	22.16
358.642	14.54
358.854	15.74
359.065	8.58
359.277	12.2
359.488	16.38
359.7	10.55
359.911	9.2
360.123	17.23
360.334	14
360.546	8.7
360.757	18.95
360.969	21.71
361.18	22.01
361.391	21.14
361.603	21.45
361.814	26.93
362.025	31.58
362.237	21.9
362.448	24.55
362.659	15.77
362.871	18.45
363.082	19.32
363.293	16.22
363.504	21.87
363.716	22.47
363.927	23.68
364.138	29.73
364.349	33.24
364.56	31.92
364.772	34.37
364.983	26.06
365.194	34.18
365.405	29.44
365.616	26.39
365.827	16.15
366.038	22.43
366.25	14.83
366.461	23.47
366.672	14.67
366.883	21.52
367.094	21.96
367.305	22.44
367.516	10.64
367.727	12.29
367.938	8.87
368.149	17.71
368.36	15.08
368.571	11.11
368.781	13.14
368.992	11.26
369.203	12.95
369.414	6.28
369.625	-4.69
369.836	-6.54
370.047	-0.75
370.258	-2.18
370.468	-2.77
370.679	-5.93
370.89	15.13
371.101	16.91
371.312	16.58
371.522	17.02
371.733	12.99
371.944	24.03
372.155	12.71
372.365	-0.36
372.576	3.21
372.787	1.55
372.997	2.93
373.208	13.58
373.419	2.67
373.629	22.72
373.84	24.01
374.05	29.14
374.261	28.31
374.472	23.28
374.682	14.89
374.893	11.8
375.103	11.36
375.314	9.06
375.524	7.06
375.735	14.81
375.945	22.13
376.156	23.16
376.366	31.17
376.577	35.33
376.787	45.13
376.997	47.98
377.208	37.38
377.418	33.7
377.629	33.07
377.839	37.62
378.049	33.93
378.26	29.77
378.47	26.31
378.68	32.29
378.89	26.44
379.101	18.22
379.311	13.84
379.521	15.41
379.732	4.11
379.942	7
380.152	10.49
380.362	16.43
380.572	24.3
380.783	24.66
380.993	18.6
381.203	24.86
381.413	24.96
381.623	21.46
381.833	18.19
382.043	14.04
382.253	13.76
382.463	13.81
382.674	12.43
382.884	8.7
383.094	9
383.304	7.39
383.514	10.45
383.724	6.44
383.934	8.1
384.144	9.34
384.353	11.66
384.563	12.42
384.773	16.71
384.983	16.95
385.193	22.24
385.403	25.04
385.613	19.97
385.823	18.81
386.033	17.83
386.242	17.03
386.452	13.95
386.662	12.52
386.872	5.73
387.082	6.45
387.291	6.37
387.501	6.37
387.711	4.31
387.921	5.92
388.13	3.24
388.34	6.58
388.55	8.56
388.759	6.93
388.969	4.68
389.179	7.5
389.388	5.18
389.598	4.24
389.807	3.29
390.017	1.55
390.227	2.69
390.436	2.74
390.646	3.12
390.855	4.38
391.065	5.6
391.274	4.36
391.484	6.79
391.693	7.37
391.903	6.48
392.112	4.53
392.322	6.69
392.531	6.42
392.74	5.3
392.95	5.67
393.159	5.11
393.369	4.95
393.578	4.94
393.787	4.13
393.997	4.98
394.206	6.11
394.415	4.78
394.625	4.33
394.834	4.6
395.043	5
395.252	5.07
395.462	5.05
395.671	5.24
395.88	5.14
396.089	5.74
396.298	5.98
396.508	5.39
396.717	4.88
396.926	4.42
397.135	3.79
397.344	3.66
397.553	3.08
397.762	3.09
397.971	3.24
398.181	2.97
398.39	2.82
398.599	3.2
398.808	3.34
399.017	3.66
399.226	3.62
399.435	3.4
399.644	3.37
399.853	3.35
400.062	3.06
400.27	3.06
400.479	2.68
400.688	2.59
400.897	2.67
401.106	2.74
401.315	2.81
401.524	3.03
401.733	3.04
401.941	3.33
402.15	3.06
402.359	3.16
402.568	3.07
402.777	2.96
402.985	2.79
403.194	2.64
403.403	2.28
403.612	2.58
403.82	2.5
404.029	2.51
404.238	2.55
404.446	2.56
404.655	2.58
404.864	2.68
405.072	2.52
405.281	2.37
405.489	2.47
405.698	2.38
405.906	2.36
406.115	2.34
406.324	2.28
406.532	2.33
406.741	2.44
406.949	2.25
407.158	2.35
407.366	2.43
407.574	2.38
407.783	2.38
407.991	2.25
408.2	2.22
408.408	2.28
408.617	2.18
408.825	2.04
409.033	2.07
409.242	2.07
409.45	2.06
409.658	2.07
409.867	2.05
410.075	2.04
410.283	2.04
410.491	2.06
410.7	2.08
410.908	2.08
411.116	2.01
411.324	2.12
411.533	2.06
411.741	2.08
411.949	2.04
412.157	2
412.365	2.07
412.573	2.06
412.781	2.01
412.99	2.11
413.198	2.12
413.406	2.1
413.614	2.14
413.822	2.09
414.03	2.05
414.238	2.07
414.446	1.96
414.654	1.94
414.862	1.92
415.07	1.92
415.278	1.86
415.486	1.98
415.694	1.81
415.902	1.83
416.109	1.82
416.317	1.81
416.525	1.83
416.733	1.91
416.941	1.79
417.149	1.96
417.357	1.99
417.564	2.01
417.772	2.09
417.98	1.97
418.188	1.87
418.395	1.91
418.603	1.78
418.811	1.68
419.019	1.66
419.226	1.73
419.434	1.71
419.642	1.71
419.849	1.79
420.057	1.83
420.265	1.9
420.472	1.79
420.68	1.61
420.887	1.66
421.095	1.65
421.302	1.59
421.51	1.68
421.717	1.76
421.925	1.82
422.132	1.8
422.34	1.82
422.547	1.82
422.755	1.78
422.962	1.66
423.17	1.57
423.377	1.67
423.585	1.79
423.792	1.79
423.999	1.89
424.207	1.75
424.414	1.8
424.621	1.97
424.829	1.85
425.036	1.72
425.243	1.75
425.451	1.78
425.658	1.95
425.865	1.88
426.072	1.77
426.28	1.8
426.487	1.88
426.694	1.77
426.901	1.65
427.108	1.61
427.315	1.63
427.523	1.63
427.73	1.66
427.937	1.62
428.144	1.66
428.351	1.78
428.558	1.78
428.765	1.73
428.972	1.71
429.179	1.58
429.386	1.66
429.593	1.69
429.8	1.67
430.007	1.65
430.214	1.67
430.421	1.66
430.628	1.64
430.835	1.56
431.042	1.56
431.249	1.57
431.456	1.6
431.662	1.63
431.869	1.73
432.076	1.89
432.283	1.86
432.49	1.89
432.697	1.85
432.903	1.88
433.11	1.93
433.317	1.86
433.524	1.73
433.73	1.78
433.937	1.79
434.144	1.93
434.35	1.9
434.557	1.8
434.764	1.77
434.97	1.89
435.177	1.84
435.384	1.87
435.59	1.75
435.797	1.77
436.003	1.79
436.21	1.77
436.416	1.71
436.623	1.81
436.829	1.78
437.036	1.79
437.242	1.76
437.449	1.87
437.655	1.85
437.862	1.9
438.068	1.91
438.275	1.88
438.481	1.93
438.687	1.93
438.894	1.84
439.1	1.88
439.307	1.84
439.513	1.82
439.719	1.85
439.926	1.85
440.132	1.89
440.338	1.95
440.544	1.96
440.751	1.95
440.957	1.88
441.163	1.88
441.369	1.85
441.575	1.84
441.782	1.79
441.988	1.8
442.194	1.9
442.4	1.97
442.606	1.99
442.812	1.99
443.018	2.01
443.224	2.03
443.431	2.02
443.637	1.95
443.843	1.92
444.049	1.85
444.255	1.89
444.461	1.87
444.667	1.87
444.873	1.85
445.079	1.88
445.284	1.89
445.49	1.88
445.696	1.86
445.902	1.9
446.108	1.92
446.314	1.99
446.52	1.97
446.726	1.94
446.931	1.94
447.137	1.91
447.343	1.91
447.549	1.83
447.755	1.77
447.96	1.76
448.166	1.83
448.372	1.9
448.578	1.93
448.783	1.9
448.989	1.97
449.195	1.97
449.4	1.98
449.606	1.89
449.812	1.92
450.017	1.92
450.223	1.93
450.428	1.9
450.634	1.95
450.84	1.94
451.045	1.98
451.251	1.97
451.456	1.94
451.662	1.95
451.867	1.93
452.073	1.92
452.278	1.92
452.483	1.94
452.689	1.94
452.894	1.95
453.1	1.91
453.305	1.92
453.51	1.95
453.716	1.97
453.921	1.93
454.127	1.88
454.332	1.91
454.537	1.99
454.742	1.97
454.948	1.9
455.153	1.89
455.358	1.95
455.563	1.99
455.769	1.97
455.974	1.89
456.179	1.86
456.384	1.92
456.589	2
456.795	1.9
457	1.87
457.205	1.85
457.41	1.91
457.615	2
457.82	2.02
458.025	1.96
458.23	2.01
458.435	1.95
458.64	2.01
458.845	1.97
459.05	1.92
459.255	1.86
459.46	1.84
459.665	1.92
459.87	1.95
460.075	1.94
460.28	1.93
460.485	1.99
460.69	1.94
460.895	2
461.099	1.92
461.304	1.93
461.509	1.84
461.714	1.85
461.919	1.8
462.123	1.89
462.328	1.85
462.533	1.86
462.738	1.87
462.942	1.92
463.147	1.95
463.352	1.98
463.556	1.98
463.761	2.02
463.966	2.05
464.17	2.12
464.375	2.11
464.58	2.06
464.784	2.1
464.989	2.09
465.193	2.09
465.398	2.1
465.602	2.06
465.807	2.13
466.011	2.19
466.216	2.16
466.42	2.22
466.625	2.21
466.829	2.25
467.034	2.27
467.238	2.26
467.443	2.25
467.647	2.29
467.851	2.25
468.056	2.22
468.26	2.16
468.464	2.13
468.669	2.16
468.873	2.14
469.077	2.08
469.282	2.05
469.486	2.09
469.69	2.1
469.894	2.19
470.099	2.17
470.303	2.15
470.507	2.2
470.711	2.19
470.915	2.24
471.119	2.26
471.324	2.21
471.528	2.25
471.732	2.3
471.936	2.32
472.14	2.35
472.344	2.3
472.548	2.35
472.752	2.38
472.956	2.38
473.16	2.38
473.364	2.36
473.568	2.41
473.772	2.46
473.976	2.4
474.18	2.37
474.384	2.33
474.588	2.32
474.792	2.35
474.995	2.33
475.199	2.35
475.403	2.36
475.607	2.36
475.811	2.4
476.015	2.46
476.218	2.46
476.422	2.49
476.626	2.45
476.83	2.5
477.033	2.55
477.237	2.53
477.441	2.5
477.644	2.44
477.848	2.45
478.052	2.47
478.255	2.41
478.459	2.42
478.663	2.45
478.866	2.48
479.07	2.59
479.273	2.57
479.477	2.57
479.681	2.6
479.884	2.57
480.088	2.59
480.291	2.62
480.495	2.61
480.698	2.6
480.901	2.64
481.105	2.68
481.308	2.68
481.512	2.66
481.715	2.65
481.919	2.63
482.122	2.66
482.325	2.66
482.529	2.67
482.732	2.74
482.935	2.76
483.138	2.78
483.342	2.8
483.545	2.78
483.748	2.81
483.952	2.83
484.155	2.81
484.358	2.8
484.561	2.84
484.764	2.85
484.967	2.88
485.171	2.84
485.374	2.84
485.577	2.87
485.78	2.91
485.983	2.89
486.186	2.88
486.389	2.87
486.592	2.92
486.795	2.91
486.998	2.92
487.201	2.89
487.404	2.94
487.607	2.94
487.81	2.98
488.013	2.96
488.216	2.96
488.419	2.94
488.622	2.92
488.825	2.87
489.028	2.88
489.231	2.86
489.433	2.88
489.636	2.88
489.839	2.92
490.042	2.95
490.245	2.99
490.447	3
490.65	3.03
490.853	3.07
491.056	3.1
491.258	3.13
491.461	3.13
491.664	3.1
491.866	3.12
492.069	3.11
492.272	3.1
492.474	3.12
492.677	3.07
492.879	3.11
493.082	3.18
493.285	3.18
493.487	3.23
493.69	3.26
493.892	3.29
494.095	3.33
494.297	3.37
494.5	3.42
494.702	3.48
494.905	3.49
495.107	3.53
495.309	3.54
495.512	3.59
495.714	3.63
495.917	3.59
496.119	3.61
496.321	3.64
496.524	3.67
496.726	3.7
496.928	3.73
497.13	3.79
497.333	3.85
497.535	3.9
497.737	3.94
497.939	3.98
498.142	4.01
498.344	4.03
498.546	4.07
498.748	4.1
498.95	4.07
499.152	4.09
499.355	4.11
499.557	4.16
499.759	4.26
499.961	4.27
500.163	4.36
500.365	4.42
500.567	4.42
500.769	4.48
500.971	4.47
501.173	4.44
501.375	4.45
501.577	4.45
501.779	4.5
501.981	4.59
502.183	4.57
502.385	4.59
502.587	4.6
502.788	4.58
502.99	4.58
503.192	4.58
503.394	4.59
503.596	4.65
503.798	4.72
503.999	4.76
504.201	4.82
504.403	4.85
504.605	4.9
504.806	4.9
505.008	4.89
505.21	4.87
505.411	4.92
505.613	4.95
505.815	4.97
506.016	4.98
506.218	5.02
506.42	5.03
506.621	5.04
506.823	5.02
507.024	5
507.226	5
507.427	4.95
507.629	4.95
507.83	4.94
508.032	4.98
508.233	5
508.435	5.03
508.636	5.03
508.838	5.1
509.039	5.1
509.24	5.12
509.442	5.05
509.643	5.04
509.845	5.06
510.046	5.06
510.247	5.04
510.448	5.06
510.65	5.07
510.851	5.12
511.052	5.11
511.254	5.08
511.455	5.07
511.656	5.09
511.857	5.05
512.058	5.07
512.26	5.07
512.461	5.1
512.662	5.12
512.863	5.15
513.064	5.12
513.265	5.18
513.466	5.2
513.667	5.22
513.868	5.19
514.069	5.2
514.27	5.17
514.471	5.19
514.672	5.15
514.873	5.14
515.074	5.11
515.275	5.11
515.476	5.11
515.677	5.11
515.878	5.15
516.079	5.2
516.28	5.18
516.481	5.21
516.682	5.23
516.882	5.2
517.083	5.21
517.284	5.15
517.485	5.12
517.686	5.1
517.886	5.12
518.087	5.12
518.288	5.11
518.488	5.11
518.689	5.12
518.89	5.15
519.091	5.14
519.291	5.1
519.492	5.08
519.692	5.13
519.893	5.1
520.094	5.11
520.294	5.08
520.495	5.09
520.695	5.11
520.896	5.11
521.096	5.09
521.297	5.12
521.497	5.12
521.698	5.14
521.898	5.15
522.099	5.13
522.299	5.13
522.499	5.15
522.7	5.14
522.9	5.13
523.101	5.12
523.301	5.13
523.501	5.15
523.702	5.15
523.902	5.14
524.102	5.16
524.302	5.17
524.503	5.19
524.703	5.18
524.903	5.19
525.103	5.22
525.304	5.25
525.504	5.21
525.704	5.18
525.904	5.19
526.104	5.22
526.304	5.21
526.504	5.19
526.705	5.17
526.905	5.22
527.105	5.24
527.305	5.19
527.505	5.17
527.705	5.15
527.905	5.15
528.105	5.15
528.305	5.14
528.505	5.15
528.705	5.17
528.905	5.15
529.105	5.19
529.304	5.21
529.504	5.2
529.704	5.21
529.904	5.24
530.104	5.24
530.304	5.28
530.503	5.25
530.703	5.25
530.903	5.27
531.103	5.25
531.303	5.26
531.502	5.29
531.702	5.28
531.902	5.31
532.101	5.3
532.301	5.28
532.501	5.32
532.7	5.3
532.9	5.28
533.1	5.27
533.299	5.31
533.499	5.33
533.698	5.4
533.898	5.39
534.097	5.42
534.297	5.47
534.496	5.5
534.696	5.47
534.895	5.52
535.095	5.5
535.294	5.49
535.494	5.5
535.693	5.5
535.892	5.51
536.092	5.54
536.291	5.51
536.491	5.54
536.69	5.57
536.889	5.54
537.088	5.53
537.288	5.55
537.487	5.53
537.686	5.56
537.886	5.55
538.085	5.61
538.284	5.64
538.483	5.67
538.682	5.67
538.882	5.72
539.081	5.71
539.28	5.71
539.479	5.7
539.678	5.73
539.877	5.75
540.076	5.81
540.275	5.82
540.474	5.81
540.673	5.84
540.872	5.85
541.071	5.87
541.27	5.85
541.469	5.85
541.668	5.88
541.867	5.94
542.066	5.98
542.265	6.01
542.464	6.03
542.663	6.09
542.862	6.11
543.06	6.11
543.259	6.14
543.458	6.17
543.657	6.21
543.856	6.22
544.054	6.26
544.253	6.27
544.452	6.27
544.651	6.28
544.849	6.28
545.048	6.27
545.247	6.32
545.445	6.3
545.644	6.36
545.843	6.4
546.041	6.44
546.24	6.48
546.438	6.56
546.637	6.58
546.836	6.63
547.034	6.62
547.233	6.67
547.431	6.67
547.63	6.71
547.828	6.7
548.027	6.68
548.225	6.72
548.423	6.78
548.622	6.8
548.82	6.88
549.019	6.89
549.217	6.96
549.415	7.06
549.614	7.05
549.812	7.09
550.01	7.15
550.209	7.2
550.407	7.27
550.605	7.31
550.803	7.35
551.002	7.42
551.2	7.49
551.398	7.52
551.596	7.54
551.794	7.64
551.993	7.66
552.191	7.75
552.389	7.81
552.587	7.82
552.785	7.86
552.983	7.93
553.181	7.93
553.379	7.99
553.577	8.02
553.775	8.1
553.973	8.16
554.171	8.21
554.369	8.26
554.567	8.32
554.765	8.35
554.963	8.38
555.161	8.44
555.359	8.49
555.557	8.55
555.755	8.65
555.952	8.69
556.15	8.79
556.348	8.88
556.546	8.94
556.744	9.02
556.941	9.13
557.139	9.16
557.337	9.25
557.535	9.3
557.732	9.4
557.93	9.46
558.128	9.52
558.325	9.6
558.523	9.66
558.721	9.71
558.918	9.81
559.116	9.85
559.313	9.97
559.511	10.04
559.708	10.08
559.906	10.15
560.104	10.26
560.301	10.33
560.498	10.4
560.696	10.42
560.893	10.53
561.091	10.62
561.288	10.72
561.486	10.8
561.683	10.87
561.88	10.92
562.078	10.98
562.275	11.05
562.473	11.12
562.67	11.2
562.867	11.25
563.064	11.36
563.262	11.48
563.459	11.63
563.656	11.71
563.853	11.78
564.051	11.84
564.248	11.94
564.445	12.01
564.642	12.1
564.839	12.17
565.036	12.29
565.234	12.39
565.431	12.48
565.628	12.54
565.825	12.67
566.022	12.74
566.219	12.81
566.416	12.87
566.613	12.95
566.81	13
567.007	13.07
567.204	13.12
567.401	13.21
567.598	13.24
567.795	13.31
567.991	13.37
568.188	13.45
568.385	13.51
568.582	13.57
568.779	13.62
568.976	13.74
569.172	13.81
569.369	13.88
569.566	13.96
569.763	14.03
569.96	14.09
570.156	14.13
570.353	14.13
570.55	14.19
570.746	14.26
570.943	14.36
571.14	14.46
571.336	14.52
571.533	14.6
571.729	14.68
571.926	14.73
572.123	14.75
572.319	14.78
572.516	14.76
572.712	14.8
572.909	14.85
573.105	14.88
573.302	14.91
573.498	14.96
573.695	14.96
573.891	15.03
574.087	15.05
574.284	15.02
574.48	15.05
574.677	15.08
574.873	15.13
575.069	15.19
575.266	15.2
575.462	15.24
575.658	15.31
575.854	15.32
576.051	15.28
576.247	15.27
576.443	15.29
576.639	15.28
576.835	15.33
577.032	15.31
577.228	15.3
577.424	15.36
577.62	15.37
577.816	15.38
578.012	15.36
578.208	15.35
578.404	15.36
578.6	15.43
578.796	15.47
578.993	15.46
579.189	15.43
579.384	15.49
579.58	15.45
579.776	15.43
579.972	15.4
580.168	15.34
580.364	15.38
580.56	15.38
580.756	15.3
580.952	15.31
581.148	15.35
581.343	15.36
581.539	15.36
581.735	15.31
581.931	15.34
582.127	15.37
582.322	15.35
582.518	15.3
582.714	15.26
582.909	15.22
583.105	15.21
583.301	15.16
583.496	15.15
583.692	15.12
583.888	15.14
584.083	15.17
584.279	15.24
584.474	15.25
584.67	15.25
584.866	15.26
585.061	15.28
585.257	15.3
585.452	15.27
585.648	15.25
585.843	15.24
586.039	15.26
586.234	15.24
586.429	15.25
586.625	15.19
586.82	15.22
587.015	15.19
587.211	15.22
587.406	15.24
587.601	15.26
587.797	15.23
587.992	15.24
588.187	15.25
588.383	15.27
588.578	15.24
588.773	15.27
588.968	15.35
589.163	15.41
589.359	15.44
589.554	15.44
589.749	15.47
589.944	15.5
590.139	15.51
590.334	15.44
590.529	15.5
590.724	15.53
590.919	15.6
591.114	15.64
591.309	15.68
591.504	15.71
591.699	15.78
591.894	15.83
592.089	15.91
592.284	15.88
592.479	15.87
592.674	15.9
592.869	15.94
593.064	15.99
593.259	15.95
593.454	15.92
593.648	15.95
593.843	16.01
594.038	16.11
594.233	16.21
594.428	16.32
594.622	16.38
594.817	16.45
595.012	16.59
595.206	16.63
595.401	16.63
595.596	16.67
595.79	16.67
595.985	16.8
596.18	16.92
596.374	16.96
596.569	17.1
596.763	17.23
596.958	17.28
597.153	17.34
597.347	17.37
597.542	17.42
597.736	17.5
597.931	17.56
598.125	17.6
598.319	17.64
598.514	17.7
598.708	17.72
598.903	17.81
599.097	17.85
599.291	17.9
599.486	17.95
599.68	18.02
599.874	18.11
600.069	18.18
600.263	18.13
600.457	18.2
600.651	18.19
600.846	18.2
601.04	18.23
601.234	18.26
601.428	18.29
601.622	18.41
601.817	18.42
602.011	18.5
602.205	18.54
602.399	18.58
602.593	18.57
602.787	18.63
602.981	18.65
603.175	18.67
603.369	18.64
603.563	18.69
603.757	18.68
603.951	18.62
604.145	18.6
604.339	18.56
604.533	18.51
604.727	18.46
604.921	18.42
605.115	18.39
605.309	18.47
605.502	18.47
605.696	18.43
605.89	18.48
606.084	18.5
606.278	18.49
606.471	18.43
606.665	18.35
606.859	18.29
607.053	18.27
607.246	18.19
607.44	18.1
607.634	18.02
607.827	17.97
608.021	17.88
608.214	17.89
608.408	17.85
608.602	17.78
608.795	17.69
608.989	17.64
609.182	17.71
609.376	17.67
609.569	17.51
609.763	17.48
609.956	17.4
610.15	17.37
610.343	17.35
610.537	17.21
610.73	17.14
610.923	17.09
611.117	16.97
611.31	16.95
611.504	16.93
611.697	16.84
611.89	16.79
612.083	16.76
612.277	16.7
612.47	16.66
612.663	16.56
612.856	16.45
613.05	16.39
613.243	16.26
613.436	16.15
613.629	16.1
613.822	16.03
614.015	16.01
614.209	16.01
614.402	15.92
614.595	15.9
614.788	15.85
614.981	15.74
615.174	15.65
615.367	15.56
615.56	15.43
615.753	15.37
615.946	15.33
616.139	15.32
616.332	15.3
616.525	15.28
616.718	15.24
616.911	15.27
617.103	15.24
617.296	15.19
617.489	15.15
617.682	15.09
617.875	15.02
618.067	14.95
618.26	14.87
618.453	14.81
618.646	14.77
618.838	14.71
619.031	14.67
619.224	14.7
619.417	14.72
619.609	14.66
619.802	14.63
619.994	14.6
620.187	14.57
620.38	14.55
620.572	14.51
620.765	14.44
620.957	14.37
621.15	14.35
621.342	14.35
621.535	14.3
621.727	14.27
621.92	14.21
622.112	14.22
622.305	14.22
622.497	14.2
622.69	14.12
622.882	14.12
623.074	14.11
623.267	14.05
623.459	14.03
623.651	14.02
623.844	14.04
624.036	14.05
624.228	14.01
624.42	13.98
624.613	14.01
624.805	13.99
624.997	13.99
625.189	13.96
625.381	13.93
625.574	13.95
625.766	13.94
625.958	13.91
626.15	13.88
626.342	13.88
626.534	13.81
626.726	13.82
626.918	13.76
627.11	13.72
627.302	13.68
627.494	13.65
627.686	13.55
627.878	13.52
628.07	13.47
628.262	13.44
628.454	13.43
628.646	13.39
628.838	13.34
629.029	13.31
629.221	13.28
629.413	13.24
629.605	13.23
629.797	13.2
629.989	13.21
630.18	13.17
630.372	13.2
630.564	13.23
630.755	13.14
630.947	13.08
631.139	13.03
631.33	13
631.522	12.99
631.714	12.97
631.905	12.9
632.097	12.91
632.289	12.89
632.48	12.85
632.672	12.77
632.863	12.73
633.055	12.71
633.246	12.71
633.438	12.7
633.629	12.72
633.821	12.74
634.012	12.74
634.203	12.78
634.395	12.78
634.586	12.73
634.777	12.71
634.969	12.69
635.16	12.64
635.351	12.64
635.543	12.61
635.734	12.58
635.925	12.66
636.117	12.71
636.308	12.68
636.499	12.68
636.69	12.71
636.881	12.74
637.073	12.72
637.264	12.69
637.455	12.66
637.646	12.64
637.837	12.67
638.028	12.67
638.219	12.61
638.41	12.58
638.601	12.53
638.792	12.45
638.983	12.45
639.174	12.46
639.365	12.39
639.556	12.4
639.747	12.42
639.938	12.45
640.129	12.47
640.32	12.45
640.511	12.43
640.701	12.43
640.892	12.43
641.083	12.39
641.274	12.34
641.465	12.34
641.655	12.35
641.846	12.24
642.037	12.25
642.228	12.22
642.418	12.18
642.609	12.16
642.8	12.14
642.99	12.11
643.181	12.18
643.372	12.13
643.562	12.1
643.753	12.12
643.943	12.09
644.134	12.09
644.324	12.06
644.515	12.03
644.705	12.06
644.896	12.04
645.086	12
645.277	12.05
645.467	12.02
645.658	12.01
645.848	11.97
646.038	11.93
646.229	11.91
646.419	11.9
646.61	11.82
646.8	11.84
646.99	11.8
647.18	11.77
647.371	11.74
647.561	11.75
647.751	11.71
647.941	11.69
648.132	11.67
648.322	11.7
648.512	11.73
648.702	11.73
648.892	11.74
649.082	11.72
649.272	11.73
649.462	11.72
649.653	11.69
649.843	11.6
650.033	11.52
650.223	11.45
650.413	11.5
650.603	11.45
650.793	11.37
650.983	11.32
651.172	11.33
651.362	11.34
651.552	11.31
651.742	11.18
651.932	11.19
652.122	11.17
652.312	11.08
652.502	11.04
652.691	11.02
652.881	10.95
653.071	10.89
653.261	10.81
653.45	10.74
653.64	10.77
653.83	10.64
654.019	10.48
654.209	10.45
654.399	10.39
654.588	10.32
654.778	10.24
654.968	10.08
655.157	10.04
655.347	9.95
655.536	9.8
655.726	9.7
655.915	9.61
656.105	9.52
656.294	9.43
656.484	9.32
656.673	9.26
656.863	9.19
657.052	9.07
657.241	8.9
657.431	8.78
657.62	8.61
657.809	8.51
657.999	8.37
658.188	8.24
658.377	8.15
658.567	8.04
658.756	7.9
658.945	7.82
659.134	7.66
659.324	7.56
659.513	7.39
659.702	7.31
659.891	7.18
660.08	7.08
660.269	7
660.458	6.9
660.648	6.76
660.837	6.74
661.026	6.64
661.215	6.6
661.404	6.53
661.593	6.45
661.782	6.37
661.971	6.3
662.16	6.16
662.349	6.04
662.538	5.98
662.726	5.83
662.915	5.76
663.104	5.67
663.293	5.63
663.482	5.59
663.671	5.51
663.86	5.45
664.048	5.45
664.237	5.36
664.426	5.37
664.615	5.29
664.803	5.2
664.992	5.22
665.181	5.15
665.369	5.07
665.558	5.08
665.747	5.07
665.935	5.09
666.124	5.1
666.312	5.02
666.501	4.97
666.69	4.97
666.878	4.94
667.067	4.92
667.255	4.87
667.444	4.91
667.632	4.91
667.82	4.91
668.009	5
668.197	4.99
668.386	4.96
668.574	5
668.762	4.99
668.951	4.96
669.139	5.06
669.327	5.01
669.516	5.04
669.704	5.1
669.892	5.11
670.08	5.11
670.269	5.16
670.457	5.13
670.645	5.16
670.833	5.19
671.021	5.21
671.21	5.31
671.398	5.34
671.586	5.4
671.774	5.4
671.962	5.44
672.15	5.4
672.338	5.47
672.526	5.44
672.714	5.51
672.902	5.54
673.09	5.66
673.278	5.67
673.466	5.86
673.654	5.86
673.842	5.94
674.03	6.02
674.218	6.08
674.405	6.18
674.593	6.29
674.781	6.25
674.969	6.34
675.157	6.41
675.344	6.4
675.532	6.52
675.72	6.57
675.908	6.61
676.095	6.78
676.283	6.79
676.471	6.87
676.658	7.02
676.846	7.12
677.033	7.13
677.221	7.25
677.409	7.3
677.596	7.5
677.784	7.56
677.971	7.6
678.159	7.64
678.346	7.75
678.534	7.81
678.721	7.84
678.909	7.87
679.096	7.91
679.283	8.03
679.471	8.12
679.658	8.2
679.846	8.31
680.033	8.51
680.22	8.58
680.408	8.71
680.595	8.79
680.782	8.87
680.969	8.95
681.157	9.04
681.344	9.12
681.531	9.19
681.718	9.29
681.905	9.41
682.093	9.56
682.28	9.76
682.467	9.84
682.654	9.85
682.841	10.06
683.028	10.27
683.215	10.36
683.402	10.36
683.589	10.43
683.776	10.57
683.963	10.76
684.15	10.94
684.337	10.95
684.524	11.2
684.711	11.37
684.898	11.59
685.085	11.85
685.271	12.05
685.458	12.2
685.645	12.46
685.832	12.65
686.019	12.97
686.205	13.25
686.392	13.45
686.579	13.65
686.766	13.91
686.952	14.32
687.139	14.48
687.326	14.82
687.512	15.06
687.699	15.33
687.886	15.66
688.072	16.04
688.259	16.39
688.445	16.82
688.632	17.25
688.818	17.67
689.005	18.25
689.191	18.75
689.378	19.23
689.564	19.55
689.751	20.15
689.937	20.53
690.124	21.02
690.31	21.42
690.496	21.95
690.683	22.41
690.869	23.02
691.055	23.64
691.242	24.18
691.428	24.81
691.614	25.41
691.8	26.01
691.987	26.77
692.173	27.34
692.359	27.83
692.545	28.58
692.731	29.13
692.918	29.82
693.104	30.4
693.29	31
693.476	31.59
693.662	32.23
693.848	32.76
694.034	33.29
694.22	33.87
694.406	34.56
694.592	35.16
694.778	35.77
694.964	36.48
695.15	37.2
695.336	38.05
695.522	38.72
695.708	39.42
695.894	40.07
696.08	40.81
696.265	41.5
696.451	42.32
696.637	43.09
696.823	43.77
697.009	44.49
697.194	45.15
697.38	45.81
697.566	46.39
697.751	46.84
697.937	47.47
698.123	48.2
698.308	48.79
698.494	49.49
698.68	50.19
698.865	50.93
699.051	51.66
699.236	52.19
699.422	52.8
699.607	53.3
699.793	53.78
699.978	54.21
700.164	54.77
700.349	55.23
700.535	55.89
700.72	56.43
700.906	56.94
701.091	57.46
701.276	58.16
701.462	58.59
701.647	59.03
701.832	59.3
702.018	59.57
702.203	59.93
702.388	60.38
702.573	60.88
702.759	61.32
702.944	61.95
703.129	62.45
703.314	63.08
703.499	63.86
703.684	64.47
703.87	64.72
704.055	65.18
704.24	65.61
704.425	66.29
704.61	66.39
704.795	66.65
704.98	66.97
705.165	67.23
705.35	67.43
705.535	67.62
705.72	67.57
705.905	68
706.09	68.15
706.275	68.37
706.459	68.9
706.644	69.33
706.829	69.53
707.014	70
707.199	70.39
707.384	70.75
707.568	71.28
707.753	71.51
707.938	71.74
708.123	72.1
708.307	72.45
708.492	72.58
708.677	73
708.861	73.04
709.046	73.28
709.231	73.64
709.415	73.98
709.6	73.99
709.784	74.4
709.969	74.57
710.153	75.04
710.338	75.03
710.522	75.05
710.707	74.88
710.891	75.17
711.076	75.12
711.26	75.44
711.445	75.2
711.629	75.74
711.813	75.86
711.998	76.13
712.182	76.37
712.366	76.81
712.551	76.76
712.735	76.96
712.919	77.02
713.103	77.14
713.288	77.58
713.472	77.61
713.656	77.38
713.84	77.34
714.024	77.65
714.208	77.68
714.393	78.07
714.577	78.06
714.761	78.41
714.945	78.73
715.129	79.13
715.313	79.27
715.497	79.62
715.681	79.77
715.865	79.96
716.049	80.04
716.233	80.33
716.417	80.58
716.601	80.53
716.785	80.55
716.968	80.66
717.152	80.9
717.336	80.88
717.52	80.86
717.704	80.95
717.888	81.23
718.071	81.24
718.255	81.33
718.439	81.07
718.622	81.43
718.806	81.45
718.99	81.51
719.174	81.52
719.357	81.61
719.541	81.95
719.724	82.23
719.908	82.42
720.092	82.83
720.275	83.13
720.459	83.18
720.642	83.4
720.826	83.26
721.009	83.35
721.193	83.71
721.376	83.77
721.559	83.65
721.743	84.03
721.926	83.84
722.11	83.99
722.293	83.88
722.476	83.37
722.66	83.63
722.843	84.09
723.026	84.23
723.21	84.35
723.393	84.25
723.576	84.39
723.759	84.54
723.942	84.66
724.126	84.36
724.309	84.51
724.492	84.69
724.675	84.64
724.858	85.26
725.041	85.48
725.224	85.25
725.407	85.28
725.59	85.16
725.774	85.45
725.957	86.08
726.14	85.74
726.322	85.79
726.505	86.36
726.688	86.53
726.871	86.82
727.054	87.16
727.237	86.8
727.42	87.05
727.603	87.4
727.786	87.2
727.968	87.74
728.151	87.94
728.334	87.82
728.517	88.65
728.699	88.9
728.882	89.24
729.065	89.41
729.248	89.04
729.43	88.81
729.613	89.36
729.796	89.25
729.978	89.63
730.161	90.01
730.343	90.39
730.526	90.54
730.708	90.96
730.891	90.88
731.073	90.82
731.256	90.9
731.438	90.7
731.621	91.05
731.803	91.75
731.986	91.8
732.168	91.9
732.35	92.33
732.533	92.26
732.715	92.6
732.898	92.16
733.08	92.3
733.262	92.67
733.444	92.94
733.627	93.27
733.809	93.74
733.991	93.66
734.173	93.57
734.355	93.86
734.538	93.68
734.72	94.18
734.902	93.73
735.084	93.75
735.266	94
735.448	94.71
735.63	94.12
735.812	94.69
735.994	93.89
736.176	94.51
736.358	94.57
736.54	94.47
736.722	94.39
736.904	94.87
737.086	94.91
737.268	95.55
737.45	95.36
737.632	95.07
737.814	95.09
737.995	95.3
738.177	95.62
738.359	95.52
738.541	95.21
738.723	95.5
738.904	95.57
739.086	95.82
739.268	96.32
739.449	96.28
739.631	96.27
739.813	95.98
739.994	96.15
740.176	96.73
740.358	96.83
740.539	96.34
740.721	95.97
740.902	95.9
741.084	96.48
741.265	96.29
741.447	95.8
741.628	95.54
741.81	96.08
741.991	96.58
742.172	96.78
742.354	97.25
742.535	97.45
742.717	97.41
742.898	98.05
743.079	97.52
743.261	97.41
743.442	97.38
743.623	96.87
743.804	97.26
743.986	97.32
744.167	96.66
744.348	97.02
744.529	97.49
744.71	97.05
744.891	97.6
745.073	97.16
745.254	97.77
745.435	97.51
745.616	97.38
745.797	96.25
745.978	97.53
746.159	97.37
746.34	97.7
746.521	97.52
746.702	97.97
746.883	98.31
747.064	98.49
747.245	97.95
747.426	98.36
747.606	97.74
747.787	98.09
747.968	98.52
748.149	98.01
748.33	98.86
748.51	98.04
748.691	97.54
748.872	98.11
749.053	97.68
749.233	96.9
749.414	97.56
749.595	97.07
749.775	97.65
749.956	97.15
750.137	97.18
750.317	97.37
750.498	97.44
750.678	96.91
750.859	96.73
751.04	96.84
751.22	96.73
751.4	96.59
751.581	96.44
751.761	97.48
751.942	97.67
752.122	97.9
752.303	98.14
752.483	99.28
752.663	99.33
752.844	98.58
753.024	97.98
753.204	97.56
753.385	97.21
753.565	96.33
753.745	95.54
753.925	94.69
754.106	95.27
754.286	94.69
754.466	94.28
754.646	94.51
754.826	95.66
755.006	95.37
755.187	96.26
755.367	96.25
755.547	96.74
755.727	97.63
755.907	98.28
756.087	97.79
756.267	98.46
756.447	97.78
756.627	97.94
756.807	97.77
756.987	97.76
757.167	97.15
757.346	96.34
757.526	96.1
757.706	96.91
757.886	97.33
758.066	97.56
758.246	97.71
758.425	97.43
758.605	98.69
758.785	98.02
758.965	96.38
759.144	95.86
759.324	95.89
759.504	95.41
759.683	95.32
759.863	94.88
760.043	95.75
760.222	96.31
760.402	96.8
760.581	95.94
760.761	95.17
760.94	94.87
761.12	94.52
761.299	93.78
761.479	94.54
761.658	93.86
761.838	94.58
762.017	95.07
762.197	94.85
762.376	94.49
762.555	94.77
762.735	93.69
762.914	93.82
763.093	93.49
763.273	93.38
763.452	93.1
763.631	92.16
763.81	93.49
763.99	94.19
764.169	93.45
764.348	93.77
764.527	93.55
764.706	93.95
764.885	95.35
765.064	93.75
765.243	92.96
765.423	94.24
765.602	93.27
765.781	93.37
765.96	94.28
766.139	94.56
766.318	95.28
766.497	96.19
766.676	96.76
766.854	96.93
767.033	95.83
767.212	94.64
767.391	93.4
767.57	92.99
767.749	92.36
767.928	90.28
768.106	91.42
768.285	92.81
768.464	93.45
768.643	95.32
768.821	95.16
769	96
769.179	95.61
769.357	94.67
769.536	93.72
769.715	93.31
769.893	91.84
770.072	91.22
770.25	90.15
770.429	92.04
770.607	92.61
770.786	93.61
770.964	93.56
771.143	93.77
771.321	93.76
771.5	93.1
771.678	92.25
771.857	90.84
772.035	89.26
772.213	88.81
772.392	89.2
772.57	89.14
772.748	89.17
772.927	88.22
773.105	90.26
773.283	90.51
773.461	90.78
773.64	89.43
773.818	89.07
773.996	89.56
774.174	89.83
774.352	87.64
774.531	87.38
774.709	88.86
774.887	89.07
775.065	89.26
775.243	89.84
775.421	89.72
775.599	88.85
775.777	90.04
775.955	89.26
776.133	89.07
776.311	89.27
776.489	88.85
776.667	89.03
776.844	90.57
777.022	90.06
777.2	88.82
777.378	89.38
777.556	90.28
777.734	90.5
777.911	91.54
778.089	91.3
778.267	91.12
778.445	91.22
778.622	91.11
778.8	89.52
778.978	89.35
779.155	86.7
779.333	84.68
779.511	84.35
779.688	84.37
779.866	83.69
780.043	85.06
780.221	84.88
780.398	87.77
780.576	88.66
780.753	89
780.931	89.89
781.108	90.35
781.286	89.46
781.463	89.51
781.64	88.47
781.818	89.17
781.995	89.73
782.172	89.67
782.35	89.08
782.527	90.38
782.704	89.18
782.882	90.37
783.059	90.79
783.236	90.16
783.413	90.16
783.59	89.95
783.768	87.62
783.945	89.15
784.122	87.71
784.299	86.73
784.476	86.91
784.653	85.39
784.83	84.04
785.007	86.1
785.184	85.21
785.361	84.61
785.538	86.33
785.715	84.95
785.892	85.66
786.069	88.6
786.246	86.02
786.423	87.72
786.6	87.24
786.776	85.73
786.953	86.57
787.13	86.72
787.307	85.39
787.484	86.36
787.66	84.14
787.837	85.67
788.014	85.58
788.191	84.64
788.367	85.2
788.544	83.12
788.721	83.78
788.897	86.22
789.074	85.68
789.25	85.91
789.427	87.66
789.603	88.83
789.78	93.31
789.956	90.74
790.133	89.22
790.309	87.56
790.486	89.27
790.662	88.84
790.839	87.59
791.015	85.45
791.192	87.9
791.368	88.98
791.544	90.83
791.721	86.99
791.897	86.45
792.073	85.41
792.249	88.17
792.426	89.4
792.602	86.85
792.778	84.24
792.954	85.86
793.13	85.62
793.307	84.28
793.483	81.44
793.659	81.45
793.835	81.67
794.011	81.57
794.187	79.2
794.363	78.33
794.539	78.12
794.715	76.44
794.891	72.43
795.067	74.56
795.243	77.14
795.419	80.55
795.595	80.44
795.771	82.92
795.947	83.55
796.122	87.32
796.298	84.72
796.474	85.14
796.65	84.44
796.826	88.58
797.001	86.37
797.177	87.46
797.353	88.9
797.529	88.75
797.704	88.85
797.88	87.14
798.056	83.74
798.231	83.11
798.407	84.16
798.582	81.73
798.758	84.07
798.934	79.9
799.109	79.68
799.285	80.44
799.46	84.72
799.636	82.89
799.811	83.32
799.986	84.48
800.162	88.79
800.337	88.74
800.513	89.46
800.688	88.28
800.863	88.36
801.039	86.86
801.214	84.03
801.389	83.5
801.565	87.45
801.74	84.69
801.915	83.14
802.09	83.41
802.265	82.52
802.441	85.42
802.616	85.3
802.791	81.17
802.966	81.62
803.141	78.49
803.316	80.73
803.491	81.91
803.666	77.27
803.841	75.35
804.016	78.75
804.191	80.71
804.366	83.78
804.541	80.12
804.716	77.48
804.891	82.75
805.066	80.96
805.241	75.2
805.416	72.38
805.591	74.57
805.765	77.06
805.94	79.25
806.115	74.36
806.29	76.85
806.464	81.03
806.639	81.36
806.814	74.57
806.989	69.12
807.163	68.6
807.338	71.1
807.512	66.39
807.687	66.33
807.862	66.64
808.036	70.76
808.211	75.34
808.385	73.33
808.56	74.51
808.734	78.32
808.909	76.85
809.083	76.93
809.258	80.99
809.432	78.93
809.606	80.83
809.781	79.84
809.955	81.26
810.13	87.17
810.304	86.2
810.478	87.43
810.652	90.82
810.827	89.36
811.001	90.97
811.175	85.78
811.349	82.25
811.524	83.67
811.698	81.68
811.872	83.34
812.046	81.4
812.22	76.93
812.394	82.25
812.568	83.39
812.742	83.06
812.916	81.62
813.09	79.8
813.264	86.6
813.438	93.56
813.612	87.92
813.786	92.7
813.96	96.15
814.134	93.61
814.308	91.24
814.482	87.44
814.656	87.26
814.83	95.22
815.003	90.89
815.177	87.67
815.351	91.44
815.525	87.86
815.698	84.03
815.872	78.53
816.046	72.82
816.219	75.67
816.393	69.93
816.567	63.22
816.74	67.89
816.914	75.88
817.088	73.45
817.261	73.45
817.435	63.78
817.608	67.18
817.782	74.13
817.955	74.66
818.129	69.8
818.302	80.82
818.475	80.23
818.649	84.46
818.822	90.66
818.996	88.77
819.169	86.43
819.342	85.26
819.516	77.46
819.689	82.71
819.862	78.57
820.035	69.38
820.209	64.4
820.382	63.29
820.555	63
820.728	59.64
820.901	56.84
821.075	63.59
821.248	70.05
821.421	69.31
821.594	70.2
821.767	72.01
821.94	71.22
822.113	72.57
822.286	74.63
822.459	80.5
822.632	84.85
822.805	78.82
822.978	71.86
823.151	78.41
823.324	70.26
823.496	59.13
823.669	56.49
823.842	60.19
824.015	61.95
824.188	65.65
824.361	63
824.533	75.61
824.706	86.29
824.879	84.3
825.051	83.9
825.224	84.41
825.397	79.29
825.569	86.32
825.742	83.74
825.915	82.51
826.087	76.74
826.26	74.59
826.432	80.21
826.605	81.42
826.777	74.21
826.95	63.14
827.122	59.4
827.295	66.26
827.467	60.48
827.64	49.22
827.812	50.46
827.984	53.26
828.157	61.79
828.329	67.53
828.501	58.42
828.674	61.99
828.846	65.3
829.018	63.25
829.19	58.25
829.363	52.85
829.535	45.66
829.707	44.99
829.879	42.23
830.051	46.79
830.223	36.44
830.395	32.64
830.568	40.93
830.74	47.42
830.912	55.29
831.084	51.65
831.256	45.69
831.428	58.51
831.6	56.58
831.772	50.07
831.943	53.2
832.115	55.66
832.287	57.82
832.459	69.04
832.631	75.57
832.803	87.31
832.975	87.04
833.146	81.39
833.318	77.25
833.49	78.64
833.662	69.09
833.833	62.13
834.005	58.56
834.177	65.21
834.348	61.47
834.52	62.88
834.692	67.15
834.863	67.75
835.035	57.55
835.206	55.35
835.378	55.39
835.549	58.66
835.721	58.05
835.892	59.68
836.064	71.56
836.235	82.65
836.407	84.57
836.578	89.99
836.749	91.01
836.921	91.05
837.092	92.23
837.264	76
837.435	60.38
837.606	58.31
837.777	46.22
837.949	40.73
838.12	35.21
838.291	42.4
838.462	50.01
838.633	58.94
838.805	63.99
838.976	63.87
839.147	65.58
839.318	67.14
839.489	61.42
839.66	68.52
839.831	58.57
840.002	52.26
840.173	59.81
840.344	60.88
840.515	63.21
840.686	55.63
840.857	43.42
841.028	57.97
841.199	59.23
841.369	57
841.54	69.24
841.711	76.29
841.882	81.94
842.053	89.87
842.223	93.63
842.394	94.85
842.565	100.77
842.736	97.45
842.906	103.58
843.077	91.03
843.248	95.61
843.418	94.62
843.589	98.84
843.759	87.14
843.93	77.63
844.101	75.26
844.271	85.33
844.442	77.75
844.612	69.27
844.783	44.53
844.953	37.73
845.123	53.28
845.294	56.96
845.464	59.56
845.635	68.27
845.805	71.26
845.975	78.6
846.146	90.89
846.316	94.49
846.486	85.91
846.656	80.99
846.827	72.38
846.997	80.34
847.167	84.54
847.337	87.08
847.507	80.75
847.677	87.51
847.848	85.94
848.018	91
848.188	74.91
848.358	87.46
848.528	84.18
848.698	68
848.868	58.72
849.038	72.32
849.208	56.5
849.378	64.75
849.548	58.17
849.718	39.54
849.887	46.57
850.057	39.81
850.227	28.48
850.397	25.48
850.567	25.94
850.737	16.17
850.906	27.09
851.076	23.64
851.246	32.88
851.415	42.94
851.585	43.78
851.755	47.33
851.924	60.66
852.094	62.75
852.264	63.24
852.433	67.35
852.603	69.31
852.772	68.86
852.942	52.92
853.111	55.14
853.281	57.53
853.45	56.5
853.62	46.16
853.789	34.48
853.959	39.77
854.128	44.25
854.297	33.7
854.467	37.9
854.636	57.37
854.805	56.92
854.975	68.36
855.144	69.75
855.313	84.19
855.482	87.48
855.652	75.58
855.821	77.8
855.99	96.59
856.159	96.03
856.328	73.2
856.497	59.14
856.667	58.71
856.836	66.23
857.005	53.52
857.174	47.62
857.343	27.62
857.512	28.95
857.681	40.34
857.85	30.77
858.019	24.27
858.188	22.21
858.356	6.8
858.525	31.66
858.694	50.96
858.863	29.56
859.032	16.41
859.201	2.09
859.369	8.97
859.538	17.62
859.707	20.77
859.876	20.95
860.044	18.71
860.213	37.94
860.382	51.44
860.55	78
860.719	77.08
860.888	74.57
861.056	77.58
861.225	110.62
861.393	125.21
861.562	107
861.73	69.77
861.899	50.69
862.067	71
862.236	53.06
862.404	33.03
862.572	12.38
862.741	12.39
862.909	24.33
863.078	18.42
863.246	-4.56
863.414	15.69
863.582	21.44
863.751	34.46
863.919	52.84
864.087	51.58
864.255	76.27
864.424	74.35
864.592	70.24
864.76	81.39
864.928	82.72
865.096	72.69
865.264	68.98
865.432	60.71
865.6	50.98
865.768	26.7
865.936	8.68
866.104	0.52
866.272	-0.13
866.44	-35.51
866.608	-39.98
866.776	-2.58
866.944	-1.29
867.112	-19.97
867.28	-64.13
867.448	-34.36
867.615	8.27
867.783	-6.85
867.951	9.99
868.119	62.61
868.286	60.56
868.454	58.97
868.622	56.14
868.789	50.32
868.957	57.13
869.125	41.04
869.292	36.08
869.46	43.79
869.627	38.18
869.795	35.64
869.963	36.38
870.13	47.99
870.298	54.23
870.465	19.1
870.632	24.25
870.8	14.73
870.967	21.41
871.135	22.99
871.302	20.25
871.469	19.33
871.637	28.51
871.804	35.18
871.971	50.53
872.139	47.36
872.306	56.13
872.473	47.93
872.64	48.98
872.807	60.89
872.975	59.86
873.142	38.44
873.309	66.78
873.476	34.84
873.643	81.25
873.81	75.62
873.977	46.86
874.144	63.98
874.311	19.29
874.478	-50.56
874.645	-45.46
874.812	-29.95
874.979	-76.46
875.146	-106.29
875.313	-188.28
875.48	-63.82
875.647	-65.23
875.813	-34.41
875.98	-35.85
876.147	43.34
876.314	27.42
876.481	21.36
876.647	11.73
876.814	44.12
876.981	34.17
877.147	31.79
877.314	37.36
877.481	59.43
877.647	65.9
877.814	58.65
877.98	52.41
878.147	62.81
878.314	55.2
878.48	33.74
878.647	22.69
878.813	26.92
878.979	50.28
879.146	44.92
879.312	59.5
879.479	76.74
879.645	65.18
879.811	64.64
879.978	67.08
880.144	59.16
880.31	36.94
880.477	-10.15
880.643	-66.02
880.809	17.43
880.975	25.1
881.142	32.06
881.308	47.76
881.474	103.71
881.64	90.67
881.806	74.83
881.972	103.33
882.138	101.4
882.304	60.6
882.47	34.58
882.636	-17.33
882.802	-52.89
882.968	-169.42
883.134	-323.54
883.3	-112.12
883.466	16.55
883.632	-11.32
883.798	2.59
883.964	23.38
884.129	51.02
884.295	42.99
884.461	24.57
884.627	-6.69
884.793	29.56
884.958	39.89
885.124	8.7
885.29	15.8
885.455	8.53
885.621	15.89
885.787	7.89
885.952	-13.07
886.118	4.2
886.283	26.92
886.449	-8.12
886.614	-5.84
886.78	5.82
886.945	-9.55
887.111	-0.36
887.276	-11.24
887.442	17.71
887.607	24.32
887.773	11.98
887.938	31.87
888.103	65.13
888.269	75.52
888.434	89.51
888.599	72.88
888.764	79.43
888.93	98.83
889.095	74.47
889.26	90.35
889.425	122.84
889.59	90.35
889.756	80.23
889.921	63.96
890.086	58.9
890.251	76.85
890.416	22.3
890.581	-23.23
890.746	-30.18
890.911	-65.62
891.076	-69.75
891.241	-82.03
891.406	3.27
891.571	33.47
891.736	30.26
891.901	57.63
892.065	78.05
892.23	70.82
892.395	38.88
892.56	26.67
892.725	19.68
892.889	4.67
893.054	-46.41
893.219	-70.14
893.384	-126.35
893.548	-210.83
893.713	559.65
893.878	292.39
