Data from Ofra_PS_T2_2A_2HS09_Reflection_1.txt Node
Date: Wed Jul 21 17:10:07 EDT 2021
User: Adam
Spectrometer: FLMT01687
Trigger mode: 0
Integration Time (sec): 1.100000E0
Scans to average: 2
Electric dark correction enabled: true
Nonlinearity correction enabled: false
Boxcar width: 2
XAxis mode: Wavelengths
Number of Pixels in Spectrum: 3648
>>>>>Begin Spectral Data<<<<<
179.494	626.2
179.716	688
179.937	615.47
180.158	570.44
180.38	852.34
180.601	320.86
180.823	99.42
181.044	59.12
181.265	213.05
181.486	59.18
181.708	44.75
181.929	34.18
182.15	-82.75
182.372	113.94
182.593	33.89
182.814	6.41
183.035	68.57
183.257	73.33
183.478	27.07
183.699	42.78
183.92	35.89
184.141	10.64
184.363	1.56
184.584	54.25
184.805	72.51
185.026	85.12
185.247	77.99
185.468	47.49
185.689	47.22
185.91	29.9
186.132	8.94
186.353	14.3
186.574	60.75
186.795	39.42
187.016	2.41
187.237	14.7
187.458	-29.55
187.679	-37.84
187.9	-21.62
188.121	-14.62
188.342	3.01
188.563	50.02
188.784	54.6
189.005	55.99
189.226	90.13
189.447	32.79
189.667	-193.08
189.888	-336.33
190.109	-1342.53
190.33	-682.42
190.551	-1167.04
190.772	-205.99
190.993	-102.8
191.214	-80.29
191.434	-88.99
191.655	-2.42
191.876	-50.4
192.097	-154.5
192.318	-209.99
192.538	-238.05
192.759	-177.49
192.98	-103.26
193.201	-34.19
193.421	-14.37
193.642	14.24
193.863	34.04
194.083	30.71
194.304	19.51
194.525	14.73
194.745	-8.64
194.966	-70.22
195.187	-70.91
195.407	-106.86
195.628	-131.87
195.848	-141.06
196.069	-122.55
196.29	-95.54
196.51	-94.63
196.731	-84.94
196.951	-79.14
197.172	-56.33
197.392	-80.6
197.613	-68.99
197.833	-109.14
198.054	-105.32
198.274	-82.5
198.495	-91.92
198.715	-58.99
198.936	-83.98
199.156	-78.89
199.377	-156.48
199.597	-135.27
199.817	-143.12
200.038	-55.2
200.258	-96.39
200.479	-29.19
200.699	-50.66
200.919	-14.53
201.14	-41.08
201.36	-50.6
201.58	-5.9
201.801	27.97
202.021	5.21
202.241	5.5
202.461	18.4
202.682	-42.81
202.902	-91.99
203.122	-38.47
203.342	-35.35
203.563	-7.02
203.783	17.14
204.003	-7.74
204.223	-35.69
204.443	24.42
204.663	-16.17
204.884	1.22
205.104	30.85
205.324	50.34
205.544	23.89
205.764	54.68
205.984	35.34
206.204	40.17
206.424	28.02
206.644	19.38
206.864	12.52
207.084	-18.51
207.304	-52.88
207.525	-146.8
207.745	-79.13
207.964	-14.31
208.184	-37.92
208.404	-61.16
208.624	-68.77
208.844	-81.8
209.064	-408.24
209.284	-427.91
209.504	-228.85
209.724	-66.5
209.944	-30.38
210.164	4.94
210.384	30.81
210.604	31.15
210.823	10.3
211.043	-24.22
211.263	-26.77
211.483	-45.68
211.703	-92.28
211.922	-73.03
212.142	2.66
212.362	20.33
212.582	26.46
212.801	27.04
213.021	-1.62
213.241	-28.71
213.461	-46.95
213.68	-54.63
213.9	-30.52
214.12	-11.47
214.339	-59.76
214.559	-40.64
214.779	-1.91
214.998	2.79
215.218	-33.14
215.438	4.12
215.657	-4.88
215.877	-11.91
216.096	12.22
216.316	31.65
216.535	19.55
216.755	29.44
216.974	-28.56
217.194	-94.18
217.413	-110.79
217.633	-109.74
217.852	-208.21
218.072	-87.76
218.291	-22.19
218.511	10.24
218.73	-15
218.95	-11.23
219.169	-15.25
219.389	-77.36
219.608	-57.64
219.827	-49.59
220.047	-48.85
220.266	-34.12
220.485	-23.4
220.705	-19.62
220.924	-28.95
221.143	23.33
221.363	7.25
221.582	28.83
221.801	45
222.021	59.42
222.24	-13.65
222.459	23.45
222.678	-33.94
222.897	-90.47
223.117	-142.38
223.336	-54.87
223.555	-41.12
223.774	3.71
223.993	4.14
224.213	51.83
224.432	-7.46
224.651	30.69
224.87	18.23
225.089	33.42
225.308	25.66
225.527	40.35
225.746	23.52
225.965	8.59
226.184	-15.11
226.404	5.49
226.623	-13.89
226.842	6.49
227.061	26.75
227.28	17.57
227.499	8.4
227.718	26.18
227.936	-0.79
228.155	9.75
228.374	5.55
228.593	-2.64
228.812	-18.01
229.031	-16.63
229.25	-65.42
229.469	-32.8
229.688	10.95
229.907	48.08
230.125	63.28
230.344	60.17
230.563	52.83
230.782	46.26
231.001	-41.7
231.22	-45.16
231.438	-18.37
231.657	-6.88
231.876	-14.07
232.095	27.28
232.313	47.18
232.532	55.35
232.751	10.98
232.969	-3.15
233.188	-25.33
233.407	7.12
233.625	4.62
233.844	7.5
234.063	-8.72
234.281	10.53
234.5	-6.98
234.719	-7.3
234.937	17.53
235.156	46.94
235.374	41.47
235.593	29
235.811	30
236.03	9.39
236.249	-45.08
236.467	-33.53
236.686	-0.77
236.904	4.12
237.123	-21.06
237.341	-11.36
237.559	-10.23
237.778	-19.44
237.996	-38.89
238.215	-2.59
238.433	7.54
238.652	13.46
238.87	-12.4
239.088	-1.92
239.307	-4.02
239.525	-17.7
239.743	-49.84
239.962	-37.13
240.18	-58.1
240.398	-105.2
240.617	-118.29
240.835	-92.97
241.053	-60.51
241.271	-15.85
241.49	15.1
241.708	-1.11
241.926	14.02
242.144	21.23
242.363	-38.6
242.581	-70.63
242.799	-17.2
243.017	-13.95
243.235	-44.92
243.453	-24.27
243.672	-20.15
243.89	-23.42
244.108	-29.02
244.326	0.71
244.544	6.93
244.762	7.17
244.98	16.98
245.198	24.58
245.416	-30.04
245.634	-28.06
245.852	-33.98
246.07	-44.27
246.288	-47.93
246.506	-53.36
246.724	-45.14
246.942	-8.81
247.16	17.77
247.378	11.21
247.596	29.9
247.814	26.1
248.032	0.54
248.25	-10.95
248.468	-0.62
248.685	24.95
248.903	53.52
249.121	56.32
249.339	29.03
249.557	32.57
249.775	19.33
249.992	-63.24
250.21	-62.19
250.428	-28.35
250.646	-59.71
250.863	-70.57
251.081	-28.07
251.299	-3.03
251.517	-11.69
251.734	12.92
251.952	2.65
252.17	4.91
252.387	6.84
252.605	-2
252.823	-0.38
253.04	17.89
253.258	39.99
253.475	23.22
253.693	49.92
253.911	46.1
254.128	45.88
254.346	51.29
254.563	44.32
254.781	19.06
254.998	-4.3
255.216	-11.42
255.433	-29.07
255.651	-14.7
255.868	23.35
256.086	52.67
256.303	32.99
256.521	37.19
256.738	24.16
256.956	-5.21
257.173	-33.56
257.39	-12.85
257.608	-41.01
257.825	26.02
258.043	53.14
258.26	62.81
258.477	73.81
258.695	61.52
258.912	-15.58
259.129	-6.56
259.346	-40.22
259.564	-76.79
259.781	-88.44
259.998	-16.26
260.216	9.05
260.433	57.61
260.65	64.37
260.867	88.19
261.084	65.74
261.302	49.79
261.519	33.47
261.736	-7.2
261.953	-37.52
262.17	3.99
262.387	-17.5
262.604	-54.2
262.822	-71.1
263.039	-61.29
263.256	-122.95
263.473	-93.55
263.69	-59.54
263.907	-6.42
264.124	7.01
264.341	8.26
264.558	9.66
264.775	22.67
264.992	14.12
265.209	15.62
265.426	43.56
265.643	47.38
265.86	54.01
266.077	50.12
266.294	31.94
266.51	-17.62
266.727	-52.84
266.944	-48.27
267.161	-62.97
267.378	-75.66
267.595	-29.8
267.812	-56.16
268.028	-76.39
268.245	-31.96
268.462	-19.23
268.679	-46.53
268.896	20.29
269.112	10.7
269.329	9.34
269.546	7.5
269.763	7.86
269.979	-10.1
270.196	-6.75
270.413	-60.59
270.629	-88.79
270.846	-85.42
271.063	-78.66
271.279	-97.05
271.496	-60.85
271.712	1.11
271.929	24.63
272.146	19.54
272.362	50.57
272.579	60.75
272.795	33.53
273.012	10.49
273.228	14.13
273.445	-17.56
273.661	-49.93
273.878	-78.69
274.094	-66.7
274.311	-92.16
274.527	-10.91
274.744	5.22
274.96	21.37
275.177	32.93
275.393	48.17
275.609	32.13
275.826	39.93
276.042	38.28
276.259	31.28
276.475	46.1
276.691	41.49
276.908	27.74
277.124	38.9
277.34	38.14
277.557	13.04
277.773	10.5
277.989	10.19
278.205	-0.59
278.422	2.6
278.638	16.35
278.854	34.85
279.07	29.93
279.286	24.27
279.503	9.42
279.719	-17.19
279.935	-49.83
280.151	-62.05
280.367	-47.64
280.583	-53.99
280.799	-37.42
281.016	-49.63
281.232	-3.73
281.448	-1.39
281.664	15.37
281.88	3.51
282.096	25.67
282.312	29.01
282.528	38.06
282.744	53.5
282.96	36.49
283.176	19.51
283.392	6.84
283.608	5.3
283.824	-7.55
284.04	-1.12
284.256	1.98
284.471	-13.54
284.687	-15.17
284.903	10.31
285.119	45.35
285.335	12.91
285.551	40.72
285.767	8.96
285.982	-5.59
286.198	-45.92
286.414	13.43
286.63	17.55
286.846	50.88
287.061	24.45
287.277	39.19
287.493	15.8
287.709	9.33
287.924	-22.48
288.14	9.73
288.356	13.84
288.571	35.73
288.787	27.64
289.003	36.21
289.218	9.83
289.434	-29.41
289.65	-34.67
289.865	-43.12
290.081	-43.65
290.296	-32.55
290.512	-11.89
290.727	-36.98
290.943	-40.54
291.159	-33.29
291.374	-18.67
291.59	-38.78
291.805	-25.19
292.021	-9.56
292.236	-11.62
292.451	6.13
292.667	16.07
292.882	36.23
293.098	39.69
293.313	18.21
293.529	-17.17
293.744	-30.21
293.959	-46.18
294.175	-51.32
294.39	-5.7
294.605	8
294.821	29.13
295.036	37.25
295.251	53.46
295.467	32.03
295.682	19.01
295.897	-31.39
296.112	-63.61
296.328	-66.9
296.543	-99.98
296.758	-87.09
296.973	-23.18
297.188	24.13
297.404	4.57
297.619	-0.31
297.834	-19.97
298.049	-50.47
298.264	-74.81
298.479	-10.92
298.694	1.72
298.909	35.49
299.125	43.34
299.34	53.29
299.555	19
299.77	22.73
299.985	-25.61
300.2	-72.1
300.415	-87.03
300.63	-49.29
300.845	-47.17
301.06	-48.78
301.275	-10.52
301.49	7.47
301.704	-1.55
301.919	-15.37
302.134	-20.75
302.349	-29.38
302.564	-101.4
302.779	-115.01
302.994	-70.81
303.209	-35.68
303.423	10.85
303.638	60.73
303.853	13.38
304.068	-0.29
304.283	3.87
304.497	-13.48
304.712	-19.6
304.927	-4.02
305.142	-9.03
305.356	-0.25
305.571	8.49
305.786	-11.57
306	-21.06
306.215	-9.01
306.43	-51.93
306.644	-60.88
306.859	-16.15
307.074	-9.53
307.288	-43.55
307.503	-43.04
307.717	-51.57
307.932	-43.39
308.147	-50.04
308.361	-14.55
308.576	-13.64
308.79	-46.2
309.005	-52.19
309.219	-17.16
309.434	-39.34
309.648	-26.41
309.863	0.38
310.077	3.07
310.292	-8.76
310.506	1.97
310.72	10.33
310.935	19.66
311.149	15.35
311.364	25.33
311.578	33.96
311.792	21.6
312.007	30.15
312.221	15.6
312.435	19.46
312.649	-2.93
312.864	29.74
313.078	41.66
313.292	112.58
313.507	71.92
313.721	113.74
313.935	51.42
314.149	40.72
314.363	22.02
314.578	35.51
314.792	42.72
315.006	26.26
315.22	28.6
315.434	30.19
315.648	27.9
315.862	19.06
316.077	18.54
316.291	-6.04
316.505	-3.29
316.719	-1.16
316.933	-35.1
317.147	-20.29
317.361	-62.77
317.575	-81.45
317.789	-115.12
318.003	-159.59
318.217	-123.84
318.431	-22.58
318.645	24.32
318.859	2.85
319.073	31.46
319.287	13.89
319.5	-18.01
319.714	-64.63
319.928	-70.35
320.142	-99
320.356	-45.53
320.57	-18.09
320.784	-30.96
320.997	-34.25
321.211	-27.26
321.425	-88.62
321.639	-112.85
321.853	-45.04
322.066	-24.94
322.28	-38.31
322.494	-22.9
322.707	-0.1
322.921	-23.85
323.135	-18.18
323.349	7.97
323.562	-10.48
323.776	-27.16
323.989	-19.08
324.203	-35.39
324.417	-37.67
324.63	-51.72
324.844	-46.15
325.057	-51.62
325.271	-32.5
325.485	-14.13
325.698	18.32
325.912	31.84
326.125	12.97
326.339	8.54
326.552	-23.94
326.766	-35.1
326.979	-17.92
327.193	35.95
327.406	29.33
327.619	30.64
327.833	41.3
328.046	12.42
328.26	-35.56
328.473	-3.13
328.686	-26.87
328.9	-20.13
329.113	-6.72
329.326	-14.55
329.54	-8.38
329.753	-11.59
329.966	-50.65
330.179	-37.15
330.393	-14.16
330.606	-18.62
330.819	18.37
331.032	28.63
331.246	32.35
331.459	53.28
331.672	52.78
331.885	30.59
332.098	9.79
332.311	5.79
332.525	-54.64
332.738	-52.75
332.951	-2.96
333.164	29.39
333.377	30.56
333.59	53.3
333.803	43.58
334.016	29.73
334.229	19.79
334.442	25.15
334.655	22.54
334.868	28.65
335.081	17.58
335.294	23.68
335.507	3.4
335.72	3.65
335.933	-0.95
336.146	-4.49
336.359	-21.73
336.572	-55.64
336.785	-73.81
336.997	-76.45
337.21	-51.53
337.423	-41.24
337.636	-22.26
337.849	-7.78
338.062	-13.33
338.274	-2.38
338.487	-8.75
338.7	-8.37
338.913	-56.55
339.125	-66.12
339.338	-138.85
339.551	-116.66
339.763	-62.36
339.976	-6.31
340.189	10.67
340.402	29.89
340.614	24.44
340.827	7.42
341.039	-18.01
341.252	-8.73
341.465	3.2
341.677	-6.66
341.89	-40.82
342.102	-0.8
342.315	-21.8
342.527	-56.55
342.74	-52.4
342.952	-12.52
343.165	-24.44
343.377	-4.9
343.59	-1.07
343.802	11.17
344.015	17.87
344.227	30.95
344.44	31.16
344.652	43.16
344.864	37.6
345.077	38.07
345.289	30.68
345.502	30.19
345.714	15.82
345.926	17.36
346.139	8.33
346.351	14.73
346.563	20.06
346.775	18.78
346.988	8.5
347.2	-11.95
347.412	-64.33
347.624	-88.32
347.837	-79.7
348.049	-38.89
348.261	8.49
348.473	27.1
348.685	28.04
348.897	10.55
349.11	-12.61
349.322	-53.63
349.534	-40.07
349.746	-24.65
349.958	-15.25
350.17	-16.36
350.382	17.21
350.594	7.01
350.806	21.53
351.018	24.19
351.23	20.86
351.442	-24.19
351.654	7.11
351.866	-11.02
352.078	5.34
352.29	21.86
352.502	35.8
352.714	36.18
352.926	13.67
353.138	2.29
353.35	-14.55
353.561	-17.92
353.773	-43.94
353.985	-18.73
354.197	-25.53
354.409	-20.93
354.621	-26.03
354.832	-18.92
355.044	-23.07
355.256	-29.47
355.468	-23.39
355.679	-27.9
355.891	-22.53
356.103	-35.7
356.314	-27.79
356.526	-18.78
356.738	-12.75
356.949	-10.17
357.161	6.12
357.373	-1.71
357.584	-22.64
357.796	-19.01
358.008	-23.73
358.219	-19.28
358.431	-9.79
358.642	6.9
358.854	-0.93
359.065	-26.06
359.277	-59.42
359.488	-68.81
359.7	-97.69
359.911	-103.19
360.123	-57.82
360.334	-46.53
360.546	-56.43
360.757	-58.04
360.969	-27.39
361.18	-26.89
361.391	-19.39
361.603	-17.89
361.814	0.99
362.025	-4.91
362.237	-15.78
362.448	-15.49
362.659	8.25
362.871	-0.35
363.082	7.19
363.293	9.39
363.504	8.33
363.716	-14.96
363.927	-15.89
364.138	-54.22
364.349	-64.67
364.56	-61.55
364.772	-52.47
364.983	-26.33
365.194	-18.95
365.405	2.29
365.616	23.94
365.827	28.27
366.038	-6.35
366.25	-9.53
366.461	-43.82
366.672	-39.03
366.883	-9.22
367.094	15.73
367.305	7.43
367.516	14.06
367.727	-7.88
367.938	-28.95
368.149	-31.03
368.36	-4.07
368.571	-0.6
368.781	-14.72
368.992	-29.43
369.203	-49.35
369.414	-79.83
369.625	-90.84
369.836	-64.24
370.047	-79.04
370.258	-61.72
370.468	-63.06
370.679	-75.42
370.89	-73.34
371.101	-54.95
371.312	-54.14
371.522	-40.39
371.733	-22.28
371.944	-11.06
372.155	-3.41
372.365	-11.85
372.576	-17.04
372.787	-16.82
372.997	-46.17
373.208	-46.34
373.419	-14.46
373.629	-37.08
373.84	-34.09
374.05	-26.38
374.261	-19.87
374.472	-34.44
374.682	9.47
374.893	8.62
375.103	44.54
375.314	44.41
375.524	34.68
375.735	27.49
375.945	35.87
376.156	1.12
376.366	-3.96
376.577	-7.38
376.787	-1.23
376.997	-6.99
377.208	-0.88
377.418	-14.04
377.629	10.22
377.839	-0.3
378.049	-2.32
378.26	13.22
378.47	25.04
378.68	6.38
378.89	0.81
379.101	0.14
379.311	-36.4
379.521	-67.59
379.732	-56.12
379.942	-51.3
380.152	-73.44
380.362	-37.74
380.572	-23.63
380.783	-18.98
380.993	-10.8
381.203	12.19
381.413	21.21
381.623	22.11
381.833	19.18
382.043	11.11
382.253	-5.49
382.463	-6.43
382.674	-16.23
382.884	-28.17
383.094	-28.2
383.304	-21.11
383.514	-15.67
383.724	-7.68
383.934	-10.95
384.144	-19
384.353	-20.17
384.563	-25.26
384.773	-20.42
384.983	-25.64
385.193	-5.45
385.403	-2.81
385.613	-5.58
385.823	-14.27
386.033	-4.46
386.242	-14.41
386.452	-18.24
386.662	-23.98
386.872	-14.04
387.082	-14.2
387.291	-21.74
387.501	-24.45
387.711	-15.84
387.921	-23.87
388.13	-26.08
388.34	-8.81
388.55	-12.79
388.759	-11.26
388.969	-2.56
389.179	-1.56
389.388	-7.42
389.598	1.98
389.807	-6.87
390.017	-10.38
390.227	-9.88
390.436	-7.51
390.646	-8.92
390.855	-3.47
391.065	-3.04
391.274	-6.33
391.484	-11.16
391.693	-6.73
391.903	-4.97
392.112	1.6
392.322	4.74
392.531	9.93
392.74	7.42
392.95	1.65
393.159	-2.78
393.369	-2.11
393.578	-3.55
393.787	-4.16
393.997	-0.96
394.206	-2.62
394.415	-3.29
394.625	-3.6
394.834	-3.82
395.043	-3.94
395.252	-0.95
395.462	1.39
395.671	2.6
395.88	3.39
396.089	4.14
396.298	2.57
396.508	1.8
396.717	0.71
396.926	1.24
397.135	0.74
397.344	0.85
397.553	2.07
397.762	3.85
397.971	3.7
398.181	4.06
398.39	3.82
398.599	2.64
398.808	2.57
399.017	3.2
399.226	4.76
399.435	5.78
399.644	6.24
399.853	4.83
400.062	4.24
400.27	3.1
400.479	2.32
400.688	1.12
400.897	1.72
401.106	1.74
401.315	1.75
401.524	1.95
401.733	2.97
401.941	3.42
402.15	3.62
402.359	3.44
402.568	3.81
402.777	3.91
402.985	3.53
403.194	3.39
403.403	3.35
403.612	2.84
403.82	2.42
404.029	2.6
404.238	2.52
404.446	2.81
404.655	2.66
404.864	2.79
405.072	2.51
405.281	2.66
405.489	2.38
405.698	2.63
405.906	2.55
406.115	2.68
406.324	2.62
406.532	2.86
406.741	3.11
406.949	3.11
407.158	2.95
407.366	2.8
407.574	2.83
407.783	2.69
407.991	2.51
408.2	2.8
408.408	2.87
408.617	2.62
408.825	2.4
409.033	2.64
409.242	2.5
409.45	2.63
409.658	2.6
409.867	2.75
410.075	2.63
410.283	2.49
410.491	2.31
410.7	2.32
410.908	2.27
411.116	2.54
411.324	2.63
411.533	2.66
411.741	2.82
411.949	2.8
412.157	2.5
412.365	2.56
412.573	2.57
412.781	2.57
412.99	2.58
413.198	2.81
413.406	2.74
413.614	2.79
413.822	2.58
414.03	2.5
414.238	2.24
414.446	2.24
414.654	2.05
414.862	2.19
415.07	2.3
415.278	2.49
415.486	2.29
415.694	2.38
415.902	2.18
416.109	2
416.317	1.97
416.525	1.88
416.733	1.86
416.941	2.07
417.149	2.16
417.357	2.09
417.564	2.31
417.772	2.62
417.98	2.46
418.188	2.42
418.395	2.53
418.603	2.63
418.811	2.11
419.019	2.15
419.226	2.39
419.434	2.38
419.642	2.19
419.849	2.43
420.057	2.55
420.265	2.41
420.472	2.14
420.68	2.2
420.887	2.14
421.095	2.08
421.302	1.9
421.51	2.16
421.717	2.23
421.925	2.3
422.132	2.26
422.34	2.22
422.547	2.36
422.755	2.22
422.962	2.15
423.17	2.06
423.377	2.24
423.585	2.14
423.792	2.06
423.999	2
424.207	1.91
424.414	1.99
424.621	1.98
424.829	2.06
425.036	2.18
425.243	2.43
425.451	2.25
425.658	1.99
425.865	2.21
426.072	2.24
426.28	2.39
426.487	2.36
426.694	2.44
426.901	2.05
427.108	1.92
427.315	1.7
427.523	1.98
427.73	1.9
427.937	2.01
428.144	1.95
428.351	1.88
428.558	1.88
428.765	1.97
428.972	2.05
429.179	2.22
429.386	2.46
429.593	2.21
429.8	2.12
430.007	2.08
430.214	2.18
430.421	2.06
430.628	1.9
430.835	1.77
431.042	1.89
431.249	1.87
431.456	1.81
431.662	2.05
431.869	2.33
432.076	2.4
432.283	2.47
432.49	2.52
432.697	2.55
432.903	2.24
433.11	2.08
433.317	2.12
433.524	2.19
433.73	2.01
433.937	2.32
434.144	2.21
434.35	2.15
434.557	2.06
434.764	2.16
434.97	2.06
435.177	2.32
435.384	2.21
435.59	2.2
435.797	2.37
436.003	2.46
436.21	2.36
436.416	2.47
436.623	2.58
436.829	2.61
437.036	2.72
437.242	2.76
437.449	2.65
437.655	2.64
437.862	2.63
438.068	2.51
438.275	2.58
438.481	2.74
438.687	2.81
438.894	2.78
439.1	2.8
439.307	3.01
439.513	2.98
439.719	2.94
439.926	2.94
440.132	2.99
440.338	2.7
440.544	2.82
440.751	2.74
440.957	2.78
441.163	2.79
441.369	2.92
441.575	2.69
441.782	2.71
441.988	2.58
442.194	2.43
442.4	2.37
442.606	2.6
442.812	2.71
443.018	2.83
443.224	2.98
443.431	3.18
443.637	3.03
443.843	2.89
444.049	2.96
444.255	2.82
444.461	2.76
444.667	2.72
444.873	2.95
445.079	2.85
445.284	3
445.49	2.79
445.696	2.68
445.902	2.52
446.108	2.5
446.314	2.41
446.52	2.49
446.726	2.76
446.931	2.81
447.137	2.83
447.343	2.98
447.549	2.91
447.755	2.73
447.96	2.74
448.166	2.76
448.372	2.63
448.578	2.75
448.783	2.74
448.989	2.78
449.195	2.93
449.4	2.95
449.606	2.87
449.812	2.86
450.017	2.91
450.223	2.74
450.428	2.75
450.634	2.91
450.84	3.09
451.045	3
451.251	2.95
451.456	3.12
451.662	3.1
451.867	3.18
452.073	3.15
452.278	3.34
452.483	3.5
452.689	3.4
452.894	3.31
453.1	3.27
453.305	3.15
453.51	2.92
453.716	2.88
453.921	2.94
454.127	2.95
454.332	2.93
454.537	2.9
454.742	2.98
454.948	2.83
455.153	2.9
455.358	3.01
455.563	3.15
455.769	3.29
455.974	3.3
456.179	3.17
456.384	3.13
456.589	3.08
456.795	2.82
457	2.85
457.205	3.15
457.41	3.15
457.615	3.04
457.82	3.18
458.025	3.22
458.23	3.07
458.435	3.09
458.64	3.17
458.845	3.28
459.05	3.22
459.255	3.29
459.46	3.23
459.665	3.2
459.87	3.07
460.075	3.13
460.28	3.1
460.485	3.24
460.69	3.19
460.895	3.08
461.099	3.02
461.304	3.06
461.509	3.05
461.714	2.99
461.919	3.2
462.123	3.11
462.328	3.14
462.533	3.07
462.738	3.24
462.942	3.18
463.147	3.38
463.352	3.39
463.556	3.41
463.761	3.38
463.966	3.38
464.17	3.39
464.375	3.3
464.58	3.25
464.784	3.18
464.989	3.15
465.193	3.11
465.398	3.12
465.602	3.2
465.807	3.26
466.011	3.3
466.216	3.34
466.42	3.45
466.625	3.49
466.829	3.51
467.034	3.55
467.238	3.64
467.443	3.55
467.647	3.4
467.851	3.44
468.056	3.46
468.26	3.37
468.464	3.42
468.669	3.59
468.873	3.74
469.077	3.67
469.282	3.71
469.486	3.7
469.69	3.67
469.894	3.54
470.099	3.65
470.303	3.78
470.507	3.69
470.711	3.62
470.915	3.55
471.119	3.47
471.324	3.41
471.528	3.48
471.732	3.64
471.936	3.7
472.14	3.75
472.344	3.77
472.548	3.85
472.752	3.93
472.956	4.13
473.16	4.12
473.364	4.03
473.568	4.02
473.772	3.97
473.976	3.78
474.18	3.87
474.384	4
474.588	4.02
474.792	3.95
474.995	4.06
475.199	4.08
475.403	4.08
475.607	4.04
475.811	3.96
476.015	3.98
476.218	3.98
476.422	3.91
476.626	4.01
476.83	4.17
477.033	4.15
477.237	4.08
477.441	4.17
477.644	4.12
477.848	4.1
478.052	4.03
478.255	4.02
478.459	4.02
478.663	4.12
478.866	4.2
479.07	4.32
479.273	4.52
479.477	4.57
479.681	4.51
479.884	4.41
480.088	4.34
480.291	4.21
480.495	4.22
480.698	4.21
480.901	4.34
481.105	4.44
481.308	4.46
481.512	4.41
481.715	4.52
481.919	4.48
482.122	4.43
482.325	4.44
482.529	4.43
482.732	4.37
482.935	4.37
483.138	4.29
483.342	4.4
483.545	4.48
483.748	4.52
483.952	4.55
484.155	4.73
484.358	4.71
484.561	4.66
484.764	4.63
484.967	4.74
485.171	4.82
485.374	4.78
485.577	4.91
485.78	5.04
485.983	4.97
486.186	4.81
486.389	4.8
486.592	4.75
486.795	4.62
486.998	4.56
487.201	4.62
487.404	4.66
487.607	4.71
487.81	4.76
488.013	4.81
488.216	4.8
488.419	4.83
488.622	4.79
488.825	4.75
489.028	4.76
489.231	4.73
489.433	4.67
489.636	4.6
489.839	4.57
490.042	4.47
490.245	4.46
490.447	4.47
490.65	4.46
490.853	4.54
491.056	4.64
491.258	4.7
491.461	4.76
491.664	4.87
491.866	4.74
492.069	4.82
492.272	4.76
492.474	4.76
492.677	4.75
492.879	4.87
493.082	4.91
493.285	5.05
493.487	5.01
493.69	4.98
493.892	4.9
494.095	4.83
494.297	4.72
494.5	4.79
494.702	4.8
494.905	4.88
495.107	4.85
495.309	4.86
495.512	4.83
495.714	4.86
495.917	4.88
496.119	4.92
496.321	5.02
496.524	5.11
496.726	5.1
496.928	5.07
497.13	5.06
497.333	5.01
497.535	4.98
497.737	5.01
497.939	5.02
498.142	5.06
498.344	5.02
498.546	4.94
498.748	4.98
498.95	5.11
499.152	5.08
499.355	5.15
499.557	5.26
499.759	5.33
499.961	5.19
500.163	5.26
500.365	5.24
500.567	5.3
500.769	5.21
500.971	5.35
501.173	5.26
501.375	5.31
501.577	5.24
501.779	5.28
501.981	5.26
502.183	5.29
502.385	5.29
502.587	5.2
502.788	5.2
502.99	5.18
503.192	5.24
503.394	5.2
503.596	5.34
503.798	5.44
503.999	5.5
504.201	5.51
504.403	5.57
504.605	5.56
504.806	5.47
505.008	5.46
505.21	5.54
505.411	5.57
505.613	5.55
505.815	5.6
506.016	5.58
506.218	5.62
506.42	5.61
506.621	5.65
506.823	5.68
507.024	5.71
507.226	5.65
507.427	5.65
507.629	5.68
507.83	5.72
508.032	5.73
508.233	5.81
508.435	5.86
508.636	5.97
508.838	5.89
509.039	5.87
509.24	5.83
509.442	5.82
509.643	5.67
509.845	5.75
510.046	5.85
510.247	5.89
510.448	5.91
510.65	5.96
510.851	6.01
511.052	5.95
511.254	5.93
511.455	6.01
511.656	6.08
511.857	6.16
512.058	6.17
512.26	6.18
512.461	6.1
512.662	6.16
512.863	6.04
513.064	6.04
513.265	6.06
513.466	6.21
513.667	6.16
513.868	6.23
514.069	6.33
514.27	6.4
514.471	6.26
514.672	6.26
514.873	6.25
515.074	6.17
515.275	6.04
515.476	6.14
515.677	6.2
515.878	6.28
516.079	6.29
516.28	6.37
516.481	6.41
516.682	6.42
516.882	6.34
517.083	6.35
517.284	6.28
517.485	6.29
517.686	6.26
517.886	6.3
518.087	6.36
518.288	6.46
518.488	6.4
518.689	6.43
518.89	6.4
519.091	6.43
519.291	6.47
519.492	6.52
519.692	6.58
519.893	6.63
520.094	6.6
520.294	6.54
520.495	6.53
520.695	6.53
520.896	6.54
521.096	6.63
521.297	6.69
521.497	6.66
521.698	6.61
521.898	6.6
522.099	6.58
522.299	6.62
522.499	6.66
522.7	6.72
522.9	6.73
523.101	6.8
523.301	6.82
523.501	6.81
523.702	6.84
523.902	6.94
524.102	6.94
524.302	6.89
524.503	6.93
524.703	6.94
524.903	6.91
525.103	6.84
525.304	6.89
525.504	6.98
525.704	7
525.904	7
526.104	7.09
526.304	7.11
526.504	7.09
526.705	7.04
526.905	7.11
527.105	7.1
527.305	7.05
527.505	6.98
527.705	7.02
527.905	6.99
528.105	6.99
528.305	7
528.505	7.11
528.705	7.21
528.905	7.18
529.105	7.16
529.304	7.27
529.504	7.29
529.704	7.21
529.904	7.29
530.104	7.31
530.304	7.34
530.503	7.27
530.703	7.23
530.903	7.18
531.103	7.22
531.303	7.14
531.502	7.22
531.702	7.35
531.902	7.4
532.101	7.36
532.301	7.41
532.501	7.42
532.7	7.35
532.9	7.43
533.1	7.47
533.299	7.51
533.499	7.49
533.698	7.51
533.898	7.44
534.097	7.45
534.297	7.49
534.496	7.53
534.696	7.57
534.895	7.69
535.095	7.77
535.294	7.76
535.494	7.75
535.693	7.76
535.892	7.74
536.092	7.64
536.291	7.55
536.491	7.65
536.69	7.69
536.889	7.61
537.088	7.65
537.288	7.8
537.487	7.84
537.686	7.83
537.886	7.95
538.085	8.01
538.284	8.09
538.483	8
538.682	8.02
538.882	8.04
539.081	8.08
539.28	7.97
539.479	8.01
539.678	8.03
539.877	8.1
540.076	8.11
540.275	8.16
540.474	8.22
540.673	8.25
540.872	8.2
541.071	8.3
541.27	8.37
541.469	8.36
541.668	8.37
541.867	8.41
542.066	8.41
542.265	8.48
542.464	8.51
542.663	8.58
542.862	8.68
543.06	8.7
543.259	8.71
543.458	8.73
543.657	8.77
543.856	8.82
544.054	8.84
544.253	8.83
544.452	8.87
544.651	8.88
544.849	8.85
545.048	8.9
545.247	8.98
545.445	9.06
545.644	9.14
545.843	9.15
546.041	9.15
546.24	9.2
546.438	9.28
546.637	9.33
546.836	9.52
547.034	9.67
547.233	9.67
547.431	9.65
547.63	9.66
547.828	9.59
548.027	9.6
548.225	9.69
548.423	9.77
548.622	9.89
548.82	9.9
549.019	9.94
549.217	10.03
549.415	10.06
549.614	10.12
549.812	10.13
550.01	10.13
550.209	10.17
550.407	10.29
550.605	10.23
550.803	10.42
551.002	10.53
551.2	10.58
551.398	10.62
551.596	10.79
551.794	10.79
551.993	10.86
552.191	10.93
552.389	11.05
552.587	11.1
552.785	11.16
552.983	11.22
553.181	11.31
553.379	11.32
553.577	11.41
553.775	11.57
553.973	11.63
554.171	11.71
554.369	11.76
554.567	11.79
554.765	11.82
554.963	11.92
555.161	11.92
555.359	11.97
555.557	12.12
555.755	12.17
555.952	12.3
556.15	12.39
556.348	12.56
556.546	12.63
556.744	12.65
556.941	12.67
557.139	12.8
557.337	12.86
557.535	12.87
557.732	13.04
557.93	13.22
558.128	13.31
558.325	13.5
558.523	13.65
558.721	13.79
558.918	13.8
559.116	13.85
559.313	13.76
559.511	13.85
559.708	13.88
559.906	13.94
560.104	14.06
560.301	14.29
560.498	14.34
560.696	14.49
560.893	14.64
561.091	14.72
561.288	14.79
561.486	14.88
561.683	14.94
561.88	15.02
562.078	15.18
562.275	15.2
562.473	15.31
562.67	15.42
562.867	15.5
563.064	15.55
563.262	15.68
563.459	15.79
563.656	15.91
563.853	15.99
564.051	16.08
564.248	16.24
564.445	16.36
564.642	16.38
564.839	16.63
565.036	16.88
565.234	17.04
565.431	17.16
565.628	17.32
565.825	17.39
566.022	17.46
566.219	17.51
566.416	17.63
566.613	17.74
566.81	17.73
567.007	17.69
567.204	17.72
567.401	17.77
567.598	17.75
567.795	17.83
567.991	17.9
568.188	18.01
568.385	18.12
568.582	18.35
568.779	18.5
568.976	18.59
569.172	18.73
569.369	18.74
569.566	18.76
569.763	18.81
569.96	18.85
570.156	18.83
570.353	18.86
570.55	18.88
570.746	18.94
570.943	19.06
571.14	19.12
571.336	19.24
571.533	19.39
571.729	19.41
571.926	19.46
572.123	19.52
572.319	19.54
572.516	19.45
572.712	19.61
572.909	19.65
573.105	19.76
573.302	19.83
573.498	19.95
573.695	19.83
573.891	19.87
574.087	19.9
574.284	19.97
574.48	19.99
574.677	20.11
574.873	20.11
575.069	20.19
575.266	20.25
575.462	20.22
575.658	20.29
575.854	20.48
576.051	20.42
576.247	20.31
576.443	20.27
576.639	20.25
576.835	20.04
577.032	20.01
577.228	20.2
577.424	20.27
577.62	20.21
577.816	20.36
578.012	20.43
578.208	20.33
578.404	20.42
578.6	20.5
578.796	20.5
578.993	20.49
579.189	20.55
579.384	20.45
579.58	20.35
579.776	20.31
579.972	20.3
580.168	20.18
580.364	20.24
580.56	20.3
580.756	20.25
580.952	20.25
581.148	20.26
581.343	20.29
581.539	20.37
581.735	20.49
581.931	20.55
582.127	20.63
582.322	20.49
582.518	20.45
582.714	20.45
582.909	20.41
583.105	20.36
583.301	20.5
583.496	20.59
583.692	20.45
583.888	20.41
584.083	20.48
584.279	20.43
584.474	20.38
584.67	20.54
584.866	20.5
585.061	20.32
585.257	20.34
585.452	20.36
585.648	20.23
585.843	20.27
586.039	20.33
586.234	20.23
586.429	20.13
586.625	20.25
586.82	20.19
587.015	20.24
587.211	20.24
587.406	20.29
587.601	20.16
587.797	20.21
587.992	20.18
588.187	20.31
588.383	20.22
588.578	20.31
588.773	20.41
588.968	20.48
589.163	20.49
589.359	20.5
589.554	20.46
589.749	20.44
589.944	20.49
590.139	20.45
590.334	20.6
590.529	20.65
590.724	20.77
590.919	20.84
591.114	20.97
591.309	21.07
591.504	21.16
591.699	21.17
591.894	21.26
592.089	21.13
592.284	21.08
592.479	21.12
592.674	21.05
592.869	21.13
593.064	21.35
593.259	21.48
593.454	21.61
593.648	21.74
593.843	21.65
594.038	21.61
594.233	21.68
594.428	21.77
594.622	21.78
594.817	21.99
595.012	22.12
595.206	22.06
595.401	22.11
595.596	22.15
595.79	22.25
595.985	22.31
596.18	22.4
596.374	22.49
596.569	22.69
596.763	22.67
596.958	22.82
597.153	22.95
597.347	22.95
597.542	23.05
597.736	23.08
597.931	23.08
598.125	23.13
598.319	23.25
598.514	23.23
598.708	23.39
598.903	23.47
599.097	23.6
599.291	23.6
599.486	23.61
599.68	23.63
599.874	23.77
600.069	23.74
600.263	23.84
600.457	23.95
600.651	24.04
600.846	23.98
601.04	24.07
601.234	24.03
601.428	24.07
601.622	24
601.817	24.1
602.011	24.23
602.205	24.42
602.399	24.4
602.593	24.47
602.787	24.47
602.981	24.37
603.175	24.32
603.369	24.39
603.563	24.4
603.757	24.52
603.951	24.5
604.145	24.5
604.339	24.52
604.533	24.49
604.727	24.37
604.921	24.37
605.115	24.31
605.309	24.28
605.502	24.34
605.696	24.33
605.89	24.36
606.084	24.39
606.278	24.32
606.471	24.22
606.665	24
606.859	23.91
607.053	23.86
607.246	23.8
607.44	23.75
607.634	23.86
607.827	23.85
608.021	23.76
608.214	23.76
608.408	23.71
608.602	23.64
608.795	23.64
608.989	23.57
609.182	23.51
609.376	23.49
609.569	23.39
609.763	23.23
609.956	23.06
610.15	22.87
610.343	22.78
610.537	22.79
610.73	22.81
610.923	22.83
611.117	22.86
611.31	22.76
611.504	22.67
611.697	22.49
611.89	22.48
612.083	22.47
612.277	22.55
612.47	22.45
612.663	22.38
612.856	22.24
613.05	22.11
613.243	21.96
613.436	21.92
613.629	21.88
613.822	21.82
614.015	21.76
614.209	21.66
614.402	21.57
614.595	21.43
614.788	21.35
614.981	21.19
615.174	21.07
615.367	20.95
615.56	20.97
615.753	20.9
615.946	20.88
616.139	20.84
616.332	20.91
616.525	20.91
616.718	20.93
616.911	20.85
617.103	20.87
617.296	20.81
617.489	20.74
617.682	20.73
617.875	20.77
618.067	20.7
618.26	20.53
618.453	20.54
618.646	20.38
618.838	20.3
619.031	20.36
619.224	20.39
619.417	20.3
619.609	20.4
619.802	20.45
619.994	20.39
620.187	20.4
620.38	20.39
620.572	20.24
620.765	20.18
620.957	20.02
621.15	19.88
621.342	19.78
621.535	19.95
621.727	19.87
621.92	19.86
622.112	19.83
622.305	19.93
622.497	19.73
622.69	19.71
622.882	19.64
623.074	19.78
623.267	19.63
623.459	19.57
623.651	19.53
623.844	19.66
624.036	19.57
624.228	19.62
624.42	19.67
624.613	19.78
624.805	19.73
624.997	19.59
625.189	19.5
625.381	19.52
625.574	19.34
625.766	19.3
625.958	19.36
626.15	19.41
626.342	19.34
626.534	19.4
626.726	19.35
626.918	19.36
627.11	19.35
627.302	19.3
627.494	19.25
627.686	19.24
627.878	19.12
628.07	19.03
628.262	19.03
628.454	18.95
628.646	18.98
628.838	18.98
629.029	18.91
629.221	18.9
629.413	18.84
629.605	18.65
629.797	18.58
629.989	18.6
630.18	18.53
630.372	18.51
630.564	18.54
630.755	18.59
630.947	18.59
631.139	18.43
631.33	18.34
631.522	18.46
631.714	18.44
631.905	18.26
632.097	18.22
632.289	18.33
632.48	18.15
632.672	18.07
632.863	18.01
633.055	18.09
633.246	18.02
633.438	18
633.629	17.98
633.821	18.09
634.012	18.02
634.203	17.89
634.395	17.89
634.586	17.93
634.777	17.82
634.969	17.85
635.16	17.93
635.351	17.79
635.543	17.74
635.734	17.78
635.925	17.78
636.117	17.79
636.308	17.91
636.499	17.85
636.69	17.68
636.881	17.6
637.073	17.64
637.264	17.57
637.455	17.63
637.646	17.76
637.837	17.84
638.028	17.81
638.219	17.87
638.41	17.76
638.601	17.58
638.792	17.51
638.983	17.39
639.174	17.32
639.365	17.33
639.556	17.41
639.747	17.45
639.938	17.53
640.129	17.43
640.32	17.42
640.511	17.41
640.701	17.39
640.892	17.2
641.083	17.25
641.274	17.26
641.465	17.21
641.655	17.09
641.846	17.18
642.037	17.19
642.228	17.1
642.418	17.18
642.609	17.19
642.8	17.21
642.99	17.07
643.181	17.17
643.372	17.13
643.562	17.1
643.753	16.94
643.943	16.96
644.134	16.8
644.324	16.69
644.515	16.66
644.705	16.78
644.896	16.76
645.086	16.79
645.277	16.77
645.467	16.77
645.658	16.63
645.848	16.64
646.038	16.7
646.229	16.68
646.419	16.64
646.61	16.73
646.8	16.62
646.99	16.58
647.18	16.56
647.371	16.46
647.561	16.32
647.751	16.37
647.941	16.22
648.132	16.24
648.322	16.33
648.512	16.37
648.702	16.39
648.892	16.48
649.082	16.43
649.272	16.21
649.462	16.07
649.653	15.97
649.843	15.86
650.033	15.86
650.223	15.93
650.413	15.92
650.603	15.91
650.793	15.96
650.983	15.9
651.172	15.87
651.362	15.87
651.552	15.82
651.742	15.71
651.932	15.65
652.122	15.69
652.312	15.76
652.502	15.67
652.691	15.67
652.881	15.63
653.071	15.55
653.261	15.37
653.45	15.21
653.64	15.12
653.83	15.04
654.019	14.91
654.209	14.92
654.399	14.99
654.588	14.94
654.778	14.8
654.968	14.62
655.157	14.44
655.347	14.31
655.536	14.13
655.726	14.04
655.915	13.84
656.105	13.76
656.294	13.6
656.484	13.44
656.673	13.32
656.863	13.32
657.052	13.07
657.241	12.95
657.431	12.71
657.62	12.57
657.809	12.33
657.999	12.22
658.188	12.03
658.377	11.84
658.567	11.66
658.756	11.53
658.945	11.44
659.134	11.27
659.324	11.2
659.513	11.02
659.702	10.89
659.891	10.72
660.08	10.53
660.269	10.47
660.458	10.3
660.648	10.17
660.837	10.05
661.026	10
661.215	9.77
661.404	9.61
661.593	9.46
661.782	9.18
661.971	9.07
662.16	8.96
662.349	8.94
662.538	8.77
662.726	8.69
662.915	8.49
663.104	8.35
663.293	8.31
663.482	8.34
663.671	8.33
663.86	8.25
664.048	8.16
664.237	8.04
664.426	7.75
664.615	7.65
664.803	7.58
664.992	7.6
665.181	7.43
665.369	7.45
665.558	7.38
665.747	7.19
665.935	7.12
666.124	7.07
666.312	7.09
666.501	7.02
666.69	7
666.878	6.9
667.067	6.83
667.255	6.79
667.444	6.98
667.632	7.07
667.82	7.14
668.009	7.15
668.197	7.03
668.386	6.83
668.574	6.9
668.762	6.76
668.951	6.74
669.139	6.87
669.327	6.74
669.516	6.74
669.704	6.73
669.892	6.88
670.08	6.82
670.269	6.84
670.457	6.68
670.645	6.55
670.833	6.56
671.021	6.58
671.21	6.75
671.398	6.98
671.586	7.05
671.774	6.86
671.962	6.84
672.15	6.84
672.338	6.69
672.526	6.81
672.714	6.8
672.902	6.96
673.09	7.09
673.278	7.31
673.466	7.37
673.654	7.67
673.842	7.61
674.03	7.53
674.218	7.37
674.405	7.42
674.593	7.28
674.781	7.43
674.969	7.5
675.157	7.65
675.344	7.76
675.532	7.95
675.72	8.01
675.908	8.1
676.095	8.11
676.283	8.17
676.471	8.41
676.658	8.44
676.846	8.52
677.033	8.64
677.221	8.73
677.409	8.5
677.596	8.59
677.784	8.63
677.971	8.71
678.159	8.67
678.346	8.82
678.534	8.95
678.721	9.05
678.909	9.15
679.096	9.35
679.283	9.59
679.471	9.78
679.658	9.9
679.846	10.2
680.033	10.39
680.22	10.41
680.408	10.39
680.595	10.39
680.782	10.24
680.969	10.35
681.157	10.51
681.344	10.63
681.531	10.82
681.718	10.95
681.905	11.09
682.093	11.25
682.28	11.51
682.467	11.76
682.654	11.92
682.841	11.99
683.028	12.2
683.215	12.34
683.402	12.42
683.589	12.75
683.776	13.08
683.963	13.16
684.15	13.44
684.337	13.87
684.524	14
684.711	14.19
684.898	14.38
685.085	14.5
685.271	14.65
685.458	14.91
685.645	15.13
685.832	15.62
686.019	16.06
686.205	16.31
686.392	16.73
686.579	17.09
686.766	17.48
686.952	17.78
687.139	18.42
687.326	18.71
687.512	19.01
687.699	19.27
687.886	19.59
688.072	19.69
688.259	20.25
688.445	21.05
688.632	21.56
688.818	22.18
689.005	22.73
689.191	23.19
689.378	23.63
689.564	24.19
689.751	24.61
689.937	25.17
690.124	25.76
690.31	25.96
690.496	26.46
690.683	27.18
690.869	27.94
691.055	28.63
691.242	29.62
691.428	30.31
691.614	30.88
691.8	31.58
691.987	32.11
692.173	32.8
692.359	33.46
692.545	34.32
692.731	34.81
692.918	35.51
693.104	35.99
693.29	36.82
693.476	37.32
693.662	38.22
693.848	38.97
694.034	39.72
694.22	40.33
694.406	41.27
694.592	41.98
694.778	42.54
694.964	43.13
695.15	43.79
695.336	44.46
695.522	45.4
695.708	45.89
695.894	46.63
696.08	47.5
696.265	48.01
696.451	48.52
696.637	49.77
696.823	50.43
697.009	50.77
697.194	51.5
697.38	51.72
697.566	51.77
697.751	52.5
697.937	53.54
698.123	54.13
698.308	54.89
698.494	56.06
698.68	56.58
698.865	57
699.051	57.48
699.236	57.96
699.422	58.38
699.607	58.76
699.793	59.25
699.978	59.74
700.164	60.25
700.349	60.82
700.535	61.51
700.72	61.68
700.906	62.44
701.091	62.82
701.276	63.05
701.462	63.7
701.647	64.39
701.832	64.73
702.018	65.24
702.203	65.59
702.388	65.44
702.573	65.91
702.759	66.34
702.944	66.76
703.129	67.25
703.314	67.99
703.499	68.16
703.684	68.33
703.87	69.52
704.055	70.3
704.24	70.64
704.425	71.29
704.61	71.84
704.795	71.37
704.98	71.52
705.165	71.49
705.35	71.75
705.535	71.88
705.72	72.41
705.905	72.55
706.09	73.45
706.275	73.7
706.459	73.57
706.644	73.49
706.829	73.78
707.014	73.9
707.199	74.19
707.384	74.95
707.568	74.97
707.753	75.58
707.938	75.55
708.123	75.5
708.307	75.56
708.492	76.43
708.677	76.23
708.861	76.56
709.046	76.79
709.231	77.54
709.415	77.52
709.6	77.24
709.784	77.2
709.969	77.58
710.153	77.27
710.338	77.29
710.522	77.81
710.707	78.41
710.891	78.32
711.076	78.5
711.26	78.69
711.445	78.81
711.629	78.92
711.813	79.32
711.998	79.83
712.182	79.52
712.366	80.35
712.551	80.62
712.735	81.09
712.919	80.92
713.103	81.91
713.288	81.3
713.472	80.98
713.656	81.42
713.84	81.15
714.024	80.99
714.208	81.02
714.393	81.73
714.577	81.51
714.761	82.33
714.945	82.3
715.129	82.74
715.313	82.55
715.497	82.35
715.681	82.65
715.865	82.48
716.049	82.75
716.233	82.41
716.417	82.77
716.601	82.18
716.785	82.28
716.968	82.24
717.152	82.69
717.336	82.28
717.52	82.51
717.704	82.96
717.888	83.21
718.071	83.26
718.255	83.92
718.439	83.82
718.622	84.02
718.806	84.13
718.99	83.8
719.174	83.7
719.357	84.07
719.541	83.92
719.724	83.69
719.908	84.78
720.092	85.01
720.275	85.38
720.459	85.23
720.642	84.76
720.826	83.96
721.009	83.68
721.193	83
721.376	83.41
721.559	84.31
721.743	84.9
721.926	85.01
722.11	85.63
722.293	85.22
722.476	85.15
722.66	85.2
722.843	84.99
723.026	84.77
723.21	85.52
723.393	86.11
723.576	85.35
723.759	85.12
723.942	85.23
724.126	85.08
724.309	84.66
724.492	85.26
724.675	85.65
724.858	85.98
725.041	86.57
725.224	86.66
725.407	86.83
725.59	87.51
725.774	87.22
725.957	86.53
726.14	86.11
726.322	86.81
726.505	86.6
726.688	87.1
726.871	87.17
727.054	87.29
727.237	86.8
727.42	86.85
727.603	87.16
727.786	87.55
727.968	88.06
728.151	88
728.334	87.64
728.517	87.5
728.699	87.81
728.882	87.85
729.065	88.26
729.248	88.9
729.43	89.33
729.613	90.07
729.796	90.56
729.978	90.29
730.161	90.28
730.343	89.71
730.526	89.6
730.708	88.98
730.891	89.52
731.073	89.49
731.256	89.17
731.438	89.14
731.621	90.27
731.803	90.01
731.986	89.93
732.168	89.86
732.35	89.99
732.533	89.4
732.715	89.1
732.898	89.64
733.08	90.22
733.262	89.75
733.444	89.69
733.627	90.53
733.809	91.18
733.991	91.83
734.173	91.28
734.355	91.04
734.538	90.91
734.72	90.21
734.902	90.06
735.084	91.12
735.266	91.67
735.448	92.15
735.63	92.47
735.812	92.48
735.994	93
736.176	92.86
736.358	92.49
736.54	93.03
736.722	92.53
736.904	91.87
737.086	92.18
737.268	93.34
737.45	92.89
737.632	92.91
737.814	91.83
737.995	91.7
738.177	91.13
738.359	90.53
738.541	91.54
738.723	92.79
738.904	93.06
739.086	93.03
739.268	92.93
739.449	93.51
739.631	92.8
739.813	93.43
739.994	93.66
740.176	94.64
740.358	93.11
740.539	94.95
740.721	95.38
740.902	96.07
741.084	95.11
741.265	95.06
741.447	94.94
741.628	93.95
741.81	92.06
741.991	93.21
742.172	94.9
742.354	94.74
742.535	95.15
742.717	96.52
742.898	97.04
743.079	96.84
743.261	95.85
743.442	94.63
743.623	93.82
743.804	93.46
743.986	93.36
744.167	92.96
744.348	93.39
744.529	94.18
744.71	92.29
744.891	91.97
745.073	91.78
745.254	91.88
745.435	91.31
745.616	91.6
745.797	90.61
745.978	91.39
746.159	91.83
746.34	91.69
746.521	94.95
746.702	93.99
746.883	93.63
747.064	94.19
747.245	94.72
747.426	91.88
747.606	93.47
747.787	93.79
747.968	93.23
748.149	92.96
748.33	93.02
748.51	93.25
748.691	93
748.872	92.89
749.053	91.79
749.233	91.93
749.414	91.28
749.595	90.11
749.775	89.35
749.956	90.13
750.137	90.15
750.317	91.06
750.498	93.35
750.678	93.99
750.859	93.95
751.04	94.33
751.22	93.13
751.4	91.43
751.581	90.64
751.761	91.54
751.942	92.39
752.122	93.54
752.303	93.29
752.483	92.49
752.663	91.82
752.844	89.64
753.024	89.83
753.204	91.09
753.385	91.84
753.565	90.98
753.745	92.57
753.925	91.18
754.106	90.41
754.286	90.35
754.466	90.83
754.646	91.35
754.826	91.92
755.006	90.99
755.187	92.22
755.367	92.63
755.547	93.09
755.727	93.17
755.907	92.69
756.087	92.74
756.267	92.54
756.447	91.07
756.627	90.15
756.807	91.29
756.987	90.41
757.167	90.94
757.346	91.68
757.526	90.23
757.706	91.05
757.886	91.82
758.066	92.94
758.246	94.82
758.425	94.88
758.605	94.28
758.785	93.59
758.965	91.89
759.144	89.65
759.324	91.64
759.504	91.71
759.683	91.98
759.863	89.77
760.043	88.12
760.222	88.64
760.402	87.76
760.581	86.8
760.761	90.43
760.94	91.52
761.12	91.22
761.299	92.01
761.479	92.49
761.658	89.61
761.838	89.11
762.017	89.17
762.197	88.43
762.376	88.53
762.555	90.69
762.735	90.77
762.914	89.09
763.093	89.32
763.273	87.9
763.452	86.38
763.631	86.14
763.81	87.27
763.99	88.39
764.169	89.89
764.348	88.78
764.527	88.03
764.706	89.2
764.885	90.02
765.064	88.05
765.243	88.77
765.423	89.62
765.602	87.89
765.781	84.21
765.96	83.75
766.139	82.76
766.318	84.18
766.497	83.42
766.676	85.56
766.854	88.86
767.033	89.65
767.212	88.98
767.391	90.5
767.57	90.81
767.749	88.51
767.928	90.41
768.106	88.91
768.285	87.18
768.464	86.74
768.643	87.05
768.821	85.77
769	87.34
769.179	88.55
769.357	86.9
769.536	86.67
769.715	87.53
769.893	88.1
770.072	85.76
770.25	87.83
770.429	89.11
770.607	88.73
770.786	85.94
770.964	88.49
771.143	86.43
771.321	85.36
771.5	85.27
771.678	83.99
771.857	82.71
772.035	83.83
772.213	83.21
772.392	82.04
772.57	84.86
772.748	85.78
772.927	84.68
773.105	85.94
773.283	87.37
773.461	86.58
773.64	87.26
773.818	86.31
773.996	86.15
774.174	84.64
774.352	82.84
774.531	79.73
774.709	83.37
774.887	80.56
775.065	80.89
775.243	81.55
775.421	83.42
775.599	83.1
775.777	82.24
775.955	80.27
776.133	80.24
776.311	79.8
776.489	77.24
776.667	80.34
776.844	82.36
777.022	82.19
777.2	82.17
777.378	82.7
777.556	82.72
777.734	81.98
777.911	85.78
778.089	86.5
778.267	86.76
778.445	84.24
778.622	83.45
778.8	80.31
778.978	81.32
779.155	81.98
779.333	83.78
779.511	83.92
779.688	85.63
779.866	79.79
780.043	74.82
780.221	74.21
780.398	72.9
780.576	74.24
780.753	79.49
780.931	80.83
781.108	81.08
781.286	83.27
781.463	80.31
781.64	76.18
781.818	78.53
781.995	79.99
782.172	79.36
782.35	80.1
782.527	84.71
782.704	81.15
782.882	81.9
783.059	80.49
783.236	83.02
783.413	83.51
783.59	87.36
783.768	83.91
783.945	88.47
784.122	85.02
784.299	83.21
784.476	79.84
784.653	80.8
784.83	74.44
785.007	70.34
785.184	70.27
785.361	70.52
785.538	73.61
785.715	79.35
785.892	82.37
786.069	85.63
786.246	87.27
786.423	86.55
786.6	84.52
786.776	87.8
786.953	82.69
787.13	84.83
787.307	83.14
787.484	80.26
787.66	76.19
787.837	76.24
788.014	73.37
788.191	70.28
788.367	70.89
788.544	72.82
788.721	72.5
788.897	73.36
789.074	78.65
789.25	78.4
789.427	79.57
789.603	79.14
789.78	78.09
789.956	71.29
790.133	72.22
790.309	71.9
790.486	77.9
790.662	79.55
790.839	84.49
791.015	83.76
791.192	81.39
791.368	79.8
791.544	77.17
791.721	76.08
791.897	75.49
792.073	74.02
792.249	65.63
792.426	66.78
792.602	68.84
792.778	71.63
792.954	72.68
793.13	78.24
793.307	73.15
793.483	66.98
793.659	62.41
793.835	63.55
794.011	61.35
794.187	66.38
794.363	66.57
794.539	72.78
794.715	66.83
794.891	67.04
795.067	69.72
795.243	73.35
795.419	70.15
795.595	69.85
795.771	71.39
795.947	68.86
796.122	67.32
796.298	70.65
796.474	75.02
796.65	75.49
796.826	75.95
797.001	75.62
797.177	70.87
797.353	76.56
797.529	74.52
797.704	74
797.88	73.04
798.056	70.62
798.231	67.13
798.407	73.13
798.582	71.02
798.758	77.26
798.934	86.42
799.109	80.06
799.285	72.36
799.46	77.71
799.636	73.19
799.811	65.08
799.986	69.34
800.162	73.36
800.337	70.62
800.513	64.63
800.688	65.84
800.863	76.81
801.039	67.99
801.214	64.33
801.389	70.54
801.565	69.23
801.74	56.36
801.915	66.2
802.09	73.01
802.265	75.63
802.441	77.06
802.616	78.57
802.791	77.43
802.966	76
803.141	73.05
803.316	70.16
803.491	74.59
803.666	79.2
803.841	77.65
804.016	77.75
804.191	80.66
804.366	73.3
804.541	68.62
804.716	67.63
804.891	64.08
805.066	65.57
805.241	65.41
805.416	63.07
805.591	58.91
805.765	60.78
805.94	58.88
806.115	57.04
806.29	48.18
806.464	53.5
806.639	50.92
806.814	44.21
806.989	37.5
807.163	58.12
807.338	57.21
807.512	59.97
807.687	56.23
807.862	70.37
808.036	60.71
808.211	65.08
808.385	71.71
808.56	84.98
808.734	86.27
808.909	87.19
809.083	78.31
809.258	75.34
809.432	75.66
809.606	66.15
809.781	66.42
809.955	76.05
810.13	74.36
810.304	66.69
810.478	68.48
810.652	73.84
810.827	68
811.001	70.74
811.175	70.58
811.349	63.97
811.524	54.72
811.698	44.3
811.872	39.01
812.046	54.31
812.22	66.97
812.394	69.21
812.568	82.34
812.742	92.34
812.916	72.13
813.09	64.39
813.264	60.64
813.438	55.81
813.612	48.49
813.786	47.73
813.96	58.24
814.134	57.23
814.308	61.73
814.482	73.79
814.656	74.97
814.83	69.01
815.003	72.5
815.177	65.38
815.351	48.93
815.525	54.7
815.698	52.18
815.872	42.22
816.046	34.7
816.219	44.21
816.393	49.68
816.567	54.59
816.74	63.16
816.914	72.57
817.088	74.78
817.261	72.75
817.435	58.79
817.608	63.71
817.782	46.25
817.955	47.56
818.129	44.36
818.302	55.4
818.475	56.4
818.649	66.32
818.822	61.78
818.996	78.31
819.169	80.48
819.342	64.6
819.516	75.7
819.689	74.72
819.862	56.69
820.035	46.6
820.209	51.96
820.382	42.22
820.555	42.47
820.728	32.9
820.901	25.55
821.075	28.78
821.248	38.52
821.421	32.39
821.594	39.86
821.767	64.1
821.94	74.08
822.113	52.68
822.286	50.99
822.459	58.62
822.632	53.57
822.805	31.43
822.978	26.16
823.151	34.84
823.324	27.52
823.496	9.38
823.669	17.33
823.842	31.05
824.015	-2.72
824.188	-17.25
824.361	-13.45
824.533	-16.21
824.706	-7.17
824.879	5.96
825.051	25.13
825.224	35.9
825.397	28.8
825.569	29.48
825.742	54.73
825.915	61.69
826.087	77.28
826.26	60.57
826.432	55.77
826.605	51.7
826.777	34.9
826.95	25.96
827.122	18.96
827.295	22.76
827.467	34.72
827.64	17.58
827.812	4.16
827.984	23.1
828.157	16.39
828.329	-29.12
828.501	-18.81
828.674	26.74
828.846	17.32
829.018	36.25
829.19	30.46
829.363	66.77
829.535	45.46
829.707	55.66
829.879	30.69
830.051	27.71
830.223	-12.86
830.395	-40.11
830.568	-43.54
830.74	-40.64
830.912	-0.29
831.084	12.82
831.256	25.59
831.428	16.5
831.6	19.57
831.772	-11.22
831.943	-22.44
832.115	-2.46
832.287	39.28
832.459	43.54
832.631	63.24
832.803	81.12
832.975	98.93
833.146	54.14
833.318	49.57
833.49	46.91
833.662	23.08
833.833	1.92
834.005	15.64
834.177	24.28
834.348	7.45
834.52	-5.26
834.692	-0.15
834.863	-3.6
835.035	-14.89
835.206	-50.08
835.378	-36.86
835.549	-49.81
835.721	-33.65
835.892	-29.43
836.064	-11.01
836.235	6.35
836.407	65.55
836.578	42
836.749	60.97
836.921	14.18
837.092	-28.47
837.264	-46.35
837.435	-61.71
837.606	-22.72
837.777	14.78
837.949	34.6
838.12	27.45
838.291	51.2
838.462	37.26
838.633	9.45
838.805	2.74
838.976	12.28
839.147	-60.29
839.318	-60.22
839.489	-88.66
839.66	-75.12
839.831	-28.28
840.002	0.11
840.173	-3.1
840.344	59.29
840.515	74.83
840.686	-69.03
840.857	-56.52
841.028	-51.42
841.199	-60.87
841.369	-66.71
841.54	-34.74
841.711	3.06
841.882	21.93
842.053	-5.7
842.223	-20.67
842.394	-10.72
842.565	-27.74
842.736	-11.99
842.906	-4.62
843.077	17.88
843.248	40.88
843.418	45.44
843.589	40.29
843.759	117.38
843.93	93.58
844.101	28.84
844.271	22.86
844.442	29.79
844.612	41.89
844.783	15.19
844.953	-21.67
845.123	-17.55
845.294	-23.1
845.464	-244.1
845.635	-88.96
845.805	18.9
845.975	12.22
846.146	-26.55
846.316	-18.32
846.486	11.01
846.656	32.88
846.827	21.55
846.997	21.02
847.167	48.99
847.337	16.7
847.507	-24.6
847.677	4.02
847.848	54.21
848.018	37.82
848.188	42.67
848.358	10.96
848.528	-10.88
848.698	-56.59
848.868	-127.28
849.038	-231.67
849.208	-42.35
849.378	-7.16
849.548	-8.06
849.718	-15.57
849.887	1.4
850.057	-14.92
850.227	-51.8
850.397	-80.57
850.567	-127.06
850.737	-266.85
850.906	-920.94
851.076	-631.84
851.246	-241.23
851.415	3.49
851.585	3.08
851.755	-3.4
851.924	40.44
852.094	33.42
852.264	-44.86
852.433	-849.76
852.603	-181.62
852.772	-183.87
852.942	-84.17
853.111	-48.02
853.281	-15.31
853.45	31.83
853.62	-46.46
853.789	-44.83
853.959	-38.69
854.128	-45.37
854.297	-86.49
854.467	-85.94
854.636	-87.84
854.805	-2.76
854.975	-31.58
855.144	-52.26
855.313	179.2
855.482	-215.88
855.652	-252.02
855.821	-130.45
855.99	28.82
856.159	15.93
856.328	44.69
856.497	43
856.667	49.37
856.836	22.8
857.005	-8.87
857.174	-49.74
857.343	-104.8
857.512	-87.63
857.681	-86.18
857.85	-89.36
858.019	-61.15
858.188	-44.81
858.356	-41.2
858.525	-106.34
858.694	-94.12
858.863	-158.19
859.032	-102.03
859.201	-257.47
859.369	-161.93
859.538	-124.84
859.707	-103.65
859.876	-142.34
860.044	-102.18
860.213	-7.58
860.382	4.08
860.55	21.56
860.719	63.68
860.888	84.48
861.056	57.62
861.225	27.89
861.393	75.79
861.562	54.45
861.73	-57.18
861.899	-167.41
862.067	-2095.69
862.236	-106.34
862.404	-299.64
862.572	-165.95
862.741	-62.88
862.909	-46.24
863.078	-189.85
863.246	-87.35
863.414	-73.8
863.582	-22.79
863.751	-35.55
863.919	-31.64
864.087	-1.02
864.255	-27.83
864.424	-383.17
864.592	-48.55
864.76	-44.92
864.928	-78.2
865.096	-70.3
865.264	-49.8
865.432	-1428.98
865.6	-227.38
865.768	-201.76
865.936	-190.88
866.104	-192.82
866.272	-264.92
866.44	-495.57
866.608	708.56
866.776	346.25
866.944	3178.49
867.112	-535.91
867.28	-224.65
867.448	-84.08
867.615	-23.22
867.783	-12.43
867.951	-26.6
868.119	-4.55
868.286	-14.18
868.454	-80.63
868.622	-59.13
868.789	65.88
868.957	2580.36
869.125	-391.45
869.292	-12.22
869.46	-83.98
869.627	33.13
869.795	-7.45
869.963	15.88
870.13	26.08
870.298	34.73
870.465	-73.79
870.632	-64.8
870.8	-55.92
870.967	-101.82
871.135	-175.48
871.302	-142.81
871.469	-161.67
871.637	-151.16
871.804	-113.46
871.971	-147.97
872.139	-422.21
872.306	-56.54
872.473	-82.3
872.64	-308.48
872.807	-59.98
872.975	47.75
873.142	-79.18
873.309	718.24
873.476	149.11
873.643	178.11
873.81	96.56
873.977	102.96
874.144	75.81
874.311	-73.12
874.478	-109.62
874.645	-139.4
874.812	-70.45
874.979	-30.04
875.146	-37.43
875.313	-54.6
875.48	6.59
875.647	-15.65
875.813	-52.54
875.98	-31.72
876.147	-51.82
876.314	-79.4
876.481	936.16
876.647	-1242.42
876.814	471.89
876.981	-52.6
877.147	-80.85
877.314	-12.12
877.481	11.98
877.647	6.22
877.814	-19.27
877.98	-53.66
878.147	17.35
878.314	97.5
878.48	105.28
878.647	87.23
878.813	115.66
878.979	76.37
879.146	-2.57
879.312	4.66
879.479	-65.07
879.645	-165.05
879.811	-293.93
879.978	-592.18
880.144	-163.97
880.31	-77.96
880.477	-215.73
880.643	-298.5
880.809	-176.69
880.975	-146.28
881.142	-729.77
881.308	-76.51
881.474	1.17
881.64	37.52
881.806	-14.33
881.972	0.98
882.138	9.09
882.304	-3.96
882.47	-144.5
882.636	-724.39
882.802	-212.66
882.968	-0.27
883.134	1.34
883.3	4.52
883.466	41.7
883.632	65.99
883.798	6.14
883.964	-0.83
884.129	21.61
884.295	67.7
884.461	-14.52
884.627	-17.17
884.793	-59.19
884.958	-42.67
885.124	-163.3
885.29	-233.97
885.455	-417.35
885.621	-118.17
885.787	-144.67
885.952	-46.01
886.118	-45.12
886.283	-69.58
886.449	-190.47
886.614	-241.92
886.78	-507.21
886.945	1999.59
887.111	-843.79
887.276	-657.24
887.442	-934.32
887.607	-357.43
887.773	-289.09
887.938	-255.81
888.103	-284.75
888.269	-186.67
888.434	-414.46
888.599	-153.97
888.764	-18.51
888.93	6.3
889.095	-14.78
889.26	-45.58
889.425	21.54
889.59	75.23
889.756	25.4
889.921	21.71
890.086	58.76
890.251	-9.74
890.416	-237.24
890.581	-1996.37
890.746	374.55
890.911	624.04
891.076	213.49
891.241	-502.8
891.406	10.25
891.571	-13.21
891.736	-232
891.901	-442.26
892.065	460.16
892.23	150.79
892.395	280.38
892.56	427.1
892.725	-638.87
892.889	-1584.76
893.054	-235.25
893.219	-46.95
893.384	7.9
893.548	-48.28
893.713	-77.71
893.878	-39.14
