Data from Ofra_PS_T2_2A_1GT36_Reflection_2.txt Node
Date: Wed Jul 21 16:53:30 EDT 2021
User: Adam
Spectrometer: FLMT01687
Trigger mode: 0
Integration Time (sec): 1.100000E0
Scans to average: 2
Electric dark correction enabled: true
Nonlinearity correction enabled: false
Boxcar width: 2
XAxis mode: Wavelengths
Number of Pixels in Spectrum: 3648
>>>>>Begin Spectral Data<<<<<
179.494	365.8
179.716	378.12
179.937	405.9
180.158	403.56
180.38	778.28
180.601	441.02
180.823	197.25
181.044	44.19
181.265	86.21
181.486	31.43
181.708	22.92
181.929	6.63
182.15	-152.46
182.372	53.63
182.593	91.9
182.814	47.46
183.035	27.61
183.257	43.07
183.478	34.41
183.699	37.85
183.92	17.38
184.141	36.84
184.363	-13.76
184.584	-23.05
184.805	-20.97
185.026	19.72
185.247	35.91
185.468	22.52
185.689	12.46
185.91	29.04
186.132	6.04
186.353	-5.31
186.574	58.2
186.795	91.79
187.016	89.03
187.237	87.73
187.458	98.47
187.679	40.8
187.9	-11.86
188.121	-33.94
188.342	-47.47
188.563	15.23
188.784	29.2
189.005	23.05
189.226	66.16
189.447	36.86
189.667	-247.69
189.888	-320.81
190.109	-686.04
190.33	-364.03
190.551	-600.22
190.772	-41.46
190.993	-73.09
191.214	-34.77
191.434	1.33
191.655	1.44
191.876	-74.64
192.097	-69.8
192.318	-110.71
192.538	-241.13
192.759	-100.68
192.98	-15.01
193.201	11.6
193.421	24.88
193.642	37.04
193.863	27.37
194.083	19.88
194.304	17.86
194.525	12.8
194.745	-1.98
194.966	2.38
195.187	14.51
195.407	4.32
195.628	0.85
195.848	-13.85
196.069	1.67
196.29	-23.76
196.51	-15.71
196.731	-35.5
196.951	-10.63
197.172	-7.73
197.392	-25.97
197.613	-58.6
197.833	-56.51
198.054	-70.72
198.274	-30.91
198.495	-24.67
198.715	18.76
198.936	9.35
199.156	35.21
199.377	-12.17
199.597	-11.23
199.817	-51.47
200.038	-8.86
200.258	-48.11
200.479	-29.39
200.699	-26.02
200.919	25.87
201.14	-4.88
201.36	-34.21
201.58	16.13
201.801	27.42
202.021	6.25
202.241	5.2
202.461	17.14
202.682	-28.43
202.902	-55.09
203.122	-9.75
203.342	0.58
203.563	29.15
203.783	37.38
204.003	6.63
204.223	-0.35
204.443	28.71
204.663	-9.81
204.884	8.29
205.104	50.45
205.324	40.08
205.544	64.92
205.764	60.56
205.984	43.47
206.204	39.9
206.424	41.83
206.644	20.32
206.864	26.12
207.084	20.44
207.304	39.52
207.525	88.05
207.745	83.82
207.964	80.44
208.184	60.16
208.404	22.15
208.624	3.91
208.844	-11.82
209.064	-187.38
209.284	-190.48
209.504	-85.04
209.724	14.92
209.944	28.78
210.164	57.29
210.384	60.68
210.604	45.92
210.823	-13.61
211.043	-41.32
211.263	-28.39
211.483	-49.16
211.703	-60.84
211.922	-35.77
212.142	11.15
212.362	17.46
212.582	25.32
212.801	29.09
213.021	16.66
213.241	3.18
213.461	-20.93
213.68	-28.26
213.9	-51.98
214.12	-25.24
214.339	-46.6
214.559	-40.5
214.779	-17.36
214.998	4.02
215.218	-25.27
215.438	-9.05
215.657	0.81
215.877	-15.68
216.096	20.48
216.316	29.81
216.535	30.68
216.755	18.18
216.974	1.71
217.194	-69.38
217.413	-94.75
217.633	-100.17
217.852	-167.61
218.072	-63.48
218.291	-15.94
218.511	24.02
218.73	-7.45
218.95	-7.17
219.169	-12.94
219.389	-48.73
219.608	-38.97
219.827	-34.46
220.047	-4.39
220.266	-2.93
220.485	15.38
220.705	19.69
220.924	10.44
221.143	30.92
221.363	26.71
221.582	28.57
221.801	28.19
222.021	58.48
222.24	30.97
222.459	98.58
222.678	56.68
222.897	24.17
223.117	-23.04
223.336	-33.27
223.555	-21.2
223.774	19.21
223.993	23.01
224.213	75.55
224.432	54.88
224.651	41.85
224.87	17.91
225.089	28.01
225.308	11.73
225.527	27.49
225.746	26.57
225.965	28.92
226.184	3.17
226.404	16.41
226.623	-5.76
226.842	-7.62
227.061	9.08
227.28	13.54
227.499	-0.88
227.718	13.56
227.936	10.85
228.155	17.9
228.374	27.29
228.593	29.11
228.812	39.88
229.031	40.72
229.25	-5.89
229.469	-3.53
229.688	5.39
229.907	18.03
230.125	34.11
230.344	47.15
230.563	43.03
230.782	54.41
231.001	15.4
231.22	7.91
231.438	24.89
231.657	31.77
231.876	18.03
232.095	43.25
232.313	47.08
232.532	44.28
232.751	31.28
232.969	25.3
233.188	2.96
233.407	56.48
233.625	46.85
233.844	65.74
234.063	43.11
234.281	49.08
234.5	16.53
234.719	11.33
234.937	4.48
235.156	21.71
235.374	13.73
235.593	14.34
235.811	-0.98
236.03	-5.29
236.249	-40.07
236.467	-3.8
236.686	-0.01
236.904	18.62
237.123	13.25
237.341	17.57
237.559	11.48
237.778	12.34
237.996	10.16
238.215	34.74
238.433	33.28
238.652	25.89
238.87	8.96
239.088	15.76
239.307	15.26
239.525	8.76
239.743	6.49
239.962	28.94
240.18	-4.65
240.398	-57.76
240.617	-40.26
240.835	-15.2
241.053	-0.88
241.271	24.1
241.49	45.67
241.708	18.01
241.926	-31.23
242.144	-15.4
242.363	-48.78
242.581	-53.54
242.799	6.47
243.017	29.06
243.235	15.97
243.453	38.03
243.672	32.17
243.89	24.24
244.108	19.76
244.326	29.2
244.544	34.24
244.762	43.1
244.98	33.77
245.198	43.17
245.416	13.7
245.634	3.32
245.852	-15.14
246.07	0.87
246.288	3.34
246.506	9.36
246.724	24.2
246.942	14.87
247.16	39.97
247.378	43.79
247.596	55.02
247.814	54.65
248.032	35.13
248.25	18.69
248.468	11.5
248.685	24.43
248.903	32.58
249.121	44.76
249.339	28.42
249.557	11.35
249.775	-5.17
249.992	-44.76
250.21	-33.5
250.428	-28.09
250.646	-40.29
250.863	-42.12
251.081	-11.11
251.299	-21.97
251.517	-21.95
251.734	-7.81
251.952	4.68
252.17	3.99
252.387	22.74
252.605	22.43
252.823	25.76
253.04	21.85
253.258	26.16
253.475	2.43
253.693	19.83
253.911	46.37
254.128	75.77
254.346	64.09
254.563	49.92
254.781	26.25
254.998	-13.97
255.216	-55.57
255.433	-21.84
255.651	14.24
255.868	39.56
256.086	63.39
256.303	71.76
256.521	59.48
256.738	27.78
256.956	-7
257.173	-47.72
257.39	-65.37
257.608	-94.68
257.825	-31.86
258.043	24.22
258.26	62.5
258.477	89.33
258.695	88.54
258.912	53.48
259.129	29.93
259.346	-16.3
259.564	-54.45
259.781	-69.83
259.998	-21.89
260.216	6.64
260.433	36.53
260.65	43.03
260.867	56.16
261.084	42.48
261.302	13.86
261.519	24.6
261.736	-4.12
261.953	-30.67
262.17	-15.83
262.387	-36.32
262.604	-64.42
262.822	-58.06
263.039	-43.36
263.256	-66.13
263.473	-33.57
263.69	-14.87
263.907	10.95
264.124	26.11
264.341	20.64
264.558	26.79
264.775	28.81
264.992	36.39
265.209	33.11
265.426	55.65
265.643	54.01
265.86	69.92
266.077	61.78
266.294	44.51
266.51	-1.85
266.727	-7.03
266.944	-6.93
267.161	-20.07
267.378	-17.16
267.595	19.44
267.812	-9.92
268.028	-24.86
268.245	7.22
268.462	10.46
268.679	14.09
268.896	48.03
269.112	35.59
269.329	25.35
269.546	11.76
269.763	-7.49
269.979	-2.84
270.196	25.21
270.413	15.74
270.629	19.19
270.846	1.62
271.063	-6.78
271.279	-27.52
271.496	-27.39
271.712	0.39
271.929	24.26
272.146	10.63
272.362	-0.84
272.579	36.17
272.795	39.06
273.012	36.81
273.228	44.13
273.445	43.54
273.661	44.5
273.878	29.01
274.094	34.9
274.311	19.39
274.527	51.27
274.744	33.08
274.96	18.09
275.177	21.29
275.393	25.88
275.609	17.31
275.826	40.33
276.042	38.02
276.259	36.28
276.475	46.66
276.691	36.95
276.908	5.46
277.124	9.12
277.34	4.05
277.557	-15.64
277.773	-22.14
277.989	-11.32
278.205	-3.8
278.422	11.34
278.638	8.28
278.854	39.91
279.07	39.19
279.286	46.05
279.503	28.64
279.719	45.24
279.935	21.28
280.151	29.34
280.367	25.31
280.583	5.7
280.799	4.44
281.016	-18.23
281.232	-0.17
281.448	-4.61
281.664	32.48
281.88	18.73
282.096	45
282.312	61.43
282.528	76.15
282.744	57.5
282.96	48.67
283.176	30.66
283.392	16.85
283.608	24.27
283.824	16.32
284.04	36.34
284.256	47.85
284.471	47.61
284.687	32.08
284.903	56.27
285.119	43.5
285.335	26.19
285.551	20.87
285.767	24.95
285.982	23.08
286.198	12.64
286.414	65.68
286.63	59.75
286.846	56.62
287.061	40.83
287.277	58.18
287.493	24.24
287.709	30.71
287.924	36.9
288.14	63.69
288.356	47.28
288.571	62.34
288.787	44.88
289.003	29.87
289.218	3.54
289.434	-12.73
289.65	-10.87
289.865	1.82
290.081	28.15
290.296	34.99
290.512	59.86
290.727	30.41
290.943	23.14
291.159	5.64
291.374	11.54
291.59	-8.26
291.805	3.25
292.021	7.72
292.236	20.44
292.451	30.48
292.667	38.68
292.882	47.78
293.098	48.42
293.313	42.71
293.529	20.04
293.744	7.26
293.959	2.06
294.175	0.79
294.39	18.03
294.605	26.57
294.821	49.08
295.036	57.2
295.251	57.93
295.467	48.24
295.682	51.96
295.897	11
296.112	-5.09
296.328	-2.1
296.543	-20.04
296.758	-35.18
296.973	6.82
297.188	35.19
297.404	24.5
297.619	12.54
297.834	12.09
298.049	-23.83
298.264	-47.62
298.479	2.39
298.694	7.74
298.909	27.34
299.125	40.78
299.34	41.82
299.555	6.64
299.77	30.18
299.985	-8.22
300.2	-42.53
300.415	-54.76
300.63	-22.15
300.845	-36.1
301.06	-21.24
301.275	-0.73
301.49	27.9
301.704	19.12
301.919	8.91
302.134	-2.13
302.349	6.73
302.564	-50.89
302.779	-46.24
302.994	-8.5
303.209	22.88
303.423	8.6
303.638	37.27
303.853	1.53
304.068	4.99
304.283	-9.44
304.497	-6.13
304.712	-5.61
304.927	8.73
305.142	10.17
305.356	30.65
305.571	22.33
305.786	8.8
306	3.47
306.215	-1.57
306.43	-31.89
306.644	3.83
306.859	51.87
307.074	51.63
307.288	28.64
307.503	37.51
307.717	14.98
307.932	-1.79
308.147	-12.98
308.361	6.67
308.576	5.1
308.79	-15.24
309.005	2.22
309.219	22.04
309.434	10.99
309.648	21.32
309.863	23.74
310.077	7.03
310.292	-4.52
310.506	2.4
310.72	3.66
310.935	8.02
311.149	9.89
311.364	26.33
311.578	31.02
311.792	29.75
312.007	40.38
312.221	36.43
312.435	30.89
312.649	22.15
312.864	61.9
313.078	57.13
313.292	112.17
313.507	99.11
313.721	132.67
313.935	51.7
314.149	60.37
314.363	42.49
314.578	63.81
314.792	50.57
315.006	43.75
315.22	43.06
315.434	43.19
315.648	44.34
315.862	50.88
316.077	58.27
316.291	40.01
316.505	49.17
316.719	24.35
316.933	34.08
317.147	4.33
317.361	-22.03
317.575	-44.5
317.789	-61.99
318.003	-134.55
318.217	-85.22
318.431	-10.61
318.645	30.24
318.859	33.7
319.073	57.25
319.287	45.16
319.5	30.65
319.714	8
319.928	-4.12
320.142	-33.14
320.356	5.58
320.57	31.17
320.784	13.96
320.997	5.08
321.211	-1.55
321.425	-40.6
321.639	-74.63
321.853	-43.47
322.066	-27.65
322.28	-17.07
322.494	-13.4
322.707	-0.19
322.921	11.16
323.135	21.7
323.349	33.06
323.562	28.09
323.776	23.99
323.989	8.57
324.203	-3.39
324.417	-34.73
324.63	-58.51
324.844	-50.85
325.057	-36.86
325.271	-14.95
325.485	25.65
325.698	41.49
325.912	51.86
326.125	43.32
326.339	32.08
326.552	0.38
326.766	5.65
326.979	15.27
327.193	44.54
327.406	44.65
327.619	48.19
327.833	47.76
328.046	22.68
328.26	-12.13
328.473	-0.33
328.686	-19
328.9	-36.37
329.113	-15.83
329.326	-31.56
329.54	-22.46
329.753	-29.24
329.966	-16.85
330.179	-34.84
330.393	-2.75
330.606	-2.09
330.819	14.98
331.032	27.12
331.246	35.54
331.459	46.11
331.672	38.31
331.885	31.07
332.098	13.98
332.311	0.94
332.525	-39.64
332.738	-43.04
332.951	-22.91
333.164	11.22
333.377	30.48
333.59	40.51
333.803	46.95
334.016	42.04
334.229	33.21
334.442	24.47
334.655	44.03
334.868	42.93
335.081	25.67
335.294	24.86
335.507	16.21
335.72	14.84
335.933	1.35
336.146	9.69
336.359	-11.82
336.572	-31.34
336.785	-78.52
336.997	-45.9
337.21	-22.29
337.423	-13.09
337.636	-0.89
337.849	31.39
338.062	3.57
338.274	5.24
338.487	-1.71
338.7	-8.27
338.913	-32.71
339.125	-23.53
339.338	-69.95
339.551	-40.46
339.763	-9.01
339.976	-7.7
340.189	0.98
340.402	18.4
340.614	12.77
340.827	3.98
341.039	5.45
341.252	15.91
341.465	18.65
341.677	11.37
341.89	-19.95
342.102	-12
342.315	-35.93
342.527	-70.59
342.74	-49.64
342.952	-9.11
343.165	-2.04
343.377	12.86
343.59	8.07
343.802	11.38
344.015	-0.46
344.227	-10.48
344.44	-0.96
344.652	9.63
344.864	10.87
345.077	31.45
345.289	36.62
345.502	30.24
345.714	31.2
345.926	29.99
346.139	20.86
346.351	27.39
346.563	33.08
346.775	43.21
346.988	32.78
347.2	35.23
347.412	8.76
347.624	3.46
347.837	-25.26
348.049	-2.16
348.261	-4.12
348.473	-3.74
348.685	-10.62
348.897	-17.48
349.11	-32.57
349.322	-60.43
349.534	-34.45
349.746	-26.95
349.958	-9.36
350.17	-2.99
350.382	17.64
350.594	20.1
350.806	27.95
351.018	23.59
351.23	25.4
351.442	-4.15
351.654	-11.32
351.866	-21.5
352.078	-15.03
352.29	7.18
352.502	21.52
352.714	21.89
352.926	13.87
353.138	13.29
353.35	4.74
353.561	4.88
353.773	-2.26
353.985	15.34
354.197	13.46
354.409	4.19
354.621	2.44
354.832	7.87
355.044	-2.13
355.256	-6.22
355.468	8.46
355.679	6.69
355.891	16.06
356.103	16.53
356.314	31.62
356.526	23.91
356.738	38.09
356.949	12.96
357.161	9.94
357.373	2.08
357.584	10.32
357.796	12.15
358.008	12.88
358.219	26.22
358.431	19.81
358.642	11.21
358.854	4.92
359.065	7.9
359.277	-7.51
359.488	-13.09
359.7	-15.1
359.911	-20.93
360.123	-15.26
360.334	-33.69
360.546	-42.76
360.757	-38.57
360.969	-33.18
361.18	-14.47
361.391	18.3
361.603	19.03
361.814	29.18
362.025	31.05
362.237	12.43
362.448	21.37
362.659	36.36
362.871	31.14
363.082	18.23
363.293	20.05
363.504	7.82
363.716	-21.81
363.927	-39.58
364.138	-47.96
364.349	-54.46
364.56	-51.15
364.772	-30.16
364.983	-3.34
365.194	5.05
365.405	14.14
365.616	21.75
365.827	26.14
366.038	5.15
366.25	7.8
366.461	-10.64
366.672	-0.53
366.883	-1.21
367.094	7.89
367.305	7.85
367.516	21.64
367.727	7.38
367.938	12.12
368.149	20.03
368.36	20.74
368.571	21.82
368.781	9.27
368.992	-1.72
369.203	-19.48
369.414	-37.87
369.625	-48.61
369.836	-32.61
370.047	-40.04
370.258	-15.42
370.468	-11.63
370.679	-20.14
370.89	-8.52
371.101	6.13
371.312	-4.96
371.522	0.14
371.733	0.54
371.944	4.14
372.155	1.06
372.365	-4.41
372.576	6.83
372.787	18.35
372.997	11.43
373.208	15.79
373.419	40.01
373.629	8.32
373.84	-2.74
374.05	-11.55
374.261	-13.03
374.472	-30.01
374.682	10.07
374.893	9.12
375.103	36.22
375.314	25.86
375.524	20.15
375.735	9.55
375.945	12.48
376.156	-4.42
376.366	3.89
376.577	9.47
376.787	15.79
376.997	15.72
377.208	10.39
377.418	2.13
377.629	6.49
377.839	4.42
378.049	9.76
378.26	18.96
378.47	24.91
378.68	18.4
378.89	20.06
379.101	20.5
379.311	0.96
379.521	-15.35
379.732	-13.43
379.942	-18.73
380.152	-39.16
380.362	-8.74
380.572	3.33
380.783	16.28
380.993	26.22
381.203	36.66
381.413	37.55
381.623	36.16
381.833	38.67
382.043	24.22
382.253	18.25
382.463	15.97
382.674	0.69
382.884	-23.7
383.094	-14.82
383.304	-3.97
383.514	1.89
383.724	23.39
383.934	27.05
384.144	14.12
384.353	6.27
384.563	6.66
384.773	6.6
384.983	1.79
385.193	18.48
385.403	19.58
385.613	17.75
385.823	3.53
386.033	7.53
386.242	3.66
386.452	2.06
386.662	-9.1
386.872	5.46
387.082	2.14
387.291	-7.88
387.501	-6.77
387.711	0.73
387.921	-10.23
388.13	-5.73
388.34	7.27
388.55	5.2
388.759	2.46
388.969	6.42
389.179	1.73
389.388	-0.97
389.598	3.15
389.807	2.07
390.017	-0.32
390.227	2.67
390.436	-0.4
390.646	-2.14
390.855	-1.67
391.065	-3.53
391.274	-4.77
391.484	-3.33
391.693	-0.59
391.903	0.31
392.112	7.54
392.322	8.62
392.531	10.38
392.74	8.49
392.95	5.97
393.159	1.65
393.369	0.72
393.578	-0.87
393.787	-0.61
393.997	0.97
394.206	-0.34
394.415	-0.48
394.625	-0.65
394.834	-1.29
395.043	-0.61
395.252	3
395.462	4.98
395.671	4.85
395.88	5.5
396.089	5.99
396.298	3.38
396.508	2.27
396.717	2.34
396.926	3.07
397.135	2.14
397.344	2.73
397.553	4.17
397.762	5.35
397.971	4.86
398.181	5.86
398.39	5.21
398.599	4.33
398.808	4.28
399.017	4.84
399.226	4.77
399.435	5.83
399.644	6.29
399.853	5.39
400.062	4.89
400.27	4.43
400.479	3.92
400.688	3.05
400.897	3.26
401.106	3.08
401.315	3
401.524	3.12
401.733	3.4
401.941	3.6
402.15	3.7
402.359	3.69
402.568	3.92
402.777	4.14
402.985	3.96
403.194	3.98
403.403	4.2
403.612	3.84
403.82	3.69
404.029	3.88
404.238	3.63
404.446	3.7
404.655	3.48
404.864	3.38
405.072	3.22
405.281	3.39
405.489	3.21
405.698	3.38
405.906	3.38
406.115	3.3
406.324	3.25
406.532	3.31
406.741	3.4
406.949	3.42
407.158	3.49
407.366	3.67
407.574	3.58
407.783	3.56
407.991	3.48
408.2	3.54
408.408	3.4
408.617	3.41
408.825	3.35
409.033	3.42
409.242	3.41
409.45	3.55
409.658	3.53
409.867	3.59
410.075	3.52
410.283	3.41
410.491	3.23
410.7	3.17
410.908	3.12
411.116	3.22
411.324	3.18
411.533	3.13
411.741	3.3
411.949	3.25
412.157	3.11
412.365	3.14
412.573	3.15
412.781	3.24
412.99	3.26
413.198	3.31
413.406	3.29
413.614	3.28
413.822	3.03
414.03	2.96
414.238	2.92
414.446	2.98
414.654	2.89
414.862	3.01
415.07	3.09
415.278	3.21
415.486	3.05
415.694	3.21
415.902	3.05
416.109	2.98
416.317	2.97
416.525	3
416.733	2.77
416.941	2.93
417.149	2.98
417.357	2.97
417.564	3.09
417.772	3.41
417.98	3.2
418.188	3.13
418.395	3.09
418.603	3.19
418.811	2.94
419.019	3.08
419.226	3.1
419.434	3.17
419.642	2.94
419.849	2.94
420.057	2.87
420.265	2.95
420.472	2.8
420.68	2.84
420.887	2.97
421.095	3.03
421.302	3.02
421.51	3.2
421.717	3.25
421.925	3.23
422.132	3.06
422.34	2.81
422.547	2.83
422.755	2.7
422.962	2.61
423.17	2.69
423.377	2.73
423.585	2.5
423.792	2.46
423.999	2.51
424.207	2.48
424.414	2.57
424.621	2.56
424.829	2.64
425.036	2.64
425.243	2.82
425.451	2.74
425.658	2.65
425.865	2.73
426.072	2.79
426.28	2.81
426.487	2.82
426.694	2.93
426.901	2.82
427.108	2.83
427.315	2.78
427.523	3
427.73	3.02
427.937	2.95
428.144	2.77
428.351	2.7
428.558	2.75
428.765	2.63
428.972	2.7
429.179	2.78
429.386	2.97
429.593	2.76
429.8	2.73
430.007	2.78
430.214	2.96
430.421	2.72
430.628	2.69
430.835	2.81
431.042	2.84
431.249	2.84
431.456	2.83
431.662	2.94
431.869	3.13
432.076	3.19
432.283	3.18
432.49	3.19
432.697	3.18
432.903	2.86
433.11	2.84
433.317	2.93
433.524	3.23
433.73	3.22
433.937	3.59
434.144	3.53
434.35	3.45
434.557	3.14
434.764	3.11
434.97	2.94
435.177	3.06
435.384	2.99
435.59	3.13
435.797	3.29
436.003	3.32
436.21	3.27
436.416	3.4
436.623	3.38
436.829	3.47
437.036	3.56
437.242	3.62
437.449	3.58
437.655	3.6
437.862	3.53
438.068	3.47
438.275	3.64
438.481	3.91
438.687	3.94
438.894	3.98
439.1	3.99
439.307	3.95
439.513	3.72
439.719	3.69
439.926	3.77
440.132	3.86
440.338	3.78
440.544	3.87
440.751	3.87
440.957	3.84
441.163	3.77
441.369	3.82
441.575	3.74
441.782	3.75
441.988	3.68
442.194	3.69
442.4	3.68
442.606	3.96
442.812	4.09
443.018	4.2
443.224	4.21
443.431	4.26
443.637	4.02
443.843	3.91
444.049	3.89
444.255	3.85
444.461	3.9
444.667	3.89
444.873	4.05
445.079	4.18
445.284	4.32
445.49	4.2
445.696	4.15
445.902	4.01
446.108	3.85
446.314	3.82
446.52	3.85
446.726	4.12
446.931	4.19
447.137	4.3
447.343	4.25
447.549	4.24
447.755	4.07
447.96	4.16
448.166	4.12
448.372	4.1
448.578	4.23
448.783	4.23
448.989	4.21
449.195	4.34
449.4	4.38
449.606	4.3
449.812	4.31
450.017	4.33
450.223	4.21
450.428	4.21
450.634	4.25
450.84	4.34
451.045	4.32
451.251	4.3
451.456	4.52
451.662	4.5
451.867	4.6
452.073	4.57
452.278	4.62
452.483	4.51
452.689	4.55
452.894	4.46
453.1	4.4
453.305	4.4
453.51	4.44
453.716	4.39
453.921	4.4
454.127	4.43
454.332	4.33
454.537	4.28
454.742	4.27
454.948	4.28
455.153	4.4
455.358	4.54
455.563	4.64
455.769	4.7
455.974	4.67
456.179	4.57
456.384	4.55
456.589	4.49
456.795	4.46
457	4.45
457.205	4.63
457.41	4.59
457.615	4.54
457.82	4.57
458.025	4.64
458.23	4.47
458.435	4.5
458.64	4.42
458.845	4.51
459.05	4.45
459.255	4.48
459.46	4.45
459.665	4.5
459.87	4.45
460.075	4.45
460.28	4.49
460.485	4.59
460.69	4.69
460.895	4.6
461.099	4.58
461.304	4.65
461.509	4.63
461.714	4.51
461.919	4.71
462.123	4.62
462.328	4.63
462.533	4.65
462.738	4.76
462.942	4.62
463.147	4.78
463.352	4.7
463.556	4.6
463.761	4.57
463.966	4.64
464.17	4.58
464.375	4.6
464.58	4.68
464.784	4.7
464.989	4.69
465.193	4.73
465.398	4.85
465.602	4.93
465.807	4.79
466.011	4.8
466.216	4.87
466.42	4.84
466.625	4.94
466.829	5.17
467.034	5.2
467.238	5.26
467.443	5.26
467.647	5.13
467.851	5.14
468.056	5.18
468.26	5.16
468.464	5.22
468.669	5.36
468.873	5.51
469.077	5.52
469.282	5.55
469.486	5.5
469.69	5.41
469.894	5.25
470.099	5.36
470.303	5.38
470.507	5.32
470.711	5.26
470.915	5.32
471.119	5.18
471.324	5.19
471.528	5.29
471.732	5.39
471.936	5.35
472.14	5.46
472.344	5.56
472.548	5.64
472.752	5.79
472.956	5.93
473.16	5.94
473.364	5.82
473.568	5.81
473.772	5.79
473.976	5.8
474.18	5.79
474.384	5.8
474.588	5.8
474.792	5.75
474.995	5.73
475.199	5.83
475.403	5.89
475.607	5.89
475.811	5.86
476.015	5.91
476.218	5.9
476.422	5.89
476.626	5.97
476.83	6.05
477.033	5.99
477.237	5.88
477.441	5.96
477.644	5.96
477.848	5.98
478.052	5.94
478.255	6.08
478.459	6.03
478.663	6.17
478.866	6.14
479.07	6.22
479.273	6.24
479.477	6.31
479.681	6.2
479.884	6.29
480.088	6.31
480.291	6.34
480.495	6.31
480.698	6.32
480.901	6.33
481.105	6.45
481.308	6.45
481.512	6.49
481.715	6.57
481.919	6.56
482.122	6.51
482.325	6.54
482.529	6.54
482.732	6.51
482.935	6.51
483.138	6.44
483.342	6.45
483.545	6.46
483.748	6.54
483.952	6.59
484.155	6.71
484.358	6.79
484.561	6.88
484.764	6.82
484.967	6.91
485.171	6.99
485.374	6.89
485.577	6.97
485.78	7.04
485.983	6.99
486.186	6.92
486.389	6.99
486.592	6.93
486.795	6.96
486.998	6.98
487.201	7.02
487.404	7.08
487.607	7.17
487.81	7.2
488.013	7.25
488.216	7.26
488.419	7.21
488.622	7.2
488.825	7.16
489.028	7.11
489.231	7.11
489.433	7.18
489.636	7.1
489.839	7.19
490.042	7.23
490.245	7.29
490.447	7.35
490.65	7.53
490.853	7.56
491.056	7.69
491.258	7.85
491.461	7.92
491.664	7.97
491.866	7.99
492.069	8.06
492.272	7.97
492.474	8.05
492.677	8.13
492.879	8.25
493.082	8.35
493.285	8.54
493.487	8.54
493.69	8.58
493.892	8.64
494.095	8.69
494.297	8.75
494.5	8.88
494.702	8.94
494.905	9.05
495.107	9.08
495.309	9.18
495.512	9.3
495.714	9.4
495.917	9.52
496.119	9.67
496.321	9.76
496.524	9.92
496.726	10.03
496.928	10.09
497.13	10.13
497.333	10.22
497.535	10.26
497.737	10.33
497.939	10.5
498.142	10.6
498.344	10.69
498.546	10.69
498.748	10.85
498.95	10.92
499.152	11
499.355	11.12
499.557	11.29
499.759	11.36
499.961	11.33
500.163	11.42
500.365	11.46
500.567	11.55
500.769	11.55
500.971	11.63
501.173	11.64
501.375	11.7
501.577	11.68
501.779	11.72
501.981	11.83
502.183	11.84
502.385	11.82
502.587	11.83
502.788	11.87
502.99	11.87
503.192	12.01
503.394	12.01
503.596	12.03
503.798	12.1
503.999	12.12
504.201	12.06
504.403	12.17
504.605	12.13
504.806	12.13
505.008	12.15
505.21	12.19
505.411	12.07
505.613	12.18
505.815	12.08
506.016	12.05
506.218	12.08
506.42	12.18
506.621	12.15
506.823	12.27
507.024	12.2
507.226	12.22
507.427	12.14
507.629	12.17
507.83	12.17
508.032	12.18
508.233	12.15
508.435	12.24
508.636	12.22
508.838	12.13
509.039	12.19
509.24	12.15
509.442	12.09
509.643	11.95
509.845	11.95
510.046	11.93
510.247	11.95
510.448	11.91
510.65	12.03
510.851	12.1
511.052	12.08
511.254	12.07
511.455	12.09
511.656	12.12
511.857	12.12
512.058	12.1
512.26	12.12
512.461	12.05
512.662	12.03
512.863	11.94
513.064	11.97
513.265	11.94
513.466	12.06
513.667	12.04
513.868	12.08
514.069	12.13
514.27	12.15
514.471	12.1
514.672	12.07
514.873	12.01
515.074	11.96
515.275	11.91
515.476	11.88
515.677	11.95
515.878	12.09
516.079	12.05
516.28	12.06
516.481	12.09
516.682	12.1
516.882	12.01
517.083	12.01
517.284	12.03
517.485	12.08
517.686	12.01
517.886	11.98
518.087	12.03
518.288	12.05
518.488	12.06
518.689	12.08
518.89	12.07
519.091	12.11
519.291	12.11
519.492	12.14
519.692	12.14
519.893	12.25
520.094	12.19
520.294	12.17
520.495	12.15
520.695	12.21
520.896	12.21
521.096	12.3
521.297	12.34
521.497	12.29
521.698	12.24
521.898	12.18
522.099	12.18
522.299	12.23
522.499	12.23
522.7	12.29
522.9	12.31
523.101	12.32
523.301	12.31
523.501	12.39
523.702	12.42
523.902	12.47
524.102	12.5
524.302	12.5
524.503	12.58
524.703	12.54
524.903	12.6
525.103	12.54
525.304	12.6
525.504	12.59
525.704	12.66
525.904	12.6
526.104	12.63
526.304	12.61
526.504	12.58
526.705	12.59
526.905	12.74
527.105	12.73
527.305	12.77
527.505	12.76
527.705	12.77
527.905	12.68
528.105	12.71
528.305	12.67
528.505	12.72
528.705	12.8
528.905	12.87
529.105	12.91
529.304	12.96
529.504	13.07
529.704	13.03
529.904	13.04
530.104	13.11
530.304	13.13
530.503	13.06
530.703	13.03
530.903	13.1
531.103	13.1
531.303	13.14
531.502	13.2
531.702	13.28
531.902	13.25
532.101	13.26
532.301	13.36
532.501	13.38
532.7	13.34
532.9	13.42
533.1	13.41
533.299	13.44
533.499	13.46
533.698	13.52
533.898	13.5
534.097	13.54
534.297	13.54
534.496	13.53
534.696	13.58
534.895	13.64
535.095	13.72
535.294	13.75
535.494	13.79
535.693	13.8
535.892	13.85
536.092	13.8
536.291	13.75
536.491	13.81
536.69	13.93
536.889	13.93
537.088	13.93
537.288	14.04
537.487	14.12
537.686	14.09
537.886	14.14
538.085	14.26
538.284	14.33
538.483	14.27
538.682	14.34
538.882	14.38
539.081	14.4
539.28	14.42
539.479	14.45
539.678	14.43
539.877	14.47
540.076	14.53
540.275	14.49
540.474	14.6
540.673	14.62
540.872	14.61
541.071	14.62
541.27	14.69
541.469	14.74
541.668	14.81
541.867	14.92
542.066	14.99
542.265	15.07
542.464	15.05
542.663	15.08
542.862	15.12
543.06	15.13
543.259	15.17
543.458	15.27
543.657	15.34
543.856	15.41
544.054	15.39
544.253	15.4
544.452	15.46
544.651	15.53
544.849	15.51
545.048	15.63
545.247	15.67
545.445	15.66
545.644	15.7
545.843	15.74
546.041	15.75
546.24	15.86
546.438	16.01
546.637	16.04
546.836	16.17
547.034	16.23
547.233	16.25
547.431	16.19
547.63	16.23
547.828	16.22
548.027	16.29
548.225	16.34
548.423	16.44
548.622	16.55
548.82	16.57
549.019	16.61
549.217	16.64
549.415	16.65
549.614	16.69
549.812	16.74
550.01	16.8
550.209	16.98
550.407	17.11
550.605	17.19
550.803	17.34
551.002	17.47
551.2	17.42
551.398	17.5
551.596	17.56
551.794	17.62
551.993	17.69
552.191	17.79
552.389	17.89
552.587	17.93
552.785	17.97
552.983	17.99
553.181	18.12
553.379	18.09
553.577	18.19
553.775	18.31
553.973	18.46
554.171	18.48
554.369	18.6
554.567	18.64
554.765	18.67
554.963	18.71
555.161	18.73
555.359	18.79
555.557	18.99
555.755	19.12
555.952	19.2
556.15	19.37
556.348	19.45
556.546	19.49
556.744	19.51
556.941	19.52
557.139	19.61
557.337	19.68
557.535	19.73
557.732	19.83
557.93	20
558.128	20.02
558.325	20.16
558.523	20.21
558.721	20.29
558.918	20.36
559.116	20.54
559.313	20.57
559.511	20.74
559.708	20.81
559.906	20.88
560.104	20.98
560.301	21.05
560.498	21.12
560.696	21.21
560.893	21.32
561.091	21.29
561.288	21.39
561.486	21.42
561.683	21.57
561.88	21.64
562.078	21.82
562.275	21.93
562.473	22.1
562.67	22.19
562.867	22.23
563.064	22.3
563.262	22.38
563.459	22.45
563.656	22.52
563.853	22.75
564.051	22.89
564.248	23.03
564.445	23.18
564.642	23.28
564.839	23.37
565.036	23.54
565.234	23.72
565.431	23.81
565.628	23.85
565.825	23.9
566.022	23.9
566.219	23.92
566.416	23.97
566.613	24.15
566.81	24.32
567.007	24.38
567.204	24.43
567.401	24.56
567.598	24.62
567.795	24.64
567.991	24.72
568.188	24.88
568.385	24.97
568.582	25.04
568.779	25.17
568.976	25.31
569.172	25.48
569.369	25.52
569.566	25.59
569.763	25.7
569.96	25.73
570.156	25.6
570.353	25.62
570.55	25.78
570.746	25.77
570.943	25.91
571.14	26.03
571.336	26.15
571.533	26.21
571.729	26.26
571.926	26.36
572.123	26.49
572.319	26.54
572.516	26.52
572.712	26.6
572.909	26.63
573.105	26.68
573.302	26.82
573.498	27.01
573.695	27.07
573.891	27.06
574.087	27.04
574.284	27.02
574.48	26.96
574.677	27.03
574.873	27.11
575.069	27.33
575.266	27.51
575.462	27.6
575.658	27.76
575.854	27.99
576.051	28.04
576.247	28.01
576.443	28.06
576.639	28.02
576.835	27.96
577.032	27.98
577.228	28.05
577.424	28.13
577.62	28.11
577.816	28.2
578.012	28.28
578.208	28.36
578.404	28.47
578.6	28.47
578.796	28.46
578.993	28.49
579.189	28.44
579.384	28.33
579.58	28.46
579.776	28.48
579.972	28.48
580.168	28.49
580.364	28.61
580.56	28.63
580.756	28.69
580.952	28.63
581.148	28.71
581.343	28.77
581.539	28.82
581.735	28.86
581.931	28.88
582.127	28.93
582.322	28.85
582.518	28.89
582.714	28.87
582.909	29.07
583.105	29.08
583.301	29.05
583.496	29.07
583.692	29.1
583.888	29
584.083	28.98
584.279	29.15
584.474	29.15
584.67	29.24
584.866	29.27
585.061	29.28
585.257	29.34
585.452	29.37
585.648	29.36
585.843	29.38
586.039	29.37
586.234	29.33
586.429	29.33
586.625	29.34
586.82	29.36
587.015	29.54
587.211	29.47
587.406	29.59
587.601	29.55
587.797	29.61
587.992	29.49
588.187	29.64
588.383	29.62
588.578	29.71
588.773	29.78
588.968	29.9
589.163	29.94
589.359	29.92
589.554	29.92
589.749	29.91
589.944	29.96
590.139	29.94
590.334	29.99
590.529	30.03
590.724	30.07
590.919	30.18
591.114	30.18
591.309	30.29
591.504	30.37
591.699	30.35
591.894	30.37
592.089	30.44
592.284	30.35
592.479	30.41
592.674	30.49
592.869	30.52
593.064	30.64
593.259	30.78
593.454	30.91
593.648	31.05
593.843	31.1
594.038	31.14
594.233	31.16
594.428	31.09
594.622	31.13
594.817	31.2
595.012	31.26
595.206	31.37
595.401	31.51
595.596	31.49
595.79	31.58
595.985	31.69
596.18	31.75
596.374	31.84
596.569	32.02
596.763	32
596.958	32.1
597.153	32.17
597.347	32.2
597.542	32.25
597.736	32.35
597.931	32.35
598.125	32.37
598.319	32.52
598.514	32.5
598.708	32.69
598.903	32.68
599.097	32.85
599.291	32.93
599.486	32.97
599.68	32.88
599.874	32.94
600.069	32.97
600.263	32.87
600.457	32.99
600.651	33.11
600.846	33.2
601.04	33.21
601.234	33.28
601.428	33.37
601.622	33.36
601.817	33.35
602.011	33.41
602.205	33.52
602.399	33.48
602.593	33.58
602.787	33.58
602.981	33.59
603.175	33.51
603.369	33.43
603.563	33.4
603.757	33.49
603.951	33.52
604.145	33.51
604.339	33.6
604.533	33.56
604.727	33.56
604.921	33.52
605.115	33.55
605.309	33.53
605.502	33.54
605.696	33.57
605.89	33.44
606.084	33.4
606.278	33.4
606.471	33.23
606.665	33.13
606.859	33.15
607.053	33.16
607.246	33.1
607.44	33.11
607.634	33.04
607.827	32.94
608.021	32.76
608.214	32.66
608.408	32.63
608.602	32.58
608.795	32.68
608.989	32.65
609.182	32.56
609.376	32.53
609.569	32.49
609.763	32.34
609.956	32.21
610.15	32.27
610.343	32.23
610.537	32.09
610.73	32.05
610.923	32.09
611.117	31.98
611.31	31.88
611.504	31.71
611.697	31.55
611.89	31.51
612.083	31.48
612.277	31.39
612.47	31.46
612.663	31.48
612.856	31.46
613.05	31.33
613.243	31.25
613.436	31.12
613.629	30.98
613.822	30.81
614.015	30.82
614.209	30.8
614.402	30.87
614.595	30.88
614.788	30.79
614.981	30.65
615.174	30.53
615.367	30.36
615.56	30.26
615.753	30.3
615.946	30.27
616.139	30.34
616.332	30.42
616.525	30.38
616.718	30.35
616.911	30.34
617.103	30.22
617.296	30.09
617.489	29.98
617.682	29.84
617.875	29.72
618.067	29.67
618.26	29.64
618.453	29.63
618.646	29.63
618.838	29.61
619.031	29.66
619.224	29.67
619.417	29.65
619.609	29.64
619.802	29.68
619.994	29.56
620.187	29.45
620.38	29.37
620.572	29.33
620.765	29.34
620.957	29.32
621.15	29.35
621.342	29.48
621.535	29.43
621.727	29.37
621.92	29.3
622.112	29.24
622.305	29.17
622.497	29.13
622.69	29.07
622.882	29.08
623.074	29.1
623.267	29.05
623.459	28.95
623.651	28.95
623.844	29.04
624.036	29.05
624.228	29.03
624.42	29.14
624.613	29.2
624.805	29.15
624.997	29.09
625.189	29.1
625.381	29.06
625.574	28.91
625.766	28.76
625.958	28.77
626.15	28.83
626.342	28.89
626.534	28.99
626.726	29.09
626.918	29.03
627.11	28.9
627.302	28.91
627.494	28.84
627.686	28.9
627.878	28.77
628.07	28.74
628.262	28.67
628.454	28.63
628.646	28.6
628.838	28.72
629.029	28.64
629.221	28.62
629.413	28.61
629.605	28.47
629.797	28.39
629.989	28.47
630.18	28.41
630.372	28.33
630.564	28.23
630.755	28.22
630.947	28.17
631.139	28.06
631.33	28
631.522	28.17
631.714	28.2
631.905	28.27
632.097	28.36
632.289	28.35
632.48	28.28
632.672	28.19
632.863	28.02
633.055	27.95
633.246	27.94
633.438	27.81
633.629	27.85
633.821	27.89
634.012	27.76
634.203	27.65
634.395	27.71
634.586	27.77
634.777	27.76
634.969	27.92
635.16	28.09
635.351	28.09
635.543	28.04
635.734	28.06
635.925	28.01
636.117	27.99
636.308	28.02
636.499	27.92
636.69	27.86
636.881	27.82
637.073	27.83
637.264	27.72
637.455	27.84
637.646	27.96
637.837	27.99
638.028	27.96
638.219	28.12
638.41	28.06
638.601	27.95
638.792	28.05
638.983	28.06
639.174	27.94
639.365	27.97
639.556	28.01
639.747	27.92
639.938	28.02
640.129	27.99
640.32	27.9
640.511	27.89
640.701	27.9
640.892	27.74
641.083	27.88
641.274	27.95
641.465	27.9
641.655	27.78
641.846	27.79
642.037	27.69
642.228	27.64
642.418	27.63
642.609	27.78
642.8	27.79
642.99	27.68
643.181	27.67
643.372	27.69
643.562	27.6
643.753	27.57
643.943	27.61
644.134	27.6
644.324	27.61
644.515	27.68
644.705	27.65
644.896	27.7
645.086	27.66
645.277	27.51
645.467	27.48
645.658	27.41
645.848	27.36
646.038	27.33
646.229	27.31
646.419	27.14
646.61	27.18
646.8	27.14
646.99	27.08
647.18	27.03
647.371	27.07
647.561	27.06
647.751	26.99
647.941	26.95
648.132	27.01
648.322	26.99
648.512	26.94
648.702	26.9
648.892	26.96
649.082	26.96
649.272	26.83
649.462	26.72
649.653	26.69
649.843	26.56
650.033	26.49
650.223	26.51
650.413	26.44
650.603	26.43
650.793	26.4
650.983	26.29
651.172	26.14
651.362	26.1
651.552	25.97
651.742	25.94
651.932	25.97
652.122	25.97
652.312	26.03
652.502	25.98
652.691	25.9
652.881	25.75
653.071	25.69
653.261	25.55
653.45	25.34
653.64	25.24
653.83	25.05
654.019	24.89
654.209	24.76
654.399	24.7
654.588	24.55
654.778	24.45
654.968	24.34
655.157	24.07
655.347	23.95
655.536	23.83
655.726	23.67
655.915	23.47
656.105	23.35
656.294	23.14
656.484	22.9
656.673	22.66
656.863	22.58
657.052	22.47
657.241	22.31
657.431	22.04
657.62	21.94
657.809	21.57
657.999	21.3
658.188	21.02
658.377	20.83
658.567	20.6
658.756	20.43
658.945	20.25
659.134	20.12
659.324	19.99
659.513	19.83
659.702	19.54
659.891	19.35
660.08	19.06
660.269	18.83
660.458	18.5
660.648	18.42
660.837	18.25
661.026	18.1
661.215	17.91
661.404	17.72
661.593	17.52
661.782	17.16
661.971	17.1
662.16	16.77
662.349	16.63
662.538	16.38
662.726	16.28
662.915	15.92
663.104	15.81
663.293	15.59
663.482	15.52
663.671	15.34
663.86	15.21
664.048	15.11
664.237	14.99
664.426	14.79
664.615	14.74
664.803	14.56
664.992	14.29
665.181	14.09
665.369	13.9
665.558	13.7
665.747	13.65
665.935	13.72
666.124	13.75
666.312	13.66
666.501	13.51
666.69	13.25
666.878	13.07
667.067	12.8
667.255	12.85
667.444	12.92
667.632	12.92
667.82	12.8
668.009	12.83
668.197	12.66
668.386	12.47
668.574	12.43
668.762	12.38
668.951	12.23
669.139	12.09
669.327	11.97
669.516	12.04
669.704	12.03
669.892	12.09
670.08	12.23
670.269	12.14
670.457	11.97
670.645	11.76
670.833	11.74
671.021	11.67
671.21	11.75
671.398	11.87
671.586	11.97
671.774	11.82
671.962	11.72
672.15	11.69
672.338	11.49
672.526	11.49
672.714	11.55
672.902	11.63
673.09	11.7
673.278	11.98
673.466	11.99
673.654	12.15
673.842	12.14
674.03	12.18
674.218	12.06
674.405	12.11
674.593	11.9
674.781	11.86
674.969	11.86
675.157	12.05
675.344	12.11
675.532	12.28
675.72	12.44
675.908	12.53
676.095	12.49
676.283	12.54
676.471	12.7
676.658	12.75
676.846	12.77
677.033	12.79
677.221	12.95
677.409	12.88
677.596	12.97
677.784	13.04
677.971	13.21
678.159	13.26
678.346	13.31
678.534	13.43
678.721	13.69
678.909	13.63
679.096	13.8
679.283	13.94
679.471	14.11
679.658	14.14
679.846	14.5
680.033	14.7
680.22	14.85
680.408	14.98
680.595	15.04
680.782	15.05
680.969	15.17
681.157	15.49
681.344	15.5
681.531	15.75
681.718	15.93
681.905	16.02
682.093	16.14
682.28	16.48
682.467	16.8
682.654	17.03
682.841	17.26
683.028	17.4
683.215	17.61
683.402	17.74
683.589	17.98
683.776	18.32
683.963	18.6
684.15	18.8
684.337	19.19
684.524	19.59
684.711	19.96
684.898	20.33
685.085	20.79
685.271	21.18
685.458	21.37
685.645	21.66
685.832	22.18
686.019	22.56
686.205	22.78
686.392	23.22
686.579	23.6
686.766	23.86
686.952	24.29
687.139	24.78
687.326	25.21
687.512	25.78
687.699	26.39
687.886	26.79
688.072	27.25
688.259	27.75
688.445	28.24
688.632	28.46
688.818	29.09
689.005	29.72
689.191	30.24
689.378	30.66
689.564	31.39
689.751	31.92
689.937	32.39
690.124	32.96
690.31	33.58
690.496	34.02
690.683	34.64
690.869	35.05
691.055	35.65
691.242	36.42
691.428	37.25
691.614	37.83
691.8	38.75
691.987	39.37
692.173	39.84
692.359	40.34
692.545	41.08
692.731	41.55
692.918	42.21
693.104	43.01
693.29	43.61
693.476	44.18
693.662	44.9
693.848	45.51
694.034	46
694.22	46.67
694.406	47.32
694.592	47.93
694.778	48.61
694.964	48.91
695.15	49.42
695.336	49.9
695.522	50.66
695.708	50.9
695.894	51.76
696.08	52.64
696.265	53.26
696.451	53.97
696.637	54.7
696.823	55.17
697.009	55.43
697.194	55.75
697.38	55.88
697.566	56.3
697.751	57.01
697.937	57.84
698.123	58.55
698.308	59.06
698.494	59.75
698.68	60.04
698.865	60.38
699.051	60.9
699.236	61.45
699.422	61.8
699.607	62.24
699.793	62.73
699.978	62.99
700.164	63.42
700.349	63.89
700.535	64.25
700.72	64.31
700.906	64.94
701.091	65.11
701.276	65.38
701.462	66.14
701.647	66.97
701.832	67.09
702.018	67.42
702.203	67.62
702.388	67.47
702.573	67.66
702.759	68.3
702.944	68.69
703.129	69.54
703.314	69.84
703.499	69.7
703.684	69.72
703.87	70.59
704.055	70.77
704.24	71.15
704.425	72.25
704.61	72.77
704.795	72.46
704.98	72.68
705.165	73.04
705.35	72.92
705.535	72.92
705.72	73.34
705.905	73.61
706.09	74.26
706.275	74.48
706.459	74.29
706.644	74.16
706.829	74.23
707.014	73.84
707.199	74.19
707.384	74.87
707.568	75.08
707.753	75.37
707.938	75.61
708.123	75.33
708.307	75.33
708.492	75.92
708.677	76.29
708.861	76.48
709.046	76.57
709.231	77.19
709.415	77.34
709.6	77.18
709.784	77.55
709.969	78.1
710.153	77.95
710.338	77.82
710.522	77.8
710.707	77.9
710.891	78.04
711.076	77.9
711.26	78.19
711.445	78.87
711.629	78.82
711.813	79.18
711.998	79.66
712.182	79.54
712.366	79.93
712.551	80.67
712.735	80.59
712.919	80.64
713.103	81.03
713.288	80.43
713.472	80.04
713.656	80.23
713.84	80.61
714.024	80.78
714.208	80.86
714.393	81.35
714.577	81.52
714.761	81.55
714.945	81.67
715.129	81.76
715.313	81.81
715.497	81.58
715.681	81.73
715.865	81.57
716.049	81.9
716.233	81.56
716.417	81.58
716.601	81.5
716.785	81.66
716.968	81.89
717.152	82.1
717.336	82.58
717.52	82.55
717.704	82.77
717.888	82.76
718.071	82.94
718.255	82.48
718.439	82.58
718.622	82.58
718.806	82.86
718.99	82.45
719.174	82.46
719.357	82.72
719.541	82.86
719.724	82.81
719.908	83.95
720.092	84.2
720.275	84.27
720.459	84.06
720.642	83.9
720.826	83.45
721.009	83.8
721.193	83.43
721.376	83.86
721.559	84.41
721.743	84.65
721.926	84.76
722.11	85.23
722.293	84.57
722.476	84.37
722.66	83.88
722.843	83.89
723.026	83.45
723.21	84.19
723.393	84.93
723.576	85.23
723.759	84.8
723.942	85.33
724.126	85.05
724.309	84.57
724.492	84.92
724.675	85.27
724.858	85.46
725.041	85.84
725.224	85.98
725.407	85.88
725.59	86.68
725.774	86.37
725.957	86.23
726.14	86.35
726.322	86.52
726.505	85.83
726.688	86.75
726.871	87.4
727.054	87.06
727.237	86.45
727.42	86.87
727.603	85.85
727.786	85.4
727.968	85.62
728.151	86.48
728.334	86.37
728.517	86.96
728.699	87.66
728.882	87.36
729.065	87.81
729.248	88.26
729.43	88.14
729.613	88
729.796	89.05
729.978	88.07
730.161	87.33
730.343	87.67
730.526	88.22
730.708	87.82
730.891	88.35
731.073	88.76
731.256	88.62
731.438	88.59
731.621	88.72
731.803	88.67
731.986	88.82
732.168	88.47
732.35	88.54
732.533	88.49
732.715	88.45
732.898	88.77
733.08	88.95
733.262	89.03
733.444	89.16
733.627	89.55
733.809	89.36
733.991	90.38
734.173	89.58
734.355	89.53
734.538	89.75
734.72	89.93
734.902	89.57
735.084	89.85
735.266	89.87
735.448	90.32
735.63	90.33
735.812	90.67
735.994	91.99
736.176	92.2
736.358	91.57
736.54	92.17
736.722	91.66
736.904	90.53
737.086	90.74
737.268	91.13
737.45	91.15
737.632	91.57
737.814	91.75
737.995	91.72
738.177	91.2
738.359	91
738.541	91.28
738.723	91.37
738.904	91.56
739.086	93.12
739.268	93.01
739.449	93.23
739.631	92.55
739.813	92.96
739.994	92.06
740.176	92.31
740.358	91.89
740.539	92.51
740.721	92.41
740.902	92.33
741.084	91.83
741.265	91.35
741.447	91.9
741.628	91.39
741.81	90.95
741.991	91.56
742.172	92.13
742.354	92.42
742.535	92.59
742.717	93.94
742.898	94.58
743.079	94.53
743.261	94.07
743.442	94.07
743.623	94.25
743.804	93.68
743.986	94.66
744.167	93.49
744.348	92.53
744.529	91.73
744.71	91.85
744.891	91.36
745.073	92.45
745.254	93.02
745.435	92.4
745.616	91.86
745.797	91.82
745.978	91.6
746.159	91.72
746.34	91.16
746.521	92.97
746.702	91.61
746.883	91.41
747.064	91.64
747.245	92.84
747.426	91.73
747.606	92.82
747.787	92.94
747.968	93.33
748.149	93.81
748.33	93.98
748.51	93.82
748.691	93.79
748.872	93.61
749.053	93.23
749.233	92.66
749.414	92.29
749.595	92.29
749.775	91.24
749.956	90.23
750.137	90.51
750.317	91.49
750.498	92.08
750.678	93.7
750.859	94.94
751.04	93.4
751.22	92.47
751.4	92.19
751.581	90.72
751.761	90.85
751.942	92.66
752.122	92.77
752.303	91.71
752.483	92.23
752.663	90.55
752.844	89.16
753.024	90.77
753.204	91.62
753.385	91.23
753.565	93.15
753.745	93.85
753.925	92.58
754.106	91.58
754.286	91.98
754.466	91.78
754.646	92.99
754.826	92.29
755.006	92.1
755.187	91.85
755.367	91.9
755.547	91.32
755.727	92.49
755.907	93.77
756.087	94.47
756.267	93.37
756.447	92.97
756.627	90.92
756.807	89.52
756.987	89.46
757.167	89.68
757.346	90.12
757.526	90.55
757.706	92.64
757.886	93.32
758.066	93.42
758.246	92.76
758.425	93.73
758.605	92.45
758.785	92.49
758.965	93.14
759.144	90.64
759.324	90.53
759.504	91.04
759.683	90.81
759.863	89.81
760.043	90.9
760.222	90.82
760.402	90.47
760.581	89
760.761	89.46
760.94	88.87
761.12	89.46
761.299	90.33
761.479	91.48
761.658	90.8
761.838	91.73
762.017	92.11
762.197	92.09
762.376	92.66
762.555	93.53
762.735	96.27
762.914	94.64
763.093	92.57
763.273	90.75
763.452	89.88
763.631	88.4
763.81	88.11
763.99	89.49
764.169	90.43
764.348	90.19
764.527	88.71
764.706	90.16
764.885	91.13
765.064	89.37
765.243	89.99
765.423	91.98
765.602	91.11
765.781	88.65
765.96	88.6
766.139	87.26
766.318	86.98
766.497	85.93
766.676	87.88
766.854	89.15
767.033	89.44
767.212	88.19
767.391	88.66
767.57	87.98
767.749	88.76
767.928	90.35
768.106	90.56
768.285	89.59
768.464	88.79
768.643	87.9
768.821	89.13
769	90.24
769.179	90.48
769.357	91.25
769.536	90.39
769.715	87.86
769.893	87.38
770.072	87.23
770.25	87.28
770.429	89.84
770.607	89.76
770.786	89.29
770.964	91.12
771.143	89.37
771.321	88.1
771.5	89.97
771.678	88.45
771.857	86.79
772.035	87.08
772.213	86.08
772.392	82.89
772.57	84.68
772.748	85.79
772.927	85.94
773.105	86.19
773.283	88
773.461	88.05
773.64	88.82
773.818	90.85
773.996	92.59
774.174	91.99
774.352	90.99
774.531	89.3
774.709	88.53
774.887	86.44
775.065	86.36
775.243	85.87
775.421	86.02
775.599	87.83
775.777	86.59
775.955	85.69
776.133	84.89
776.311	86.71
776.489	83.79
776.667	85.42
776.844	85.71
777.022	84.92
777.2	83.59
777.378	83.53
777.556	84.25
777.734	85.75
777.911	89.51
778.089	88.06
778.267	88.07
778.445	85.27
778.622	85.82
778.8	84.24
778.978	84.92
779.155	85.9
779.333	88.98
779.511	88.17
779.688	89.84
779.866	88.27
780.043	85.38
780.221	83.81
780.398	81.41
780.576	80.1
780.753	83.34
780.931	83.94
781.108	84.39
781.286	85.95
781.463	83.6
781.64	81.49
781.818	83.12
781.995	84.66
782.172	86.9
782.35	88.07
782.527	90.57
782.704	88.31
782.882	86.25
783.059	83.54
783.236	84.39
783.413	83.84
783.59	86.5
783.768	85.09
783.945	86.96
784.122	86.01
784.299	86.71
784.476	84.73
784.653	83.02
784.83	83.16
785.007	84.95
785.184	83.05
785.361	82.6
785.538	86.84
785.715	87.23
785.892	86.9
786.069	88.27
786.246	89.86
786.423	89.69
786.6	88.05
786.776	86.97
786.953	85.49
787.13	86.48
787.307	84.48
787.484	83.75
787.66	83.42
787.837	80.95
788.014	77.98
788.191	77.09
788.367	75.17
788.544	77.66
788.721	79.44
788.897	81.66
789.074	81.65
789.25	82.46
789.427	82.55
789.603	82.03
789.78	81.86
789.956	82.3
790.133	82.46
790.309	81.7
790.486	85.59
790.662	82.64
790.839	82.34
791.015	79.69
791.192	76.87
791.368	75.71
791.544	76.61
791.721	80.58
791.897	84.84
792.073	85.01
792.249	77.14
792.426	81.18
792.602	79.99
792.778	81.61
792.954	80.16
793.13	85.67
793.307	79.78
793.483	73.89
793.659	71.41
793.835	76.43
794.011	74.7
794.187	78.41
794.363	81.47
794.539	87.35
794.715	79.69
794.891	78.89
795.067	77.64
795.243	82.28
795.419	76.35
795.595	78
795.771	76.68
795.947	76.98
796.122	72.13
796.298	75.94
796.474	81.31
796.65	79.31
796.826	81.06
797.001	80.47
797.177	74.17
797.353	74.18
797.529	76.59
797.704	74.52
797.88	78.73
798.056	77.04
798.231	76.74
798.407	82.72
798.582	84.88
798.758	85.52
798.934	89.75
799.109	87.86
799.285	86.89
799.46	83.17
799.636	80.99
799.811	82.86
799.986	79.58
800.162	79.14
800.337	78.46
800.513	75.61
800.688	78.04
800.863	84.8
801.039	81.51
801.214	81.81
801.389	85.48
801.565	78.51
801.74	70.75
801.915	83
802.09	82.29
802.265	84.75
802.441	83.65
802.616	84.96
802.791	81.32
802.966	83.75
803.141	80.81
803.316	81.22
803.491	82.59
803.666	82.27
803.841	81.82
804.016	82.4
804.191	82.09
804.366	80.69
804.541	74.57
804.716	75.85
804.891	71.62
805.066	72.07
805.241	73.76
805.416	72.28
805.591	67.65
805.765	69.16
805.94	75.73
806.115	75.06
806.29	77.63
806.464	77.8
806.639	79.69
806.814	69.77
806.989	63.76
807.163	69.4
807.338	72.85
807.512	72.72
807.687	64.89
807.862	74.61
808.036	66.6
808.211	72.19
808.385	69.44
808.56	89.24
808.734	94.22
808.909	94.4
809.083	94.14
809.258	94.96
809.432	82.13
809.606	69.71
809.781	71.92
809.955	68.33
810.13	74.48
810.304	73.55
810.478	76.63
810.652	78.99
810.827	78.9
811.001	72.48
811.175	73.54
811.349	69.91
811.524	67.78
811.698	59.6
811.872	66.45
812.046	75.78
812.22	79.73
812.394	78.33
812.568	86.87
812.742	87.67
812.916	79.69
813.09	75.88
813.264	78.86
813.438	80.37
813.612	72.65
813.786	75.35
813.96	82.91
814.134	81.35
814.308	84.01
814.482	84.84
814.656	81.52
814.83	78.09
815.003	84.38
815.177	77.7
815.351	77.31
815.525	74.23
815.698	74.03
815.872	60.42
816.046	57.66
816.219	62.06
816.393	73.92
816.567	77.19
816.74	87.16
816.914	91.7
817.088	94.76
817.261	92.41
817.435	86.17
817.608	85.29
817.782	71.36
817.955	72.48
818.129	62.33
818.302	64.02
818.475	65.81
818.649	76
818.822	65.28
818.996	77.3
819.169	92.09
819.342	82.76
819.516	89.88
819.689	93.41
819.862	85.53
820.035	68.46
820.209	67.5
820.382	59.89
820.555	61.69
820.728	50.11
820.901	52
821.075	55.15
821.248	58.69
821.421	52.1
821.594	61.16
821.767	72.38
821.94	79.59
822.113	60.2
822.286	61.32
822.459	65.03
822.632	66.78
822.805	50.01
822.978	53.59
823.151	51.47
823.324	44.17
823.496	22.18
823.669	21.13
823.842	31.71
824.015	25.35
824.188	20.49
824.361	39.52
824.533	43.93
824.706	52.14
824.879	49.81
825.051	62.35
825.224	52.9
825.397	46.13
825.569	36.92
825.742	59.18
825.915	54.4
826.087	71.75
826.26	61.93
826.432	60.67
826.605	61.06
826.777	55.84
826.95	46.74
827.122	51.68
827.295	53.91
827.467	51.49
827.64	39.47
827.812	42.26
827.984	42.74
828.157	39.85
828.329	9.23
828.501	25.54
828.674	42.63
828.846	45.45
829.018	65.13
829.19	62.67
829.363	74.13
829.535	94.64
829.707	102.48
829.879	68.74
830.051	66.82
830.223	54.77
830.395	13.38
830.568	-6.01
830.74	9.19
830.912	47.52
831.084	45.83
831.256	39.1
831.428	50.58
831.6	34.23
831.772	-0.23
831.943	-21.23
832.115	24.41
832.287	44.98
832.459	51.26
832.631	60.36
832.803	86.74
832.975	99.44
833.146	75.5
833.318	72.76
833.49	93.62
833.662	71.43
833.833	44.21
834.005	46.39
834.177	71.33
834.348	59.71
834.52	76.65
834.692	90.87
834.863	79.31
835.035	53.51
835.206	27.06
835.378	10.26
835.549	-2.34
835.721	24.12
835.892	19.14
836.064	29.51
836.235	45.39
836.407	74.84
836.578	59.16
836.749	97.87
836.921	86.1
837.092	22.54
837.264	-8.32
837.435	9.22
837.606	17.61
837.777	36.84
837.949	61.47
838.12	66.93
838.291	56.97
838.462	51.99
838.633	45.5
838.805	37.95
838.976	46
839.147	12.21
839.318	-11.75
839.489	-74.09
839.66	-78.79
839.831	-44.73
840.002	-21.34
840.173	-28.54
840.344	41.81
840.515	80.2
840.686	-16.65
840.857	23.12
841.028	43.33
841.199	22.31
841.369	15.01
841.54	36.78
841.711	56.52
841.882	91.34
842.053	83.38
842.223	55.68
842.394	59.64
842.565	62.62
842.736	44.15
842.906	49.47
843.077	68.5
843.248	106.08
843.418	96.46
843.589	98.18
843.759	183.35
843.93	161.49
844.101	70.57
844.271	69.76
844.442	72.25
844.612	51.33
844.783	24.31
844.953	9.05
845.123	11.52
845.294	10.68
845.464	-76.19
845.635	55.55
845.805	76.77
845.975	51.08
846.146	35.34
846.316	24.61
846.486	39.75
846.656	69.33
846.827	50.1
846.997	60.29
847.167	98.9
847.337	49.11
847.507	8.91
847.677	44.03
847.848	57.54
848.018	58.89
848.188	65.18
848.358	60.05
848.528	48.67
848.698	37.2
848.868	-9.14
849.038	-36.61
849.208	29.86
849.378	80.07
849.548	57.4
849.718	50.55
849.887	64.81
850.057	36.83
850.227	3.44
850.397	-36.06
850.567	-96.71
850.737	-277.93
850.906	-780.31
851.076	-438.48
851.246	-113.22
851.415	17.36
851.585	11.49
851.755	-3.93
851.924	-6.6
852.094	-33.27
852.264	-94.3
852.433	-559.86
852.603	-155.26
852.772	-149.57
852.942	-48.31
853.111	-33.53
853.281	-8.81
853.45	25.82
853.62	34.75
853.789	54.75
853.959	81.82
854.128	49.8
854.297	38.09
854.467	1.92
854.636	-12.71
854.805	31.52
854.975	40.55
855.144	34.45
855.313	362.76
855.482	354.56
855.652	112.94
855.821	84.52
855.99	102.7
856.159	60.37
856.328	39.7
856.497	38.19
856.667	35.28
856.836	22.38
857.005	-13.37
857.174	-21.01
857.343	-44.4
857.512	-36.52
857.681	-69.41
857.85	-63.12
858.019	-4.46
858.188	-10.55
858.356	-22.07
858.525	-18.43
858.694	-5.15
858.863	-122.81
859.032	-66.48
859.201	-33.98
859.369	1.47
859.538	0.59
859.707	41.96
859.876	37.39
860.044	-11.73
860.213	22.27
860.382	28.31
860.55	43.15
860.719	54.15
860.888	71.28
861.056	55.04
861.225	57.72
861.393	57.69
861.562	106.29
861.73	62.65
861.899	76.83
862.067	-218.1
862.236	25.53
862.404	-164.34
862.572	-104.45
862.741	-26.32
862.909	-17.94
863.078	-72.47
863.246	-8.71
863.414	7.63
863.582	23.32
863.751	18.05
863.919	2.32
864.087	17.31
864.255	14.2
864.424	-185.36
864.592	-0.04
864.76	-0.71
864.928	40.6
865.096	26.67
865.264	102.63
865.432	-205.11
865.6	163.38
865.768	-8.17
865.936	-30.19
866.104	-77.56
866.272	-78.83
866.44	-295.37
866.608	516.98
866.776	279.63
866.944	2735.47
867.112	-442.48
867.28	-128.91
867.448	-42.89
867.615	27.41
867.783	47.88
867.951	27.23
868.119	43.34
868.286	50.5
868.454	-24.57
868.622	14.98
868.789	125.09
868.957	919.64
869.125	188.82
869.292	22.05
869.46	-79.77
869.627	-16.08
869.795	-10.13
869.963	-8.32
870.13	8.89
870.298	39.15
870.465	17.83
870.632	4.64
870.8	32.01
870.967	19.44
871.135	-7.91
871.302	-19.15
871.469	-9.35
871.637	12.72
871.804	19.65
871.971	-3.61
872.139	-121.51
872.306	69.04
872.473	17.64
872.64	-96.67
872.807	-23.46
872.975	26.49
873.142	-173.55
873.309	1460.14
873.476	31.86
873.643	118.53
873.81	118.3
873.977	116.36
874.144	94.39
874.311	61.35
874.478	-38.18
874.645	-75.82
874.812	-59.6
874.979	-32.84
875.146	-44.76
875.313	-50.72
875.48	6.11
875.647	-9.29
875.813	-43.81
875.98	-19.46
876.147	-24.78
876.314	-58.61
876.481	567.98
876.647	-640.73
876.814	163.34
876.981	49.52
877.147	22.68
877.314	50.79
877.481	88.59
877.647	40.6
877.814	26.87
877.98	7.99
878.147	14.63
878.314	36.91
878.48	20.09
878.647	11.41
878.813	56.64
878.979	70.64
879.146	28.75
879.312	42.62
879.479	64.24
879.645	-26.86
879.811	-113.64
879.978	-284.16
880.144	-35.46
880.31	-23.91
880.477	-121.35
880.643	-227.2
880.809	-78.07
880.975	-68.39
881.142	-769.32
881.308	-80.91
881.474	-1.01
881.64	24.42
881.806	27.09
881.972	73.64
882.138	103.09
882.304	72.55
882.47	-54.18
882.636	-280.53
882.802	-33.52
882.968	10.21
883.134	32.74
883.3	42.78
883.466	39.11
883.632	53.95
883.798	35.03
883.964	29.49
884.129	67.72
884.295	105.48
884.461	42.5
884.627	33.79
884.793	28.32
884.958	24.92
885.124	-6.46
885.29	5.48
885.455	151.33
885.621	110.69
885.787	53.92
885.952	14.64
886.118	-18.44
886.283	-39.01
886.449	-79.36
886.614	-82.01
886.78	-121.25
886.945	438.11
887.111	-151.01
887.276	-162.07
887.442	-199.32
887.607	-75.12
887.773	-18.23
887.938	-37.66
888.103	-70.67
888.269	4.44
888.434	11.22
888.599	49.7
888.764	106.59
888.93	95.11
889.095	52.02
889.26	11.75
889.425	26.09
889.59	54.15
889.756	66.92
889.921	52.23
890.086	67.69
890.251	2.25
890.416	-127.75
890.581	-1713.31
890.746	382.59
890.911	659.39
891.076	231.81
891.241	-477.05
891.406	-7.28
891.571	-38.45
891.736	-203.78
891.901	-326.77
892.065	567.31
892.23	155.06
892.395	169.13
892.56	138.8
892.725	-0.2
892.889	-256.71
893.054	-31.31
893.219	-22.84
893.384	-24.05
893.548	-53.73
893.713	-58.93
893.878	-42.64
