Data from Ofra_PS_T2_2A_2HS09_Reflection_2.txt Node
Date: Wed Jul 21 17:10:29 EDT 2021
User: Adam
Spectrometer: FLMT01687
Trigger mode: 0
Integration Time (sec): 1.100000E0
Scans to average: 2
Electric dark correction enabled: true
Nonlinearity correction enabled: false
Boxcar width: 2
XAxis mode: Wavelengths
Number of Pixels in Spectrum: 3648
>>>>>Begin Spectral Data<<<<<
179.494	355.8
179.716	422.82
179.937	441.08
180.158	459.94
180.38	786.09
180.601	451.24
180.823	181.27
181.044	60.07
181.265	223.35
181.486	86.26
181.708	38.28
181.929	215.82
182.15	-195.42
182.372	164.95
182.593	98
182.814	29.3
183.035	93.26
183.257	76.96
183.478	-17.39
183.699	21.15
183.92	4.68
184.141	6.89
184.363	-3.77
184.584	41.72
184.805	45.82
185.026	64.37
185.247	60.23
185.468	36.6
185.689	43.48
185.91	51.59
186.132	33.57
186.353	28.85
186.574	71.42
186.795	62.26
187.016	0.57
187.237	17.59
187.458	-6.61
187.679	-15
187.9	-20.87
188.121	-20.64
188.342	-9.43
188.563	50.12
188.784	111.36
189.005	105.61
189.226	216.3
189.447	155.63
189.667	154
189.888	-189.53
190.109	-819.16
190.33	-712.74
190.551	-1113.05
190.772	-242.07
190.993	-184.19
191.214	-118.07
191.434	-55.45
191.655	35.98
191.876	20.65
192.097	-42.09
192.318	-102.2
192.538	-164.74
192.759	-148.92
192.98	-61.11
193.201	-2.91
193.421	25.32
193.642	34.45
193.863	41.95
194.083	14.39
194.304	3.25
194.525	-3.51
194.745	-17.31
194.966	-48.17
195.187	-46.96
195.407	-75.54
195.628	-143.69
195.848	-142.06
196.069	-145.85
196.29	-84.95
196.51	-94.19
196.731	-75.23
196.951	-76.83
197.172	-64.27
197.392	-72.81
197.613	-42.41
197.833	-60.24
198.054	-68.39
198.274	-43.87
198.495	-75.24
198.715	-49.75
198.936	-60.73
199.156	-58.25
199.377	-124.49
199.597	-122.94
199.817	-142.32
200.038	-76.78
200.258	-132.81
200.479	-52.78
200.699	-14.97
200.919	40.5
201.14	-5.63
201.36	-1.81
201.58	11.31
201.801	26.92
202.021	-7.64
202.241	14.39
202.461	15.57
202.682	-74.64
202.902	-138.93
203.122	-80.41
203.342	-71.32
203.563	-40.85
203.783	20.91
204.003	-0.98
204.223	-1.36
204.443	34.46
204.663	18.51
204.884	17.12
205.104	70.7
205.324	89.61
205.544	96.22
205.764	94.47
205.984	79.33
206.204	67.13
206.424	60.65
206.644	45.7
206.864	51.69
207.084	26.59
207.304	37.94
207.525	-64.92
207.745	-56.99
207.964	-0.09
208.184	-31.89
208.404	-49.98
208.624	-44.21
208.844	-41.21
209.064	-327.13
209.284	-365.48
209.504	-230.35
209.724	-99.86
209.944	-75.66
210.164	-31.8
210.384	-4.85
210.604	-9.11
210.823	-25.41
211.043	-28.7
211.263	-4.82
211.483	-2.75
211.703	-50.11
211.922	-29.77
212.142	44.16
212.362	64.45
212.582	41.49
212.801	55.99
213.021	21.76
213.241	-26.49
213.461	-72.76
213.68	-82.77
213.9	-51.75
214.12	-37.63
214.339	-73.84
214.559	-19.76
214.779	32.86
214.998	20.14
215.218	25.77
215.438	35.05
215.657	3.26
215.877	-17.68
216.096	1.93
216.316	13.78
216.535	17.52
216.755	2.45
216.974	-61.5
217.194	-88.72
217.413	-111.05
217.633	-143.39
217.852	-182.68
218.072	-85.87
218.291	-35.99
218.511	13.42
218.73	0.16
218.95	-2.11
219.169	-7.06
219.389	-54.87
219.608	-55.48
219.827	-48.63
220.047	-43.97
220.266	-20.84
220.485	-2.62
220.705	2.35
220.924	-5.08
221.143	21.28
221.363	-4.55
221.582	2.17
221.801	-5.48
222.021	15.41
222.24	-38.23
222.459	17.43
222.678	-3.66
222.897	-39.04
223.117	-88.54
223.336	-64.2
223.555	-33.1
223.774	-7.21
223.993	30.1
224.213	80.07
224.432	57.86
224.651	74.71
224.87	67.16
225.089	59.96
225.308	46.57
225.527	60.17
225.746	49.43
225.965	9.6
226.184	-11.1
226.404	13.16
226.623	-3.49
226.842	13.82
227.061	50.81
227.28	39.61
227.499	22.67
227.718	28.59
227.936	21
228.155	17.27
228.374	23.32
228.593	29.75
228.812	21.31
229.031	9.98
229.25	-28.07
229.469	-4.92
229.688	9.24
229.907	33.53
230.125	55.75
230.344	56.34
230.563	39.9
230.782	51.27
231.001	-9.21
231.22	-8.22
231.438	10.62
231.657	23.65
231.876	-3.26
232.095	32.41
232.313	29.08
232.532	31.89
232.751	-15.57
232.969	-11.4
233.188	-56.22
233.407	-6.02
233.625	-13.87
233.844	-9.04
234.063	-6.02
234.281	10.97
234.5	-5.3
234.719	2.22
234.937	20.87
235.156	30.57
235.374	41.88
235.593	37.88
235.811	31.53
236.03	19.5
236.249	-35.93
236.467	-30.83
236.686	-6.43
236.904	11.6
237.123	-9.37
237.341	1.87
237.559	-8.98
237.778	-27.43
237.996	-59.42
238.215	-11.51
238.433	8.73
238.652	20.21
238.87	1.71
239.088	16.81
239.307	16.91
239.525	4.56
239.743	-6.78
239.962	4.59
240.18	-21.25
240.398	-62.45
240.617	-68.42
240.835	-71.57
241.053	-34.1
241.271	3.54
241.49	22.79
241.708	-1.63
241.926	-3.95
242.144	1.73
242.363	-37.07
242.581	-56.36
242.799	-16.57
243.017	-4.46
243.235	-28.47
243.453	-24.59
243.672	-26.07
243.89	-20.17
244.108	-19.82
244.326	-1.33
244.544	-6.36
244.762	-8.78
244.98	-10.74
245.198	-13.55
245.416	-32.44
245.634	-12.77
245.852	-9.9
246.07	-2.46
246.288	4.52
246.506	-35.43
246.724	-32.28
246.942	-29.27
247.16	-13.09
247.378	7.06
247.596	48.73
247.814	55.93
248.032	35.32
248.25	33.08
248.468	23.17
248.685	11.02
248.903	45.75
249.121	57.02
249.339	39.84
249.557	40.22
249.775	42.77
249.992	-35.72
250.21	-29.23
250.428	-15.36
250.646	-57.38
250.863	-76.85
251.081	-32.72
251.299	-35.87
251.517	-17.5
251.734	0.86
251.952	7.84
252.17	7.63
252.387	12.54
252.605	-0.58
252.823	5.93
253.04	14.64
253.258	30.11
253.475	43.53
253.693	60.11
253.911	67.31
254.128	81.25
254.346	71.89
254.563	33.19
254.781	4.95
254.998	-31.87
255.216	-45.13
255.433	-30.65
255.651	24.81
255.868	68.76
256.086	104.4
256.303	73.56
256.521	69.09
256.738	25.06
256.956	-14.58
257.173	-62.02
257.39	-56.56
257.608	-102.48
257.825	-3.24
258.043	45.78
258.26	49.88
258.477	73.68
258.695	78.36
258.912	6.17
259.129	-2.2
259.346	-18.91
259.564	-45.71
259.781	-62.67
259.998	-5.8
260.216	20.14
260.433	52.28
260.65	43.77
260.867	62.27
261.084	43.29
261.302	19.42
261.519	13.97
261.736	-15.56
261.953	-39.76
262.17	-22.58
262.387	-50.24
262.604	-98.6
262.822	-98.76
263.039	-90.09
263.256	-160.94
263.473	-125.89
263.69	-66.08
263.907	-15.02
264.124	4.22
264.341	19.36
264.558	17.63
264.775	23.21
264.992	16.63
265.209	8.75
265.426	40.34
265.643	52.7
265.86	70.07
266.077	70.32
266.294	81.58
266.51	38.77
266.727	23.39
266.944	3.75
267.161	-9.36
267.378	10.83
267.595	28.23
267.812	0.79
268.028	-0.81
268.245	30.19
268.462	-25.94
268.679	-34.05
268.896	23.63
269.112	31.54
269.329	13.26
269.546	19.01
269.763	9.62
269.979	-8.53
270.196	-17.26
270.413	-45.95
270.629	-48.19
270.846	-54.6
271.063	-53.37
271.279	-57.98
271.496	-29.78
271.712	-3.73
271.929	26.68
272.146	42.26
272.362	35.39
272.579	54.35
272.795	49.42
273.012	46.08
273.228	24.17
273.445	13.36
273.661	-10.84
273.878	-53.99
274.094	-45.06
274.311	-62.33
274.527	7.86
274.744	-3.47
274.96	2.14
275.177	3.59
275.393	21.72
275.609	9.27
275.826	31.72
276.042	39.36
276.259	10.55
276.475	24.73
276.691	22.42
276.908	0.12
277.124	10.47
277.34	23.39
277.557	2.81
277.773	-5.73
277.989	-1.73
278.205	-10.08
278.422	6.98
278.638	6.22
278.854	18.12
279.07	23.94
279.286	25.69
279.503	-7.22
279.719	-8.93
279.935	-40.44
280.151	-48.76
280.367	-25.59
280.583	-36.04
280.799	-28.45
281.016	-37.55
281.232	-2.89
281.448	-16.6
281.664	7.87
281.88	-23.19
282.096	1.59
282.312	15.08
282.528	33.96
282.744	47.14
282.96	51.75
283.176	44.2
283.392	29.9
283.608	15.09
283.824	15.05
284.04	29.67
284.256	22.5
284.471	13.73
284.687	7.49
284.903	8.1
285.119	27.44
285.335	17.54
285.551	16.24
285.767	-2.11
285.982	-10.99
286.198	-58.5
286.414	-3.29
286.63	6.95
286.846	41.93
287.061	26.7
287.277	45.11
287.493	10.36
287.709	27.91
287.924	2.46
288.14	43.52
288.356	42.66
288.571	61.73
288.787	34.88
289.003	41.38
289.218	4.85
289.434	-27.96
289.65	-31.89
289.865	-28.99
290.081	-20.9
290.296	8.32
290.512	22.89
290.727	-6.88
290.943	-21.82
291.159	-25.7
291.374	-29.85
291.59	-52.83
291.805	-47.13
292.021	-19.77
292.236	-26.17
292.451	-4.4
292.667	8.75
292.882	36.13
293.098	25.48
293.313	20.84
293.529	-20.82
293.744	-32.48
293.959	-48
294.175	-46.3
294.39	-7.45
294.605	11.84
294.821	33.47
295.036	42.94
295.251	51.01
295.467	37.7
295.682	25.2
295.897	-15.12
296.112	-48.77
296.328	-48.53
296.543	-78.46
296.758	-61.7
296.973	-8.06
297.188	31.41
297.404	12.97
297.619	3.48
297.834	-7.45
298.049	-25.33
298.264	-46.39
298.479	-3.8
298.694	11.17
298.909	21.72
299.125	26.04
299.34	38.83
299.555	20.63
299.77	27.24
299.985	-12.35
300.2	-69.66
300.415	-87.75
300.63	-55.28
300.845	-50.4
301.06	-42.1
301.275	0.13
301.49	10.55
301.704	-6.69
301.919	-29.22
302.134	-30.4
302.349	-36.24
302.564	-92.33
302.779	-60.24
302.994	-30.21
303.209	10.62
303.423	36.16
303.638	67.88
303.853	21.35
304.068	21.63
304.283	16.5
304.497	13.8
304.712	18.78
304.927	26.32
305.142	27.35
305.356	27.22
305.571	15.83
305.786	-9.02
306	-32.24
306.215	-34.01
306.43	-62.87
306.644	-26.14
306.859	10.36
307.074	21.19
307.288	-10.86
307.503	12.45
307.717	-32.52
307.932	-21.33
308.147	-15.46
308.361	14.04
308.576	11.02
308.79	-15.27
309.005	-17.53
309.219	-5.42
309.434	-27.47
309.648	-38.67
309.863	0.43
310.077	-12.38
310.292	-16.27
310.506	-12.14
310.72	-1.06
310.935	0.6
311.149	3.02
311.364	20.59
311.578	37.59
311.792	29.58
312.007	36.35
312.221	27.39
312.435	33.5
312.649	9.75
312.864	-4.41
313.078	1.3
313.292	62.63
313.507	-1.37
313.721	5.19
313.935	43.08
314.149	32.73
314.363	11.1
314.578	24.9
314.792	24.42
315.006	16.23
315.22	25.26
315.434	31.51
315.648	28.46
315.862	35.34
316.077	35.27
316.291	27.11
316.505	24.41
316.719	15.52
316.933	-9.22
317.147	0.48
317.361	-54.83
317.575	-75.43
317.789	-102.41
318.003	-166.34
318.217	-142.96
318.431	-46.95
318.645	3.83
318.859	5.53
319.073	33.36
319.287	30.71
319.5	3.51
319.714	-42.51
319.928	-56.14
320.142	-82.24
320.356	-30.23
320.57	0.19
320.784	-15
320.997	-35.16
321.211	-18.33
321.425	-87.71
321.639	-118.54
321.853	-33.9
322.066	3.45
322.28	-7.09
322.494	8.64
322.707	28.42
322.921	1.53
323.135	-4.44
323.349	12.14
323.562	-7.68
323.776	-15.19
323.989	-8.63
324.203	-29.97
324.417	-41.66
324.63	-50.19
324.844	-43.68
325.057	-45.06
325.271	-4.31
325.485	19.17
325.698	42.67
325.912	47.28
326.125	22.74
326.339	2.54
326.552	-30.03
326.766	-37.77
326.979	-21.15
327.193	34.78
327.406	29.39
327.619	26.91
327.833	49.48
328.046	21.27
328.26	-13.39
328.473	7.78
328.686	-14.07
328.9	-13.94
329.113	3.15
329.326	-34.09
329.54	-28.45
329.753	-18.32
329.966	-57.81
330.179	-40.59
330.393	-13.12
330.606	-14.76
330.819	8.61
331.032	25.04
331.246	20.58
331.459	47.58
331.672	42.02
331.885	25.18
332.098	1.18
332.311	-5.94
332.525	-57.08
332.738	-29.29
332.951	12.15
333.164	41.21
333.377	53.64
333.59	64.94
333.803	63.67
334.016	47.53
334.229	44.07
334.442	55.13
334.655	83.98
334.868	78.85
335.081	67.87
335.294	50.62
335.507	29.27
335.72	-0.22
335.933	-14.73
336.146	-22.5
336.359	-28.67
336.572	-55.37
336.785	-58.67
336.997	-49.29
337.21	-23.25
337.423	-16.43
337.636	4.53
337.849	9.48
338.062	-1.56
338.274	-0.04
338.487	-6.43
338.7	-10.12
338.913	-57.15
339.125	-68.85
339.338	-120.48
339.551	-87.16
339.763	-48.32
339.976	6.99
340.189	20.92
340.402	37.36
340.614	9.63
340.827	-11.07
341.039	-24.36
341.252	-14.85
341.465	-10.86
341.677	-9.53
341.89	-16.42
342.102	1.52
342.315	-10.52
342.527	-47.5
342.74	-34.56
342.952	-5.82
343.165	-4.77
343.377	21.21
343.59	35.96
343.802	54.59
344.015	54.59
344.227	60.03
344.44	37.66
344.652	30.25
344.864	7.01
345.077	21.25
345.289	14.58
345.502	23.48
345.714	23.52
345.926	34.38
346.139	28.19
346.351	42.72
346.563	46.79
346.775	45.76
346.988	30.96
347.2	15.13
347.412	-31.22
347.624	-56.12
347.837	-62.72
348.049	-34.05
348.261	0.77
348.473	14.67
348.685	19.23
348.897	14.8
349.11	-1.93
349.322	-22.66
349.534	-5.8
349.746	5.86
349.958	7.95
350.17	-4.17
350.382	13.46
350.594	7.07
350.806	-4.44
351.018	-0.9
351.23	-3.08
351.442	-29.45
351.654	-19.98
351.866	-5.37
352.078	4.47
352.29	24.88
352.502	20.25
352.714	28.79
352.926	20.79
353.138	12.64
353.35	-7.58
353.561	-5.85
353.773	-35.41
353.985	-23.53
354.197	-26.85
354.409	-17.81
354.621	-16.61
354.832	-1.02
355.044	-20.12
355.256	-24.05
355.468	-11.08
355.679	-15.46
355.891	-3.08
356.103	-8.39
356.314	-3.07
356.526	-4.94
356.738	4.11
356.949	-29.36
357.161	-2.35
357.373	-9.22
357.584	-27.13
357.796	-18.27
358.008	-7.74
358.219	9.43
358.431	8.6
358.642	15.02
358.854	11.24
359.065	3.6
359.277	-29.53
359.488	-28.53
359.7	-43.2
359.911	-63.36
360.123	-42.52
360.334	-56.77
360.546	-65.68
360.757	-59.48
360.969	-29.68
361.18	-32.56
361.391	-1.4
361.603	-7.05
361.814	7.85
362.025	-3.3
362.237	0.64
362.448	13.98
362.659	32.16
362.871	23.84
363.082	19.2
363.293	18.76
363.504	-8.3
363.716	-39.67
363.927	-35.53
364.138	-53.62
364.349	-71.05
364.56	-56.9
364.772	-50.06
364.983	-29.73
365.194	-18.9
365.405	0.42
365.616	16.88
365.827	20.33
366.038	-3.48
366.25	1.1
366.461	-24.76
366.672	-4.65
366.883	15.84
367.094	26.92
367.305	1.66
367.516	11.43
367.727	-19.47
367.938	-32.01
368.149	-39.82
368.36	-12.13
368.571	-6.27
368.781	-12.98
368.992	-20.96
369.203	-24.52
369.414	-48.06
369.625	-77.33
369.836	-64.88
370.047	-94.87
370.258	-71.94
370.468	-70.31
370.679	-75.67
370.89	-67.15
371.101	-42.07
371.312	-50.7
371.522	-34.89
371.733	-13.74
371.944	-10.21
372.155	12.24
372.365	4.5
372.576	7.2
372.787	2.94
372.997	-13.18
373.208	-23.38
373.419	2.78
373.629	-37.63
373.84	-41.09
374.05	-42.44
374.261	-30.97
374.472	-40.97
374.682	15.03
374.893	28.67
375.103	50.43
375.314	38.48
375.524	38.55
375.735	37.85
375.945	39.09
376.156	16.17
376.366	18.42
376.577	16.3
376.787	6.36
376.997	-0.28
377.208	5.05
377.418	-2.42
377.629	4.11
377.839	3.81
378.049	10.56
378.26	27.47
378.47	29.92
378.68	21.9
378.89	16.3
379.101	17.77
379.311	-12.99
379.521	-39.31
379.732	-43.6
379.942	-44.78
380.152	-72.19
380.362	-36.83
380.572	-32.26
380.783	-16.1
380.993	2.74
381.203	15.33
381.413	21.5
381.623	35.37
381.833	35.12
382.043	18.87
382.253	3.94
382.463	-3.35
382.674	-12.98
382.884	-42.24
383.094	-38.93
383.304	-24.79
383.514	-20.3
383.724	-6.71
383.934	-5.84
384.144	-16.78
384.353	-19.68
384.563	-15.33
384.773	-18.16
384.983	-16.54
385.193	-3.86
385.403	-3.63
385.613	-2.98
385.823	-12.51
386.033	-7.41
386.242	-6.92
386.452	-13.31
386.662	-22.28
386.872	-11.97
387.082	-11.53
387.291	-16.29
387.501	-11.38
387.711	-1.55
387.921	-8.55
388.13	-12.85
388.34	-4.46
388.55	-9.56
388.759	-11.85
388.969	-0.16
389.179	-0.41
389.388	0.09
389.598	8.55
389.807	-1.17
390.017	-8.46
390.227	-6.38
390.436	-10.32
390.646	-10.13
390.855	-1.05
391.065	0.32
391.274	-1.16
391.484	-0.97
391.693	1.21
391.903	-0.07
392.112	3.55
392.322	7.12
392.531	10.29
392.74	10.01
392.95	6.36
393.159	3.22
393.369	3.02
393.578	0.85
393.787	-2.23
393.997	0.48
394.206	-0.32
394.415	-0.63
394.625	-0.16
394.834	-0.58
395.043	-1.44
395.252	0.74
395.462	1.37
395.671	2.06
395.88	3.06
396.089	3.8
396.298	1.78
396.508	1.72
396.717	1.37
396.926	0.78
397.135	-0.19
397.344	-0.33
397.553	0.71
397.762	2.54
397.971	2.94
398.181	3.74
398.39	3.61
398.599	2.49
398.808	1.38
399.017	2.51
399.226	3.6
399.435	5.02
399.644	5.48
399.853	4.48
400.062	3.81
400.27	3.22
400.479	2.45
400.688	1.56
400.897	2.11
401.106	1.88
401.315	1.81
401.524	2.11
401.733	2.72
401.941	3.28
402.15	3.6
402.359	3.12
402.568	3.32
402.777	3.2
402.985	2.97
403.194	2.91
403.403	3.05
403.612	2.55
403.82	2.39
404.029	2.44
404.238	2.17
404.446	2.6
404.655	2.43
404.864	2.57
405.072	2.34
405.281	2.53
405.489	2.16
405.698	2.29
405.906	2.22
406.115	2.23
406.324	2.2
406.532	2.55
406.741	2.82
406.949	2.8
407.158	2.84
407.366	2.95
407.574	2.78
407.783	2.66
407.991	2.53
408.2	2.61
408.408	2.45
408.617	2.32
408.825	2.23
409.033	2.32
409.242	2.54
409.45	2.69
409.658	2.53
409.867	2.65
410.075	2.59
410.283	2.21
410.491	2.06
410.7	2.07
410.908	2.03
411.116	2.29
411.324	2.33
411.533	2.32
411.741	2.49
411.949	2.48
412.157	2.2
412.365	2.19
412.573	2.25
412.781	2.32
412.99	2.25
413.198	2.45
413.406	2.43
413.614	2.4
413.822	2.26
414.03	2.22
414.238	2.03
414.446	2.16
414.654	1.97
414.862	2.09
415.07	2.18
415.278	2.34
415.486	2.08
415.694	2.22
415.902	2.06
416.109	1.89
416.317	1.86
416.525	1.74
416.733	1.68
416.941	1.8
417.149	1.86
417.357	1.79
417.564	2.06
417.772	2.27
417.98	2.21
418.188	2.29
418.395	2.37
418.603	2.51
418.811	2.15
419.019	1.98
419.226	2.03
419.434	2.08
419.642	1.86
419.849	2.1
420.057	2.2
420.265	2.25
420.472	2.03
420.68	1.91
420.887	1.67
421.095	1.68
421.302	1.58
421.51	1.97
421.717	2.09
421.925	2.29
422.132	2.21
422.34	2.04
422.547	1.84
422.755	1.89
422.962	1.68
423.17	1.57
423.377	1.7
423.585	1.72
423.792	1.62
423.999	1.71
424.207	1.89
424.414	1.95
424.621	1.78
424.829	1.7
425.036	1.84
425.243	1.93
425.451	1.79
425.658	1.77
425.865	2.02
426.072	1.96
426.28	2.16
426.487	2.15
426.694	2.27
426.901	2.05
427.108	1.98
427.315	1.63
427.523	1.92
427.73	1.79
427.937	1.83
428.144	1.69
428.351	1.81
428.558	1.89
428.765	1.86
428.972	1.83
429.179	2.12
429.386	2.26
429.593	1.86
429.8	1.84
430.007	1.84
430.214	1.89
430.421	1.66
430.628	1.63
430.835	1.59
431.042	1.82
431.249	1.71
431.456	1.69
431.662	1.75
431.869	1.9
432.076	1.81
432.283	2
432.49	2
432.697	2.05
432.903	1.8
433.11	1.7
433.317	1.68
433.524	1.86
433.73	1.8
433.937	2.12
434.144	2.01
434.35	1.91
434.557	1.68
434.764	1.69
434.97	1.55
435.177	1.83
435.384	1.77
435.59	1.96
435.797	2.17
436.003	2.31
436.21	2.18
436.416	2.23
436.623	2.26
436.829	2.17
437.036	2.19
437.242	2.19
437.449	2.23
437.655	2.16
437.862	2.24
438.068	2.08
438.275	2.2
438.481	2.33
438.687	2.3
438.894	2.26
439.1	2.3
439.307	2.5
439.513	2.36
439.719	2.39
439.926	2.45
440.132	2.43
440.338	2.2
440.544	2.39
440.751	2.37
440.957	2.4
441.163	2.32
441.369	2.42
441.575	2.13
441.782	2.12
441.988	2
442.194	2.04
442.4	1.94
442.606	2.3
442.812	2.38
443.018	2.47
443.224	2.56
443.431	2.65
443.637	2.38
443.843	2.28
444.049	2.26
444.255	2.22
444.461	2.22
444.667	2.25
444.873	2.38
445.079	2.36
445.284	2.46
445.49	2.22
445.696	2.12
445.902	2.06
446.108	2
446.314	1.92
446.52	2.09
446.726	2.38
446.931	2.4
447.137	2.42
447.343	2.46
447.549	2.44
447.755	2.24
447.96	2.3
448.166	2.32
448.372	2.31
448.578	2.38
448.783	2.36
448.989	2.39
449.195	2.48
449.4	2.52
449.606	2.45
449.812	2.51
450.017	2.56
450.223	2.43
450.428	2.3
450.634	2.44
450.84	2.52
451.045	2.44
451.251	2.46
451.456	2.74
451.662	2.75
451.867	2.82
452.073	2.79
452.278	2.96
452.483	2.98
452.689	2.85
452.894	2.7
453.1	2.77
453.305	2.6
453.51	2.47
453.716	2.46
453.921	2.56
454.127	2.45
454.332	2.42
454.537	2.37
454.742	2.34
454.948	2.26
455.153	2.33
455.358	2.47
455.563	2.62
455.769	2.78
455.974	2.8
456.179	2.72
456.384	2.7
456.589	2.62
456.795	2.37
457	2.34
457.205	2.53
457.41	2.46
457.615	2.44
457.82	2.57
458.025	2.63
458.23	2.46
458.435	2.58
458.64	2.45
458.845	2.54
459.05	2.53
459.255	2.58
459.46	2.5
459.665	2.63
459.87	2.61
460.075	2.58
460.28	2.58
460.485	2.65
460.69	2.6
460.895	2.49
461.099	2.51
461.304	2.64
461.509	2.64
461.714	2.58
461.919	2.73
462.123	2.59
462.328	2.63
462.533	2.57
462.738	2.74
462.942	2.58
463.147	2.76
463.352	2.64
463.556	2.69
463.761	2.67
463.966	2.78
464.17	2.77
464.375	2.77
464.58	2.68
464.784	2.59
464.989	2.53
465.193	2.51
465.398	2.52
465.602	2.67
465.807	2.62
466.011	2.71
466.216	2.71
466.42	2.76
466.625	2.75
466.829	2.93
467.034	2.97
467.238	3.18
467.443	3.16
467.647	3.04
467.851	3.03
468.056	3.01
468.26	2.87
468.464	2.91
468.669	3.08
468.873	3.15
469.077	3.15
469.282	3.26
469.486	3.24
469.69	3.22
469.894	3.07
470.099	3.09
470.303	3.21
470.507	3.17
470.711	3.04
470.915	3.13
471.119	3.13
471.324	2.98
471.528	3.06
471.732	3.15
471.936	3.15
472.14	3.12
472.344	3.15
472.548	3.22
472.752	3.34
472.956	3.52
473.16	3.56
473.364	3.49
473.568	3.49
473.772	3.57
473.976	3.5
474.18	3.5
474.384	3.61
474.588	3.58
474.792	3.41
474.995	3.43
475.199	3.58
475.403	3.59
475.607	3.59
475.811	3.57
476.015	3.64
476.218	3.6
476.422	3.53
476.626	3.63
476.83	3.75
477.033	3.67
477.237	3.62
477.441	3.75
477.644	3.65
477.848	3.64
478.052	3.55
478.255	3.58
478.459	3.54
478.663	3.75
478.866	3.79
479.07	3.87
479.273	4.03
479.477	4.12
479.681	3.98
479.884	3.91
480.088	3.89
480.291	3.84
480.495	3.77
480.698	3.84
480.901	3.96
481.105	4.12
481.308	4.04
481.512	4.06
481.715	4.09
481.919	4.11
482.122	4.04
482.325	4.11
482.529	4.09
482.732	4.09
482.935	4.02
483.138	4.02
483.342	4.11
483.545	4.26
483.748	4.24
483.952	4.3
484.155	4.44
484.358	4.41
484.561	4.28
484.764	4.3
484.967	4.32
485.171	4.35
485.374	4.27
485.577	4.39
485.78	4.42
485.983	4.44
486.186	4.29
486.389	4.32
486.592	4.28
486.795	4.31
486.998	4.26
487.201	4.36
487.404	4.42
487.607	4.46
487.81	4.43
488.013	4.47
488.216	4.43
488.419	4.42
488.622	4.37
488.825	4.31
489.028	4.24
489.231	4.26
489.433	4.24
489.636	4.23
489.839	4.21
490.042	4.21
490.245	4.16
490.447	4.24
490.65	4.24
490.853	4.3
491.056	4.38
491.258	4.43
491.461	4.45
491.664	4.49
491.866	4.47
492.069	4.5
492.272	4.45
492.474	4.44
492.677	4.48
492.879	4.58
493.082	4.62
493.285	4.77
493.487	4.73
493.69	4.63
493.892	4.55
494.095	4.49
494.297	4.4
494.5	4.41
494.702	4.46
494.905	4.55
495.107	4.58
495.309	4.59
495.512	4.68
495.714	4.72
495.917	4.73
496.119	4.73
496.321	4.82
496.524	4.83
496.726	4.87
496.928	4.88
497.13	4.91
497.333	4.86
497.535	4.82
497.737	4.74
497.939	4.74
498.142	4.74
498.344	4.76
498.546	4.73
498.748	4.82
498.95	4.99
499.152	4.97
499.355	5.01
499.557	5.02
499.759	5.15
499.961	5.03
500.163	5.08
500.365	5.09
500.567	5.19
500.769	5.05
500.971	5.01
501.173	4.92
501.375	4.93
501.577	4.84
501.779	4.88
501.981	4.92
502.183	5
502.385	4.98
502.587	5.02
502.788	5.06
502.99	5.09
503.192	5.22
503.394	5.19
503.596	5.27
503.798	5.33
503.999	5.4
504.201	5.32
504.403	5.45
504.605	5.44
504.806	5.38
505.008	5.32
505.21	5.44
505.411	5.4
505.613	5.41
505.815	5.47
506.016	5.53
506.218	5.57
506.42	5.59
506.621	5.63
506.823	5.62
507.024	5.57
507.226	5.48
507.427	5.47
507.629	5.55
507.83	5.65
508.032	5.74
508.233	5.86
508.435	5.9
508.636	5.94
508.838	5.85
509.039	5.83
509.24	5.86
509.442	5.91
509.643	5.8
509.845	5.88
510.046	5.96
510.247	5.93
510.448	5.96
510.65	6.01
510.851	6.11
511.052	6.07
511.254	6.11
511.455	6.27
511.656	6.35
511.857	6.38
512.058	6.42
512.26	6.4
512.461	6.26
512.662	6.28
512.863	6.17
513.064	6.16
513.265	6.2
513.466	6.24
513.667	6.2
513.868	6.25
514.069	6.37
514.27	6.47
514.471	6.46
514.672	6.49
514.873	6.47
515.074	6.47
515.275	6.32
515.476	6.31
515.677	6.28
515.878	6.41
516.079	6.37
516.28	6.47
516.481	6.58
516.682	6.7
516.882	6.62
517.083	6.58
517.284	6.55
517.485	6.53
517.686	6.52
517.886	6.57
518.087	6.65
518.288	6.7
518.488	6.71
518.689	6.71
518.89	6.7
519.091	6.72
519.291	6.73
519.492	6.79
519.692	6.87
519.893	6.97
520.094	6.99
520.294	6.96
520.495	6.92
520.695	6.93
520.896	6.88
521.096	6.9
521.297	7
521.497	7.03
521.698	6.97
521.898	7.01
522.099	7.01
522.299	7.07
522.499	7.09
522.7	7.15
522.9	7.19
523.101	7.28
523.301	7.22
523.501	7.21
523.702	7.19
523.902	7.21
524.102	7.26
524.302	7.25
524.503	7.32
524.703	7.35
524.903	7.38
525.103	7.29
525.304	7.45
525.504	7.53
525.704	7.59
525.904	7.55
526.104	7.52
526.304	7.46
526.504	7.47
526.705	7.43
526.905	7.55
527.105	7.62
527.305	7.57
527.505	7.5
527.705	7.48
527.905	7.4
528.105	7.48
528.305	7.46
528.505	7.54
528.705	7.67
528.905	7.67
529.105	7.63
529.304	7.73
529.504	7.78
529.704	7.7
529.904	7.74
530.104	7.77
530.304	7.87
530.503	7.83
530.703	7.79
530.903	7.79
531.103	7.84
531.303	7.72
531.502	7.81
531.702	7.93
531.902	8
532.101	7.95
532.301	7.95
532.501	7.97
532.7	7.93
532.9	7.94
533.1	7.98
533.299	8.08
533.499	8.11
533.698	8.12
533.898	8.12
534.097	8.19
534.297	8.23
534.496	8.15
534.696	8.2
534.895	8.34
535.095	8.38
535.294	8.37
535.494	8.37
535.693	8.4
535.892	8.36
536.092	8.28
536.291	8.32
536.491	8.44
536.69	8.45
536.889	8.4
537.088	8.41
537.288	8.46
537.487	8.53
537.686	8.57
537.886	8.63
538.085	8.73
538.284	8.83
538.483	8.77
538.682	8.8
538.882	8.85
539.081	8.89
539.28	8.76
539.479	8.75
539.678	8.75
539.877	8.84
540.076	8.81
540.275	8.83
540.474	8.95
540.673	9.05
540.872	9.01
541.071	9.12
541.27	9.2
541.469	9.2
541.668	9.19
541.867	9.23
542.066	9.27
542.265	9.41
542.464	9.4
542.663	9.46
542.862	9.56
543.06	9.56
543.259	9.52
543.458	9.59
543.657	9.65
543.856	9.66
544.054	9.66
544.253	9.68
544.452	9.71
544.651	9.8
544.849	9.83
545.048	9.91
545.247	9.96
545.445	10.04
545.644	10.06
545.843	10.07
546.041	10.12
546.24	10.24
546.438	10.38
546.637	10.4
546.836	10.51
547.034	10.59
547.233	10.61
547.431	10.53
547.63	10.57
547.828	10.64
548.027	10.65
548.225	10.69
548.423	10.78
548.622	10.87
548.82	10.84
549.019	10.94
549.217	11.09
549.415	11.18
549.614	11.28
549.812	11.34
550.01	11.35
550.209	11.39
550.407	11.43
550.605	11.43
550.803	11.59
551.002	11.67
551.2	11.72
551.398	11.82
551.596	11.98
551.794	12.06
551.993	12.17
552.191	12.24
552.389	12.33
552.587	12.4
552.785	12.45
552.983	12.53
553.181	12.62
553.379	12.67
553.577	12.71
553.775	12.81
553.973	12.84
554.171	13.01
554.369	13.08
554.567	13.16
554.765	13.29
554.963	13.46
555.161	13.38
555.359	13.51
555.557	13.68
555.755	13.74
555.952	13.85
556.15	13.98
556.348	14.01
556.546	14.1
556.744	14.13
556.941	14.19
557.139	14.3
557.337	14.42
557.535	14.42
557.732	14.58
557.93	14.75
558.128	14.87
558.325	15.02
558.523	15.11
558.721	15.24
558.918	15.25
559.116	15.33
559.313	15.37
559.511	15.53
559.708	15.53
559.906	15.65
560.104	15.74
560.301	15.86
560.498	15.92
560.696	16.02
560.893	16.07
561.091	16.21
561.288	16.36
561.486	16.46
561.683	16.55
561.88	16.71
562.078	16.81
562.275	16.82
562.473	17
562.67	17.17
562.867	17.32
563.064	17.45
563.262	17.58
563.459	17.67
563.656	17.84
563.853	17.9
564.051	17.99
564.248	18.21
564.445	18.29
564.642	18.31
564.839	18.48
565.036	18.63
565.234	18.78
565.431	18.8
565.628	18.96
565.825	19.06
566.022	19.15
566.219	19.21
566.416	19.35
566.613	19.47
566.81	19.52
567.007	19.58
567.204	19.56
567.401	19.64
567.598	19.74
567.795	19.81
567.991	19.86
568.188	20
568.385	20.14
568.582	20.15
568.779	20.27
568.976	20.39
569.172	20.51
569.369	20.55
569.566	20.58
569.763	20.6
569.96	20.61
570.156	20.54
570.353	20.58
570.55	20.65
570.746	20.74
570.943	20.86
571.14	20.96
571.336	21.03
571.533	21.2
571.729	21.2
571.926	21.24
572.123	21.42
572.319	21.44
572.516	21.35
572.712	21.41
572.909	21.45
573.105	21.53
573.302	21.61
573.498	21.77
573.695	21.78
573.891	21.77
574.087	21.66
574.284	21.61
574.48	21.55
574.677	21.62
574.873	21.78
575.069	21.81
575.266	21.93
575.462	21.9
575.658	21.98
575.854	21.96
576.051	22.03
576.247	22.01
576.443	22.07
576.639	22.03
576.835	21.92
577.032	21.81
577.228	21.98
577.424	22.03
577.62	21.99
577.816	22.07
578.012	22.19
578.208	22.12
578.404	22.11
578.6	22.17
578.796	22.2
578.993	22.2
579.189	22.15
579.384	22.1
579.58	22.08
579.776	22.04
579.972	22.01
580.168	21.9
580.364	21.95
580.56	21.93
580.756	21.94
580.952	21.84
581.148	21.86
581.343	21.89
581.539	21.97
581.735	21.98
581.931	22.11
582.127	22.28
582.322	22.21
582.518	22.18
582.714	22.21
582.909	22.16
583.105	22.04
583.301	22.04
583.496	22.02
583.692	21.96
583.888	21.95
584.083	22
584.279	22.05
584.474	22.04
584.67	21.99
584.866	22
585.061	21.89
585.257	21.94
585.452	21.95
585.648	22.01
585.843	22.12
586.039	22.1
586.234	22.05
586.429	21.99
586.625	22
586.82	21.84
587.015	21.97
587.211	21.88
587.406	21.99
587.601	21.98
587.797	22.06
587.992	21.98
588.187	22.09
588.383	22.03
588.578	21.99
588.773	22.06
588.968	22.1
589.163	22.2
589.359	22.09
589.554	22.21
589.749	22.17
589.944	22.2
590.139	22.24
590.334	22.39
590.529	22.38
590.724	22.52
590.919	22.56
591.114	22.47
591.309	22.6
591.504	22.66
591.699	22.59
591.894	22.61
592.089	22.64
592.284	22.63
592.479	22.69
592.674	22.69
592.869	22.78
593.064	22.91
593.259	23.02
593.454	23.14
593.648	23.21
593.843	23.25
594.038	23.27
594.233	23.21
594.428	23.15
594.622	23.18
594.817	23.36
595.012	23.4
595.206	23.39
595.401	23.49
595.596	23.65
595.79	23.77
595.985	23.98
596.18	24.23
596.374	24.43
596.569	24.43
596.763	24.38
596.958	24.34
597.153	24.42
597.347	24.35
597.542	24.43
597.736	24.52
597.931	24.61
598.125	24.62
598.319	24.77
598.514	24.85
598.708	24.93
598.903	25.01
599.097	25.13
599.291	25.17
599.486	25.2
599.68	25.25
599.874	25.31
600.069	25.23
600.263	25.21
600.457	25.39
600.651	25.47
600.846	25.47
601.04	25.57
601.234	25.69
601.428	25.68
601.622	25.75
601.817	25.82
602.011	25.98
602.205	26.04
602.399	26.03
602.593	25.99
602.787	26
602.981	25.94
603.175	25.95
603.369	25.96
603.563	26.02
603.757	26.06
603.951	26.13
604.145	26.07
604.339	26.06
604.533	25.92
604.727	25.88
604.921	25.75
605.115	25.78
605.309	25.84
605.502	25.91
605.696	25.86
605.89	25.87
606.084	25.85
606.278	25.72
606.471	25.63
606.665	25.61
606.859	25.49
607.053	25.41
607.246	25.45
607.44	25.47
607.634	25.36
607.827	25.49
608.021	25.27
608.214	25.24
608.408	25.18
608.602	25.17
608.795	25.06
608.989	25.13
609.182	24.89
609.376	24.85
609.569	24.79
609.763	24.63
609.956	24.49
610.15	24.47
610.343	24.35
610.537	24.26
610.73	24.24
610.923	24.32
611.117	24.3
611.31	24.29
611.504	24.21
611.697	24.15
611.89	24
612.083	23.95
612.277	23.81
612.47	23.74
612.663	23.73
612.856	23.64
613.05	23.53
613.243	23.58
613.436	23.46
613.629	23.29
613.822	23.22
614.015	23.17
614.209	22.9
614.402	22.94
614.595	22.93
614.788	22.85
614.981	22.7
615.174	22.74
615.367	22.54
615.56	22.41
615.753	22.36
615.946	22.29
616.139	22.24
616.332	22.4
616.525	22.37
616.718	22.38
616.911	22.39
617.103	22.35
617.296	22.23
617.489	22.21
617.682	22.07
617.875	22.03
618.067	21.92
618.26	21.79
618.453	21.81
618.646	21.79
618.838	21.87
619.031	21.99
619.224	21.94
619.417	21.85
619.609	21.9
619.802	21.7
619.994	21.63
620.187	21.58
620.38	21.55
620.572	21.44
620.765	21.53
620.957	21.29
621.15	21.3
621.342	21.3
621.535	21.3
621.727	21.24
621.92	21.36
622.112	21.3
622.305	21.28
622.497	21.21
622.69	21.19
622.882	21.18
623.074	21.15
623.267	20.99
623.459	20.96
623.651	20.86
623.844	20.79
624.036	20.84
624.228	20.92
624.42	20.89
624.613	21.05
624.805	21.04
624.997	20.95
625.189	20.97
625.381	21.01
625.574	20.85
625.766	20.68
625.958	20.72
626.15	20.69
626.342	20.7
626.534	20.67
626.726	20.69
626.918	20.67
627.11	20.54
627.302	20.45
627.494	20.36
627.686	20.48
627.878	20.35
628.07	20.38
628.262	20.34
628.454	20.43
628.646	20.36
628.838	20.41
629.029	20.36
629.221	20.44
629.413	20.28
629.605	20.07
629.797	19.96
629.989	19.91
630.18	19.77
630.372	19.8
630.564	19.84
630.755	19.86
630.947	19.84
631.139	19.71
631.33	19.59
631.522	19.7
631.714	19.69
631.905	19.73
632.097	19.69
632.289	19.77
632.48	19.58
632.672	19.5
632.863	19.33
633.055	19.36
633.246	19.3
633.438	19.25
633.629	19.24
633.821	19.31
634.012	19.31
634.203	19.15
634.395	19.29
634.586	19.29
634.777	19.23
634.969	19.23
635.16	19.27
635.351	19.04
635.543	18.91
635.734	18.86
635.925	18.76
636.117	18.8
636.308	18.91
636.499	18.87
636.69	18.83
636.881	18.84
637.073	18.86
637.264	18.76
637.455	18.8
637.646	18.82
637.837	18.81
638.028	18.69
638.219	18.71
638.41	18.67
638.601	18.5
638.792	18.52
638.983	18.48
639.174	18.4
639.365	18.5
639.556	18.53
639.747	18.44
639.938	18.49
640.129	18.46
640.32	18.25
640.511	18.29
640.701	18.36
640.892	18.26
641.083	18.37
641.274	18.51
641.465	18.48
641.655	18.35
641.846	18.34
642.037	18.21
642.228	18.05
642.418	18.06
642.609	18.09
642.8	18.18
642.99	18.11
643.181	18.14
643.372	18.11
643.562	18.06
643.753	17.87
643.943	17.76
644.134	17.68
644.324	17.59
644.515	17.56
644.705	17.63
644.896	17.71
645.086	17.7
645.277	17.64
645.467	17.6
645.658	17.52
645.848	17.52
646.038	17.5
646.229	17.49
646.419	17.44
646.61	17.43
646.8	17.35
646.99	17.36
647.18	17.32
647.371	17.34
647.561	17.27
647.751	17.28
647.941	17.18
648.132	17.21
648.322	17.18
648.512	17.2
648.702	17.21
648.892	17.18
649.082	17.13
649.272	16.97
649.462	16.86
649.653	16.77
649.843	16.7
650.033	16.69
650.223	16.71
650.413	16.73
650.603	16.73
650.793	16.79
650.983	16.69
651.172	16.63
651.362	16.69
651.552	16.62
651.742	16.48
651.932	16.54
652.122	16.59
652.312	16.57
652.502	16.61
652.691	16.62
652.881	16.58
653.071	16.48
653.261	16.26
653.45	16.1
653.64	16.07
653.83	15.89
654.019	15.72
654.209	15.78
654.399	15.76
654.588	15.65
654.778	15.55
654.968	15.47
655.157	15.22
655.347	15.07
655.536	14.91
655.726	14.75
655.915	14.61
656.105	14.6
656.294	14.48
656.484	14.3
656.673	14.25
656.863	14.25
657.052	13.96
657.241	13.77
657.431	13.56
657.62	13.37
657.809	13
657.999	12.92
658.188	12.74
658.377	12.6
658.567	12.48
658.756	12.32
658.945	12.09
659.134	11.87
659.324	11.77
659.513	11.6
659.702	11.43
659.891	11.34
660.08	11.22
660.269	11.09
660.458	10.89
660.648	10.86
660.837	10.59
661.026	10.5
661.215	10.39
661.404	10.2
661.593	10.04
661.782	9.88
661.971	9.69
662.16	9.5
662.349	9.42
662.538	9.23
662.726	9.16
662.915	8.98
663.104	8.77
663.293	8.74
663.482	8.72
663.671	8.69
663.86	8.59
664.048	8.5
664.237	8.41
664.426	8.22
664.615	8.07
664.803	7.96
664.992	7.86
665.181	7.62
665.369	7.51
665.558	7.5
665.747	7.46
665.935	7.5
666.124	7.67
666.312	7.67
666.501	7.46
666.69	7.36
666.878	7.23
667.067	7.02
667.255	7.03
667.444	7.32
667.632	7.4
667.82	7.54
668.009	7.39
668.197	7.27
668.386	7.2
668.574	7.31
668.762	7.14
668.951	7.17
669.139	7.21
669.327	6.95
669.516	6.88
669.704	6.81
669.892	6.99
670.08	7.05
670.269	7.09
670.457	6.96
670.645	6.89
670.833	6.98
671.021	6.93
671.21	7.04
671.398	7.27
671.586	7.43
671.774	7.28
671.962	7.32
672.15	7.32
672.338	7.21
672.526	7.19
672.714	7.17
672.902	7.2
673.09	7.37
673.278	7.56
673.466	7.76
673.654	7.95
673.842	8
674.03	8.04
674.218	7.96
674.405	7.94
674.593	7.93
674.781	8.07
674.969	8.09
675.157	8.28
675.344	8.5
675.532	8.6
675.72	8.68
675.908	8.69
676.095	8.68
676.283	8.64
676.471	8.86
676.658	8.92
676.846	9.11
677.033	9.25
677.221	9.29
677.409	9.19
677.596	9.28
677.784	9.3
677.971	9.39
678.159	9.56
678.346	9.68
678.534	9.8
678.721	10.11
678.909	10.01
679.096	10.04
679.283	10.26
679.471	10.32
679.658	10.32
679.846	10.55
680.033	10.8
680.22	10.9
680.408	10.99
680.595	11.04
680.782	11.13
680.969	11.23
681.157	11.32
681.344	11.53
681.531	11.67
681.718	11.82
681.905	11.95
682.093	12.1
682.28	12.26
682.467	12.5
682.654	12.65
682.841	12.8
683.028	13.04
683.215	13.17
683.402	13.23
683.589	13.52
683.776	13.72
683.963	13.78
684.15	14.18
684.337	14.48
684.524	14.68
684.711	15.05
684.898	15.22
685.085	15.38
685.271	15.83
685.458	16.22
685.645	16.37
685.832	16.87
686.019	17.24
686.205	17.33
686.392	17.69
686.579	18.04
686.766	18.55
686.952	18.88
687.139	19.53
687.326	19.92
687.512	20.39
687.699	20.61
687.886	20.91
688.072	21.13
688.259	21.53
688.445	21.98
688.632	22.46
688.818	23.27
689.005	23.82
689.191	24.26
689.378	25.11
689.564	25.77
689.751	26.3
689.937	26.95
690.124	27.65
690.31	27.78
690.496	28.47
690.683	28.95
690.869	29.56
691.055	30.11
691.242	31.19
691.428	31.83
691.614	32.43
691.8	33.11
691.987	33.77
692.173	34.13
692.359	34.6
692.545	35.46
692.731	35.87
692.918	36.57
693.104	37.2
693.29	38
693.476	38.53
693.662	39.36
693.848	39.81
694.034	40.48
694.22	40.91
694.406	41.63
694.592	42.37
694.778	43.27
694.964	43.86
695.15	44.73
695.336	45.4
695.522	46.38
695.708	46.92
695.894	47.85
696.08	48.51
696.265	49.22
696.451	49.71
696.637	50.53
696.823	51.02
697.009	51.51
697.194	51.99
697.38	52.22
697.566	52.59
697.751	53.04
697.937	54.04
698.123	54.7
698.308	55.67
698.494	56.48
698.68	57.32
698.865	57.43
699.051	57.97
699.236	57.9
699.422	58.29
699.607	58.53
699.793	59.13
699.978	59.52
700.164	60.22
700.349	60.84
700.535	61.36
700.72	61.69
700.906	62.32
701.091	62.93
701.276	63.09
701.462	63.75
701.647	64.74
701.832	64.97
702.018	65.26
702.203	65.8
702.388	66
702.573	66.08
702.759	66.71
702.944	66.98
703.129	67.21
703.314	67.42
703.499	67.6
703.684	67.73
703.87	68.59
704.055	69.41
704.24	69.94
704.425	70.7
704.61	71.24
704.795	71.31
704.98	71.46
705.165	71.56
705.35	71.48
705.535	71.77
705.72	71.92
705.905	72.31
706.09	72.87
706.275	72.9
706.459	72.64
706.644	72.87
706.829	72.95
707.014	72.83
707.199	73.16
707.384	73.9
707.568	74.2
707.753	74.69
707.938	75.52
708.123	75.97
708.307	75.8
708.492	75.84
708.677	75.69
708.861	75.28
709.046	75.09
709.231	75.79
709.415	76.68
709.6	76.85
709.784	76.79
709.969	76.78
710.153	76.61
710.338	76.19
710.522	76.3
710.707	77.21
710.891	77.65
711.076	77.82
711.26	77.94
711.445	78.27
711.629	78.31
711.813	78.76
711.998	78.93
712.182	79.03
712.366	79.19
712.551	79.54
712.735	79.51
712.919	79.76
713.103	80.07
713.288	80.18
713.472	79.65
713.656	79.84
713.84	79.65
714.024	79.61
714.208	79.48
714.393	80.22
714.577	80.47
714.761	80.87
714.945	81.17
715.129	81.44
715.313	81.41
715.497	81.13
715.681	82.01
715.865	81.75
716.049	81.98
716.233	81.96
716.417	82.35
716.601	81.39
716.785	81.73
716.968	81.62
717.152	81.63
717.336	81.75
717.52	81.88
717.704	82.08
717.888	82.62
718.071	82.85
718.255	83.26
718.439	83.23
718.622	83.39
718.806	83.71
718.99	83.22
719.174	83.11
719.357	83.86
719.541	83.8
719.724	82.92
719.908	84.12
720.092	84.31
720.275	84.28
720.459	84.27
720.642	84.83
720.826	84.23
721.009	83.7
721.193	83.14
721.376	83.16
721.559	82.87
721.743	83
721.926	83.84
722.11	84.34
722.293	83.93
722.476	83.95
722.66	84.16
722.843	83.83
723.026	83.52
723.21	84.33
723.393	85.34
723.576	85.25
723.759	85.08
723.942	85.37
724.126	85.25
724.309	84.97
724.492	84.85
724.675	84.84
724.858	84.96
725.041	85.36
725.224	85.71
725.407	85.83
725.59	86.27
725.774	86.38
725.957	86.07
726.14	85.57
726.322	85.57
726.505	85.76
726.688	86.11
726.871	85.81
727.054	85.98
727.237	86.02
727.42	85.88
727.603	85.56
727.786	86.25
727.968	86.34
728.151	86.61
728.334	86.74
728.517	86.89
728.699	87.38
728.882	87.37
729.065	87.69
729.248	88.14
729.43	87.98
729.613	87.78
729.796	88.69
729.978	87.94
730.161	87.43
730.343	87.74
730.526	88.26
730.708	87.55
730.891	88.5
731.073	88.38
731.256	87.94
731.438	87.39
731.621	87.48
731.803	86.89
731.986	87.15
732.168	86.95
732.35	86.34
732.533	86.27
732.715	86.36
732.898	86.87
733.08	87.68
733.262	88.82
733.444	88.79
733.627	89.33
733.809	89.64
733.991	89.86
734.173	89.48
734.355	89.35
734.538	89.88
734.72	89.1
734.902	89.12
735.084	89.46
735.266	89.6
735.448	89.93
735.63	90.09
735.812	90.12
735.994	90.34
736.176	91.12
736.358	90.35
736.54	91.92
736.722	91.69
736.904	91.61
737.086	91.39
737.268	92.43
737.45	91.86
737.632	92.16
737.814	91.54
737.995	91.35
738.177	90.65
738.359	89.51
738.541	89.96
738.723	91
738.904	91.35
739.086	91.22
739.268	91.76
739.449	91.41
739.631	90.58
739.813	91.05
739.994	91.33
740.176	92.23
740.358	91.72
740.539	93.12
740.721	93.66
740.902	94.43
741.084	93.15
741.265	93.15
741.447	92.79
741.628	91.71
741.81	90.91
741.991	92.13
742.172	93.3
742.354	92.78
742.535	92.63
742.717	92.8
742.898	92.94
743.079	93.48
743.261	94.25
743.442	93.78
743.623	94.26
743.804	93.76
743.986	94.11
744.167	92.26
744.348	92.01
744.529	92.21
744.71	91.34
744.891	89.61
745.073	90.95
745.254	91.47
745.435	90.75
745.616	90.95
745.797	90.86
745.978	89.69
746.159	90.44
746.34	89.86
746.521	91.43
746.702	90.45
746.883	91.32
747.064	90.61
747.245	90.67
747.426	89.41
747.606	90.94
747.787	90.96
747.968	91.36
748.149	91.54
748.33	91.62
748.51	91.38
748.691	91.22
748.872	91.84
749.053	91.31
749.233	90.5
749.414	89.41
749.595	88.95
749.775	87.36
749.956	87.2
750.137	87.83
750.317	90.05
750.498	91.92
750.678	92.46
750.859	93.59
751.04	93.55
751.22	91.73
751.4	89.77
751.581	88.95
751.761	89.21
751.942	90.37
752.122	90.29
752.303	90.19
752.483	90.04
752.663	90.55
752.844	88.63
753.024	89.74
753.204	90.28
753.385	90.23
753.565	89.06
753.745	89.58
753.925	89.65
754.106	90.19
754.286	89.98
754.466	89.83
754.646	90.22
754.826	89.13
755.006	86.44
755.187	88.36
755.367	88.9
755.547	88.69
755.727	90.19
755.907	92.19
756.087	93.05
756.267	92.44
756.447	91.8
756.627	89.55
756.807	90.58
756.987	89.66
757.167	90.18
757.346	91.13
757.526	90.32
757.706	89.58
757.886	89.45
758.066	89.61
758.246	90.68
758.425	91.42
758.605	90.64
758.785	90.01
758.965	90.49
759.144	87.57
759.324	88.47
759.504	89.45
759.683	90.28
759.863	86.94
760.043	86.49
760.222	86.47
760.402	84.85
760.581	84.68
760.761	88.05
760.94	87.93
761.12	89.85
761.299	91.75
761.479	91.16
761.658	88.55
761.838	90.42
762.017	88.02
762.197	86.76
762.376	87.74
762.555	88.97
762.735	87.98
762.914	86.93
763.093	87.06
763.273	85.89
763.452	86.28
763.631	87.11
763.81	88.3
763.99	88.06
764.169	87.71
764.348	85.65
764.527	84.86
764.706	86.72
764.885	87.55
765.064	86.09
765.243	86.91
765.423	88.41
765.602	86.29
765.781	84.32
765.96	83.9
766.139	82.78
766.318	82.53
766.497	82.61
766.676	83.15
766.854	84.91
767.033	85.89
767.212	85.53
767.391	85.66
767.57	86.59
767.749	87.19
767.928	88.56
768.106	88.42
768.285	87.28
768.464	86.72
768.643	85.76
768.821	84.09
769	84.08
769.179	83.95
769.357	83.34
769.536	83.37
769.715	85.6
769.893	86.1
770.072	85.09
770.25	85.72
770.429	86.97
770.607	85.08
770.786	84.81
770.964	87.39
771.143	85.44
771.321	86.75
771.5	88.08
771.678	85.44
771.857	83.26
772.035	85.83
772.213	83.48
772.392	79.95
772.57	82.74
772.748	84.29
772.927	82.17
773.105	80.9
773.283	83.81
773.461	83.35
773.64	84.02
773.818	85.62
773.996	88.66
774.174	86.29
774.352	83.3
774.531	81.2
774.709	83.05
774.887	80.37
775.065	81.86
775.243	83.59
775.421	84.81
775.599	84.9
775.777	82.94
775.955	80.9
776.133	79.23
776.311	79.19
776.489	74.32
776.667	76.93
776.844	79.12
777.022	78.19
777.2	77.25
777.378	78.18
777.556	77.02
777.734	78.77
777.911	82.86
778.089	82.26
778.267	83.65
778.445	82.98
778.622	82.02
778.8	81.31
778.978	83.99
779.155	80.71
779.333	82.85
779.511	81.54
779.688	84.39
779.866	80.47
780.043	84.55
780.221	83.76
780.398	80.08
780.576	78.55
780.753	82.33
780.931	77.6
781.108	75.21
781.286	79.83
781.463	78.22
781.64	72.7
781.818	76.38
781.995	78.3
782.172	76.43
782.35	77.11
782.527	82.84
782.704	80.06
782.882	81.54
783.059	81.77
783.236	82.27
783.413	81.63
783.59	84.74
783.768	79.4
783.945	81.78
784.122	82.64
784.299	78.66
784.476	77.13
784.653	78.34
784.83	73.95
785.007	68.13
785.184	71.76
785.361	71.39
785.538	78.57
785.715	81.27
785.892	84.38
786.069	86.28
786.246	88.18
786.423	86.44
786.6	84.37
786.776	86.84
786.953	80.89
787.13	81.86
787.307	79.58
787.484	77.94
787.66	73.47
787.837	77.66
788.014	74.4
788.191	70.51
788.367	70.81
788.544	75.71
788.721	71.96
788.897	73.65
789.074	77.31
789.25	77.58
789.427	77.27
789.603	79.01
789.78	80.3
789.956	78.99
790.133	75.17
790.309	71.92
790.486	76.98
790.662	73.88
790.839	74.79
791.015	79.27
791.192	76.55
791.368	73.23
791.544	72.55
791.721	69.87
791.897	72.15
792.073	72.04
792.249	66.1
792.426	69.29
792.602	74.16
792.778	73.32
792.954	72.19
793.13	73.93
793.307	70.97
793.483	62.65
793.659	61.29
793.835	68.15
794.011	69.36
794.187	69.35
794.363	72.48
794.539	79.78
794.715	73.41
794.891	73.22
795.067	70.98
795.243	75.8
795.419	67.74
795.595	65.07
795.771	69.29
795.947	69.86
796.122	67.86
796.298	74.67
796.474	81.01
796.65	80.36
796.826	83
797.001	82.02
797.177	75.87
797.353	77.58
797.529	78.78
797.704	78.09
797.88	76.95
798.056	72.52
798.231	65.69
798.407	63.01
798.582	66.59
798.758	68.66
798.934	72.61
799.109	75.85
799.285	74.13
799.46	75.77
799.636	74.87
799.811	75.11
799.986	77.37
800.162	82.78
800.337	77.4
800.513	72.55
800.688	75.5
800.863	82.52
801.039	72.39
801.214	69.6
801.389	76.67
801.565	69.05
801.74	52.8
801.915	62.83
802.09	65.74
802.265	66.49
802.441	69.5
802.616	72.98
802.791	68.13
802.966	66.5
803.141	63.11
803.316	58.98
803.491	60.84
803.666	65.17
803.841	65.31
804.016	65.4
804.191	66.5
804.366	60.5
804.541	58.43
804.716	52.85
804.891	46.02
805.066	54.26
805.241	56.31
805.416	56.22
805.591	60.42
805.765	70.75
805.94	70.2
806.115	66.05
806.29	55.78
806.464	57.58
806.639	50.94
806.814	46.67
806.989	49.01
807.163	63.55
807.338	65.19
807.512	61.23
807.687	44.22
807.862	60.53
808.036	58.55
808.211	62.26
808.385	72.93
808.56	93.13
808.734	91.04
808.909	84.41
809.083	74.23
809.258	82.49
809.432	78.7
809.606	62.16
809.781	58.02
809.955	69.2
810.13	62.5
810.304	56.1
810.478	58.5
810.652	72.97
810.827	66.72
811.001	61.35
811.175	60.63
811.349	60.57
811.524	51.13
811.698	42.51
811.872	40.63
812.046	53.67
812.22	63.09
812.394	60.38
812.568	70.28
812.742	69.27
812.916	62.68
813.09	56.43
813.264	63.56
813.438	60.97
813.612	64.17
813.786	60.24
813.96	69.44
814.134	72.3
814.308	81.92
814.482	83.73
814.656	76.63
814.83	81.76
815.003	77.94
815.177	64.36
815.351	57.8
815.525	66.61
815.698	56.38
815.872	50.68
816.046	49.75
816.219	58.09
816.393	68.02
816.567	75.51
816.74	80.47
816.914	79.93
817.088	83.08
817.261	76.18
817.435	53.82
817.608	53.5
817.782	52
817.955	56.36
818.129	43.47
818.302	57.26
818.475	65.49
818.649	72.26
818.822	59.71
818.996	86.2
819.169	84.37
819.342	65.83
819.516	77.6
819.689	82.03
819.862	64.49
820.035	56.7
820.209	59.79
820.382	55.87
820.555	59.58
820.728	50.1
820.901	50.59
821.075	51.1
821.248	54.83
821.421	41.91
821.594	48.53
821.767	70.27
821.94	78.36
822.113	47.5
822.286	46.88
822.459	56.46
822.632	44.96
822.805	28.93
822.978	36.17
823.151	37.53
823.324	27.3
823.496	2.33
823.669	8.3
823.842	13.1
824.015	0.58
824.188	-16.48
824.361	3.95
824.533	13.95
824.706	30.43
824.879	32.22
825.051	47.17
825.224	43.29
825.397	31.39
825.569	17.1
825.742	43.61
825.915	55.43
826.087	67.97
826.26	69.04
826.432	67.89
826.605	61.74
826.777	56.84
826.95	59.8
827.122	47.49
827.295	43.82
827.467	48.66
827.64	16.39
827.812	8.65
827.984	4.8
828.157	10.62
828.329	-27.58
828.501	1.02
828.674	22.3
828.846	22.16
829.018	44.95
829.19	36.28
829.363	50.22
829.535	47.03
829.707	57.8
829.879	20.31
830.051	26.28
830.223	5.85
830.395	-20.59
830.568	-30.86
830.74	-25.43
830.912	2.91
831.084	-2.71
831.256	-2.9
831.428	-0.61
831.6	1.38
831.772	-37.61
831.943	-47.33
832.115	-21.74
832.287	15.63
832.459	23.69
832.631	48.04
832.803	77.53
832.975	105.95
833.146	74.23
833.318	80.27
833.49	86.93
833.662	59.45
833.833	17.83
834.005	30.64
834.177	36.62
834.348	21.86
834.52	24.46
834.692	43.85
834.863	8.77
835.035	-15.58
835.206	-45.02
835.378	-19.53
835.549	-13.96
835.721	12.13
835.892	18.2
836.064	16
836.235	11.06
836.407	27.38
836.578	-10.47
836.749	-0.09
836.921	-2.65
837.092	-23.28
837.264	-41.12
837.435	-27.11
837.606	4.58
837.777	38.11
837.949	50.14
838.12	60.46
838.291	62.25
838.462	52.95
838.633	14.2
838.805	-6.25
838.976	-16.38
839.147	-96.14
839.318	-94.73
839.489	-127.29
839.66	-85.5
839.831	-49.55
840.002	-15.92
840.173	2.19
840.344	54.01
840.515	86.24
840.686	-7.73
840.857	-26.21
841.028	-62.09
841.199	-38.4
841.369	-58.29
841.54	-31.3
841.711	5.87
841.882	27.2
842.053	5.02
842.223	7.26
842.394	23.29
842.565	7.62
842.736	9.13
842.906	1.76
843.077	6.23
843.248	12.22
843.418	29.96
843.589	20.54
843.759	108.8
843.93	92.18
844.101	39.26
844.271	21.88
844.442	36.76
844.612	34.9
844.783	23.1
844.953	-6.03
845.123	9.92
845.294	19.91
845.464	-58.43
845.635	-24.2
845.805	40.35
845.975	13.23
846.146	-54.92
846.316	-41.33
846.486	-14.37
846.656	9.17
846.827	9.84
846.997	15.85
847.167	32.61
847.337	20.41
847.507	-9.31
847.677	10.8
847.848	59.23
848.018	52.24
848.188	57.68
848.358	40.11
848.528	18.28
848.698	-21.26
848.868	-133.34
849.038	-249.74
849.208	-86.88
849.378	-23.97
849.548	-12.18
849.718	13.91
849.887	38.45
850.057	3.35
850.227	-55.7
850.397	-103.67
850.567	-254.17
850.737	-591.2
850.906	-1519.69
851.076	-785.74
851.246	-273.69
851.415	5.05
851.585	2.88
851.755	-16.07
851.924	17.95
852.094	26.65
852.264	-21.4
852.433	-479.57
852.603	-17.26
852.772	54.01
852.942	-24.47
853.111	-28.32
853.281	0.97
853.45	15.93
853.62	-52.83
853.789	-61.03
853.959	-26.48
854.128	-11.99
854.297	-77.5
854.467	-96.33
854.636	-57.94
854.805	-32.59
854.975	-83.05
855.144	-75
855.313	-50.87
855.482	-412.23
855.652	-195.69
855.821	-145.86
855.99	-8.28
856.159	19.42
856.328	22.13
856.497	16.05
856.667	19.53
856.836	32.54
857.005	15.88
857.174	10.58
857.343	-6.26
857.512	-8.35
857.681	-75.92
857.85	-132.64
858.019	-62.06
858.188	-67.75
858.356	-66.7
858.525	-130.63
858.694	-96.56
858.863	-193.68
859.032	-97.71
859.201	-178.83
859.369	-45.34
859.538	10.05
859.707	-35.65
859.876	-55.18
860.044	10.99
860.213	33.88
860.382	7.88
860.55	31.83
860.719	62.83
860.888	62.87
861.056	22.72
861.225	28.53
861.393	71.33
861.562	63.86
861.73	25.05
861.899	-0.39
862.067	-1202.59
862.236	-54.21
862.404	-205.12
862.572	-121.95
862.741	-5.85
862.909	-5.2
863.078	-87.97
863.246	-51.74
863.414	-39.36
863.582	-30.97
863.751	-20.85
863.919	-15.41
864.087	53.91
864.255	56.39
864.424	-126.99
864.592	14.2
864.76	-7.37
864.928	-151.8
865.096	-144.51
865.264	-51.95
865.432	-1160.8
865.6	-90.38
865.768	-135.51
865.936	-118.76
866.104	-127.12
866.272	-183.98
866.44	-358.17
866.608	473.23
866.776	223.37
866.944	2401.74
867.112	-394.39
867.28	-153.52
867.448	-18.2
867.615	42.24
867.783	51.26
867.951	28.8
868.119	98.95
868.286	82.42
868.454	-42.51
868.622	-33.11
868.789	-49.91
868.957	-2105.36
869.125	-2528.29
869.292	-184.46
869.46	-304.92
869.627	-59.5
869.795	-56.61
869.963	-6.98
870.13	14.71
870.298	41.53
870.465	-38.33
870.632	-79.04
870.8	-57.15
870.967	-117.89
871.135	-179.5
871.302	-124.05
871.469	-112.33
871.637	-144.4
871.804	-60.93
871.971	-99.16
872.139	-325.47
872.306	-19.37
872.473	-50.75
872.64	-304.18
872.807	-81.09
872.975	44.25
873.142	-122.45
873.309	1072.3
873.476	100.61
873.643	151.04
873.81	7.57
873.977	28.44
874.144	7.28
874.311	-187.24
874.478	-222.33
874.645	-189.58
874.812	-119.81
874.979	-36.37
875.146	-38.89
875.313	-52.42
875.48	48.04
875.647	15.69
875.813	-15.96
875.98	-9.78
876.147	-36.39
876.314	-127.98
876.481	994.83
876.647	-1325.56
876.814	536.66
876.981	8.94
877.147	-9.42
877.314	10.94
877.481	26.63
877.647	33.38
877.814	-35.5
877.98	-105.94
878.147	-69.24
878.314	15.79
878.48	-18.29
878.647	-12.36
878.813	60.36
878.979	58.81
879.146	-29.45
879.312	-30.92
879.479	-56.94
879.645	-161.01
879.811	-279.42
879.978	-541.03
880.144	-76.05
880.31	-25.86
880.477	-197.19
880.643	-266.46
880.809	-21.72
880.975	-55.74
881.142	-567.95
881.308	-74.56
881.474	-5.44
881.64	-61.89
881.806	-128.25
881.972	-68.89
882.138	-70.87
882.304	-180.04
882.47	-309.75
882.636	-1023.57
882.802	-276.35
882.968	-20.15
883.134	-7.66
883.3	-6.49
883.466	18.38
883.632	34.8
883.798	-41.4
883.964	-59.44
884.129	-50.16
884.295	-23.81
884.461	-70.11
884.627	-39.73
884.793	-67.02
884.958	-18.29
885.124	-113.09
885.29	-204.87
885.455	-352.79
885.621	-128.45
885.787	-221.53
885.952	-78.24
886.118	-65.98
886.283	-84.99
886.449	-171.99
886.614	-151.74
886.78	-325.67
886.945	1412.7
887.111	-534.54
887.276	-349.86
887.442	-908.86
887.607	-410.73
887.773	-253.42
887.938	-253.2
888.103	-304.88
888.269	-208.96
888.434	-400.95
888.599	-167.24
888.764	-51.71
888.93	-48.05
889.095	-39.53
889.26	-63.83
889.425	2.67
889.59	62.27
889.756	38.97
889.921	41.79
890.086	97.13
890.251	52.06
890.416	-134.73
890.581	-1027.02
890.746	141.7
890.911	413.22
891.076	196.95
891.241	-177.43
891.406	63.87
891.571	11.91
891.736	-54.01
891.901	39.16
892.065	76.65
892.23	58.32
892.395	115.22
892.56	224.78
892.725	-223.24
892.889	-1165.24
893.054	-203.71
893.219	-62.68
893.384	1.53
893.548	-35.63
893.713	-33.89
893.878	-11.57
