Data from Ofra_2a_PS_2GT10B_Reflection_1.txt Node
Date: Tue Jul 20 09:39:33 EDT 2021
User: Adam
Spectrometer: FLMT01687
Trigger mode: 0
Integration Time (sec): 9.450000E-1
Scans to average: 3
Electric dark correction enabled: true
Nonlinearity correction enabled: false
Boxcar width: 3
XAxis mode: Wavelengths
Number of Pixels in Spectrum: 3648
>>>>>Begin Spectral Data<<<<<
179.494	537.87
179.716	312.41
179.937	360.99
180.158	1140.23
180.38	-255.52
180.601	30.95
180.823	114.04
181.044	173.01
181.265	72.85
181.486	105.67
181.708	205.43
181.929	16.4
182.15	-288.07
182.372	126.99
182.593	67.04
182.814	188.17
183.035	64.15
183.257	39.85
183.478	55.71
183.699	68.95
183.92	47.97
184.141	35.08
184.363	44.38
184.584	43.88
184.805	46.71
185.026	20.97
185.247	19.05
185.468	43.55
185.689	31.65
185.91	9.33
186.132	22.05
186.353	2.52
186.574	15.37
186.795	7
187.016	8.54
187.237	25.44
187.458	15.09
187.679	-5.36
187.9	24.27
188.121	34.2
188.342	41.02
188.563	32.26
188.784	20.63
189.005	44.37
189.226	44.12
189.447	39.99
189.667	32.17
189.888	47.94
190.109	43.99
190.33	43.64
190.551	27.81
190.772	19.16
190.993	33.42
191.214	36.56
191.434	19.06
191.655	32.12
191.876	38.59
192.097	34.56
192.318	43.03
192.538	34.66
192.759	40.35
192.98	31.08
193.201	43.22
193.421	44.98
193.642	62.03
193.863	62.8
194.083	74.61
194.304	44.82
194.525	57.3
194.745	32.73
194.966	27.99
195.187	19.48
195.407	19.75
195.628	15.64
195.848	21.68
196.069	3.89
196.29	-3.86
196.51	-17.57
196.731	-3.15
196.951	-0.63
197.172	-12.53
197.392	7.2
197.613	16.74
197.833	31.81
198.054	25.54
198.274	5.46
198.495	15.23
198.715	22.48
198.936	12.53
199.156	19.51
199.377	9.04
199.597	13.82
199.817	28.65
200.038	20.66
200.258	26.2
200.479	32.11
200.699	27.17
200.919	15.07
201.14	24.85
201.36	31.09
201.58	29.42
201.801	14.77
202.021	13.65
202.241	14.65
202.461	26.29
202.682	33.39
202.902	31.53
203.122	26.21
203.342	40.18
203.563	42.21
203.783	37.71
204.003	34.36
204.223	24.81
204.443	23.52
204.663	31.43
204.884	12.89
205.104	15.24
205.324	32.12
205.544	39.7
205.764	54.15
205.984	50.67
206.204	45.53
206.424	56.18
206.644	49.23
206.864	41.09
207.084	47.3
207.304	37.56
207.525	43.2
207.745	60.11
207.964	58.36
208.184	54.53
208.404	44.66
208.624	29.61
208.844	15.08
209.064	8.07
209.284	6.48
209.504	15.14
209.724	5.72
209.944	13.18
210.164	24.34
210.384	39.06
210.604	52.32
210.823	33.59
211.043	17.31
211.263	26.23
211.483	20.43
211.703	18.5
211.922	34.91
212.142	35.33
212.362	38.6
212.582	32.66
212.801	19.94
213.021	11.84
213.241	9.51
213.461	-12.82
213.68	-10
213.9	-7.4
214.12	-1
214.339	8.49
214.559	22.02
214.779	30.12
214.998	41.27
215.218	42.55
215.438	48.58
215.657	58.96
215.877	66.7
216.096	63.7
216.316	47.65
216.535	35.82
216.755	24.32
216.974	17.59
217.194	6.16
217.413	9.93
217.633	14.8
217.852	17.28
218.072	17.61
218.291	31.33
218.511	23.03
218.73	18.43
218.95	25.29
219.169	17.1
219.389	27.24
219.608	41.02
219.827	29.45
220.047	46.46
220.266	45.79
220.485	40.96
220.705	38.41
220.924	31.59
221.143	19.51
221.363	18.13
221.582	16.59
221.801	26.15
222.021	21.72
222.24	25.82
222.459	24.19
222.678	20.35
222.897	36.7
223.117	38.86
223.336	32.86
223.555	23.83
223.774	27.64
223.993	43.91
224.213	47.69
224.432	54.13
224.651	52.31
224.87	50.68
225.089	54.71
225.308	42.85
225.527	36.1
225.746	24.36
225.965	18
226.184	12.93
226.404	-0.03
226.623	18.56
226.842	29.1
227.061	24.17
227.28	49.43
227.499	44.58
227.718	34.8
227.936	39.92
228.155	31.69
228.374	30.65
228.593	36.78
228.812	24.79
229.031	22.28
229.25	43.46
229.469	47.85
229.688	57.28
229.907	60.76
230.125	53.11
230.344	50.12
230.563	52.29
230.782	40.8
231.001	44.67
231.22	37.07
231.438	37.77
231.657	40.34
231.876	45.39
232.095	44.08
232.313	43.48
232.532	30.45
232.751	37.22
232.969	37.55
233.188	47.01
233.407	58.33
233.625	57.5
233.844	54.04
234.063	52.38
234.281	44.33
234.5	35.94
234.719	28.04
234.937	20.17
235.156	12.17
235.374	16.76
235.593	23.02
235.811	13.35
236.03	7.25
236.249	10.34
236.467	6.79
236.686	23.85
236.904	6.16
237.123	17.42
237.341	24.01
237.559	33.18
237.778	33.79
237.996	38.93
238.215	34.24
238.433	44.64
238.652	41.26
238.87	54.03
239.088	43.85
239.307	45.72
239.525	32.45
239.743	25.47
239.962	28.28
240.18	25.83
240.398	5.74
240.617	21.16
240.835	19.14
241.053	38.31
241.271	44.61
241.49	32.32
241.708	34.38
241.926	31.97
242.144	29.46
242.363	26.11
242.581	25.17
242.799	17.19
243.017	25.76
243.235	21.11
243.453	31.12
243.672	26.52
243.89	34.46
244.108	35.95
244.326	36.96
244.544	34.58
244.762	27.82
244.98	26.28
245.198	24.77
245.416	21.04
245.634	23.89
245.852	34.83
246.07	38.86
246.288	52.4
246.506	53.65
246.724	60.33
246.942	62.56
247.16	40.68
247.378	32.67
247.596	38.7
247.814	23.55
248.032	22.04
248.25	21.07
248.468	15.01
248.685	30.7
248.903	26.25
249.121	18.53
249.339	27.53
249.557	26.22
249.775	11.44
249.992	9.24
250.21	-0.02
250.428	2.97
250.646	6.13
250.863	10.74
251.081	3.12
251.299	29.54
251.517	24.73
251.734	32.99
251.952	49.77
252.17	32.41
252.387	30.24
252.605	34.12
252.823	16.19
253.04	18.19
253.258	11.69
253.475	5.56
253.693	25.93
253.911	19.95
254.128	21.19
254.346	13.72
254.563	13.83
254.781	11.06
254.998	8.94
255.216	3.75
255.433	1.15
255.651	1.57
255.868	15.03
256.086	21.6
256.303	24.6
256.521	20.3
256.738	23.47
256.956	26.08
257.173	30.29
257.39	33.43
257.608	30.36
257.825	34.71
258.043	36.4
258.26	32.74
258.477	39.13
258.695	37.82
258.912	37.58
259.129	35
259.346	30.76
259.564	30.61
259.781	34.2
259.998	36.3
260.216	46.01
260.433	45.48
260.65	49.43
260.867	41.75
261.084	39.05
261.302	28.99
261.519	4.75
261.736	-5.52
261.953	-18.99
262.17	-17.06
262.387	-9.63
262.604	-27.23
262.822	-17.15
263.039	-1.55
263.256	-3.4
263.473	0.95
263.69	8.32
263.907	7.16
264.124	13.24
264.341	16.34
264.558	13.83
264.775	18.5
264.992	17.27
265.209	16.17
265.426	22.76
265.643	23.28
265.86	21.85
266.077	24.84
266.294	20.83
266.51	21.89
266.727	17.21
266.944	6.6
267.161	11.04
267.378	13.86
267.595	4.53
267.812	4.23
268.028	10.07
268.245	11.14
268.462	14.45
268.679	10.63
268.896	13.13
269.112	28.28
269.329	31.67
269.546	30.17
269.763	34.11
269.979	34.07
270.196	35.92
270.413	32.61
270.629	20.19
270.846	20.47
271.063	21.71
271.279	11.52
271.496	0.69
271.712	-0.36
271.929	9.51
272.146	21.04
272.362	8.12
272.579	7.6
272.795	11.54
273.012	16.68
273.228	15.04
273.445	4.23
273.661	-3.05
273.878	7.91
274.094	10.64
274.311	13.28
274.527	11.06
274.744	14.63
274.96	23.4
275.177	32.7
275.393	37.15
275.609	33.92
275.826	35.97
276.042	60.72
276.259	57.21
276.475	44.08
276.691	35.09
276.908	32.08
277.124	33.49
277.34	27.58
277.557	10.37
277.773	9.37
277.989	10.21
278.205	11.02
278.422	15.66
278.638	17.87
278.854	27.45
279.07	27.87
279.286	28.67
279.503	34.45
279.719	43.87
279.935	29.94
280.151	39.86
280.367	31.06
280.583	31.45
280.799	28.09
281.016	22.71
281.232	3.81
281.448	14.46
281.664	-3.62
281.88	4.45
282.096	7.27
282.312	0.07
282.528	-8.59
282.744	4.28
282.96	-0.2
283.176	10.51
283.392	25.94
283.608	27.13
283.824	22.62
284.04	36.53
284.256	42.36
284.471	42.69
284.687	32.84
284.903	13.31
285.119	-0.96
285.335	9.82
285.551	15.94
285.767	12.02
285.982	11.54
286.198	12.27
286.414	24.16
286.63	38.25
286.846	35.36
287.061	27.61
287.277	25.9
287.493	17.25
287.709	20.6
287.924	26.5
288.14	23.4
288.356	33.02
288.571	21.16
288.787	20.45
289.003	41.92
289.218	33.82
289.434	23.48
289.65	23.26
289.865	18.2
290.081	23.46
290.296	26.19
290.512	19.13
290.727	24.79
290.943	22.79
291.159	11.23
291.374	8.91
291.59	6.47
291.805	-1.01
292.021	-6.71
292.236	-1.9
292.451	4.81
292.667	19.74
292.882	21.09
293.098	38.68
293.313	41.82
293.529	37.69
293.744	25.11
293.959	25.53
294.175	14.63
294.39	14.56
294.605	7.59
294.821	4.06
295.036	10.68
295.251	29.79
295.467	31.3
295.682	37.52
295.897	31.01
296.112	30.23
296.328	25.84
296.543	20.47
296.758	14.3
296.973	15.99
297.188	16.77
297.404	31.84
297.619	30.83
297.834	42.3
298.049	50.61
298.264	43.29
298.479	33.37
298.694	33.85
298.909	23.79
299.125	28.67
299.34	23.41
299.555	24.25
299.77	24.25
299.985	23.01
300.2	21.63
300.415	22.21
300.63	13.12
300.845	15.23
301.06	14.69
301.275	23.33
301.49	27.38
301.704	28.85
301.919	21.5
302.134	19.03
302.349	17.18
302.564	12.46
302.779	2.42
302.994	-2.11
303.209	-20.95
303.423	5.16
303.638	2.16
303.853	12.61
304.068	17.91
304.283	19.9
304.497	26.06
304.712	29.66
304.927	15.48
305.142	22.36
305.356	20.53
305.571	22.94
305.786	25.11
306	23.62
306.215	24.28
306.43	39.94
306.644	41.07
306.859	36.91
307.074	28.52
307.288	24.12
307.503	22.01
307.717	21.53
307.932	14.5
308.147	14.15
308.361	17.76
308.576	19.37
308.79	23.25
309.005	24.49
309.219	32.51
309.434	29.09
309.648	24.1
309.863	23.83
310.077	21.87
310.292	24.01
310.506	42.56
310.72	40.63
310.935	38.91
311.149	38.32
311.364	37.41
311.578	37.57
311.792	30.52
312.007	14.71
312.221	18.03
312.435	21.98
312.649	30.27
312.864	23.95
313.078	40.94
313.292	44.88
313.507	47.86
313.721	41.69
313.935	61.11
314.149	44.01
314.363	45.87
314.578	57.01
314.792	55.22
315.006	51.44
315.22	49.49
315.434	35.21
315.648	30.99
315.862	32.19
316.077	17.16
316.291	14.07
316.505	12.09
316.719	7.4
316.933	8.47
317.147	13.77
317.361	13.03
317.575	11.32
317.789	20.32
318.003	22.38
318.217	24.41
318.431	20.62
318.645	18.79
318.859	17.59
319.073	16.11
319.287	14.46
319.5	18.13
319.714	21.2
319.928	25.35
320.142	23.06
320.356	37.22
320.57	35.52
320.784	32.15
320.997	32.91
321.211	26.84
321.425	22.7
321.639	26.68
321.853	14.19
322.066	15.99
322.28	19.77
322.494	14.74
322.707	20.19
322.921	23.32
323.135	25.34
323.349	27.52
323.562	24.6
323.776	30.86
323.989	29.28
324.203	28.87
324.417	32.2
324.63	24.82
324.844	14.78
325.057	25.87
325.271	17.15
325.485	22.22
325.698	12.61
325.912	22.13
326.125	29.12
326.339	39.72
326.552	38.62
326.766	34.39
326.979	38.95
327.193	46.21
327.406	37.83
327.619	26.4
327.833	20.4
328.046	13.53
328.26	22.97
328.473	17.69
328.686	21.62
328.9	15.52
329.113	21.59
329.326	20.97
329.54	18.39
329.753	15.09
329.966	17.14
330.179	20.06
330.393	22.97
330.606	31.12
330.819	33.65
331.032	41.02
331.246	47.41
331.459	48.61
331.672	43.3
331.885	44.81
332.098	45.18
332.311	35.71
332.525	25.62
332.738	18.17
332.951	13.42
333.164	0.57
333.377	-7.96
333.59	-0.52
333.803	15.66
334.016	14.94
334.229	18.93
334.442	25.42
334.655	40.63
334.868	52.55
335.081	49.49
335.294	35.65
335.507	46.79
335.72	43.64
335.933	40.9
336.146	37.91
336.359	28.81
336.572	26.31
336.785	34.25
336.997	30.66
337.21	31.55
337.423	31.57
337.636	33.08
337.849	31.08
338.062	25.91
338.274	32.38
338.487	20.54
338.7	21.85
338.913	21.11
339.125	21.58
339.338	24.37
339.551	28.32
339.763	19.83
339.976	22.02
340.189	17.28
340.402	14.27
340.614	18.53
340.827	6.31
341.039	5.96
341.252	13.04
341.465	4.95
341.677	7.83
341.89	15.65
342.102	13.39
342.315	25.52
342.527	17.9
342.74	-1
342.952	7.44
343.165	10.16
343.377	10.01
343.59	12.47
343.802	11.77
344.015	22.36
344.227	29.9
344.44	30.81
344.652	38.46
344.864	38.78
345.077	28.15
345.289	30.21
345.502	28.51
345.714	30.83
345.926	31.34
346.139	20.32
346.351	14.35
346.563	19.39
346.775	13.28
346.988	16.15
347.2	21.57
347.412	24.52
347.624	20.86
347.837	24
348.049	29.36
348.261	30.69
348.473	18.63
348.685	19.02
348.897	13.83
349.11	23.11
349.322	8.16
349.534	1.94
349.746	1.61
349.958	11.86
350.17	5.87
350.382	8.59
350.594	1.66
350.806	16.04
351.018	20.82
351.23	21.82
351.442	21.73
351.654	29.76
351.866	30.46
352.078	30.34
352.29	39.49
352.502	40.59
352.714	42.79
352.926	48.07
353.138	36.31
353.35	26.08
353.561	25.58
353.773	19.35
353.985	21.23
354.197	15.18
354.409	19.5
354.621	20.73
354.832	21.68
355.044	27.04
355.256	18.72
355.468	11.27
355.679	20.04
355.891	10.53
356.103	11.66
356.314	20.44
356.526	18.68
356.738	15.58
356.949	16.37
357.161	6.78
357.373	12.61
357.584	19.79
357.796	10.01
358.008	9.3
358.219	19.62
358.431	23.41
358.642	28.74
358.854	22.56
359.065	15.08
359.277	16.49
359.488	9.83
359.7	9.09
359.911	-0.5
360.123	4.03
360.334	4.06
360.546	-6.9
360.757	2.73
360.969	16.41
361.18	17.44
361.391	23.78
361.603	24.85
361.814	28.8
362.025	36.44
362.237	37.39
362.448	34.61
362.659	29.7
362.871	32.19
363.082	31.33
363.293	29.61
363.504	33.13
363.716	34.25
363.927	30.69
364.138	31.49
364.349	29.79
364.56	31.35
364.772	29.81
364.983	25.77
365.194	24.4
365.405	28.42
365.616	30.09
365.827	23.79
366.038	22.16
366.25	20.61
366.461	24.36
366.672	18.74
366.883	17.26
367.094	20.41
367.305	20.24
367.516	14.54
367.727	19.7
367.938	17.61
368.149	18.34
368.36	19.98
368.571	16.06
368.781	16.77
368.992	18.81
369.203	14.84
369.414	8.9
369.625	7.91
369.836	9.44
370.047	9.7
370.258	10.97
370.468	6.29
370.679	7.8
370.89	28.1
371.101	26.38
371.312	23.79
371.522	26.8
371.733	25.86
371.944	34.46
372.155	23.88
372.365	8.66
372.576	11.51
372.787	1.88
372.997	-4.29
373.208	4.6
373.419	0.56
373.629	19.81
373.84	15.77
374.05	15.76
374.261	18.38
374.472	20.52
374.682	17.1
374.893	10.43
375.103	8.15
375.314	7.48
375.524	5.83
375.735	4.99
375.945	7.34
376.156	5.31
376.366	10.46
376.577	16.03
376.787	22.94
376.997	19.65
377.208	19.99
377.418	20.72
377.629	17.55
377.839	23.52
378.049	22.88
378.26	18.76
378.47	26.53
378.68	30.82
378.89	26.5
379.101	19.86
379.311	12.74
379.521	15.2
379.732	9.62
379.942	6.27
380.152	9.04
380.362	14.1
380.572	22.05
380.783	17.77
380.993	9.28
381.203	14.89
381.413	18.74
381.623	17.1
381.833	11.99
382.043	12.09
382.253	20.6
382.463	23.29
382.674	21.45
382.884	19.39
383.094	16.88
383.304	16.14
383.514	19.73
383.724	14.4
383.934	10.91
384.144	13.68
384.353	14.33
384.563	12.73
384.773	16.8
384.983	14.18
385.193	14.42
385.403	15.37
385.613	13.31
385.823	11.25
386.033	15.08
386.242	12.5
386.452	10.85
386.662	10.11
386.872	8.61
387.082	6.75
387.291	7
387.501	5.47
387.711	4.21
387.921	5.02
388.13	3.4
388.34	4.41
388.55	5.55
388.759	6.5
388.969	3.41
389.179	6.76
389.388	7
389.598	5.11
389.807	4.55
390.017	3.75
390.227	2.31
390.436	2.86
390.646	1.94
390.855	2.23
391.065	5.11
391.274	4.8
391.484	4.86
391.693	5.89
391.903	5.7
392.112	4.7
392.322	4.76
392.531	2.9
392.74	1.67
392.95	1.5
393.159	0.85
393.369	0.81
393.578	1.33
393.787	0.93
393.997	2.57
394.206	4
394.415	4.63
394.625	3.47
394.834	3.74
395.043	4.08
395.252	3.93
395.462	3.44
395.671	3.53
395.88	3.01
396.089	3.5
396.298	3.56
396.508	2.51
396.717	2.01
396.926	1.68
397.135	0.91
397.344	0.6
397.553	0.88
397.762	0.66
397.971	1.2
398.181	1.19
398.39	1.56
398.599	1.9
398.808	2.31
399.017	2.14
399.226	2.2
399.435	2.05
399.644	2.08
399.853	1.89
400.062	1.59
400.27	1.76
400.479	1.67
400.688	1.68
400.897	1.75
401.106	1.89
401.315	1.91
401.524	2.19
401.733	1.81
401.941	1.84
402.15	1.62
402.359	1.63
402.568	1.52
402.777	1.33
402.985	1.17
403.194	1.21
403.403	1.03
403.612	1.14
403.82	1.24
404.029	1.36
404.238	1.48
404.446	1.49
404.655	1.46
404.864	1.49
405.072	1.46
405.281	1.28
405.489	1.24
405.698	1.19
405.906	1.16
406.115	1.28
406.324	1.22
406.532	1.21
406.741	1.24
406.949	1.14
407.158	1.21
407.366	1.26
407.574	1.24
407.783	1.29
407.991	1.17
408.2	1.15
408.408	1.24
408.617	1.15
408.825	1.17
409.033	1.16
409.242	1.13
409.45	1.29
409.658	1.26
409.867	1.2
410.075	1.25
410.283	1.16
410.491	1.13
410.7	1.15
410.908	1.15
411.116	1.14
411.324	1.17
411.533	1.12
411.741	1.18
411.949	1.19
412.157	1.23
412.365	1.17
412.573	1.13
412.781	1.16
412.99	1.23
413.198	1.19
413.406	1.15
413.614	1.13
413.822	1.11
414.03	1.13
414.238	1.16
414.446	1.1
414.654	1.1
414.862	1.11
415.07	1.14
415.278	1.17
415.486	1.28
415.694	1.15
415.902	1.09
416.109	1.13
416.317	1.06
416.525	1.06
416.733	1.04
416.941	0.92
417.149	0.99
417.357	1.08
417.564	0.97
417.772	0.99
417.98	0.86
418.188	0.75
418.395	0.78
418.603	0.67
418.811	0.58
419.019	0.69
419.226	0.84
419.434	0.87
419.642	1
419.849	1.01
420.057	1.11
420.265	1.18
420.472	1.06
420.68	0.95
420.887	0.97
421.095	1.01
421.302	1.03
421.51	1.04
421.717	1.05
421.925	1.08
422.132	1.04
422.34	1.04
422.547	0.96
422.755	0.92
422.962	0.84
423.17	0.71
423.377	0.78
423.585	0.76
423.792	0.78
423.999	0.76
424.207	0.74
424.414	0.87
424.621	1.08
424.829	1.04
425.036	1.12
425.243	1.12
425.451	1.13
425.658	1.17
425.865	1.05
426.072	0.95
426.28	0.92
426.487	0.81
426.694	0.74
426.901	0.68
427.108	0.69
427.315	0.71
427.523	0.66
427.73	0.74
427.937	0.81
428.144	0.85
428.351	0.99
428.558	0.91
428.765	0.86
428.972	0.9
429.179	0.79
429.386	0.88
429.593	0.86
429.8	0.85
430.007	0.93
430.214	1
430.421	0.98
430.628	0.89
430.835	0.77
431.042	0.8
431.249	0.8
431.456	0.8
431.662	0.73
431.869	0.76
432.076	0.93
432.283	0.89
432.49	0.87
432.697	0.84
432.903	0.81
433.11	0.91
433.317	0.9
433.524	0.81
433.73	0.85
433.937	0.84
434.144	0.93
434.35	0.94
434.557	0.8
434.764	0.86
434.97	0.92
435.177	0.96
435.384	1
435.59	0.93
435.797	0.93
436.003	0.97
436.21	0.87
436.416	0.89
436.623	0.9
436.829	0.9
437.036	0.94
437.242	0.94
437.449	1.01
437.655	1.02
437.862	1.01
438.068	1.05
438.275	1.01
438.481	1.03
438.687	1.07
438.894	1.03
439.1	1.03
439.307	1.03
439.513	0.98
439.719	1.06
439.926	1.01
440.132	1.02
440.338	1.07
440.544	1.08
440.751	1.03
440.957	0.96
441.163	0.96
441.369	0.99
441.575	0.97
441.782	0.92
441.988	0.93
442.194	0.99
442.4	1.07
442.606	1.04
442.812	1.04
443.018	1.02
443.224	1.06
443.431	1.08
443.637	1.04
443.843	1.02
444.049	1
444.255	1
444.461	1.01
444.667	1.01
444.873	0.97
445.079	1.01
445.284	0.97
445.49	0.95
445.696	0.96
445.902	1
446.108	0.98
446.314	1.06
446.52	1.07
446.726	1.12
446.931	1.15
447.137	1.14
447.343	1.12
447.549	1.07
447.755	1
447.96	0.96
448.166	0.99
448.372	0.99
448.578	1
448.783	0.99
448.989	1.05
449.195	1.06
449.4	1.1
449.606	1.05
449.812	1.08
450.017	1.11
450.223	1.09
450.428	1.08
450.634	1.11
450.84	1.13
451.045	1.15
451.251	1.19
451.456	1.13
451.662	1.14
451.867	1.16
452.073	1.1
452.278	1.05
452.483	1.07
452.689	1.03
452.894	1.02
453.1	1
453.305	0.96
453.51	0.99
453.716	1
453.921	0.97
454.127	0.97
454.332	1
454.537	1.03
454.742	1.08
454.948	1.09
455.153	1.11
455.358	1.16
455.563	1.17
455.769	1.14
455.974	1.08
456.179	1.02
456.384	1.04
456.589	1.09
456.795	1
457	1.02
457.205	1.01
457.41	1.06
457.615	1.11
457.82	1.14
458.025	1.11
458.23	1.14
458.435	1.09
458.64	1.2
458.845	1.19
459.05	1.18
459.255	1.15
459.46	1.13
459.665	1.23
459.87	1.25
460.075	1.18
460.28	1.21
460.485	1.22
460.69	1.17
460.895	1.19
461.099	1.16
461.304	1.17
461.509	1.11
461.714	1.12
461.919	1.12
462.123	1.22
462.328	1.2
462.533	1.2
462.738	1.2
462.942	1.31
463.147	1.28
463.352	1.27
463.556	1.26
463.761	1.27
463.966	1.3
464.17	1.32
464.375	1.26
464.58	1.26
464.784	1.27
464.989	1.23
465.193	1.25
465.398	1.27
465.602	1.25
465.807	1.28
466.011	1.29
466.216	1.29
466.42	1.31
466.625	1.3
466.829	1.32
467.034	1.35
467.238	1.4
467.443	1.44
467.647	1.43
467.851	1.45
468.056	1.45
468.26	1.38
468.464	1.39
468.669	1.35
468.873	1.31
469.077	1.38
469.282	1.4
469.486	1.43
469.69	1.48
469.894	1.47
470.099	1.45
470.303	1.45
470.507	1.39
470.711	1.36
470.915	1.38
471.119	1.33
471.324	1.32
471.528	1.38
471.732	1.39
471.936	1.45
472.14	1.45
472.344	1.47
472.548	1.5
472.752	1.56
472.956	1.55
473.16	1.57
473.364	1.5
473.568	1.54
473.772	1.55
473.976	1.53
474.18	1.49
474.384	1.5
474.588	1.52
474.792	1.52
474.995	1.46
475.199	1.43
475.403	1.46
475.607	1.49
475.811	1.51
476.015	1.56
476.218	1.58
476.422	1.63
476.626	1.6
476.83	1.56
477.033	1.57
477.237	1.56
477.441	1.51
477.644	1.51
477.848	1.52
478.052	1.58
478.255	1.6
478.459	1.64
478.663	1.62
478.866	1.65
479.07	1.68
479.273	1.63
479.477	1.64
479.681	1.65
479.884	1.56
480.088	1.59
480.291	1.61
480.495	1.61
480.698	1.62
480.901	1.62
481.105	1.68
481.308	1.73
481.512	1.73
481.715	1.73
481.919	1.73
482.122	1.77
482.325	1.78
482.529	1.79
482.732	1.81
482.935	1.82
483.138	1.8
483.342	1.8
483.545	1.79
483.748	1.81
483.952	1.8
484.155	1.81
484.358	1.81
484.561	1.85
484.764	1.88
484.967	1.91
485.171	1.89
485.374	1.9
485.577	1.91
485.78	1.91
485.983	1.9
486.186	1.89
486.389	1.87
486.592	1.91
486.795	1.87
486.998	1.88
487.201	1.91
487.404	1.95
487.607	1.94
487.81	1.98
488.013	1.96
488.216	1.99
488.419	1.95
488.622	1.92
488.825	1.89
489.028	1.87
489.231	1.84
489.433	1.83
489.636	1.79
489.839	1.83
490.042	1.86
490.245	1.88
490.447	1.86
490.65	1.89
490.853	1.91
491.056	1.95
491.258	1.94
491.461	1.95
491.664	1.89
491.866	1.93
492.069	1.93
492.272	1.91
492.474	1.89
492.677	1.89
492.879	1.9
493.082	1.97
493.285	1.96
493.487	1.97
493.69	1.99
493.892	2.04
494.095	2.03
494.297	2.04
494.5	2.04
494.702	2.06
494.905	2.05
495.107	2.06
495.309	2.02
495.512	2.06
495.714	2.09
495.917	2.07
496.119	2.1
496.321	2.13
496.524	2.12
496.726	2.16
496.928	2.2
497.13	2.19
497.333	2.24
497.535	2.24
497.737	2.21
497.939	2.23
498.142	2.19
498.344	2.16
498.546	2.19
498.748	2.17
498.95	2.16
499.152	2.16
499.355	2.16
499.557	2.22
499.759	2.26
499.961	2.25
500.163	2.29
500.365	2.31
500.567	2.35
500.769	2.41
500.971	2.39
501.173	2.38
501.375	2.39
501.577	2.4
501.779	2.43
501.981	2.45
502.183	2.41
502.385	2.43
502.587	2.43
502.788	2.45
502.99	2.45
503.192	2.48
503.394	2.49
503.596	2.56
503.798	2.63
503.999	2.65
504.201	2.66
504.403	2.67
504.605	2.71
504.806	2.73
505.008	2.72
505.21	2.7
505.411	2.77
505.613	2.8
505.815	2.83
506.016	2.83
506.218	2.83
506.42	2.86
506.621	2.89
506.823	2.89
507.024	2.92
507.226	2.94
507.427	2.9
507.629	2.94
507.83	2.94
508.032	2.99
508.233	3
508.435	3
508.636	3.01
508.838	3.07
509.039	3.08
509.24	3.1
509.442	3.05
509.643	3.07
509.845	3.11
510.046	3.15
510.247	3.18
510.448	3.22
510.65	3.25
510.851	3.31
511.052	3.34
511.254	3.34
511.455	3.32
511.656	3.33
511.857	3.34
512.058	3.36
512.26	3.35
512.461	3.38
512.662	3.39
512.863	3.42
513.064	3.42
513.265	3.46
513.466	3.49
513.667	3.5
513.868	3.48
514.069	3.51
514.27	3.53
514.471	3.58
514.672	3.57
514.873	3.61
515.074	3.67
515.275	3.67
515.476	3.68
515.677	3.7
515.878	3.72
516.079	3.76
516.28	3.71
516.481	3.7
516.682	3.76
516.882	3.78
517.083	3.79
517.284	3.78
517.485	3.76
517.686	3.79
517.886	3.79
518.087	3.78
518.288	3.78
518.488	3.79
518.689	3.79
518.89	3.85
519.091	3.89
519.291	3.92
519.492	3.91
519.692	3.95
519.893	3.96
520.094	3.98
520.294	3.94
520.495	3.96
520.695	3.98
520.896	4.03
521.096	4.03
521.297	4.04
521.497	4.06
521.698	4.09
521.898	4.08
522.099	4.09
522.299	4.09
522.499	4.12
522.7	4.13
522.9	4.16
523.101	4.16
523.301	4.18
523.501	4.18
523.702	4.16
523.902	4.17
524.102	4.18
524.302	4.18
524.503	4.18
524.703	4.21
524.903	4.23
525.103	4.28
525.304	4.29
525.504	4.27
525.704	4.27
525.904	4.29
526.104	4.3
526.304	4.31
526.504	4.31
526.705	4.32
526.905	4.37
527.105	4.39
527.305	4.41
527.505	4.4
527.705	4.39
527.905	4.41
528.105	4.4
528.305	4.41
528.505	4.4
528.705	4.42
528.905	4.41
529.105	4.46
529.304	4.48
529.504	4.48
529.704	4.51
529.904	4.58
530.104	4.58
530.304	4.64
530.503	4.62
530.703	4.62
530.903	4.67
531.103	4.67
531.303	4.67
531.502	4.68
531.702	4.68
531.902	4.71
532.101	4.72
532.301	4.72
532.501	4.75
532.7	4.75
532.9	4.79
533.1	4.78
533.299	4.83
533.499	4.87
533.698	4.91
533.898	4.9
534.097	4.93
534.297	4.9
534.496	4.92
534.696	4.91
534.895	4.92
535.095	4.96
535.294	4.99
535.494	5
535.693	5.06
535.892	5.08
536.092	5.09
536.291	5.12
536.491	5.11
536.69	5.12
536.889	5.14
537.088	5.16
537.288	5.22
537.487	5.25
537.686	5.28
537.886	5.31
538.085	5.36
538.284	5.37
538.483	5.41
538.682	5.4
538.882	5.41
539.081	5.44
539.28	5.47
539.479	5.5
539.678	5.55
539.877	5.57
540.076	5.61
540.275	5.65
540.474	5.63
540.673	5.64
540.872	5.68
541.071	5.69
541.27	5.71
541.469	5.76
541.668	5.81
541.867	5.9
542.066	5.93
542.265	5.95
542.464	5.99
542.663	6.03
542.862	6.06
543.06	6.07
543.259	6.08
543.458	6.14
543.657	6.2
543.856	6.24
544.054	6.3
544.253	6.31
544.452	6.34
544.651	6.38
544.849	6.38
545.048	6.4
545.247	6.44
545.445	6.45
545.644	6.5
545.843	6.56
546.041	6.6
546.24	6.67
546.438	6.72
546.637	6.77
546.836	6.82
547.034	6.88
547.233	6.92
547.431	6.96
547.63	6.99
547.828	7.03
548.027	7.03
548.225	7.08
548.423	7.16
548.622	7.2
548.82	7.25
549.019	7.3
549.217	7.41
549.415	7.49
549.614	7.52
549.812	7.55
550.01	7.61
550.209	7.67
550.407	7.76
550.605	7.8
550.803	7.83
551.002	7.91
551.2	8.01
551.398	8.08
551.596	8.1
551.794	8.17
551.993	8.2
552.191	8.31
552.389	8.41
552.587	8.45
552.785	8.52
552.983	8.64
553.181	8.68
553.379	8.76
553.577	8.84
553.775	8.87
553.973	8.95
554.171	8.99
554.369	9.04
554.567	9.14
554.765	9.19
554.963	9.23
555.161	9.3
555.359	9.36
555.557	9.5
555.755	9.58
555.952	9.63
556.15	9.73
556.348	9.82
556.546	9.94
556.744	10.03
556.941	10.1
557.139	10.22
557.337	10.28
557.535	10.38
557.732	10.48
557.93	10.54
558.128	10.62
558.325	10.67
558.523	10.73
558.721	10.87
558.918	10.96
559.116	11.04
559.313	11.19
559.511	11.26
559.708	11.37
559.906	11.45
560.104	11.51
560.301	11.62
560.498	11.7
560.696	11.73
560.893	11.82
561.091	11.91
561.288	12.02
561.486	12.14
561.683	12.19
561.88	12.29
562.078	12.36
562.275	12.46
562.473	12.53
562.67	12.6
562.867	12.68
563.064	12.81
563.262	12.94
563.459	13.05
563.656	13.19
563.853	13.31
564.051	13.39
564.248	13.47
564.445	13.53
564.642	13.58
564.839	13.67
565.036	13.74
565.234	13.86
565.431	13.98
565.628	14.08
565.825	14.19
566.022	14.25
566.219	14.35
566.416	14.42
566.613	14.48
566.81	14.51
567.007	14.56
567.204	14.6
567.401	14.71
567.598	14.74
567.795	14.82
567.991	14.87
568.188	14.94
568.385	15.07
568.582	15.16
568.779	15.23
568.976	15.31
569.172	15.41
569.369	15.45
569.566	15.54
569.763	15.57
569.96	15.61
570.156	15.62
570.353	15.67
570.55	15.71
570.746	15.79
570.943	15.84
571.14	15.89
571.336	15.95
571.533	16.01
571.729	16.05
571.926	16.08
572.123	16.05
572.319	16.08
572.516	16.12
572.712	16.16
572.909	16.21
573.105	16.25
573.302	16.23
573.498	16.32
573.695	16.34
573.891	16.36
574.087	16.39
574.284	16.39
574.48	16.41
574.677	16.47
574.873	16.51
575.069	16.58
575.266	16.6
575.462	16.61
575.658	16.65
575.854	16.68
576.051	16.68
576.247	16.66
576.443	16.67
576.639	16.67
576.835	16.65
577.032	16.66
577.228	16.67
577.424	16.72
577.62	16.77
577.816	16.77
578.012	16.77
578.208	16.82
578.404	16.82
578.6	16.82
578.796	16.83
578.993	16.79
579.189	16.77
579.384	16.76
579.58	16.75
579.776	16.72
579.972	16.72
580.168	16.7
580.364	16.69
580.56	16.68
580.756	16.64
580.952	16.65
581.148	16.67
581.343	16.68
581.539	16.68
581.735	16.7
581.931	16.7
582.127	16.7
582.322	16.69
582.518	16.67
582.714	16.65
582.909	16.66
583.105	16.6
583.301	16.54
583.496	16.56
583.692	16.5
583.888	16.48
584.083	16.51
584.279	16.48
584.474	16.51
584.67	16.59
584.866	16.59
585.061	16.64
585.257	16.65
585.452	16.6
585.648	16.6
585.843	16.57
586.039	16.53
586.234	16.51
586.429	16.46
586.625	16.42
586.82	16.42
587.015	16.38
587.211	16.39
587.406	16.4
587.601	16.43
587.797	16.45
587.992	16.47
588.187	16.5
588.383	16.53
588.578	16.54
588.773	16.53
588.968	16.56
589.163	16.63
589.359	16.63
589.554	16.62
589.749	16.64
589.944	16.73
590.139	16.78
590.334	16.79
590.529	16.8
590.724	16.85
590.919	16.89
591.114	16.9
591.309	16.88
591.504	16.9
591.699	16.9
591.894	16.89
592.089	16.93
592.284	16.96
592.479	17.02
592.674	17.06
592.869	17.1
593.064	17.21
593.259	17.25
593.454	17.31
593.648	17.33
593.843	17.41
594.038	17.43
594.233	17.48
594.428	17.53
594.622	17.56
594.817	17.57
595.012	17.69
595.206	17.73
595.401	17.8
595.596	17.88
595.79	17.9
595.985	18
596.18	18.16
596.374	18.17
596.569	18.25
596.763	18.37
596.958	18.39
597.153	18.48
597.347	18.51
597.542	18.54
597.736	18.65
597.931	18.68
598.125	18.72
598.319	18.8
598.514	18.83
598.708	18.91
598.903	18.99
599.097	19.03
599.291	19.11
599.486	19.14
599.68	19.17
599.874	19.24
600.069	19.28
600.263	19.27
600.457	19.32
600.651	19.37
600.846	19.45
601.04	19.49
601.234	19.57
601.428	19.61
601.622	19.68
601.817	19.71
602.011	19.74
602.205	19.75
602.399	19.77
602.593	19.73
602.787	19.76
602.981	19.75
603.175	19.73
603.369	19.75
603.563	19.76
603.757	19.76
603.951	19.77
604.145	19.74
604.339	19.72
604.533	19.73
604.727	19.65
604.921	19.63
605.115	19.6
605.309	19.58
605.502	19.57
605.696	19.57
605.89	19.58
606.084	19.6
606.278	19.59
606.471	19.55
606.665	19.53
606.859	19.5
607.053	19.44
607.246	19.35
607.44	19.29
607.634	19.22
607.827	19.16
608.021	19.11
608.214	19.07
608.408	19.01
608.602	18.98
608.795	18.92
608.989	18.91
609.182	18.92
609.376	18.81
609.569	18.71
609.763	18.71
609.956	18.61
610.15	18.58
610.343	18.47
610.537	18.37
610.73	18.36
610.923	18.37
611.117	18.27
611.31	18.22
611.504	18.16
611.697	18.1
611.89	18.02
612.083	17.94
612.277	17.86
612.47	17.79
612.663	17.77
612.856	17.71
613.05	17.67
613.243	17.61
613.436	17.56
613.629	17.46
613.822	17.41
614.015	17.32
614.209	17.25
614.402	17.18
614.595	17.1
614.788	17.04
614.981	17.03
615.174	16.93
615.367	16.88
615.56	16.78
615.753	16.71
615.946	16.7
616.139	16.6
616.332	16.53
616.525	16.51
616.718	16.48
616.911	16.47
617.103	16.4
617.296	16.33
617.489	16.31
617.682	16.31
617.875	16.3
618.067	16.22
618.26	16.14
618.453	16.1
618.646	16.07
618.838	16.03
619.031	15.98
619.224	15.9
619.417	15.85
619.609	15.88
619.802	15.87
619.994	15.83
620.187	15.81
620.38	15.74
620.572	15.75
620.765	15.77
620.957	15.67
621.15	15.65
621.342	15.63
621.535	15.58
621.727	15.53
621.92	15.5
622.112	15.46
622.305	15.46
622.497	15.39
622.69	15.34
622.882	15.36
623.074	15.34
623.267	15.27
623.459	15.26
623.651	15.24
623.844	15.27
624.036	15.28
624.228	15.24
624.42	15.25
624.613	15.27
624.805	15.24
624.997	15.22
625.189	15.2
625.381	15.18
625.574	15.15
625.766	15.13
625.958	15.14
626.15	15.13
626.342	15.14
626.534	15.06
626.726	15.02
626.918	14.99
627.11	14.99
627.302	14.9
627.494	14.86
627.686	14.8
627.878	14.8
628.07	14.77
628.262	14.76
628.454	14.71
628.646	14.69
628.838	14.63
629.029	14.58
629.221	14.51
629.413	14.46
629.605	14.39
629.797	14.33
629.989	14.33
630.18	14.29
630.372	14.27
630.564	14.3
630.755	14.32
630.947	14.31
631.139	14.29
631.33	14.2
631.522	14.18
631.714	14.18
631.905	14.11
632.097	14.07
632.289	14
632.48	13.98
632.672	13.94
632.863	13.94
633.055	13.92
633.246	13.91
633.438	13.85
633.629	13.87
633.821	13.82
634.012	13.84
634.203	13.86
634.395	13.84
634.586	13.84
634.777	13.83
634.969	13.86
635.16	13.84
635.351	13.82
635.543	13.76
635.734	13.7
635.925	13.7
636.117	13.67
636.308	13.65
636.499	13.65
636.69	13.67
636.881	13.7
637.073	13.68
637.264	13.64
637.455	13.66
637.646	13.64
637.837	13.6
638.028	13.58
638.219	13.47
638.41	13.5
638.601	13.47
638.792	13.41
638.983	13.33
639.174	13.32
639.365	13.23
639.556	13.22
639.747	13.2
639.938	13.19
640.129	13.19
640.32	13.17
640.511	13.19
640.701	13.17
640.892	13.16
641.083	13.08
641.274	13.1
641.465	13.05
641.655	13.04
641.846	12.96
642.037	12.94
642.228	12.92
642.418	12.93
642.609	12.85
642.8	12.82
642.99	12.82
643.181	12.82
643.372	12.8
643.562	12.75
643.753	12.68
643.943	12.67
644.134	12.62
644.324	12.6
644.515	12.6
644.705	12.58
644.896	12.54
645.086	12.54
645.277	12.52
645.467	12.51
645.658	12.44
645.848	12.38
646.038	12.35
646.229	12.35
646.419	12.34
646.61	12.31
646.8	12.28
646.99	12.27
647.18	12.26
647.371	12.24
647.561	12.19
647.751	12.1
647.941	12.09
648.132	12.13
648.322	12.13
648.512	12.14
648.702	12.11
648.892	12.16
649.082	12.15
649.272	12.1
649.462	12
649.653	11.98
649.843	11.9
650.033	11.86
650.223	11.82
650.413	11.88
650.603	11.89
650.793	11.88
650.983	11.89
651.172	11.92
651.362	11.9
651.552	11.85
651.742	11.77
651.932	11.74
652.122	11.69
652.312	11.52
652.502	11.44
652.691	11.42
652.881	11.4
653.071	11.33
653.261	11.26
653.45	11.23
653.64	11.3
653.83	11.19
654.019	11.08
654.209	10.96
654.399	10.9
654.588	10.83
654.778	10.74
654.968	10.62
655.157	10.56
655.347	10.46
655.536	10.33
655.726	10.24
655.915	10.05
656.105	9.97
656.294	9.81
656.484	9.72
656.673	9.67
656.863	9.59
657.052	9.45
657.241	9.37
657.431	9.23
657.62	9.09
657.809	8.94
657.999	8.77
658.188	8.65
658.377	8.55
658.567	8.43
658.756	8.29
658.945	8.16
659.134	8
659.324	7.86
659.513	7.64
659.702	7.48
659.891	7.32
660.08	7.22
660.269	7.13
660.458	7
660.648	6.9
660.837	6.86
661.026	6.75
661.215	6.68
661.404	6.51
661.593	6.35
661.782	6.25
661.971	6.11
662.16	5.99
662.349	5.86
662.538	5.76
662.726	5.66
662.915	5.59
663.104	5.43
663.293	5.32
663.482	5.21
663.671	5.15
663.86	5.02
664.048	4.92
664.237	4.83
664.426	4.84
664.615	4.74
664.803	4.65
664.992	4.6
665.181	4.57
665.369	4.54
665.558	4.48
665.747	4.43
665.935	4.44
666.124	4.43
666.312	4.31
666.501	4.23
666.69	4.17
666.878	4.15
667.067	4.13
667.255	4.06
667.444	4.08
667.632	4.1
667.82	4.09
668.009	4.13
668.197	4.08
668.386	4.01
668.574	4
668.762	3.92
668.951	3.87
669.139	3.9
669.327	3.84
669.516	3.87
669.704	3.91
669.892	3.89
670.08	3.87
670.269	3.92
670.457	3.87
670.645	3.91
670.833	3.92
671.021	3.89
671.21	3.98
671.398	3.99
671.586	3.95
671.774	4
671.962	4
672.15	3.97
672.338	4.02
672.526	4.02
672.714	4.02
672.902	4.09
673.09	4.09
673.278	4.08
673.466	4.21
673.654	4.21
673.842	4.21
674.03	4.32
674.218	4.36
674.405	4.44
674.593	4.44
674.781	4.41
674.969	4.47
675.157	4.55
675.344	4.54
675.532	4.62
675.72	4.68
675.908	4.79
676.095	4.92
676.283	4.91
676.471	4.93
676.658	5.1
676.846	5.11
677.033	5.13
677.221	5.21
677.409	5.19
677.596	5.32
677.784	5.35
677.971	5.37
678.159	5.49
678.346	5.56
678.534	5.63
678.721	5.7
678.909	5.74
679.096	5.85
679.283	5.91
679.471	5.96
679.658	6.03
679.846	6.14
680.033	6.29
680.22	6.33
680.408	6.42
680.595	6.46
680.782	6.56
680.969	6.62
681.157	6.69
681.344	6.81
681.531	6.98
681.718	7.09
681.905	7.25
682.093	7.36
682.28	7.53
682.467	7.61
682.654	7.64
682.841	7.79
683.028	7.93
683.215	8.05
683.402	8.13
683.589	8.29
683.776	8.48
683.963	8.62
684.15	8.76
684.337	8.95
684.524	9.21
684.711	9.45
684.898	9.65
685.085	9.86
685.271	10.18
685.458	10.37
685.645	10.61
685.832	10.81
686.019	11.07
686.205	11.27
686.392	11.54
686.579	11.7
686.766	12
686.952	12.37
687.139	12.63
687.326	13
687.512	13.35
687.699	13.65
687.886	13.98
688.072	14.33
688.259	14.71
688.445	15.11
688.632	15.55
688.818	15.99
689.005	16.57
689.191	17.1
689.378	17.52
689.564	17.84
689.751	18.37
689.937	18.78
690.124	19.27
690.31	19.67
690.496	20.13
690.683	20.81
690.869	21.41
691.055	21.96
691.242	22.45
691.428	23.06
691.614	23.73
691.8	24.35
691.987	24.92
692.173	25.58
692.359	26.15
692.545	26.82
692.731	27.39
692.918	27.9
693.104	28.46
693.29	29.09
693.476	29.65
693.662	30.29
693.848	30.81
694.034	31.34
694.22	32.07
694.406	32.84
694.592	33.33
694.778	33.98
694.964	34.6
695.15	35.35
695.336	36.1
695.522	36.62
695.708	37.27
695.894	37.97
696.08	38.49
696.265	39.08
696.451	39.71
696.637	40.36
696.823	41.08
697.009	41.64
697.194	42.34
697.38	42.98
697.566	43.62
697.751	44.07
697.937	44.6
698.123	45.09
698.308	45.53
698.494	45.88
698.68	46.48
698.865	47.07
699.051	47.71
699.236	48.36
699.422	48.86
699.607	49.43
699.793	50.02
699.978	50.49
700.164	50.97
700.349	51.4
700.535	51.83
700.72	52.46
700.906	52.92
701.091	53.31
701.276	53.71
701.462	54.24
701.647	54.69
701.832	55.14
702.018	55.34
702.203	55.68
702.388	56.23
702.573	56.85
702.759	57.23
702.944	57.68
703.129	57.94
703.314	58.44
703.499	59.04
703.684	59.4
703.87	59.65
704.055	59.91
704.24	60.24
704.425	60.84
704.61	61.04
704.795	61.38
704.98	61.66
705.165	62.09
705.35	62.47
705.535	62.99
705.72	63.02
705.905	63.39
706.09	63.49
706.275	63.79
706.459	64.03
706.644	64.28
706.829	64.46
707.014	64.82
707.199	65.1
707.384	65.49
707.568	65.92
707.753	66.17
707.938	66.47
708.123	66.63
708.307	67.02
708.492	67.22
708.677	67.5
708.861	67.48
709.046	67.6
709.231	67.85
709.415	68.11
709.6	68.12
709.784	68.48
709.969	68.71
710.153	69.31
710.338	69.72
710.522	69.75
710.707	69.61
710.891	70.08
711.076	70.14
711.26	70.23
711.445	69.93
711.629	70.02
711.813	70.15
711.998	70.47
712.182	70.65
712.366	71
712.551	71.23
712.735	71.42
712.919	71.61
713.103	71.77
713.288	72.15
713.472	71.99
713.656	71.83
713.84	71.94
714.024	72.4
714.208	72.49
714.393	72.77
714.577	72.83
714.761	73.07
714.945	73.25
715.129	73.25
715.313	73.15
715.497	73.33
715.681	73.43
715.865	73.44
716.049	73.45
716.233	73.9
716.417	74.38
716.601	74.51
716.785	74.61
716.968	74.71
717.152	74.95
717.336	75.13
717.52	75.11
717.704	75.2
717.888	75.36
718.071	75.37
718.255	75.49
718.439	75.53
718.622	75.8
718.806	75.71
718.99	75.75
719.174	75.85
719.357	75.93
719.541	76.12
719.724	76.28
719.908	76.29
720.092	76.66
720.275	76.6
720.459	76.7
720.642	76.9
720.826	76.8
721.009	76.57
721.193	76.72
721.376	76.65
721.559	76.5
721.743	76.64
721.926	76.36
722.11	76.63
722.293	76.73
722.476	76.62
722.66	76.89
722.843	77.24
723.026	77.36
723.21	77.64
723.393	77.58
723.576	77.85
723.759	78.26
723.942	78.14
724.126	78.03
724.309	77.95
724.492	77.99
724.675	78.4
724.858	78.76
725.041	78.67
725.224	78.98
725.407	79.02
725.59	79.35
725.774	79.67
725.957	79.79
726.14	79.71
726.322	79.4
726.505	79.51
726.688	79.91
726.871	79.75
727.054	79.86
727.237	79.47
727.42	79.67
727.603	80.12
727.786	80.3
727.968	80.66
728.151	81.01
728.334	80.98
728.517	81.28
728.699	81.42
728.882	82.07
729.065	81.78
729.248	81.31
729.43	80.99
729.613	81.5
729.796	81.44
729.978	81.66
730.161	81.69
730.343	81.95
730.526	82.42
730.708	83.05
730.891	82.84
731.073	82.98
731.256	83.15
731.438	83.12
731.621	83.49
731.803	83.62
731.986	83.39
732.168	83.16
732.35	83.4
732.533	83.42
732.715	83.32
732.898	83.12
733.08	83.72
733.262	84.12
733.444	84.29
733.627	84.5
733.809	84.34
733.991	84.31
734.173	84.25
734.355	84.08
734.538	83.97
734.72	84.41
734.902	84.17
735.084	84.44
735.266	84.59
735.448	84.93
735.63	84.72
735.812	84.82
735.994	84.29
736.176	84.56
736.358	84.5
736.54	84.23
736.722	84.11
736.904	84.29
737.086	84.42
737.268	85.04
737.45	85.28
737.632	84.95
737.814	85.18
737.995	85.39
738.177	85.44
738.359	85.62
738.541	85.59
738.723	85.76
738.904	85.8
739.086	85.83
739.268	86.44
739.449	86.38
739.631	86.77
739.813	86.57
739.994	86.6
740.176	87.13
740.358	87.26
740.539	86.73
740.721	86.35
740.902	85.84
741.084	86.22
741.265	86.07
741.447	85.56
741.628	85.37
741.81	85.63
741.991	86.43
742.172	86.28
742.354	86.37
742.535	86.3
742.717	86.29
742.898	86.58
743.079	86.26
743.261	86.22
743.442	86.55
743.623	86.26
743.804	86.62
743.986	86.67
744.167	86.62
744.348	87.25
744.529	86.81
744.71	86.24
744.891	86.67
745.073	86.17
745.254	86.49
745.435	86.39
745.616	85.88
745.797	85.86
745.978	86.64
746.159	86.24
746.34	87.22
746.521	87.7
746.702	87.85
746.883	88.35
747.064	88.53
747.245	88.95
747.426	88.88
747.606	88.17
747.787	87.97
747.968	88.37
748.149	87.68
748.33	88.26
748.51	87.33
748.691	87.9
748.872	88.28
749.053	88.2
749.233	88.09
749.414	88.62
749.595	88.23
749.775	88.16
749.956	87.19
750.137	86.51
750.317	86.29
750.498	85.98
750.678	85.91
750.859	85.22
751.04	85.25
751.22	85.72
751.4	85.92
751.581	86.25
751.761	86.72
751.942	86.43
752.122	86.71
752.303	87.15
752.483	87.64
752.663	88.58
752.844	87.94
753.024	87.87
753.204	87.54
753.385	87.48
753.565	87.06
753.745	86.65
753.925	85.9
754.106	86.26
754.286	86.41
754.466	87.02
754.646	86.57
754.826	86.72
755.006	86.76
755.187	87.26
755.367	87
755.547	86.45
755.727	85.97
755.907	86.36
756.087	86.67
756.267	86.48
756.447	85.63
756.627	85.76
756.807	86.09
756.987	86.11
757.167	86.46
757.346	85.4
757.526	85.48
757.706	85.63
757.886	85.62
758.066	85.51
758.246	86.44
758.425	86.31
758.605	86.88
758.785	87.38
758.965	86.75
759.144	86.59
759.324	87.17
759.504	86.17
759.683	85.99
759.863	86.27
760.043	86.1
760.222	85.86
760.402	86.5
760.581	85.45
760.761	85.24
760.94	84.75
761.12	83.98
761.299	82.86
761.479	83.83
761.658	82.83
761.838	82.93
762.017	83.33
762.197	84.11
762.376	84.22
762.555	84.88
762.735	83.72
762.914	84.96
763.093	84.47
763.273	84.17
763.452	83.91
763.631	83.92
763.81	84.57
763.99	85.88
764.169	84.92
764.348	85.82
764.527	85.59
764.706	85.45
764.885	85.48
765.064	84.42
765.243	83.26
765.423	84.07
765.602	83.43
765.781	83.92
765.96	84.12
766.139	83.63
766.318	84.73
766.497	85.9
766.676	86.05
766.854	86.27
767.033	86.27
767.212	85.67
767.391	86.19
767.57	85.06
767.749	84.78
767.928	83.71
768.106	83.46
768.285	83.65
768.464	84.38
768.643	84.66
768.821	84.53
769	84.68
769.179	83.88
769.357	83.64
769.536	82.84
769.715	82.14
769.893	81.55
770.072	82.58
770.25	82.42
770.429	83.29
770.607	83.58
770.786	84.4
770.964	83.89
771.143	85.22
771.321	84.04
771.5	83.33
771.678	82.63
771.857	81.75
772.035	80.75
772.213	81.03
772.392	80.47
772.57	80.78
772.748	81.11
772.927	81.63
773.105	83.12
773.283	82.81
773.461	83.66
773.64	82.59
773.818	82.92
773.996	83.18
774.174	82.97
774.352	81.75
774.531	81.84
774.709	82.03
774.887	81.36
775.065	81.18
775.243	81.65
775.421	82.17
775.599	81.99
775.777	82.75
775.955	81.37
776.133	81.76
776.311	81.49
776.489	80.63
776.667	80.89
776.844	80.76
777.022	80.1
777.2	81.11
777.378	82.15
777.556	83
777.734	82.72
777.911	83.86
778.089	84.03
778.267	84.35
778.445	83.5
778.622	82.6
778.8	82.29
778.978	82.09
779.155	80.73
779.333	80.43
779.511	80.13
779.688	79.71
779.866	79.85
780.043	79.76
780.221	79.94
780.398	79.06
780.576	79.14
780.753	79.73
780.931	80.29
781.108	80.29
781.286	79.24
781.463	80.23
781.64	79.94
781.818	79.9
781.995	79.59
782.172	80.47
782.35	81.4
782.527	83.71
782.704	81.95
782.882	83.08
783.059	82.7
783.236	82.45
783.413	81.91
783.59	79.95
783.768	78.2
783.945	79.45
784.122	78.48
784.299	79.03
784.476	79.45
784.653	78.1
784.83	78.4
785.007	78.53
785.184	77.12
785.361	77.12
785.538	77.85
785.715	77.9
785.892	78.29
786.069	78.34
786.246	76.7
786.423	78.24
786.6	78.27
786.776	77.66
786.953	76.15
787.13	77.24
787.307	78.37
787.484	80.62
787.66	78.31
787.837	80.88
788.014	80.75
788.191	80.97
788.367	78.94
788.544	78.27
788.721	78.12
788.897	80.35
789.074	78.4
789.25	79.8
789.427	80.95
789.603	82.92
789.78	84.51
789.956	82.92
790.133	81.88
790.309	82.46
790.486	82.45
790.662	81
790.839	81.33
791.015	79.84
791.192	79.83
791.368	80.69
791.544	78.93
791.721	75.56
791.897	77.05
792.073	76.53
792.249	78.68
792.426	80.98
792.602	79.44
792.778	79.53
792.954	81.57
793.13	82.23
793.307	81.09
793.483	79.69
793.659	79.49
793.835	80.17
794.011	80.87
794.187	78.47
794.363	77.03
794.539	76.08
794.715	73.54
794.891	70.62
795.067	71.24
795.243	70.12
795.419	72.55
795.595	71.17
795.771	74.08
795.947	75.07
796.122	75.78
796.298	75.28
796.474	75.5
796.65	77.11
796.826	81.73
797.001	80.41
797.177	79.04
797.353	79.48
797.529	79.08
797.704	79.52
797.88	76.67
798.056	73.89
798.231	74.05
798.407	75.86
798.582	76.53
798.758	77.27
798.934	75.69
799.109	73.71
799.285	74.85
799.46	76.06
799.636	75.65
799.811	76.85
799.986	76.67
800.162	78.53
800.337	81.12
800.513	82.87
800.688	84.77
800.863	86.38
801.039	82.73
801.214	80.16
801.389	79.17
801.565	80.22
801.74	76.96
801.915	72.83
802.09	71.51
802.265	72.09
802.441	73.47
802.616	71.12
802.791	70.55
802.966	69.63
803.141	66.48
803.316	70.25
803.491	70.05
803.666	70.74
803.841	74.57
804.016	73.79
804.191	73.79
804.366	76.03
804.541	73.25
804.716	71.22
804.891	75.17
805.066	72.43
805.241	71.19
805.416	70.21
805.591	72.99
805.765	72.84
805.94	75.68
806.115	71.72
806.29	73.58
806.464	75.49
806.639	77.67
806.814	73.2
806.989	72.87
807.163	73.03
807.338	68.97
807.512	66.75
807.687	66.43
807.862	65.81
808.036	66.63
808.211	65.49
808.385	65.96
808.56	70.78
808.734	70.43
808.909	69.59
809.083	67.63
809.258	68.94
809.432	67.19
809.606	61.35
809.781	60.96
809.955	66.54
810.13	67.76
810.304	71.02
810.478	72.38
810.652	74.41
810.827	79.5
811.001	78.34
811.175	73.61
811.349	72.66
811.524	72.23
811.698	73.81
811.872	77.35
812.046	76.56
812.22	74.01
812.394	75.32
812.568	73.39
812.742	73.8
812.916	72.58
813.09	67.76
813.264	69.14
813.438	76.27
813.612	73.87
813.786	78.39
813.96	76.95
814.134	77.61
814.308	74.37
814.482	71.18
814.656	69.63
814.83	74.37
815.003	73.24
815.177	72.23
815.351	74.58
815.525	76.43
815.698	76.37
815.872	72.36
816.046	69.35
816.219	71.91
816.393	73.72
816.567	70.37
816.74	72.9
816.914	76.52
817.088	74.36
817.261	80.88
817.435	77.14
817.608	76.01
817.782	79.46
817.955	79
818.129	80.94
818.302	89.35
818.475	86.24
818.649	80.64
818.822	81.24
818.996	76.13
819.169	75.81
819.342	75.29
819.516	72.4
819.689	68.83
819.862	67.61
820.035	65.97
820.209	64.11
820.382	65.79
820.555	61.33
820.728	59.5
820.901	61.56
821.075	70.12
821.248	69.31
821.421	72.59
821.594	71.11
821.767	76.37
821.94	74.51
822.113	74.96
822.286	73.19
822.459	81.63
822.632	83.66
822.805	83.62
822.978	80.91
823.151	86.07
823.324	83.06
823.496	79.57
823.669	76.26
823.842	72.45
824.015	73.31
824.188	65.41
824.361	65.1
824.533	70.88
824.706	82.54
824.879	83.57
825.051	84.06
825.224	88.36
825.397	89.09
825.569	91.68
825.742	89.5
825.915	82.27
826.087	75.46
826.26	77.93
826.432	73.97
826.605	83.89
826.777	79.83
826.95	71.86
827.122	72.47
827.295	74.01
827.467	68.27
827.64	60.53
827.812	52.06
827.984	57.22
828.157	64.08
828.329	64.65
828.501	65.72
828.674	66.64
828.846	73.02
829.018	68.92
829.19	63.26
829.363	59.35
829.535	54.37
829.707	48.15
829.879	47.2
830.051	43.6
830.223	43.01
830.395	43.74
830.568	54
830.74	57.93
830.912	69.08
831.084	70.21
831.256	68.85
831.428	74.54
831.6	69.32
831.772	59.79
831.943	62.62
832.115	64.17
832.287	57.62
832.459	63.16
832.631	68.05
832.803	77.64
832.975	80.61
833.146	84.17
833.318	80.59
833.49	94.24
833.662	92.79
833.833	93.12
834.005	90.48
834.177	91
834.348	81.26
834.52	88.24
834.692	81.78
834.863	80.67
835.035	72.2
835.206	70.2
835.378	66.61
835.549	70.38
835.721	61.98
835.892	69.82
836.064	74.42
836.235	77.22
836.407	70.68
836.578	70.1
836.749	66.69
836.921	71.75
837.092	70.93
837.264	61.08
837.435	62.76
837.606	71.91
837.777	73
837.949	70.54
838.12	61.84
838.291	52.23
838.462	54.5
838.633	56.78
838.805	57.18
838.976	56.45
839.147	55.25
839.318	52.21
839.489	53.22
839.66	51.37
839.831	43.51
840.002	44.61
840.173	50.43
840.344	51.83
840.515	51.16
840.686	52.14
840.857	55.66
841.028	61.59
841.199	53.18
841.369	44.42
841.54	49.43
841.711	51.12
841.882	39.44
842.053	34.47
842.223	29.76
842.394	46.92
842.565	48.29
842.736	45.55
842.906	59.94
843.077	61.68
843.248	62.2
843.418	63.15
843.589	58.91
843.759	60.11
843.93	66.63
844.101	62.75
844.271	73.3
844.442	66.84
844.612	63.03
844.783	37.23
844.953	35.22
845.123	39.26
845.294	43.87
845.464	41.73
845.635	55.03
845.805	65.56
845.975	72.09
846.146	77.06
846.316	82.31
846.486	69.47
846.656	74.15
846.827	61.88
846.997	63.27
847.167	72.95
847.337	78.75
847.507	76.25
847.677	85.21
847.848	82.2
848.018	79.06
848.188	71.98
848.358	70.64
848.528	55.91
848.698	37.33
848.868	23.33
849.038	44.86
849.208	62.64
849.378	58.26
849.548	72.94
849.718	75.36
849.887	63.97
850.057	61.66
850.227	48.62
850.397	47.1
850.567	56.91
850.737	41.12
850.906	52.52
851.076	65.44
851.246	65.3
851.415	71.65
851.585	61.98
851.755	57.48
851.924	75.52
852.094	70.41
852.264	67.36
852.433	76.86
852.603	78.44
852.772	86.13
852.942	74.8
853.111	67.43
853.281	69.83
853.45	72.62
853.62	64.54
853.789	58.77
853.959	54.34
854.128	40.06
854.297	30.53
854.467	26.94
854.636	27.84
854.805	32.9
854.975	41.64
855.144	62.84
855.313	98.31
855.482	99.11
855.652	86.8
855.821	79.18
855.99	97.02
856.159	85.26
856.328	60.56
856.497	42.21
856.667	49.28
856.836	62.26
857.005	72.77
857.174	72.22
857.343	71.73
857.512	67.33
857.681	67.78
857.85	64.61
858.019	56.43
858.188	55.72
858.356	15.51
858.525	46.22
858.694	63.9
858.863	61.45
859.032	46.99
859.201	36.68
859.369	44.57
859.538	52.28
859.707	36.83
859.876	39.03
860.044	36.87
860.213	62.57
860.382	74.55
860.55	85.84
860.719	96.62
860.888	89.85
861.056	96.34
861.225	115.32
861.393	101.28
861.562	97.04
861.73	91.48
861.899	89.4
862.067	93.25
862.236	81.25
862.404	69.58
862.572	62.69
862.741	60.82
862.909	56.26
863.078	48.93
863.246	56.35
863.414	41.35
863.582	32.34
863.751	48.2
863.919	49.8
864.087	39.65
864.255	33.77
864.424	24.49
864.592	47.75
864.76	71.32
864.928	68.06
865.096	63.21
865.264	70.43
865.432	78.01
865.6	69.59
865.768	46.46
865.936	13.2
866.104	18.76
866.272	38.36
866.44	13.19
866.608	12.58
866.776	61.26
866.944	88.46
867.112	68.06
867.28	61.42
867.448	51.52
867.615	55.48
867.783	44.34
867.951	14.61
868.119	9.5
868.286	25.07
868.454	21.64
868.622	7.72
868.789	33.57
868.957	50.42
869.125	51.99
869.292	61.59
869.46	69.6
869.627	83.09
869.795	96.67
869.963	82.6
870.13	82.47
870.298	79.03
870.465	81.01
870.632	81.92
870.8	73.76
870.967	52.33
871.135	67.66
871.302	60.09
871.469	54.27
871.637	45.37
871.804	48.09
871.971	60.64
872.139	66.09
872.306	50.79
872.473	44.86
872.64	76.67
872.807	82.1
872.975	102.13
873.142	81.65
873.309	104.82
873.476	202.63
873.643	241.29
873.81	215.51
873.977	160.18
874.144	201.61
874.311	180.16
874.478	102.27
874.645	108.32
874.812	103.1
874.979	62.91
875.146	70.52
875.313	18.1
875.48	92.56
875.647	103.06
875.813	69.54
875.98	44.62
876.147	87.34
876.314	87.75
876.481	87.46
876.647	53.32
876.814	62.78
876.981	65.88
877.147	61.59
877.314	55.49
877.481	55.84
877.647	55.31
877.814	48.84
877.98	51.18
878.147	67.69
878.314	57.92
878.48	56.05
878.647	57.99
878.813	76.3
878.979	74.42
879.146	45.54
879.312	53.63
879.479	60.56
879.645	36.49
879.811	27.86
879.978	17.22
880.144	36.51
880.31	36.17
880.477	-25.91
880.643	-62
880.809	21.31
880.975	2.28
881.142	12.76
881.308	47.54
881.474	126.27
881.64	137.35
881.806	82.64
881.972	123.84
882.138	128.37
882.304	142.71
882.47	86.83
882.636	2.1
882.802	-83.88
882.968	-185.19
883.134	-334.28
883.3	-110.98
883.466	-38.82
883.632	-47.74
883.798	-26.88
883.964	27.06
884.129	65.84
884.295	50.78
884.461	66.5
884.627	66.18
884.793	66.4
884.958	81.67
885.124	50.13
885.29	23.31
885.455	24.36
885.621	19.79
885.787	13.3
885.952	-1.82
886.118	-8.85
886.283	18.85
886.449	1.15
886.614	-3.04
886.78	24.41
886.945	36.12
887.111	62.89
887.276	50.39
887.442	35.59
887.607	37.98
887.773	31.41
887.938	12.36
888.103	18.87
888.269	0.12
888.434	-1.03
888.599	25.1
888.764	31.83
888.93	28.78
889.095	19.31
889.26	38.52
889.425	103.8
889.59	71.77
889.756	67.66
889.921	35.93
890.086	63.06
890.251	45.23
890.416	6.52
890.581	-53.73
890.746	-60.91
890.911	-114.91
891.076	-66.58
891.241	-77.11
891.406	10.25
891.571	20.66
891.736	45.87
891.901	88.85
892.065	100.89
892.23	69.14
892.395	25.02
892.56	6.45
892.725	9.95
892.889	-10.53
893.054	-41.39
893.219	-37.5
893.384	-15.15
893.548	87.5
893.713	-285.89
893.878	-130.43
