Data from Ofra_2a_PS_OGT35_Reflection_1.txt Node
Date: Tue Jul 20 09:29:23 EDT 2021
User: Adam
Spectrometer: FLMT01687
Trigger mode: 0
Integration Time (sec): 9.450000E-1
Scans to average: 3
Electric dark correction enabled: true
Nonlinearity correction enabled: false
Boxcar width: 3
XAxis mode: Wavelengths
Number of Pixels in Spectrum: 3648
>>>>>Begin Spectral Data<<<<<
179.494	213.02
179.716	137.85
179.937	208.79
180.158	1113.28
180.38	-570.35
180.601	-157.81
180.823	-70.27
181.044	-144.02
181.265	-181.58
181.486	-15.77
181.708	-280.43
181.929	130.47
182.15	842.05
182.372	-76.35
182.593	11.82
182.814	76.35
183.035	158.06
183.257	118.26
183.478	44.19
183.699	56.69
183.92	56.58
184.141	84.35
184.363	77.27
184.584	51.48
184.805	42.82
185.026	50.03
185.247	25.98
185.468	20.1
185.689	7.11
185.91	7.32
186.132	14.66
186.353	0.21
186.574	4.83
186.795	-11.61
187.016	-9.57
187.237	-4.95
187.458	-8.22
187.679	-9.93
187.9	8.45
188.121	17.99
188.342	45
188.563	34.93
188.784	34.95
189.005	44.88
189.226	32.6
189.447	23.36
189.667	17.88
189.888	16.35
190.109	19.83
190.33	1.49
190.551	-5.28
190.772	-5.99
190.993	8.43
191.214	8.52
191.434	5.95
191.655	8.14
191.876	18.01
192.097	14.54
192.318	25.52
192.538	26.06
192.759	28.27
192.98	20.79
193.201	29.08
193.421	24.69
193.642	32.79
193.863	22.04
194.083	26.42
194.304	30.8
194.525	41.52
194.745	28.65
194.966	32.37
195.187	35.06
195.407	31.69
195.628	26.17
195.848	15.55
196.069	23.11
196.29	20.27
196.51	26.01
196.731	36.13
196.951	44.96
197.172	58.46
197.392	55.03
197.613	36.41
197.833	48.8
198.054	44.24
198.274	29
198.495	40.5
198.715	19.42
198.936	27.34
199.156	32.39
199.377	10.85
199.597	4.65
199.817	18.91
200.038	8.88
200.258	11.8
200.479	20.07
200.699	12.01
200.919	12.86
201.14	15.41
201.36	5.76
201.58	12.98
201.801	17.15
202.021	11.15
202.241	20.1
202.461	30
202.682	23.94
202.902	23.3
203.122	23.2
203.342	21.69
203.563	24.03
203.783	22.15
204.003	18.61
204.223	31.86
204.443	28.54
204.663	29.57
204.884	31.61
205.104	31.31
205.324	42.99
205.544	50.14
205.764	44.5
205.984	56.3
206.204	46.58
206.424	53.18
206.644	44.19
206.864	35.83
207.084	46.56
207.304	48.82
207.525	43.17
207.745	58.19
207.964	58.62
208.184	47.66
208.404	42.7
208.624	8.22
208.844	-3.41
209.064	4.82
209.284	-5.26
209.504	-21.75
209.724	-42.83
209.944	-48.99
210.164	-16.65
210.384	-4.17
210.604	-27.04
210.823	-26.69
211.043	-18.1
211.263	8.12
211.483	5.42
211.703	14.3
211.922	13.62
212.142	28.67
212.362	43.88
212.582	47.06
212.801	39.89
213.021	51.98
213.241	38.81
213.461	39.91
213.68	35.76
213.9	31.47
214.12	19.13
214.339	27.51
214.559	42.08
214.779	42.99
214.998	40.61
215.218	42.33
215.438	49.72
215.657	51.57
215.877	47.04
216.096	31.82
216.316	29.32
216.535	22.93
216.755	12.12
216.974	-0.53
217.194	11.02
217.413	31.67
217.633	34.16
217.852	28.28
218.072	25.86
218.291	43.37
218.511	50.79
218.73	44.33
218.95	30.97
219.169	37.21
219.389	39.79
219.608	54.25
219.827	34.49
220.047	30.53
220.266	32.5
220.485	43.27
220.705	35.17
220.924	44.81
221.143	37.39
221.363	46.92
221.582	38.46
221.801	42.73
222.021	32.17
222.24	29.39
222.459	27.21
222.678	12.94
222.897	6.71
223.117	19.97
223.336	20.96
223.555	14.48
223.774	24.15
223.993	20.02
224.213	26.26
224.432	35.31
224.651	19.02
224.87	17.07
225.089	43.36
225.308	39.3
225.527	35.38
225.746	38.69
225.965	26.92
226.184	28.89
226.404	28.47
226.623	19.58
226.842	8.54
227.061	29.14
227.28	33.16
227.499	44.91
227.718	44.1
227.936	36.69
228.155	35.92
228.374	46.41
228.593	43.08
228.812	36.66
229.031	35.54
229.25	42.1
229.469	51.55
229.688	49.97
229.907	39.58
230.125	31.55
230.344	31.6
230.563	34.11
230.782	29.6
231.001	27.03
231.22	27.61
231.438	37.43
231.657	47.82
231.876	50.09
232.095	50.01
232.313	57.73
232.532	57.77
232.751	58.13
232.969	60.66
233.188	57.41
233.407	57.54
233.625	55.21
233.844	45.06
234.063	40.22
234.281	39.28
234.5	30.89
234.719	28.83
234.937	31.01
235.156	21.71
235.374	16.93
235.593	15.96
235.811	5.24
236.03	-1.21
236.249	9.57
236.467	16.6
236.686	38.32
236.904	40.03
237.123	39.21
237.341	28.24
237.559	32.28
237.778	36.43
237.996	30.22
238.215	16.17
238.433	13.44
238.652	17.99
238.87	21.5
239.088	14.66
239.307	5.55
239.525	1.05
239.743	-3.12
239.962	1.54
240.18	2.41
240.398	5.36
240.617	18.71
240.835	26.71
241.053	26.65
241.271	39.56
241.49	26.77
241.708	25.28
241.926	23.46
242.144	19.74
242.363	15.61
242.581	19.66
242.799	6.41
243.017	22.92
243.235	10.85
243.453	9.44
243.672	6.01
243.89	11.07
244.108	19.35
244.326	18.44
244.544	21.94
244.762	29.61
244.98	34.12
245.198	27.02
245.416	26.12
245.634	32.23
245.852	49.28
246.07	47.05
246.288	51.14
246.506	53.17
246.724	75.08
246.942	63.52
247.16	49.47
247.378	28.86
247.596	23.61
247.814	19.65
248.032	15.41
248.25	-3.55
248.468	9.78
248.685	8.21
248.903	7.97
249.121	5.96
249.339	4.61
249.557	2.37
249.775	-3.83
249.992	-11.41
250.21	-21.18
250.428	-9.52
250.646	-2.28
250.863	9.34
251.081	20.69
251.299	45.18
251.517	65.26
251.734	82.74
251.952	80.24
252.17	76.62
252.387	59.41
252.605	60.84
252.823	41.1
253.04	26.57
253.258	31.69
253.475	15.07
253.693	23.25
253.911	25.81
254.128	21.89
254.346	26.18
254.563	23.68
254.781	17.26
254.998	24.88
255.216	21.42
255.433	16.62
255.651	11.66
255.868	9.71
256.086	17.08
256.303	17.93
256.521	12.86
256.738	12.47
256.956	4.97
257.173	6.91
257.39	13.46
257.608	7.14
257.825	12.63
258.043	19.19
258.26	20.41
258.477	29.82
258.695	37.12
258.912	38.02
259.129	36.08
259.346	32.91
259.564	12.43
259.781	18.65
259.998	17.07
260.216	16.23
260.433	15.54
260.65	19.94
260.867	10.31
261.084	30.04
261.302	22.87
261.519	20.6
261.736	16.32
261.953	21.25
262.17	20.66
262.387	18.78
262.604	8.71
262.822	17.9
263.039	24.7
263.256	22.03
263.473	16.32
263.69	25.95
263.907	33.17
264.124	25.33
264.341	16.4
264.558	17.07
264.775	11.58
264.992	9.05
265.209	16.15
265.426	11.52
265.643	11.88
265.86	15.08
266.077	16.65
266.294	19.38
266.51	21.88
266.727	-1.13
266.944	-5.57
267.161	1.57
267.378	4.65
267.595	-12.15
267.812	-11.38
268.028	-5.46
268.245	7.4
268.462	10.79
268.679	2.09
268.896	1.36
269.112	12.49
269.329	17.46
269.546	22.48
269.763	24.26
269.979	22.86
270.196	31.7
270.413	28.54
270.629	24.76
270.846	22.42
271.063	22.17
271.279	21.16
271.496	15.27
271.712	15
271.929	22.92
272.146	24.72
272.362	19.45
272.579	9.9
272.795	12.3
273.012	17.78
273.228	19.05
273.445	17.13
273.661	9.84
273.878	19.42
274.094	20.53
274.311	22.3
274.527	26.86
274.744	24.42
274.96	23.92
275.177	33.61
275.393	31.69
275.609	29.73
275.826	27.18
276.042	27.91
276.259	28.66
276.475	21.12
276.691	28.08
276.908	25.45
277.124	25.5
277.34	25.08
277.557	22.73
277.773	19.8
277.989	25.11
278.205	3.55
278.422	8.82
278.638	18.49
278.854	5.05
279.07	4.75
279.286	2.06
279.503	2.54
279.719	23.19
279.935	20.58
280.151	20.38
280.367	36.71
280.583	36.45
280.799	45.6
281.016	38.58
281.232	29.68
281.448	22.27
281.664	25.22
281.88	24.06
282.096	25.44
282.312	10.76
282.528	2.99
282.744	9.81
282.96	18.52
283.176	19.72
283.392	25.63
283.608	24.44
283.824	25.47
284.04	29.86
284.256	25.82
284.471	26.18
284.687	26.19
284.903	25.28
285.119	17
285.335	15.19
285.551	26.43
285.767	23.11
285.982	33.48
286.198	18.74
286.414	26.07
286.63	33.1
286.846	36.25
287.061	34.61
287.277	46.16
287.493	33.7
287.709	41.44
287.924	33.19
288.14	36.62
288.356	36.65
288.571	21.81
288.787	20.69
289.003	33.19
289.218	30.48
289.434	28.96
289.65	20.51
289.865	20.55
290.081	28.57
290.296	29.53
290.512	27.99
290.727	35.1
290.943	24.47
291.159	11.97
291.374	21.19
291.59	18.32
291.805	2.89
292.021	-12.57
292.236	-15.39
292.451	-4.87
292.667	20.53
292.882	8.49
293.098	10.74
293.313	11.3
293.529	14.43
293.744	10.49
293.959	20.98
294.175	6.97
294.39	22.14
294.605	28.53
294.821	33.39
295.036	37.08
295.251	41.63
295.467	31.76
295.682	33.58
295.897	26.36
296.112	30.61
296.328	29.77
296.543	20.62
296.758	17.26
296.973	16.91
297.188	20.65
297.404	22.04
297.619	5.19
297.834	16.54
298.049	23.3
298.264	30.4
298.479	25.89
298.694	26.7
298.909	27.04
299.125	34.34
299.34	27.14
299.555	36.59
299.77	38.12
299.985	35.22
300.2	31.58
300.415	31.41
300.63	22.64
300.845	26.16
301.06	17.7
301.275	15.37
301.49	22.88
301.704	23.34
301.919	16.91
302.134	17.3
302.349	15.54
302.564	17.21
302.779	17.34
302.994	9.9
303.209	6.74
303.423	19.98
303.638	25.8
303.853	31.01
304.068	26.62
304.283	23.74
304.497	22.06
304.712	28.7
304.927	23.38
305.142	23.75
305.356	20.38
305.571	32.02
305.786	31.11
306	42.49
306.215	40.67
306.43	45.59
306.644	43.38
306.859	49.35
307.074	34.79
307.288	33.78
307.503	30.55
307.717	28.94
307.932	29.68
308.147	34.56
308.361	28.21
308.576	38.42
308.79	34.77
309.005	30.38
309.219	25.43
309.434	15.53
309.648	1.81
309.863	4.75
310.077	-3.49
310.292	-1.25
310.506	10.87
310.72	9.07
310.935	13.84
311.149	24.7
311.364	21.63
311.578	17.27
311.792	20.25
312.007	14.91
312.221	20.19
312.435	22.03
312.649	32.14
312.864	34.77
313.078	45.23
313.292	48.26
313.507	47.52
313.721	47.35
313.935	55.29
314.149	36.96
314.363	36.33
314.578	32.23
314.792	25.34
315.006	30.7
315.22	31.32
315.434	21.89
315.648	21.07
315.862	28.21
316.077	30.61
316.291	35.92
316.505	25.01
316.719	18.27
316.933	20.07
317.147	15.83
317.361	9.93
317.575	9.63
317.789	10.88
318.003	15.95
318.217	21.23
318.431	26.75
318.645	34.09
318.859	22.62
319.073	19.38
319.287	19.15
319.5	16.43
319.714	20.03
319.928	19.69
320.142	15.71
320.356	34.64
320.57	35.78
320.784	40.34
320.997	46.04
321.211	47.94
321.425	37.31
321.639	34.9
321.853	26.5
322.066	21.09
322.28	18.44
322.494	18.45
322.707	10.31
322.921	16.91
323.135	24.19
323.349	27.64
323.562	29.43
323.776	27.38
323.989	27.97
324.203	40.44
324.417	30.14
324.63	20.19
324.844	13.76
325.057	15.67
325.271	12.17
325.485	16.79
325.698	4.84
325.912	25.21
326.125	35.21
326.339	39.18
326.552	38.45
326.766	43.2
326.979	39.07
327.193	40.71
327.406	31.38
327.619	11.44
327.833	10.17
328.046	7.7
328.26	-1.75
328.473	-11.33
328.686	-7.31
328.9	-5.14
329.113	10.97
329.326	17.71
329.54	22.61
329.753	31.91
329.966	37.45
330.179	47.97
330.393	41.46
330.606	44.66
330.819	42.81
331.032	41.72
331.246	40.49
331.459	39.79
331.672	25.87
331.885	29.52
332.098	22.17
332.311	3.94
332.525	6.99
332.738	4.2
332.951	2.93
333.164	1.21
333.377	-16
333.59	-6.57
333.803	13.32
334.016	14.18
334.229	20.02
334.442	30.77
334.655	31.43
334.868	38.25
335.081	41.48
335.294	30.94
335.507	32.65
335.72	18.7
335.933	10.64
336.146	16.29
336.359	22.46
336.572	15.15
336.785	23.86
336.997	20
337.21	32.11
337.423	29.77
337.636	29.86
337.849	23.38
338.062	15.85
338.274	12.81
338.487	14.8
338.7	12.87
338.913	13.84
339.125	11.42
339.338	20.53
339.551	23.95
339.763	20.12
339.976	18.88
340.189	15.13
340.402	15.79
340.614	20.53
340.827	10.59
341.039	15.33
341.252	16.92
341.465	12.44
341.677	8.02
341.89	9.52
342.102	5.27
342.315	11.86
342.527	4.48
342.74	10.26
342.952	17.53
343.165	29.19
343.377	32.49
343.59	37.56
343.802	33.28
344.015	36.75
344.227	22.64
344.44	19.93
344.652	15.84
344.864	11.97
345.077	2.65
345.289	2.37
345.502	-0.63
345.714	4.28
345.926	6.86
346.139	12.64
346.351	-2.33
346.563	11.99
346.775	9.06
346.988	9.74
347.2	12.56
347.412	7.3
347.624	8.68
347.837	21.24
348.049	17.4
348.261	21.53
348.473	22.71
348.685	18.93
348.897	26.69
349.11	27.46
349.322	17.76
349.534	16.57
349.746	14.94
349.958	15.23
350.17	30.11
350.382	19.43
350.594	16.32
350.806	33.25
351.018	32.75
351.23	34.29
351.442	34.74
351.654	38.94
351.866	43.89
352.078	38.54
352.29	32.94
352.502	25.09
352.714	24.21
352.926	22.42
353.138	12.33
353.35	11.28
353.561	11.85
353.773	13.11
353.985	17.49
354.197	10.9
354.409	14.26
354.621	13.19
354.832	9
355.044	17.04
355.256	9.27
355.468	13.13
355.679	24.59
355.891	21.87
356.103	19.69
356.314	32.15
356.526	21.93
356.738	22.68
356.949	23.59
357.161	17.79
357.373	23.71
357.584	29.42
357.796	22.05
358.008	28.46
358.219	38.73
358.431	32.16
358.642	28.51
358.854	21.42
359.065	16.94
359.277	9.18
359.488	9.32
359.7	7.86
359.911	9.2
360.123	18
360.334	17.45
360.546	16.52
360.757	22.42
360.969	26.85
361.18	22.07
361.391	24.79
361.603	24.35
361.814	31.44
362.025	30.12
362.237	27.09
362.448	27.06
362.659	21.91
362.871	26.1
363.082	27.19
363.293	20.17
363.504	26.63
363.716	29.52
363.927	24.37
364.138	31.73
364.349	29.73
364.56	29.22
364.772	27.76
364.983	14.15
365.194	7.14
365.405	7.18
365.616	-11.38
365.827	-13.16
366.038	-9.64
366.25	-2.15
366.461	6.15
366.672	8.79
366.883	7.33
367.094	17.58
367.305	15.27
367.516	11.19
367.727	12.16
367.938	20.39
368.149	17.96
368.36	18.48
368.571	20.28
368.781	21.42
368.992	23.22
369.203	16.37
369.414	4.12
369.625	9.77
369.836	15.14
370.047	11.11
370.258	5.37
370.468	2.44
370.679	4.81
370.89	25.16
371.101	21.88
371.312	18.34
371.522	22.31
371.733	20.89
371.944	25.54
372.155	21.28
372.365	7.87
372.576	9.99
372.787	11.65
372.997	3.44
373.208	8.36
373.419	2.29
373.629	11.89
373.84	10.18
374.05	12.02
374.261	11.37
374.472	18.24
374.682	14.39
374.893	7.1
375.103	5.54
375.314	1.22
375.524	2.07
375.735	-0.14
375.945	-3.21
376.156	5.01
376.366	14.46
376.577	9.44
376.787	17.91
376.997	15.05
377.208	15.65
377.418	22.07
377.629	16.84
377.839	17.12
378.049	28.35
378.26	23.1
378.47	24.75
378.68	23.68
378.89	16.03
379.101	8.21
379.311	3.69
379.521	4.3
379.732	4.4
379.942	10.32
380.152	20.9
380.362	26.72
380.572	34.5
380.783	36.5
380.993	31.71
381.203	32.21
381.413	30.69
381.623	20.74
381.833	17.4
382.043	11
382.253	7.72
382.463	12.17
382.674	11.2
382.884	3.44
383.094	4.59
383.304	6.75
383.514	10.72
383.724	11.75
383.934	9.72
384.144	11.91
384.353	14.28
384.563	12.5
384.773	11.99
384.983	13.95
385.193	15.78
385.403	13.81
385.613	6.87
385.823	7.39
386.033	9.59
386.242	6.1
386.452	3.57
386.662	3.16
386.872	5.74
387.082	10.66
387.291	8.98
387.501	9.2
387.711	9.27
387.921	11.76
388.13	8.21
388.34	2.56
388.55	3.6
388.759	4.42
388.969	2.31
389.179	6.59
389.388	7.35
389.598	6.97
389.807	10.22
390.017	8.55
390.227	8.47
390.436	8.57
390.646	7.57
390.855	4.12
391.065	5.88
391.274	5.48
391.484	5.91
391.693	6.19
391.903	5.28
392.112	4.73
392.322	6.74
392.531	6.42
392.74	5.23
392.95	5.55
393.159	6.25
393.369	7.08
393.578	6.98
393.787	5.91
393.997	6.3
394.206	6.98
394.415	7.15
394.625	5.77
394.834	4.37
395.043	3.87
395.252	4.48
395.462	3.43
395.671	4.27
395.88	4.21
396.089	4.25
396.298	4.99
396.508	5.09
396.717	4.63
396.926	4.98
397.135	4.24
397.344	4.09
397.553	4.28
397.762	4.07
397.971	4.03
398.181	3.85
398.39	3.74
398.599	4.11
398.808	4.11
399.017	4.3
399.226	4.6
399.435	4.54
399.644	4.56
399.853	4.64
400.062	4.3
400.27	3.96
400.479	3.59
400.688	3.29
400.897	3.16
401.106	3.26
401.315	3.18
401.524	3.15
401.733	3.23
401.941	3.39
402.15	3.39
402.359	3.54
402.568	3.47
402.777	3.45
402.985	3.32
403.194	3.3
403.403	3.01
403.612	2.97
403.82	2.92
404.029	2.89
404.238	2.89
404.446	2.94
404.655	2.96
404.864	3.16
405.072	3.16
405.281	3.14
405.489	3.15
405.698	3.09
405.906	3.13
406.115	3.14
406.324	3.06
406.532	3.1
406.741	3.14
406.949	3.02
407.158	3.09
407.366	3.1
407.574	3.11
407.783	3.03
407.991	3
408.2	2.91
408.408	2.98
408.617	2.91
408.825	2.89
409.033	2.85
409.242	2.86
409.45	2.78
409.658	2.83
409.867	2.82
410.075	2.76
410.283	2.65
410.491	2.62
410.7	2.69
410.908	2.74
411.116	2.67
411.324	2.7
411.533	2.75
411.741	2.82
411.949	2.88
412.157	2.9
412.365	2.9
412.573	2.88
412.781	2.86
412.99	2.93
413.198	2.97
413.406	2.92
413.614	2.87
413.822	2.84
414.03	2.78
414.238	2.87
414.446	2.75
414.654	2.72
414.862	2.7
415.07	2.77
415.278	2.75
415.486	2.84
415.694	2.7
415.902	2.66
416.109	2.61
416.317	2.59
416.525	2.57
416.733	2.63
416.941	2.5
417.149	2.62
417.357	2.74
417.564	2.79
417.772	2.77
417.98	2.73
418.188	2.59
418.395	2.67
418.603	2.51
418.811	2.39
419.019	2.36
419.226	2.4
419.434	2.28
419.642	2.31
419.849	2.31
420.057	2.38
420.265	2.37
420.472	2.35
420.68	2.34
420.887	2.39
421.095	2.5
421.302	2.55
421.51	2.59
421.717	2.65
421.925	2.61
422.132	2.53
422.34	2.53
422.547	2.46
422.755	2.34
422.962	2.24
423.17	2.17
423.377	2.3
423.585	2.43
423.792	2.38
423.999	2.31
424.207	2.28
424.414	2.35
424.621	2.4
424.829	2.26
425.036	2.14
425.243	2.23
425.451	2.29
425.658	2.41
425.865	2.3
426.072	2.22
426.28	2.28
426.487	2.3
426.694	2.29
426.901	2.23
427.108	2.18
427.315	2.2
427.523	2.29
427.73	2.35
427.937	2.34
428.144	2.31
428.351	2.39
428.558	2.43
428.765	2.37
428.972	2.38
429.179	2.25
429.386	2.35
429.593	2.31
429.8	2.39
430.007	2.42
430.214	2.55
430.421	2.49
430.628	2.44
430.835	2.42
431.042	2.45
431.249	2.37
431.456	2.39
431.662	2.33
431.869	2.44
432.076	2.54
432.283	2.45
432.49	2.43
432.697	2.41
432.903	2.43
433.11	2.49
433.317	2.48
433.524	2.41
433.73	2.47
433.937	2.53
434.144	2.63
434.35	2.57
434.557	2.56
434.764	2.52
434.97	2.66
435.177	2.65
435.384	2.65
435.59	2.59
435.797	2.66
436.003	2.7
436.21	2.67
436.416	2.59
436.623	2.61
436.829	2.57
437.036	2.58
437.242	2.5
437.449	2.51
437.655	2.53
437.862	2.53
438.068	2.62
438.275	2.67
438.481	2.77
438.687	2.86
438.894	2.81
439.1	2.88
439.307	2.9
439.513	2.78
439.719	2.79
439.926	2.78
440.132	2.74
440.338	2.8
440.544	2.75
440.751	2.75
440.957	2.82
441.163	2.87
441.369	2.82
441.575	2.8
441.782	2.79
441.988	2.8
442.194	2.87
442.4	2.88
442.606	2.87
442.812	2.9
443.018	2.91
443.224	2.91
443.431	2.91
443.637	2.85
443.843	2.91
444.049	2.87
444.255	2.79
444.461	2.86
444.667	2.88
444.873	2.88
445.079	2.93
445.284	2.91
445.49	2.89
445.696	2.96
445.902	2.93
446.108	2.95
446.314	3
446.52	3
446.726	2.97
446.931	3.02
447.137	3.02
447.343	3.03
447.549	2.97
447.755	2.88
447.96	2.85
448.166	2.87
448.372	2.85
448.578	2.86
448.783	2.81
448.989	2.88
449.195	2.92
449.4	2.92
449.606	2.9
449.812	2.9
450.017	2.92
450.223	3.02
450.428	2.98
450.634	2.99
450.84	3
451.045	3
451.251	3.02
451.456	3.01
451.662	2.96
451.867	2.99
452.073	3.03
452.278	3.03
452.483	3.07
452.689	3.07
452.894	3.05
453.1	3.02
453.305	3.03
453.51	3.02
453.716	3.04
453.921	3.04
454.127	3.07
454.332	3.1
454.537	3.16
454.742	3.13
454.948	3.09
455.153	3.05
455.358	3.1
455.563	3.09
455.769	3.07
455.974	2.99
456.179	2.99
456.384	3.02
456.589	3.07
456.795	2.98
457	3
457.205	2.98
457.41	3.06
457.615	3.14
457.82	3.21
458.025	3.25
458.23	3.33
458.435	3.27
458.64	3.36
458.845	3.31
459.05	3.28
459.255	3.23
459.46	3.21
459.665	3.2
459.87	3.24
460.075	3.23
460.28	3.28
460.485	3.25
460.69	3.21
460.895	3.23
461.099	3.23
461.304	3.25
461.509	3.2
461.714	3.22
461.919	3.2
462.123	3.31
462.328	3.28
462.533	3.26
462.738	3.25
462.942	3.29
463.147	3.29
463.352	3.37
463.556	3.35
463.761	3.32
463.966	3.38
464.17	3.41
464.375	3.42
464.58	3.39
464.784	3.37
464.989	3.35
465.193	3.42
465.398	3.42
465.602	3.42
465.807	3.42
466.011	3.45
466.216	3.46
466.42	3.55
466.625	3.56
466.829	3.56
467.034	3.58
467.238	3.6
467.443	3.62
467.647	3.61
467.851	3.54
468.056	3.52
468.26	3.48
468.464	3.46
468.669	3.53
468.873	3.52
469.077	3.51
469.282	3.51
469.486	3.55
469.69	3.56
469.894	3.6
470.099	3.55
470.303	3.55
470.507	3.61
470.711	3.58
470.915	3.6
471.119	3.66
471.324	3.64
471.528	3.65
471.732	3.66
471.936	3.62
472.14	3.65
472.344	3.66
472.548	3.64
472.752	3.71
472.956	3.71
473.16	3.74
473.364	3.76
473.568	3.82
473.772	3.89
473.976	3.87
474.18	3.84
474.384	3.87
474.588	3.87
474.792	3.87
474.995	3.82
475.199	3.76
475.403	3.81
475.607	3.84
475.811	3.82
476.015	3.87
476.218	3.89
476.422	3.95
476.626	3.93
476.83	3.92
477.033	3.92
477.237	3.97
477.441	3.98
477.644	3.96
477.848	3.93
478.052	3.98
478.255	3.97
478.459	3.97
478.663	3.97
478.866	3.92
479.07	3.93
479.273	3.95
479.477	3.93
479.681	3.96
479.884	3.96
480.088	3.95
480.291	3.99
480.495	4.03
480.698	4.04
480.901	4.07
481.105	4.09
481.308	4.12
481.512	4.14
481.715	4.14
481.919	4.16
482.122	4.17
482.325	4.21
482.529	4.21
482.732	4.2
482.935	4.24
483.138	4.24
483.342	4.29
483.545	4.3
483.748	4.3
483.952	4.32
484.155	4.33
484.358	4.28
484.561	4.3
484.764	4.3
484.967	4.32
485.171	4.3
485.374	4.32
485.577	4.33
485.78	4.34
485.983	4.34
486.186	4.27
486.389	4.24
486.592	4.24
486.795	4.22
486.998	4.19
487.201	4.21
487.404	4.24
487.607	4.26
487.81	4.3
488.013	4.27
488.216	4.27
488.419	4.29
488.622	4.27
488.825	4.24
489.028	4.24
489.231	4.22
489.433	4.22
489.636	4.2
489.839	4.23
490.042	4.23
490.245	4.22
490.447	4.23
490.65	4.23
490.853	4.27
491.056	4.28
491.258	4.26
491.461	4.26
491.664	4.24
491.866	4.23
492.069	4.25
492.272	4.24
492.474	4.26
492.677	4.26
492.879	4.29
493.082	4.32
493.285	4.33
493.487	4.32
493.69	4.33
493.892	4.34
494.095	4.32
494.297	4.35
494.5	4.39
494.702	4.4
494.905	4.39
495.107	4.38
495.309	4.36
495.512	4.4
495.714	4.4
495.917	4.39
496.119	4.4
496.321	4.45
496.524	4.5
496.726	4.51
496.928	4.54
497.13	4.58
497.333	4.6
497.535	4.58
497.737	4.55
497.939	4.55
498.142	4.6
498.344	4.61
498.546	4.63
498.748	4.64
498.95	4.68
499.152	4.68
499.355	4.68
499.557	4.66
499.759	4.7
499.961	4.7
500.163	4.72
500.365	4.72
500.567	4.76
500.769	4.79
500.971	4.82
501.173	4.77
501.375	4.78
501.577	4.78
501.779	4.81
501.981	4.79
502.183	4.78
502.385	4.82
502.587	4.83
502.788	4.83
502.99	4.81
503.192	4.82
503.394	4.86
503.596	4.86
503.798	4.9
503.999	4.93
504.201	4.94
504.403	4.99
504.605	5.03
504.806	5.04
505.008	5.03
505.21	5
505.411	5.04
505.613	5.06
505.815	5.06
506.016	5.05
506.218	5.08
506.42	5.13
506.621	5.15
506.823	5.16
507.024	5.16
507.226	5.18
507.427	5.17
507.629	5.2
507.83	5.19
508.032	5.22
508.233	5.23
508.435	5.24
508.636	5.23
508.838	5.27
509.039	5.28
509.24	5.29
509.442	5.23
509.643	5.25
509.845	5.27
510.046	5.24
510.247	5.3
510.448	5.29
510.65	5.32
510.851	5.35
511.052	5.36
511.254	5.33
511.455	5.37
511.656	5.31
511.857	5.3
512.058	5.34
512.26	5.35
512.461	5.33
512.662	5.34
512.863	5.33
513.064	5.34
513.265	5.38
513.466	5.37
513.667	5.37
513.868	5.38
514.069	5.42
514.27	5.46
514.471	5.5
514.672	5.49
514.873	5.49
515.074	5.52
515.275	5.51
515.476	5.52
515.677	5.51
515.878	5.52
516.079	5.55
516.28	5.53
516.481	5.51
516.682	5.56
516.882	5.55
517.083	5.59
517.284	5.6
517.485	5.57
517.686	5.58
517.886	5.6
518.087	5.58
518.288	5.6
518.488	5.58
518.689	5.59
518.89	5.61
519.091	5.64
519.291	5.63
519.492	5.62
519.692	5.65
519.893	5.66
520.094	5.66
520.294	5.66
520.495	5.66
520.695	5.69
520.896	5.69
521.096	5.7
521.297	5.7
521.497	5.71
521.698	5.75
521.898	5.76
522.099	5.76
522.299	5.79
522.499	5.77
522.7	5.83
522.9	5.82
523.101	5.86
523.301	5.88
523.501	5.89
523.702	5.89
523.902	5.93
524.102	5.95
524.302	6
524.503	5.98
524.703	6.01
524.903	6.07
525.103	6.1
525.304	6.08
525.504	6.03
525.704	6
525.904	6.01
526.104	6.02
526.304	5.99
526.504	5.98
526.705	6
526.905	6.03
527.105	6.04
527.305	6.04
527.505	6.06
527.705	6.04
527.905	6.06
528.105	6.06
528.305	6.07
528.505	6.09
528.705	6.14
528.905	6.1
529.105	6.18
529.304	6.2
529.504	6.21
529.704	6.22
529.904	6.27
530.104	6.25
530.304	6.29
530.503	6.26
530.703	6.28
530.903	6.28
531.103	6.29
531.303	6.32
531.502	6.32
531.702	6.34
531.902	6.38
532.101	6.38
532.301	6.43
532.501	6.46
532.7	6.44
532.9	6.45
533.1	6.48
533.299	6.51
533.499	6.53
533.698	6.54
533.898	6.55
534.097	6.57
534.297	6.6
534.496	6.58
534.696	6.57
534.895	6.6
535.095	6.63
535.294	6.63
535.494	6.64
535.693	6.64
535.892	6.67
536.092	6.67
536.291	6.68
536.491	6.67
536.69	6.7
536.889	6.71
537.088	6.71
537.288	6.75
537.487	6.82
537.686	6.84
537.886	6.89
538.085	6.93
538.284	6.97
538.483	7.04
538.682	7.05
538.882	7.06
539.081	7.08
539.28	7.09
539.479	7.11
539.678	7.16
539.877	7.19
540.076	7.22
540.275	7.24
540.474	7.25
540.673	7.3
540.872	7.33
541.071	7.33
541.27	7.34
541.469	7.36
541.668	7.42
541.867	7.46
542.066	7.48
542.265	7.52
542.464	7.58
542.663	7.65
542.862	7.71
543.06	7.72
543.259	7.75
543.458	7.79
543.657	7.8
543.856	7.81
544.054	7.84
544.253	7.84
544.452	7.83
544.651	7.86
544.849	7.89
545.048	7.93
545.247	7.98
545.445	7.97
545.644	8.05
545.843	8.12
546.041	8.16
546.24	8.22
546.438	8.31
546.637	8.34
546.836	8.39
547.034	8.37
547.233	8.44
547.431	8.46
547.63	8.53
547.828	8.56
548.027	8.6
548.225	8.69
548.423	8.79
548.622	8.82
548.82	8.9
549.019	8.92
549.217	8.99
549.415	9.06
549.614	9.08
549.812	9.12
550.01	9.19
550.209	9.25
550.407	9.34
550.605	9.39
550.803	9.45
551.002	9.5
551.2	9.59
551.398	9.62
551.596	9.66
551.794	9.7
551.993	9.76
552.191	9.81
552.389	9.91
552.587	9.96
552.785	10.07
552.983	10.13
553.181	10.19
553.379	10.28
553.577	10.39
553.775	10.44
553.973	10.5
554.171	10.59
554.369	10.67
554.567	10.75
554.765	10.77
554.963	10.83
555.161	10.91
555.359	10.96
555.557	11.05
555.755	11.16
555.952	11.28
556.15	11.43
556.348	11.5
556.546	11.61
556.744	11.73
556.941	11.82
557.139	11.93
557.337	11.97
557.535	12.06
557.732	12.16
557.93	12.24
558.128	12.31
558.325	12.38
558.523	12.47
558.721	12.61
558.918	12.69
559.116	12.78
559.313	12.9
559.511	13.02
559.708	13.1
559.906	13.14
560.104	13.25
560.301	13.34
560.498	13.45
560.696	13.54
560.893	13.61
561.091	13.75
561.288	13.86
561.486	13.92
561.683	14
561.88	14.07
562.078	14.18
562.275	14.3
562.473	14.36
562.67	14.47
562.867	14.56
563.064	14.66
563.262	14.79
563.459	14.89
563.656	15.01
563.853	15.14
564.051	15.25
564.248	15.36
564.445	15.45
564.642	15.56
564.839	15.66
565.036	15.78
565.234	15.89
565.431	15.98
565.628	16.11
565.825	16.2
566.022	16.24
566.219	16.27
566.416	16.3
566.613	16.4
566.81	16.47
567.007	16.48
567.204	16.56
567.401	16.67
567.598	16.79
567.795	16.87
567.991	16.92
568.188	17.02
568.385	17.18
568.582	17.29
568.779	17.35
568.976	17.43
569.172	17.53
569.369	17.57
569.566	17.6
569.763	17.64
569.96	17.71
570.156	17.77
570.353	17.81
570.55	17.85
570.746	17.9
570.943	18
571.14	18.04
571.336	18.07
571.533	18.13
571.729	18.2
571.926	18.25
572.123	18.28
572.319	18.27
572.516	18.32
572.712	18.34
572.909	18.39
573.105	18.43
573.302	18.46
573.498	18.56
573.695	18.65
573.891	18.62
574.087	18.67
574.284	18.68
574.48	18.74
574.677	18.78
574.873	18.79
575.069	18.81
575.266	18.86
575.462	18.92
575.658	18.98
575.854	18.97
576.051	18.97
576.247	18.94
576.443	19
576.639	19.01
576.835	18.99
577.032	18.96
577.228	18.93
577.424	18.93
577.62	19.03
577.816	18.96
578.012	19
578.208	19.03
578.404	19.03
578.6	19.1
578.796	19.14
578.993	19.1
579.189	19.12
579.384	19.05
579.58	19.01
579.776	19
579.972	18.95
580.168	18.91
580.364	18.9
580.56	18.87
580.756	18.89
580.952	18.91
581.148	18.93
581.343	18.92
581.539	18.86
581.735	18.84
581.931	18.9
582.127	18.9
582.322	18.86
582.518	18.83
582.714	18.84
582.909	18.85
583.105	18.86
583.301	18.81
583.496	18.78
583.692	18.78
583.888	18.71
584.083	18.7
584.279	18.73
584.474	18.68
584.67	18.64
584.866	18.66
585.061	18.65
585.257	18.7
585.452	18.76
585.648	18.72
585.843	18.76
586.039	18.78
586.234	18.74
586.429	18.75
586.625	18.73
586.82	18.64
587.015	18.63
587.211	18.63
587.406	18.61
587.601	18.62
587.797	18.59
587.992	18.62
588.187	18.63
588.383	18.67
588.578	18.63
588.773	18.64
588.968	18.68
589.163	18.72
589.359	18.71
589.554	18.75
589.749	18.78
589.944	18.85
590.139	18.88
590.334	18.87
590.529	18.93
590.724	18.92
590.919	18.95
591.114	18.92
591.309	18.94
591.504	18.96
591.699	19.01
591.894	19.03
592.089	19.1
592.284	19.11
592.479	19.23
592.674	19.26
592.869	19.31
593.064	19.38
593.259	19.37
593.454	19.39
593.648	19.47
593.843	19.5
594.038	19.6
594.233	19.68
594.428	19.73
594.622	19.79
594.817	19.89
595.012	19.98
595.206	20.04
595.401	20.01
595.596	20.12
595.79	20.15
595.985	20.3
596.18	20.39
596.374	20.46
596.569	20.59
596.763	20.79
596.958	20.86
597.153	20.95
597.347	21.03
597.542	21.07
597.736	21.16
597.931	21.19
598.125	21.21
598.319	21.28
598.514	21.36
598.708	21.43
598.903	21.58
599.097	21.62
599.291	21.66
599.486	21.74
599.68	21.78
599.874	21.91
600.069	21.98
600.263	21.95
600.457	21.99
600.651	22.15
600.846	22.16
601.04	22.21
601.234	22.24
601.428	22.24
601.622	22.33
601.817	22.44
602.011	22.44
602.205	22.51
602.399	22.58
602.593	22.57
602.787	22.6
602.981	22.61
603.175	22.52
603.369	22.52
603.563	22.49
603.757	22.44
603.951	22.41
604.145	22.37
604.339	22.37
604.533	22.38
604.727	22.35
604.921	22.27
605.115	22.25
605.309	22.27
605.502	22.28
605.696	22.24
605.89	22.22
606.084	22.17
606.278	22.15
606.471	22.1
606.665	22.03
606.859	21.99
607.053	21.91
607.246	21.82
607.44	21.74
607.634	21.68
607.827	21.6
608.021	21.53
608.214	21.44
608.408	21.35
608.602	21.32
608.795	21.25
608.989	21.2
609.182	21.17
609.376	21.11
609.569	21.05
609.763	21.07
609.956	20.98
610.15	20.99
610.343	20.95
610.537	20.87
610.73	20.81
610.923	20.72
611.117	20.57
611.31	20.5
611.504	20.37
611.697	20.24
611.89	20.15
612.083	20.08
612.277	19.98
612.47	19.95
612.663	19.84
612.856	19.76
613.05	19.7
613.243	19.61
613.436	19.45
613.629	19.42
613.822	19.27
614.015	19.21
614.209	19.16
614.402	19.13
614.595	19.04
614.788	18.99
614.981	18.89
615.174	18.84
615.367	18.77
615.56	18.7
615.753	18.58
615.946	18.57
616.139	18.54
616.332	18.45
616.525	18.45
616.718	18.37
616.911	18.3
617.103	18.26
617.296	18.12
617.489	18.05
617.682	18.07
617.875	17.91
618.067	17.83
618.26	17.77
618.453	17.7
618.646	17.69
618.838	17.64
619.031	17.57
619.224	17.6
619.417	17.59
619.609	17.53
619.802	17.52
619.994	17.47
620.187	17.48
620.38	17.43
620.572	17.36
620.765	17.35
620.957	17.3
621.15	17.22
621.342	17.2
621.535	17.17
621.727	17.12
621.92	17.09
622.112	17.07
622.305	17.06
622.497	17.07
622.69	17.04
622.882	17
623.074	16.97
623.267	16.97
623.459	16.93
623.651	16.93
623.844	16.96
624.036	16.91
624.228	16.87
624.42	16.88
624.613	16.83
624.805	16.82
624.997	16.8
625.189	16.72
625.381	16.69
625.574	16.66
625.766	16.61
625.958	16.59
626.15	16.57
626.342	16.53
626.534	16.48
626.726	16.52
626.918	16.52
627.11	16.54
627.302	16.5
627.494	16.49
627.686	16.45
627.878	16.44
628.07	16.33
628.262	16.26
628.454	16.2
628.646	16.18
628.838	16.11
629.029	16.04
629.221	15.98
629.413	15.94
629.605	15.88
629.797	15.84
629.989	15.8
630.18	15.72
630.372	15.73
630.564	15.77
630.755	15.71
630.947	15.7
631.139	15.66
631.33	15.62
631.522	15.62
631.714	15.62
631.905	15.52
632.097	15.54
632.289	15.51
632.48	15.5
632.672	15.45
632.863	15.4
633.055	15.4
633.246	15.37
633.438	15.36
633.629	15.4
633.821	15.37
634.012	15.41
634.203	15.46
634.395	15.44
634.586	15.45
634.777	15.4
634.969	15.36
635.16	15.34
635.351	15.32
635.543	15.26
635.734	15.2
635.925	15.22
636.117	15.26
636.308	15.23
636.499	15.2
636.69	15.25
636.881	15.29
637.073	15.3
637.264	15.23
637.455	15.2
637.646	15.25
637.837	15.27
638.028	15.23
638.219	15.21
638.41	15.19
638.601	15.23
638.792	15.22
638.983	15.13
639.174	15.13
639.365	15.14
639.556	15.07
639.747	15.1
639.938	15.07
640.129	15.05
640.32	15.04
640.511	14.99
640.701	14.88
640.892	14.88
641.083	14.81
641.274	14.77
641.465	14.75
641.655	14.79
641.846	14.74
642.037	14.76
642.228	14.71
642.418	14.74
642.609	14.72
642.8	14.69
642.99	14.64
643.181	14.69
643.372	14.67
643.562	14.68
643.753	14.64
643.943	14.61
644.134	14.64
644.324	14.6
644.515	14.56
644.705	14.53
644.896	14.49
645.086	14.45
645.277	14.5
645.467	14.45
645.658	14.45
645.848	14.41
646.038	14.41
646.229	14.43
646.419	14.42
646.61	14.35
646.8	14.31
646.99	14.29
647.18	14.24
647.371	14.23
647.561	14.18
647.751	14.16
647.941	14.08
648.132	14.13
648.322	14.13
648.512	14.18
648.702	14.14
648.892	14.2
649.082	14.19
649.272	14.21
649.462	14.13
649.653	14.11
649.843	14.04
650.033	14.02
650.223	13.97
650.413	13.96
650.603	13.94
650.793	13.86
650.983	13.83
651.172	13.8
651.362	13.74
651.552	13.64
651.742	13.58
651.932	13.57
652.122	13.54
652.312	13.38
652.502	13.36
652.691	13.33
652.881	13.31
653.071	13.22
653.261	13.11
653.45	13.05
653.64	13.11
653.83	13
654.019	12.8
654.209	12.68
654.399	12.57
654.588	12.42
654.778	12.32
654.968	12.19
655.157	12.02
655.347	11.97
655.536	11.81
655.726	11.75
655.915	11.65
656.105	11.5
656.294	11.34
656.484	11.25
656.673	11.15
656.863	11.09
657.052	10.86
657.241	10.7
657.431	10.55
657.62	10.4
657.809	10.27
657.999	10.16
658.188	9.97
658.377	9.95
658.567	9.82
658.756	9.68
658.945	9.54
659.134	9.37
659.324	9.2
659.513	9.05
659.702	8.83
659.891	8.66
660.08	8.56
660.269	8.4
660.458	8.24
660.648	8.09
660.837	8.02
661.026	7.96
661.215	7.89
661.404	7.75
661.593	7.65
661.782	7.56
661.971	7.42
662.16	7.23
662.349	7.09
662.538	6.99
662.726	6.85
662.915	6.79
663.104	6.68
663.293	6.62
663.482	6.55
663.671	6.47
663.86	6.37
664.048	6.34
664.237	6.24
664.426	6.3
664.615	6.23
664.803	6.18
664.992	6.15
665.181	6.11
665.369	5.99
665.558	5.93
665.747	5.86
665.935	5.86
666.124	5.82
666.312	5.71
666.501	5.66
666.69	5.7
666.878	5.71
667.067	5.69
667.255	5.61
667.444	5.66
667.632	5.68
667.82	5.7
668.009	5.73
668.197	5.68
668.386	5.62
668.574	5.6
668.762	5.55
668.951	5.55
669.139	5.61
669.327	5.58
669.516	5.61
669.704	5.68
669.892	5.73
670.08	5.71
670.269	5.72
670.457	5.67
670.645	5.68
670.833	5.7
671.021	5.62
671.21	5.69
671.398	5.77
671.586	5.81
671.774	5.81
671.962	5.85
672.15	5.89
672.338	6.06
672.526	6.08
672.714	6.09
672.902	6.13
673.09	6.18
673.278	6.21
673.466	6.27
673.654	6.25
673.842	6.23
674.03	6.28
674.218	6.34
674.405	6.4
674.593	6.41
674.781	6.45
674.969	6.53
675.157	6.65
675.344	6.68
675.532	6.72
675.72	6.75
675.908	6.86
676.095	6.97
676.283	7.01
676.471	7.07
676.658	7.16
676.846	7.21
677.033	7.35
677.221	7.45
677.409	7.48
677.596	7.59
677.784	7.69
677.971	7.78
678.159	7.92
678.346	7.95
678.534	7.99
678.721	8.01
678.909	7.99
679.096	8.01
679.283	8.08
679.471	8.18
679.658	8.26
679.846	8.38
680.033	8.53
680.22	8.65
680.408	8.73
680.595	8.69
680.782	8.7
680.969	8.81
681.157	8.86
681.344	8.99
681.531	9.1
681.718	9.26
681.905	9.51
682.093	9.71
682.28	9.95
682.467	10.08
682.654	10.11
682.841	10.27
683.028	10.44
683.215	10.53
683.402	10.58
683.589	10.6
683.776	10.79
683.963	10.91
684.15	11.07
684.337	11.18
684.524	11.38
684.711	11.61
684.898	11.78
685.085	11.96
685.271	12.19
685.458	12.43
685.645	12.62
685.832	12.87
686.019	13.14
686.205	13.36
686.392	13.66
686.579	13.99
686.766	14.3
686.952	14.61
687.139	14.89
687.326	15.21
687.512	15.59
687.699	15.95
687.886	16.22
688.072	16.55
688.259	16.98
688.445	17.4
688.632	17.88
688.818	18.28
689.005	18.76
689.191	19.29
689.378	19.69
689.564	20.21
689.751	20.69
689.937	21.13
690.124	21.71
690.31	22.17
690.496	22.63
690.683	23.29
690.869	23.84
691.055	24.55
691.242	25.01
691.428	25.57
691.614	26.3
691.8	27.05
691.987	27.65
692.173	28.41
692.359	28.97
692.545	29.67
692.731	30.38
692.918	31.02
693.104	31.65
693.29	32.46
693.476	33.03
693.662	33.73
693.848	34.38
694.034	34.98
694.22	35.64
694.406	36.42
694.592	37.04
694.778	37.76
694.964	38.46
695.15	39.27
695.336	40.06
695.522	40.83
695.708	41.54
695.894	42.29
696.08	42.98
696.265	43.67
696.451	44.49
696.637	45.19
696.823	45.86
697.009	46.51
697.194	47.24
697.38	47.84
697.566	48.49
697.751	49.06
697.937	49.73
698.123	50.37
698.308	51.04
698.494	51.57
698.68	52.36
698.865	53.1
699.051	53.73
699.236	54.53
699.422	55.28
699.607	55.88
699.793	56.47
699.978	57.01
700.164	57.68
700.349	58.19
700.535	58.6
700.72	58.92
700.906	59.5
701.091	59.96
701.276	60.52
701.462	60.91
701.647	61.34
701.832	61.99
702.018	62.42
702.203	62.75
702.388	63.26
702.573	63.69
702.759	64.15
702.944	64.79
703.129	65.11
703.314	65.64
703.499	66.2
703.684	66.8
703.87	67.17
704.055	67.67
704.24	68.04
704.425	68.62
704.61	68.95
704.795	69.41
704.98	69.64
705.165	70.04
705.35	70.35
705.535	70.85
705.72	70.89
705.905	71.27
706.09	71.5
706.275	71.74
706.459	72.28
706.644	72.6
706.829	72.75
707.014	73.2
707.199	73.57
707.384	74.03
707.568	74.58
707.753	74.68
707.938	74.98
708.123	75.15
708.307	75.66
708.492	76.01
708.677	76.37
708.861	76.49
709.046	76.7
709.231	76.94
709.415	77.25
709.6	77.2
709.784	77.37
709.969	77.44
710.153	77.85
710.338	78.12
710.522	78.25
710.707	78.42
710.891	78.59
711.076	78.68
711.26	78.95
711.445	78.86
711.629	78.99
711.813	79.05
711.998	79.33
712.182	79.62
712.366	79.93
712.551	80.05
712.735	80.33
712.919	80.78
713.103	81.07
713.288	81.29
713.472	81.28
713.656	81.18
713.84	81.16
714.024	81.46
714.208	81.23
714.393	81.7
714.577	81.83
714.761	82.27
714.945	82.38
715.129	82.69
715.313	82.82
715.497	83.19
715.681	83.36
715.865	83.4
716.049	83.34
716.233	83.98
716.417	84.24
716.601	84.23
716.785	84.2
716.968	83.83
717.152	84.02
717.336	84.04
717.52	84.01
717.704	84.11
717.888	84.14
718.071	84.18
718.255	84.43
718.439	84.09
718.622	84.35
718.806	84.06
718.99	84.06
719.174	84.26
719.357	84.5
719.541	84.9
719.724	85.38
719.908	85.5
720.092	86.12
720.275	86.25
720.459	86.3
720.642	86.31
720.826	86.02
721.009	86.13
721.193	86.28
721.376	85.97
721.559	85.94
721.743	86.07
721.926	86.12
722.11	86.38
722.293	86.09
722.476	85.84
722.66	85.99
722.843	86.22
723.026	86.01
723.21	86.05
723.393	85.9
723.576	86.2
723.759	86.38
723.942	86.54
724.126	86.14
724.309	86.39
724.492	86.39
724.675	86.68
724.858	87.03
725.041	87.28
725.224	87.22
725.407	87.57
725.59	87.74
725.774	88.2
725.957	88.32
726.14	87.98
726.322	87.79
726.505	88.24
726.688	88.23
726.871	88.27
727.054	88.01
727.237	87.71
727.42	88.15
727.603	88.25
727.786	88.02
727.968	88.39
728.151	88.71
728.334	89.07
728.517	89.25
728.699	88.97
728.882	89.35
729.065	89.44
729.248	89.14
729.43	88.61
729.613	88.4
729.796	88.79
729.978	89.41
730.161	89.6
730.343	90.19
730.526	90.54
730.708	91.3
730.891	91.67
731.073	91.31
731.256	91.11
731.438	91.1
731.621	90.86
731.803	90.97
731.986	90.68
732.168	90.55
732.35	91.15
732.533	91.19
732.715	90.97
732.898	90.91
733.08	91.27
733.262	91.54
733.444	91.69
733.627	91.87
733.809	91.91
733.991	92.38
734.173	91.77
734.355	91.35
734.538	91.12
734.72	91.11
734.902	90.61
735.084	90.9
735.266	90.31
735.448	91.04
735.63	91.13
735.812	91.37
735.994	91.16
736.176	91.61
736.358	91.26
736.54	91.42
736.722	91.24
736.904	91.31
737.086	90.94
737.268	91.33
737.45	91.08
737.632	90.66
737.814	90.88
737.995	91.19
738.177	91.52
738.359	91.77
738.541	91.61
738.723	91.83
738.904	91.89
739.086	91.74
739.268	91.87
739.449	91.56
739.631	92.04
739.813	92.05
739.994	92.1
740.176	92.97
740.358	93.2
740.539	92.97
740.721	92.89
740.902	91.91
741.084	91.74
741.265	91.53
741.447	90.76
741.628	90.61
741.81	90.64
741.991	91.36
742.172	91.83
742.354	92.53
742.535	93.07
742.717	93.61
742.898	94.29
743.079	94.66
743.261	94.28
743.442	94.55
743.623	94.08
743.804	93.78
743.986	93.68
744.167	93.2
744.348	93.12
744.529	92.38
744.71	92.06
744.891	92.05
745.073	91.51
745.254	91.5
745.435	91.58
745.616	91.06
745.797	91.14
745.978	91.55
746.159	91.44
746.34	92.1
746.521	92.02
746.702	91.6
746.883	91.9
747.064	92.13
747.245	92.94
747.426	93.43
747.606	93.53
747.787	93.86
747.968	94.47
748.149	94.33
748.33	95.58
748.51	94.17
748.691	94.18
748.872	93.23
749.053	92.9
749.233	92.48
749.414	92.69
749.595	91.65
749.775	92
749.956	91.16
750.137	91.69
750.317	91.77
750.498	92.3
750.678	92.23
750.859	92.34
751.04	92.26
751.22	92.58
751.4	92.5
751.581	92.13
751.761	92.07
751.942	91.82
752.122	91.99
752.303	91.62
752.483	91.47
752.663	91.9
752.844	92.21
753.024	92.25
753.204	92.25
753.385	91.67
753.565	91.51
753.745	91.32
753.925	90.45
754.106	90.81
754.286	90.52
754.466	90.07
754.646	90.27
754.826	90.73
755.006	91.29
755.187	91.4
755.367	90.81
755.547	90.76
755.727	90.56
755.907	90.81
756.087	90.6
756.267	90.3
756.447	90.67
756.627	90.73
756.807	90.83
756.987	91.58
757.167	91.08
757.346	91.07
757.526	91.47
757.706	91.19
757.886	90.89
758.066	90.81
758.246	90.71
758.425	90.88
758.605	90.97
758.785	90.29
758.965	89.77
759.144	90.52
759.324	90.15
759.504	89.93
759.683	89.77
759.863	89.28
760.043	89.47
760.222	90.28
760.402	90.33
760.581	89.59
760.761	89.14
760.94	88.32
761.12	88.54
761.299	88.3
761.479	87.99
761.658	87.92
761.838	88.48
762.017	89.14
762.197	90.33
762.376	90.43
762.555	90.6
762.735	89.31
762.914	88.56
763.093	88.17
763.273	87.99
763.452	87.26
763.631	87.07
763.81	87.8
763.99	89.03
764.169	89.13
764.348	90.1
764.527	89.18
764.706	89.24
764.885	89.79
765.064	89.13
765.243	88.38
765.423	88.85
765.602	88
765.781	88.66
765.96	89
766.139	88.37
766.318	88.58
766.497	88.39
766.676	88.63
766.854	88.31
767.033	88.08
767.212	88.13
767.391	88.14
767.57	87.68
767.749	88.05
767.928	87.24
768.106	87.74
768.285	88.43
768.464	88.74
768.643	89.88
768.821	90.24
769	91.41
769.179	91.34
769.357	90.8
769.536	89.55
769.715	88.84
769.893	87.49
770.072	86.96
770.25	86.26
770.429	86.51
770.607	87.58
770.786	89.1
770.964	88.09
771.143	88.28
771.321	87.19
771.5	86.45
771.678	86.33
771.857	85.19
772.035	84.52
772.213	85.82
772.392	86.37
772.57	87.87
772.748	87.62
772.927	87.31
773.105	88.37
773.283	87.15
773.461	86.76
773.64	85.92
773.818	85.32
773.996	85.77
774.174	86.28
774.352	85.75
774.531	85.49
774.709	85.84
774.887	85.2
775.065	85.04
775.243	85.14
775.421	83.74
775.599	84.12
775.777	85.59
775.955	84.82
776.133	85.38
776.311	86.46
776.489	87.09
776.667	88.03
776.844	87.33
777.022	86.82
777.2	87.6
777.378	88.08
777.556	88.36
777.734	87.46
777.911	89.14
778.089	88.53
778.267	88.92
778.445	87.42
778.622	86.58
778.8	84.65
778.978	84.51
779.155	81.69
779.333	80.33
779.511	79.35
779.688	79.32
779.866	79.28
780.043	79.92
780.221	80.3
780.398	81.74
780.576	82.78
780.753	82.42
780.931	83.51
781.108	83.7
781.286	83.22
781.463	83.57
781.64	83.33
781.818	84.03
781.995	86.25
782.172	85.12
782.35	84.86
782.527	85.7
782.704	83.95
782.882	84.91
783.059	83.57
783.236	82.48
783.413	84.61
783.59	84.61
783.768	82.98
783.945	84.78
784.122	84.32
784.299	85.95
784.476	84.98
784.653	83.17
784.83	82.77
785.007	83.64
785.184	82.86
785.361	80.74
785.538	80.05
785.715	80.97
785.892	79.74
786.069	80.64
786.246	79.62
786.423	81.12
786.6	81.58
786.776	82.34
786.953	81.19
787.13	83.76
787.307	83.26
787.484	83.86
787.66	81.03
787.837	81.85
788.014	79.76
788.191	80.39
788.367	76.92
788.544	77.52
788.721	78.43
788.897	80.16
789.074	80.4
789.25	82.15
789.427	80.74
789.603	84.59
789.78	86
789.956	84.9
790.133	84.36
790.309	82.48
790.486	83.71
790.662	85.88
790.839	86.05
791.015	85.27
791.192	84.54
791.368	85.73
791.544	88.16
791.721	87.28
791.897	87.01
792.073	83.47
792.249	83.62
792.426	87.09
792.602	85.85
792.778	83.72
792.954	83.76
793.13	83.75
793.307	85.6
793.483	83.93
793.659	82.45
793.835	81.58
794.011	81.43
794.187	78.77
794.363	77.46
794.539	77.16
794.715	76.31
794.891	73.42
795.067	74.58
795.243	75.12
795.419	77.53
795.595	77.76
795.771	79.33
795.947	79.07
796.122	80.24
796.298	80.97
796.474	80.93
796.65	81.06
796.826	84.78
797.001	83.31
797.177	83.37
797.353	84.21
797.529	84.61
797.704	86.2
797.88	83.76
798.056	81.59
798.231	83.92
798.407	84.33
798.582	82.69
798.758	80.88
798.934	78.96
799.109	79.02
799.285	79.18
799.46	77.34
799.636	77.96
799.811	81.36
799.986	81.78
800.162	82.79
800.337	83.97
800.513	79.11
800.688	79.39
800.863	79.35
801.039	75.65
801.214	74.14
801.389	74.47
801.565	76.88
801.74	79.62
801.915	79.04
802.09	77.89
802.265	82.52
802.441	85.52
802.616	85.81
802.791	85.35
802.966	86.53
803.141	82.37
803.316	83.85
803.491	81.11
803.666	82.37
803.841	81.61
804.016	80.39
804.191	80.37
804.366	83.36
804.541	82.38
804.716	78.31
804.891	77.66
805.066	77.8
805.241	78.78
805.416	78.04
805.591	79.4
805.765	78.41
805.94	81.54
806.115	76.56
806.29	79.46
806.464	75.58
806.639	79.9
806.814	78.77
806.989	81.13
807.163	82.23
807.338	85.53
807.512	80.03
807.687	81.65
807.862	74.98
808.036	72.77
808.211	75.79
808.385	71.98
808.56	68.32
808.734	72.04
808.909	70.34
809.083	72.96
809.258	78.4
809.432	72.37
809.606	75.97
809.781	75.54
809.955	72.14
810.13	75.83
810.304	76.51
810.478	75.91
810.652	79.69
810.827	79.95
811.001	82.17
811.175	82.19
811.349	81.51
811.524	81.8
811.698	82.55
811.872	84.31
812.046	84.07
812.22	83.8
812.394	85.07
812.568	83.28
812.742	85.57
812.916	82.44
813.09	75.97
813.264	76.26
813.438	82.29
813.612	84.16
813.786	87.27
813.96	83.99
814.134	84.49
814.308	83.19
814.482	82.08
814.656	76.21
814.83	73.95
815.003	74.33
815.177	75.19
815.351	76.5
815.525	80.15
815.698	81.29
815.872	82.66
816.046	84.86
816.219	84.77
816.393	82.55
816.567	80.4
816.74	80.92
816.914	81.16
817.088	80.4
817.261	82.11
817.435	77.68
817.608	77.27
817.782	83.81
817.955	84.73
818.129	83.49
818.302	86.77
818.475	85.92
818.649	86.04
818.822	89.86
818.996	88.33
819.169	84.35
819.342	84.16
819.516	82.95
819.689	86.45
819.862	86.79
820.035	88.34
820.209	85.16
820.382	79.85
820.555	81.24
820.728	79.98
820.901	72.01
821.075	73.69
821.248	68.76
821.421	65.7
821.594	73.21
821.767	70.57
821.94	68.15
822.113	68.46
822.286	68.89
822.459	76.12
822.632	77.39
822.805	77.86
822.978	78.35
823.151	84.53
823.324	80.76
823.496	70.99
823.669	69.96
823.842	71.53
824.015	62.07
824.188	62.87
824.361	55.88
824.533	53.91
824.706	73.53
824.879	77.07
825.051	78.87
825.224	82.45
825.397	79.41
825.569	83.28
825.742	86.2
825.915	74.43
826.087	63.21
826.26	63.98
826.432	66.69
826.605	66.76
826.777	61.23
826.95	62.47
827.122	68.21
827.295	74.64
827.467	70.03
827.64	72.05
827.812	74.65
827.984	77.58
828.157	80.95
828.329	83.86
828.501	78.85
828.674	78.93
828.846	71.6
829.018	66.48
829.19	62.15
829.363	64.42
829.535	57.91
829.707	58.04
829.879	54.01
830.051	48.3
830.223	45.84
830.395	48.78
830.568	49.22
830.74	56.66
830.912	59.65
831.084	61.24
831.256	70.85
831.428	78.62
831.6	81.14
831.772	73.31
831.943	68.13
832.115	70.22
832.287	67.57
832.459	66.34
832.631	65.95
832.803	66.83
832.975	69.89
833.146	75.48
833.318	73.23
833.49	71.64
833.662	64.15
833.833	71.58
834.005	67.51
834.177	66.95
834.348	63.79
834.52	64.93
834.692	76.51
834.863	85.72
835.035	75.34
835.206	75.81
835.378	77.11
835.549	67.39
835.721	68.99
835.892	61.88
836.064	57.2
836.235	58.28
836.407	61.94
836.578	57.96
836.749	64.92
836.921	57.87
837.092	69.31
837.264	78.85
837.435	73.74
837.606	73.46
837.777	69.05
837.949	65.73
838.12	62.3
838.291	58.02
838.462	61.55
838.633	64.51
838.805	55.89
838.976	58.09
839.147	58.48
839.318	64.05
839.489	61.51
839.66	55.11
839.831	53.78
840.002	58.11
840.173	66.32
840.344	82.12
840.515	81.06
840.686	86.92
840.857	82.65
841.028	79.07
841.199	83.59
841.369	79.19
841.54	71.86
841.711	82.24
841.882	75.58
842.053	91.42
842.223	102.6
842.394	90.51
842.565	99.41
842.736	95.18
842.906	79.8
843.077	75.18
843.248	75
843.418	80.59
843.589	83.38
843.759	82.8
843.93	84.5
844.101	86.65
844.271	88.89
844.442	79.48
844.612	69.94
844.783	63.17
844.953	47.58
845.123	51.25
845.294	40.24
845.464	51.53
845.635	59.12
845.805	55.05
845.975	52.04
846.146	56.35
846.316	66.15
846.486	70.02
846.656	69.87
846.827	62.57
846.997	72.48
847.167	74.51
847.337	76.46
847.507	68.48
847.677	69.8
847.848	59.76
848.018	63.86
848.188	56.68
848.358	65.97
848.528	76.87
848.698	71.33
848.868	77.06
849.038	81.88
849.208	72.95
849.378	74.9
849.548	68.27
849.718	51.38
849.887	54.36
850.057	54.32
850.227	53.43
850.397	53.46
850.567	73.11
850.737	76.56
850.906	82.46
851.076	66.83
851.246	69.58
851.415	80.45
851.585	91
851.755	76.19
851.924	80.87
852.094	74
852.264	89.5
852.433	91.15
852.603	95.06
852.772	80.59
852.942	76.71
853.111	79.56
853.281	81.26
853.45	78.72
853.62	79.31
853.789	77.52
853.959	85.22
854.128	82.3
854.297	71.6
854.467	66.26
854.636	57.12
854.805	51.86
854.975	50.41
855.144	53.65
855.313	65.8
855.482	53.51
855.652	56.96
855.821	62.66
855.99	73.34
856.159	52.62
856.328	51.72
856.497	34.3
856.667	51.25
856.836	59.92
857.005	54.62
857.174	57.75
857.343	64.96
857.512	63.3
857.681	73.27
857.85	70.34
858.019	58.69
858.188	66.22
858.356	46.26
858.525	51.57
858.694	56.13
858.863	63.89
859.032	53.65
859.201	39.76
859.369	42.61
859.538	46.61
859.707	43.92
859.876	49.39
860.044	39.27
860.213	52
860.382	74.76
860.55	88.78
860.719	74.91
860.888	64.42
861.056	65.13
861.225	92.92
861.393	89.81
861.562	73.08
861.73	72.95
861.899	77.24
862.067	85.3
862.236	73.91
862.404	62.61
862.572	61.22
862.741	71.51
862.909	61.6
863.078	59.65
863.246	67.51
863.414	70.65
863.582	63.71
863.751	60.44
863.919	48.87
864.087	43.25
864.255	47.21
864.424	45.35
864.592	55.32
864.76	64.8
864.928	69.26
865.096	66.36
865.264	82.26
865.432	82.84
865.6	76.39
865.768	65.66
865.936	59.18
866.104	62.76
866.272	76.27
866.44	38.86
866.608	51.26
866.776	66.75
866.944	72.69
867.112	62.27
867.28	68.24
867.448	70.99
867.615	91.58
867.783	62.32
867.951	74.07
868.119	69.36
868.286	87.4
868.454	75.52
868.622	62.71
868.789	62.4
868.957	86.75
869.125	77.79
869.292	72.7
869.46	61.77
869.627	49.53
869.795	49.49
869.963	44.77
870.13	43.45
870.298	35.77
870.465	37.67
870.632	46.65
870.8	51.46
870.967	55.47
871.135	51.52
871.302	42.64
871.469	46.81
871.637	43.29
871.804	51.26
871.971	52.2
872.139	57.52
872.306	58.59
872.473	51.81
872.64	51.22
872.807	77.42
872.975	78.63
873.142	61.89
873.309	72.33
873.476	74.25
873.643	145.35
873.81	189.02
873.977	104.79
874.144	99.45
874.311	106.44
874.478	59.52
874.645	94.53
874.812	89.55
874.979	53.44
875.146	41.98
875.313	74.43
875.48	156.02
875.647	176.93
875.813	130.42
875.98	88.46
876.147	87.51
876.314	96.09
876.481	65.22
876.647	36.34
876.814	45.59
876.981	40.43
877.147	30.88
877.314	31.13
877.481	34.11
877.647	48.69
877.814	46.92
877.98	45.69
878.147	42.62
878.314	50.95
878.48	41.66
878.647	59.83
878.813	61.48
878.979	75.39
879.146	65.87
879.312	99.78
879.479	95.51
879.645	88.7
879.811	79.65
879.978	58.77
880.144	78.46
880.31	93.62
880.477	70.01
880.643	160.18
880.809	203.34
880.975	158.91
881.142	131.89
881.308	143.03
881.474	165.19
881.64	111.02
881.806	68.98
881.972	90.03
882.138	106.45
882.304	140.49
882.47	134.39
882.636	81.55
882.802	128.66
882.968	134.94
883.134	37.27
883.3	61.99
883.466	99.02
883.632	49.05
883.798	53.52
883.964	55.32
884.129	68.47
884.295	63.36
884.461	43.43
884.627	3.42
884.793	29.84
884.958	52.3
885.124	44.54
885.29	24.91
885.455	14.74
885.621	32.2
885.787	34.15
885.952	27.81
886.118	36.82
886.283	53.05
886.449	71.75
886.614	93.19
886.78	82.55
886.945	76.18
887.111	86.15
887.276	59.2
887.442	34.56
887.607	33.85
887.773	29.77
887.938	34.04
888.103	47.29
888.269	48.47
888.434	59.78
888.599	73.24
888.764	69.02
888.93	65.16
889.095	41.88
889.26	59.04
889.425	61.49
889.59	48.65
889.756	37.18
889.921	30.98
890.086	32.04
890.251	33.17
890.416	3.15
890.581	2.01
890.746	13.3
890.911	-25.35
891.076	-15.76
891.241	-9.75
891.406	9.89
891.571	2.15
891.736	-9.03
891.901	0.59
892.065	13.91
892.23	-4.49
892.395	-0.09
892.56	29.84
892.725	26.58
892.889	45.75
893.054	37.28
893.219	89.69
893.384	140.7
893.548	375
893.713	-325.25
893.878	-211.96
