Data from Ofra_PS_T2_1A_0GT03_Reflection_3.txt Node
Date: Wed Jul 21 17:46:23 EDT 2021
User: Adam
Spectrometer: FLMT01687
Trigger mode: 0
Integration Time (sec): 1.100000E0
Scans to average: 2
Electric dark correction enabled: true
Nonlinearity correction enabled: false
Boxcar width: 2
XAxis mode: Wavelengths
Number of Pixels in Spectrum: 3648
>>>>>Begin Spectral Data<<<<<
179.494	488
179.716	548
179.937	521.17
180.158	490.25
180.38	753.12
180.601	253.04
180.823	97.19
181.044	-72.99
181.265	-9.56
181.486	4.56
181.708	56.58
181.929	769.39
182.15	-653.52
182.372	8.45
182.593	-49.83
182.814	2.24
183.035	152
183.257	92.89
183.478	-38.09
183.699	9.52
183.92	-16.84
184.141	-71.67
184.363	-71.65
184.584	14.32
184.805	-9.75
185.026	18.74
185.247	23.95
185.468	-4.35
185.689	-16.47
185.91	-6.37
186.132	2.85
186.353	-1.02
186.574	42.34
186.795	26.21
187.016	-7.04
187.237	-55.7
187.458	-65.4
187.679	-51.01
187.9	-21.64
188.121	-23.82
188.342	19.19
188.563	40.57
188.784	43.61
189.005	53.72
189.226	122.35
189.447	107.99
189.667	-14.08
189.888	-102.96
190.109	-1054.55
190.33	-742.58
190.551	-1390.27
190.772	-285.96
190.993	-273.27
191.214	-149.13
191.434	-79.88
191.655	19.26
191.876	-20.6
192.097	-41.78
192.318	-139.34
192.538	-275.07
192.759	-207.87
192.98	-67.84
193.201	-27.69
193.421	3.64
193.642	26.35
193.863	27.81
194.083	4.16
194.304	-12.95
194.525	-15.59
194.745	-25.57
194.966	-47.09
195.187	-77.51
195.407	-93.11
195.628	-143.43
195.848	-160.9
196.069	-149.43
196.29	-85.92
196.51	-99
196.731	-89.48
196.951	-92.69
197.172	-83.5
197.392	-131.79
197.613	-139.29
197.833	-157.58
198.054	-131.19
198.274	-90.42
198.495	-78.28
198.715	-23.05
198.936	-18.93
199.156	-11.12
199.377	-59.04
199.597	-86.43
199.817	-110.01
200.038	-54.94
200.258	-98.01
200.479	-69.03
200.699	-38.52
200.919	6.7
201.14	-44.57
201.36	-70.66
201.58	-3.92
201.801	21.78
202.021	-20.82
202.241	-4.34
202.461	-5.72
202.682	-102.49
202.902	-174.6
203.122	-95.29
203.342	-84.67
203.563	-3.72
203.783	28.84
204.003	-14.42
204.223	-22.28
204.443	28.11
204.663	-24.02
204.884	-23.2
205.104	34.21
205.324	62
205.544	30.2
205.764	33.14
205.984	33.43
206.204	38.57
206.424	19.9
206.644	-8.21
206.864	14.88
207.084	-21.66
207.304	-30.88
207.525	-125.31
207.745	-69.04
207.964	-29.17
208.184	-59.15
208.404	-114.59
208.624	-98.59
208.844	-86.93
209.064	-376.5
209.284	-420.98
209.504	-159.1
209.724	-32.07
209.944	-22.24
210.164	29.39
210.384	53.84
210.604	36.09
210.823	-16.9
211.043	-39.19
211.263	-37.62
211.483	-57.82
211.703	-109.24
211.922	-86.25
212.142	-9.7
212.362	1.01
212.582	-16.89
212.801	11.63
213.021	-3.56
213.241	-31.67
213.461	-88.3
213.68	-101.43
213.9	-88.79
214.12	-85.33
214.339	-148.89
214.559	-126.06
214.779	-58.19
214.998	-54.9
215.218	-104.46
215.438	-67.39
215.657	-66.73
215.877	-45.76
216.096	-12.27
216.316	23.85
216.535	23.52
216.755	38.06
216.974	-43.83
217.194	-109.63
217.413	-131.31
217.633	-133.79
217.852	-289.44
218.072	-109.83
218.291	-49.51
218.511	2.56
218.73	-1.84
218.95	-5.67
219.169	-18.78
219.389	-58.83
219.608	-52.16
219.827	-63.56
220.047	-32.27
220.266	-20.53
220.485	-21.84
220.705	-21.17
220.924	-28.58
221.143	6.46
221.363	-13.81
221.582	-14.58
221.801	-3.27
222.021	16.99
222.24	-26.68
222.459	20.31
222.678	4.58
222.897	-66.3
223.117	-146
223.336	-165.98
223.555	-121.53
223.774	-51.54
223.993	-55.1
224.213	42.31
224.432	32.86
224.651	75.08
224.87	36.34
225.089	47.85
225.308	33.53
225.527	56.54
225.746	36.43
225.965	36.38
226.184	18.48
226.404	30.02
226.623	-23.47
226.842	-7.89
227.061	21.97
227.28	18.93
227.499	-7.57
227.718	22.92
227.936	4.54
228.155	-4.97
228.374	-28.33
228.593	-0.96
228.812	-10.39
229.031	-10.58
229.25	-53.69
229.469	-30.67
229.688	-20.34
229.907	19.95
230.125	38.82
230.344	43.34
230.563	54.36
230.782	50.27
231.001	-28.66
231.22	-28.15
231.438	3.63
231.657	-3.89
231.876	-14.32
232.095	30.48
232.313	43.95
232.532	23.93
232.751	16.53
232.969	15
233.188	-7.85
233.407	19.3
233.625	9.13
233.844	-3.08
234.063	-13.5
234.281	12.2
234.5	-17.69
234.719	0.06
234.937	17.51
235.156	19.56
235.374	19.44
235.593	16.68
235.811	-3.78
236.03	-33.03
236.249	-79.01
236.467	-98.55
236.686	-46.86
236.904	-23.91
237.123	-43.83
237.341	-38.18
237.559	-32.81
237.778	-42.72
237.996	-74.42
238.215	-17.7
238.433	7.36
238.652	5.71
238.87	-26.27
239.088	-6.47
239.307	-13.54
239.525	-23.5
239.743	-42.69
239.962	-31.21
240.18	-72.24
240.398	-113.35
240.617	-135.86
240.835	-117.51
241.053	-77.98
241.271	-2.61
241.49	9.64
241.708	15.34
241.926	17.46
242.144	-0.8
242.363	-71.61
242.581	-82.74
242.799	-39.4
243.017	-13.57
243.235	-42.37
243.453	-10.97
243.672	-15.94
243.89	-24.66
244.108	-33.68
244.326	1.02
244.544	-6.07
244.762	2.79
244.98	24.45
245.198	25.19
245.416	-19.94
245.634	-40.58
245.852	-60.16
246.07	-79.44
246.288	-77.65
246.506	-92.18
246.724	-51.22
246.942	-30.88
247.16	-2.14
247.378	-15.05
247.596	29.26
247.814	46.58
248.032	21.57
248.25	18.78
248.468	22.06
248.685	32.24
248.903	39.49
249.121	33.67
249.339	-1.5
249.557	-18.87
249.775	-9.4
249.992	-92
250.21	-88.64
250.428	-56.1
250.646	-63.84
250.863	-93.65
251.081	-51.3
251.299	-23.17
251.517	-19.87
251.734	-2.9
251.952	1.35
252.17	5.06
252.387	12.62
252.605	-0.5
252.823	-2.43
253.04	11.43
253.258	22.58
253.475	18.53
253.693	53.95
253.911	46.8
254.128	55.61
254.346	48.5
254.563	17.69
254.781	-24.95
254.998	-48.61
255.216	-58.6
255.433	-41.19
255.651	-1.86
255.868	39.39
256.086	67.64
256.303	46.32
256.521	34.26
256.738	15.22
256.956	-21.08
257.173	-53.19
257.39	-73.47
257.608	-107.5
257.825	-45.41
258.043	11.84
258.26	43.19
258.477	75.49
258.695	74.58
258.912	12.99
259.129	4.54
259.346	-51.56
259.564	-95.85
259.781	-107.21
259.998	-39.91
260.216	-36.42
260.433	17.44
260.65	19.58
260.867	33.06
261.084	1.56
261.302	-6.64
261.519	-26.39
261.736	-47.34
261.953	-70.05
262.17	-25.05
262.387	-69.57
262.604	-101.29
262.822	-114.02
263.039	-106.19
263.256	-153.52
263.473	-96.09
263.69	-57.7
263.907	-7.82
264.124	18.01
264.341	11.1
264.558	-7.56
264.775	7.91
264.992	-9.49
265.209	-7.04
265.426	24.1
265.643	41.61
265.86	36.7
266.077	42.52
266.294	11.33
266.51	-41.09
266.727	-58.66
266.944	-45.91
267.161	-52.86
267.378	-23.78
267.595	18.52
267.812	-4.99
268.028	-26.49
268.245	-4.05
268.462	-46.99
268.679	-68.78
268.896	-6.51
269.112	-1.72
269.329	-16.03
269.546	-7.07
269.763	-7.43
269.979	-30.28
270.196	-34.89
270.413	-68.09
270.629	-87.33
270.846	-99.18
271.063	-87.7
271.279	-96.39
271.496	-75.84
271.712	-30.77
271.929	-24.2
272.146	-37.44
272.362	-22.82
272.579	22.8
272.795	17.02
273.012	28.45
273.228	17.28
273.445	-10.75
273.661	-55.48
273.878	-82.58
274.094	-87.34
274.311	-105.55
274.527	-31.56
274.744	-16.68
274.96	-20.62
275.177	-10.35
275.393	9.24
275.609	-6.65
275.826	6.25
276.042	1.6
276.259	-1.11
276.475	5.49
276.691	8.34
276.908	-15.42
277.124	6.75
277.34	3.8
277.557	-1.27
277.773	-8.17
277.989	-12.43
278.205	-22.65
278.422	-7.86
278.638	4.12
278.854	29.18
279.07	41.22
279.286	29.87
279.503	6.58
279.719	-19.03
279.935	-67.83
280.151	-87.77
280.367	-63.36
280.583	-89.28
280.799	-67.14
281.016	-79.86
281.232	-25.91
281.448	-27.16
281.664	2.12
281.88	-24.51
282.096	8.25
282.312	24.25
282.528	47.17
282.744	53.74
282.96	53.74
283.176	28.88
283.392	11.24
283.608	-0.68
283.824	-16.7
284.04	-22.86
284.256	-26.82
284.471	-29.15
284.687	-27.38
284.903	-1.83
285.119	36.7
285.335	19.05
285.551	9.72
285.767	-20.36
285.982	-29.51
286.198	-62.5
286.414	-7.61
286.63	15.7
286.846	47.24
287.061	26.79
287.277	44.12
287.493	14.92
287.709	29.39
287.924	11.08
288.14	47.54
288.356	39.94
288.571	65.01
288.787	39.51
289.003	41.18
289.218	11.59
289.434	-35.47
289.65	-44.81
289.865	-49.86
290.081	-42.52
290.296	-16.03
290.512	14.28
290.727	-5.98
290.943	-11.35
291.159	-17.06
291.374	-35.07
291.59	-59.5
291.805	-51.28
292.021	-41.93
292.236	-37.59
292.451	-11.62
292.667	3.16
292.882	19.17
293.098	18.65
293.313	-24.3
293.529	-57.78
293.744	-76.98
293.959	-62.81
294.175	-59.34
294.39	-8.91
294.605	15.47
294.821	47.5
295.036	43.29
295.251	44.94
295.467	-7.94
295.682	-30.01
295.897	-106.75
296.112	-118.74
296.328	-108.95
296.543	-96.66
296.758	-77.27
296.973	-10.29
297.188	29.13
297.404	17.57
297.619	17.33
297.834	-5.18
298.049	-29.6
298.264	-62.76
298.479	-14.99
298.694	-9.23
298.909	14.37
299.125	12.14
299.34	6.61
299.555	-24.47
299.77	-9.42
299.985	-52.91
300.2	-106.53
300.415	-111.97
300.63	-50.25
300.845	-60.31
301.06	-47.63
301.275	-2.1
301.49	13.51
301.704	-23.95
301.919	-40.1
302.134	-52.88
302.349	-62.74
302.564	-144.01
302.779	-207.46
302.994	-193.57
303.209	-133.62
303.423	-71
303.638	19.79
303.853	3.92
304.068	-6.24
304.283	-3.09
304.497	-18.16
304.712	-43.02
304.927	-18.88
305.142	-21.28
305.356	-19.46
305.571	-10.63
305.786	-11.08
306	-30.38
306.215	-23.67
306.43	-39.3
306.644	-54.1
306.859	-0.2
307.074	0.33
307.288	-26.82
307.503	-57.36
307.717	-56.71
307.932	-77.29
308.147	-86.33
308.361	-47.08
308.576	-37.09
308.79	-77.28
309.005	-58.71
309.219	-31.81
309.434	-48.57
309.648	-46.29
309.863	-4.2
310.077	-9.63
310.292	-5.89
310.506	-16.71
310.72	-2.59
310.935	-0.27
311.149	2.38
311.364	16.14
311.578	32.99
311.792	25.84
312.007	20.91
312.221	-1.92
312.435	3.79
312.649	-12.6
312.864	19.04
313.078	37.8
313.292	122.18
313.507	87.34
313.721	123.88
313.935	48.23
314.149	24.79
314.363	14.32
314.578	14.48
314.792	14.08
315.006	-3.12
315.22	23.96
315.434	24.77
315.648	27.12
315.862	15.71
316.077	22.88
316.291	-22.8
316.505	-23.91
316.719	-36.29
316.933	-29.57
317.147	-30.37
317.361	-66.99
317.575	-94.56
317.789	-127.48
318.003	-161.15
318.217	-130.83
318.431	-27.14
318.645	16.16
318.859	6.08
319.073	17.29
319.287	6.67
319.5	-27.54
319.714	-64.46
319.928	-85.64
320.142	-124.04
320.356	-48.75
320.57	-18.11
320.784	-35.03
320.997	-39.73
321.211	-36.41
321.425	-130.57
321.639	-141.77
321.853	-62.19
322.066	-27.06
322.28	-17.5
322.494	17.43
322.707	32.76
322.921	16.65
323.135	-5.61
323.349	5.65
323.562	-31.87
323.776	-54.24
323.989	-62.19
324.203	-77.01
324.417	-73.21
324.63	-68.45
324.844	-52.37
325.057	-46.41
325.271	-21.46
325.485	-8.55
325.698	10.76
325.912	25.84
326.125	2.76
326.339	-2.37
326.552	-30.71
326.766	-29.45
326.979	-31.29
327.193	8.11
327.406	-2.89
327.619	-6.21
327.833	3.1
328.046	-20.33
328.26	-59.8
328.473	-29.31
328.686	-49.96
328.9	-57.73
329.113	-31.75
329.326	-48.1
329.54	-41.15
329.753	-51.06
329.966	-56.77
330.179	-63.83
330.393	-24.9
330.606	-26.08
330.819	1.49
331.032	11.43
331.246	14.97
331.459	41.45
331.672	34.38
331.885	18.72
332.098	-8.31
332.311	-18.2
332.525	-84.89
332.738	-46.22
332.951	-5.38
333.164	30.25
333.377	38.33
333.59	56.92
333.803	38.33
334.016	34.79
334.229	45.12
334.442	45.53
334.655	63.58
334.868	68.7
335.081	42.87
335.294	12.05
335.507	7.1
335.72	-9.43
335.933	-22.31
336.146	-28.09
336.359	-27.15
336.572	-45.29
336.785	-85.14
336.997	-73.1
337.21	-43.19
337.423	-47.36
337.636	-55.86
337.849	-20.99
338.062	-25.99
338.274	-21.85
338.487	-17.4
338.7	7.92
338.913	-55.45
339.125	-73.47
339.338	-130.17
339.551	-113.85
339.763	-78
339.976	-21.27
340.189	-4.93
340.402	24.56
340.614	14.92
340.827	-11.93
341.039	-37.25
341.252	-35.73
341.465	-10.3
341.677	-23.58
341.89	-48.81
342.102	-4.81
342.315	-6.11
342.527	-67.9
342.74	-43.02
342.952	-17.43
343.165	-27.32
343.377	-15.77
343.59	-13.56
343.802	13.08
344.015	24.84
344.227	47.3
344.44	40.26
344.652	37.72
344.864	2.66
345.077	23.58
345.289	19.21
345.502	26.49
345.714	31.13
345.926	42.17
346.139	26.3
346.351	34.36
346.563	34.18
346.775	35.57
346.988	20.11
347.2	-2.16
347.412	-61.17
347.624	-73.19
347.837	-110.14
348.049	-103.57
348.261	-25.97
348.473	-14.1
348.685	-36.95
348.897	-24.21
349.11	-14.68
349.322	-53.88
349.534	-28.84
349.746	-22.04
349.958	-19.05
350.17	-30.77
350.382	-1.85
350.594	-12.08
350.806	-0.29
351.018	2.28
351.23	-19.3
351.442	-85.43
351.654	-111.84
351.866	-106.57
352.078	-106.2
352.29	-51.63
352.502	-13.2
352.714	2.48
352.926	-5.13
353.138	2.53
353.35	-15.9
353.561	-18.85
353.773	-41.43
353.985	-22.76
354.197	-29.08
354.409	-17.3
354.621	-31.23
354.832	-6.37
355.044	-18.33
355.256	-24.93
355.468	-14.2
355.679	-8.43
355.891	-3.28
356.103	-12.71
356.314	4.59
356.526	-4.11
356.738	-8.79
356.949	-46.62
357.161	-16.47
357.373	-30.56
357.584	-42.69
357.796	-19.99
358.008	-17.36
358.219	-11.85
358.431	-4.81
358.642	6.2
358.854	-2.77
359.065	-9.13
359.277	-45.8
359.488	-59.78
359.7	-83.96
359.911	-102.64
360.123	-59.54
360.334	-67.14
360.546	-76.3
360.757	-83.45
360.969	-53.3
361.18	-46.88
361.391	-17.1
361.603	-24.01
361.814	21.91
362.025	7.95
362.237	-5.91
362.448	2.62
362.659	22.47
362.871	11.85
363.082	3.75
363.293	7.82
363.504	-13.73
363.716	-35.11
363.927	-54.41
364.138	-76.94
364.349	-100.18
364.56	-81.42
364.772	-81.24
364.983	-53.19
365.194	-45.23
365.405	-23.32
365.616	-8.24
365.827	3.21
366.038	-24.69
366.25	-28.09
366.461	-76.51
366.672	-51.85
366.883	-27.21
367.094	-12.53
367.305	-13.63
367.516	0.96
367.727	-35.81
367.938	-56.19
368.149	-59.48
368.36	-35.68
368.571	-27.37
368.781	-31.6
368.992	-47.74
369.203	-59.4
369.414	-92.46
369.625	-102.15
369.836	-88.79
370.047	-100.19
370.258	-75.98
370.468	-73.35
370.679	-92.75
370.89	-84.79
371.101	-56.32
371.312	-71.7
371.522	-67.79
371.733	-43.67
371.944	-34.78
372.155	-26.5
372.365	-18.85
372.576	-13.63
372.787	-19.53
372.997	-37.84
373.208	-51.57
373.419	-24.05
373.629	-53.61
373.84	-45.64
374.05	-52.01
374.261	-31.38
374.472	-60.81
374.682	-3.85
374.893	-12.42
375.103	28.9
375.314	17.69
375.524	23.78
375.735	22.06
375.945	36.68
376.156	-5.8
376.366	-10.39
376.577	-7.5
376.787	-16.69
376.997	-22.11
377.208	-10.24
377.418	-13.67
377.629	-7.29
377.839	-21.27
378.049	-14.26
378.26	1.93
378.47	7.07
378.68	-8.69
378.89	-7.55
379.101	-18.73
379.311	-56.04
379.521	-80.36
379.732	-68.6
379.942	-59.33
380.152	-68.8
380.362	-31.02
380.572	-19.97
380.783	5.94
380.993	11.66
381.203	25.94
381.413	45.12
381.623	43.65
381.833	19.58
382.043	4.42
382.253	-7.37
382.463	-15.95
382.674	-28.19
382.884	-46.59
383.094	-32.75
383.304	-25.09
383.514	-18.61
383.724	-0.83
383.934	-6.78
384.144	-22.17
384.353	-31.37
384.563	-32.2
384.773	-26.31
384.983	-25.02
385.193	-3.82
385.403	1.72
385.613	-2.93
385.823	-15.77
386.033	-5.99
386.242	-20.83
386.452	-25.07
386.662	-34.09
386.872	-20.05
387.082	-25.29
387.291	-25.24
387.501	-20.83
387.711	-10.8
387.921	-23.17
388.13	-22
388.34	-5.7
388.55	-10.65
388.759	-11.16
388.969	-1.3
389.179	-2.36
389.388	-7.93
389.598	-1.47
389.807	-10.29
390.017	-16.51
390.227	-14.3
390.436	-16.64
390.646	-15.17
390.855	-6.74
391.065	-6.21
391.274	-8.43
391.484	-11.19
391.693	-11.04
391.903	-12.03
392.112	-6.58
392.322	-2.94
392.531	2.9
392.74	3.64
392.95	-1.8
393.159	-4.86
393.369	-3.85
393.578	-5.71
393.787	-7.2
393.997	-3.17
394.206	-3.9
394.415	-5.13
394.625	-4.99
394.834	-5.56
395.043	-4.83
395.252	-1.89
395.462	1.17
395.671	2.34
395.88	2.76
396.089	2.92
396.298	0.91
396.508	-1.41
396.717	-2.05
396.926	-0.92
397.135	-0.89
397.344	-0.69
397.553	0.83
397.762	2.86
397.971	2
398.181	2.39
398.39	1.7
398.599	0.85
398.808	0.17
399.017	1.6
399.226	2.87
399.435	4.11
399.644	4.45
399.853	3.47
400.062	2.84
400.27	1.92
400.479	1.71
400.688	0.81
400.897	1.27
401.106	1.25
401.315	0.95
401.524	0.62
401.733	1.66
401.941	2.04
402.15	2.2
402.359	2.02
402.568	2.48
402.777	2.39
402.985	2.14
403.194	2.04
403.403	2.25
403.612	1.88
403.82	1.58
404.029	1.66
404.238	1.47
404.446	1.82
404.655	1.81
404.864	1.81
405.072	1.59
405.281	1.84
405.489	1.43
405.698	1.48
405.906	1.4
406.115	1.4
406.324	1.22
406.532	1.35
406.741	1.66
406.949	1.67
407.158	1.66
407.366	1.7
407.574	1.65
407.783	1.36
407.991	1.25
408.2	1.48
408.408	1.42
408.617	1.26
408.825	1.17
409.033	1.29
409.242	1.33
409.45	1.5
409.658	1.5
409.867	1.73
410.075	1.59
410.283	1.42
410.491	1.31
410.7	1.29
410.908	1.22
411.116	1.63
411.324	1.63
411.533	1.58
411.741	1.87
411.949	1.84
412.157	1.53
412.365	1.63
412.573	1.71
412.781	1.66
412.99	1.55
413.198	1.72
413.406	1.74
413.614	1.68
413.822	1.54
414.03	1.62
414.238	1.47
414.446	1.46
414.654	1.26
414.862	1.45
415.07	1.52
415.278	1.69
415.486	1.49
415.694	1.65
415.902	1.45
416.109	1.26
416.317	1.18
416.525	1.08
416.733	1.09
416.941	1.2
417.149	1.16
417.357	1.18
417.564	1.49
417.772	1.63
417.98	1.58
418.188	1.7
418.395	1.68
418.603	1.79
418.811	1.47
419.019	1.4
419.226	1.58
419.434	1.73
419.642	1.33
419.849	1.54
420.057	1.61
420.265	1.52
420.472	1.32
420.68	1.47
420.887	1.31
421.095	1.3
421.302	1.2
421.51	1.45
421.717	1.46
421.925	1.74
422.132	1.71
422.34	1.6
422.547	1.48
422.755	1.39
422.962	1.21
423.17	1.09
423.377	1.21
423.585	1.25
423.792	1.23
423.999	1.19
424.207	1.26
424.414	1.46
424.621	1.35
424.829	1.28
425.036	1.31
425.243	1.39
425.451	1.2
425.658	1.02
425.865	1.32
426.072	1.33
426.28	1.51
426.487	1.42
426.694	1.65
426.901	1.34
427.108	1.36
427.315	1.22
427.523	1.5
427.73	1.41
427.937	1.5
428.144	1.39
428.351	1.28
428.558	1.4
428.765	1.29
428.972	1.19
429.179	1.44
429.386	1.7
429.593	1.24
429.8	1.19
430.007	1.45
430.214	1.43
430.421	1.18
430.628	1.17
430.835	1.1
431.042	1.22
431.249	1.26
431.456	1.32
431.662	1.51
431.869	1.74
432.076	1.67
432.283	1.65
432.49	1.66
432.697	1.78
432.903	1.62
433.11	1.56
433.317	1.71
433.524	1.86
433.73	1.7
433.937	1.99
434.144	1.84
434.35	1.77
434.557	1.55
434.764	1.58
434.97	1.4
435.177	1.67
435.384	1.51
435.59	1.64
435.797	1.83
436.003	2
436.21	1.89
436.416	2
436.623	1.99
436.829	1.93
437.036	1.89
437.242	1.93
437.449	1.88
437.655	1.89
437.862	1.94
438.068	1.84
438.275	1.9
438.481	2.08
438.687	2.11
438.894	1.97
439.1	2.05
439.307	2.16
439.513	2.05
439.719	2.04
439.926	2.26
440.132	2.23
440.338	2.01
440.544	2.12
440.751	2.01
440.957	2.02
441.163	1.9
441.369	2.04
441.575	1.86
441.782	1.92
441.988	1.75
442.194	1.83
442.4	1.83
442.606	2.03
442.812	2.05
443.018	2.17
443.224	2.23
443.431	2.27
443.637	2.14
443.843	2.09
444.049	2.03
444.255	2
444.461	2
444.667	1.95
444.873	2.12
445.079	2.16
445.284	2.21
445.49	2
445.696	1.95
445.902	1.76
446.108	1.79
446.314	1.74
446.52	1.79
446.726	2.05
446.931	2.03
447.137	2
447.343	2.07
447.549	2.06
447.755	1.87
447.96	1.98
448.166	1.85
448.372	1.77
448.578	1.81
448.783	1.76
448.989	1.86
449.195	2.19
449.4	2.23
449.606	2.23
449.812	2.25
450.017	2.23
450.223	1.98
450.428	1.88
450.634	2.04
450.84	2.2
451.045	2.15
451.251	2.09
451.456	2.35
451.662	2.35
451.867	2.34
452.073	2.32
452.278	2.5
452.483	2.53
452.689	2.45
452.894	2.51
453.1	2.54
453.305	2.47
453.51	2.37
453.716	2.3
453.921	2.28
454.127	2.24
454.332	2.15
454.537	2.06
454.742	2.12
454.948	2.11
455.153	2.16
455.358	2.24
455.563	2.44
455.769	2.55
455.974	2.41
456.179	2.34
456.384	2.38
456.589	2.26
456.795	2.04
457	2.11
457.205	2.33
457.41	2.27
457.615	2.25
457.82	2.37
458.025	2.38
458.23	2.2
458.435	2.25
458.64	2.13
458.845	2.26
459.05	2.26
459.255	2.28
459.46	2.26
459.665	2.32
459.87	2.29
460.075	2.24
460.28	2.3
460.485	2.4
460.69	2.44
460.895	2.22
461.099	2.25
461.304	2.36
461.509	2.3
461.714	2.23
461.919	2.48
462.123	2.38
462.328	2.37
462.533	2.35
462.738	2.57
462.942	2.48
463.147	2.58
463.352	2.58
463.556	2.65
463.761	2.58
463.966	2.59
464.17	2.67
464.375	2.53
464.58	2.41
464.784	2.38
464.989	2.32
465.193	2.3
465.398	2.4
465.602	2.56
465.807	2.51
466.011	2.62
466.216	2.63
466.42	2.62
466.625	2.66
466.829	2.75
467.034	2.71
467.238	2.9
467.443	2.87
467.647	2.77
467.851	2.81
468.056	2.87
468.26	2.69
468.464	2.62
468.669	2.69
468.873	2.75
469.077	2.7
469.282	2.78
469.486	2.95
469.69	2.98
469.894	2.81
470.099	2.9
470.303	2.98
470.507	2.87
470.711	2.73
470.915	2.77
471.119	2.67
471.324	2.57
471.528	2.59
471.732	2.58
471.936	2.61
472.14	2.7
472.344	2.74
472.548	2.81
472.752	3.03
472.956	3.29
473.16	3.24
473.364	3.09
473.568	3.03
473.772	3.02
473.976	2.81
474.18	2.76
474.384	2.89
474.588	2.91
474.792	2.74
474.995	2.8
475.199	2.95
475.403	2.99
475.607	3.02
475.811	3.09
476.015	3.12
476.218	3.17
476.422	2.99
476.626	3.07
476.83	3.13
477.033	3
477.237	2.83
477.441	2.96
477.644	2.83
477.848	2.77
478.052	2.79
478.255	2.86
478.459	2.84
478.663	3.05
478.866	3.13
479.07	3.17
479.273	3.35
479.477	3.39
479.681	3.33
479.884	3.21
480.088	3.18
480.291	3.04
480.495	3.03
480.698	2.95
480.901	3.05
481.105	3.14
481.308	3.09
481.512	3.05
481.715	3.12
481.919	3.15
482.122	3.12
482.325	3.15
482.529	3.2
482.732	3.18
482.935	3.05
483.138	3.03
483.342	3.17
483.545	3.26
483.748	3.31
483.952	3.36
484.155	3.54
484.358	3.51
484.561	3.41
484.764	3.37
484.967	3.42
485.171	3.4
485.374	3.32
485.577	3.43
485.78	3.45
485.983	3.5
486.186	3.34
486.389	3.33
486.592	3.34
486.795	3.3
486.998	3.25
487.201	3.38
487.404	3.43
487.607	3.5
487.81	3.51
488.013	3.55
488.216	3.55
488.419	3.55
488.622	3.39
488.825	3.31
489.028	3.24
489.231	3.14
489.433	3.04
489.636	3.01
489.839	3.07
490.042	3.06
490.245	3.09
490.447	3.17
490.65	3.24
490.853	3.22
491.056	3.24
491.258	3.25
491.461	3.26
491.664	3.34
491.866	3.27
492.069	3.35
492.272	3.29
492.474	3.32
492.677	3.27
492.879	3.39
493.082	3.46
493.285	3.63
493.487	3.58
493.69	3.53
493.892	3.42
494.095	3.32
494.297	3.23
494.5	3.24
494.702	3.23
494.905	3.29
495.107	3.27
495.309	3.28
495.512	3.4
495.714	3.45
495.917	3.49
496.119	3.49
496.321	3.52
496.524	3.43
496.726	3.39
496.928	3.4
497.13	3.37
497.333	3.32
497.535	3.34
497.737	3.36
497.939	3.3
498.142	3.35
498.344	3.34
498.546	3.24
498.748	3.32
498.95	3.43
499.152	3.38
499.355	3.45
499.557	3.54
499.759	3.55
499.961	3.5
500.163	3.57
500.365	3.55
500.567	3.64
500.769	3.54
500.971	3.53
501.173	3.44
501.375	3.46
501.577	3.35
501.779	3.33
501.981	3.33
502.183	3.38
502.385	3.34
502.587	3.25
502.788	3.34
502.99	3.32
503.192	3.37
503.394	3.34
503.596	3.41
503.798	3.48
503.999	3.55
504.201	3.5
504.403	3.54
504.605	3.56
504.806	3.37
505.008	3.37
505.21	3.45
505.411	3.44
505.613	3.42
505.815	3.52
506.016	3.55
506.218	3.61
506.42	3.58
506.621	3.62
506.823	3.61
507.024	3.52
507.226	3.42
507.427	3.45
507.629	3.52
507.83	3.56
508.032	3.51
508.233	3.6
508.435	3.59
508.636	3.58
508.838	3.5
509.039	3.58
509.24	3.6
509.442	3.65
509.643	3.56
509.845	3.64
510.046	3.73
510.247	3.72
510.448	3.69
510.65	3.78
510.851	3.85
511.052	3.82
511.254	3.77
511.455	3.83
511.656	3.87
511.857	3.84
512.058	3.82
512.26	3.84
512.461	3.8
512.662	3.82
512.863	3.74
513.064	3.75
513.265	3.73
513.466	3.74
513.667	3.67
513.868	3.65
514.069	3.67
514.27	3.77
514.471	3.74
514.672	3.75
514.873	3.8
515.074	3.84
515.275	3.67
515.476	3.66
515.677	3.65
515.878	3.71
516.079	3.69
516.28	3.76
516.481	3.86
516.682	3.95
516.882	3.86
517.083	3.81
517.284	3.72
517.485	3.64
517.686	3.52
517.886	3.52
518.087	3.62
518.288	3.73
518.488	3.71
518.689	3.72
518.89	3.7
519.091	3.68
519.291	3.68
519.492	3.77
519.692	3.82
519.893	3.96
520.094	3.91
520.294	3.91
520.495	3.85
520.695	3.9
520.896	3.83
521.096	3.9
521.297	3.91
521.497	3.92
521.698	3.85
521.898	3.83
522.099	3.81
522.299	3.86
522.499	3.87
522.7	3.9
522.9	3.91
523.101	4
523.301	4
523.501	4
523.702	4.03
523.902	4.05
524.102	4.05
524.302	4
524.503	4.06
524.703	4.03
524.903	4.05
525.103	3.94
525.304	4.05
525.504	4.12
525.704	4.2
525.904	4.18
526.104	4.17
526.304	4.16
526.504	4.11
526.705	4.13
526.905	4.19
527.105	4.2
527.305	4.14
527.505	4.06
527.705	3.98
527.905	3.98
528.105	4.01
528.305	3.99
528.505	4.04
528.705	4.1
528.905	4.04
529.105	4.06
529.304	4.17
529.504	4.23
529.704	4.15
529.904	4.18
530.104	4.2
530.304	4.25
530.503	4.19
530.703	4.17
530.903	4.19
531.103	4.21
531.303	4.09
531.502	4.15
531.702	4.3
531.902	4.3
532.101	4.28
532.301	4.31
532.501	4.28
532.7	4.23
532.9	4.3
533.1	4.27
533.299	4.28
533.499	4.29
533.698	4.18
533.898	4.09
534.097	4.09
534.297	4.17
534.496	4.17
534.696	4.29
534.895	4.45
535.095	4.57
535.294	4.5
535.494	4.44
535.693	4.42
535.892	4.35
536.092	4.22
536.291	4.26
536.491	4.37
536.69	4.44
536.889	4.43
537.088	4.46
537.288	4.48
537.487	4.51
537.686	4.47
537.886	4.45
538.085	4.48
538.284	4.6
538.483	4.54
538.682	4.59
538.882	4.63
539.081	4.69
539.28	4.56
539.479	4.58
539.678	4.51
539.877	4.58
540.076	4.53
540.275	4.52
540.474	4.55
540.673	4.64
540.872	4.58
541.071	4.65
541.27	4.69
541.469	4.77
541.668	4.8
541.867	4.89
542.066	4.95
542.265	5.02
542.464	4.93
542.663	4.93
542.862	5
543.06	5.02
543.259	5.02
543.458	5.12
543.657	5.18
543.856	5.15
544.054	5.11
544.253	5.08
544.452	5.05
544.651	5.09
544.849	5.06
545.048	5.12
545.247	5.19
545.445	5.28
545.644	5.25
545.843	5.27
546.041	5.3
546.24	5.35
546.438	5.43
546.637	5.4
546.836	5.53
547.034	5.56
547.233	5.57
547.431	5.51
547.63	5.6
547.828	5.58
548.027	5.6
548.225	5.62
548.423	5.66
548.622	5.71
548.82	5.69
549.019	5.73
549.217	5.83
549.415	5.82
549.614	5.89
549.812	5.86
550.01	5.87
550.209	5.84
550.407	5.91
550.605	5.87
550.803	5.99
551.002	6.07
551.2	6.08
551.398	6.21
551.596	6.38
551.794	6.45
551.993	6.51
552.191	6.6
552.389	6.64
552.587	6.68
552.785	6.74
552.983	6.76
553.181	6.84
553.379	6.92
553.577	6.9
553.775	6.96
553.973	6.99
554.171	7.04
554.369	6.97
554.567	7.03
554.765	7.04
554.963	7.14
555.161	7.11
555.359	7.23
555.557	7.33
555.755	7.48
555.952	7.63
556.15	7.66
556.348	7.7
556.546	7.8
556.744	7.76
556.941	7.77
557.139	7.97
557.337	8.03
557.535	8
557.732	8.17
557.93	8.31
558.128	8.33
558.325	8.48
558.523	8.52
558.721	8.57
558.918	8.52
559.116	8.59
559.313	8.59
559.511	8.72
559.708	8.71
559.906	8.79
560.104	8.79
560.301	8.86
560.498	8.92
560.696	8.97
560.893	9.08
561.091	9.18
561.288	9.27
561.486	9.34
561.683	9.46
561.88	9.49
562.078	9.65
562.275	9.63
562.473	9.73
562.67	9.87
562.867	10.01
563.064	10.06
563.262	10.16
563.459	10.23
563.656	10.34
563.853	10.34
564.051	10.4
564.248	10.53
564.445	10.67
564.642	10.62
564.839	10.71
565.036	10.85
565.234	11.02
565.431	11.01
565.628	11.15
565.825	11.27
566.022	11.3
566.219	11.3
566.416	11.41
566.613	11.45
566.81	11.58
567.007	11.57
567.204	11.64
567.401	11.62
567.598	11.68
567.795	11.66
567.991	11.74
568.188	11.84
568.385	12
568.582	12.1
568.779	12.19
568.976	12.3
569.172	12.4
569.369	12.38
569.566	12.44
569.763	12.48
569.96	12.51
570.156	12.45
570.353	12.44
570.55	12.42
570.746	12.47
570.943	12.5
571.14	12.5
571.336	12.65
571.533	12.74
571.729	12.78
571.926	12.82
572.123	12.98
572.319	13.01
572.516	13.04
572.712	13.09
572.909	13.12
573.105	13.15
573.302	13.22
573.498	13.28
573.695	13.23
573.891	13.34
574.087	13.35
574.284	13.36
574.48	13.31
574.677	13.3
574.873	13.25
575.069	13.3
575.266	13.3
575.462	13.26
575.658	13.39
575.854	13.46
576.051	13.4
576.247	13.33
576.443	13.38
576.639	13.37
576.835	13.29
577.032	13.27
577.228	13.39
577.424	13.44
577.62	13.33
577.816	13.41
578.012	13.48
578.208	13.41
578.404	13.35
578.6	13.45
578.796	13.45
578.993	13.43
579.189	13.42
579.384	13.41
579.58	13.37
579.776	13.3
579.972	13.21
580.168	13.11
580.364	13.13
580.56	13.16
580.756	13.18
580.952	13.17
581.148	13.23
581.343	13.25
581.539	13.21
581.735	13.28
581.931	13.31
582.127	13.31
582.322	13.31
582.518	13.38
582.714	13.29
582.909	13.26
583.105	13.22
583.301	13.15
583.496	13.11
583.692	13.09
583.888	13.07
584.083	13.19
584.279	13.21
584.474	13.19
584.67	13.23
584.866	13.22
585.061	13.02
585.257	13.08
585.452	13.04
585.648	12.92
585.843	12.99
586.039	13.11
586.234	13.07
586.429	13.02
586.625	13.19
586.82	13.14
587.015	13.04
587.211	12.92
587.406	13
587.601	12.83
587.797	12.76
587.992	12.76
588.187	12.88
588.383	12.79
588.578	12.82
588.773	12.95
588.968	13
589.163	13
589.359	13.02
589.554	13.04
589.749	13.01
589.944	13.08
590.139	13.08
590.334	13.18
590.529	13.22
590.724	13.25
590.919	13.26
591.114	13.26
591.309	13.37
591.504	13.41
591.699	13.38
591.894	13.42
592.089	13.48
592.284	13.41
592.479	13.5
592.674	13.53
592.869	13.65
593.064	13.78
593.259	13.84
593.454	13.87
593.648	13.91
593.843	13.86
594.038	13.79
594.233	13.77
594.428	13.74
594.622	13.91
594.817	14.11
595.012	14.17
595.206	14.27
595.401	14.42
595.596	14.32
595.79	14.29
595.985	14.45
596.18	14.51
596.374	14.61
596.569	14.72
596.763	14.8
596.958	14.81
597.153	14.86
597.347	14.81
597.542	14.93
597.736	14.89
597.931	14.99
598.125	15.08
598.319	15.29
598.514	15.23
598.708	15.36
598.903	15.34
599.097	15.37
599.291	15.38
599.486	15.46
599.68	15.51
599.874	15.63
600.069	15.73
600.263	15.7
600.457	15.8
600.651	15.83
600.846	15.82
601.04	15.82
601.234	15.96
601.428	16.07
601.622	16.08
601.817	16.1
602.011	16.2
602.205	16.22
602.399	16.17
602.593	16.25
602.787	16.34
602.981	16.3
603.175	16.34
603.369	16.31
603.563	16.38
603.757	16.41
603.951	16.44
604.145	16.33
604.339	16.38
604.533	16.21
604.727	16.1
604.921	16.1
605.115	16.18
605.309	16.26
605.502	16.3
605.696	16.28
605.89	16.18
606.084	16.14
606.278	16.02
606.471	15.92
606.665	15.88
606.859	15.83
607.053	15.7
607.246	15.7
607.44	15.72
607.634	15.64
607.827	15.66
608.021	15.59
608.214	15.58
608.408	15.47
608.602	15.42
608.795	15.34
608.989	15.33
609.182	15.22
609.376	15.22
609.569	15.22
609.763	15.14
609.956	15.08
610.15	14.94
610.343	14.9
610.537	14.77
610.73	14.76
610.923	14.72
611.117	14.7
611.31	14.62
611.504	14.71
611.697	14.49
611.89	14.42
612.083	14.4
612.277	14.41
612.47	14.22
612.663	14.25
612.856	14.16
613.05	14.06
613.243	13.87
613.436	13.8
613.629	13.75
613.822	13.63
614.015	13.53
614.209	13.41
614.402	13.41
614.595	13.36
614.788	13.36
614.981	13.32
615.174	13.29
615.367	13.2
615.56	13.04
615.753	12.95
615.946	12.86
616.139	12.87
616.332	12.95
616.525	13.02
616.718	13.02
616.911	13.02
617.103	12.94
617.296	12.84
617.489	12.73
617.682	12.61
617.875	12.56
618.067	12.51
618.26	12.37
618.453	12.37
618.646	12.42
618.838	12.48
619.031	12.63
619.224	12.61
619.417	12.58
619.609	12.59
619.802	12.48
619.994	12.33
620.187	12.34
620.38	12.3
620.572	12.21
620.765	12.28
620.957	12.17
621.15	12.12
621.342	12.04
621.535	12.11
621.727	11.95
621.92	11.9
622.112	11.88
622.305	11.98
622.497	11.87
622.69	11.9
622.882	11.96
623.074	12.02
623.267	11.9
623.459	11.82
623.651	11.72
623.844	11.74
624.036	11.7
624.228	11.68
624.42	11.7
624.613	11.85
624.805	11.77
624.997	11.68
625.189	11.62
625.381	11.61
625.574	11.52
625.766	11.54
625.958	11.55
626.15	11.63
626.342	11.62
626.534	11.62
626.726	11.54
626.918	11.53
627.11	11.48
627.302	11.49
627.494	11.39
627.686	11.45
627.878	11.33
628.07	11.31
628.262	11.22
628.454	11.29
628.646	11.3
628.838	11.43
629.029	11.35
629.221	11.43
629.413	11.32
629.605	11.13
629.797	11.01
629.989	11.03
630.18	10.99
630.372	11
630.564	11.06
630.755	11.11
630.947	11.11
631.139	10.91
631.33	10.77
631.522	10.83
631.714	10.8
631.905	10.78
632.097	10.81
632.289	10.89
632.48	10.81
632.672	10.71
632.863	10.56
633.055	10.53
633.246	10.48
633.438	10.38
633.629	10.36
633.821	10.46
634.012	10.48
634.203	10.41
634.395	10.46
634.586	10.44
634.777	10.33
634.969	10.34
635.16	10.49
635.351	10.4
635.543	10.46
635.734	10.56
635.925	10.54
636.117	10.57
636.308	10.62
636.499	10.55
636.69	10.41
636.881	10.33
637.073	10.28
637.264	10.25
637.455	10.28
637.646	10.44
637.837	10.54
638.028	10.43
638.219	10.48
638.41	10.43
638.601	10.26
638.792	10.19
638.983	10.17
639.174	10.05
639.365	10.05
639.556	10.08
639.747	10.07
639.938	10.17
640.129	10.15
640.32	10.14
640.511	10.22
640.701	10.33
640.892	10.23
641.083	10.32
641.274	10.35
641.465	10.32
641.655	10.19
641.846	10.23
642.037	10.13
642.228	9.99
642.418	9.96
642.609	10.02
642.8	9.98
642.99	10.05
643.181	10.14
643.372	10.15
643.562	10.1
643.753	10.01
643.943	9.9
644.134	9.74
644.324	9.7
644.515	9.71
644.705	9.79
644.896	9.88
645.086	10.05
645.277	10.04
645.467	9.98
645.658	9.95
645.848	9.85
646.038	9.81
646.229	9.75
646.419	9.72
646.61	9.68
646.8	9.71
646.99	9.58
647.18	9.53
647.371	9.52
647.561	9.45
647.751	9.43
647.941	9.45
648.132	9.51
648.322	9.52
648.512	9.6
648.702	9.6
648.892	9.63
649.082	9.61
649.272	9.46
649.462	9.39
649.653	9.26
649.843	9.17
650.033	9.2
650.223	9.22
650.413	9.16
650.603	9.28
650.793	9.3
650.983	9.2
651.172	9.2
651.362	9.17
651.552	9.07
651.742	8.97
651.932	8.98
652.122	8.98
652.312	9.05
652.502	9.04
652.691	9.09
652.881	8.97
653.071	8.97
653.261	8.82
653.45	8.64
653.64	8.64
653.83	8.56
654.019	8.45
654.209	8.48
654.399	8.56
654.588	8.43
654.778	8.35
654.968	8.25
655.157	8.15
655.347	8.04
655.536	7.88
655.726	7.82
655.915	7.75
656.105	7.66
656.294	7.6
656.484	7.56
656.673	7.43
656.863	7.41
657.052	7.24
657.241	7.06
657.431	6.96
657.62	6.89
657.809	6.64
657.999	6.56
658.188	6.46
658.377	6.26
658.567	6.16
658.756	6.12
658.945	5.93
659.134	5.81
659.324	5.74
659.513	5.65
659.702	5.5
659.891	5.55
660.08	5.49
660.269	5.51
660.458	5.41
660.648	5.36
660.837	5.25
661.026	5.26
661.215	5.11
661.404	4.99
661.593	5.02
661.782	4.78
661.971	4.74
662.16	4.68
662.349	4.64
662.538	4.41
662.726	4.45
662.915	4.24
663.104	4.14
663.293	4.17
663.482	4.31
663.671	4.24
663.86	4.17
664.048	4.14
664.237	4.08
664.426	3.83
664.615	3.84
664.803	3.81
664.992	3.8
665.181	3.76
665.369	3.8
665.558	3.74
665.747	3.76
665.935	3.82
666.124	3.82
666.312	3.85
666.501	3.85
666.69	3.78
666.878	3.69
667.067	3.58
667.255	3.63
667.444	3.94
667.632	4.02
667.82	4.11
668.009	4.08
668.197	4.01
668.386	3.73
668.574	3.83
668.762	3.7
668.951	3.67
669.139	3.63
669.327	3.52
669.516	3.59
669.704	3.54
669.892	3.74
670.08	3.79
670.269	3.78
670.457	3.53
670.645	3.42
670.833	3.47
671.021	3.46
671.21	3.59
671.398	3.84
671.586	3.88
671.774	3.71
671.962	3.73
672.15	3.71
672.338	3.54
672.526	3.66
672.714	3.66
672.902	3.68
673.09	3.82
673.278	4.09
673.466	4.18
673.654	4.4
673.842	4.42
674.03	4.39
674.218	4.11
674.405	4.08
674.593	3.89
674.781	4.04
674.969	4.07
675.157	4.28
675.344	4.32
675.532	4.45
675.72	4.51
675.908	4.5
676.095	4.39
676.283	4.43
676.471	4.58
676.658	4.43
676.846	4.4
677.033	4.5
677.221	4.63
677.409	4.34
677.596	4.45
677.784	4.45
677.971	4.51
678.159	4.48
678.346	4.66
678.534	4.72
678.721	5.02
678.909	4.9
679.096	4.93
679.283	5.22
679.471	5.27
679.658	5.19
679.846	5.44
680.033	5.7
680.22	5.51
680.408	5.43
680.595	5.43
680.782	5.23
680.969	5.21
681.157	5.25
681.344	5.34
681.531	5.45
681.718	5.57
681.905	5.59
682.093	5.76
682.28	5.96
682.467	6.04
682.654	6.15
682.841	6.19
683.028	6.28
683.215	6.27
683.402	6.23
683.589	6.37
683.776	6.48
683.963	6.49
684.15	6.67
684.337	6.92
684.524	7.04
684.711	7.18
684.898	7.24
685.085	7.29
685.271	7.47
685.458	7.56
685.645	7.73
685.832	8.02
686.019	8.33
686.205	8.43
686.392	8.74
686.579	8.97
686.766	9.27
686.952	9.49
687.139	10.01
687.326	10.03
687.512	10.35
687.699	10.47
687.886	10.69
688.072	10.66
688.259	11.16
688.445	11.39
688.632	11.63
688.818	12.19
689.005	12.64
689.191	12.94
689.378	13.36
689.564	13.9
689.751	14.22
689.937	14.46
690.124	14.98
690.31	15.27
690.496	15.83
690.683	16.25
690.869	16.85
691.055	17.34
691.242	18.06
691.428	18.53
691.614	19.11
691.8	19.87
691.987	20.56
692.173	21.14
692.359	21.86
692.545	22.56
692.731	22.94
692.918	23.67
693.104	24.11
693.29	24.77
693.476	25.47
693.662	26.4
693.848	26.98
694.034	27.89
694.22	28.39
694.406	29.09
694.592	29.86
694.778	30.49
694.964	31.04
695.15	32
695.336	32.65
695.522	33.71
695.708	34.74
695.894	35.63
696.08	36.43
696.265	37.15
696.451	37.53
696.637	38.26
696.823	39.15
697.009	39.69
697.194	40.56
697.38	41.2
697.566	41.75
697.751	42.39
697.937	43.34
698.123	44.1
698.308	45.03
698.494	45.97
698.68	46.68
698.865	47.41
699.051	47.94
699.236	48.58
699.422	49.03
699.607	49.55
699.793	50.04
699.978	50.69
700.164	51.27
700.349	52.25
700.535	52.89
700.72	53.4
700.906	54.45
701.091	54.86
701.276	55.32
701.462	56.47
701.647	57.7
701.832	58.06
702.018	58.95
702.203	59.35
702.388	59.33
702.573	59.6
702.759	60.28
702.944	60.8
703.129	61.19
703.314	61.65
703.499	61.91
703.684	62.45
703.87	63.51
704.055	64.7
704.24	65.76
704.425	66.6
704.61	67.02
704.795	66.68
704.98	66.69
705.165	66.77
705.35	67.02
705.535	67.77
705.72	68.41
705.905	68.95
706.09	69.49
706.275	69.88
706.459	69.67
706.644	69.97
706.829	70.54
707.014	70.41
707.199	71.01
707.384	71.54
707.568	71.78
707.753	72.28
707.938	72.96
708.123	73.18
708.307	73.4
708.492	73.95
708.677	74.04
708.861	74.29
709.046	74.31
709.231	74.93
709.415	75.31
709.6	75.37
709.784	75.65
709.969	76.05
710.153	75.9
710.338	75.99
710.522	76.53
710.707	76.81
710.891	77.05
711.076	77.51
711.26	77.54
711.445	77.64
711.629	77.84
711.813	77.93
711.998	78.46
712.182	78.78
712.366	79.4
712.551	80
712.735	80.06
712.919	79.48
713.103	79.99
713.288	79.42
713.472	79.17
713.656	80.03
713.84	80.67
714.024	80.67
714.208	80.81
714.393	81.38
714.577	81.36
714.761	81.62
714.945	81.38
715.129	81.74
715.313	81.83
715.497	81.58
715.681	82.03
715.865	82.21
716.049	82.19
716.233	81.73
716.417	81.99
716.601	81.7
716.785	81.86
716.968	82.22
717.152	82.47
717.336	82.76
717.52	82.8
717.704	83.35
717.888	83.52
718.071	83.74
718.255	83.5
718.439	83.19
718.622	83.3
718.806	83.52
718.99	83.36
719.174	83.31
719.357	83.65
719.541	83.64
719.724	83.27
719.908	84.31
720.092	85.03
720.275	85.26
720.459	84.89
720.642	84.94
720.826	83.83
721.009	83.55
721.193	83.19
721.376	83.57
721.559	84.41
721.743	85.2
721.926	85.57
722.11	86.16
722.293	86.15
722.476	85.46
722.66	85.47
722.843	85.11
723.026	84.34
723.21	84.05
723.393	84.56
723.576	84.49
723.759	84.32
723.942	84.98
724.126	85.45
724.309	85.76
724.492	85.6
724.675	85.63
724.858	85.92
725.041	86.46
725.224	86.16
725.407	86.61
725.59	87.02
725.774	86.84
725.957	85.96
726.14	85.29
726.322	85.49
726.505	85.13
726.688	85.85
726.871	85.55
727.054	86.16
727.237	86.13
727.42	86.96
727.603	86.51
727.786	87.02
727.968	86.98
728.151	86.78
728.334	86.29
728.517	86.28
728.699	87.08
728.882	87.2
729.065	88.05
729.248	88.78
729.43	88.88
729.613	88.92
729.796	89.73
729.978	88.85
730.161	88.01
730.343	87.93
730.526	88.44
730.708	87.13
730.891	87.37
731.073	87.6
731.256	86.85
731.438	85.88
731.621	86.93
731.803	86.46
731.986	86.66
732.168	86.58
732.35	87.07
732.533	86.98
732.715	87.19
732.898	87.82
733.08	88.45
733.262	88.79
733.444	88.24
733.627	88.32
733.809	88.54
733.991	89.17
734.173	88.5
734.355	88.48
734.538	88.99
734.72	88.5
734.902	87.97
735.084	88.04
735.266	88.43
735.448	89.27
735.63	89.39
735.812	89.2
735.994	90.64
736.176	91.07
736.358	90.14
736.54	90.87
736.722	90.78
736.904	89.68
737.086	89.27
737.268	89.93
737.45	89.55
737.632	90.27
737.814	89.77
737.995	89.87
738.177	89.46
738.359	87.88
738.541	88.51
738.723	88.82
738.904	89.07
739.086	88.86
739.268	89.69
739.449	89.79
739.631	89.48
739.813	90.05
739.994	90.52
740.176	90.74
740.358	89.85
740.539	91.75
740.721	91.72
740.902	92.84
741.084	92.9
741.265	92.54
741.447	91.23
741.628	90.86
741.81	88.65
741.991	89.62
742.172	91.55
742.354	92.14
742.535	91.54
742.717	92.12
742.898	91.36
743.079	91
743.261	90.82
743.442	90.89
743.623	91.44
743.804	91.57
743.986	91.53
744.167	89.82
744.348	89.15
744.529	89.89
744.71	89.44
744.891	88.66
745.073	89.16
745.254	90.07
745.435	88.9
745.616	87.89
745.797	87.95
745.978	87.48
746.159	86.63
746.34	85.58
746.521	87.77
746.702	86.71
746.883	87.53
747.064	88.75
747.245	89.43
747.426	88.45
747.606	89.95
747.787	90.37
747.968	88.87
748.149	89.82
748.33	89.56
748.51	88.46
748.691	87.58
748.872	88.89
749.053	88.28
749.233	87.39
749.414	87.2
749.595	87.07
749.775	85.36
749.956	84.24
750.137	84.81
750.317	86.33
750.498	88.46
750.678	89.26
750.859	90.25
751.04	90.86
751.22	88.99
751.4	87.12
751.581	86.59
751.761	87.97
751.942	88.88
752.122	89.15
752.303	88.63
752.483	88.3
752.663	87.12
752.844	85.13
753.024	86.27
753.204	87.49
753.385	87.96
753.565	87.44
753.745	88.48
753.925	87.05
754.106	85.72
754.286	86.29
754.466	86.68
754.646	87.39
754.826	88.02
755.006	86.77
755.187	86.88
755.367	86.58
755.547	86.5
755.727	87.14
755.907	89.01
756.087	90.93
756.267	90.88
756.447	89.34
756.627	86.83
756.807	87.27
756.987	85.08
757.167	85.17
757.346	86.63
757.526	87.23
757.706	88.21
757.886	89.26
758.066	90.33
758.246	91.27
758.425	91.38
758.605	89.75
758.785	89.41
758.965	88.52
759.144	84.5
759.324	85.7
759.504	87.36
759.683	87.42
759.863	85.95
760.043	87.27
760.222	86.46
760.402	84.6
760.581	84.32
760.761	85.64
760.94	85.14
761.12	85.99
761.299	86.58
761.479	85.06
761.658	83.66
761.838	83.44
762.017	82.78
762.197	82.62
762.376	84.2
762.555	86.46
762.735	87.93
762.914	86.55
763.093	86.66
763.273	85.22
763.452	83.01
763.631	81.42
763.81	81.52
763.99	81.07
764.169	82.65
764.348	82.22
764.527	81.93
764.706	85.42
764.885	87.17
765.064	84.79
765.243	86.43
765.423	88
765.602	85.21
765.781	81.31
765.96	81.42
766.139	79.68
766.318	80.8
766.497	79.62
766.676	81.17
766.854	83.28
767.033	84.3
767.212	82.93
767.391	84.85
767.57	85.81
767.749	84.23
767.928	85.9
768.106	84.94
768.285	82.14
768.464	81.98
768.643	82.23
768.821	80.79
769	83.1
769.179	84.83
769.357	84.14
769.536	84.6
769.715	86.07
769.893	86.4
770.072	85.49
770.25	85.72
770.429	85.93
770.607	83.94
770.786	81.33
770.964	83.77
771.143	83.18
771.321	84.16
771.5	84.5
771.678	85.18
771.857	81.78
772.035	82.8
772.213	80.71
772.392	80.31
772.57	81.63
772.748	83.21
772.927	80.23
773.105	80.66
773.283	81.34
773.461	80.87
773.64	81.61
773.818	83.12
773.996	84.42
774.174	82.26
774.352	79.74
774.531	76.85
774.709	79.48
774.887	76.19
775.065	76.82
775.243	78.07
775.421	80.3
775.599	82.94
775.777	82.61
775.955	82.33
776.133	80.97
776.311	80.56
776.489	75.68
776.667	75.65
776.844	75.97
777.022	77.41
777.2	77.99
777.378	76.25
777.556	78.57
777.734	82.13
777.911	83.62
778.089	83.13
778.267	84.78
778.445	83.12
778.622	79.66
778.8	77.75
778.978	81.02
779.155	81.31
779.333	83.02
779.511	82.27
779.688	84.71
779.866	76.81
780.043	73.9
780.221	74.4
780.398	75.09
780.576	76.37
780.753	80.49
780.931	80.65
781.108	77.12
781.286	79.25
781.463	73.17
781.64	71.31
781.818	75.31
781.995	78.36
782.172	75.96
782.35	78.73
782.527	81.33
782.704	78.11
782.882	78.48
783.059	77.09
783.236	78.48
783.413	78.6
783.59	78.72
783.768	72.8
783.945	78.08
784.122	75.64
784.299	75.63
784.476	74.25
784.653	75.84
784.83	71.1
785.007	68.75
785.184	69.2
785.361	69.73
785.538	78.65
785.715	80.96
785.892	82.4
786.069	82.51
786.246	85.74
786.423	79.98
786.6	80.4
786.776	84.57
786.953	84.85
787.13	85.96
787.307	85.29
787.484	83.2
787.66	79.75
787.837	77.65
788.014	72.45
788.191	73.15
788.367	70.66
788.544	74.79
788.721	73.05
788.897	75.09
789.074	75.41
789.25	75.08
789.427	71.6
789.603	71.67
789.78	72.35
789.956	74
790.133	74.21
790.309	73.92
790.486	80.18
790.662	77.88
790.839	74.08
791.015	75.34
791.192	74.05
791.368	74.31
791.544	72.28
791.721	71.88
791.897	71.51
792.073	67.1
792.249	59.67
792.426	65.88
792.602	66.53
792.778	67.22
792.954	68.75
793.13	67.8
793.307	61.06
793.483	55.18
793.659	55.99
793.835	61.37
794.011	62.08
794.187	63.93
794.363	65.5
794.539	70.03
794.715	62.95
794.891	63.64
795.067	66.19
795.243	71.78
795.419	65.87
795.595	68.88
795.771	69.59
795.947	68.17
796.122	64.4
796.298	68.07
796.474	69.29
796.65	70.24
796.826	66.91
797.001	67.8
797.177	63.47
797.353	71.37
797.529	71.13
797.704	74.44
797.88	71.21
798.056	68.33
798.231	57.08
798.407	59.38
798.582	58.49
798.758	69.92
798.934	78.06
799.109	76.24
799.285	71.92
799.46	76.1
799.636	66.61
799.811	63.94
799.986	69.12
800.162	69.92
800.337	67.07
800.513	67.35
800.688	64
800.863	72.97
801.039	69.2
801.214	63.8
801.389	67.83
801.565	65.64
801.74	51.01
801.915	64.25
802.09	68.36
802.265	71.63
802.441	73.01
802.616	77.65
802.791	74.32
802.966	77.72
803.141	77.32
803.316	75.81
803.491	77.53
803.666	79.58
803.841	73.25
804.016	61.6
804.191	63.49
804.366	60.67
804.541	56.71
804.716	56.54
804.891	57.51
805.066	63.88
805.241	62.31
805.416	59.87
805.591	58.65
805.765	62.2
805.94	58.94
806.115	62.54
806.29	57.78
806.464	58.94
806.639	55.61
806.814	48.71
806.989	37.57
807.163	53.51
807.338	52.48
807.512	56.03
807.687	49.72
807.862	65.5
808.036	57.1
808.211	61.69
808.385	67.45
808.56	82.08
808.734	83.71
808.909	84.82
809.083	71.11
809.258	75.41
809.432	67.61
809.606	50.33
809.781	43.7
809.955	55.28
810.13	55.18
810.304	54.08
810.478	53.66
810.652	63.84
810.827	67.92
811.001	60.43
811.175	61.13
811.349	66.8
811.524	62
811.698	45.35
811.872	49.05
812.046	56.12
812.22	57.23
812.394	51.87
812.568	69.35
812.742	73.59
812.916	61.02
813.09	55.15
813.264	55.5
813.438	54.38
813.612	44.71
813.786	50.56
813.96	59.42
814.134	63.81
814.308	68.56
814.482	74.78
814.656	65.93
814.83	64.68
815.003	63.7
815.177	51.4
815.351	46.53
815.525	50.73
815.698	43.57
815.872	35.24
816.046	29.97
816.219	39.25
816.393	53.37
816.567	63.76
816.74	66
816.914	71.93
817.088	79.11
817.261	69.6
817.435	53.76
817.608	60.82
817.782	62.98
817.955	54.25
818.129	48.6
818.302	59.82
818.475	69.29
818.649	64.55
818.822	48.66
818.996	67.47
819.169	64.47
819.342	45.18
819.516	60.21
819.689	73.38
819.862	56.69
820.035	53.7
820.209	51.95
820.382	47.11
820.555	54.29
820.728	42.25
820.901	35.1
821.075	33.71
821.248	32.03
821.421	7.99
821.594	23
821.767	44.52
821.94	67.78
822.113	39.75
822.286	37.86
822.459	35.04
822.632	30.51
822.805	7.4
822.978	31.76
823.151	30.38
823.324	30.03
823.496	10.55
823.669	15.98
823.842	10.53
824.015	1.91
824.188	-16.03
824.361	-18.32
824.533	-8.01
824.706	13.08
824.879	30.79
825.051	46.45
825.224	42.06
825.397	46.7
825.569	23.99
825.742	26.25
825.915	46.23
826.087	66.02
826.26	36.01
826.432	38.42
826.605	43.81
826.777	31.81
826.95	27.06
827.122	26.59
827.295	44.75
827.467	27.55
827.64	-10.3
827.812	-13.07
827.984	-1.85
828.157	-35.77
828.329	-73.94
828.501	-33.86
828.674	-1.37
828.846	-11.14
829.018	16.08
829.19	25.38
829.363	52.17
829.535	45.11
829.707	47.65
829.879	21.61
830.051	26.38
830.223	2.35
830.395	-13.76
830.568	-19.16
830.74	-19.58
830.912	12.82
831.084	-12.49
831.256	-20.09
831.428	-28.26
831.6	-42.38
831.772	-94.67
831.943	-85.42
832.115	-42.93
832.287	-11.89
832.459	16.65
832.631	29.15
832.803	45.96
832.975	61.66
833.146	35.35
833.318	21.6
833.49	40.01
833.662	28.25
833.833	-8.23
834.005	3.99
834.177	12.16
834.348	-7.89
834.52	-27.34
834.692	-31.06
834.863	-43.47
835.035	-38.45
835.206	-67.29
835.378	-49.4
835.549	-38.77
835.721	-29.92
835.892	-37.34
836.064	-30.65
836.235	-9.19
836.407	15.06
836.578	-27.91
836.749	-45.12
836.921	-50.35
837.092	-97.78
837.264	-89.68
837.435	-74.93
837.606	-21.48
837.777	16.54
837.949	41.4
838.12	43.26
838.291	49.2
838.462	48.11
838.633	11.87
838.805	5.2
838.976	15.91
839.147	-10.63
839.318	-40.8
839.489	-77.71
839.66	-90.55
839.831	-38.99
840.002	-44.89
840.173	-81.21
840.344	-18.13
840.515	-5.45
840.686	-194.22
840.857	-130.69
841.028	-110.84
841.199	-90.43
841.369	-118.87
841.54	-101.67
841.711	-52.58
841.882	-19.82
842.053	-30.86
842.223	-29.19
842.394	6.99
842.565	-6.88
842.736	4.13
842.906	9.81
843.077	29.4
843.248	62.54
843.418	58.76
843.589	6.62
843.759	106.93
843.93	105.59
844.101	28.57
844.271	22.42
844.442	38.4
844.612	26.63
844.783	-14.26
844.953	-72.52
845.123	-74.2
845.294	-49.69
845.464	-280
845.635	-115.1
845.805	4.33
845.975	16.43
846.146	-41.86
846.316	-35.43
846.486	-4.65
846.656	22.52
846.827	-6.93
846.997	-21.65
847.167	1.28
847.337	-21.53
847.507	-80.64
847.677	-29.74
847.848	48.28
848.018	33.16
848.188	33.91
848.358	9.7
848.528	-21.68
848.698	-86.94
848.868	-200.97
849.038	-345.8
849.208	-144.66
849.378	-98.46
849.548	-64.18
849.718	-28.7
849.887	10.73
850.057	-0.15
850.227	-27.6
850.397	-49.77
850.567	-141.26
850.737	-370
850.906	-1011.25
851.076	-845.31
851.246	-326.18
851.415	-0.78
851.585	-13.19
851.755	-48.52
851.924	14.39
852.094	-3.31
852.264	-115.93
852.433	-1083.65
852.603	-153.47
852.772	-129.69
852.942	-63.91
853.111	-61.23
853.281	-0.59
853.45	10.68
853.62	-64.08
853.789	-95.65
853.959	-53.05
854.128	-46.36
854.297	-96.92
854.467	-97.66
854.636	-58.72
854.805	-7.62
854.975	-49.71
855.144	-69.59
855.313	111.89
855.482	-283.94
855.652	-273.24
855.821	-188.08
855.99	2.73
856.159	24.68
856.328	36.46
856.497	25.3
856.667	28.69
856.836	17.96
857.005	-30.08
857.174	-63.88
857.343	-109.66
857.512	-89.73
857.681	-129.86
857.85	-168.9
858.019	-73.78
858.188	-39.43
858.356	-60.73
858.525	-114.86
858.694	-112.06
858.863	-228.39
859.032	-211.59
859.201	-328.39
859.369	-274.49
859.538	-141.49
859.707	-124.46
859.876	-117.06
860.044	-79.41
860.213	11.73
860.382	-19.77
860.55	-4.31
860.719	20.28
860.888	31.42
861.056	-6.42
861.225	-4.31
861.393	34.02
861.562	42.5
861.73	-39.06
861.899	-252.36
862.067	-2500
862.236	-145.5
862.404	-356.77
862.572	-182.2
862.741	-27.97
862.909	-21.64
863.078	-147.26
863.246	-83.84
863.414	-86.02
863.582	-58.05
863.751	-73.09
863.919	-42.28
864.087	14.72
864.255	41.5
864.424	-255.38
864.592	-2.53
864.76	-48.91
864.928	-294.4
865.096	-243.31
865.264	-152.56
865.432	-2370.45
865.6	-218.5
865.768	-156.32
865.936	-159.81
866.104	-163.47
866.272	-270.63
866.44	-531.1
866.608	834.24
866.776	428.07
866.944	4644.19
867.112	-800.42
867.28	-320.7
867.448	-138.79
867.615	-64.11
867.783	-33.84
867.951	-32.55
868.119	4.82
868.286	-24.88
868.454	-118.56
868.622	-135.8
868.789	-213.91
868.957	-4385.71
869.125	-2413.16
869.292	-158.97
869.46	-205
869.627	33.09
869.795	-3.05
869.963	18.06
870.13	14.35
870.298	39.27
870.465	-72.16
870.632	-88.52
870.8	-56.28
870.967	-118.55
871.135	-192.31
871.302	-107.75
871.469	-127.88
871.637	-187.54
871.804	-45.97
871.971	-87.55
872.139	-457.21
872.306	-49.18
872.473	-87.43
872.64	-442.49
872.807	-181.82
872.975	-11.28
873.142	-299.64
873.309	2178.38
873.476	-9.33
873.643	80.24
873.81	27.16
873.977	68.23
874.144	68.42
874.311	12.94
874.478	-88.31
874.645	-123.88
874.812	-49.35
874.979	-6.33
875.146	-59.23
875.313	-95.5
875.48	21.42
875.647	-18.91
875.813	-64.29
875.98	-19.59
876.147	-34.89
876.314	-121.01
876.481	1060.33
876.647	-1498.88
876.814	658.55
876.981	-155.38
877.147	-108.78
877.314	-25.92
877.481	1.8
877.647	38.05
877.814	0.11
877.98	-38.58
878.147	26.12
878.314	66.4
878.48	-22.42
878.647	-22.75
878.813	39.77
878.979	37.91
879.146	-8.29
879.312	-11.69
879.479	-38.7
879.645	-127.45
879.811	-352.68
879.978	-986.26
880.144	-296.35
880.31	-135.57
880.477	-373.56
880.643	-455.99
880.809	-119.66
880.975	-66.99
881.142	-716.36
881.308	-66.02
881.474	-11.45
881.64	-69.71
881.806	-175.17
881.972	-54
882.138	-65.23
882.304	-87.03
882.47	-266.31
882.636	-714.75
882.802	-201.27
882.968	-79.97
883.134	-35.39
883.3	-13.71
883.466	20.54
883.632	47.75
883.798	33.68
883.964	22.57
884.129	42.28
884.295	44.41
884.461	-34.5
884.627	-81.31
884.793	-105.32
884.958	-31.24
885.124	-124.39
885.29	-222.34
885.455	-177.18
885.621	39.49
885.787	-104.63
885.952	-35.25
886.118	-31.17
886.283	-68.94
886.449	-199.66
886.614	-168.04
886.78	-372.31
886.945	1527.87
887.111	-720.81
887.276	-493.75
887.442	-956.36
887.607	-367.45
887.773	-270.06
887.938	-226.11
888.103	-334.98
888.269	-221.99
888.434	-365.95
888.599	-126.3
888.764	-6.25
888.93	17.39
889.095	-22.43
889.26	-61.55
889.425	-49.34
889.59	-50.73
889.756	-84.46
889.921	-50.13
890.086	-7.34
890.251	-18.91
890.416	-206.41
890.581	-1638.71
890.746	245
890.911	561.15
891.076	193.23
891.241	-377.61
891.406	-0.93
891.571	-60.19
891.736	-236.24
891.901	-450.44
892.065	638.46
892.23	158.36
892.395	246.38
892.56	436.71
892.725	-732.81
892.889	-1768.29
893.054	-303.47
893.219	-155.65
893.384	-75.17
893.548	-154.51
893.713	-196.64
893.878	-143.46
