Data from Ofra_PS_T2_2A_1GT42_Reflection_2.txt Node
Date: Wed Jul 21 16:55:14 EDT 2021
User: Adam
Spectrometer: FLMT01687
Trigger mode: 0
Integration Time (sec): 1.100000E0
Scans to average: 2
Electric dark correction enabled: true
Nonlinearity correction enabled: false
Boxcar width: 2
XAxis mode: Wavelengths
Number of Pixels in Spectrum: 3648
>>>>>Begin Spectral Data<<<<<
179.494	395
179.716	432.94
179.937	389.47
180.158	370.44
180.38	543.59
180.601	157.32
180.823	45.97
181.044	-111.02
181.265	-57.54
181.486	41.76
181.708	109.41
181.929	630.1
182.15	-536.27
182.372	11.23
182.593	28.31
182.814	48.06
183.035	64.74
183.257	67.53
183.478	56.22
183.699	62.33
183.92	38.79
184.141	29.14
184.363	-37.46
184.584	-31.04
184.805	-8.91
185.026	33.75
185.247	35.23
185.468	35.62
185.689	38.48
185.91	51.43
186.132	46.9
186.353	43.12
186.574	82.09
186.795	90.02
187.016	42.93
187.237	12.36
187.458	-10.14
187.679	-1.04
187.9	-23.64
188.121	-13.6
188.342	-20.24
188.563	22.48
188.784	1.86
189.005	-23.79
189.226	7.25
189.447	16.81
189.667	-146.97
189.888	-292.49
190.109	-716.56
190.33	-299.84
190.551	-597.12
190.772	-97.28
190.993	-31.44
191.214	-16.32
191.434	-42.49
191.655	14.39
191.876	-38.32
192.097	-82.82
192.318	-95.85
192.538	-61.51
192.759	-62.08
192.98	14.28
193.201	14.77
193.421	31.8
193.642	24.77
193.863	30.14
194.083	6.84
194.304	8.37
194.525	-5.27
194.745	-27.28
194.966	-58.29
195.187	-64.97
195.407	-53.66
195.628	-87.26
195.848	-112.05
196.069	-101.81
196.29	-16.05
196.51	-34.01
196.731	-29.43
196.951	-6.55
197.172	-16.11
197.392	-53.68
197.613	-66.47
197.833	-83.59
198.054	-83.44
198.274	-41.64
198.495	-57.83
198.715	-25.17
198.936	-47.95
199.156	-29.07
199.377	-109.2
199.597	-72.6
199.817	-103.54
200.038	-50.17
200.258	-114.01
200.479	-60.29
200.699	-87.94
200.919	-4.61
201.14	-3.44
201.36	4.52
201.58	27.52
201.801	36.96
202.021	-5.87
202.241	-16.43
202.461	-10.97
202.682	-88.37
202.902	-137.6
203.122	-74.35
203.342	-42.66
203.563	-26.07
203.783	-6.35
204.003	-38.99
204.223	-18.2
204.443	11.37
204.663	4.59
204.884	18.05
205.104	44.01
205.324	72.97
205.544	78.91
205.764	85.23
205.984	82.57
206.204	83.72
206.424	51.12
206.644	42.31
206.864	40.43
207.084	29.86
207.304	38.61
207.525	46.02
207.745	21.44
207.964	27.84
208.184	1.9
208.404	-40.25
208.624	-32.31
208.844	-49.07
209.064	-264
209.284	-314.7
209.504	-147.42
209.724	-49.7
209.944	-28.78
210.164	0.9
210.384	21.33
210.604	15.76
210.823	-23.24
211.043	-23.8
211.263	-16.88
211.483	-30.95
211.703	-67.22
211.922	-39.3
212.142	1.88
212.362	-2.69
212.582	0.53
212.801	0.74
213.021	-21.36
213.241	-31.21
213.461	-59.48
213.68	-81.25
213.9	-88.31
214.12	-66.62
214.339	-119.46
214.559	-88.15
214.779	-45.35
214.998	-38.8
215.218	-67.4
215.438	-31.58
215.657	-30.48
215.877	-11.16
216.096	24.27
216.316	31.14
216.535	22.29
216.755	24.13
216.974	-28.27
217.194	-79.9
217.413	-80.38
217.633	-91.15
217.852	-176.15
218.072	-80.41
218.291	-16.13
218.511	9.55
218.73	7.03
218.95	5.9
219.169	4.96
219.389	-33.41
219.608	-13.24
219.827	-11.77
220.047	1.77
220.266	24.3
220.485	18.17
220.705	4.4
220.924	-11.79
221.143	9.9
221.363	-24.37
221.582	2.91
221.801	-3.74
222.021	2.11
222.24	-54.02
222.459	-14.41
222.678	-74.85
222.897	-85.88
223.117	-101.15
223.336	-96.32
223.555	-56.67
223.774	-7.45
223.993	-6.32
224.213	59.57
224.432	57.66
224.651	63.75
224.87	40.34
225.089	53.31
225.308	34.71
225.527	43.87
225.746	34.17
225.965	36.33
226.184	19.4
226.404	28.96
226.623	7.29
226.842	13.7
227.061	18.05
227.28	21.01
227.499	21.52
227.718	26.43
227.936	10.54
228.155	26.8
228.374	25.36
228.593	16.61
228.812	27.05
229.031	38.67
229.25	2.28
229.469	1.1
229.688	0.03
229.907	18.98
230.125	26.77
230.344	20.73
230.563	22.9
230.782	29.15
231.001	-36.82
231.22	-47.8
231.438	-6.88
231.657	-20.11
231.876	-51.85
232.095	-1.34
232.313	12.12
232.532	-15.96
232.751	-9.58
232.969	3.6
233.188	-43.03
233.407	16.77
233.625	16.77
233.844	11.11
234.063	16.46
234.281	30.07
234.5	13.74
234.719	27.25
234.937	39.59
235.156	54.4
235.374	45.82
235.593	25.03
235.811	10.39
236.03	3.53
236.249	-33.23
236.467	-6.65
236.686	10.61
236.904	3.94
237.123	-25.86
237.341	-22.4
237.559	-24.3
237.778	-33.82
237.996	-41.7
238.215	10.33
238.433	10.57
238.652	16.52
238.87	-4.67
239.088	3.28
239.307	-2.41
239.525	-5.99
239.743	-24.51
239.962	-23.51
240.18	-28.47
240.398	-68.45
240.617	-51.57
240.835	-47.54
241.053	-20
241.271	-7.51
241.49	34.39
241.708	26.14
241.926	14.67
242.144	27.46
242.363	-13.46
242.581	-46.92
242.799	-36.77
243.017	-2.59
243.235	-23.08
243.453	-12.16
243.672	-25.48
243.89	-19.81
244.108	-31.73
244.326	-20.8
244.544	-21.62
244.762	-18
244.98	-12.38
245.198	-4.55
245.416	-8.98
245.634	-16.87
245.852	-10.78
246.07	-32.75
246.288	-35.48
246.506	-63.48
246.724	-35.04
246.942	-22.62
247.16	2.67
247.378	18.03
247.596	31.71
247.814	27.57
248.032	25.09
248.25	31.8
248.468	5.69
248.685	4.2
248.903	30
249.121	21.51
249.339	6.78
249.557	15.76
249.775	25.46
249.992	-14.03
250.21	-12.12
250.428	-16.66
250.646	-39.43
250.863	-37.43
251.081	-19.71
251.299	-20.62
251.517	6.49
251.734	19.94
251.952	1.72
252.17	-7.66
252.387	4.39
252.605	-11.21
252.823	-12.51
253.04	0.91
253.258	13.76
253.475	-1.98
253.693	37.29
253.911	50.31
254.128	58.51
254.346	68.74
254.563	53.26
254.781	27.74
254.998	5.89
255.216	-21.72
255.433	-6.62
255.651	12.33
255.868	26.12
256.086	29.53
256.303	45.34
256.521	31.31
256.738	25.28
256.956	4.17
257.173	15.84
257.39	-8.82
257.608	-15.24
257.825	28.22
258.043	51.38
258.26	40.87
258.477	66.03
258.695	56
258.912	0.02
259.129	20.64
259.346	-6.34
259.564	-36.11
259.781	-51.61
259.998	0.02
260.216	3.23
260.433	40.56
260.65	38.47
260.867	52.5
261.084	30.19
261.302	8.97
261.519	-16.13
261.736	-23.23
261.953	-40.85
262.17	-4.75
262.387	-13.86
262.604	-33.6
262.822	-35.3
263.039	-21.13
263.256	-67.34
263.473	-34.65
263.69	-15.46
263.907	5.42
264.124	36.27
264.341	30.46
264.558	12.65
264.775	36.2
264.992	30.32
265.209	4.58
265.426	34.75
265.643	45.4
265.86	44.28
266.077	60.61
266.294	48.14
266.51	0.28
266.727	-3.12
266.944	6.22
267.161	-20.86
267.378	-12.26
267.595	21.47
267.812	1.91
268.028	-23.57
268.245	11.14
268.462	13.17
268.679	-4.69
268.896	21.96
269.112	13.71
269.329	6.97
269.546	-0.61
269.763	4.53
269.979	-7.71
270.196	2.06
270.413	-23.62
270.629	-34.18
270.846	-36.69
271.063	-29.51
271.279	-51.37
271.496	-27.78
271.712	0.02
271.929	5.66
272.146	9.34
272.362	27.3
272.579	33.71
272.795	31.87
273.012	23.19
273.228	15.87
273.445	0.96
273.661	-26.45
273.878	-63.02
274.094	-52.01
274.311	-91.24
274.527	-27.17
274.744	-19.2
274.96	-19.68
275.177	-6.26
275.393	28.2
275.609	23.49
275.826	49.4
276.042	56.72
276.259	43.18
276.475	34.7
276.691	27.73
276.908	-5.61
277.124	3.82
277.34	6.36
277.557	-1.32
277.773	-5.68
277.989	-8.76
278.205	-6.9
278.422	0.76
278.638	8.01
278.854	20.75
279.07	26.54
279.286	51.11
279.503	39.96
279.719	13.21
279.935	-4.42
280.151	-11.24
280.367	-35.15
280.583	-47.16
280.799	-14.84
281.016	-48.63
281.232	-14.39
281.448	-16.91
281.664	16.69
281.88	-12.4
282.096	26.62
282.312	50.62
282.528	68.55
282.744	46.97
282.96	33.72
283.176	23.48
283.392	2.53
283.608	-9.29
283.824	-15.21
284.04	7.11
284.256	12.15
284.471	12.79
284.687	8.8
284.903	36.21
285.119	39.65
285.335	15.67
285.551	6.68
285.767	14.87
285.982	5.28
286.198	-29.93
286.414	18.82
286.63	34.14
286.846	39.65
287.061	24.11
287.277	48.44
287.493	27.3
287.709	21.17
287.924	5.53
288.14	43.08
288.356	35.84
288.571	42.79
288.787	35.07
289.003	42.56
289.218	14.52
289.434	-23.25
289.65	-21.34
289.865	-22.2
290.081	-5.25
290.296	-0.2
290.512	19.91
290.727	-0.76
290.943	-2.58
291.159	-11.3
291.374	-18.09
291.59	-26.56
291.805	-6.83
292.021	-4.72
292.236	-17.69
292.451	10.59
292.667	15.88
292.882	20.57
293.098	17.47
293.313	7.22
293.529	-39.41
293.744	-50.96
293.959	-50.2
294.175	-40.33
294.39	-6.39
294.605	22.56
294.821	38.86
295.036	37.61
295.251	42.56
295.467	30.2
295.682	18.77
295.897	-14.6
296.112	-28.42
296.328	-33.06
296.543	-45.49
296.758	-46.62
296.973	-15.03
297.188	20.19
297.404	10.85
297.619	-2.14
297.834	-20.57
298.049	-25.47
298.264	-45.05
298.479	-12.78
298.694	1.67
298.909	16.68
299.125	15.48
299.34	11.41
299.555	-4.02
299.77	9.89
299.985	-15.86
300.2	-39.73
300.415	-39.22
300.63	-13.6
300.845	-27.54
301.06	-24.71
301.275	-7.71
301.49	8.25
301.704	6.66
301.919	-21.78
302.134	-13.57
302.349	-16.84
302.564	-70.96
302.779	-118.06
302.994	-70.02
303.209	-37.65
303.423	15.56
303.638	53.16
303.853	32.02
304.068	30.03
304.283	26.81
304.497	15.16
304.712	19.86
304.927	35.4
305.142	20.1
305.356	22.93
305.571	6.17
305.786	-11.95
306	-38.38
306.215	-27.94
306.43	-33.96
306.644	-21.59
306.859	15.69
307.074	27.94
307.288	5.75
307.503	-0.49
307.717	0.59
307.932	-21.45
308.147	-14.35
308.361	2.18
308.576	-3.78
308.79	-30
309.005	-21
309.219	-24.63
309.434	-34.01
309.648	-42.29
309.863	-25.63
310.077	-19.36
310.292	-18.37
310.506	-13.98
310.72	6.61
310.935	13.99
311.149	3.8
311.364	21.03
311.578	27.57
311.792	17.73
312.007	16.6
312.221	14.9
312.435	6.8
312.649	4.9
312.864	25.53
313.078	33.45
313.292	89.94
313.507	84.04
313.721	101.8
313.935	63.3
314.149	48.9
314.363	23.22
314.578	34.98
314.792	26.55
315.006	13.4
315.22	34.94
315.434	36.96
315.648	31.47
315.862	26.98
316.077	27.05
316.291	-4.48
316.505	8.74
316.719	6.2
316.933	-8.02
317.147	-23.64
317.361	-55.26
317.575	-84.99
317.789	-112.13
318.003	-168.12
318.217	-144.83
318.431	-27.96
318.645	18.05
318.859	17.8
319.073	51.27
319.287	46.65
319.5	23.09
319.714	-7.64
319.928	-24.83
320.142	-51.49
320.356	-17.06
320.57	-7.26
320.784	-2.15
320.997	-9.17
321.211	-17.32
321.425	-47.59
321.639	-71.43
321.853	-38
322.066	-19.75
322.28	-17.04
322.494	-11.93
322.707	7.44
322.921	-7.67
323.135	-8.17
323.349	-7.89
323.562	-10.53
323.776	-17.23
323.989	-14.68
324.203	-13.66
324.417	-10.13
324.63	-28.19
324.844	-33.61
325.057	-41.64
325.271	-25.97
325.485	3.74
325.698	28.68
325.912	45.33
326.125	45.58
326.339	34.22
326.552	20.67
326.766	16.43
326.979	14.92
327.193	36.05
327.406	36.02
327.619	28.41
327.833	30.65
328.046	17.15
328.26	-11.92
328.473	4.8
328.686	1.31
328.9	-8.36
329.113	6.42
329.326	-4.2
329.54	-1.35
329.753	-3.39
329.966	0.02
330.179	14.98
330.393	29.28
330.606	30.31
330.819	43.69
331.032	44.94
331.246	40.88
331.459	54.04
331.672	51.96
331.885	29.73
332.098	22.36
332.311	7.44
332.525	-32.27
332.738	-50.95
332.951	-8.27
333.164	3.53
333.377	19.07
333.59	40.25
333.803	55.5
334.016	34.9
334.229	26.3
334.442	23.53
334.655	29.95
334.868	20.98
335.081	29.88
335.294	17.81
335.507	15.07
335.72	15.05
335.933	8.04
336.146	6.67
336.359	9.22
336.572	-23.98
336.785	-52.95
336.997	-46.26
337.21	-22.63
337.423	-8.35
337.636	0.37
337.849	24.07
338.062	22.48
338.274	20.87
338.487	7.15
338.7	-0.18
338.913	-56.62
339.125	-66.19
339.338	-131.99
339.551	-106.57
339.763	-54.16
339.976	-4.89
340.189	0.82
340.402	8.75
340.614	1.4
340.827	-1.43
341.039	-1.3
341.252	9.76
341.465	24.01
341.677	32.27
341.89	6.1
342.102	10.09
342.315	-2.79
342.527	-18.15
342.74	-0.8
342.952	38.15
343.165	31.62
343.377	39.57
343.59	29.91
343.802	21.42
344.015	4.91
344.227	5.92
344.44	3.31
344.652	20.96
344.864	20.54
345.077	30.56
345.289	21.72
345.502	23.41
345.714	10.37
345.926	17.55
346.139	18
346.351	38.07
346.563	45.78
346.775	50.55
346.988	36.68
347.2	25.14
347.412	-26.31
347.624	-39.68
347.837	-54.75
348.049	-37.06
348.261	-22.13
348.473	0.76
348.685	2.14
348.897	1.24
349.11	-8.89
349.322	-17.28
349.534	5.53
349.746	-4.8
349.958	1.35
350.17	5.73
350.382	18.19
350.594	5.56
350.806	18.65
351.018	11.3
351.23	10.1
351.442	-18.44
351.654	-7.24
351.866	-8.07
352.078	1.45
352.29	4.08
352.502	21.12
352.714	25.12
352.926	12.13
353.138	10.45
353.35	4.63
353.561	-6.6
353.773	-25.56
353.985	-14.99
354.197	-25.85
354.409	-27.83
354.621	-36.32
354.832	-20.2
355.044	-29.86
355.256	-23.86
355.468	-1.95
355.679	10.63
355.891	13.48
356.103	7.1
356.314	7.88
356.526	6.36
356.738	6.34
356.949	-2.91
357.161	11.39
357.373	9.52
357.584	-3.43
357.796	0.84
358.008	4.4
358.219	28.67
358.431	32.1
358.642	30.12
358.854	28.62
359.065	20.75
359.277	-7.14
359.488	-14.23
359.7	-28.25
359.911	-35.41
360.123	-30.33
360.334	-33.5
360.546	-48.8
360.757	-36.47
360.969	-23.33
361.18	4.9
361.391	9.46
361.603	19.6
361.814	19.48
362.025	14.95
362.237	11.09
362.448	17.63
362.659	29.19
362.871	26.77
363.082	30.08
363.293	19.23
363.504	12.77
363.716	-8.57
363.927	-22.16
364.138	-50.29
364.349	-52.96
364.56	-54.14
364.772	-46.82
364.983	-23.75
365.194	-22.19
365.405	-6.05
365.616	13.37
365.827	19.14
366.038	20.99
366.25	26.21
366.461	6.14
366.672	8.38
366.883	10.05
367.094	10.38
367.305	10.29
367.516	12.17
367.727	-9.98
367.938	-8.57
368.149	-14.13
368.36	-7.13
368.571	-0.77
368.781	-3.13
368.992	-7.76
369.203	-22.95
369.414	-34.16
369.625	-40.69
369.836	-35.03
370.047	-48.24
370.258	-19.86
370.468	-17.56
370.679	-18.78
370.89	-15.76
371.101	-5.45
371.312	-5.08
371.522	-6.99
371.733	-10.54
371.944	-3.07
372.155	0.68
372.365	-9.57
372.576	-3.67
372.787	15.13
372.997	9.29
373.208	14.08
373.419	37.35
373.629	9.11
373.84	-3.19
374.05	-7.11
374.261	-19.42
374.472	-39.52
374.682	8.08
374.893	6.1
375.103	32.93
375.314	36.5
375.524	32.66
375.735	27.32
375.945	30.65
376.156	4.42
376.366	6.89
376.577	8.23
376.787	-5.22
376.997	-0.74
377.208	6.02
377.418	-9.8
377.629	1.78
377.839	13.98
378.049	5.56
378.26	13
378.47	24.31
378.68	15.33
378.89	8.65
379.101	9.44
379.311	-16.1
379.521	-38.98
379.732	-33.76
379.942	-31.37
380.152	-38.24
380.362	-8.1
380.572	-1.66
380.783	8.32
380.993	14.84
381.203	15.71
381.413	16.66
381.623	5.78
381.833	-5.09
382.043	-9.81
382.253	-6.67
382.463	-8.03
382.674	-7.12
382.884	-7.42
383.094	-6.81
383.304	-5.54
383.514	0.53
383.724	9.44
383.934	2.3
384.144	-7.63
384.353	-10.73
384.563	-13.05
384.773	-9.86
384.983	-8.07
385.193	4.83
385.403	3.85
385.613	1.22
385.823	-9.5
386.033	-6.66
386.242	-10.28
386.452	-11.58
386.662	-15.71
386.872	-3.54
387.082	-2.07
387.291	-4.6
387.501	-2.57
387.711	5.93
387.921	0.5
388.13	-5.03
388.34	6.24
388.55	1.23
388.759	-3.38
388.969	0.16
389.179	1.79
389.388	-1.61
389.598	3.69
389.807	0.82
390.017	-0.04
390.227	0.98
390.436	-3.88
390.646	-1.62
390.855	1.45
391.065	-0.54
391.274	-1.5
391.484	-1.54
391.693	-3.32
391.903	-1.35
392.112	7.83
392.322	6.56
392.531	11.5
392.74	12.66
392.95	9.82
393.159	3.05
393.369	4.49
393.578	1.92
393.787	0.91
393.997	1.67
394.206	1.32
394.415	2.33
394.625	2.88
394.834	2.76
395.043	3.72
395.252	5.49
395.462	7.4
395.671	7.28
395.88	7.26
396.089	6.84
396.298	6.23
396.508	5.12
396.717	5.21
396.926	5.37
397.135	5.39
397.344	4.52
397.553	4.8
397.762	5.42
397.971	5.73
398.181	5.55
398.39	5.59
398.599	5.25
398.808	5.26
399.017	5.81
399.226	7.28
399.435	8.41
399.644	8.33
399.853	7.53
400.062	6.78
400.27	6.06
400.479	4.83
400.688	4.46
400.897	4.82
401.106	5.13
401.315	4.8
401.524	5.24
401.733	5.57
401.941	5.6
402.15	5.7
402.359	5.66
402.568	5.94
402.777	6.25
402.985	6.25
403.194	6.14
403.403	6.11
403.612	5.83
403.82	5.47
404.029	5.68
404.238	5.85
404.446	6.25
404.655	6.04
404.864	5.84
405.072	5.51
405.281	5.28
405.489	4.95
405.698	5.1
405.906	5.39
406.115	5.42
406.324	5.32
406.532	5.37
406.741	5.5
406.949	5.45
407.158	5.47
407.366	5.63
407.574	5.67
407.783	5.65
407.991	5.41
408.2	5.33
408.408	5.29
408.617	5.14
408.825	4.94
409.033	5.16
409.242	5.21
409.45	5.25
409.658	5.03
409.867	5.19
410.075	4.95
410.283	4.93
410.491	4.72
410.7	4.94
410.908	4.84
411.116	5.08
411.324	5.08
411.533	5.03
411.741	5.08
411.949	5.01
412.157	4.75
412.365	4.77
412.573	4.84
412.781	4.86
412.99	4.89
413.198	5.05
413.406	5.06
413.614	5.09
413.822	5.01
414.03	4.9
414.238	4.73
414.446	4.75
414.654	4.56
414.862	4.56
415.07	4.68
415.278	4.81
415.486	4.61
415.694	4.73
415.902	4.57
416.109	4.45
416.317	4.45
416.525	4.44
416.733	4.43
416.941	4.63
417.149	4.63
417.357	4.55
417.564	4.62
417.772	4.67
417.98	4.53
418.188	4.54
418.395	4.5
418.603	4.72
418.811	4.46
419.019	4.42
419.226	4.62
419.434	4.75
419.642	4.4
419.849	4.54
420.057	4.55
420.265	4.37
420.472	4.27
420.68	4.37
420.887	4.35
421.095	4.36
421.302	4.33
421.51	4.39
421.717	4.53
421.925	4.47
422.132	4.39
422.34	4.16
422.547	4.25
422.755	4.07
422.962	4.06
423.17	4.02
423.377	4.13
423.585	4.03
423.792	4.01
423.999	4.22
424.207	4.19
424.414	4.32
424.621	4.14
424.829	4.04
425.036	3.96
425.243	4.13
425.451	4.07
425.658	3.98
425.865	4.22
426.072	4.15
426.28	4.36
426.487	4.38
426.694	4.44
426.901	4.29
427.108	4.14
427.315	3.88
427.523	4.06
427.73	4.24
427.937	4.31
428.144	4.34
428.351	4.35
428.558	4.29
428.765	4.26
428.972	4.14
429.179	4.31
429.386	4.51
429.593	4.46
429.8	4.3
430.007	4.36
430.214	4.29
430.421	4.12
430.628	3.99
430.835	3.97
431.042	4.14
431.249	4.26
431.456	4.28
431.662	4.41
431.869	4.6
432.076	4.61
432.283	4.62
432.49	4.55
432.697	4.54
432.903	4.34
433.11	4.31
433.317	4.48
433.524	4.73
433.73	4.75
433.937	5.02
434.144	4.94
434.35	4.78
434.557	4.58
434.764	4.61
434.97	4.54
435.177	4.73
435.384	4.76
435.59	4.81
435.797	4.96
436.003	4.88
436.21	4.73
436.416	4.76
436.623	4.81
436.829	4.74
437.036	4.93
437.242	5
437.449	4.93
437.655	4.94
437.862	5.04
438.068	4.94
438.275	5.08
438.481	5.28
438.687	5.3
438.894	5.23
439.1	5.32
439.307	5.49
439.513	5.35
439.719	5.29
439.926	5.42
440.132	5.32
440.338	5.04
440.544	5.22
440.751	5.29
440.957	5.32
441.163	5.44
441.369	5.55
441.575	5.38
441.782	5.45
441.988	5.4
442.194	5.43
442.4	5.43
442.606	5.72
442.812	5.76
443.018	5.75
443.224	5.75
443.431	5.73
443.637	5.61
443.843	5.5
444.049	5.56
444.255	5.49
444.461	5.59
444.667	5.53
444.873	5.72
445.079	5.65
445.284	5.85
445.49	5.65
445.696	5.51
445.902	5.4
446.108	5.47
446.314	5.37
446.52	5.53
446.726	5.84
446.931	5.89
447.137	5.86
447.343	5.82
447.549	5.8
447.755	5.65
447.96	5.61
448.166	5.55
448.372	5.56
448.578	5.61
448.783	5.58
448.989	5.71
449.195	5.89
449.4	5.89
449.606	5.83
449.812	5.85
450.017	5.82
450.223	5.73
450.428	5.65
450.634	5.76
450.84	5.88
451.045	5.88
451.251	5.79
451.456	6.06
451.662	6.09
451.867	6.1
452.073	6.06
452.278	6.17
452.483	6.17
452.689	6.07
452.894	6.07
453.1	6.02
453.305	5.95
453.51	5.96
453.716	5.99
453.921	5.95
454.127	6
454.332	6.05
454.537	5.91
454.742	5.89
454.948	5.87
455.153	5.92
455.358	6.01
455.563	6.18
455.769	6.25
455.974	6.24
456.179	6.18
456.384	6.13
456.589	6.03
456.795	5.87
457	5.91
457.205	6.09
457.41	6
457.615	6.03
457.82	6.2
458.025	6.22
458.23	6.07
458.435	6.09
458.64	6.05
458.845	6.04
459.05	6.01
459.255	5.97
459.46	6.09
459.665	6.08
459.87	6.08
460.075	6.1
460.28	6.18
460.485	6.22
460.69	6.22
460.895	6.18
461.099	6.17
461.304	6.34
461.509	6.35
461.714	6.28
461.919	6.37
462.123	6.29
462.328	6.3
462.533	6.24
462.738	6.36
462.942	6.34
463.147	6.47
463.352	6.4
463.556	6.36
463.761	6.39
463.966	6.42
464.17	6.38
464.375	6.33
464.58	6.42
464.784	6.45
464.989	6.43
465.193	6.5
465.398	6.57
465.602	6.62
465.807	6.6
466.011	6.69
466.216	6.76
466.42	6.78
466.625	6.8
466.829	6.88
467.034	6.91
467.238	6.98
467.443	6.91
467.647	6.8
467.851	6.83
468.056	6.81
468.26	6.65
468.464	6.71
468.669	6.8
468.873	6.89
469.077	6.89
469.282	7.02
469.486	7.1
469.69	7.16
469.894	7.01
470.099	7.06
470.303	7.14
470.507	7.06
470.711	6.93
470.915	6.95
471.119	6.91
471.324	6.83
471.528	6.92
471.732	7.07
471.936	7.07
472.14	7.08
472.344	7.14
472.548	7.15
472.752	7.15
472.956	7.35
473.16	7.4
473.364	7.33
473.568	7.29
473.772	7.4
473.976	7.26
474.18	7.2
474.384	7.23
474.588	7.28
474.792	7.2
474.995	7.22
475.199	7.4
475.403	7.46
475.607	7.51
475.811	7.44
476.015	7.54
476.218	7.5
476.422	7.48
476.626	7.47
476.83	7.61
477.033	7.52
477.237	7.49
477.441	7.5
477.644	7.45
477.848	7.43
478.052	7.45
478.255	7.42
478.459	7.49
478.663	7.64
478.866	7.67
479.07	7.74
479.273	7.87
479.477	7.84
479.681	7.75
479.884	7.74
480.088	7.67
480.291	7.66
480.495	7.71
480.698	7.73
480.901	7.77
481.105	7.93
481.308	7.93
481.512	7.98
481.715	8.12
481.919	8.14
482.122	8.17
482.325	8.22
482.529	8.19
482.732	8.15
482.935	8.15
483.138	8.05
483.342	8.04
483.545	8.13
483.748	8.15
483.952	8.18
484.155	8.34
484.358	8.35
484.561	8.26
484.764	8.2
484.967	8.28
485.171	8.25
485.374	8.17
485.577	8.26
485.78	8.31
485.983	8.2
486.186	8.07
486.389	8.07
486.592	8.04
486.795	8.05
486.998	8.05
487.201	8.14
487.404	8.21
487.607	8.21
487.81	8.23
488.013	8.26
488.216	8.26
488.419	8.23
488.622	8.25
488.825	8.21
489.028	8.19
489.231	8.09
489.433	8.07
489.636	8
489.839	7.96
490.042	7.9
490.245	7.94
490.447	8.01
490.65	8.06
490.853	8.07
491.056	8.13
491.258	8.2
491.461	8.22
491.664	8.25
491.866	8.25
492.069	8.3
492.272	8.18
492.474	8.14
492.677	8.11
492.879	8.22
493.082	8.22
493.285	8.4
493.487	8.44
493.69	8.45
493.892	8.36
494.095	8.33
494.297	8.23
494.5	8.18
494.702	8.19
494.905	8.28
495.107	8.25
495.309	8.3
495.512	8.32
495.714	8.35
495.917	8.36
496.119	8.36
496.321	8.33
496.524	8.36
496.726	8.32
496.928	8.36
497.13	8.39
497.333	8.4
497.535	8.42
497.737	8.42
497.939	8.37
498.142	8.4
498.344	8.46
498.546	8.43
498.748	8.48
498.95	8.56
499.152	8.57
499.355	8.59
499.557	8.67
499.759	8.8
499.961	8.8
500.163	8.85
500.365	8.85
500.567	8.88
500.769	8.79
500.971	8.81
501.173	8.74
501.375	8.76
501.577	8.68
501.779	8.64
501.981	8.64
502.183	8.7
502.385	8.67
502.587	8.68
502.788	8.74
502.99	8.84
503.192	8.87
503.394	8.92
503.596	8.99
503.798	9.08
503.999	9.08
504.201	9.08
504.403	9.15
504.605	9.22
504.806	9.18
505.008	9.13
505.21	9.27
505.411	9.27
505.613	9.25
505.815	9.29
506.016	9.37
506.218	9.36
506.42	9.41
506.621	9.52
506.823	9.55
507.024	9.53
507.226	9.56
507.427	9.54
507.629	9.55
507.83	9.65
508.032	9.72
508.233	9.82
508.435	9.85
508.636	9.89
508.838	9.86
509.039	9.89
509.24	9.89
509.442	9.94
509.643	9.87
509.845	9.97
510.046	10.07
510.247	10.1
510.448	10.15
510.65	10.25
510.851	10.31
511.052	10.26
511.254	10.28
511.455	10.37
511.656	10.41
511.857	10.44
512.058	10.44
512.26	10.43
512.461	10.4
512.662	10.48
512.863	10.38
513.064	10.42
513.265	10.5
513.466	10.57
513.667	10.49
513.868	10.54
514.069	10.57
514.27	10.67
514.471	10.64
514.672	10.75
514.873	10.74
515.074	10.8
515.275	10.68
515.476	10.69
515.677	10.66
515.878	10.79
516.079	10.76
516.28	10.76
516.481	10.86
516.682	10.92
516.882	10.83
517.083	10.91
517.284	10.9
517.485	10.85
517.686	10.81
517.886	10.88
518.087	10.86
518.288	10.92
518.488	10.93
518.689	10.88
518.89	10.89
519.091	10.94
519.291	10.94
519.492	11
519.692	11.14
519.893	11.18
520.094	11.15
520.294	11.13
520.495	11.1
520.695	11.12
520.896	11.1
521.096	11.15
521.297	11.21
521.497	11.22
521.698	11.15
521.898	11.15
522.099	11.15
522.299	11.22
522.499	11.23
522.7	11.25
522.9	11.3
523.101	11.34
523.301	11.28
523.501	11.24
523.702	11.27
523.902	11.3
524.102	11.36
524.302	11.43
524.503	11.54
524.703	11.55
524.903	11.54
525.103	11.5
525.304	11.55
525.504	11.55
525.704	11.6
525.904	11.6
526.104	11.55
526.304	11.5
526.504	11.55
526.705	11.56
526.905	11.65
527.105	11.74
527.305	11.75
527.505	11.7
527.705	11.7
527.905	11.66
528.105	11.65
528.305	11.58
528.505	11.59
528.705	11.61
528.905	11.63
529.105	11.61
529.304	11.73
529.504	11.79
529.704	11.76
529.904	11.76
530.104	11.78
530.304	11.79
530.503	11.8
530.703	11.76
530.903	11.76
531.103	11.8
531.303	11.8
531.502	11.82
531.702	11.96
531.902	12.02
532.101	12.02
532.301	12.01
532.501	11.97
532.7	11.95
532.9	11.95
533.1	11.96
533.299	12.01
533.499	12.06
533.698	12.08
533.898	12.1
534.097	12.12
534.297	12.18
534.496	12.25
534.696	12.25
534.895	12.29
535.095	12.35
535.294	12.33
535.494	12.25
535.693	12.3
535.892	12.3
536.092	12.27
536.291	12.27
536.491	12.42
536.69	12.48
536.889	12.48
537.088	12.49
537.288	12.56
537.487	12.58
537.686	12.56
537.886	12.64
538.085	12.77
538.284	12.85
538.483	12.79
538.682	12.88
538.882	12.89
539.081	12.85
539.28	12.77
539.479	12.83
539.678	12.81
539.877	12.93
540.076	12.97
540.275	13.09
540.474	13.15
540.673	13.15
540.872	13.1
541.071	13.16
541.27	13.1
541.469	13.12
541.668	13.15
541.867	13.19
542.066	13.25
542.265	13.39
542.464	13.38
542.663	13.44
542.862	13.6
543.06	13.71
543.259	13.72
543.458	13.84
543.657	13.88
543.856	13.89
544.054	13.8
544.253	13.79
544.452	13.82
544.651	13.93
544.849	13.88
545.048	13.92
545.247	14.01
545.445	14.14
545.644	14.13
545.843	14.21
546.041	14.27
546.24	14.32
546.438	14.38
546.637	14.46
546.836	14.57
547.034	14.68
547.233	14.72
547.431	14.65
547.63	14.68
547.828	14.72
548.027	14.73
548.225	14.77
548.423	14.87
548.622	15
548.82	15.01
549.019	15.1
549.217	15.2
549.415	15.2
549.614	15.26
549.812	15.35
550.01	15.42
550.209	15.42
550.407	15.58
550.605	15.53
550.803	15.63
551.002	15.69
551.2	15.82
551.398	15.86
551.596	16.03
551.794	16.09
551.993	16.18
552.191	16.28
552.389	16.38
552.587	16.45
552.785	16.51
552.983	16.54
553.181	16.62
553.379	16.69
553.577	16.75
553.775	16.81
553.973	16.92
554.171	16.95
554.369	16.99
554.567	17.02
554.765	17.12
554.963	17.24
555.161	17.33
555.359	17.43
555.557	17.69
555.755	17.78
555.952	17.86
556.15	17.92
556.348	18.1
556.546	18.05
556.744	18.12
556.941	18.2
557.139	18.32
557.337	18.28
557.535	18.34
557.732	18.42
557.93	18.47
558.128	18.56
558.325	18.71
558.523	18.8
558.721	18.87
558.918	18.98
559.116	19.08
559.313	19.16
559.511	19.41
559.708	19.57
559.906	19.65
560.104	19.71
560.301	19.82
560.498	19.83
560.696	19.86
560.893	19.9
561.091	20.04
561.288	20.14
561.486	20.21
561.683	20.29
561.88	20.45
562.078	20.56
562.275	20.54
562.473	20.6
562.67	20.75
562.867	20.85
563.064	20.89
563.262	21.01
563.459	21.09
563.656	21.2
563.853	21.27
564.051	21.37
564.248	21.54
564.445	21.74
564.642	21.85
564.839	22.04
565.036	22.22
565.234	22.4
565.431	22.43
565.628	22.5
565.825	22.49
566.022	22.56
566.219	22.48
566.416	22.61
566.613	22.74
566.81	22.84
567.007	22.82
567.204	22.99
567.401	23.04
567.598	23.09
567.795	23.18
567.991	23.3
568.188	23.38
568.385	23.44
568.582	23.46
568.779	23.54
568.976	23.58
569.172	23.66
569.369	23.7
569.566	23.74
569.763	23.78
569.96	23.87
570.156	23.8
570.353	23.79
570.55	23.91
570.746	23.91
570.943	23.95
571.14	23.98
571.336	24.14
571.533	24.21
571.729	24.27
571.926	24.33
572.123	24.54
572.319	24.6
572.516	24.53
572.712	24.6
572.909	24.6
573.105	24.59
573.302	24.5
573.498	24.66
573.695	24.67
573.891	24.71
574.087	24.64
574.284	24.72
574.48	24.53
574.677	24.56
574.873	24.62
575.069	24.7
575.266	24.73
575.462	24.74
575.658	24.81
575.854	24.85
576.051	24.82
576.247	24.85
576.443	24.94
576.639	24.88
576.835	24.78
577.032	24.71
577.228	24.81
577.424	24.88
577.62	24.85
577.816	24.95
578.012	25.03
578.208	24.95
578.404	24.95
578.6	24.98
578.796	24.9
578.993	25.02
579.189	24.94
579.384	24.86
579.58	24.87
579.776	24.92
579.972	24.76
580.168	24.77
580.364	24.84
580.56	24.8
580.756	24.71
580.952	24.7
581.148	24.68
581.343	24.7
581.539	24.72
581.735	24.7
581.931	24.74
582.127	24.78
582.322	24.75
582.518	24.72
582.714	24.81
582.909	24.78
583.105	24.7
583.301	24.58
583.496	24.65
583.692	24.58
583.888	24.57
584.083	24.73
584.279	24.84
584.474	24.78
584.67	24.8
584.866	24.75
585.061	24.5
585.257	24.46
585.452	24.49
585.648	24.54
585.843	24.63
586.039	24.63
586.234	24.63
586.429	24.58
586.625	24.51
586.82	24.37
587.015	24.46
587.211	24.31
587.406	24.29
587.601	24.3
587.797	24.41
587.992	24.35
588.187	24.53
588.383	24.57
588.578	24.65
588.773	24.63
588.968	24.77
589.163	24.79
589.359	24.76
589.554	24.72
589.749	24.72
589.944	24.74
590.139	24.7
590.334	24.79
590.529	24.77
590.724	24.83
590.919	24.91
591.114	24.93
591.309	24.94
591.504	24.99
591.699	25.03
591.894	24.98
592.089	25.07
592.284	25.1
592.479	25.27
592.674	25.21
592.869	25.27
593.064	25.37
593.259	25.47
593.454	25.47
593.648	25.63
593.843	25.62
594.038	25.61
594.233	25.64
594.428	25.66
594.622	25.69
594.817	25.84
595.012	25.91
595.206	25.91
595.401	25.84
595.596	25.9
595.79	26.04
595.985	26.13
596.18	26.27
596.374	26.44
596.569	26.49
596.763	26.42
596.958	26.49
597.153	26.61
597.347	26.55
597.542	26.67
597.736	26.74
597.931	26.77
598.125	26.84
598.319	27.03
598.514	26.93
598.708	27.05
598.903	27.06
599.097	27.04
599.291	27.06
599.486	27.19
599.68	27.22
599.874	27.24
600.069	27.31
600.263	27.37
600.457	27.44
600.651	27.47
600.846	27.62
601.04	27.57
601.234	27.68
601.428	27.75
601.622	27.75
601.817	27.68
602.011	27.79
602.205	27.81
602.399	27.72
602.593	27.8
602.787	27.81
602.981	27.75
603.175	27.7
603.369	27.77
603.563	27.76
603.757	27.84
603.951	27.83
604.145	27.77
604.339	27.79
604.533	27.65
604.727	27.52
604.921	27.45
605.115	27.52
605.309	27.5
605.502	27.55
605.696	27.68
605.89	27.72
606.084	27.68
606.278	27.62
606.471	27.53
606.665	27.4
606.859	27.31
607.053	27.26
607.246	27.21
607.44	27.2
607.634	27.18
607.827	27.1
608.021	26.95
608.214	26.91
608.408	26.82
608.602	26.74
608.795	26.75
608.989	26.68
609.182	26.52
609.376	26.52
609.569	26.45
609.763	26.32
609.956	26.32
610.15	26.33
610.343	26.3
610.537	26.24
610.73	26.33
610.923	26.3
611.117	26.24
611.31	26.13
611.504	26.05
611.697	25.82
611.89	25.73
612.083	25.58
612.277	25.5
612.47	25.46
612.663	25.52
612.856	25.38
613.05	25.32
613.243	25.27
613.436	25.21
613.629	25.03
613.822	24.97
614.015	25.02
614.209	24.84
614.402	24.77
614.595	24.8
614.788	24.78
614.981	24.56
615.174	24.54
615.367	24.39
615.56	24.32
615.753	24.22
615.946	24.2
616.139	24.22
616.332	24.28
616.525	24.15
616.718	24.11
616.911	24.13
617.103	24.07
617.296	24.08
617.489	24.04
617.682	24.08
617.875	24.1
618.067	24
618.26	23.84
618.453	23.86
618.646	23.83
618.838	23.77
619.031	23.91
619.224	23.88
619.417	23.89
619.609	23.83
619.802	23.72
619.994	23.54
620.187	23.51
620.38	23.45
620.572	23.35
620.765	23.4
620.957	23.34
621.15	23.31
621.342	23.27
621.535	23.3
621.727	23.24
621.92	23.22
622.112	23.16
622.305	23.21
622.497	23.16
622.69	23.12
622.882	23.11
623.074	23.19
623.267	23.06
623.459	23.02
623.651	23.02
623.844	23.07
624.036	23.1
624.228	23.04
624.42	22.97
624.613	23.03
624.805	22.98
624.997	22.88
625.189	22.91
625.381	22.97
625.574	22.81
625.766	22.79
625.958	22.81
626.15	22.81
626.342	22.82
626.534	22.82
626.726	22.74
626.918	22.68
627.11	22.59
627.302	22.48
627.494	22.49
627.686	22.47
627.878	22.39
628.07	22.44
628.262	22.43
628.454	22.34
628.646	22.32
628.838	22.28
629.029	22.23
629.221	22.33
629.413	22.33
629.605	22.22
629.797	22.29
629.989	22.23
630.18	22.1
630.372	22.09
630.564	22.12
630.755	22.01
630.947	22.02
631.139	21.89
631.33	21.77
631.522	21.86
631.714	21.9
631.905	21.89
632.097	21.97
632.289	21.98
632.48	21.94
632.672	21.87
632.863	21.73
633.055	21.66
633.246	21.7
633.438	21.52
633.629	21.52
633.821	21.59
634.012	21.57
634.203	21.47
634.395	21.56
634.586	21.55
634.777	21.54
634.969	21.5
635.16	21.57
635.351	21.49
635.543	21.42
635.734	21.36
635.925	21.42
636.117	21.37
636.308	21.36
636.499	21.29
636.69	21.15
636.881	21.1
637.073	21.15
637.264	21.17
637.455	21.25
637.646	21.48
637.837	21.47
638.028	21.38
638.219	21.42
638.41	21.26
638.601	21.14
638.792	21.18
638.983	21.19
639.174	21.08
639.365	21.19
639.556	21.15
639.747	21.04
639.938	21.03
640.129	20.97
640.32	20.89
640.511	20.93
640.701	20.96
640.892	20.88
641.083	20.94
641.274	20.98
641.465	20.89
641.655	20.77
641.846	20.75
642.037	20.69
642.228	20.67
642.418	20.69
642.609	20.7
642.8	20.69
642.99	20.65
643.181	20.56
643.372	20.56
643.562	20.57
643.753	20.49
643.943	20.47
644.134	20.41
644.324	20.35
644.515	20.29
644.705	20.42
644.896	20.48
645.086	20.55
645.277	20.46
645.467	20.43
645.658	20.39
645.848	20.26
646.038	20.13
646.229	20.06
646.419	19.98
646.61	19.96
646.8	19.84
646.99	19.79
647.18	19.83
647.371	19.83
647.561	19.73
647.751	19.83
647.941	19.81
648.132	19.76
648.322	19.79
648.512	19.85
648.702	19.85
648.892	19.91
649.082	19.9
649.272	19.75
649.462	19.52
649.653	19.4
649.843	19.33
650.033	19.38
650.223	19.38
650.413	19.37
650.603	19.38
650.793	19.36
650.983	19.22
651.172	19.14
651.362	19.15
651.552	19.12
651.742	19
651.932	18.93
652.122	18.97
652.312	18.96
652.502	18.91
652.691	18.87
652.881	18.85
653.071	18.73
653.261	18.56
653.45	18.44
653.64	18.43
653.83	18.26
654.019	18.18
654.209	18.16
654.399	18.06
654.588	17.9
654.778	17.89
654.968	17.63
655.157	17.47
655.347	17.43
655.536	17.32
655.726	17.11
655.915	17.08
656.105	17.01
656.294	16.78
656.484	16.62
656.673	16.54
656.863	16.54
657.052	16.32
657.241	16.1
657.431	15.85
657.62	15.67
657.809	15.3
657.999	15.14
658.188	15.01
658.377	14.87
658.567	14.73
658.756	14.6
658.945	14.42
659.134	14.31
659.324	14.25
659.513	14.08
659.702	13.95
659.891	13.82
660.08	13.66
660.269	13.54
660.458	13.41
660.648	13.21
660.837	13.1
661.026	13.07
661.215	12.91
661.404	12.69
661.593	12.63
661.782	12.4
661.971	12.21
662.16	12.04
662.349	12.03
662.538	11.88
662.726	11.86
662.915	11.7
663.104	11.62
663.293	11.55
663.482	11.48
663.671	11.36
663.86	11.24
664.048	11.05
664.237	10.88
664.426	10.66
664.615	10.62
664.803	10.55
664.992	10.47
665.181	10.32
665.369	10.34
665.558	10.2
665.747	10.08
665.935	10.09
666.124	10.1
666.312	10.01
666.501	9.9
666.69	9.76
666.878	9.67
667.067	9.51
667.255	9.58
667.444	9.74
667.632	9.86
667.82	9.85
668.009	9.9
668.197	9.83
668.386	9.59
668.574	9.7
668.762	9.55
668.951	9.51
669.139	9.43
669.327	9.48
669.516	9.36
669.704	9.4
669.892	9.49
670.08	9.51
670.269	9.43
670.457	9.35
670.645	9.28
670.833	9.31
671.021	9.31
671.21	9.35
671.398	9.48
671.586	9.58
671.774	9.51
671.962	9.53
672.15	9.58
672.338	9.4
672.526	9.44
672.714	9.36
672.902	9.39
673.09	9.52
673.278	9.8
673.466	9.83
673.654	10.05
673.842	10.17
674.03	10.13
674.218	10.04
674.405	10.14
674.593	10.14
674.781	10.24
674.969	10.29
675.157	10.41
675.344	10.45
675.532	10.48
675.72	10.44
675.908	10.46
676.095	10.49
676.283	10.5
676.471	10.62
676.658	10.7
676.846	10.77
677.033	10.86
677.221	11.01
677.409	10.98
677.596	11
677.784	11.07
677.971	11.16
678.159	11.18
678.346	11.3
678.534	11.37
678.721	11.58
678.909	11.54
679.096	11.62
679.283	11.81
679.471	12
679.658	12.1
679.846	12.35
680.033	12.5
680.22	12.52
680.408	12.39
680.595	12.5
680.782	12.5
680.969	12.68
681.157	12.82
681.344	13.08
681.531	13.05
681.718	13.11
681.905	13.24
682.093	13.47
682.28	13.64
682.467	13.95
682.654	14.23
682.841	14.27
683.028	14.4
683.215	14.57
683.402	14.53
683.589	14.65
683.776	14.86
683.963	14.87
684.15	15.2
684.337	15.59
684.524	15.85
684.711	16.3
684.898	16.51
685.085	16.72
685.271	17.1
685.458	17.26
685.645	17.3
685.832	17.69
686.019	17.94
686.205	17.96
686.392	18.35
686.579	18.73
686.766	19.16
686.952	19.44
687.139	20.05
687.326	20.34
687.512	20.69
687.699	21.04
687.886	21.43
688.072	21.65
688.259	22.14
688.445	22.57
688.632	22.79
688.818	23.43
689.005	23.93
689.191	24.33
689.378	24.88
689.564	25.59
689.751	25.95
689.937	26.3
690.124	26.83
690.31	27.07
690.496	27.32
690.683	27.89
690.869	28.48
691.055	28.96
691.242	29.82
691.428	30.44
691.614	31.01
691.8	31.66
691.987	32.35
692.173	32.94
692.359	33.73
692.545	34.44
692.731	35.01
692.918	35.48
693.104	35.89
693.29	36.12
693.476	36.65
693.662	37.49
693.848	38.01
694.034	38.51
694.22	39.28
694.406	39.67
694.592	39.84
694.778	40.74
694.964	41.46
695.15	42.26
695.336	42.93
695.522	43.9
695.708	44.26
695.894	44.9
696.08	45.45
696.265	45.9
696.451	46.36
696.637	47.01
696.823	47.56
697.009	47.8
697.194	48.48
697.38	48.79
697.566	49.14
697.751	49.77
697.937	50.64
698.123	51.26
698.308	51.81
698.494	52.54
698.68	52.93
698.865	53.35
699.051	53.67
699.236	54.19
699.422	54.61
699.607	55
699.793	55.31
699.978	55.72
700.164	56.11
700.349	56.86
700.535	57.42
700.72	57.84
700.906	58.55
701.091	59.21
701.276	59.34
701.462	60.08
701.647	60.74
701.832	61.26
702.018	61.52
702.203	61.89
702.388	61.64
702.573	61.91
702.759	62.37
702.944	62.66
703.129	62.86
703.314	63.57
703.499	63.91
703.684	63.94
703.87	64.93
704.055	65.66
704.24	65.63
704.425	66.07
704.61	66.6
704.795	66.49
704.98	66.59
705.165	67.21
705.35	67.3
705.535	67.59
705.72	67.69
705.905	68.34
706.09	68.56
706.275	68.89
706.459	68.63
706.644	68.72
706.829	68.79
707.014	68.67
707.199	69.12
707.384	69.71
707.568	70.02
707.753	70.3
707.938	70.91
708.123	70.79
708.307	70.79
708.492	71.18
708.677	71.35
708.861	71.33
709.046	71.73
709.231	72.4
709.415	72.84
709.6	72.89
709.784	73.02
709.969	72.87
710.153	72.66
710.338	72.63
710.522	72.77
710.707	73.38
710.891	73.65
711.076	73.83
711.26	73.69
711.445	73.98
711.629	74.03
711.813	74.74
711.998	74.89
712.182	75.23
712.366	75.58
712.551	76.08
712.735	76.1
712.919	76.2
713.103	76.05
713.288	75.79
713.472	75.26
713.656	75.12
713.84	75.23
714.024	75.8
714.208	75.69
714.393	76.22
714.577	76.44
714.761	76.61
714.945	76.68
715.129	77.19
715.313	77.28
715.497	77.44
715.681	77.91
715.865	77.81
716.049	77.63
716.233	77.31
716.417	77.33
716.601	77.48
716.785	77.71
716.968	78.17
717.152	78.82
717.336	78.81
717.52	78.44
717.704	78.46
717.888	78.79
718.071	78.71
718.255	78.9
718.439	78.53
718.622	78.53
718.806	78.63
718.99	78.17
719.174	78.1
719.357	78.67
719.541	79.12
719.724	78.59
719.908	79.17
720.092	79.57
720.275	79.72
720.459	79.36
720.642	79.7
720.826	79.6
721.009	79.33
721.193	79.11
721.376	80.06
721.559	79.77
721.743	79.95
721.926	80.15
722.11	80.72
722.293	79.72
722.476	80.06
722.66	80.35
722.843	80.54
723.026	79.51
723.21	80.08
723.393	80.44
723.576	80.07
723.759	79.61
723.942	80.64
724.126	80.57
724.309	80.79
724.492	80.78
724.675	81.07
724.858	80.97
725.041	81.29
725.224	81.26
725.407	81.73
725.59	82.68
725.774	82.39
725.957	81.98
726.14	81.26
726.322	80.77
726.505	80.12
726.688	81.07
726.871	81.04
727.054	81.53
727.237	81.68
727.42	81.63
727.603	81.24
727.786	81.85
727.968	81.99
728.151	82.42
728.334	82.13
728.517	82.44
728.699	82.38
728.882	82.38
729.065	82.88
729.248	83.66
729.43	83.63
729.613	83.84
729.796	84.49
729.978	83.85
730.161	83.34
730.343	82.94
730.526	83.63
730.708	83
730.891	83.09
731.073	83.5
731.256	83.11
731.438	82.5
731.621	82.73
731.803	82.76
731.986	82.61
732.168	82.98
732.35	83.18
732.533	83.28
732.715	83.41
732.898	83.99
733.08	84.37
733.262	84.14
733.444	83.71
733.627	84.02
733.809	83.9
733.991	83.76
734.173	83.57
734.355	83.92
734.538	84.02
734.72	84.06
734.902	84.73
735.084	84.94
735.266	84.9
735.448	85.43
735.63	85.4
735.812	84.91
735.994	85.11
736.176	84.7
736.358	84.02
736.54	84.44
736.722	84.41
736.904	84.29
737.086	84.46
737.268	85.05
737.45	84.99
737.632	84.93
737.814	84.77
737.995	85.75
738.177	85.33
738.359	84.49
738.541	84.84
738.723	85.36
738.904	85.6
739.086	86.62
739.268	87.31
739.449	87.49
739.631	87.12
739.813	86.87
739.994	85.97
740.176	86.39
740.358	86.42
740.539	87.06
740.721	87.33
740.902	88.58
741.084	88.34
741.265	87.56
741.447	87.84
741.628	87.39
741.81	85.73
741.991	86.03
742.172	87
742.354	86.74
742.535	86.24
742.717	87.08
742.898	87.04
743.079	87.44
743.261	87.3
743.442	87.46
743.623	88.07
743.804	87.86
743.986	87.4
744.167	86.82
744.348	86.27
744.529	85.69
744.71	84.98
744.891	84.97
745.073	84.79
745.254	85
745.435	84.39
745.616	83.74
745.797	83.48
745.978	83.9
746.159	84.13
746.34	83.46
746.521	85.31
746.702	84.58
746.883	84.9
747.064	85.26
747.245	85.81
747.426	86.09
747.606	86.49
747.787	86.13
747.968	86.04
748.149	86.48
748.33	86.19
748.51	86.18
748.691	86.28
748.872	86.85
749.053	86.21
749.233	85.49
749.414	84.85
749.595	84.34
749.775	83.51
749.956	84.02
750.137	84
750.317	85.81
750.498	86.79
750.678	87.15
750.859	87.36
751.04	87.48
751.22	85.42
751.4	84.65
751.581	83.97
751.761	83.99
751.942	83.87
752.122	85.2
752.303	85.31
752.483	85.03
752.663	84.22
752.844	83.26
753.024	83.57
753.204	84.15
753.385	83.35
753.565	84.31
753.745	84.51
753.925	84.55
754.106	82.99
754.286	83.96
754.466	83.45
754.646	83.44
754.826	82.54
755.006	82.5
755.187	83.35
755.367	84.41
755.547	84.38
755.727	86.26
755.907	86.59
756.087	87.31
756.267	85.15
756.447	85.8
756.627	82.68
756.807	83.88
756.987	82.64
757.167	83.89
757.346	84.21
757.526	84.61
757.706	83.75
757.886	84.42
758.066	84.78
758.246	84.55
758.425	84.39
758.605	84.59
758.785	84.63
758.965	84.37
759.144	82.87
759.324	84.11
759.504	85.16
759.683	84.95
759.863	83.26
760.043	83.01
760.222	82.91
760.402	81.93
760.581	80.91
760.761	82.71
760.94	82.96
761.12	83.81
761.299	84.28
761.479	85.02
761.658	83.48
761.838	84.18
762.017	83.35
762.197	82.93
762.376	83.37
762.555	83.97
762.735	85.03
762.914	84.38
763.093	84.15
763.273	82.9
763.452	83.09
763.631	82.68
763.81	81.59
763.99	81.27
764.169	82.03
764.348	80.71
764.527	79.11
764.706	82.64
764.885	83.01
765.064	80.17
765.243	81.75
765.423	84.25
765.602	81.71
765.781	79.1
765.96	80.16
766.139	79.46
766.318	77.7
766.497	77.41
766.676	80.64
766.854	82.45
767.033	82.99
767.212	82.18
767.391	82.93
767.57	82.03
767.749	80.35
767.928	81.2
768.106	81.8
768.285	80.62
768.464	81.64
768.643	81.56
768.821	80.22
769	80.34
769.179	80.63
769.357	77.56
769.536	77.91
769.715	78.75
769.893	81.1
770.072	81.5
770.25	83.31
770.429	84.35
770.607	83.89
770.786	81.65
770.964	83.6
771.143	83.62
771.321	84.19
771.5	83.75
771.678	82.4
771.857	78.56
772.035	78.42
772.213	76.84
772.392	75.3
772.57	78.15
772.748	79.62
772.927	79.36
773.105	78.62
773.283	79.94
773.461	80.04
773.64	80.39
773.818	80.82
773.996	82.2
774.174	81.15
774.352	79.29
774.531	76.09
774.709	78.33
774.887	76.98
775.065	77.48
775.243	77.55
775.421	79.87
775.599	78.27
775.777	77.31
775.955	74.99
776.133	73.41
776.311	75.27
776.489	72.63
776.667	74.25
776.844	77.32
777.022	77.37
777.2	75.43
777.378	77.03
777.556	77.58
777.734	78.93
777.911	81.1
778.089	80.76
778.267	80.09
778.445	78.86
778.622	77.92
778.8	76.28
778.978	77.88
779.155	76.37
779.333	76.11
779.511	75.14
779.688	77.38
779.866	73.78
780.043	73.75
780.221	74.68
780.398	72.78
780.576	71.91
780.753	77.02
780.931	77.47
781.108	76.51
781.286	78.23
781.463	76.59
781.64	70.74
781.818	72.04
781.995	72.15
782.172	69.36
782.35	71.54
782.527	75.21
782.704	75.42
782.882	76.53
783.059	76.95
783.236	76.78
783.413	77.03
783.59	76.5
783.768	73.99
783.945	76.94
784.122	77.3
784.299	77.55
784.476	75.94
784.653	77.35
784.83	74.52
785.007	70.56
785.184	68.95
785.361	67.39
785.538	70.31
785.715	71.35
785.892	73.68
786.069	75.89
786.246	79.84
786.423	79.19
786.6	80.74
786.776	82.53
786.953	78.02
787.13	78.41
787.307	74.27
787.484	73.12
787.66	70.91
787.837	71.59
788.014	69.81
788.191	71.08
788.367	69.33
788.544	68.89
788.721	70.05
788.897	70.23
789.074	70.74
789.25	71.39
789.427	72.17
789.603	72.43
789.78	73.89
789.956	73.65
790.133	70.54
790.309	71.86
790.486	72.25
790.662	68.35
790.839	67.84
791.015	70.14
791.192	68.41
791.368	70.56
791.544	71.7
791.721	73.72
791.897	73.58
792.073	72.2
792.249	67.66
792.426	68.22
792.602	65.92
792.778	69.29
792.954	67.71
793.13	66.77
793.307	60.85
793.483	58.44
793.659	55.2
793.835	57.93
794.011	60.56
794.187	66.62
794.363	66.36
794.539	72.14
794.715	68.34
794.891	66.12
795.067	64.92
795.243	67.54
795.419	60.78
795.595	59.4
795.771	59.18
795.947	54.21
796.122	51.36
796.298	56.99
796.474	60.01
796.65	56.37
796.826	62.45
797.001	65.35
797.177	61.37
797.353	65.79
797.529	69.16
797.704	67.66
797.88	65.38
798.056	62.37
798.231	57.64
798.407	59.73
798.582	61.13
798.758	69.32
798.934	76.4
799.109	76.18
799.285	73.22
799.46	74.02
799.636	68.93
799.811	65.17
799.986	63.45
800.162	68.69
800.337	69.49
800.513	64.01
800.688	64.85
800.863	74.29
801.039	68.61
801.214	62.5
801.389	70.08
801.565	72.4
801.74	60.31
801.915	67.19
802.09	67.52
802.265	66.39
802.441	61.08
802.616	64.93
802.791	63.34
802.966	68.2
803.141	69.68
803.316	76.07
803.491	81.78
803.666	84.27
803.841	84.97
804.016	78.63
804.191	70.63
804.366	65.93
804.541	63.43
804.716	62.24
804.891	61
805.066	62.99
805.241	61.62
805.416	57.6
805.591	56.27
805.765	62.84
805.94	70.03
806.115	67.4
806.29	67.9
806.464	70.3
806.639	64.7
806.814	55.06
806.989	50.55
807.163	54.07
807.338	51.83
807.512	50.43
807.687	43.51
807.862	58.12
808.036	58.13
808.211	60.59
808.385	66.32
808.56	82.22
808.734	84.39
808.909	86.34
809.083	82.85
809.258	86.13
809.432	74.91
809.606	61.28
809.781	54.19
809.955	59.03
810.13	54.47
810.304	59.29
810.478	57.19
810.652	61.79
810.827	61.12
811.001	60.09
811.175	63.65
811.349	64.09
811.524	64.33
811.698	55.91
811.872	57.56
812.046	61.4
812.22	69.27
812.394	70.33
812.568	74.72
812.742	79.43
812.916	75.18
813.09	75.98
813.264	72.91
813.438	86.58
813.612	77.05
813.786	68.86
813.96	68.83
814.134	69.28
814.308	65.25
814.482	67.48
814.656	66.45
814.83	66.66
815.003	67.74
815.177	59.49
815.351	52.79
815.525	51.6
815.698	49.25
815.872	41.07
816.046	33.9
816.219	46.78
816.393	59.04
816.567	62.47
816.74	72.65
816.914	79.24
817.088	74.23
817.261	64.24
817.435	56.76
817.608	55.27
817.782	41.79
817.955	47.65
818.129	51.58
818.302	55.27
818.475	57.31
818.649	62.56
818.822	55.34
818.996	59.48
819.169	67.36
819.342	51.46
819.516	64.89
819.689	70.71
819.862	66.05
820.035	58.11
820.209	63.72
820.382	58.48
820.555	59.42
820.728	47.11
820.901	39.46
821.075	47.2
821.248	48.71
821.421	39.31
821.594	46.19
821.767	72.4
821.94	69.57
822.113	52.04
822.286	48.55
822.459	56.73
822.632	47.38
822.805	37.32
822.978	34.25
823.151	32.43
823.324	27.74
823.496	6.44
823.669	13.71
823.842	20.08
824.015	18.88
824.188	10.8
824.361	11.98
824.533	17.35
824.706	30.34
824.879	32.12
825.051	45.74
825.224	48.46
825.397	46.49
825.569	32.62
825.742	45.42
825.915	55.13
826.087	68.97
826.26	55.25
826.432	59.27
826.605	56.16
826.777	49.97
826.95	44.79
827.122	38.08
827.295	49.4
827.467	55.02
827.64	36.47
827.812	47.4
827.984	53.68
828.157	43.51
828.329	1.72
828.501	22.35
828.674	40.21
828.846	31.99
829.018	48.25
829.19	60.08
829.363	73.07
829.535	63.12
829.707	63.94
829.879	36.96
830.051	34.74
830.223	10.67
830.395	11.69
830.568	2.5
830.74	-5.51
830.912	12.96
831.084	-7.78
831.256	-18.12
831.428	-1.31
831.6	4.32
831.772	-21.96
831.943	-3.3
832.115	19.56
832.287	30.07
832.459	37.68
832.631	57.59
832.803	64.13
832.975	62.43
833.146	35.51
833.318	33.97
833.49	28.64
833.662	25.71
833.833	22.68
834.005	19.05
834.177	11.75
834.348	6.42
834.52	-15.14
834.692	-8.91
834.863	-2.7
835.035	33.12
835.206	2.67
835.378	15.87
835.549	-17.47
835.721	-6.31
835.892	-27.48
836.064	-14.45
836.235	-0.21
836.407	39.67
836.578	-11.62
836.749	21.91
836.921	2.16
837.092	-46.05
837.264	-51.36
837.435	-24.84
837.606	-2.66
837.777	22.8
837.949	34.4
838.12	40
838.291	47.45
838.462	38.36
838.633	17.04
838.805	28.93
838.976	43.85
839.147	20.06
839.318	10.03
839.489	-4.77
839.66	3.53
839.831	-4.48
840.002	12.76
840.173	-6.45
840.344	37.38
840.515	6.69
840.686	-70.04
840.857	-83.93
841.028	-46.94
841.199	-19.51
841.369	-7.97
841.54	22.61
841.711	47.44
841.882	57.02
842.053	40.63
842.223	17.96
842.394	19.47
842.565	1.46
842.736	21.76
842.906	16.45
843.077	28.34
843.248	49.93
843.418	59.24
843.589	41.31
843.759	95.3
843.93	88.68
844.101	30.27
844.271	31.56
844.442	28.77
844.612	37.25
844.783	7.28
844.953	-16.83
845.123	-24.23
845.294	-32.1
845.464	-191.57
845.635	-84.38
845.805	-29.02
845.975	-3.3
846.146	-39.54
846.316	-21.95
846.486	10.38
846.656	30.72
846.827	25.24
846.997	22.9
847.167	38
847.337	23.22
847.507	-5.93
847.677	0.3
847.848	54.72
848.018	42
848.188	39.24
848.358	31.44
848.528	18.52
848.698	-17.73
848.868	-69.07
849.038	-120.33
849.208	-26.62
849.378	-7.28
849.548	3.18
849.718	8.06
849.887	23.51
850.057	-0.44
850.227	-30.06
850.397	-85.54
850.567	-215.67
850.737	-451.2
850.906	-1102.19
851.076	-738.09
851.246	-252.75
851.415	-10.78
851.585	-23.01
851.755	-59.97
851.924	-14.28
852.094	-51.76
852.264	-91.54
852.433	-712.26
852.603	-83.11
852.772	-11.18
852.942	34.77
853.111	10.19
853.281	52.72
853.45	60.1
853.62	-4.55
853.789	-47.49
853.959	-5.68
854.128	-5.66
854.297	-35.01
854.467	-35.03
854.636	26.47
854.805	7.75
854.975	-10.55
855.144	-8.15
855.313	201.57
855.482	-142.15
855.652	-46.39
855.821	-46.15
855.99	12.69
856.159	20.96
856.328	33.52
856.497	23.42
856.667	28.64
856.836	21.01
857.005	12.79
857.174	-16.14
857.343	-23.68
857.512	14.43
857.681	23.01
857.85	-35.47
858.019	-3.04
858.188	-7.09
858.356	-36.21
858.525	-84.88
858.694	-77.8
858.863	-168.42
859.032	-103.24
859.201	-108.48
859.369	-60.4
859.538	14.1
859.707	45.27
859.876	29.22
860.044	26.21
860.213	35.94
860.382	45.04
860.55	33.57
860.719	48.91
860.888	58.64
861.056	64.85
861.225	26.7
861.393	48.94
861.562	46.8
861.73	-35.11
861.899	-197.77
862.067	-899.14
862.236	0.06
862.404	-83.79
862.572	-48.55
862.741	-16.54
862.909	-34.51
863.078	-110.4
863.246	-62.25
863.414	-36.5
863.582	28.92
863.751	22.98
863.919	38.51
864.087	73.36
864.255	86.41
864.424	-103.88
864.592	37.59
864.76	40.67
864.928	108.2
865.096	19.19
865.264	77.7
865.432	327.84
865.6	124.62
865.768	-20.53
865.936	-5.31
866.104	30.79
866.272	-55.23
866.44	-138.09
866.608	149.86
866.776	120.1
866.944	1694.77
867.112	-302.44
867.28	-137.17
867.448	-80.88
867.615	-37.91
867.783	-25.64
867.951	-26.15
868.119	-32.5
868.286	-51.43
868.454	-122.46
868.622	-82.28
868.789	35.06
868.957	1223.21
869.125	-394.08
869.292	3.01
869.46	-122.73
869.627	-51.12
869.795	-42.29
869.963	-0.53
870.13	-9.91
870.298	18.54
870.465	-16.17
870.632	-23.3
870.8	-21.66
870.967	-41.23
871.135	-34.05
871.302	-32.49
871.469	-38.44
871.637	-20.2
871.804	-7.27
871.971	-84.14
872.139	-380.81
872.306	-45.35
872.473	-56.9
872.64	-258.69
872.807	-72
872.975	49.43
873.142	-136.27
873.309	1807.43
873.476	9.56
873.643	23.76
873.81	-19.77
873.977	40.45
874.144	15.43
874.311	-146.06
874.478	-136.74
874.645	-143.73
874.812	-147.45
874.979	-49.6
875.146	-32.42
875.313	-55.14
875.48	13.91
875.647	-2.35
875.813	-42.98
875.98	-17.21
876.147	-31.19
876.314	-83.57
876.481	503.1
876.647	-350.28
876.814	231.48
876.981	80.87
877.147	20.7
877.314	9.82
877.481	44.67
877.647	43.56
877.814	1.05
877.98	-21.69
878.147	8.41
878.314	17.98
878.48	-23.04
878.647	17.61
878.813	55.43
878.979	35.67
879.146	15.91
879.312	1.84
879.479	-61.25
879.645	-218.24
879.811	-348.19
879.978	-977.67
880.144	-175.21
880.31	-42.55
880.477	-82.9
880.643	-71.74
880.809	19.71
880.975	25.53
881.142	-384.32
881.308	-50.93
881.474	-11.57
881.64	-77.43
881.806	-189.97
881.972	-47.18
882.138	-49.46
882.304	-148.63
882.47	-137.6
882.636	-410.45
882.802	-161.39
882.968	-45.15
883.134	3.97
883.3	-11.43
883.466	10.14
883.632	34.43
883.798	19.6
883.964	-7.03
884.129	26.76
884.295	55.92
884.461	4.92
884.627	16.95
884.793	11.56
884.958	9.8
885.124	-37.2
885.29	-70.65
885.455	-132.4
885.621	3.56
885.787	-32.33
885.952	-60.4
886.118	-91.26
886.283	-77.95
886.449	-144.36
886.614	-180.49
886.78	-282.6
886.945	1238.93
887.111	-445.52
887.276	-366.34
887.442	-605.23
887.607	-240.45
887.773	-94.51
887.938	-182.44
888.103	-246.98
888.269	-83.06
888.434	-181.49
888.599	-71.74
888.764	16.46
888.93	26.89
889.095	-22.85
889.26	-60.59
889.425	-19.76
889.59	-3.24
889.756	-26.74
889.921	-2.76
890.086	41.17
890.251	3.84
890.416	-123.51
890.581	-759.27
890.746	135.98
890.911	292.2
891.076	123.45
891.241	-277.43
891.406	11.73
891.571	12.86
891.736	-81.08
891.901	-68.81
892.065	-105.77
892.23	101.3
892.395	164.92
892.56	153.4
892.725	-25.59
892.889	322.56
893.054	65.38
893.219	50.93
893.384	7.36
893.548	-61.34
893.713	-105.95
893.878	-77.92
