Data from Ofra_1a_PS_OGT5_Reflection_1.txt Node
Date: Tue Jul 20 10:43:51 EDT 2021
User: Adam
Spectrometer: FLMT01687
Trigger mode: 0
Integration Time (sec): 1.004000E0
Scans to average: 2
Electric dark correction enabled: true
Nonlinearity correction enabled: false
Boxcar width: 2
XAxis mode: Wavelengths
Number of Pixels in Spectrum: 3648
>>>>>Begin Spectral Data<<<<<
179.494	222.34
179.716	251.91
179.937	-339.13
180.158	225.48
180.38	77.58
180.601	42.72
180.823	-7
181.044	-102.83
181.265	-287.83
181.486	285.51
181.708	134.74
181.929	818.18
182.15	-212.41
182.372	611.82
182.593	452.92
182.814	-231.24
183.035	-30.43
183.257	40.88
183.478	13.62
183.699	-22.49
183.92	-49.13
184.141	-54.22
184.363	-40.74
184.584	-68.82
184.805	-18.73
185.026	34.82
185.247	29.26
185.468	8.51
185.689	25.42
185.91	10.61
186.132	-6.62
186.353	0.81
186.574	7.38
186.795	31.27
187.016	67.42
187.237	68.2
187.458	74.63
187.679	72.29
187.9	53.1
188.121	44.38
188.342	51.7
188.563	73.85
188.784	68.47
189.005	57.58
189.226	40.42
189.447	44.75
189.667	17.96
189.888	18.47
190.109	-0.91
190.33	12.59
190.551	-6.34
190.772	20.59
190.993	12.84
191.214	21.52
191.434	7.39
191.655	-20.05
191.876	-4.06
192.097	22.36
192.318	25.78
192.538	5
192.759	9.42
192.98	11.01
193.201	14.42
193.421	16.12
193.642	28.51
193.863	38.38
194.083	55.88
194.304	47.96
194.525	35.31
194.745	35.38
194.966	32.94
195.187	16.11
195.407	15.58
195.628	34.97
195.848	30.89
196.069	24.08
196.29	34.35
196.51	25.12
196.731	13.78
196.951	-6.75
197.172	-8.25
197.392	-11.98
197.613	1.72
197.833	-5.33
198.054	11.15
198.274	19.5
198.495	23.2
198.715	4.41
198.936	25.69
199.156	18.26
199.377	14.53
199.597	17.99
199.817	39.56
200.038	13.85
200.258	27.68
200.479	63.84
200.699	44.95
200.919	32.86
201.14	36.66
201.36	44.27
201.58	16.1
201.801	34.63
202.021	33.81
202.241	26.03
202.461	26.15
202.682	42.09
202.902	41.4
203.122	57.36
203.342	57.48
203.563	50.5
203.783	37.77
204.003	19.93
204.223	31.47
204.443	43.89
204.663	32.36
204.884	29.06
205.104	20.42
205.324	-21.69
205.544	-66.07
205.764	-24.46
205.984	-39.45
206.204	-19.91
206.424	-44.11
206.644	-35.24
206.864	-80.79
207.084	-31.07
207.304	-49.72
207.525	-16.7
207.745	7.45
207.964	19.69
208.184	40.66
208.404	30.48
208.624	23.81
208.844	4.46
209.064	-0.53
209.284	-11.08
209.504	-18.66
209.724	-18.71
209.944	-26.21
210.164	-19.36
210.384	-31.24
210.604	-66.19
210.823	-74.98
211.043	-33.05
211.263	-65.05
211.483	-46.4
211.703	-19.82
211.922	1.17
212.142	23.8
212.362	23.4
212.582	26.74
212.801	37.15
213.021	10.64
213.241	-22.84
213.461	-6.89
213.68	3.71
213.9	6.68
214.12	1.01
214.339	0.68
214.559	-6.49
214.779	0.12
214.998	-17.12
215.218	10.55
215.438	18.42
215.657	12.39
215.877	-3.39
216.096	19.58
216.316	14.68
216.535	16.79
216.755	25.4
216.974	21.75
217.194	1.78
217.413	-1.63
217.633	-21.63
217.852	-25.97
218.072	-17.25
218.291	-20.73
218.511	-24.52
218.73	-15.92
218.95	-29.28
219.169	-26.11
219.389	-0.62
219.608	11.91
219.827	14.33
220.047	22.54
220.266	6.78
220.485	-10.27
220.705	-11.86
220.924	-2.61
221.143	11.25
221.363	30.3
221.582	30.02
221.801	21.94
222.021	20.47
222.24	19.44
222.459	29.68
222.678	31.81
222.897	26.8
223.117	29.06
223.336	34.08
223.555	32.04
223.774	35.31
223.993	70.78
224.213	70.01
224.432	64.73
224.651	62.36
224.87	57.28
225.089	45.51
225.308	53.15
225.527	48
225.746	36.66
225.965	28.11
226.184	16.14
226.404	4.6
226.623	13
226.842	15.67
227.061	9.59
227.28	19.64
227.499	26.1
227.718	23.3
227.936	29.32
228.155	40.15
228.374	30.88
228.593	33.57
228.812	28.3
229.031	24.25
229.25	14.83
229.469	20.31
229.688	18.9
229.907	11.15
230.125	23.12
230.344	32.56
230.563	35.34
230.782	32.32
231.001	44.51
231.22	38.18
231.438	38.48
231.657	32.69
231.876	28.07
232.095	31.78
232.313	12.06
232.532	14.63
232.751	8.56
232.969	10.62
233.188	-5.52
233.407	4.61
233.625	-1.84
233.844	-4.12
234.063	6.47
234.281	23.01
234.5	16.07
234.719	11.7
234.937	11.28
235.156	3.36
235.374	-12.59
235.593	4.57
235.811	33.16
236.03	35.71
236.249	25.94
236.467	31.58
236.686	33.47
236.904	9.95
237.123	-1.36
237.341	8.4
237.559	-10.84
237.778	15.28
237.996	-10.06
238.215	-6.22
238.433	-36.07
238.652	25.34
238.87	-1.86
239.088	17.26
239.307	14.04
239.525	13.43
239.743	-2.37
239.962	-15.9
240.18	9.55
240.398	17.12
240.617	15.34
240.835	28.87
241.053	25.61
241.271	7.71
241.49	12.24
241.708	-0.59
241.926	-9.23
242.144	-10.48
242.363	-2.6
242.581	-40.87
242.799	-45.69
243.017	-46.48
243.235	-17.74
243.453	-23.01
243.672	9.91
243.89	31.26
244.108	61.89
244.326	60.58
244.544	62.39
244.762	46.39
244.98	46.73
245.198	34.83
245.416	30.17
245.634	25.08
245.852	11.16
246.07	22
246.288	21.79
246.506	19.29
246.724	1.02
246.942	19.7
247.16	26.75
247.378	-7.09
247.596	3.27
247.814	2.31
248.032	-4.56
248.25	-2.43
248.468	32.95
248.685	25.59
248.903	31.87
249.121	33.1
249.339	26.07
249.557	24.91
249.775	31.14
249.992	27.32
250.21	24.05
250.428	34.74
250.646	29.85
250.863	14.16
251.081	18.79
251.299	31.88
251.517	26.29
251.734	33.94
251.952	34.39
252.17	31.84
252.387	-12.42
252.605	-22.8
252.823	-46.21
253.04	-5.21
253.258	-13.51
253.475	30.28
253.693	47.13
253.911	40.15
254.128	19.19
254.346	44.39
254.563	45.93
254.781	30.59
254.998	31.75
255.216	22.26
255.433	1.7
255.651	6.14
255.868	9.63
256.086	5.18
256.303	23.17
256.521	30.84
256.738	16.63
256.956	24.23
257.173	18.53
257.39	15.71
257.608	6.48
257.825	23.75
258.043	19.46
258.26	33.54
258.477	29.73
258.695	37.28
258.912	18.67
259.129	21.19
259.346	4.22
259.564	-0.43
259.781	-22.84
259.998	3.41
260.216	12.68
260.433	1.41
260.65	14.92
260.867	4.07
261.084	3.19
261.302	-18.67
261.519	18.94
261.736	10.57
261.953	36.59
262.17	46.32
262.387	46.32
262.604	35.6
262.822	41.63
263.039	33.53
263.256	12.47
263.473	18.11
263.69	21.92
263.907	-1.69
264.124	10.22
264.341	27.1
264.558	26.36
264.775	25
264.992	30.49
265.209	18.26
265.426	18.87
265.643	15.01
265.86	25.52
266.077	49.65
266.294	44.71
266.51	52.26
266.727	63.32
266.944	59.95
267.161	47.21
267.378	41.54
267.595	25.71
267.812	11.31
268.028	-12.39
268.245	4.71
268.462	21.71
268.679	37.91
268.896	46.99
269.112	40.77
269.329	27.02
269.546	34.94
269.763	11.38
269.979	-4.24
270.196	10.19
270.413	19.55
270.629	4.81
270.846	5.28
271.063	18.19
271.279	19.87
271.496	0.31
271.712	10.02
271.929	20.93
272.146	11.63
272.362	9.14
272.579	12.38
272.795	6.09
273.012	26.7
273.228	39.45
273.445	38.41
273.661	44.09
273.878	39.22
274.094	22.18
274.311	17.62
274.527	2.62
274.744	25.23
274.96	24.66
275.177	28.86
275.393	32.75
275.609	41.47
275.826	18.8
276.042	8.63
276.259	4.76
276.475	-8.78
276.691	-22.17
276.908	3.3
277.124	17.46
277.34	11.87
277.557	11.69
277.773	20.46
277.989	18.13
278.205	12.21
278.422	19.22
278.638	32.03
278.854	23.34
279.07	29.49
279.286	20.65
279.503	23.66
279.719	16.55
279.935	22.27
280.151	-11.97
280.367	2.19
280.583	-13.39
280.799	-6.89
281.016	-39.25
281.232	-5.84
281.448	-16.87
281.664	-6.55
281.88	-0.08
282.096	23.52
282.312	18.17
282.528	13.46
282.744	20.05
282.96	2.61
283.176	-18.89
283.392	-22.35
283.608	-6.36
283.824	-36.19
284.04	-47.12
284.256	-16.12
284.471	-6
284.687	1.22
284.903	8.97
285.119	26.68
285.335	21.93
285.551	19.33
285.767	13.69
285.982	28.55
286.198	-10.84
286.414	-5.74
286.63	27.42
286.846	24.23
287.061	11.67
287.277	31.78
287.493	13.45
287.709	3.39
287.924	20.22
288.14	28.35
288.356	37.73
288.571	48.15
288.787	50.32
289.003	42.39
289.218	15.11
289.434	-3.58
289.65	11.76
289.865	13.13
290.081	14.74
290.296	32
290.512	29.24
290.727	13.36
290.943	10.63
291.159	7.74
291.374	-20.04
291.59	-10.13
291.805	-16.03
292.021	-10.89
292.236	-0.46
292.451	22.54
292.667	23.15
292.882	46.06
293.098	47.82
293.313	31.35
293.529	32
293.744	28.09
293.959	23.68
294.175	23.74
294.39	10.91
294.605	13.96
294.821	8.27
295.036	10.96
295.251	10.08
295.467	7.2
295.682	8.07
295.897	17.29
296.112	3.96
296.328	14.82
296.543	21.88
296.758	16.3
296.973	3.57
297.188	11.57
297.404	-14.38
297.619	-16.23
297.834	-23.59
298.049	13.06
298.264	-15.21
298.479	3.53
298.694	24.14
298.909	30.94
299.125	19.54
299.34	35.94
299.555	31.79
299.77	35.62
299.985	37.48
300.2	39.7
300.415	45.61
300.63	34.8
300.845	15.56
301.06	18.96
301.275	24.25
301.49	9.33
301.704	22.42
301.919	31.77
302.134	13.99
302.349	12.06
302.564	7.96
302.779	-16.66
302.994	-0.08
303.209	12.11
303.423	13.84
303.638	20.51
303.853	25.1
304.068	18.97
304.283	13.79
304.497	-1.12
304.712	8.42
304.927	22.29
305.142	17.42
305.356	20.9
305.571	23.89
305.786	17.8
306	21.87
306.215	15.92
306.43	5.74
306.644	1.01
306.859	-22.55
307.074	-14.69
307.288	3.58
307.503	10.93
307.717	17.91
307.932	25.84
308.147	19.69
308.361	25.31
308.576	12.59
308.79	8.18
309.005	14.76
309.219	21.58
309.434	14.16
309.648	28.51
309.863	28.64
310.077	31.66
310.292	22.49
310.506	-4.07
310.72	0.1
310.935	-2.06
311.149	-6.96
311.364	12.68
311.578	33.58
311.792	28.21
312.007	45.04
312.221	36.79
312.435	22.25
312.649	32.9
312.864	35.16
313.078	37.33
313.292	20.74
313.507	16.1
313.721	19.14
313.935	8.07
314.149	-9.49
314.363	20.2
314.578	20.52
314.792	-18.97
315.006	-30.61
315.22	15.24
315.434	26.44
315.648	-1.53
315.862	6.02
316.077	16.66
316.291	-2.55
316.505	-38.18
316.719	-16.98
316.933	-4.19
317.147	-12.43
317.361	-9.21
317.575	-1.67
317.789	13.09
318.003	9.75
318.217	21.37
318.431	14.98
318.645	15.4
318.859	27.48
319.073	30.94
319.287	27.91
319.5	32.07
319.714	30.33
319.928	21.89
320.142	23.37
320.356	34.18
320.57	18.4
320.784	17.41
320.997	-7.07
321.211	-7.59
321.425	-36.57
321.639	-4.37
321.853	7.13
322.066	14.76
322.28	15.03
322.494	19.47
322.707	15.58
322.921	13.48
323.135	25.49
323.349	11.01
323.562	13.05
323.776	14.25
323.989	24.09
324.203	3.48
324.417	8.26
324.63	11.35
324.844	1.52
325.057	-18.08
325.271	10.52
325.485	17.17
325.698	18.65
325.912	30.54
326.125	24.66
326.339	20.62
326.552	26.63
326.766	14.05
326.979	17.77
327.193	25.41
327.406	21.45
327.619	14.41
327.833	16.28
328.046	14.46
328.26	7.52
328.473	14.76
328.686	14.63
328.9	30.33
329.113	25.26
329.326	29.51
329.54	19.42
329.753	25.62
329.966	21.41
330.179	20.51
330.393	22.18
330.606	35.13
330.819	32.31
331.032	24.39
331.246	38.31
331.459	52.17
331.672	51.59
331.885	53.69
332.098	67
332.311	30.45
332.525	27.9
332.738	20.64
332.951	9.67
333.164	4.56
333.377	18.59
333.59	5.31
333.803	13.81
334.016	27.09
334.229	25.78
334.442	19.59
334.655	18.6
334.868	6.16
335.081	8.11
335.294	-1.18
335.507	17.23
335.72	17.07
335.933	16.69
336.146	2.05
336.359	29.2
336.572	20.66
336.785	25.27
336.997	29.65
337.21	23.03
337.423	-25.77
337.636	-28.99
337.849	-25
338.062	-4.32
338.274	18.71
338.487	24.09
338.7	11.26
338.913	17.13
339.125	-8.12
339.338	-28.56
339.551	-28.44
339.763	-18.85
339.976	-8.53
340.189	-4.65
340.402	20.88
340.614	33.12
340.827	36.69
341.039	34.99
341.252	49.19
341.465	31.91
341.677	20.87
341.89	17.98
342.102	10.23
342.315	8.44
342.527	7.36
342.74	-3.7
342.952	-10.56
343.165	-5.38
343.377	-4.73
343.59	3.78
343.802	12.25
344.015	28.87
344.227	24.33
344.44	17.83
344.652	13.5
344.864	21.16
345.077	17.45
345.289	21.75
345.502	37.48
345.714	41.42
345.926	38.72
346.139	27.9
346.351	29.28
346.563	22.48
346.775	12.98
346.988	21.28
347.2	20.17
347.412	20.27
347.624	19.71
347.837	31.94
348.049	24.76
348.261	16.1
348.473	10.87
348.685	2.7
348.897	-16.21
349.11	0.88
349.322	8.32
349.534	2.19
349.746	8.6
349.958	1.3
350.17	-14.41
350.382	-11.32
350.594	-2.63
350.806	12.99
351.018	25.88
351.23	29.9
351.442	40.29
351.654	46.73
351.866	33.48
352.078	41.49
352.29	45.78
352.502	37.86
352.714	17.36
352.926	30.21
353.138	21.19
353.35	17.22
353.561	24.35
353.773	25.79
353.985	30.09
354.197	28.06
354.409	22.74
354.621	14.83
354.832	20.26
355.044	0.74
355.256	-3.21
355.468	-8.13
355.679	6.52
355.891	14.2
356.103	13.68
356.314	18.4
356.526	15.38
356.738	18.89
356.949	13.8
357.161	26.03
357.373	24.53
357.584	28.3
357.796	24.47
358.008	29.08
358.219	25.3
358.431	20.14
358.642	26.81
358.854	24.9
359.065	12.4
359.277	17.2
359.488	20.69
359.7	22.97
359.911	6.48
360.123	21.7
360.334	14.36
360.546	2.71
360.757	-12.21
360.969	0.61
361.18	-14.51
361.391	-1.54
361.603	4.19
361.814	15.59
362.025	18.48
362.237	22.15
362.448	21.23
362.659	11.75
362.871	0.5
363.082	-7.92
363.293	-21.03
363.504	-49.79
363.716	-41.31
363.927	-24.4
364.138	-43.24
364.349	-35.12
364.56	-34.39
364.772	-24.33
364.983	-9.85
365.194	5.91
365.405	-2.45
365.616	11.4
365.827	-1.9
366.038	6.3
366.25	7.19
366.461	9.13
366.672	4.03
366.883	17.38
367.094	10.76
367.305	-3.65
367.516	7.79
367.727	2.46
367.938	-5.68
368.149	-10.03
368.36	2.03
368.571	-11.39
368.781	0.64
368.992	7.78
369.203	8.43
369.414	4.15
369.625	-1.12
369.836	14.11
370.047	21.62
370.258	24.59
370.468	18.16
370.679	39.06
370.89	40.08
371.101	50.27
371.312	41.21
371.522	57.73
371.733	34.33
371.944	15.27
372.155	-7.2
372.365	13.57
372.576	-2.83
372.787	19.44
372.997	18.8
373.208	17.98
373.419	-0.51
373.629	-3.64
373.84	-19.42
374.05	-11.43
374.261	-13.63
374.472	-4.64
374.682	4.77
374.893	-2.76
375.103	-7.97
375.314	-3.82
375.524	-4.62
375.735	-1.18
375.945	1.53
376.156	5.34
376.366	-2.74
376.577	5.36
376.787	10.71
376.997	21.14
377.208	25.87
377.418	23.89
377.629	19.87
377.839	20.39
378.049	19.46
378.26	-0.57
378.47	-2.65
378.68	1.5
378.89	-8.56
379.101	-14.15
379.311	-1.87
379.521	-6.5
379.732	-4.84
379.942	4.38
380.152	1.58
380.362	3.36
380.572	21.5
380.783	26.51
380.993	21.97
381.203	24.1
381.413	31.46
381.623	29.7
381.833	28.61
382.043	31.37
382.253	33.42
382.463	28.61
382.674	23.93
382.884	24.9
383.094	23.76
383.304	23.2
383.514	23.87
383.724	18.78
383.934	8.37
384.144	13.83
384.353	16.56
384.563	14.12
384.773	26
384.983	25.41
385.193	19.48
385.403	16.7
385.613	20.74
385.823	14.56
386.033	15.24
386.242	14.46
386.452	7.35
386.662	4.02
386.872	7
387.082	7.18
387.291	7.68
387.501	8.09
387.711	6.98
387.921	2.67
388.13	4.56
388.34	4.87
388.55	4.51
388.759	3.65
388.969	3.5
389.179	4.15
389.388	1.65
389.598	4.41
389.807	0.86
390.017	0.42
390.227	-4.61
390.436	-2.15
390.646	-6.09
390.855	-2.61
391.065	-1.11
391.274	2.05
391.484	2.38
391.693	2.63
391.903	-0.16
392.112	-2.22
392.322	-4.85
392.531	-7.89
392.74	-6.19
392.95	-2.71
393.159	-1.36
393.369	0.15
393.578	1.56
393.787	2.33
393.997	1.65
394.206	0.73
394.415	0.72
394.625	1.7
394.834	1.16
395.043	1.08
395.252	4.44
395.462	5.66
395.671	5.13
395.88	5.46
396.089	4.89
396.298	3.12
396.508	2.32
396.717	2.13
396.926	2.34
397.135	2.38
397.344	1.95
397.553	2.07
397.762	3.24
397.971	2.23
398.181	2.01
398.39	1.98
398.599	1.78
398.808	1.52
399.017	3.01
399.226	3.98
399.435	4.05
399.644	4.63
399.853	4.7
400.062	3.96
400.27	2.97
400.479	3.04
400.688	3.08
400.897	2.67
401.106	2.62
401.315	3.12
401.524	3.28
401.733	2.78
401.941	2.97
402.15	2.95
402.359	2.88
402.568	2.82
402.777	3.3
402.985	3.07
403.194	3.24
403.403	3.21
403.612	3.01
403.82	2.53
404.029	2.69
404.238	2.66
404.446	2.75
404.655	2.9
404.864	3.03
405.072	3.01
405.281	2.76
405.489	2.51
405.698	2.51
405.906	2.55
406.115	2.4
406.324	2.51
406.532	2.68
406.741	2.53
406.949	2.58
407.158	2.71
407.366	2.63
407.574	2.72
407.783	2.85
407.991	2.77
408.2	2.9
408.408	2.93
408.617	2.83
408.825	2.66
409.033	2.61
409.242	2.45
409.45	2.54
409.658	2.43
409.867	2.45
410.075	2.48
410.283	2.35
410.491	2.14
410.7	2.12
410.908	2.24
411.116	2.34
411.324	2.48
411.533	2.49
411.741	2.5
411.949	2.43
412.157	2.24
412.365	2.23
412.573	2.37
412.781	2.4
412.99	2.4
413.198	2.57
413.406	2.68
413.614	2.71
413.822	2.75
414.03	2.73
414.238	2.76
414.446	2.61
414.654	2.45
414.862	2.36
415.07	2.35
415.278	2.25
415.486	2.07
415.694	2.23
415.902	2.22
416.109	2.18
416.317	2.13
416.525	2.34
416.733	2.23
416.941	2.42
417.149	2.43
417.357	2.49
417.564	2.4
417.772	2.36
417.98	2.29
418.188	2.28
418.395	2.08
418.603	2.09
418.811	2.07
419.019	2.02
419.226	2.14
419.434	2.29
419.642	2.23
419.849	2.25
420.057	2.23
420.265	2.11
420.472	2.14
420.68	2.23
420.887	2.26
421.095	2.33
421.302	2.48
421.51	2.2
421.717	2.08
421.925	2.22
422.132	2.1
422.34	1.8
422.547	1.96
422.755	1.99
422.962	1.98
423.17	1.83
423.377	1.91
423.585	2.01
423.792	2.06
423.999	1.95
424.207	1.97
424.414	1.94
424.621	2.02
424.829	1.92
425.036	1.96
425.243	2.14
425.451	2.29
425.658	2.08
425.865	2.28
426.072	2.22
426.28	2.2
426.487	2.15
426.694	2.22
426.901	2.18
427.108	2.13
427.315	2.02
427.523	1.97
427.73	1.93
427.937	1.68
428.144	1.67
428.351	1.79
428.558	1.8
428.765	1.76
428.972	2
429.179	1.97
429.386	1.88
429.593	1.83
429.8	1.95
430.007	1.9
430.214	1.92
430.421	2.13
430.628	2.16
430.835	2.06
431.042	2.01
431.249	2.12
431.456	1.93
431.662	2.1
431.869	2.24
432.076	2.26
432.283	2.32
432.49	2.28
432.697	2.11
432.903	2.04
433.11	2.15
433.317	2.08
433.524	2.24
433.73	2.24
433.937	2.25
434.144	2.09
434.35	1.96
434.557	1.92
434.764	2.03
434.97	1.92
435.177	2.06
435.384	2.2
435.59	2.17
435.797	2.17
436.003	2.34
436.21	2.33
436.416	2.38
436.623	2.47
436.829	2.37
437.036	2.33
437.242	2.33
437.449	2.28
437.655	2.3
437.862	2.38
438.068	2.32
438.275	2.32
438.481	2.39
438.687	2.31
438.894	2.4
439.1	2.41
439.307	2.48
439.513	2.5
439.719	2.53
439.926	2.47
440.132	2.57
440.338	2.5
440.544	2.46
440.751	2.41
440.957	2.44
441.163	2.27
441.369	2.23
441.575	2.22
441.782	2.3
441.988	2.31
442.194	2.43
442.4	2.42
442.606	2.52
442.812	2.45
443.018	2.36
443.224	2.43
443.431	2.53
443.637	2.46
443.843	2.5
444.049	2.64
444.255	2.59
444.461	2.52
444.667	2.51
444.873	2.54
445.079	2.47
445.284	2.51
445.49	2.51
445.696	2.51
445.902	2.47
446.108	2.46
446.314	2.41
446.52	2.45
446.726	2.46
446.931	2.4
447.137	2.45
447.343	2.51
447.549	2.58
447.755	2.57
447.96	2.76
448.166	2.77
448.372	2.68
448.578	2.6
448.783	2.68
448.989	2.62
449.195	2.62
449.4	2.68
449.606	2.65
449.812	2.58
450.017	2.57
450.223	2.51
450.428	2.56
450.634	2.62
450.84	2.63
451.045	2.61
451.251	2.69
451.456	2.62
451.662	2.71
451.867	2.83
452.073	2.91
452.278	2.91
452.483	2.96
452.689	2.86
452.894	2.84
453.1	2.75
453.305	2.8
453.51	2.78
453.716	2.8
453.921	2.81
454.127	2.81
454.332	2.74
454.537	2.75
454.742	2.74
454.948	2.73
455.153	2.79
455.358	2.81
455.563	2.89
455.769	3.01
455.974	2.94
456.179	2.92
456.384	2.92
456.589	2.79
456.795	2.72
457	2.79
457.205	2.77
457.41	2.78
457.615	2.8
457.82	2.87
458.025	2.83
458.23	2.87
458.435	2.9
458.64	2.93
458.845	2.9
459.05	2.95
459.255	2.89
459.46	2.9
459.665	2.95
459.87	2.9
460.075	2.93
460.28	3.06
460.485	3.17
460.69	3.14
460.895	3.22
461.099	3.09
461.304	2.96
461.509	2.92
461.714	3.05
461.919	3.09
462.123	3.2
462.328	3.26
462.533	3.19
462.738	3.09
462.942	2.99
463.147	2.99
463.352	3.13
463.556	3.18
463.761	3.25
463.966	3.24
464.17	3.38
464.375	3.38
464.58	3.33
464.784	3.35
464.989	3.41
465.193	3.34
465.398	3.3
465.602	3.48
465.807	3.49
466.011	3.53
466.216	3.5
466.42	3.51
466.625	3.48
466.829	3.49
467.034	3.53
467.238	3.65
467.443	3.72
467.647	3.7
467.851	3.75
468.056	3.78
468.26	3.73
468.464	3.65
468.669	3.75
468.873	3.73
469.077	3.73
469.282	3.81
469.486	3.87
469.69	3.8
469.894	3.86
470.099	3.9
470.303	3.85
470.507	3.87
470.711	3.91
470.915	3.96
471.119	4
471.324	4.11
471.528	4.21
471.732	4.22
471.936	4.23
472.14	4.11
472.344	4.19
472.548	4.17
472.752	4.14
472.956	4.17
473.16	4.32
473.364	4.28
473.568	4.2
473.772	4.25
473.976	4.31
474.18	4.35
474.384	4.3
474.588	4.42
474.792	4.38
474.995	4.34
475.199	4.3
475.403	4.39
475.607	4.46
475.811	4.54
476.015	4.5
476.218	4.45
476.422	4.41
476.626	4.38
476.83	4.39
477.033	4.46
477.237	4.52
477.441	4.49
477.644	4.47
477.848	4.51
478.052	4.47
478.255	4.52
478.459	4.61
478.663	4.69
478.866	4.61
479.07	4.58
479.273	4.67
479.477	4.68
479.681	4.64
479.884	4.68
480.088	4.78
480.291	4.68
480.495	4.69
480.698	4.69
480.901	4.78
481.105	4.8
481.308	4.88
481.512	4.86
481.715	4.98
481.919	4.99
482.122	4.93
482.325	4.89
482.529	4.94
482.732	4.83
482.935	4.78
483.138	4.78
483.342	4.78
483.545	4.85
483.748	4.97
483.952	4.99
484.155	5.08
484.358	5.08
484.561	4.98
484.764	4.87
484.967	4.84
485.171	4.83
485.374	4.79
485.577	4.85
485.78	4.9
485.983	4.9
486.186	4.82
486.389	4.9
486.592	4.83
486.795	4.85
486.998	4.81
487.201	4.88
487.404	4.93
487.607	5.01
487.81	4.97
488.013	5.05
488.216	5.03
488.419	4.93
488.622	4.84
488.825	4.86
489.028	4.89
489.231	4.86
489.433	4.84
489.636	4.92
489.839	4.97
490.042	4.96
490.245	4.97
490.447	4.94
490.65	4.91
490.853	4.88
491.056	4.86
491.258	4.95
491.461	4.98
491.664	5
491.866	4.93
492.069	4.95
492.272	4.85
492.474	4.84
492.677	4.86
492.879	4.9
493.082	4.86
493.285	4.94
493.487	4.95
493.69	4.88
493.892	4.89
494.095	4.94
494.297	4.86
494.5	4.84
494.702	4.87
494.905	4.87
495.107	4.84
495.309	4.94
495.512	4.97
495.714	4.96
495.917	5.05
496.119	5.05
496.321	5
496.524	4.97
496.726	4.95
496.928	4.91
497.13	4.93
497.333	4.93
497.535	4.98
497.737	5
497.939	4.98
498.142	4.98
498.344	5.03
498.546	5.04
498.748	5.1
498.95	5.12
499.152	5.08
499.355	5.02
499.557	5.03
499.759	5.06
499.961	5.05
500.163	5.15
500.365	5.21
500.567	5.2
500.769	5.2
500.971	5.21
501.173	5.17
501.375	5.18
501.577	5.18
501.779	5.16
501.981	5.17
502.183	5.16
502.385	5.18
502.587	5.19
502.788	5.2
502.99	5.25
503.192	5.31
503.394	5.28
503.596	5.32
503.798	5.31
503.999	5.24
504.201	5.2
504.403	5.23
504.605	5.22
504.806	5.28
505.008	5.39
505.21	5.44
505.411	5.44
505.613	5.45
505.815	5.44
506.016	5.44
506.218	5.43
506.42	5.4
506.621	5.44
506.823	5.41
507.024	5.34
507.226	5.41
507.427	5.54
507.629	5.51
507.83	5.57
508.032	5.63
508.233	5.61
508.435	5.58
508.636	5.64
508.838	5.64
509.039	5.63
509.24	5.62
509.442	5.65
509.643	5.65
509.845	5.56
510.046	5.65
510.247	5.69
510.448	5.67
510.65	5.67
510.851	5.77
511.052	5.79
511.254	5.91
511.455	5.93
511.656	5.88
511.857	5.91
512.058	5.87
512.26	5.78
512.461	5.77
512.662	5.86
512.863	5.77
513.064	5.76
513.265	5.72
513.466	5.74
513.667	5.74
513.868	5.76
514.069	5.74
514.27	5.8
514.471	5.73
514.672	5.75
514.873	5.79
515.074	5.86
515.275	5.81
515.476	5.91
515.677	5.88
515.878	5.91
516.079	5.91
516.28	5.96
516.481	5.94
516.682	5.94
516.882	5.89
517.083	5.85
517.284	5.86
517.485	5.86
517.686	5.86
517.886	5.93
518.087	5.94
518.288	5.9
518.488	5.88
518.689	5.85
518.89	5.83
519.091	5.88
519.291	5.87
519.492	5.86
519.692	5.9
519.893	5.9
520.094	5.88
520.294	5.99
520.495	6.03
520.695	6.06
520.896	6.1
521.096	6.12
521.297	6.09
521.497	6.04
521.698	6.08
521.898	6.09
522.099	6.09
522.299	6.07
522.499	6.11
522.7	6.04
522.9	6.04
523.101	6.03
523.301	6.02
523.501	6.03
523.702	6.06
523.902	6.07
524.102	6.19
524.302	6.22
524.503	6.2
524.703	6.17
524.903	6.1
525.103	6.01
525.304	6.01
525.504	6.11
525.704	6.14
525.904	6.16
526.104	6.17
526.304	6.22
526.504	6.2
526.705	6.19
526.905	6.26
527.105	6.25
527.305	6.2
527.505	6.14
527.705	6.15
527.905	6.17
528.105	6.2
528.305	6.28
528.505	6.33
528.705	6.42
528.905	6.4
529.105	6.44
529.304	6.41
529.504	6.41
529.704	6.36
529.904	6.36
530.104	6.33
530.304	6.34
530.503	6.37
530.703	6.4
530.903	6.38
531.103	6.44
531.303	6.45
531.502	6.51
531.702	6.52
531.902	6.61
532.101	6.56
532.301	6.6
532.501	6.65
532.7	6.65
532.9	6.67
533.1	6.73
533.299	6.71
533.499	6.6
533.698	6.61
533.898	6.62
534.097	6.58
534.297	6.62
534.496	6.65
534.696	6.72
534.895	6.7
535.095	6.79
535.294	6.85
535.494	6.91
535.693	6.92
535.892	6.94
536.092	6.95
536.291	6.93
536.491	6.93
536.69	6.9
536.889	6.93
537.088	6.89
537.288	6.84
537.487	6.85
537.686	6.88
537.886	6.87
538.085	6.91
538.284	6.98
538.483	6.98
538.682	7.01
538.882	7.04
539.081	7.08
539.28	7.13
539.479	7.18
539.678	7.2
539.877	7.3
540.076	7.32
540.275	7.31
540.474	7.31
540.673	7.32
540.872	7.25
541.071	7.3
541.27	7.3
541.469	7.34
541.668	7.4
541.867	7.48
542.066	7.48
542.265	7.54
542.464	7.53
542.663	7.58
542.862	7.68
543.06	7.78
543.259	7.89
543.458	7.97
543.657	8.02
543.856	8
544.054	7.99
544.253	7.96
544.452	8
544.651	8.01
544.849	8.02
545.048	8.09
545.247	8.18
545.445	8.16
545.644	8.23
545.843	8.23
546.041	8.26
546.24	8.26
546.438	8.31
546.637	8.27
546.836	8.38
547.034	8.41
547.233	8.49
547.431	8.58
547.63	8.65
547.828	8.64
548.027	8.67
548.225	8.64
548.423	8.66
548.622	8.75
548.82	8.82
549.019	8.89
549.217	8.98
549.415	9.08
549.614	9.17
549.812	9.22
550.01	9.25
550.209	9.32
550.407	9.38
550.605	9.36
550.803	9.48
551.002	9.57
551.2	9.57
551.398	9.67
551.596	9.77
551.794	9.78
551.993	9.84
552.191	10
552.389	10.04
552.587	10.09
552.785	10.14
552.983	10.25
553.181	10.26
553.379	10.37
553.577	10.41
553.775	10.53
553.973	10.6
554.171	10.73
554.369	10.77
554.567	10.9
554.765	10.95
554.963	11.03
555.161	11.02
555.359	11.1
555.557	11.16
555.755	11.32
555.952	11.38
556.15	11.52
556.348	11.61
556.546	11.72
556.744	11.7
556.941	11.66
557.139	11.74
557.337	11.82
557.535	11.84
557.732	11.96
557.93	12.2
558.128	12.31
558.325	12.36
558.523	12.5
558.721	12.6
558.918	12.67
559.116	12.79
559.313	12.97
559.511	13.06
559.708	13.16
559.906	13.26
560.104	13.34
560.301	13.41
560.498	13.56
560.696	13.65
560.893	13.75
561.091	13.83
561.288	14.02
561.486	14
561.683	14.11
561.88	14.21
562.078	14.3
562.275	14.33
562.473	14.49
562.67	14.61
562.867	14.68
563.064	14.78
563.262	14.8
563.459	14.92
563.656	14.99
563.853	15.16
564.051	15.24
564.248	15.4
564.445	15.47
564.642	15.59
564.839	15.64
565.036	15.84
565.234	16.01
565.431	16.12
565.628	16.17
565.825	16.33
566.022	16.35
566.219	16.36
566.416	16.5
566.613	16.61
566.81	16.7
567.007	16.77
567.204	16.83
567.401	16.94
567.598	17.12
567.795	17.12
567.991	17.21
568.188	17.27
568.385	17.34
568.582	17.39
568.779	17.52
568.976	17.6
569.172	17.77
569.369	17.8
569.566	17.87
569.763	17.88
569.96	17.98
570.156	18.01
570.353	18.09
570.55	18.16
570.746	18.35
570.943	18.39
571.14	18.43
571.336	18.46
571.533	18.54
571.729	18.54
571.926	18.63
572.123	18.69
572.319	18.75
572.516	18.75
572.712	18.81
572.909	18.81
573.105	18.98
573.302	19.03
573.498	19.04
573.695	19.11
573.891	19.17
574.087	18.98
574.284	19.02
574.48	19.07
574.677	19.07
574.873	19.13
575.069	19.33
575.266	19.46
575.462	19.49
575.658	19.53
575.854	19.44
576.051	19.48
576.247	19.41
576.443	19.44
576.639	19.45
576.835	19.5
577.032	19.41
577.228	19.46
577.424	19.48
577.62	19.52
577.816	19.59
578.012	19.62
578.208	19.66
578.404	19.69
578.6	19.72
578.796	19.8
578.993	19.77
579.189	19.82
579.384	19.84
579.58	19.79
579.776	19.74
579.972	19.85
580.168	19.8
580.364	19.86
580.56	19.84
580.756	19.81
580.952	19.76
581.148	19.81
581.343	19.78
581.539	19.86
581.735	19.87
581.931	19.82
582.127	19.73
582.322	19.72
582.518	19.74
582.714	19.8
582.909	19.84
583.105	19.91
583.301	19.97
583.496	19.9
583.692	19.8
583.888	19.77
584.083	19.71
584.279	19.65
584.474	19.66
584.67	19.68
584.866	19.64
585.061	19.64
585.257	19.58
585.452	19.6
585.648	19.6
585.843	19.64
586.039	19.71
586.234	19.7
586.429	19.68
586.625	19.77
586.82	19.83
587.015	19.71
587.211	19.7
587.406	19.68
587.601	19.65
587.797	19.63
587.992	19.65
588.187	19.57
588.383	19.56
588.578	19.51
588.773	19.56
588.968	19.64
589.163	19.82
589.359	19.88
589.554	19.93
589.749	19.9
589.944	20.01
590.139	19.99
590.334	20.05
590.529	20.06
590.724	20.12
590.919	20.11
591.114	20.15
591.309	20.13
591.504	20.15
591.699	20.13
591.894	20.09
592.089	20.12
592.284	20.19
592.479	20.31
592.674	20.43
592.869	20.46
593.064	20.56
593.259	20.64
593.454	20.64
593.648	20.72
593.843	20.82
594.038	20.9
594.233	20.88
594.428	21.01
594.622	21.04
594.817	21.16
595.012	21.23
595.206	21.31
595.401	21.34
595.596	21.43
595.79	21.44
595.985	21.39
596.18	21.52
596.374	21.62
596.569	21.67
596.763	21.78
596.958	21.85
597.153	21.94
597.347	21.9
597.542	22.01
597.736	22.08
597.931	22.18
598.125	22.22
598.319	22.36
598.514	22.35
598.708	22.38
598.903	22.52
599.097	22.51
599.291	22.52
599.486	22.69
599.68	22.76
599.874	22.74
600.069	22.93
600.263	23.01
600.457	22.94
600.651	22.99
600.846	23.1
601.04	23.07
601.234	23.13
601.428	23.32
601.622	23.33
601.817	23.38
602.011	23.43
602.205	23.45
602.399	23.37
602.593	23.46
602.787	23.36
602.981	23.41
603.175	23.53
603.369	23.53
603.563	23.54
603.757	23.64
603.951	23.6
604.145	23.47
604.339	23.58
604.533	23.52
604.727	23.47
604.921	23.45
605.115	23.47
605.309	23.28
605.502	23.4
605.696	23.43
605.89	23.46
606.084	23.41
606.278	23.46
606.471	23.31
606.665	23.2
606.859	23.11
607.053	22.99
607.246	22.94
607.44	22.83
607.634	22.88
607.827	22.73
608.021	22.69
608.214	22.57
608.408	22.5
608.602	22.33
608.795	22.41
608.989	22.35
609.182	22.33
609.376	22.38
609.569	22.37
609.763	22.28
609.956	22.21
610.15	22.07
610.343	21.93
610.537	21.77
610.73	21.54
610.923	21.43
611.117	21.38
611.31	21.23
611.504	21.21
611.697	21.24
611.89	21.16
612.083	21.12
612.277	21.14
612.47	21
612.663	21
612.856	21
613.05	20.89
613.243	20.76
613.436	20.75
613.629	20.6
613.822	20.52
614.015	20.4
614.209	20.35
614.402	20.24
614.595	20.19
614.788	20.09
614.981	20.08
615.174	19.97
615.367	19.91
615.56	19.7
615.753	19.71
615.946	19.56
616.139	19.49
616.332	19.41
616.525	19.46
616.718	19.35
616.911	19.32
617.103	19.27
617.296	19.21
617.489	19.14
617.682	19.05
617.875	18.99
618.067	18.91
618.26	18.9
618.453	18.85
618.646	18.78
618.838	18.69
619.031	18.76
619.224	18.62
619.417	18.64
619.609	18.64
619.802	18.63
619.994	18.48
620.187	18.47
620.38	18.38
620.572	18.28
620.765	18.28
620.957	18.23
621.15	18.24
621.342	18.21
621.535	18.23
621.727	18.21
621.92	18.23
622.112	18.22
622.305	18.15
622.497	18.13
622.69	18.04
622.882	18.07
623.074	18.06
623.267	18.11
623.459	18.03
623.651	18.04
623.844	18.05
624.036	17.98
624.228	17.9
624.42	17.87
624.613	17.83
624.805	17.74
624.997	17.73
625.189	17.78
625.381	17.78
625.574	17.78
625.766	17.75
625.958	17.72
626.15	17.65
626.342	17.63
626.534	17.61
626.726	17.59
626.918	17.61
627.11	17.58
627.302	17.51
627.494	17.51
627.686	17.47
627.878	17.38
628.07	17.36
628.262	17.37
628.454	17.28
628.646	17.18
628.838	17.23
629.029	17.14
629.221	17.07
629.413	17.03
629.605	17.01
629.797	16.88
629.989	16.88
630.18	16.86
630.372	16.89
630.564	16.84
630.755	16.94
630.947	16.92
631.139	16.92
631.33	16.77
631.522	16.88
631.714	16.76
631.905	16.76
632.097	16.69
632.289	16.74
632.48	16.61
632.672	16.57
632.863	16.47
633.055	16.48
633.246	16.48
633.438	16.48
633.629	16.52
633.821	16.47
634.012	16.55
634.203	16.4
634.395	16.43
634.586	16.35
634.777	16.43
634.969	16.32
635.16	16.35
635.351	16.32
635.543	16.33
635.734	16.27
635.925	16.3
636.117	16.38
636.308	16.41
636.499	16.33
636.69	16.35
636.881	16.31
637.073	16.27
637.264	16.17
637.455	16.21
637.646	16.23
637.837	16.21
638.028	16.12
638.219	16.18
638.41	16.25
638.601	16.22
638.792	16.18
638.983	16.27
639.174	16.19
639.365	16.17
639.556	16.09
639.747	16.08
639.938	16.05
640.129	16.07
640.32	15.96
640.511	16.02
640.701	16.06
640.892	16.11
641.083	16.1
641.274	16.08
641.465	16.06
641.655	16.05
641.846	15.95
642.037	15.9
642.228	15.92
642.418	15.84
642.609	15.76
642.8	15.76
642.99	15.73
643.181	15.71
643.372	15.71
643.562	15.66
643.753	15.6
643.943	15.57
644.134	15.44
644.324	15.43
644.515	15.45
644.705	15.48
644.896	15.52
645.086	15.61
645.277	15.54
645.467	15.54
645.658	15.46
645.848	15.38
646.038	15.3
646.229	15.3
646.419	15.21
646.61	15.29
646.8	15.32
646.99	15.33
647.18	15.27
647.371	15.3
647.561	15.24
647.751	15.18
647.941	15.17
648.132	15.2
648.322	15.08
648.512	15.05
648.702	15.11
648.892	15.09
649.082	15.08
649.272	15.1
649.462	15.1
649.653	14.96
649.843	14.91
650.033	14.89
650.223	14.88
650.413	14.8
650.603	14.83
650.793	14.79
650.983	14.69
651.172	14.61
651.362	14.5
651.552	14.41
651.742	14.35
651.932	14.32
652.122	14.29
652.312	14.18
652.502	14.11
652.691	14.08
652.881	13.96
653.071	13.97
653.261	13.93
653.45	13.88
653.64	13.75
653.83	13.74
654.019	13.57
654.209	13.55
654.399	13.38
654.588	13.3
654.778	13.11
654.968	12.96
655.157	12.74
655.347	12.59
655.536	12.44
655.726	12.25
655.915	12.1
656.105	11.96
656.294	11.93
656.484	11.73
656.673	11.75
656.863	11.67
657.052	11.57
657.241	11.34
657.431	11.26
657.62	11.08
657.809	10.95
657.999	10.78
658.188	10.68
658.377	10.49
658.567	10.4
658.756	10.18
658.945	10.08
659.134	9.97
659.324	9.89
659.513	9.73
659.702	9.56
659.891	9.45
660.08	9.31
660.269	9.17
660.458	8.98
660.648	8.9
660.837	8.72
661.026	8.51
661.215	8.31
661.404	8.16
661.593	8.06
661.782	7.85
661.971	7.71
662.16	7.62
662.349	7.44
662.538	7.34
662.726	7.29
662.915	7.28
663.104	7.18
663.293	7.19
663.482	7.07
663.671	6.94
663.86	6.8
664.048	6.79
664.237	6.69
664.426	6.64
664.615	6.67
664.803	6.58
664.992	6.46
665.181	6.41
665.369	6.29
665.558	6.26
665.747	6.32
665.935	6.29
666.124	6.31
666.312	6.38
666.501	6.28
666.69	6.23
666.878	6.22
667.067	6.06
667.255	6.03
667.444	6.12
667.632	6.18
667.82	6.2
668.009	6.21
668.197	6.15
668.386	6.1
668.574	6.1
668.762	6.03
668.951	6.14
669.139	6.14
669.327	6.15
669.516	6.12
669.704	6.19
669.892	6.19
670.08	6.27
670.269	6.28
670.457	6.34
670.645	6.25
670.833	6.29
671.021	6.3
671.21	6.24
671.398	6.15
671.586	6.27
671.774	6.27
671.962	6.32
672.15	6.48
672.338	6.55
672.526	6.61
672.714	6.65
672.902	6.69
673.09	6.78
673.278	6.89
673.466	6.98
673.654	7
673.842	7.13
674.03	7.2
674.218	7.15
674.405	7.17
674.593	7.33
674.781	7.35
674.969	7.48
675.157	7.63
675.344	7.73
675.532	7.76
675.72	7.72
675.908	7.55
676.095	7.65
676.283	7.79
676.471	7.88
676.658	8.08
676.846	8.28
677.033	8.29
677.221	8.37
677.409	8.47
677.596	8.5
677.784	8.62
677.971	8.63
678.159	8.61
678.346	8.73
678.534	8.85
678.721	8.84
678.909	9.1
679.096	9.24
679.283	9.14
679.471	9.24
679.658	9.38
679.846	9.34
680.033	9.49
680.22	9.71
680.408	9.69
680.595	9.83
680.782	9.96
680.969	10.15
681.157	10.29
681.344	10.48
681.531	10.57
681.718	10.73
681.905	10.77
682.093	10.87
682.28	10.98
682.467	11.14
682.654	11.16
682.841	11.23
683.028	11.21
683.215	11.41
683.402	11.37
683.589	11.7
683.776	11.91
683.963	12.27
684.15	12.42
684.337	12.82
684.524	12.94
684.711	13.15
684.898	13.26
685.085	13.45
685.271	13.8
685.458	14.06
685.645	14.31
685.832	14.67
686.019	14.78
686.205	14.95
686.392	15.39
686.579	15.71
686.766	16
686.952	16.56
687.139	16.95
687.326	17.15
687.512	17.47
687.699	17.92
687.886	18.32
688.072	18.63
688.259	19.02
688.445	19.46
688.632	19.81
688.818	20.12
689.005	20.53
689.191	21.08
689.378	21.57
689.564	22.07
689.751	22.65
689.937	23.5
690.124	23.96
690.31	24.35
690.496	24.93
690.683	25.53
690.869	25.84
691.055	26.54
691.242	27.21
691.428	27.75
691.614	28.41
691.8	29.24
691.987	29.88
692.173	30.73
692.359	31.73
692.545	32.54
692.731	33.02
692.918	33.46
693.104	34.13
693.29	34.52
693.476	35.2
693.662	35.79
693.848	36.7
694.034	37.45
694.22	38.17
694.406	38.85
694.592	39.73
694.778	40.24
694.964	40.78
695.15	41.52
695.336	41.87
695.522	42.59
695.708	43.64
695.894	44.42
696.08	45.34
696.265	46.42
696.451	47.04
696.637	47.82
696.823	48.53
697.009	48.77
697.194	49.39
697.38	50.05
697.566	50.41
697.751	50.93
697.937	51.89
698.123	52.43
698.308	52.93
698.494	53.76
698.68	54.64
698.865	55.07
699.051	55.87
699.236	56.71
699.422	57.3
699.607	58.03
699.793	59.04
699.978	59.3
700.164	59.92
700.349	60.33
700.535	60.56
700.72	60.83
700.906	61.51
701.091	62.08
701.276	62.74
701.462	63.5
701.647	64.22
701.832	64.72
702.018	65.17
702.203	65.52
702.388	65.71
702.573	66
702.759	66.5
702.944	66.83
703.129	67.2
703.314	67.75
703.499	68.37
703.684	69.11
703.87	69.59
704.055	70.32
704.24	70.58
704.425	70.52
704.61	70.49
704.795	71.12
704.98	71.01
705.165	71.45
705.35	72.12
705.535	72.49
705.72	72.43
705.905	73.14
706.09	73.72
706.275	74.06
706.459	74.62
706.644	74.96
706.829	75.12
707.014	75.47
707.199	75.84
707.384	75.71
707.568	76
707.753	76.39
707.938	76.4
708.123	76.35
708.307	76.69
708.492	77.25
708.677	77.67
708.861	77.95
709.046	77.79
709.231	78.09
709.415	77.96
709.6	77.73
709.784	77.81
709.969	78.95
710.153	78.92
710.338	79.41
710.522	80.11
710.707	80.38
710.891	80.08
711.076	80.29
711.26	80.65
711.445	80.55
711.629	80.46
711.813	80.54
711.998	81.33
712.182	80.86
712.366	81.64
712.551	82.34
712.735	82.72
712.919	82.75
713.103	83.19
713.288	82.74
713.472	82.82
713.656	82.46
713.84	82.27
714.024	82.42
714.208	82.22
714.393	82.41
714.577	82.88
714.761	83.01
714.945	83.2
715.129	83.66
715.313	83.55
715.497	83.54
715.681	83.48
715.865	83.31
716.049	83.19
716.233	83.38
716.417	84.02
716.601	84.4
716.785	84.79
716.968	85
717.152	85.02
717.336	84.93
717.52	85.15
717.704	85.11
717.888	85.55
718.071	85.3
718.255	85.34
718.439	85.38
718.622	85.86
718.806	85.72
718.99	85.53
719.174	85.67
719.357	85.98
719.541	86.06
719.724	86.21
719.908	86.68
720.092	86.77
720.275	86.36
720.459	86.15
720.642	86.13
720.826	86.01
721.009	85.96
721.193	86.21
721.376	86.56
721.559	86.14
721.743	86.94
721.926	87.26
722.11	87.57
722.293	87.68
722.476	87.78
722.66	88.01
722.843	87.39
723.026	87.75
723.21	87.94
723.393	88.93
723.576	88.83
723.759	89.57
723.942	89.46
724.126	89.3
724.309	88.61
724.492	88.68
724.675	88.88
724.858	89.09
725.041	89.43
725.224	90.4
725.407	89.95
725.59	89.76
725.774	89.75
725.957	90.03
726.14	89.6
726.322	90.17
726.505	90.13
726.688	90.37
726.871	89.75
727.054	89.61
727.237	89.99
727.42	89.98
727.603	90.12
727.786	90.37
727.968	90.54
728.151	89.91
728.334	90.6
728.517	90.64
728.699	90.6
728.882	91.16
729.065	91.62
729.248	91.92
729.43	91.59
729.613	91.73
729.796	91.46
729.978	91.46
730.161	91.25
730.343	91.19
730.526	91.25
730.708	91.07
730.891	91.55
731.073	91.69
731.256	92.23
731.438	93.26
731.621	93.9
731.803	93.85
731.986	93.81
732.168	94.11
732.35	93.96
732.533	93.97
732.715	93.86
732.898	93.84
733.08	93.62
733.262	92.88
733.444	93.15
733.627	93.55
733.809	94.1
733.991	94.85
734.173	94.73
734.355	94.98
734.538	95.1
734.72	95.14
734.902	95.27
735.084	95.34
735.266	95.76
735.448	96.53
735.63	96.46
735.812	95.91
735.994	96.87
736.176	96.98
736.358	96.5
736.54	96.69
736.722	96.76
736.904	96.58
737.086	95.21
737.268	95.23
737.45	96.04
737.632	95.87
737.814	96.41
737.995	96.83
738.177	96.83
738.359	95.92
738.541	95.78
738.723	95.51
738.904	96.05
739.086	96.73
739.268	96.41
739.449	96.86
739.631	96.82
739.813	96.8
739.994	95.95
740.176	96.94
740.358	97.59
740.539	96.85
740.721	97.75
740.902	97.28
741.084	97.12
741.265	97.92
741.447	99.76
741.628	99.24
741.81	99.86
741.991	99.68
742.172	98.64
742.354	97.27
742.535	96.94
742.717	96.65
742.898	96.72
743.079	97.03
743.261	97.37
743.442	96.5
743.623	96.9
743.804	96.96
743.986	96.58
744.167	95.99
744.348	96.41
744.529	96.78
744.71	96.73
744.891	96.26
745.073	97.39
745.254	97.4
745.435	97.4
745.616	97.25
745.797	96.85
745.978	96.84
746.159	97.94
746.34	98.62
746.521	98.79
746.702	100.07
746.883	99.28
747.064	97.94
747.245	96.93
747.426	96.96
747.606	97.16
747.787	98.29
747.968	98.47
748.149	98.66
748.33	97.63
748.51	96.83
748.691	96.85
748.872	98.57
749.053	97.62
749.233	97.91
749.414	97.77
749.595	97.04
749.775	96.58
749.956	96.96
750.137	97.01
750.317	95.53
750.498	95.21
750.678	94.63
750.859	95.08
751.04	95.24
751.22	96.36
751.4	96.81
751.581	97.69
751.761	98.25
751.942	98.76
752.122	98.45
752.303	98.94
752.483	97.9
752.663	97.7
752.844	97.63
753.024	98.9
753.204	98.1
753.385	98.23
753.565	96.61
753.745	95.66
753.925	94.59
754.106	95.94
754.286	95.97
754.466	96.19
754.646	96.28
754.826	98.44
755.006	96.23
755.187	97.2
755.367	97.55
755.547	98.03
755.727	95.61
755.907	96.76
756.087	95.1
756.267	94.34
756.447	96
756.627	97.01
756.807	97.19
756.987	95.96
757.167	96.72
757.346	94.5
757.526	94.95
757.706	93.41
757.886	94.57
758.066	95.37
758.246	94.9
758.425	92.24
758.605	93.01
758.785	94.15
758.965	93.48
759.144	92.35
759.324	95.48
759.504	95.95
759.683	94.57
759.863	95.39
760.043	95.89
760.222	94.82
760.402	93.8
760.581	95.77
760.761	94.91
760.94	96.48
761.12	96.11
761.299	97.85
761.479	97.65
761.658	97.91
761.838	98.07
762.017	98.45
762.197	96.36
762.376	94.6
762.555	94.93
762.735	94.63
762.914	93.35
763.093	94.39
763.273	94.95
763.452	92.97
763.631	92.98
763.81	94.18
763.99	93.06
764.169	92.82
764.348	93.55
764.527	92.91
764.706	92.47
764.885	93.28
765.064	94.27
765.243	93.38
765.423	95.76
765.602	96.02
765.781	95.7
765.96	95.65
766.139	96.83
766.318	95.06
766.497	93.45
766.676	92.12
766.854	91.66
767.033	93
767.212	94.75
767.391	97.13
767.57	101.25
767.749	99.6
767.928	99
768.106	95.98
768.285	93.73
768.464	91.24
768.643	91.45
768.821	89.65
769	90.06
769.179	91.44
769.357	91.44
769.536	91.2
769.715	90.93
769.893	91.66
770.072	89.67
770.25	89.05
770.429	90.46
770.607	91.63
770.786	90.93
770.964	92.48
771.143	93.21
771.321	90.74
771.5	91.64
771.678	92.72
771.857	91.04
772.035	90.69
772.213	92.25
772.392	89.86
772.57	87.63
772.748	88.9
772.927	88.55
773.105	88.86
773.283	90.53
773.461	92.35
773.64	91.29
773.818	91.83
773.996	92.01
774.174	91.92
774.352	91.56
774.531	94.13
774.709	94.74
774.887	92.25
775.065	93.1
775.243	94.43
775.421	92.14
775.599	94.06
775.777	95.37
775.955	93.24
776.133	91.34
776.311	91.68
776.489	90.76
776.667	90.86
776.844	90.75
777.022	90.02
777.2	90.8
777.378	87.07
777.556	88.4
777.734	89.35
777.911	92.65
778.089	92.33
778.267	94.06
778.445	95.58
778.622	96.19
778.8	90.39
778.978	91.72
779.155	90.69
779.333	89.04
779.511	86.42
779.688	90.36
779.866	90.18
780.043	92.5
780.221	91.17
780.398	93.57
780.576	91.46
780.753	88.44
780.931	87.97
781.108	89.53
781.286	88.68
781.463	88.76
781.64	89.64
781.818	89.47
781.995	87.47
782.172	87.17
782.35	88.11
782.527	88.14
782.704	85.99
782.882	84.18
783.059	86.57
783.236	85.63
783.413	84.6
783.59	86.82
783.768	88.79
783.945	87.18
784.122	87.4
784.299	88.56
784.476	86.02
784.653	87.3
784.83	83.71
785.007	82.62
785.184	82.81
785.361	85.94
785.538	83.26
785.715	87.16
785.892	87.78
786.069	88.46
786.246	86.61
786.423	89.41
786.6	88.63
786.776	87.95
786.953	85.8
787.13	88.25
787.307	87.82
787.484	83.54
787.66	83.79
787.837	85.28
788.014	82.43
788.191	78.32
788.367	79.67
788.544	81.49
788.721	81.52
788.897	83.24
789.074	84.74
789.25	87.22
789.427	86.28
789.603	82.32
789.78	79.79
789.956	82.13
790.133	81.38
790.309	81.36
790.486	83.66
790.662	81.79
790.839	83.14
791.015	84.26
791.192	83.24
791.368	84.88
791.544	90.85
791.721	85.44
791.897	84.03
792.073	84.86
792.249	85.89
792.426	82.75
792.602	84.6
792.778	85.16
792.954	85.08
793.13	84.9
793.307	86.29
793.483	88.13
793.659	86.73
793.835	89.56
794.011	91.47
794.187	92.49
794.363	91.15
794.539	93.91
794.715	89.39
794.891	86.42
795.067	83.36
795.243	85.68
795.419	85.59
795.595	91.23
795.771	89.32
795.947	87.54
796.122	82.87
796.298	83.52
796.474	82.8
796.65	85.56
796.826	85.8
797.001	87.67
797.177	78.49
797.353	75.02
797.529	74.01
797.704	74.42
797.88	76.24
798.056	81.8
798.231	83.13
798.407	81.05
798.582	80.27
798.758	77.81
798.934	80.29
799.109	78.24
799.285	80.41
799.46	81.91
799.636	84.08
799.811	86.05
799.986	85.95
800.162	83.42
800.337	84.69
800.513	83.89
800.688	75.39
800.863	79.01
801.039	81.68
801.214	81.25
801.389	77.91
801.565	81.95
801.74	77.39
801.915	75.85
802.09	72.32
802.265	75.19
802.441	73.43
802.616	74.73
802.791	72.85
802.966	81.03
803.141	80.36
803.316	87.1
803.491	87.08
803.666	86.6
803.841	79.82
804.016	79.37
804.191	70.54
804.366	69.06
804.541	76.92
804.716	75.47
804.891	80.96
805.066	81.39
805.241	79.69
805.416	77.44
805.591	81.8
805.765	81.03
805.94	86.4
806.115	86.04
806.29	76.77
806.464	73.78
806.639	74.08
806.814	68.88
806.989	70.17
807.163	84.66
807.338	88.73
807.512	84.5
807.687	86.7
807.862	90.39
808.036	92.25
808.211	89.26
808.385	88.62
808.56	90.12
808.734	83.87
808.909	77.47
809.083	81.99
809.258	80.73
809.432	83.71
809.606	87.88
809.781	86.54
809.955	82.77
810.13	75.8
810.304	71.2
810.478	70.04
810.652	67.87
810.827	72.32
811.001	77.74
811.175	82.07
811.349	83.17
811.524	88.48
811.698	79.76
811.872	81.7
812.046	81.8
812.22	86.4
812.394	76.34
812.568	81.8
812.742	79.38
812.916	77.78
813.09	72.8
813.264	78.12
813.438	75.25
813.612	75.14
813.786	76.24
813.96	77.13
814.134	73.89
814.308	78.36
814.482	80.42
814.656	76.69
814.83	83.15
815.003	95.68
815.177	92.63
815.351	101.19
815.525	111.8
815.698	98.07
815.872	79.29
816.046	77.14
816.219	66.54
816.393	60.56
816.567	72.7
816.74	85.7
816.914	90.55
817.088	88.67
817.261	84.86
817.435	78.41
817.608	69.41
817.782	63.1
817.955	71
818.129	71.76
818.302	80.1
818.475	86.16
818.649	84.45
818.822	81.54
818.996	93.4
819.169	95.01
819.342	92.43
819.516	109.8
819.689	102.93
819.862	93.04
820.035	91.15
820.209	90.02
820.382	77.11
820.555	79.65
820.728	85.96
820.901	79.22
821.075	90.58
821.248	96.5
821.421	94.79
821.594	88.06
821.767	93.5
821.94	77.92
822.113	72.24
822.286	75.34
822.459	77.63
822.632	77.53
822.805	81.98
822.978	85.82
823.151	83.7
823.324	70.85
823.496	67.16
823.669	73.37
823.842	68.24
824.015	74.06
824.188	76.83
824.361	79.27
824.533	68.35
824.706	63.65
824.879	59.98
825.051	73.55
825.224	70.45
825.397	79.37
825.569	70.35
825.742	77.85
825.915	67.17
826.087	63.91
826.26	63.76
826.432	70.45
826.605	61.66
826.777	67.73
826.95	66.37
827.122	56.13
827.295	72.6
827.467	86.41
827.64	88.11
827.812	99.87
827.984	107.24
828.157	73.42
828.329	68
828.501	51.59
828.674	60.06
828.846	63.95
829.018	73.31
829.19	60.69
829.363	65.46
829.535	52.93
829.707	60.53
829.879	56.5
830.051	70.34
830.223	75.93
830.395	78.7
830.568	62.04
830.74	67.85
830.912	74.99
831.084	69.15
831.256	65.56
831.428	61.03
831.6	48.58
831.772	18.34
831.943	17.71
832.115	16.5
832.287	32.19
832.459	44.71
832.631	67.27
832.803	73.24
832.975	78.15
833.146	75.36
833.318	81.8
833.49	71.04
833.662	90.98
833.833	93.51
834.005	92.92
834.177	98.67
834.348	89.93
834.52	71.58
834.692	54.73
834.863	52.11
835.035	36.91
835.206	60.65
835.378	57
835.549	63.13
835.721	57.86
835.892	64.45
836.064	58.55
836.235	68.87
836.407	71.7
836.578	75.77
836.749	66.23
836.921	65.95
837.092	46.41
837.264	43.32
837.435	39.63
837.606	44.66
837.777	48.2
837.949	68.1
838.12	63.73
838.291	66.49
838.462	69.66
838.633	64.95
838.805	45.94
838.976	50.4
839.147	65.58
839.318	71.23
839.489	73.62
839.66	81.26
839.831	79.92
840.002	69.04
840.173	69.93
840.344	68.44
840.515	47.36
840.686	58.53
840.857	54.56
841.028	51.97
841.199	53.32
841.369	63.35
841.54	52.74
841.711	86.2
841.882	79.66
842.053	55.56
842.223	64.34
842.394	54.89
842.565	47.58
842.736	44.13
842.906	61.72
843.077	71.57
843.248	89.62
843.418	79.34
843.589	93.61
843.759	95.57
843.93	87.69
844.101	96.19
844.271	125.58
844.442	93.47
844.612	78.8
844.783	73.91
844.953	47.98
845.123	47.21
845.294	63.35
845.464	66.52
845.635	73.72
845.805	103.39
845.975	72.16
846.146	48.52
846.316	60.5
846.486	44.76
846.656	49.53
846.827	56.07
846.997	79.92
847.167	68.87
847.337	68.04
847.507	74.25
847.677	71.97
847.848	71.17
848.018	71.97
848.188	87.2
848.358	64.48
848.528	63.23
848.698	41.71
848.868	42
849.038	26.13
849.208	43.92
849.378	42.7
849.548	51.1
849.718	65.31
849.887	80.74
850.057	59.26
850.227	98.04
850.397	80.58
850.567	59.89
850.737	75.78
850.906	84.31
851.076	60.91
851.246	90.93
851.415	134.53
851.585	143.2
851.755	114.04
851.924	112.85
852.094	87.01
852.264	57.83
852.433	40.84
852.603	32.81
852.772	22.64
852.942	64.36
853.111	56.39
853.281	66.85
853.45	62.68
853.62	105.84
853.789	71.15
853.959	68.76
854.128	65.68
854.297	62.61
854.467	41.3
854.636	51.44
854.805	55.06
854.975	67.02
855.144	71.33
855.313	93.43
855.482	82.79
855.652	72.84
855.821	52.22
855.99	68.43
856.159	48.93
856.328	43.15
856.497	68.16
856.667	61.19
856.836	67.36
857.005	70.31
857.174	68.56
857.343	60.75
857.512	51.99
857.681	55.23
857.85	48.74
858.019	54.32
858.188	46.69
858.356	71.86
858.525	71.43
858.694	69.9
858.863	55.1
859.032	61.99
859.201	49.14
859.369	40.61
859.538	42.97
859.707	45.4
859.876	51.07
860.044	65.54
860.213	70.45
860.382	90.92
860.55	93.08
860.719	107.87
860.888	111.8
861.056	105.56
861.225	100.82
861.393	103.4
861.562	103.6
861.73	83.31
861.899	64.68
862.067	55.91
862.236	43.25
862.404	29.85
862.572	27.28
862.741	25.58
862.909	8.21
863.078	18.85
863.246	15.15
863.414	27.09
863.582	36.82
863.751	57.81
863.919	49.86
864.087	60.37
864.255	63.46
864.424	59.55
864.592	38.95
864.76	54.97
864.928	63.78
865.096	75.51
865.264	71.06
865.432	95.63
865.6	110.92
865.768	108.56
865.936	91.53
866.104	119.25
866.272	156.9
866.44	82.14
866.608	48.94
866.776	46.34
866.944	48.96
867.112	42.98
867.28	61.97
867.448	75.63
867.615	72.58
867.783	58.62
867.951	47.89
868.119	27.62
868.286	29.59
868.454	33.89
868.622	26.18
868.789	34.14
868.957	49.99
869.125	47.13
869.292	19.9
869.46	43.32
869.627	67.83
869.795	41.52
869.963	33.38
870.13	45.35
870.298	40.52
870.465	27.77
870.632	11.71
870.8	22.05
870.967	12.69
871.135	1.75
871.302	-3.18
871.469	30.87
871.637	38.67
871.804	70.78
871.971	63.79
872.139	73.48
872.306	22.32
872.473	-18.69
872.64	-129.21
872.807	-192.9
872.975	-419.63
873.142	-37.11
873.309	12.58
873.476	60.91
873.643	106.81
873.81	75.69
873.977	32.34
874.144	22.64
874.311	-42.04
874.478	-35.23
874.645	-53.71
874.812	16.23
874.979	-10.75
875.146	19.32
875.313	16.89
875.48	62.3
875.647	64.53
875.813	73.35
875.98	59.94
876.147	75.68
876.314	93.64
876.481	166.9
876.647	110.3
876.814	95.22
876.981	88.37
877.147	83.93
877.314	62.29
877.481	85.01
877.647	60.96
877.814	59.47
877.98	68.57
878.147	77.9
878.314	61.8
878.48	101.99
878.647	100.71
878.813	89.34
878.979	90.8
879.146	141.11
879.312	121.69
879.479	110.42
879.645	87.66
879.811	70.84
879.978	42.67
880.144	36.03
880.31	33.47
880.477	74.69
880.643	85.63
880.809	108.01
880.975	105.85
881.142	121.17
881.308	181.7
881.474	404.71
881.64	-41.64
881.806	-93.05
881.972	-62.83
882.138	-1.93
882.304	-3.16
882.47	-44.85
882.636	-27.58
882.802	-21.42
882.968	-25.79
883.134	32.2
883.3	79.56
883.466	124.79
883.632	133.79
883.798	122.88
883.964	40.49
884.129	-442.79
884.295	-74.29
884.461	-84.39
884.627	22.8
884.793	-3.66
884.958	22.07
885.124	52.24
885.29	48.03
885.455	2.45
885.621	47.33
885.787	60.02
885.952	-6.53
886.118	19.9
886.283	7.26
886.449	-0.85
886.614	18.35
886.78	12
886.945	-16.74
887.111	-7.53
887.276	-6.27
887.442	-90.77
887.607	-4.77
887.773	27.28
887.938	27.75
888.103	11.63
888.269	33.69
888.434	28.81
888.599	23.24
888.764	34.03
888.93	37
889.095	29.99
889.26	26.89
889.425	-3.1
889.59	-18.78
889.756	20.25
889.921	3.73
890.086	-57.41
890.251	38.04
890.416	11.75
890.581	-47.89
890.746	16.04
890.911	36.74
891.076	34.54
891.241	27.31
891.406	23.32
891.571	44.04
891.736	-19
891.901	18.36
892.065	24.99
892.23	77.59
892.395	33.25
892.56	76.25
892.725	145.47
892.889	229.43
893.054	107.53
893.219	67.5
893.384	5.04
893.548	-49.97
893.713	-46.87
893.878	-127.14
