Data from Ofra_2a_PS_2GT38_Reflection_2.txt Node
Date: Tue Jul 20 09:42:48 EDT 2021
User: Adam
Spectrometer: FLMT01687
Trigger mode: 0
Integration Time (sec): 9.450000E-1
Scans to average: 3
Electric dark correction enabled: true
Nonlinearity correction enabled: false
Boxcar width: 3
XAxis mode: Wavelengths
Number of Pixels in Spectrum: 3648
>>>>>Begin Spectral Data<<<<<
179.494	1095.86
179.716	642.17
179.937	680.77
180.158	2639.45
180.38	-1179.36
180.601	-194.14
180.823	16.37
181.044	74
181.265	-28.83
181.486	30.08
181.708	-1148.91
181.929	-69.88
182.15	-314.2
182.372	99.73
182.593	97.69
182.814	192.07
183.035	146.18
183.257	132.09
183.478	65.68
183.699	83.41
183.92	64.86
184.141	71.8
184.363	41.43
184.584	31.17
184.805	33.61
185.026	17.17
185.247	-6.26
185.468	-7.7
185.689	12.75
185.91	31.1
186.132	38.41
186.353	20
186.574	39.71
186.795	41.67
187.016	46.14
187.237	32.19
187.458	24.88
187.679	41.86
187.9	50.85
188.121	23.85
188.342	36.3
188.563	36.64
188.784	40.9
189.005	56.17
189.226	29.59
189.447	37.35
189.667	39.81
189.888	38.16
190.109	30.67
190.33	33.94
190.551	32.8
190.772	28.61
190.993	28.11
191.214	30.3
191.434	30.63
191.655	39.53
191.876	32.93
192.097	25.08
192.318	31.58
192.538	33.6
192.759	37.26
192.98	22.41
193.201	38.83
193.421	40.71
193.642	41.61
193.863	53.06
194.083	45.81
194.304	36.69
194.525	49.27
194.745	20.08
194.966	26.94
195.187	26.71
195.407	30.96
195.628	34.74
195.848	40.19
196.069	38.49
196.29	29.97
196.51	23.22
196.731	33.34
196.951	29.21
197.172	23.78
197.392	29.1
197.613	26.55
197.833	33.34
198.054	41.93
198.274	22.94
198.495	25.58
198.715	12.98
198.936	17.73
199.156	24.67
199.377	39.17
199.597	18.07
199.817	42.07
200.038	41.74
200.258	45.2
200.479	34.13
200.699	42.58
200.919	15.1
201.14	14.56
201.36	17.04
201.58	11.55
201.801	10.77
202.021	22.4
202.241	19.63
202.461	42.92
202.682	44.11
202.902	38.47
203.122	37.61
203.342	60.97
203.563	53.69
203.783	54.26
204.003	48.94
204.223	51.33
204.443	53.77
204.663	50.49
204.884	35.18
205.104	41.49
205.324	60.35
205.544	44.9
205.764	51.31
205.984	47.07
206.204	57.48
206.424	49.24
206.644	45.37
206.864	22.26
207.084	41.48
207.304	30.4
207.525	21.27
207.745	25.8
207.964	31.41
208.184	30.51
208.404	31.29
208.624	2.52
208.844	8.68
209.064	20.95
209.284	20.5
209.504	11.61
209.724	-26.64
209.944	-6.7
210.164	24.74
210.384	41.07
210.604	32.47
210.823	3.77
211.043	10.86
211.263	44.94
211.483	32.69
211.703	26.35
211.922	22.64
212.142	34.3
212.362	55
212.582	59.28
212.801	54.5
213.021	58.12
213.241	55.32
213.461	58.48
213.68	53.08
213.9	36.63
214.12	32.01
214.339	36.18
214.559	43.88
214.779	50.3
214.998	35.43
215.218	35.42
215.438	51.52
215.657	44.63
215.877	47.71
216.096	38.04
216.316	30.21
216.535	37.05
216.755	23.35
216.974	13.94
217.194	16.75
217.413	25.58
217.633	20.64
217.852	21.92
218.072	22.39
218.291	33.2
218.511	26.96
218.73	20.24
218.95	11.98
219.169	12.94
219.389	21.27
219.608	23.7
219.827	25.24
220.047	25.34
220.266	26.39
220.485	25.8
220.705	15.07
220.924	11.77
221.143	8.47
221.363	-6.2
221.582	-7.09
221.801	-2.25
222.021	-0.6
222.24	8.08
222.459	7.92
222.678	6.49
222.897	18.17
223.117	35.22
223.336	42.59
223.555	40.88
223.774	50.07
223.993	53.02
224.213	49.21
224.432	53.34
224.651	41.16
224.87	31.97
225.089	40.07
225.308	34.12
225.527	32.35
225.746	32.55
225.965	34.13
226.184	33.05
226.404	31.19
226.623	36
226.842	48.54
227.061	51.75
227.28	70.56
227.499	64.85
227.718	65.53
227.936	66.28
228.155	61.5
228.374	61.02
228.593	58.03
228.812	49.75
229.031	50.87
229.25	57.97
229.469	56.05
229.688	53.43
229.907	41.93
230.125	38.08
230.344	42.65
230.563	49.59
230.782	35.03
231.001	41.2
231.22	39.85
231.438	45.29
231.657	48.33
231.876	42.64
232.095	36.09
232.313	36.72
232.532	32.32
232.751	34.63
232.969	41.32
233.188	39.53
233.407	31.8
233.625	25.31
233.844	32.62
234.063	29.6
234.281	20.2
234.5	11.5
234.719	6.75
234.937	13.14
235.156	16.6
235.374	10.4
235.593	8.76
235.811	15.3
236.03	10.28
236.249	26.54
236.467	23.91
236.686	28.5
236.904	35.94
237.123	37.41
237.341	32.27
237.559	40.9
237.778	36.73
237.996	40.74
238.215	37.83
238.433	42.03
238.652	45.66
238.87	53.41
239.088	43.79
239.307	43.31
239.525	33.2
239.743	32.45
239.962	33.56
240.18	38.77
240.398	42.08
240.617	48.16
240.835	42.8
241.053	58.95
241.271	59.63
241.49	51.1
241.708	48.47
241.926	33.92
242.144	33.44
242.363	37.29
242.581	20.93
242.799	11.57
243.017	8.79
243.235	2.43
243.453	9.2
243.672	1.91
243.89	7.78
244.108	14.56
244.326	16.56
244.544	24.03
244.762	26.29
244.98	26.71
245.198	33.72
245.416	30.08
245.634	39.45
245.852	41.48
246.07	36.04
246.288	30.91
246.506	30.78
246.724	27.22
246.942	28.54
247.16	10.49
247.378	5.91
247.596	11.04
247.814	2.4
248.032	-7.69
248.25	-3.92
248.468	9.15
248.685	32.63
248.903	38.93
249.121	47.99
249.339	61.41
249.557	64.47
249.775	47.03
249.992	33.61
250.21	26.26
250.428	22.71
250.646	19.36
250.863	19.23
251.081	29.74
251.299	46.66
251.517	63.7
251.734	66.52
251.952	79.5
252.17	81.74
252.387	68.58
252.605	59.8
252.823	52.88
253.04	38.86
253.258	34.13
253.475	29.25
253.693	37.03
253.911	37.72
254.128	41.37
254.346	41.14
254.563	45.39
254.781	46.96
254.998	42.34
255.216	38.12
255.433	33.54
255.651	34
255.868	37.82
256.086	38.65
256.303	39.81
256.521	24.13
256.738	21.13
256.956	15.35
257.173	13.45
257.39	13.49
257.608	13.61
257.825	8.18
258.043	27.39
258.26	26.6
258.477	33.55
258.695	32.32
258.912	32.84
259.129	32.63
259.346	33.61
259.564	33.88
259.781	37.66
259.998	40.97
260.216	42.5
260.433	41.16
260.65	44.85
260.867	37.41
261.084	35.1
261.302	29.5
261.519	29.75
261.736	29.04
261.953	21.29
262.17	14.2
262.387	13.3
262.604	-13.33
262.822	-3.12
263.039	-8.83
263.256	-8.02
263.473	-7.4
263.69	-3.79
263.907	5.22
264.124	11.87
264.341	2.03
264.558	7.32
264.775	17.04
264.992	18.18
265.209	25.76
265.426	21.31
265.643	27.39
265.86	29.42
266.077	34.29
266.294	33.99
266.51	40.62
266.727	31.35
266.944	35.65
267.161	32.22
267.378	39.62
267.595	31.36
267.812	20.29
268.028	14.46
268.245	21.02
268.462	28.94
268.679	25.89
268.896	16.92
269.112	25.14
269.329	25.14
269.546	24.7
269.763	25.16
269.979	21.88
270.196	27.05
270.413	34.61
270.629	25.14
270.846	29.41
271.063	31.34
271.279	35.25
271.496	24.35
271.712	28.24
271.929	31.8
272.146	38.24
272.362	28.38
272.579	20.82
272.795	11.26
273.012	22.8
273.228	17.58
273.445	13.82
273.661	16.08
273.878	25.77
274.094	28.04
274.311	33.09
274.527	30.84
274.744	29.44
274.96	27.99
275.177	30.01
275.393	32.78
275.609	39.63
275.826	35.31
276.042	41.57
276.259	39.39
276.475	39.75
276.691	42.55
276.908	34.6
277.124	31.91
277.34	33.03
277.557	32.24
277.773	32.78
277.989	41.32
278.205	38.3
278.422	46.77
278.638	50.37
278.854	40.38
279.07	27.06
279.286	24.89
279.503	16.11
279.719	10.51
279.935	-2.58
280.151	1.43
280.367	8.7
280.583	23.22
280.799	33.43
281.016	32.55
281.232	31.73
281.448	31.74
281.664	24.7
281.88	36.49
282.096	38.08
282.312	28.88
282.528	22.41
282.744	27.81
282.96	31.85
283.176	33.65
283.392	33.11
283.608	29.53
283.824	30.15
284.04	29.21
284.256	27.91
284.471	29.44
284.687	27.53
284.903	25.32
285.119	15.84
285.335	25.22
285.551	37.17
285.767	43.43
285.982	41.49
286.198	40.71
286.414	31.11
286.63	41.29
286.846	29.04
287.061	35.93
287.277	32.24
287.493	30.8
287.709	34.28
287.924	41.02
288.14	39.94
288.356	51.3
288.571	39.18
288.787	40.13
289.003	47.57
289.218	37.15
289.434	29
289.65	33.59
289.865	35.26
290.081	32.41
290.296	30.73
290.512	29.6
290.727	36.44
290.943	38.72
291.159	26.11
291.374	18.36
291.59	20.41
291.805	13.53
292.021	8.48
292.236	15.7
292.451	14.75
292.667	27.79
292.882	28.06
293.098	22.08
293.313	31.28
293.529	30.55
293.744	24.53
293.959	37.11
294.175	32.8
294.39	41.36
294.605	45.97
294.821	40.49
295.036	35.54
295.251	33.14
295.467	16.42
295.682	13.26
295.897	15.18
296.112	16.05
296.328	17.49
296.543	21.07
296.758	25.99
296.973	32.45
297.188	29.4
297.404	33.68
297.619	33.27
297.834	37.95
298.049	33.03
298.264	21.65
298.479	7.15
298.694	17.84
298.909	2.23
299.125	1.55
299.34	-5.01
299.555	0.19
299.77	-1.04
299.985	3.48
300.2	-2.33
300.415	12.03
300.63	9.4
300.845	17.58
301.06	18.47
301.275	32.35
301.49	37.76
301.704	41.97
301.919	32.1
302.134	32.33
302.349	22.73
302.564	23.92
302.779	6.15
302.994	0.66
303.209	-6.91
303.423	-1.5
303.638	7.88
303.853	19.36
304.068	14.61
304.283	20.79
304.497	22.34
304.712	29.6
304.927	31.4
305.142	29.61
305.356	28.44
305.571	36.32
305.786	38.94
306	41.83
306.215	28.03
306.43	38.02
306.644	41.08
306.859	39.23
307.074	34.75
307.288	34.52
307.503	29.23
307.717	33.43
307.932	31.71
308.147	29.25
308.361	26.88
308.576	27.68
308.79	27.19
309.005	34.89
309.219	40.06
309.434	34.2
309.648	22.5
309.863	23.54
310.077	23.74
310.292	31.89
310.506	29.4
310.72	15.21
310.935	10.51
311.149	27.47
311.364	27.58
311.578	25.19
311.792	15.56
312.007	13
312.221	27.43
312.435	31.12
312.649	34.7
312.864	32.08
313.078	37.48
313.292	47.56
313.507	45.69
313.721	41.82
313.935	57.33
314.149	40.86
314.363	37.18
314.578	53.8
314.792	41.8
315.006	41.29
315.22	47.83
315.434	36.56
315.648	31.58
315.862	38.91
316.077	22.34
316.291	33.82
316.505	38.82
316.719	27.47
316.933	31.63
317.147	36.3
317.361	36.92
317.575	45.17
317.789	38.84
318.003	36.53
318.217	38.6
318.431	32.11
318.645	33.78
318.859	19.71
319.073	14.75
319.287	17.47
319.5	18.67
319.714	22.08
319.928	26.51
320.142	29.64
320.356	49.23
320.57	45.86
320.784	47.97
320.997	50.27
321.211	42.02
321.425	37.4
321.639	35.05
321.853	20.1
322.066	26.16
322.28	16.19
322.494	6.37
322.707	7.83
322.921	6.8
323.135	8.4
323.349	13.22
323.562	13.51
323.776	18.76
323.989	20.61
324.203	28.6
324.417	23.96
324.63	15.83
324.844	14.63
325.057	16.58
325.271	11.29
325.485	18.05
325.698	14.81
325.912	33.66
326.125	33.54
326.339	48.4
326.552	42.02
326.766	47.17
326.979	47.4
327.193	51.16
327.406	45.87
327.619	38.95
327.833	24.52
328.046	20.03
328.26	21.1
328.473	19.01
328.686	15.52
328.9	11.23
329.113	22.81
329.326	31.41
329.54	32.24
329.753	37.22
329.966	28.37
330.179	23.93
330.393	28.87
330.606	33.98
330.819	31.63
331.032	39.01
331.246	27.41
331.459	39.38
331.672	44.34
331.885	36.7
332.098	31.91
332.311	17.59
332.525	12.5
332.738	20.47
332.951	14.87
333.164	6.67
333.377	0.17
333.59	7.85
333.803	24.76
334.016	32.35
334.229	42.65
334.442	50.79
334.655	66.16
334.868	66.78
335.081	65.04
335.294	58.31
335.507	54.79
335.72	33.92
335.933	31.35
336.146	19.93
336.359	14.17
336.572	10.09
336.785	8.69
336.997	3.36
337.21	10.49
337.423	13.93
337.636	23.35
337.849	31.53
338.062	40.11
338.274	46.13
338.487	38.63
338.7	45.59
338.913	33.38
339.125	30.22
339.338	29.68
339.551	29.57
339.763	27.52
339.976	32.27
340.189	31.45
340.402	33.12
340.614	33.24
340.827	24.86
341.039	16.88
341.252	13.87
341.465	11.58
341.677	2.7
341.89	9.9
342.102	14.17
342.315	28.31
342.527	23.96
342.74	31.11
342.952	27.24
343.165	41.02
343.377	35.4
343.59	31.87
343.802	20.5
344.015	33.96
344.227	26.26
344.44	27.93
344.652	16.28
344.864	15.47
345.077	4.27
345.289	11.57
345.502	0.58
345.714	-2.17
345.926	2.09
346.139	14.59
346.351	-7.33
346.563	9.3
346.775	0.08
346.988	6.38
347.2	12.66
347.412	7.26
347.624	-0.27
347.837	13.8
348.049	6.06
348.261	7.49
348.473	-1.67
348.685	5.52
348.897	6.81
349.11	13.78
349.322	8.97
349.534	13.45
349.746	27.37
349.958	29.99
350.17	25.84
350.382	23.89
350.594	21.22
350.806	37.59
351.018	39.86
351.23	29.11
351.442	25.3
351.654	22.97
351.866	28.91
352.078	30.72
352.29	30.45
352.502	28.9
352.714	31.65
352.926	35.99
353.138	36.46
353.35	23.34
353.561	17.78
353.773	14.29
353.985	17.04
354.197	13.46
354.409	18.12
354.621	20.93
354.832	24.55
355.044	32.96
355.256	28.45
355.468	24.08
355.679	24.76
355.891	19.76
356.103	22.18
356.314	30.71
356.526	18.56
356.738	16.2
356.949	21.84
357.161	26.47
357.373	33.19
357.584	35.46
357.796	24.4
358.008	32.24
358.219	41.3
358.431	33.63
358.642	31.2
358.854	26.47
359.065	12.29
359.277	11.69
359.488	6.71
359.7	6.47
359.911	6.34
360.123	5.56
360.334	9.52
360.546	11.98
360.757	7.28
360.969	17.9
361.18	11.91
361.391	17.47
361.603	17.37
361.814	16.72
362.025	21.4
362.237	30.81
362.448	27.5
362.659	17
362.871	21.95
363.082	26.9
363.293	22.67
363.504	27.64
363.716	28.89
363.927	26.92
364.138	36.65
364.349	33.37
364.56	27.82
364.772	34.11
364.983	31.06
365.194	32.7
365.405	29.54
365.616	24
365.827	17.65
366.038	34.3
366.25	31.63
366.461	41.27
366.672	35
366.883	41.17
367.094	41.23
367.305	39.11
367.516	28.44
367.727	27.69
367.938	18.7
368.149	26.21
368.36	18.88
368.571	20.36
368.781	21.44
368.992	16.75
369.203	16.73
369.414	12.19
369.625	7.38
369.836	9.63
370.047	9.59
370.258	10.2
370.468	12.54
370.679	5.77
370.89	13
371.101	7.79
371.312	5.79
371.522	7.3
371.733	3.05
371.944	3.93
372.155	0.18
372.365	-1.93
372.576	-0.48
372.787	2.01
372.997	0.74
373.208	10.02
373.419	13.2
373.629	21.5
373.84	11.21
374.05	17.37
374.261	15.93
374.472	17.68
374.682	7.78
374.893	9.35
375.103	11.01
375.314	13.26
375.524	8.28
375.735	9.26
375.945	11.8
376.156	21.29
376.366	19.05
376.577	18.12
376.787	28.93
376.997	28.95
377.208	26.54
377.418	19.85
377.629	13.4
377.839	18.88
378.049	23.22
378.26	23.28
378.47	28.01
378.68	32.06
378.89	27.08
379.101	20.92
379.311	16.29
379.521	10.55
379.732	-2.75
379.942	-5.82
380.152	-7.15
380.362	5.24
380.572	14.02
380.783	14.3
380.993	18.42
381.203	26.02
381.413	28.28
381.623	30.14
381.833	26.13
382.043	15.54
382.253	15.17
382.463	12.69
382.674	10.7
382.884	7.34
383.094	5.19
383.304	3.14
383.514	12.91
383.724	13.09
383.934	10.09
384.144	14.81
384.353	17.76
384.563	9.83
384.773	10.14
384.983	9.72
385.193	6.95
385.403	11.36
385.613	3.98
385.823	1.62
386.033	8.89
386.242	11.17
386.452	10.42
386.662	12.92
386.872	8.21
387.082	9.89
387.291	10.09
387.501	7.79
387.711	7.76
387.921	5.83
388.13	6.04
388.34	5.87
388.55	6.89
388.759	5.67
388.969	5.9
389.179	8.65
389.388	10.14
389.598	9.36
389.807	11.68
390.017	9.72
390.227	8.65
390.436	9.64
390.646	7.95
390.855	6.48
391.065	5.89
391.274	2.42
391.484	4.03
391.693	5.7
391.903	3.73
392.112	1.79
392.322	3.81
392.531	3.85
392.74	3.98
392.95	4.97
393.159	4.93
393.369	5.99
393.578	7
393.787	6.16
393.997	6.88
394.206	7.45
394.415	6.48
394.625	5.67
394.834	4.7
395.043	4.9
395.252	4.85
395.462	4.67
395.671	5.14
395.88	5.28
396.089	5.83
396.298	6.18
396.508	5.49
396.717	5.35
396.926	4.76
397.135	3.98
397.344	3.3
397.553	3.11
397.762	2.61
397.971	2.79
398.181	2.5
398.39	3
398.599	3.55
398.808	3.89
399.017	3.79
399.226	4.22
399.435	4.05
399.644	4.15
399.853	4.05
400.062	3.85
400.27	3.93
400.479	3.91
400.688	3.85
400.897	4.12
401.106	4.32
401.315	4.15
401.524	4.29
401.733	4.2
401.941	4.09
402.15	3.8
402.359	3.72
402.568	3.59
402.777	3.64
402.985	3.43
403.194	3.49
403.403	3.47
403.612	3.54
403.82	3.58
404.029	3.58
404.238	3.58
404.446	3.63
404.655	3.41
404.864	3.39
405.072	3.37
405.281	3.18
405.489	3.2
405.698	3.12
405.906	3.09
406.115	3.3
406.324	3.26
406.532	3.31
406.741	3.37
406.949	3.2
407.158	3.25
407.366	3.36
407.574	3.21
407.783	3.22
407.991	3.13
408.2	3.06
408.408	3.12
408.617	3.11
408.825	3
409.033	3.04
409.242	3
409.45	3.05
409.658	3
409.867	2.97
410.075	2.9
410.283	2.85
410.491	2.82
410.7	2.89
410.908	2.79
411.116	2.77
411.324	2.86
411.533	2.75
411.741	2.74
411.949	2.81
412.157	2.79
412.365	2.87
412.573	2.91
412.781	2.89
412.99	2.98
413.198	3.03
413.406	2.93
413.614	2.87
413.822	2.84
414.03	2.74
414.238	2.74
414.446	2.71
414.654	2.71
414.862	2.7
415.07	2.79
415.278	2.74
415.486	2.96
415.694	2.83
415.902	2.79
416.109	2.78
416.317	2.79
416.525	2.82
416.733	2.91
416.941	2.77
417.149	2.94
417.357	3.01
417.564	2.89
417.772	2.89
417.98	2.73
418.188	2.51
418.395	2.52
418.603	2.36
418.811	2.24
419.019	2.4
419.226	2.5
419.434	2.55
419.642	2.7
419.849	2.69
420.057	2.7
420.265	2.8
420.472	2.65
420.68	2.52
420.887	2.54
421.095	2.54
421.302	2.66
421.51	2.71
421.717	2.76
421.925	2.7
422.132	2.69
422.34	2.62
422.547	2.6
422.755	2.53
422.962	2.46
423.17	2.37
423.377	2.45
423.585	2.47
423.792	2.51
423.999	2.47
424.207	2.41
424.414	2.5
424.621	2.45
424.829	2.46
425.036	2.44
425.243	2.44
425.451	2.5
425.658	2.58
425.865	2.48
426.072	2.64
426.28	2.62
426.487	2.6
426.694	2.58
426.901	2.49
427.108	2.44
427.315	2.47
427.523	2.36
427.73	2.42
427.937	2.42
428.144	2.45
428.351	2.61
428.558	2.51
428.765	2.43
428.972	2.45
429.179	2.35
429.386	2.48
429.593	2.45
429.8	2.43
430.007	2.55
430.214	2.68
430.421	2.69
430.628	2.58
430.835	2.48
431.042	2.55
431.249	2.44
431.456	2.47
431.662	2.43
431.869	2.5
432.076	2.59
432.283	2.56
432.49	2.46
432.697	2.51
432.903	2.49
433.11	2.51
433.317	2.46
433.524	2.46
433.73	2.47
433.937	2.44
434.144	2.58
434.35	2.56
434.557	2.54
434.764	2.52
434.97	2.58
435.177	2.56
435.384	2.66
435.59	2.5
435.797	2.48
436.003	2.47
436.21	2.46
436.416	2.48
436.623	2.54
436.829	2.51
437.036	2.59
437.242	2.66
437.449	2.69
437.655	2.77
437.862	2.7
438.068	2.71
438.275	2.71
438.481	2.76
438.687	2.78
438.894	2.78
439.1	2.69
439.307	2.69
439.513	2.68
439.719	2.73
439.926	2.7
440.132	2.63
440.338	2.67
440.544	2.7
440.751	2.72
440.957	2.69
441.163	2.66
441.369	2.65
441.575	2.65
441.782	2.6
441.988	2.61
442.194	2.71
442.4	2.75
442.606	2.78
442.812	2.8
443.018	2.81
443.224	2.86
443.431	2.89
443.637	2.8
443.843	2.85
444.049	2.84
444.255	2.77
444.461	2.74
444.667	2.68
444.873	2.66
445.079	2.67
445.284	2.61
445.49	2.6
445.696	2.71
445.902	2.83
446.108	2.86
446.314	2.89
446.52	2.96
446.726	3.02
446.931	3.06
447.137	3.02
447.343	2.96
447.549	2.96
447.755	2.91
447.96	2.86
448.166	2.84
448.372	2.79
448.578	2.78
448.783	2.76
448.989	2.76
449.195	2.77
449.4	2.79
449.606	2.73
449.812	2.81
450.017	2.83
450.223	2.83
450.428	2.85
450.634	2.89
450.84	2.86
451.045	2.92
451.251	2.92
451.456	2.91
451.662	2.91
451.867	2.95
452.073	2.91
452.278	2.91
452.483	2.89
452.689	2.87
452.894	2.9
453.1	2.87
453.305	2.82
453.51	2.85
453.716	2.87
453.921	2.86
454.127	2.83
454.332	2.8
454.537	2.89
454.742	2.91
454.948	2.94
455.153	2.97
455.358	3.02
455.563	3.07
455.769	3.09
455.974	2.98
456.179	2.98
456.384	2.96
456.589	2.95
456.795	2.85
457	2.85
457.205	2.83
457.41	2.86
457.615	2.89
457.82	2.96
458.025	2.94
458.23	3.02
458.435	2.98
458.64	3.06
458.845	3.07
459.05	3.04
459.255	3
459.46	3
459.665	3.06
459.87	3.08
460.075	3.02
460.28	3.06
460.485	3.11
460.69	3.01
460.895	3.04
461.099	3.02
461.304	3.01
461.509	2.98
461.714	2.99
461.919	2.94
462.123	3.07
462.328	3.09
462.533	3.03
462.738	3.04
462.942	3.13
463.147	3.14
463.352	3.18
463.556	3.18
463.761	3.14
463.966	3.2
464.17	3.21
464.375	3.17
464.58	3.08
464.784	3.06
464.989	3.03
465.193	3.04
465.398	3.04
465.602	3.04
465.807	3.09
466.011	3.17
466.216	3.23
466.42	3.31
466.625	3.34
466.829	3.34
467.034	3.35
467.238	3.36
467.443	3.36
467.647	3.35
467.851	3.3
468.056	3.32
468.26	3.3
468.464	3.29
468.669	3.31
468.873	3.32
469.077	3.36
469.282	3.39
469.486	3.42
469.69	3.48
469.894	3.58
470.099	3.54
470.303	3.56
470.507	3.54
470.711	3.53
470.915	3.54
471.119	3.53
471.324	3.5
471.528	3.59
471.732	3.57
471.936	3.61
472.14	3.66
472.344	3.65
472.548	3.69
472.752	3.69
472.956	3.68
473.16	3.7
473.364	3.66
473.568	3.66
473.772	3.75
473.976	3.75
474.18	3.75
474.384	3.75
474.588	3.77
474.792	3.81
474.995	3.81
475.199	3.77
475.403	3.78
475.607	3.8
475.811	3.8
476.015	3.84
476.218	3.85
476.422	3.87
476.626	3.86
476.83	3.87
477.033	3.9
477.237	3.9
477.441	3.91
477.644	3.9
477.848	3.91
478.052	3.93
478.255	3.93
478.459	3.97
478.663	4.03
478.866	4.01
479.07	4.06
479.273	4.05
479.477	4.07
479.681	4.06
479.884	4.02
480.088	3.99
480.291	4.01
480.495	4
480.698	3.99
480.901	3.99
481.105	4.06
481.308	4.09
481.512	4.09
481.715	4.12
481.919	4.14
482.122	4.22
482.325	4.24
482.529	4.26
482.732	4.27
482.935	4.32
483.138	4.33
483.342	4.33
483.545	4.31
483.748	4.33
483.952	4.3
484.155	4.33
484.358	4.31
484.561	4.33
484.764	4.36
484.967	4.41
485.171	4.38
485.374	4.42
485.577	4.44
485.78	4.48
485.983	4.44
486.186	4.44
486.389	4.4
486.592	4.42
486.795	4.38
486.998	4.38
487.201	4.35
487.404	4.45
487.607	4.44
487.81	4.48
488.013	4.47
488.216	4.47
488.419	4.41
488.622	4.4
488.825	4.35
489.028	4.35
489.231	4.32
489.433	4.34
489.636	4.32
489.839	4.4
490.042	4.43
490.245	4.41
490.447	4.42
490.65	4.45
490.853	4.44
491.056	4.44
491.258	4.46
491.461	4.41
491.664	4.41
491.866	4.44
492.069	4.44
492.272	4.44
492.474	4.47
492.677	4.43
492.879	4.49
493.082	4.55
493.285	4.53
493.487	4.54
493.69	4.51
493.892	4.54
494.095	4.51
494.297	4.54
494.5	4.55
494.702	4.56
494.905	4.56
495.107	4.61
495.309	4.57
495.512	4.6
495.714	4.58
495.917	4.56
496.119	4.61
496.321	4.68
496.524	4.71
496.726	4.74
496.928	4.8
497.13	4.85
497.333	4.89
497.535	4.84
497.737	4.8
497.939	4.8
498.142	4.82
498.344	4.8
498.546	4.82
498.748	4.8
498.95	4.8
499.152	4.81
499.355	4.82
499.557	4.85
499.759	4.9
499.961	4.91
500.163	4.94
500.365	4.97
500.567	4.98
500.769	4.99
500.971	4.99
501.173	5.01
501.375	5
501.577	5
501.779	5.04
501.981	5.08
502.183	5.08
502.385	5.09
502.587	5.07
502.788	5.1
502.99	5.11
503.192	5.13
503.394	5.17
503.596	5.23
503.798	5.29
503.999	5.34
504.201	5.35
504.403	5.4
504.605	5.44
504.806	5.44
505.008	5.44
505.21	5.45
505.411	5.47
505.613	5.51
505.815	5.55
506.016	5.57
506.218	5.61
506.42	5.66
506.621	5.71
506.823	5.73
507.024	5.73
507.226	5.72
507.427	5.72
507.629	5.74
507.83	5.71
508.032	5.75
508.233	5.8
508.435	5.82
508.636	5.84
508.838	5.91
509.039	5.94
509.24	6
509.442	5.92
509.643	5.91
509.845	5.94
510.046	5.97
510.247	5.97
510.448	5.98
510.65	6.03
510.851	6.11
511.052	6.13
511.254	6.13
511.455	6.16
511.656	6.14
511.857	6.17
512.058	6.19
512.26	6.22
512.461	6.23
512.662	6.25
512.863	6.25
513.064	6.3
513.265	6.32
513.466	6.36
513.667	6.37
513.868	6.41
514.069	6.44
514.27	6.45
514.471	6.47
514.672	6.49
514.873	6.51
515.074	6.54
515.275	6.53
515.476	6.56
515.677	6.63
515.878	6.68
516.079	6.7
516.28	6.68
516.481	6.66
516.682	6.73
516.882	6.73
517.083	6.71
517.284	6.72
517.485	6.75
517.686	6.78
517.886	6.86
518.087	6.88
518.288	6.9
518.488	6.95
518.689	6.94
518.89	6.98
519.091	7
519.291	6.99
519.492	7
519.692	7.04
519.893	7.04
520.094	7.1
520.294	7.09
520.495	7.14
520.695	7.15
520.896	7.16
521.096	7.18
521.297	7.2
521.497	7.18
521.698	7.2
521.898	7.2
522.099	7.22
522.299	7.22
522.499	7.24
522.7	7.28
522.9	7.32
523.101	7.36
523.301	7.37
523.501	7.4
523.702	7.42
523.902	7.41
524.102	7.41
524.302	7.44
524.503	7.47
524.703	7.49
524.903	7.5
525.103	7.54
525.304	7.57
525.504	7.59
525.704	7.58
525.904	7.58
526.104	7.58
526.304	7.62
526.504	7.61
526.705	7.64
526.905	7.69
527.105	7.7
527.305	7.66
527.505	7.7
527.705	7.71
527.905	7.72
528.105	7.75
528.305	7.74
528.505	7.8
528.705	7.83
528.905	7.85
529.105	7.9
529.304	7.94
529.504	7.92
529.704	7.94
529.904	7.96
530.104	7.99
530.304	8.02
530.503	8.02
530.703	8.11
530.903	8.15
531.103	8.18
531.303	8.19
531.502	8.21
531.702	8.19
531.902	8.24
532.101	8.2
532.301	8.22
532.501	8.26
532.7	8.3
532.9	8.38
533.1	8.41
533.299	8.46
533.499	8.47
533.698	8.51
533.898	8.53
534.097	8.55
534.297	8.54
534.496	8.6
534.696	8.59
534.895	8.66
535.095	8.68
535.294	8.71
535.494	8.76
535.693	8.81
535.892	8.82
536.092	8.85
536.291	8.9
536.491	8.94
536.69	8.95
536.889	8.94
537.088	8.94
537.288	8.97
537.487	9.06
537.686	9.09
537.886	9.13
538.085	9.2
538.284	9.27
538.483	9.34
538.682	9.39
538.882	9.38
539.081	9.39
539.28	9.42
539.479	9.47
539.678	9.54
539.877	9.57
540.076	9.63
540.275	9.68
540.474	9.67
540.673	9.7
540.872	9.73
541.071	9.75
541.27	9.74
541.469	9.74
541.668	9.81
541.867	9.94
542.066	9.99
542.265	10.06
542.464	10.13
542.663	10.26
542.862	10.35
543.06	10.38
543.259	10.41
543.458	10.45
543.657	10.5
543.856	10.51
544.054	10.54
544.253	10.56
544.452	10.58
544.651	10.63
544.849	10.72
545.048	10.75
545.247	10.78
545.445	10.82
545.644	10.91
545.843	10.96
546.041	11.05
546.24	11.1
546.438	11.18
546.637	11.31
546.836	11.4
547.034	11.44
547.233	11.55
547.431	11.59
547.63	11.65
547.828	11.7
548.027	11.7
548.225	11.76
548.423	11.85
548.622	11.92
548.82	12.01
549.019	12.08
549.217	12.18
549.415	12.31
549.614	12.37
549.812	12.45
550.01	12.53
550.209	12.64
550.407	12.75
550.605	12.81
550.803	12.9
551.002	12.98
551.2	13.06
551.398	13.13
551.596	13.18
551.794	13.31
551.993	13.38
552.191	13.48
552.389	13.62
552.587	13.7
552.785	13.84
552.983	13.95
553.181	14
553.379	14.1
553.577	14.21
553.775	14.3
553.973	14.43
554.171	14.48
554.369	14.57
554.567	14.69
554.765	14.75
554.963	14.85
555.161	14.95
555.359	15.02
555.557	15.15
555.755	15.24
555.952	15.35
556.15	15.47
556.348	15.57
556.546	15.67
556.744	15.81
556.941	15.95
557.139	16.12
557.337	16.21
557.535	16.37
557.732	16.45
557.93	16.55
558.128	16.63
558.325	16.71
558.523	16.79
558.721	16.96
558.918	17.11
559.116	17.25
559.313	17.38
559.511	17.55
559.708	17.67
559.906	17.8
560.104	17.95
560.301	18.06
560.498	18.21
560.696	18.35
560.893	18.49
561.091	18.6
561.288	18.72
561.486	18.81
561.683	18.9
561.88	18.99
562.078	19.12
562.275	19.22
562.473	19.36
562.67	19.47
562.867	19.61
563.064	19.76
563.262	19.97
563.459	20.07
563.656	20.2
563.853	20.32
564.051	20.46
564.248	20.54
564.445	20.66
564.642	20.75
564.839	20.97
565.036	21.14
565.234	21.3
565.431	21.44
565.628	21.62
565.825	21.73
566.022	21.83
566.219	21.85
566.416	21.92
566.613	22.02
566.81	22.09
567.007	22.13
567.204	22.24
567.401	22.37
567.598	22.51
567.795	22.62
567.991	22.76
568.188	22.84
568.385	23.01
568.582	23.14
568.779	23.25
568.976	23.35
569.172	23.51
569.369	23.57
569.566	23.68
569.763	23.76
569.96	23.82
570.156	23.82
570.353	23.88
570.55	23.9
570.746	23.98
570.943	24.08
571.14	24.13
571.336	24.17
571.533	24.31
571.729	24.36
571.926	24.42
572.123	24.46
572.319	24.5
572.516	24.55
572.712	24.65
572.909	24.69
573.105	24.75
573.302	24.78
573.498	24.83
573.695	24.9
573.891	24.94
574.087	24.98
574.284	25
574.48	25
574.677	25.05
574.873	25.13
575.069	25.25
575.266	25.27
575.462	25.27
575.658	25.35
575.854	25.41
576.051	25.41
576.247	25.39
576.443	25.34
576.639	25.37
576.835	25.43
577.032	25.41
577.228	25.44
577.424	25.47
577.62	25.5
577.816	25.48
578.012	25.5
578.208	25.49
578.404	25.53
578.6	25.53
578.796	25.56
578.993	25.57
579.189	25.57
579.384	25.56
579.58	25.52
579.776	25.5
579.972	25.5
580.168	25.43
580.364	25.43
580.56	25.51
580.756	25.48
580.952	25.51
581.148	25.54
581.343	25.52
581.539	25.53
581.735	25.49
581.931	25.45
582.127	25.41
582.322	25.36
582.518	25.24
582.714	25.23
582.909	25.2
583.105	25.23
583.301	25.15
583.496	25.08
583.692	25.12
583.888	25.12
584.083	25.2
584.279	25.26
584.474	25.17
584.67	25.18
584.866	25.25
585.061	25.21
585.257	25.26
585.452	25.13
585.648	25.08
585.843	25.09
586.039	25.06
586.234	25.04
586.429	25.04
586.625	24.97
586.82	24.97
587.015	24.93
587.211	24.93
587.406	24.99
587.601	25.04
587.797	25.01
587.992	25.08
588.187	25.09
588.383	25.13
588.578	25.14
588.773	25.11
588.968	25.11
589.163	25.16
589.359	25.11
589.554	25.1
589.749	25.12
589.944	25.13
590.139	25.16
590.334	25.16
590.529	25.24
590.724	25.31
590.919	25.42
591.114	25.48
591.309	25.56
591.504	25.58
591.699	25.6
591.894	25.61
592.089	25.7
592.284	25.65
592.479	25.66
592.674	25.65
592.869	25.78
593.064	25.86
593.259	25.83
593.454	25.82
593.648	25.94
593.843	25.99
594.038	26.01
594.233	26.05
594.428	26.12
594.622	26.22
594.817	26.3
595.012	26.34
595.206	26.43
595.401	26.49
595.596	26.51
595.79	26.56
595.985	26.66
596.18	26.8
596.374	26.88
596.569	26.99
596.763	27.21
596.958	27.28
597.153	27.36
597.347	27.42
597.542	27.45
597.736	27.54
597.931	27.62
598.125	27.63
598.319	27.74
598.514	27.81
598.708	27.93
598.903	28.03
599.097	28.1
599.291	28.15
599.486	28.21
599.68	28.28
599.874	28.41
600.069	28.48
600.263	28.52
600.457	28.56
600.651	28.62
600.846	28.67
601.04	28.65
601.234	28.62
601.428	28.64
601.622	28.66
601.817	28.74
602.011	28.75
602.205	28.76
602.399	28.82
602.593	28.89
602.787	28.87
602.981	28.84
603.175	28.79
603.369	28.76
603.563	28.74
603.757	28.77
603.951	28.73
604.145	28.74
604.339	28.82
604.533	28.81
604.727	28.82
604.921	28.83
605.115	28.74
605.309	28.74
605.502	28.75
605.696	28.65
605.89	28.63
606.084	28.59
606.278	28.53
606.471	28.46
606.665	28.44
606.859	28.33
607.053	28.24
607.246	28.15
607.44	28.08
607.634	28.01
607.827	27.98
608.021	27.83
608.214	27.75
608.408	27.7
608.602	27.68
608.795	27.56
608.989	27.51
609.182	27.47
609.376	27.42
609.569	27.32
609.763	27.31
609.956	27.2
610.15	27.18
610.343	27.09
610.537	26.99
610.73	26.94
610.923	26.9
611.117	26.7
611.31	26.61
611.504	26.52
611.697	26.44
611.89	26.27
612.083	26.18
612.277	26.05
612.47	25.99
612.663	25.93
612.856	25.83
613.05	25.73
613.243	25.69
613.436	25.54
613.629	25.43
613.822	25.38
614.015	25.25
614.209	25.19
614.402	25.09
614.595	25
614.788	24.92
614.981	24.87
615.174	24.77
615.367	24.67
615.56	24.54
615.753	24.45
615.946	24.41
616.139	24.36
616.332	24.28
616.525	24.22
616.718	24.19
616.911	24.09
617.103	24.06
617.296	23.98
617.489	23.93
617.682	23.88
617.875	23.73
618.067	23.59
618.26	23.53
618.453	23.43
618.646	23.35
618.838	23.21
619.031	23.13
619.224	23.11
619.417	23.1
619.609	23.08
619.802	23.05
619.994	22.93
620.187	22.93
620.38	22.86
620.572	22.82
620.765	22.77
620.957	22.65
621.15	22.6
621.342	22.63
621.535	22.53
621.727	22.51
621.92	22.47
622.112	22.45
622.305	22.47
622.497	22.42
622.69	22.35
622.882	22.38
623.074	22.32
623.267	22.26
623.459	22.17
623.651	22.11
623.844	22.09
624.036	22.08
624.228	22.03
624.42	22.04
624.613	22.03
624.805	22.05
624.997	22.03
625.189	22.01
625.381	21.96
625.574	21.88
625.766	21.82
625.958	21.77
626.15	21.73
626.342	21.65
626.534	21.59
626.726	21.52
626.918	21.48
627.11	21.45
627.302	21.36
627.494	21.31
627.686	21.31
627.878	21.26
628.07	21.18
628.262	21.15
628.454	21.07
628.646	21.09
628.838	21.01
629.029	20.92
629.221	20.84
629.413	20.82
629.605	20.75
629.797	20.74
629.989	20.68
630.18	20.63
630.372	20.59
630.564	20.64
630.755	20.61
630.947	20.58
631.139	20.46
631.33	20.41
631.522	20.34
631.714	20.33
631.905	20.28
632.097	20.25
632.289	20.25
632.48	20.25
632.672	20.25
632.863	20.27
633.055	20.24
633.246	20.2
633.438	20.19
633.629	20.19
633.821	20.24
634.012	20.22
634.203	20.19
634.395	20.21
634.586	20.2
634.777	20.19
634.969	20.16
635.16	20.11
635.351	20.08
635.543	20.12
635.734	20.08
635.925	20.13
636.117	20.09
636.308	20.06
636.499	20.05
636.69	20.13
636.881	20.11
637.073	20.12
637.264	20.05
637.455	20.1
637.646	20.13
637.837	20.18
638.028	20.15
638.219	20.13
638.41	20.13
638.601	20.13
638.792	20.1
638.983	20.06
639.174	20.04
639.365	19.98
639.556	19.95
639.747	19.96
639.938	19.96
640.129	19.94
640.32	19.94
640.511	19.91
640.701	19.88
640.892	19.91
641.083	19.88
641.274	19.88
641.465	19.89
641.655	19.9
641.846	19.82
642.037	19.83
642.228	19.75
642.418	19.68
642.609	19.63
642.8	19.58
642.99	19.55
643.181	19.59
643.372	19.56
643.562	19.56
643.753	19.59
643.943	19.53
644.134	19.52
644.324	19.51
644.515	19.47
644.705	19.48
644.896	19.45
645.086	19.39
645.277	19.42
645.467	19.38
645.658	19.32
645.848	19.28
646.038	19.19
646.229	19.17
646.419	19.19
646.61	19.18
646.8	19.15
646.99	19.07
647.18	19.07
647.371	19.02
647.561	19
647.751	18.91
647.941	18.85
648.132	18.83
648.322	18.88
648.512	18.92
648.702	18.95
648.892	18.95
649.082	18.96
649.272	18.91
649.462	18.9
649.653	18.87
649.843	18.8
650.033	18.71
650.223	18.69
650.413	18.65
650.603	18.64
650.793	18.58
650.983	18.54
651.172	18.44
651.362	18.43
651.552	18.35
651.742	18.28
651.932	18.24
652.122	18.21
652.312	18.06
652.502	18.04
652.691	18
652.881	17.98
653.071	17.86
653.261	17.76
653.45	17.64
653.64	17.64
653.83	17.5
654.019	17.29
654.209	17.12
654.399	17.02
654.588	16.92
654.778	16.81
654.968	16.62
655.157	16.41
655.347	16.31
655.536	16.11
655.726	15.97
655.915	15.78
656.105	15.64
656.294	15.46
656.484	15.36
656.673	15.19
656.863	15.06
657.052	14.85
657.241	14.66
657.431	14.45
657.62	14.23
657.809	14.05
657.999	13.89
658.188	13.68
658.377	13.59
658.567	13.45
658.756	13.28
658.945	13.09
659.134	12.9
659.324	12.65
659.513	12.49
659.702	12.22
659.891	11.97
660.08	11.77
660.269	11.66
660.458	11.52
660.648	11.39
660.837	11.26
661.026	11.14
661.215	11
661.404	10.87
661.593	10.73
661.782	10.55
661.971	10.39
662.16	10.2
662.349	10.02
662.538	9.91
662.726	9.76
662.915	9.6
663.104	9.44
663.293	9.29
663.482	9.18
663.671	9.07
663.86	8.94
664.048	8.84
664.237	8.7
664.426	8.65
664.615	8.57
664.803	8.43
664.992	8.37
665.181	8.36
665.369	8.2
665.558	8.21
665.747	8.16
665.935	8.12
666.124	8.14
666.312	8.02
666.501	7.86
666.69	7.84
666.878	7.74
667.067	7.68
667.255	7.64
667.444	7.58
667.632	7.6
667.82	7.59
668.009	7.61
668.197	7.6
668.386	7.57
668.574	7.52
668.762	7.48
668.951	7.45
669.139	7.45
669.327	7.48
669.516	7.51
669.704	7.56
669.892	7.58
670.08	7.58
670.269	7.59
670.457	7.59
670.645	7.61
670.833	7.66
671.021	7.64
671.21	7.72
671.398	7.78
671.586	7.86
671.774	7.92
671.962	7.93
672.15	7.9
672.338	7.96
672.526	7.99
672.714	8.05
672.902	7.99
673.09	8.06
673.278	8.1
673.466	8.26
673.654	8.3
673.842	8.37
674.03	8.45
674.218	8.63
674.405	8.73
674.593	8.81
674.781	8.8
674.969	8.89
675.157	8.96
675.344	9.04
675.532	9.12
675.72	9.14
675.908	9.21
676.095	9.35
676.283	9.47
676.471	9.56
676.658	9.67
676.846	9.79
677.033	9.9
677.221	10.03
677.409	10.15
677.596	10.27
677.784	10.39
677.971	10.47
678.159	10.58
678.346	10.64
678.534	10.82
678.721	10.89
678.909	10.97
679.096	11.08
679.283	11.26
679.471	11.41
679.658	11.67
679.846	11.79
680.033	11.95
680.22	12.13
680.408	12.31
680.595	12.4
680.782	12.53
680.969	12.65
681.157	12.81
681.344	13.04
681.531	13.19
681.718	13.38
681.905	13.67
682.093	13.93
682.28	14.16
682.467	14.33
682.654	14.4
682.841	14.65
683.028	14.86
683.215	15.04
683.402	15.2
683.589	15.39
683.776	15.7
683.963	16.02
684.15	16.28
684.337	16.48
684.524	16.72
684.711	16.99
684.898	17.29
685.085	17.59
685.271	17.94
685.458	18.39
685.645	18.79
685.832	19.23
686.019	19.68
686.205	20.11
686.392	20.44
686.579	20.83
686.766	21.18
686.952	21.75
687.139	22.2
687.326	22.64
687.512	23.1
687.699	23.73
687.886	24.25
688.072	24.74
688.259	25.22
688.445	25.71
688.632	26.33
688.818	26.94
689.005	27.53
689.191	28.16
689.378	28.76
689.564	29.37
689.751	30.11
689.937	30.67
690.124	31.37
690.31	31.93
690.496	32.62
690.683	33.35
690.869	34.05
691.055	34.76
691.242	35.47
691.428	36.19
691.614	37.07
691.8	37.8
691.987	38.54
692.173	39.4
692.359	40.1
692.545	40.85
692.731	41.6
692.918	42.27
693.104	43.05
693.29	43.85
693.476	44.44
693.662	45.24
693.848	45.94
694.034	46.55
694.22	47.35
694.406	48
694.592	48.63
694.778	49.39
694.964	50
695.15	50.75
695.336	51.64
695.522	52.32
695.708	53.02
695.894	53.85
696.08	54.52
696.265	55.24
696.451	56.09
696.637	56.65
696.823	57.28
697.009	58.01
697.194	58.53
697.38	59.19
697.566	59.82
697.751	60.35
697.937	60.98
698.123	61.62
698.308	62.13
698.494	62.67
698.68	63.3
698.865	64.01
699.051	64.53
699.236	65.11
699.422	65.64
699.607	66.21
699.793	66.65
699.978	67.01
700.164	67.39
700.349	67.75
700.535	68.13
700.72	68.68
700.906	69.18
701.091	69.66
701.276	70.03
701.462	70.51
701.647	70.99
701.832	71.36
702.018	71.63
702.203	71.83
702.388	72.18
702.573	72.82
702.759	73.15
702.944	73.47
703.129	73.84
703.314	74.26
703.499	74.87
703.684	75.45
703.87	75.69
704.055	76.02
704.24	76.32
704.425	76.8
704.61	76.89
704.795	77.07
704.98	77.17
705.165	77.36
705.35	77.53
705.535	78.07
705.72	78.23
705.905	78.59
706.09	78.79
706.275	79.02
706.459	79.38
706.644	79.68
706.829	79.71
707.014	79.94
707.199	80.01
707.384	80.17
707.568	80.44
707.753	80.66
707.938	80.8
708.123	80.85
708.307	81.32
708.492	81.39
708.677	81.78
708.861	82.1
709.046	81.99
709.231	82.47
709.415	82.79
709.6	82.5
709.784	83.02
709.969	83.12
710.153	83.3
710.338	83.6
710.522	83.58
710.707	83.41
710.891	83.9
711.076	83.8
711.26	84
711.445	83.84
711.629	84.24
711.813	83.98
711.998	84.52
712.182	84.67
712.366	85.09
712.551	85.27
712.735	85.44
712.919	85.55
713.103	85.97
713.288	86.07
713.472	86.16
713.656	85.96
713.84	85.94
714.024	86.24
714.208	86.22
714.393	86.4
714.577	86.49
714.761	86.51
714.945	86.62
715.129	86.93
715.313	86.86
715.497	86.9
715.681	87.2
715.865	87.33
716.049	87.57
716.233	88.17
716.417	88.11
716.601	88.26
716.785	88.32
716.968	88
717.152	88.14
717.336	87.89
717.52	87.89
717.704	87.81
717.888	87.97
718.071	88.2
718.255	88.61
718.439	88.4
718.622	88.63
718.806	88.3
718.99	88.7
719.174	88.83
719.357	88.83
719.541	88.83
719.724	88.98
719.908	89.08
720.092	89.43
720.275	89.33
720.459	89.49
720.642	89.73
720.826	89.93
721.009	90.02
721.193	90.39
721.376	90.26
721.559	90.38
721.743	90.6
721.926	90.36
722.11	90.41
722.293	90.22
722.476	89.97
722.66	90.08
722.843	90.25
723.026	90.15
723.21	90.08
723.393	89.99
723.576	90.32
723.759	90.46
723.942	90.67
724.126	90.66
724.309	90.65
724.492	91
724.675	91.06
724.858	91.33
725.041	91.33
725.224	91.58
725.407	91.08
725.59	91.18
725.774	91.39
725.957	91.77
726.14	91.66
726.322	91.58
726.505	91.61
726.688	92.35
726.871	92.56
727.054	92.61
727.237	92.2
727.42	92.68
727.603	92.83
727.786	92.8
727.968	92.82
728.151	93.07
728.334	93.22
728.517	93.75
728.699	93.77
728.882	94.28
729.065	94.53
729.248	94.36
729.43	94.12
729.613	93.98
729.796	93.81
729.978	93.67
730.161	93.92
730.343	94.02
730.526	94.28
730.708	94.48
730.891	94.82
731.073	94.94
731.256	95.3
731.438	95.37
731.621	95.67
731.803	96.04
731.986	95.92
732.168	95.87
732.35	96.06
732.533	96.16
732.715	95.86
732.898	95.62
733.08	95.81
733.262	96.29
733.444	96.32
733.627	96.47
733.809	96.48
733.991	96.99
734.173	96.8
734.355	96.85
734.538	96.7
734.72	97.43
734.902	97.06
735.084	96.77
735.266	96.47
735.448	96.87
735.63	96.68
735.812	96.95
735.994	96.42
736.176	96.85
736.358	97.49
736.54	97.64
736.722	97.71
736.904	97.81
737.086	97.31
737.268	97.74
737.45	97.79
737.632	97.52
737.814	97.26
737.995	97.56
738.177	97.84
738.359	98.36
738.541	97.67
738.723	97.98
738.904	97.5
739.086	98.24
739.268	98.14
739.449	97.74
739.631	98.13
739.813	98.65
739.994	98.82
740.176	99.2
740.358	98.86
740.539	98.7
740.721	98.7
740.902	97.78
741.084	97.7
741.265	97.45
741.447	97.32
741.628	97.54
741.81	97.71
741.991	97.85
742.172	98.26
742.354	98.78
742.535	98.64
742.717	98.71
742.898	98.66
743.079	98.81
743.261	99.59
743.442	99.52
743.623	98.89
743.804	98.95
743.986	99.12
744.167	98.45
744.348	98.38
744.529	97.7
744.71	97.91
744.891	97.9
745.073	97.79
745.254	97.97
745.435	98.26
745.616	97.72
745.797	97.39
745.978	97.94
746.159	97.82
746.34	97.87
746.521	97.3
746.702	97.25
746.883	97.29
747.064	97.07
747.245	97.47
747.426	97.84
747.606	97.94
747.787	98.76
747.968	99.25
748.149	99.68
748.33	100.88
748.51	99.8
748.691	99.77
748.872	99.37
749.053	98.45
749.233	97.95
749.414	97.89
749.595	96.53
749.775	96.73
749.956	95.93
750.137	95.9
750.317	96.36
750.498	96.3
750.678	96.39
750.859	97.19
751.04	96.88
751.22	96.86
751.4	97.3
751.581	97.53
751.761	98.19
751.942	98.46
752.122	98.35
752.303	98.6
752.483	99.77
752.663	99.77
752.844	99.34
753.024	98.77
753.204	97.58
753.385	96.9
753.565	96.24
753.745	95.88
753.925	95.21
754.106	95.88
754.286	95.91
754.466	96.68
754.646	97.08
754.826	97.34
755.006	97.21
755.187	97.68
755.367	97.01
755.547	97.24
755.727	96.47
755.907	96.62
756.087	96.41
756.267	96.35
756.447	96.51
756.627	96.35
756.807	96.38
756.987	97.79
757.167	97.11
757.346	96.5
757.526	96.89
757.706	96.75
757.886	97.05
758.066	96.66
758.246	95.54
758.425	96.25
758.605	96.77
758.785	96.2
758.965	95.48
759.144	95.4
759.324	95.43
759.504	95.62
759.683	94.97
759.863	95.71
760.043	95.34
760.222	95.29
760.402	95.66
760.581	95.62
760.761	94.95
760.94	94.94
761.12	93.88
761.299	94.12
761.479	95.17
761.658	94.75
761.838	94.72
762.017	95.92
762.197	96.6
762.376	97.05
762.555	96.98
762.735	95.53
762.914	95.28
763.093	95.62
763.273	95.22
763.452	95.14
763.631	94.13
763.81	94.36
763.99	94.8
764.169	94.89
764.348	95.21
764.527	94.83
764.706	95.55
764.885	96.73
765.064	96.98
765.243	96.75
765.423	97.69
765.602	96.99
765.781	97.01
765.96	96.05
766.139	95.63
766.318	95.25
766.497	95.68
766.676	94.7
766.854	93.79
767.033	93.48
767.212	93.19
767.391	92.82
767.57	92.79
767.749	92.68
767.928	92.01
768.106	92.28
768.285	92.12
768.464	92.56
768.643	93.6
768.821	92.67
769	93.94
769.179	93.91
769.357	93.64
769.536	93.47
769.715	93.08
769.893	92.48
770.072	92.78
770.25	91.22
770.429	92.1
770.607	93.41
770.786	93.54
770.964	92.88
771.143	92.16
771.321	91.82
771.5	91.63
771.678	91.32
771.857	89.15
772.035	89.39
772.213	90.61
772.392	91.51
772.57	92.02
772.748	91.98
772.927	92
773.105	93.53
773.283	91.87
773.461	90.27
773.64	89.13
773.818	87.87
773.996	87.62
774.174	87.11
774.352	86.78
774.531	87.59
774.709	89.38
774.887	89.93
775.065	91.03
775.243	92.44
775.421	92.52
775.599	91.98
775.777	92.07
775.955	90.8
776.133	90.22
776.311	90.44
776.489	89.45
776.667	89.08
776.844	89.42
777.022	88.73
777.2	89.47
777.378	90.85
777.556	90.9
777.734	91.18
777.911	92.62
778.089	91.96
778.267	91.82
778.445	89.99
778.622	89.05
778.8	88.46
778.978	87.05
779.155	85.16
779.333	83.99
779.511	86.02
779.688	85.88
779.866	85.15
780.043	85.32
780.221	85.67
780.398	87.39
780.576	88.68
780.753	86.88
780.931	88.33
781.108	89.68
781.286	89.51
781.463	89.12
781.64	88.36
781.818	87.95
781.995	89.33
782.172	87.91
782.35	85.63
782.527	87.31
782.704	88.61
782.882	89.1
783.059	89.38
783.236	89.16
783.413	89.67
783.59	90.45
783.768	88.64
783.945	88.78
784.122	86.56
784.299	87.09
784.476	87.47
784.653	87.11
784.83	86.2
785.007	85.81
785.184	86.33
785.361	86.56
785.538	86.83
785.715	85.79
785.892	86.15
786.069	87.25
786.246	86.04
786.423	85.47
786.6	86.18
786.776	83.3
786.953	82.75
787.13	83.75
787.307	83.57
787.484	85.39
787.66	84.81
787.837	84.22
788.014	86.13
788.191	86.49
788.367	84.14
788.544	85.03
788.721	86.18
788.897	89.13
789.074	89.39
789.25	90.53
789.427	91.67
789.603	95.44
789.78	95.87
789.956	94.06
790.133	92.05
790.309	91.91
790.486	92.1
790.662	93.36
790.839	93.42
791.015	93.94
791.192	94.28
791.368	93.91
791.544	93.68
791.721	91.42
791.897	90.6
792.073	87.95
792.249	88.98
792.426	87.93
792.602	87.39
792.778	86.89
792.954	88.65
793.13	88.16
793.307	87.12
793.483	85.39
793.659	87.76
793.835	87.56
794.011	89.04
794.187	88.53
794.363	87.56
794.539	88.56
794.715	88.44
794.891	84.48
795.067	83.55
795.243	84.19
795.419	84.64
795.595	83.45
795.771	83.08
795.947	82.26
796.122	84.41
796.298	84.88
796.474	86.01
796.65	83.79
796.826	87.03
797.001	87.26
797.177	88.18
797.353	91.41
797.529	92.41
797.704	88.98
797.88	89.6
798.056	88.39
798.231	89.97
798.407	90.66
798.582	88.04
798.758	90.09
798.934	91.09
799.109	91.3
799.285	92.23
799.46	91.1
799.636	91.92
799.811	93.34
799.986	91.83
800.162	91.31
800.337	91.06
800.513	89.65
800.688	92.8
800.863	91.02
801.039	85.94
801.214	83.57
801.389	82.27
801.565	86.09
801.74	84.65
801.915	80.73
802.09	80.4
802.265	82.46
802.441	83.89
802.616	85.18
802.791	83.69
802.966	85.11
803.141	84.16
803.316	84
803.491	83.85
803.666	83.81
803.841	85.27
804.016	82.88
804.191	84.85
804.366	86.5
804.541	83.16
804.716	79.71
804.891	81.15
805.066	81.12
805.241	81.72
805.416	79.88
805.591	82.27
805.765	84.98
805.94	93.13
806.115	87.19
806.29	82.79
806.464	81.7
806.639	82.24
806.814	77.68
806.989	77.17
807.163	73.19
807.338	76.39
807.512	75.55
807.687	75.23
807.862	74.21
808.036	77.42
808.211	78.21
808.385	77.49
808.56	81.54
808.734	85.91
808.909	87.46
809.083	82.87
809.258	86.63
809.432	84.1
809.606	82.49
809.781	76.03
809.955	76.9
810.13	77.41
810.304	81.42
810.478	75.82
810.652	77.33
810.827	78.98
811.001	81.71
811.175	77.88
811.349	74.35
811.524	71.54
811.698	75.28
811.872	75.74
812.046	72.5
812.22	70.7
812.394	72.27
812.568	76.52
812.742	79.26
812.916	74.15
813.09	72.55
813.264	78.48
813.438	86.54
813.612	86.26
813.786	89.1
813.96	91.06
814.134	91.91
814.308	92.54
814.482	90.43
814.656	85.14
814.83	87.58
815.003	83.94
815.177	84.08
815.351	86.92
815.525	86.71
815.698	81.82
815.872	80.46
816.046	75.87
816.219	79.49
816.393	74.7
816.567	69.4
816.74	69.4
816.914	72.45
817.088	71.22
817.261	77.09
817.435	70.13
817.608	69.7
817.782	80.32
817.955	80.22
818.129	77.08
818.302	75.65
818.475	74.32
818.649	77.01
818.822	81.6
818.996	71.13
819.169	72.37
819.342	73.36
819.516	73.06
819.689	72.96
819.862	71.42
820.035	69.62
820.209	68.64
820.382	66.1
820.555	72.72
820.728	72.72
820.901	71.31
821.075	77.61
821.248	78.36
821.421	78.78
821.594	79.55
821.767	75.34
821.94	75.9
822.113	78.09
822.286	76.17
822.459	85.17
822.632	91.99
822.805	87.67
822.978	83.35
823.151	84.44
823.324	75.51
823.496	67.13
823.669	61.17
823.842	60.78
824.015	63.59
824.188	66.34
824.361	69.14
824.533	74.01
824.706	89.94
824.879	86.38
825.051	84.01
825.224	89.82
825.397	89.87
825.569	90.4
825.742	95.5
825.915	83.63
826.087	79.97
826.26	86.14
826.432	85.1
826.605	80.99
826.777	82.3
826.95	72.25
827.122	75.75
827.295	78.5
827.467	66.5
827.64	58.8
827.812	67.93
827.984	72.03
828.157	72.24
828.329	74.43
828.501	71.92
828.674	76.36
828.846	83.59
829.018	69.87
829.19	64.67
829.363	67.46
829.535	67.88
829.707	65.49
829.879	58.83
830.051	56.62
830.223	60.56
830.395	57.42
830.568	61.94
830.74	54.72
830.912	59.93
831.084	59.71
831.256	54.11
831.428	53.58
831.6	59.98
831.772	53.36
831.943	60.77
832.115	61.22
832.287	58.48
832.459	64.9
832.631	74.84
832.803	79.61
832.975	84.33
833.146	79.85
833.318	77.56
833.49	92.85
833.662	91.86
833.833	84.26
834.005	73.89
834.177	72.86
834.348	75.28
834.52	74.36
834.692	68.58
834.863	63.76
835.035	66.44
835.206	63.75
835.378	65.95
835.549	73.03
835.721	73.45
835.892	71.25
836.064	71.21
836.235	73.98
836.407	71.47
836.578	70.76
836.749	61.3
836.921	58.21
837.092	72.38
837.264	66.94
837.435	58.35
837.606	60.88
837.777	50.44
837.949	50.52
838.12	53.28
838.291	46.75
838.462	54.6
838.633	57.97
838.805	57.59
838.976	65.09
839.147	64.31
839.318	63.08
839.489	61.86
839.66	68.8
839.831	62.15
840.002	66.48
840.173	76.45
840.344	88.59
840.515	82.45
840.686	80.19
840.857	70.88
841.028	82.78
841.199	81.76
841.369	73.7
841.54	68.54
841.711	71.9
841.882	70.54
842.053	74.99
842.223	67.46
842.394	66.13
842.565	79.95
842.736	86.36
842.906	96.28
843.077	95.15
843.248	93.18
843.418	96.33
843.589	104.2
843.759	104.27
843.93	95.67
844.101	90.42
844.271	86.35
844.442	85.97
844.612	71.96
844.783	46.34
844.953	35.77
845.123	48.18
845.294	45.83
845.464	53.25
845.635	53.1
845.805	69.4
845.975	80.83
846.146	79.83
846.316	87.22
846.486	82.63
846.656	88.68
846.827	88.97
846.997	93.31
847.167	95.47
847.337	107.86
847.507	96.06
847.677	107.33
847.848	100.45
848.018	92.33
848.188	72.46
848.358	76.01
848.528	71.43
848.698	59.08
848.868	38.63
849.038	51.72
849.208	74.06
849.378	74.82
849.548	72.83
849.718	69.54
849.887	66.39
850.057	69.89
850.227	69
850.397	52.42
850.567	83.24
850.737	76.88
850.906	68.17
851.076	81.04
851.246	79.8
851.415	71.98
851.585	71.51
851.755	54.56
851.924	56.33
852.094	57.18
852.264	52.2
852.433	57.17
852.603	77.7
852.772	77.29
852.942	68.59
853.111	75.41
853.281	70.77
853.45	74.24
853.62	68.2
853.789	46.04
853.959	48.29
854.128	44.69
854.297	39.8
854.467	42.37
854.636	44.82
854.805	50.87
854.975	65.03
855.144	70.44
855.313	74.93
855.482	76.17
855.652	77.11
855.821	83.43
855.99	82.36
856.159	73.48
856.328	69.27
856.497	73.78
856.667	68.6
856.836	64.7
857.005	54.66
857.174	67.45
857.343	68.93
857.512	55.79
857.681	50.53
857.85	41.29
858.019	46.63
858.188	45.81
858.356	14.74
858.525	33.07
858.694	58.63
858.863	62.06
859.032	63.38
859.201	69.54
859.369	61.7
859.538	64.89
859.707	57.32
859.876	46.13
860.044	54.74
860.213	74.15
860.382	62.38
860.55	79.63
860.719	91.67
860.888	87.53
861.056	94.77
861.225	95.92
861.393	86.38
861.562	80.18
861.73	82.81
861.899	62.29
862.067	68.9
862.236	70.68
862.404	59.33
862.572	51.81
862.741	55.64
862.909	49.79
863.078	52.64
863.246	52.74
863.414	39.89
863.582	50.82
863.751	45.66
863.919	48.02
864.087	50.55
864.255	66.23
864.424	72.11
864.592	79.81
864.76	73.53
864.928	80.73
865.096	87.55
865.264	93.29
865.432	83.86
865.6	79.53
865.768	62.91
865.936	67.1
866.104	87.01
866.272	80.04
866.44	36.89
866.608	33.61
866.776	38.12
866.944	53.37
867.112	15.19
867.28	3.84
867.448	20.39
867.615	38.73
867.783	36.84
867.951	49.35
868.119	32.11
868.286	62.58
868.454	55.85
868.622	57.09
868.789	59.56
868.957	64.82
869.125	53.22
869.292	76.95
869.46	68.23
869.627	56.5
869.795	44.39
869.963	42.87
870.13	34.41
870.298	44.46
870.465	19.68
870.632	53.54
870.8	46.78
870.967	49.33
871.135	64.68
871.302	57.93
871.469	56.44
871.637	54.75
871.804	53.5
871.971	54.84
872.139	61.49
872.306	49.34
872.473	59.16
872.64	72.88
872.807	76.9
872.975	91.15
873.142	85.16
873.309	119.6
873.476	169.93
873.643	172.95
873.81	104.35
873.977	50.03
874.144	7.05
874.311	36.76
874.478	-10.94
874.645	-7.68
874.812	8.26
874.979	-21.19
875.146	-24.62
875.313	-60.13
875.48	-13.75
875.647	-62.46
875.813	-67.87
875.98	-73.25
876.147	20.36
876.314	40.44
876.481	58.38
876.647	61.54
876.814	82.64
876.981	89.1
877.147	94.39
877.314	93.63
877.481	88.99
877.647	84.96
877.814	71.41
877.98	95.28
878.147	84.65
878.314	105.14
878.48	111.08
878.647	120.02
878.813	133.13
878.979	156.44
879.146	107.83
879.312	107.33
879.479	71.9
879.645	55.89
879.811	20.11
879.978	15.59
880.144	25.19
880.31	2.56
880.477	25.51
880.643	103.96
880.809	100.12
880.975	109.6
881.142	75.83
881.308	124.06
881.474	195.02
881.64	149.23
881.806	91.47
881.972	154.23
882.138	153.22
882.304	168.56
882.47	74.97
882.636	-5.33
882.802	33.88
882.968	46.67
883.134	-92.1
883.3	15.52
883.466	57
883.632	34.75
883.798	66.54
883.964	62.14
884.129	62.08
884.295	50.17
884.461	47.94
884.627	41.75
884.793	79.21
884.958	66.22
885.124	23.85
885.29	11.15
885.455	22.14
885.621	24.42
885.787	12.22
885.952	-8.45
886.118	-9.95
886.283	17.99
886.449	36.41
886.614	60.3
886.78	62.8
886.945	70.17
887.111	89.64
887.276	100.05
887.442	93.98
887.607	93.04
887.773	49.04
887.938	68.77
888.103	86.43
888.269	74.45
888.434	64.99
888.599	75.25
888.764	78.43
888.93	104.9
889.095	90.88
889.26	88.6
889.425	96.52
889.59	91.92
889.756	76.27
889.921	49.17
890.086	42.22
890.251	12.21
890.416	-15.91
890.581	-6.19
890.746	-18.72
890.911	-62.51
891.076	-61.76
891.241	-73.33
891.406	21.77
891.571	42.94
891.736	20.54
891.901	57.98
892.065	86.26
892.23	67.65
892.395	44.17
892.56	32.68
892.725	47.52
892.889	73.77
893.054	22.72
893.219	-2.26
893.384	-17.45
893.548	-34.17
893.713	-47.77
893.878	197.83
