Data from Ofra_PS_T2_1A_9CX06_Reflection_2.txt Node
Date: Wed Jul 21 18:18:45 EDT 2021
User: Adam
Spectrometer: FLMT01687
Trigger mode: 0
Integration Time (sec): 1.100000E0
Scans to average: 2
Electric dark correction enabled: true
Nonlinearity correction enabled: false
Boxcar width: 2
XAxis mode: Wavelengths
Number of Pixels in Spectrum: 3648
>>>>>Begin Spectral Data<<<<<
179.494	489.4
179.716	551.76
179.937	498.14
180.158	469.19
180.38	715.47
180.601	310.91
180.823	103.26
181.044	61.97
181.265	296.87
181.486	106.64
181.708	106.41
181.929	346.43
182.15	-15.14
182.372	210.22
182.593	102.87
182.814	42.04
183.035	40.39
183.257	14.99
183.478	-68.03
183.699	2.81
183.92	-7.22
184.141	-12.65
184.363	-15.36
184.584	7.83
184.805	9.06
185.026	61.81
185.247	71.24
185.468	42.43
185.689	53.84
185.91	75.1
186.132	70.98
186.353	58.5
186.574	120.01
186.795	89.59
187.016	40.11
187.237	14.42
187.458	11.16
187.679	1.21
187.9	35.95
188.121	38.48
188.342	73.95
188.563	89.39
188.784	115.99
189.005	77.57
189.226	95.65
189.447	74.48
189.667	-54.73
189.888	-275.74
190.109	-804.87
190.33	-382.42
190.551	-805.97
190.772	-176.21
190.993	-125.72
191.214	-119.6
191.434	-98.59
191.655	-21.56
191.876	-34.41
192.097	-98.91
192.318	-139.29
192.538	-228.37
192.759	-145.71
192.98	-51.37
193.201	-4.14
193.421	18.6
193.642	30.98
193.863	22.72
194.083	-8.31
194.304	-18.18
194.525	-35.71
194.745	-55.12
194.966	-52.18
195.187	-45.41
195.407	-50.27
195.628	-88.44
195.848	-86.52
196.069	-69.28
196.29	-40.45
196.51	-60.26
196.731	-37.75
196.951	-14.83
197.172	-14.52
197.392	-59.41
197.613	-51.98
197.833	-79.06
198.054	-85.12
198.274	-54.73
198.495	-58.97
198.715	-34.94
198.936	-51.45
199.156	-41.26
199.377	-141.69
199.597	-105.4
199.817	-111.02
200.038	-70.6
200.258	-148.84
200.479	-66.59
200.699	-72.92
200.919	-9.89
201.14	0.49
201.36	0.49
201.58	39.35
201.801	41.93
202.021	2.17
202.241	-0.92
202.461	-8.6
202.682	-133.34
202.902	-181.75
203.122	-92.44
203.342	-98.47
203.563	-24.09
203.783	6.66
204.003	-34.65
204.223	-25.77
204.443	19.56
204.663	-15.84
204.884	-12.08
205.104	41.85
205.324	33.61
205.544	45.12
205.764	32.27
205.984	18.88
206.204	19.24
206.424	8.83
206.644	-29.59
206.864	-6.23
207.084	-15.84
207.304	17.74
207.525	29.45
207.745	15.43
207.964	40.95
208.184	-4.24
208.404	-45.4
208.624	-55.27
208.844	-62.04
209.064	-365.38
209.284	-400.71
209.504	-231.66
209.724	-56.74
209.944	-19.58
210.164	25.44
210.384	44.64
210.604	45.6
210.823	-8.51
211.043	-23.97
211.263	-20.7
211.483	-15.61
211.703	-51.99
211.922	-4.01
212.142	46.18
212.362	67.96
212.582	52.05
212.801	48.46
213.021	19.98
213.241	-15.64
213.461	-28.53
213.68	-32.68
213.9	-18.76
214.12	-19.7
214.339	-56.29
214.559	-59.77
214.779	-15.47
214.998	-10.45
215.218	-45.92
215.438	-2.15
215.657	5.11
215.877	-19.18
216.096	2.08
216.316	34.02
216.535	14.63
216.755	8.51
216.974	-32.04
217.194	-72.03
217.413	-121.23
217.633	-119.1
217.852	-238.15
218.072	-79.72
218.291	-25.83
218.511	27.02
218.73	19.21
218.95	35.7
219.169	8.05
219.389	-26.61
219.608	-22.08
219.827	-15.51
220.047	-9.74
220.266	0.66
220.485	16.07
220.705	3.16
220.924	-15.79
221.143	11.07
221.363	-6.11
221.582	-7.42
221.801	6.15
222.021	24.74
222.24	-33.76
222.459	43.07
222.678	10.82
222.897	-57.71
223.117	-105.58
223.336	-75.75
223.555	-47.94
223.774	-26.22
223.993	11.29
224.213	42.99
224.432	31.98
224.651	39.21
224.87	29.11
225.089	29.3
225.308	30.74
225.527	48.67
225.746	36.45
225.965	26.18
226.184	6.73
226.404	10.91
226.623	-14.84
226.842	-2.13
227.061	26.45
227.28	36.09
227.499	33.37
227.718	32.38
227.936	27.67
228.155	24.65
228.374	6.65
228.593	9.04
228.812	21.02
229.031	19.52
229.25	-10.07
229.469	7.67
229.688	42.51
229.907	42.82
230.125	53.82
230.344	58.53
230.563	38.67
230.782	39.48
231.001	-33.86
231.22	-28.13
231.438	-29.26
231.657	-5.94
231.876	-10.64
232.095	38.27
232.313	30.53
232.532	25.35
232.751	-11.65
232.969	-31.45
233.188	-125.5
233.407	-57.41
233.625	-29.79
233.844	-43.46
234.063	-29.45
234.281	1.94
234.5	-5.16
234.719	7.27
234.937	26.51
235.156	21.28
235.374	16.63
235.593	7.06
235.811	9.02
236.03	15.15
236.249	6.92
236.467	21.59
236.686	31.68
236.904	26.4
237.123	4.49
237.341	7.82
237.559	0.86
237.778	-6.55
237.996	-22.5
238.215	15.55
238.433	17.28
238.652	20.14
238.87	-7.14
239.088	-2.82
239.307	-14.27
239.525	-14.7
239.743	-49.19
239.962	-59.89
240.18	-61.75
240.398	-104.04
240.617	-110.55
240.835	-52.41
241.053	-25.33
241.271	29.37
241.49	47.52
241.708	39.61
241.926	-0.99
242.144	14.9
242.363	-57.82
242.581	-89.61
242.799	-25.86
243.017	12.32
243.235	-13.14
243.453	15.87
243.672	26.45
243.89	-2.99
244.108	-19.04
244.326	3.78
244.544	8.55
244.762	7.53
244.98	36.87
245.198	50.33
245.416	32.25
245.634	13.85
245.852	2.5
246.07	-0.47
246.288	-19.46
246.506	-31.15
246.724	-6.24
246.942	11.74
247.16	27.26
247.378	44.35
247.596	52.83
247.814	52.33
248.032	6.14
248.25	-4.19
248.468	-8.35
248.685	12.83
248.903	29.73
249.121	51.31
249.339	34.23
249.557	29.98
249.775	19.84
249.992	-36.87
250.21	-39.87
250.428	-27.5
250.646	-45.53
250.863	-74.17
251.081	-38.13
251.299	-39.61
251.517	-40.37
251.734	-22.58
251.952	-21.03
252.17	-25.11
252.387	-8.14
252.605	-8.7
252.823	-12.17
253.04	17.14
253.258	29.56
253.475	25.44
253.693	27.84
253.911	47.35
254.128	43.12
254.346	54.05
254.563	33.12
254.781	17.18
254.998	-4.3
255.216	-29.5
255.433	-28.6
255.651	16.61
255.868	43.14
256.086	66.51
256.303	56.46
256.521	32.28
256.738	6.3
256.956	-18.23
257.173	-57.19
257.39	-50.59
257.608	-54.98
257.825	23.29
258.043	59.62
258.26	59.1
258.477	72.49
258.695	61.72
258.912	-16.05
259.129	-5.48
259.346	-30.89
259.564	-57.51
259.781	-59.88
259.998	-2.78
260.216	-1.51
260.433	18.66
260.65	21.32
260.867	38.87
261.084	6.89
261.302	9.27
261.519	19.44
261.736	-7.2
261.953	-48.66
262.17	-4.24
262.387	-36.19
262.604	-61.7
262.822	-48.39
263.039	-6.86
263.256	-37.96
263.473	-12.74
263.69	4.63
263.907	24.77
264.124	30.29
264.341	13.61
264.558	9.35
264.775	9.73
264.992	6.39
265.209	16.13
265.426	45.19
265.643	52.17
265.86	77.26
266.077	76.63
266.294	70.97
266.51	12.1
266.727	-12.23
266.944	-32.55
267.161	-42.51
267.378	-63.15
267.595	-16.56
267.812	-32.99
268.028	-39.63
268.245	-20.32
268.462	-10.39
268.679	-21.08
268.896	26.34
269.112	25.52
269.329	18.16
269.546	17.57
269.763	25.47
269.979	22.31
270.196	23.76
270.413	-0.11
270.629	-16.38
270.846	-48.72
271.063	-63.07
271.279	-82.18
271.496	-54.44
271.712	-15.64
271.929	10.9
272.146	16.08
272.362	20.84
272.579	28.81
272.795	26.52
273.012	24.35
273.228	26.81
273.445	5.99
273.661	-23.45
273.878	-35
274.094	-27.09
274.311	-38.97
274.527	19.55
274.744	26.14
274.96	14.8
275.177	7
275.393	17.22
275.609	13.68
275.826	34.21
276.042	32.8
276.259	34.42
276.475	38.91
276.691	33.36
276.908	8.04
277.124	21.54
277.34	31.14
277.557	27.72
277.773	19.35
277.989	19.81
278.205	13.56
278.422	14.25
278.638	6.6
278.854	15.32
279.07	33.63
279.286	24.85
279.503	-0.56
279.719	-2.41
279.935	-20.54
280.151	-58.38
280.367	-37.39
280.583	-58.76
280.799	-49.49
281.016	-74.05
281.232	-12.28
281.448	-6.91
281.664	18.3
281.88	6.92
282.096	24.64
282.312	18.62
282.528	6.27
282.744	28.48
282.96	14.03
283.176	14.65
283.392	5.42
283.608	-0.38
283.824	-8.66
284.04	13.51
284.256	17.41
284.471	23.8
284.687	34.68
284.903	52.76
285.119	66.66
285.335	40.87
285.551	26.72
285.767	-5.48
285.982	-29.29
286.198	-75.14
286.414	-14.07
286.63	1.07
286.846	38.98
287.061	29.74
287.277	53.3
287.493	20.27
287.709	24.92
287.924	2.74
288.14	37.4
288.356	21.6
288.571	36.89
288.787	26.91
289.003	25.25
289.218	5.69
289.434	-17.62
289.65	-9.7
289.865	-21.31
290.081	-1.97
290.296	5.67
290.512	28.3
290.727	4.96
290.943	6.12
291.159	-1.24
291.374	0.22
291.59	-3.77
291.805	7.56
292.021	25.47
292.236	21.73
292.451	30.72
292.667	22.31
292.882	32.57
293.098	24.67
293.313	14.96
293.529	2.2
293.744	-16.11
293.959	-15.03
294.175	-17.7
294.39	9.65
294.605	8.71
294.821	23.2
295.036	13.75
295.251	33.8
295.467	0.65
295.682	-4.19
295.897	-38.14
296.112	-43.99
296.328	-55.25
296.543	-25.4
296.758	-26.62
296.973	16.3
297.188	38.04
297.404	14.08
297.619	-23.46
297.834	-28.1
298.049	-59.04
298.264	-69.52
298.479	-20.4
298.694	8.08
298.909	20.64
299.125	28.74
299.34	32.69
299.555	10.94
299.77	9.95
299.985	-22.58
300.2	-57.47
300.415	-68.79
300.63	-42.29
300.845	-50.12
301.06	-41.77
301.275	-7.29
301.49	5.45
301.704	-7.23
301.919	-11.26
302.134	-12.63
302.349	-22.81
302.564	-75.37
302.779	-80.9
302.994	-97.14
303.209	-39.75
303.423	-23.68
303.638	22.59
303.853	7.41
304.068	-1.96
304.283	-7.21
304.497	-7.66
304.712	-9.77
304.927	-2.71
305.142	8.31
305.356	11.68
305.571	3.14
305.786	-7.58
306	-27.26
306.215	-26.09
306.43	-47.25
306.644	-30.38
306.859	0.74
307.074	16.91
307.288	-16.44
307.503	-11.89
307.717	-24.22
307.932	-43.39
308.147	-40.93
308.361	-10.4
308.576	-18.75
308.79	-45.78
309.005	-23.54
309.219	-15.67
309.434	-33.74
309.648	-34.69
309.863	-8.9
310.077	-9.97
310.292	-8.94
310.506	1.11
310.72	15.61
310.935	17.89
311.149	18.7
311.364	32.52
311.578	42.94
311.792	34.07
312.007	35.1
312.221	18.73
312.435	8.93
312.649	-7.01
312.864	18.62
313.078	38.95
313.292	101.03
313.507	105.07
313.721	143.86
313.935	55.15
314.149	35.93
314.363	14.18
314.578	4.46
314.792	1.73
315.006	-3.54
315.22	8.44
315.434	16.4
315.648	28.8
315.862	25.58
316.077	29.81
316.291	23.16
316.505	23.36
316.719	22.24
316.933	9.27
317.147	9.36
317.361	-31.86
317.575	-65.14
317.789	-99.14
318.003	-140.86
318.217	-94.34
318.431	-21.32
318.645	38.87
318.859	35.17
319.073	61.48
319.287	41.41
319.5	7.65
319.714	-36.19
319.928	-50.74
320.142	-84.04
320.356	-37.79
320.57	26.88
320.784	18.47
320.997	11.72
321.211	8.65
321.425	-58.32
321.639	-111.27
321.853	-39.61
322.066	-24.07
322.28	-16.83
322.494	10.21
322.707	30.66
322.921	11.07
323.135	17.21
323.349	17.68
323.562	-16.74
323.776	-25.39
323.989	-33.78
324.203	-67.29
324.417	-81.92
324.63	-83.48
324.844	-75.57
325.057	-72.14
325.271	-44.52
325.485	-5.1
325.698	20.89
325.912	37.26
326.125	23.49
326.339	23.68
326.552	4.85
326.766	-1.87
326.979	14.6
327.193	42.94
327.406	36.6
327.619	27.44
327.833	30.7
328.046	-3.95
328.26	-42.58
328.473	-17.33
328.686	-48.65
328.9	-41.58
329.113	-19.93
329.326	-17.53
329.54	-32.88
329.753	-27.41
329.966	-41.66
330.179	-33.07
330.393	-18.84
330.606	-3.91
330.819	17.79
331.032	23.3
331.246	27.49
331.459	51.1
331.672	44.67
331.885	41.49
332.098	33.67
332.311	12.44
332.525	-45.02
332.738	-31.94
332.951	-21.93
333.164	-8.35
333.377	7.37
333.59	37.37
333.803	26.53
334.016	12.44
334.229	14.35
334.442	25.15
334.655	32.38
334.868	55.57
335.081	61.72
335.294	36.94
335.507	21.38
335.72	0.25
335.933	-21.44
336.146	-33.78
336.359	-19.73
336.572	-37.95
336.785	-56.86
336.997	-37.1
337.21	-7.53
337.423	-22.59
337.636	-12.24
337.849	1.91
338.062	-14.84
338.274	-16.75
338.487	-14.75
338.7	-10.99
338.913	-39.98
339.125	-44.34
339.338	-83.44
339.551	-58.69
339.763	-41.78
339.976	-8.87
340.189	9.87
340.402	9.76
340.614	3.01
340.827	0.55
341.039	-15.37
341.252	-26.34
341.465	-12.79
341.677	-9.76
341.89	-58.23
342.102	-20.43
342.315	-26.85
342.527	-44.75
342.74	-33.2
342.952	2.17
343.165	-10.07
343.377	5.34
343.59	5.02
343.802	16.94
344.015	25.45
344.227	31.96
344.44	35.41
344.652	39.24
344.864	25.34
345.077	33.77
345.289	39.51
345.502	34.83
345.714	24.04
345.926	29.6
346.139	17.52
346.351	15.69
346.563	29.74
346.775	41.1
346.988	19.85
347.2	13.34
347.412	-26.24
347.624	-74.81
347.837	-96.83
348.049	-66.22
348.261	-36.62
348.473	-20.98
348.685	4.13
348.897	4.61
349.11	-9.18
349.322	-21.35
349.534	-6.79
349.746	-5.82
349.958	8.77
350.17	7.64
350.382	16.17
350.594	12.04
350.806	8.34
351.018	4.18
351.23	-3.35
351.442	-24.92
351.654	-37.56
351.866	-19.36
352.078	-16.82
352.29	11.34
352.502	19.65
352.714	16.71
352.926	0.74
353.138	-3.3
353.35	-17.23
353.561	-27.3
353.773	-27.37
353.985	-3.02
354.197	-2.67
354.409	-7.08
354.621	-4.84
354.832	-7.46
355.044	-26.38
355.256	-32.79
355.468	-12.96
355.679	-23.85
355.891	-15
356.103	-26.72
356.314	-13.56
356.526	-12.25
356.738	4.05
356.949	-7.24
357.161	1.67
357.373	9.57
357.584	-10.9
357.796	2.68
358.008	-1.54
358.219	18.44
358.431	9.22
358.642	14.84
358.854	-4.31
359.065	-3.73
359.277	-33.68
359.488	-45.01
359.7	-63.13
359.911	-55.7
360.123	-35.26
360.334	-47.83
360.546	-57.85
360.757	-41.3
360.969	-35.82
361.18	-57.28
361.391	-23.44
361.603	-22.74
361.814	-18.1
362.025	-7.31
362.237	11.15
362.448	25.38
362.659	34.7
362.871	21.74
363.082	7.61
363.293	7.69
363.504	-14.58
363.716	-31.96
363.927	-30.44
364.138	-46.78
364.349	-61.91
364.56	-52.66
364.772	-37.74
364.983	-9.46
365.194	8.44
365.405	19.92
365.616	35.76
365.827	28.96
366.038	-4.01
366.25	-16.2
366.461	-49.95
366.672	-33.22
366.883	-5.33
367.094	0.18
367.305	-7.93
367.516	-0.3
367.727	-29.09
367.938	-40.34
368.149	-27.49
368.36	-11.35
368.571	-2.54
368.781	-10.02
368.992	-26.67
369.203	-36.73
369.414	-54.6
369.625	-69.68
369.836	-63.01
370.047	-72.3
370.258	-56.92
370.468	-51.15
370.679	-54.85
370.89	-42.36
371.101	-22.74
371.312	-26.4
371.522	-27.94
371.733	-18.03
371.944	-5.7
372.155	-3.01
372.365	-8.75
372.576	0.98
372.787	1.14
372.997	-20.66
373.208	-18.64
373.419	4.29
373.629	-17.52
373.84	-33.28
374.05	-38.43
374.261	-27.31
374.472	-46.75
374.682	-8.95
374.893	1.66
375.103	29.04
375.314	23.18
375.524	24.04
375.735	16.03
375.945	25.97
376.156	6.48
376.366	3.83
376.577	5.3
376.787	0.16
376.997	-0.45
377.208	-1.34
377.418	-1.08
377.629	-3.5
377.839	1.91
378.049	8.06
378.26	24.12
378.47	27.6
378.68	13.33
378.89	10.98
379.101	1.79
379.311	-21.75
379.521	-51.97
379.732	-21.71
379.942	-30.76
380.152	-44.79
380.362	-20.28
380.572	-19.07
380.783	-15.48
380.993	-1.72
381.203	14.26
381.413	20.96
381.623	29.94
381.833	27.7
382.043	22.39
382.253	13.4
382.463	8.17
382.674	6.97
382.884	-11.58
383.094	-10.92
383.304	-3.4
383.514	3.66
383.724	9.21
383.934	4.54
384.144	-5.32
384.353	-17.44
384.563	-22.92
384.773	-16.36
384.983	-13.52
385.193	3.71
385.403	14.24
385.613	16.35
385.823	5.85
386.033	9.53
386.242	1.51
386.452	-10.07
386.662	-20.56
386.872	-11.78
387.082	-11.41
387.291	-17.28
387.501	-15.43
387.711	-6.18
387.921	-7.16
388.13	-10.92
388.34	1.64
388.55	-2.74
388.759	-4.85
388.969	-1.14
389.179	-0.57
389.388	-6.71
389.598	2.27
389.807	-3.83
390.017	-8.2
390.227	-3.81
390.436	-5.51
390.646	-7.42
390.855	-1.69
391.065	1.11
391.274	-3.28
391.484	-2.73
391.693	-0.71
391.903	0.96
392.112	5.36
392.322	6.85
392.531	11.97
392.74	12.44
392.95	7.99
393.159	2.82
393.369	4.86
393.578	0.95
393.787	-0.56
393.997	2.48
394.206	2.31
394.415	1.76
394.625	2.96
394.834	2.12
395.043	2.13
395.252	4.04
395.462	5.05
395.671	5.63
395.88	6.7
396.089	6.81
396.298	5.27
396.508	5.25
396.717	5.04
396.926	5.41
397.135	5.08
397.344	4.72
397.553	5.26
397.762	6.04
397.971	5.78
398.181	5.86
398.39	5.63
398.599	4.65
398.808	4.54
399.017	5.37
399.226	6.47
399.435	7.49
399.644	8.01
399.853	7.31
400.062	6.85
400.27	6.17
400.479	5.9
400.688	5.27
400.897	5.45
401.106	5.2
401.315	5.15
401.524	5.28
401.733	5.64
401.941	6.34
402.15	6.43
402.359	6.2
402.568	6.62
402.777	6.75
402.985	6.3
403.194	6.42
403.403	6.76
403.612	6.33
403.82	6.09
404.029	6.16
404.238	6.13
404.446	6.16
404.655	6.08
404.864	6.03
405.072	5.8
405.281	5.76
405.489	5.46
405.698	5.31
405.906	5.5
406.115	5.47
406.324	5.47
406.532	5.64
406.741	5.94
406.949	5.85
407.158	5.92
407.366	5.96
407.574	5.89
407.783	5.7
407.991	5.56
408.2	5.55
408.408	5.47
408.617	5.4
408.825	5.48
409.033	5.58
409.242	5.67
409.45	5.69
409.658	5.68
409.867	5.76
410.075	5.7
410.283	5.6
410.491	5.5
410.7	5.36
410.908	5.26
411.116	5.44
411.324	5.37
411.533	5.45
411.741	5.74
411.949	5.69
412.157	5.43
412.365	5.55
412.573	5.45
412.781	5.42
412.99	5.33
413.198	5.55
413.406	5.44
413.614	5.41
413.822	5.26
414.03	5.33
414.238	5.08
414.446	5.26
414.654	5.2
414.862	5.41
415.07	5.41
415.278	5.6
415.486	5.35
415.694	5.46
415.902	5.15
416.109	4.97
416.317	5.04
416.525	4.89
416.733	4.91
416.941	5.18
417.149	5.22
417.357	5.04
417.564	5.2
417.772	5.29
417.98	5.11
418.188	5.05
418.395	5.09
418.603	5.32
418.811	5.01
419.019	4.96
419.226	5.26
419.434	5.37
419.642	5
419.849	5.16
420.057	5.16
420.265	5.03
420.472	4.83
420.68	4.97
420.887	4.81
421.095	4.72
421.302	4.57
421.51	4.79
421.717	4.85
421.925	4.93
422.132	4.8
422.34	4.64
422.547	4.42
422.755	4.26
422.962	4.18
423.17	4.38
423.377	4.62
423.585	4.64
423.792	4.64
423.999	4.73
424.207	4.64
424.414	4.7
424.621	4.72
424.829	4.72
425.036	4.7
425.243	4.92
425.451	4.78
425.658	4.62
425.865	4.78
426.072	4.69
426.28	4.8
426.487	4.77
426.694	4.93
426.901	4.85
427.108	4.85
427.315	4.63
427.523	4.85
427.73	4.73
427.937	4.63
428.144	4.5
428.351	4.44
428.558	4.56
428.765	4.58
428.972	4.5
429.179	4.74
429.386	4.99
429.593	4.66
429.8	4.59
430.007	4.82
430.214	4.87
430.421	4.74
430.628	4.68
430.835	4.61
431.042	4.68
431.249	4.82
431.456	4.77
431.662	4.94
431.869	5.3
432.076	5.26
432.283	5.2
432.49	5.2
432.697	5.24
432.903	4.92
433.11	4.88
433.317	4.92
433.524	4.96
433.73	4.87
433.937	5.11
434.144	4.98
434.35	4.85
434.557	4.72
434.764	4.69
434.97	4.53
435.177	4.7
435.384	4.74
435.59	4.88
435.797	5.11
436.003	5.18
436.21	5.25
436.416	5.32
436.623	5.3
436.829	5.21
437.036	5.28
437.242	5.19
437.449	5.01
437.655	5.11
437.862	5.19
438.068	5.08
438.275	5.25
438.481	5.44
438.687	5.31
438.894	5.25
439.1	5.41
439.307	5.39
439.513	5.35
439.719	5.29
439.926	5.33
440.132	5.25
440.338	5.11
440.544	5.23
440.751	5.32
440.957	5.47
441.163	5.42
441.369	5.52
441.575	5.28
441.782	5.37
441.988	5.1
442.194	5.09
442.4	5.09
442.606	5.36
442.812	5.38
443.018	5.57
443.224	5.61
443.431	5.72
443.637	5.55
443.843	5.45
444.049	5.45
444.255	5.39
444.461	5.3
444.667	5.29
444.873	5.36
445.079	5.31
445.284	5.42
445.49	5.29
445.696	5.19
445.902	5.17
446.108	5.12
446.314	5.08
446.52	5.17
446.726	5.36
446.931	5.39
447.137	5.45
447.343	5.55
447.549	5.51
447.755	5.42
447.96	5.46
448.166	5.38
448.372	5.32
448.578	5.34
448.783	5.41
448.989	5.43
449.195	5.61
449.4	5.55
449.606	5.54
449.812	5.42
450.017	5.4
450.223	5.28
450.428	5.3
450.634	5.41
450.84	5.61
451.045	5.53
451.251	5.54
451.456	5.75
451.662	5.78
451.867	5.75
452.073	5.83
452.278	5.88
452.483	5.84
452.689	5.72
452.894	5.72
453.1	5.68
453.305	5.66
453.51	5.67
453.716	5.7
453.921	5.74
454.127	5.7
454.332	5.63
454.537	5.5
454.742	5.47
454.948	5.41
455.153	5.44
455.358	5.54
455.563	5.66
455.769	5.68
455.974	5.64
456.179	5.54
456.384	5.53
456.589	5.45
456.795	5.33
457	5.33
457.205	5.62
457.41	5.55
457.615	5.48
457.82	5.58
458.025	5.52
458.23	5.29
458.435	5.3
458.64	5.26
458.845	5.36
459.05	5.36
459.255	5.32
459.46	5.4
459.665	5.41
459.87	5.46
460.075	5.47
460.28	5.57
460.485	5.53
460.69	5.61
460.895	5.35
461.099	5.38
461.304	5.56
461.509	5.57
461.714	5.48
461.919	5.67
462.123	5.56
462.328	5.46
462.533	5.44
462.738	5.55
462.942	5.5
463.147	5.57
463.352	5.58
463.556	5.57
463.761	5.52
463.966	5.52
464.17	5.52
464.375	5.42
464.58	5.42
464.784	5.41
464.989	5.33
465.193	5.4
465.398	5.4
465.602	5.46
465.807	5.47
466.011	5.57
466.216	5.6
466.42	5.74
466.625	5.8
466.829	5.8
467.034	5.86
467.238	5.92
467.443	5.74
467.647	5.67
467.851	5.78
468.056	5.77
468.26	5.66
468.464	5.73
468.669	5.84
468.873	5.84
469.077	5.88
469.282	6.06
469.486	6.14
469.69	6.13
469.894	6.01
470.099	6.01
470.303	6.06
470.507	5.98
470.711	5.87
470.915	5.89
471.119	5.81
471.324	5.73
471.528	5.8
471.732	5.95
471.936	5.95
472.14	5.97
472.344	5.98
472.548	5.99
472.752	6.04
472.956	6.31
473.16	6.31
473.364	6.16
473.568	6.07
473.772	6.09
473.976	5.91
474.18	5.96
474.384	6.04
474.588	6.12
474.792	6.04
474.995	6.09
475.199	6.16
475.403	6.27
475.607	6.26
475.811	6.22
476.015	6.3
476.218	6.26
476.422	6.2
476.626	6.31
476.83	6.37
477.033	6.29
477.237	6.26
477.441	6.32
477.644	6.28
477.848	6.26
478.052	6.3
478.255	6.34
478.459	6.29
478.663	6.4
478.866	6.49
479.07	6.47
479.273	6.67
479.477	6.79
479.681	6.73
479.884	6.69
480.088	6.64
480.291	6.53
480.495	6.5
480.698	6.44
480.901	6.47
481.105	6.65
481.308	6.6
481.512	6.57
481.715	6.69
481.919	6.68
482.122	6.62
482.325	6.63
482.529	6.7
482.732	6.66
482.935	6.61
483.138	6.51
483.342	6.58
483.545	6.64
483.748	6.7
483.952	6.77
484.155	6.98
484.358	6.98
484.561	6.93
484.764	6.85
484.967	6.93
485.171	6.92
485.374	6.92
485.577	7.01
485.78	7.11
485.983	7.05
486.186	6.93
486.389	6.86
486.592	6.81
486.795	6.81
486.998	6.79
487.201	6.84
487.404	6.92
487.607	6.97
487.81	6.96
488.013	7.05
488.216	7.03
488.419	7.03
488.622	6.97
488.825	6.87
489.028	6.73
489.231	6.74
489.433	6.68
489.636	6.6
489.839	6.66
490.042	6.67
490.245	6.67
490.447	6.73
490.65	6.76
490.853	6.74
491.056	6.77
491.258	6.82
491.461	6.85
491.664	6.92
491.866	6.95
492.069	7.06
492.272	7
492.474	6.99
492.677	6.99
492.879	7.05
493.082	7.09
493.285	7.22
493.487	7.24
493.69	7.23
493.892	7.12
494.095	7.05
494.297	6.94
494.5	6.95
494.702	6.98
494.905	7.07
495.107	7.02
495.309	7.07
495.512	7.09
495.714	7.15
495.917	7.24
496.119	7.21
496.321	7.27
496.524	7.27
496.726	7.28
496.928	7.26
497.13	7.33
497.333	7.29
497.535	7.34
497.737	7.32
497.939	7.3
498.142	7.46
498.344	7.49
498.546	7.43
498.748	7.46
498.95	7.58
499.152	7.54
499.355	7.58
499.557	7.65
499.759	7.76
499.961	7.67
500.163	7.67
500.365	7.69
500.567	7.73
500.769	7.61
500.971	7.68
501.173	7.63
501.375	7.66
501.577	7.62
501.779	7.68
501.981	7.69
502.183	7.72
502.385	7.67
502.587	7.64
502.788	7.71
502.99	7.78
503.192	7.87
503.394	7.92
503.596	8.02
503.798	8.05
503.999	8.03
504.201	7.99
504.403	8.06
504.605	8.07
504.806	8.01
505.008	8.01
505.21	8.07
505.411	8.04
505.613	8.07
505.815	8.13
506.016	8.18
506.218	8.26
506.42	8.22
506.621	8.2
506.823	8.22
507.024	8.2
507.226	8.08
507.427	8.1
507.629	8.09
507.83	8.09
508.032	8.06
508.233	8.14
508.435	8.23
508.636	8.33
508.838	8.31
509.039	8.33
509.24	8.34
509.442	8.34
509.643	8.31
509.845	8.36
510.046	8.43
510.247	8.44
510.448	8.46
510.65	8.53
510.851	8.58
511.052	8.55
511.254	8.63
511.455	8.71
511.656	8.73
511.857	8.75
512.058	8.78
512.26	8.69
512.461	8.65
512.662	8.68
512.863	8.65
513.064	8.63
513.265	8.72
513.466	8.75
513.667	8.73
513.868	8.76
514.069	8.8
514.27	8.85
514.471	8.81
514.672	8.81
514.873	8.81
515.074	8.86
515.275	8.76
515.476	8.79
515.677	8.82
515.878	8.89
516.079	8.91
516.28	8.94
516.481	9.05
516.682	9.05
516.882	8.93
517.083	8.87
517.284	8.85
517.485	8.76
517.686	8.72
517.886	8.76
518.087	8.83
518.288	8.91
518.488	8.92
518.689	8.94
518.89	8.97
519.091	8.97
519.291	8.95
519.492	9.01
519.692	9.07
519.893	9.11
520.094	9.13
520.294	9.11
520.495	9.09
520.695	9.11
520.896	9.13
521.096	9.13
521.297	9.18
521.497	9.15
521.698	9.09
521.898	9.07
522.099	9.09
522.299	9.14
522.499	9.22
522.7	9.29
522.9	9.28
523.101	9.28
523.301	9.28
523.501	9.25
523.702	9.22
523.902	9.27
524.102	9.33
524.302	9.29
524.503	9.35
524.703	9.4
524.903	9.4
525.103	9.38
525.304	9.48
525.504	9.5
525.704	9.52
525.904	9.51
526.104	9.53
526.304	9.54
526.504	9.56
526.705	9.5
526.905	9.58
527.105	9.57
527.305	9.55
527.505	9.49
527.705	9.53
527.905	9.5
528.105	9.49
528.305	9.45
528.505	9.51
528.705	9.6
528.905	9.6
529.105	9.63
529.304	9.71
529.504	9.76
529.704	9.72
529.904	9.72
530.104	9.7
530.304	9.75
530.503	9.75
530.703	9.69
530.903	9.77
531.103	9.87
531.303	9.82
531.502	9.87
531.702	10
531.902	9.97
532.101	9.91
532.301	9.91
532.501	9.87
532.7	9.79
532.9	9.8
533.1	9.84
533.299	9.89
533.499	9.96
533.698	9.99
533.898	10.05
534.097	10.09
534.297	10.11
534.496	10.03
534.696	10.07
534.895	10.11
535.095	10.17
535.294	10.17
535.494	10.18
535.693	10.2
535.892	10.25
536.092	10.19
536.291	10.16
536.491	10.3
536.69	10.39
536.889	10.31
537.088	10.3
537.288	10.38
537.487	10.37
537.686	10.36
537.886	10.43
538.085	10.55
538.284	10.67
538.483	10.67
538.682	10.77
538.882	10.78
539.081	10.8
539.28	10.67
539.479	10.67
539.678	10.63
539.877	10.72
540.076	10.72
540.275	10.79
540.474	10.92
540.673	10.93
540.872	10.86
541.071	10.96
541.27	10.97
541.469	10.94
541.668	10.99
541.867	11.1
542.066	11.09
542.265	11.17
542.464	11.15
542.663	11.15
542.862	11.24
543.06	11.31
543.259	11.37
543.458	11.47
543.657	11.54
543.856	11.54
544.054	11.47
544.253	11.44
544.452	11.48
544.651	11.53
544.849	11.51
545.048	11.58
545.247	11.64
545.445	11.68
545.644	11.73
545.843	11.77
546.041	11.82
546.24	11.91
546.438	11.91
546.637	11.93
546.836	12.02
547.034	12.12
547.233	12.14
547.431	12.25
547.63	12.32
547.828	12.39
548.027	12.42
548.225	12.44
548.423	12.43
548.622	12.45
548.82	12.46
549.019	12.54
549.217	12.61
549.415	12.69
549.614	12.76
549.812	12.8
550.01	12.82
550.209	12.87
550.407	12.92
550.605	12.95
550.803	13.1
551.002	13.13
551.2	13.2
551.398	13.33
551.596	13.49
551.794	13.5
551.993	13.61
552.191	13.68
552.389	13.72
552.587	13.8
552.785	13.87
552.983	13.92
553.181	14.06
553.379	14.09
553.577	14.09
553.775	14.15
553.973	14.25
554.171	14.31
554.369	14.33
554.567	14.33
554.765	14.35
554.963	14.4
555.161	14.37
555.359	14.49
555.557	14.63
555.755	14.79
555.952	14.94
556.15	15.04
556.348	15.07
556.546	15.17
556.744	15.21
556.941	15.24
557.139	15.39
557.337	15.46
557.535	15.47
557.732	15.57
557.93	15.61
558.128	15.67
558.325	15.8
558.523	15.88
558.721	15.99
558.918	16.08
559.116	16.12
559.313	16.17
559.511	16.28
559.708	16.31
559.906	16.36
560.104	16.47
560.301	16.62
560.498	16.69
560.696	16.76
560.893	16.85
561.091	16.95
561.288	17.04
561.486	17.13
561.683	17.28
561.88	17.36
562.078	17.46
562.275	17.42
562.473	17.56
562.67	17.71
562.867	17.84
563.064	17.96
563.262	18.07
563.459	18.05
563.656	18.14
563.853	18.24
564.051	18.33
564.248	18.49
564.445	18.68
564.642	18.65
564.839	18.77
565.036	18.81
565.234	18.97
565.431	19.11
565.628	19.3
565.825	19.41
566.022	19.6
566.219	19.71
566.416	19.81
566.613	19.94
566.81	20.05
567.007	19.95
567.204	19.92
567.401	19.93
567.598	19.99
567.795	19.97
567.991	20.11
568.188	20.18
568.385	20.3
568.582	20.28
568.779	20.42
568.976	20.55
569.172	20.73
569.369	20.71
569.566	20.84
569.763	20.84
569.96	20.74
570.156	20.77
570.353	20.85
570.55	20.93
570.746	21.04
570.943	21.14
571.14	21.1
571.336	21.23
571.533	21.25
571.729	21.22
571.926	21.37
572.123	21.45
572.319	21.44
572.516	21.37
572.712	21.51
572.909	21.47
573.105	21.58
573.302	21.65
573.498	21.77
573.695	21.71
573.891	21.78
574.087	21.82
574.284	21.82
574.48	21.84
574.677	21.92
574.873	22.03
575.069	22
575.266	22.06
575.462	22.09
575.658	22.11
575.854	22.15
576.051	22.23
576.247	22.19
576.443	22.13
576.639	22.19
576.835	22.04
577.032	21.94
577.228	22.05
577.424	22.21
577.62	22.13
577.816	22.27
578.012	22.38
578.208	22.33
578.404	22.31
578.6	22.32
578.796	22.22
578.993	22.23
579.189	22.19
579.384	22.04
579.58	22.02
579.776	22.01
579.972	21.9
580.168	21.89
580.364	21.94
580.56	21.92
580.756	21.97
580.952	21.92
581.148	21.95
581.343	21.99
581.539	22.05
581.735	22.07
581.931	22.23
582.127	22.23
582.322	22.2
582.518	22.19
582.714	22.09
582.909	22.05
583.105	21.98
583.301	21.95
583.496	22
583.692	22.04
583.888	21.96
584.083	22
584.279	22.07
584.474	22.02
584.67	21.96
584.866	21.98
585.061	21.83
585.257	21.81
585.452	21.69
585.648	21.71
585.843	21.66
586.039	21.69
586.234	21.64
586.429	21.66
586.625	21.7
586.82	21.69
587.015	21.73
587.211	21.66
587.406	21.71
587.601	21.66
587.797	21.65
587.992	21.68
588.187	21.72
588.383	21.67
588.578	21.63
588.773	21.68
588.968	21.65
589.163	21.61
589.359	21.6
589.554	21.56
589.749	21.63
589.944	21.74
590.139	21.82
590.334	21.88
590.529	21.97
590.724	21.93
590.919	21.96
591.114	21.96
591.309	22.03
591.504	22.03
591.699	21.96
591.894	21.93
592.089	21.97
592.284	21.98
592.479	22.11
592.674	22.28
592.869	22.3
593.064	22.39
593.259	22.47
593.454	22.57
593.648	22.57
593.843	22.66
594.038	22.65
594.233	22.59
594.428	22.53
594.622	22.59
594.817	22.63
595.012	22.66
595.206	22.73
595.401	22.8
595.596	22.85
595.79	22.91
595.985	23.11
596.18	23.22
596.374	23.37
596.569	23.41
596.763	23.46
596.958	23.41
597.153	23.53
597.347	23.42
597.542	23.53
597.736	23.58
597.931	23.68
598.125	23.66
598.319	23.84
598.514	23.77
598.708	23.89
598.903	23.86
599.097	23.85
599.291	23.88
599.486	23.95
599.68	23.97
599.874	24.16
600.069	24.29
600.263	24.25
600.457	24.37
600.651	24.37
600.846	24.33
601.04	24.33
601.234	24.4
601.428	24.43
601.622	24.53
601.817	24.52
602.011	24.47
602.205	24.53
602.399	24.51
602.593	24.48
602.787	24.53
602.981	24.62
603.175	24.66
603.369	24.62
603.563	24.67
603.757	24.72
603.951	24.74
604.145	24.68
604.339	24.77
604.533	24.62
604.727	24.58
604.921	24.56
605.115	24.59
605.309	24.64
605.502	24.69
605.696	24.57
605.89	24.52
606.084	24.47
606.278	24.3
606.471	24.18
606.665	24.13
606.859	24.02
607.053	23.98
607.246	23.98
607.44	24.05
607.634	24
607.827	23.99
608.021	23.88
608.214	23.81
608.408	23.69
608.602	23.74
608.795	23.67
608.989	23.6
609.182	23.54
609.376	23.61
609.569	23.47
609.763	23.35
609.956	23.25
610.15	23.18
610.343	22.99
610.537	22.93
610.73	22.94
610.923	23.01
611.117	22.95
611.31	22.9
611.504	22.84
611.697	22.68
611.89	22.52
612.083	22.43
612.277	22.41
612.47	22.26
612.663	22.27
612.856	22.2
613.05	22.14
613.243	22
613.436	21.89
613.629	21.78
613.822	21.66
614.015	21.61
614.209	21.51
614.402	21.53
614.595	21.46
614.788	21.41
614.981	21.29
615.174	21.17
615.367	21.08
615.56	21.06
615.753	21.04
615.946	20.96
616.139	21.02
616.332	21.07
616.525	20.99
616.718	20.99
616.911	21.04
617.103	20.99
617.296	20.99
617.489	20.95
617.682	20.79
617.875	20.68
618.067	20.53
618.26	20.35
618.453	20.4
618.646	20.35
618.838	20.44
619.031	20.58
619.224	20.57
619.417	20.47
619.609	20.48
619.802	20.34
619.994	20.18
620.187	20.09
620.38	19.97
620.572	19.95
620.765	19.96
620.957	19.88
621.15	19.88
621.342	19.88
621.535	19.91
621.727	19.88
621.92	19.84
622.112	19.79
622.305	19.79
622.497	19.64
622.69	19.58
622.882	19.63
623.074	19.68
623.267	19.71
623.459	19.67
623.651	19.63
623.844	19.63
624.036	19.58
624.228	19.48
624.42	19.54
624.613	19.6
624.805	19.57
624.997	19.57
625.189	19.57
625.381	19.59
625.574	19.57
625.766	19.47
625.958	19.45
626.15	19.47
626.342	19.46
626.534	19.41
626.726	19.38
626.918	19.44
627.11	19.35
627.302	19.34
627.494	19.28
627.686	19.32
627.878	19.2
628.07	19.17
628.262	19.06
628.454	19
628.646	19
628.838	19.02
629.029	18.98
629.221	18.96
629.413	18.99
629.605	18.89
629.797	18.84
629.989	18.83
630.18	18.82
630.372	18.76
630.564	18.74
630.755	18.77
630.947	18.81
631.139	18.72
631.33	18.65
631.522	18.71
631.714	18.64
631.905	18.6
632.097	18.61
632.289	18.6
632.48	18.56
632.672	18.52
632.863	18.35
633.055	18.31
633.246	18.35
633.438	18.19
633.629	18.12
633.821	18.21
634.012	18.11
634.203	17.95
634.395	18.09
634.586	18.07
634.777	17.99
634.969	18.14
635.16	18.31
635.351	18.12
635.543	18.08
635.734	18.17
635.925	18.1
636.117	18.04
636.308	18.06
636.499	18.08
636.69	17.99
636.881	17.91
637.073	17.96
637.264	17.93
637.455	17.96
637.646	18
637.837	18.08
638.028	17.97
638.219	18.02
638.41	18.01
638.601	17.94
638.792	17.95
638.983	17.91
639.174	17.85
639.365	17.84
639.556	17.82
639.747	17.67
639.938	17.72
640.129	17.72
640.32	17.69
640.511	17.74
640.701	17.9
640.892	17.84
641.083	17.93
641.274	17.9
641.465	17.84
641.655	17.68
641.846	17.68
642.037	17.56
642.228	17.52
642.418	17.55
642.609	17.63
642.8	17.58
642.99	17.5
643.181	17.52
643.372	17.51
643.562	17.47
643.753	17.4
643.943	17.37
644.134	17.36
644.324	17.25
644.515	17.18
644.705	17.21
644.896	17.27
645.086	17.22
645.277	17.16
645.467	17.11
645.658	17.06
645.848	17.01
646.038	17.04
646.229	17.02
646.419	17.02
646.61	17.02
646.8	17.03
646.99	17.01
647.18	16.95
647.371	16.9
647.561	16.87
647.751	16.89
647.941	16.76
648.132	16.93
648.322	17.03
648.512	17.04
648.702	16.97
648.892	17.02
649.082	16.84
649.272	16.68
649.462	16.57
649.653	16.54
649.843	16.43
650.033	16.48
650.223	16.45
650.413	16.39
650.603	16.35
650.793	16.37
650.983	16.26
651.172	16.25
651.362	16.27
651.552	16.16
651.742	16.06
651.932	16.04
652.122	16.01
652.312	16.02
652.502	16.04
652.691	16.03
652.881	15.99
653.071	15.94
653.261	15.74
653.45	15.61
653.64	15.57
653.83	15.44
654.019	15.36
654.209	15.36
654.399	15.28
654.588	15.13
654.778	15.15
654.968	15.04
655.157	14.94
655.347	14.86
655.536	14.73
655.726	14.42
655.915	14.29
656.105	14.21
656.294	14.04
656.484	13.96
656.673	13.91
656.863	13.82
657.052	13.51
657.241	13.34
657.431	13.11
657.62	12.99
657.809	12.71
657.999	12.67
658.188	12.56
658.377	12.37
658.567	12.29
658.756	12.18
658.945	11.98
659.134	11.82
659.324	11.76
659.513	11.6
659.702	11.44
659.891	11.38
660.08	11.26
660.269	11.14
660.458	10.9
660.648	10.8
660.837	10.63
661.026	10.49
661.215	10.26
661.404	10.17
661.593	10.16
661.782	9.98
661.971	9.93
662.16	9.91
662.349	9.8
662.538	9.55
662.726	9.51
662.915	9.33
663.104	9.28
663.293	9.25
663.482	9.27
663.671	9.1
663.86	9.04
664.048	8.86
664.237	8.81
664.426	8.57
664.615	8.62
664.803	8.42
664.992	8.29
665.181	8.14
665.369	8.05
665.558	7.88
665.747	7.98
665.935	8.12
666.124	8.07
666.312	8.17
666.501	8.15
666.69	7.92
666.878	7.77
667.067	7.6
667.255	7.56
667.444	7.73
667.632	7.9
667.82	7.85
668.009	7.87
668.197	7.85
668.386	7.7
668.574	7.67
668.762	7.6
668.951	7.47
669.139	7.47
669.327	7.29
669.516	7.26
669.704	7.23
669.892	7.51
670.08	7.49
670.269	7.48
670.457	7.36
670.645	7.35
670.833	7.23
671.021	7.17
671.21	7.26
671.398	7.48
671.586	7.57
671.774	7.5
671.962	7.52
672.15	7.55
672.338	7.4
672.526	7.44
672.714	7.34
672.902	7.35
673.09	7.45
673.278	7.55
673.466	7.48
673.654	7.82
673.842	7.79
674.03	7.78
674.218	7.69
674.405	7.71
674.593	7.57
674.781	7.71
674.969	7.7
675.157	7.89
675.344	8.01
675.532	8.08
675.72	8.18
675.908	8.2
676.095	8.17
676.283	8.25
676.471	8.46
676.658	8.47
676.846	8.54
677.033	8.7
677.221	8.77
677.409	8.58
677.596	8.57
677.784	8.68
677.971	8.62
678.159	8.6
678.346	8.68
678.534	8.87
678.721	9.03
678.909	9.12
679.096	9.11
679.283	9.39
679.471	9.38
679.658	9.36
679.846	9.54
680.033	9.88
680.22	9.86
680.408	9.99
680.595	10.05
680.782	10.02
680.969	10.09
681.157	10.25
681.344	10.36
681.531	10.44
681.718	10.48
681.905	10.56
682.093	10.63
682.28	10.84
682.467	11.13
682.654	11.32
682.841	11.33
683.028	11.53
683.215	11.7
683.402	11.63
683.589	11.84
683.776	12.1
683.963	12.2
684.15	12.37
684.337	12.68
684.524	12.74
684.711	12.97
684.898	13.11
685.085	13.16
685.271	13.38
685.458	13.66
685.645	13.81
685.832	14.1
686.019	14.51
686.205	14.67
686.392	15.03
686.579	15.28
686.766	15.55
686.952	15.72
687.139	16.29
687.326	16.55
687.512	16.94
687.699	17.33
687.886	17.6
688.072	17.74
688.259	18.22
688.445	18.52
688.632	18.8
688.818	19.46
689.005	19.94
689.191	20.23
689.378	20.74
689.564	21.35
689.751	21.66
689.937	22.18
690.124	22.68
690.31	23.04
690.496	23.49
690.683	23.95
690.869	24.38
691.055	24.79
691.242	25.62
691.428	26.16
691.614	26.8
691.8	27.63
691.987	28.45
692.173	28.93
692.359	29.68
692.545	30.28
692.731	30.58
692.918	31.25
693.104	31.78
693.29	32.24
693.476	32.99
693.662	33.73
693.848	34.28
694.034	35.07
694.22	35.69
694.406	36.22
694.592	36.88
694.778	37.47
694.964	37.98
695.15	38.78
695.336	39.35
695.522	40.29
695.708	41.12
695.894	41.88
696.08	42.48
696.265	43.25
696.451	43.91
696.637	44.6
696.823	44.98
697.009	45.6
697.194	46.2
697.38	46.34
697.566	46.78
697.751	47.64
697.937	48.28
698.123	49.07
698.308	49.85
698.494	50.5
698.68	50.95
698.865	51.64
699.051	52.09
699.236	52.72
699.422	53.42
699.607	54.11
699.793	54.38
699.978	54.87
700.164	55.18
700.349	55.74
700.535	56.13
700.72	56.67
700.906	57.24
701.091	57.87
701.276	58.24
701.462	58.99
701.647	59.8
701.832	60.43
702.018	60.89
702.203	61.23
702.388	61.37
702.573	61.5
702.759	61.84
702.944	62.1
703.129	62.26
703.314	62.76
703.499	63.19
703.684	63.36
703.87	64.51
704.055	65.46
704.24	65.9
704.425	66.81
704.61	67.49
704.795	67.37
704.98	67.62
705.165	67.56
705.35	67.52
705.535	67.84
705.72	68.08
705.905	68.49
706.09	69.18
706.275	69.45
706.459	69.21
706.644	69.33
706.829	69.4
707.014	69.58
707.199	69.99
707.384	70.56
707.568	71.06
707.753	71.55
707.938	72.13
708.123	72.27
708.307	72.43
708.492	72.32
708.677	72.49
708.861	72.39
709.046	72.52
709.231	73.08
709.415	73.77
709.6	73.72
709.784	73.72
709.969	73.77
710.153	73.75
710.338	73.71
710.522	73.55
710.707	74.2
710.891	74.7
711.076	74.94
711.26	75.05
711.445	75.77
711.629	75.71
711.813	75.75
711.998	75.95
712.182	75.87
712.366	76.25
712.551	76.9
712.735	76.7
712.919	76.4
713.103	77.05
713.288	76.98
713.472	76.71
713.656	77.31
713.84	77.8
714.024	77.9
714.208	77.7
714.393	77.67
714.577	77.6
714.761	77.8
714.945	77.86
715.129	78.08
715.313	78.26
715.497	78.53
715.681	79.01
715.865	78.77
716.049	78.98
716.233	78.99
716.417	79.3
716.601	79.07
716.785	79.05
716.968	79.34
717.152	79.48
717.336	79.28
717.52	79.28
717.704	79.7
717.888	80.15
718.071	80.29
718.255	80.59
718.439	80.51
718.622	80.55
718.806	80.42
718.99	80.04
719.174	79.65
719.357	79.56
719.541	79.82
719.724	79.45
719.908	80.66
720.092	81.27
720.275	81.72
720.459	81.66
720.642	81.69
720.826	81.14
721.009	80.79
721.193	80.63
721.376	80.77
721.559	81.03
721.743	81.2
721.926	81.51
722.11	81.82
722.293	81.44
722.476	81.29
722.66	81.29
722.843	81.4
723.026	80.82
723.21	81.31
723.393	82.06
723.576	81.7
723.759	81.03
723.942	81.58
724.126	81.16
724.309	80.6
724.492	81.54
724.675	81.82
724.858	82.16
725.041	82.62
725.224	82.87
725.407	82.37
725.59	83.01
725.774	82.69
725.957	82.36
726.14	82.17
726.322	82.11
726.505	81.73
726.688	82.6
726.871	82.31
727.054	82.36
727.237	82.72
727.42	83.36
727.603	83.03
727.786	83.9
727.968	84.36
728.151	84.59
728.334	84.13
728.517	83.58
728.699	83.6
728.882	83.59
729.065	83.57
729.248	84.16
729.43	84.58
729.613	85.45
729.796	85.82
729.978	85.34
730.161	85.11
730.343	84.8
730.526	84.81
730.708	84.03
730.891	84.21
731.073	84.3
731.256	84.78
731.438	84.87
731.621	85.38
731.803	85.2
731.986	85.02
732.168	84.41
732.35	83.89
732.533	83.59
732.715	84.27
732.898	84.86
733.08	85.86
733.262	86.2
733.444	86.33
733.627	86.3
733.809	86.38
733.991	86.36
734.173	85.56
734.355	85.08
734.538	85.3
734.72	85.1
734.902	85.18
735.084	85.9
735.266	86.75
735.448	86.98
735.63	86.99
735.812	86.73
735.994	87.4
736.176	87.7
736.358	87.48
736.54	87.62
736.722	86.68
736.904	85.94
737.086	85.63
737.268	86.3
737.45	86.84
737.632	87.93
737.814	87.79
737.995	88.1
738.177	87.78
738.359	86.84
738.541	86.93
738.723	87.49
738.904	88.14
739.086	87.92
739.268	87.97
739.449	88.2
739.631	87.13
739.813	86.78
739.994	87.49
740.176	87.63
740.358	87.08
740.539	88.33
740.721	88.13
740.902	88.33
741.084	87.95
741.265	87.66
741.447	88.04
741.628	88.21
741.81	86.86
741.991	87.65
742.172	88.69
742.354	88.05
742.535	88.18
742.717	89.08
742.898	89.66
743.079	90.1
743.261	90.01
743.442	89.51
743.623	90.32
743.804	89.9
743.986	90.81
744.167	90.18
744.348	90.58
744.529	89.7
744.71	88.62
744.891	87.1
745.073	87.66
745.254	87.5
745.435	87.57
745.616	86.78
745.797	86.69
745.978	86.46
746.159	85.97
746.34	84.83
746.521	88.11
746.702	87.35
746.883	87.12
747.064	87.79
747.245	88.75
747.426	87.06
747.606	87.88
747.787	88.68
747.968	88.49
748.149	88.75
748.33	89.86
748.51	89.95
748.691	89.39
748.872	89.68
749.053	89.39
749.233	87.19
749.414	86.83
749.595	86.26
749.775	84.39
749.956	83.78
750.137	84.45
750.317	85.11
750.498	86.69
750.678	88.47
750.859	89.08
751.04	89.6
751.22	88.48
751.4	87.97
751.581	86.19
751.761	85.87
751.942	85.38
752.122	84.7
752.303	83.46
752.483	84.46
752.663	84.48
752.844	83.91
753.024	85.43
753.204	86.96
753.385	85.88
753.565	85.81
753.745	86.17
753.925	84.97
754.106	83.38
754.286	83.15
754.466	84.03
754.646	84.5
754.826	84.21
755.006	83.61
755.187	85.46
755.367	84.97
755.547	84.81
755.727	86.52
755.907	87.71
756.087	88.51
756.267	87.09
756.447	87.36
756.627	84.96
756.807	85.25
756.987	83.57
757.167	84.52
757.346	84.21
757.526	83.84
757.706	85.05
757.886	85.91
758.066	84.92
758.246	85.12
758.425	86.66
758.605	85.53
758.785	84.9
758.965	85.8
759.144	84.79
759.324	85.5
759.504	84.1
759.683	85.17
759.863	84.16
760.043	83.77
760.222	83.12
760.402	83.3
760.581	82.81
760.761	84.22
760.94	84.49
761.12	86.85
761.299	88.48
761.479	87.2
761.658	85.61
761.838	84.8
762.017	82.52
762.197	81.99
762.376	82.84
762.555	85.06
762.735	87.24
762.914	86.29
763.093	85.69
763.273	85.33
763.452	84.68
763.631	83.26
763.81	82.96
763.99	83.2
764.169	82.96
764.348	81.1
764.527	80.78
764.706	83.68
764.885	84.46
765.064	82.49
765.243	83.34
765.423	85.34
765.602	83.28
765.781	81.71
765.96	81.89
766.139	81.25
766.318	80.49
766.497	79.41
766.676	79.8
766.854	83.48
767.033	85.38
767.212	85
767.391	86.02
767.57	87.83
767.749	87
767.928	86.77
768.106	85.94
768.285	84.22
768.464	83.02
768.643	81.24
768.821	80.43
769	80.83
769.179	81.76
769.357	81.15
769.536	81.58
769.715	82.09
769.893	84.29
770.072	83.73
770.25	84.87
770.429	84.77
770.607	83.68
770.786	81.76
770.964	84.94
771.143	83.44
771.321	84.87
771.5	84.22
771.678	82.66
771.857	78.45
772.035	77.89
772.213	76.87
772.392	78.12
772.57	77.99
772.748	81.24
772.927	81.35
773.105	80.23
773.283	80.23
773.461	82.62
773.64	82.18
773.818	80.82
773.996	82.21
774.174	81.15
774.352	79.26
774.531	76.13
774.709	78.15
774.887	76.45
775.065	76
775.243	76.71
775.421	79.43
775.599	79.96
775.777	80.28
775.955	79.2
776.133	76.07
776.311	75.39
776.489	73.23
776.667	73.34
776.844	74.97
777.022	75.94
777.2	74.75
777.378	75.7
777.556	78.04
777.734	78.56
777.911	83.38
778.089	85.02
778.267	85.22
778.445	81.65
778.622	79.56
778.8	76.78
778.978	77.47
779.155	76.36
779.333	76.5
779.511	78.9
779.688	80.61
779.866	76.48
780.043	74.58
780.221	75.09
780.398	73.83
780.576	72.69
780.753	75.69
780.931	76.77
781.108	76.96
781.286	78.52
781.463	76.54
781.64	73.36
781.818	75.31
781.995	74.17
782.172	71.18
782.35	71.45
782.527	74.8
782.704	71.42
782.882	74.24
783.059	74.77
783.236	75.3
783.413	76.21
783.59	79.16
783.768	75.89
783.945	77.16
784.122	77.86
784.299	75.31
784.476	74.03
784.653	71.73
784.83	70.27
785.007	68.1
785.184	67.92
785.361	66.2
785.538	73.61
785.715	75.37
785.892	77.75
786.069	79.19
786.246	82.13
786.423	78.71
786.6	78.51
786.776	80.07
786.953	81.03
787.13	80.21
787.307	78.71
787.484	78.75
787.66	75.09
787.837	73.56
788.014	71.88
788.191	71.31
788.367	68.76
788.544	74.57
788.721	73.91
788.897	75.72
789.074	79.94
789.25	79.76
789.427	75.91
789.603	78.75
789.78	81.01
789.956	79.29
790.133	82.34
790.309	81.54
790.486	80.9
790.662	79.62
790.839	78.22
791.015	77.03
791.192	74.22
791.368	74.95
791.544	69.7
791.721	67.47
791.897	66.99
792.073	68.91
792.249	64.49
792.426	70.8
792.602	75.19
792.778	73.59
792.954	74.49
793.13	77.26
793.307	67.93
793.483	61.02
793.659	60.88
793.835	63.77
794.011	61.49
794.187	66.48
794.363	65.84
794.539	71.72
794.715	63.69
794.891	61.74
795.067	63.96
795.243	69.44
795.419	66.93
795.595	68.7
795.771	67.66
795.947	66.42
796.122	61.53
796.298	62.63
796.474	65.46
796.65	68.65
796.826	67.93
797.001	72.9
797.177	66.27
797.353	69.74
797.529	68.32
797.704	70.28
797.88	67.27
798.056	67.14
798.231	61.77
798.407	66.86
798.582	67.39
798.758	75.38
798.934	84.77
799.109	84.65
799.285	81.31
799.46	81.48
799.636	78.12
799.811	73.79
799.986	79.03
800.162	78.64
800.337	80.09
800.513	74.49
800.688	73.27
800.863	81.75
801.039	78.31
801.214	71.33
801.389	78.47
801.565	81.48
801.74	60.27
801.915	64.01
802.09	70.37
802.265	75.16
802.441	72.84
802.616	82.07
802.791	78.77
802.966	75.89
803.141	70.51
803.316	69.6
803.491	70.43
803.666	79.92
803.841	81.47
804.016	75.19
804.191	75.53
804.366	71.42
804.541	63.01
804.716	60.61
804.891	59.43
805.066	64.26
805.241	62.13
805.416	64.73
805.591	60.96
805.765	67.65
805.94	67.98
806.115	64.19
806.29	57.38
806.464	62.54
806.639	54.56
806.814	45.86
806.989	47.76
807.163	59.58
807.338	60.6
807.512	65.79
807.687	58.34
807.862	71.18
808.036	66.79
808.211	66.38
808.385	70.52
808.56	80.68
808.734	71.76
808.909	69.51
809.083	60.94
809.258	60.4
809.432	66.64
809.606	58.53
809.781	57.75
809.955	63.71
810.13	64.31
810.304	59.08
810.478	59.18
810.652	64.26
810.827	73.09
811.001	69.21
811.175	60.06
811.349	58.65
811.524	47.43
811.698	29.27
811.872	34.97
812.046	47.86
812.22	54.5
812.394	60.73
812.568	66.26
812.742	71.37
812.916	64.1
813.09	57.11
813.264	56.25
813.438	59.35
813.612	47.36
813.786	45.71
813.96	53.73
814.134	56.47
814.308	64.33
814.482	70.88
814.656	68.92
814.83	69.65
815.003	65.9
815.177	56.87
815.351	49.84
815.525	46.69
815.698	42.38
815.872	40.84
816.046	32.77
816.219	43.94
816.393	55.56
816.567	71.67
816.74	71.61
816.914	79.81
817.088	79.53
817.261	79.16
817.435	56.15
817.608	59.45
817.782	56.89
817.955	54.9
818.129	48.51
818.302	56.17
818.475	56.3
818.649	53.17
818.822	45.41
818.996	63.44
819.169	55.5
819.342	52.93
819.516	65.55
819.689	74.49
819.862	53.22
820.035	54.79
820.209	53
820.382	53.79
820.555	53.54
820.728	49.85
820.901	50.66
821.075	53.59
821.248	54.02
821.421	46.88
821.594	54.19
821.767	66.18
821.94	73.84
822.113	57.06
822.286	59.85
822.459	71.32
822.632	56.65
822.805	40.19
822.978	37.94
823.151	38.46
823.324	34.02
823.496	23.16
823.669	23.14
823.842	29.28
824.015	21.1
824.188	-2.93
824.361	13.6
824.533	27.13
824.706	39.17
824.879	33.82
825.051	56.65
825.224	48.37
825.397	43.85
825.569	22.31
825.742	40.24
825.915	46.59
826.087	73.91
826.26	59.29
826.432	69.13
826.605	76.18
826.777	55.26
826.95	47.79
827.122	45.08
827.295	50.86
827.467	47.07
827.64	45.46
827.812	35.87
827.984	55.12
828.157	43.98
828.329	17.63
828.501	11.47
828.674	37
828.846	16.28
829.018	37.87
829.19	18.06
829.363	43.81
829.535	33.14
829.707	29.26
829.879	3.49
830.051	23.04
830.223	7.88
830.395	-1.86
830.568	-3.64
830.74	-12.4
830.912	11.73
831.084	-4.3
831.256	0.07
831.428	-1.81
831.6	-4.02
831.772	-33.84
831.943	-32.16
832.115	-13.21
832.287	11.47
832.459	34.25
832.631	44.57
832.803	60.7
832.975	81.74
833.146	70.24
833.318	70.21
833.49	82.86
833.662	66.36
833.833	29.38
834.005	33.89
834.177	41.07
834.348	21.61
834.52	33.97
834.692	31.77
834.863	2.53
835.035	-4.81
835.206	-41.82
835.378	-45.2
835.549	-7.35
835.721	17.91
835.892	17.22
836.064	32.58
836.235	27.9
836.407	7.88
836.578	-14.98
836.749	-13.57
836.921	-69.41
837.092	-59.3
837.264	-41.19
837.435	-37.3
837.606	-8.65
837.777	35.3
837.949	50.71
838.12	41.08
838.291	44.45
838.462	33.8
838.633	7.72
838.805	2.38
838.976	35.9
839.147	-20.61
839.318	-29.05
839.489	-70.14
839.66	-40.11
839.831	-14.78
840.002	13.11
840.173	12.45
840.344	64.07
840.515	66.14
840.686	-99.18
840.857	-80.26
841.028	-65.36
841.199	-46.91
841.369	-74.71
841.54	-38.36
841.711	-1.96
841.882	14.02
842.053	5.18
842.223	27.48
842.394	42.02
842.565	35.14
842.736	30.99
842.906	37.64
843.077	37.89
843.248	48.19
843.418	58.23
843.589	57.87
843.759	135.45
843.93	121.37
844.101	52.79
844.271	52.11
844.442	56.44
844.612	58.95
844.783	48.35
844.953	29.67
845.123	19.8
845.294	18.36
845.464	-181.42
845.635	-96.51
845.805	13.19
845.975	23.41
846.146	-4.97
846.316	-3.24
846.486	29.48
846.656	47.91
846.827	47.29
846.997	51.28
847.167	104.05
847.337	62.87
847.507	13.53
847.677	18.52
847.848	52.68
848.018	46.84
848.188	42.25
848.358	38.34
848.528	26.12
848.698	-3.35
848.868	-103.28
849.038	-174.32
849.208	-49.91
849.378	7.86
849.548	2.22
849.718	25.48
849.887	30.55
850.057	-2.18
850.227	-50.2
850.397	-86.81
850.567	-193.07
850.737	-429.89
850.906	-1089.69
851.076	-835.74
851.246	-264.79
851.415	4.43
851.585	18.43
851.755	6.89
851.924	57.6
852.094	12.27
852.264	-88
852.433	-872.84
852.603	-176.42
852.772	-208.45
852.942	-50.79
853.111	-32.21
853.281	-7.23
853.45	8.53
853.62	-60.22
853.789	-63.69
853.959	-94.23
854.128	-85.72
854.297	-98.43
854.467	-99.97
854.636	-99.95
854.805	-6.63
854.975	-26.73
855.144	-58.84
855.313	216.96
855.482	-99.82
855.652	-107.31
855.821	-17.08
855.99	75.34
856.159	49.78
856.328	47.58
856.497	25.32
856.667	34.52
856.836	31.31
857.005	14.34
857.174	20.79
857.343	16
857.512	4.84
857.681	-35.64
857.85	-79.81
858.019	-42.08
858.188	-21.49
858.356	-34.1
858.525	-74.5
858.694	-48.81
858.863	-145.04
859.032	-84.9
859.201	-98.43
859.369	-10.4
859.538	13.67
859.707	42.65
859.876	33.26
860.044	29.17
860.213	39.49
860.382	8.05
860.55	-11.98
860.719	4.69
860.888	12.54
861.056	-24.3
861.225	-21.33
861.393	22.31
861.562	50.04
861.73	-6.2
861.899	3.8
862.067	-430.17
862.236	-28.85
862.404	-169.09
862.572	-57.95
862.741	-0.21
862.909	33.72
863.078	-9.03
863.246	35.25
863.414	59.29
863.582	31.83
863.751	-10.85
863.919	-12.01
864.087	10.41
864.255	2.95
864.424	-98.71
864.592	9.13
864.76	13.37
864.928	49
865.096	-51.19
865.264	-61.93
865.432	-794.89
865.6	12.62
865.768	-99.95
865.936	-63.98
866.104	-39.81
866.272	-30.55
866.44	-221.56
866.608	278.12
866.776	154.16
866.944	1978.49
867.112	-304.56
867.28	-104.13
867.448	-17.58
867.615	21.13
867.783	24.64
867.951	10.09
868.119	51.48
868.286	23.38
868.454	-88.8
868.622	2.45
868.789	47.84
868.957	373.21
869.125	-1188.82
869.292	-45.39
869.46	-138.36
869.627	16.22
869.795	24.13
869.963	44.91
870.13	42.38
870.298	46.53
870.465	-62.98
870.632	-108.94
870.8	-96.97
870.967	-139.37
871.135	-177.05
871.302	-139.2
871.469	-197.51
871.637	-224.82
871.804	-112.34
871.971	-164.58
872.139	-433.37
872.306	18.46
872.473	-10.05
872.64	-193.88
872.807	-21.02
872.975	40.43
873.142	-142.45
873.309	937.16
873.476	98.74
873.643	165.07
873.81	106.47
873.977	95.5
874.144	47.68
874.311	-66.06
874.478	-102.5
874.645	-105.15
874.812	-88.82
874.979	-38.24
875.146	-77.8
875.313	-90.16
875.48	-20.53
875.647	-20.18
875.813	-48.37
875.98	-16.03
876.147	-54.24
876.314	-118.74
876.481	894.01
876.647	-962.64
876.814	378.63
876.981	118.17
877.147	42.56
877.314	28.6
877.481	54.59
877.647	59.85
877.814	13.08
877.98	-56.02
878.147	-1.92
878.314	14.99
878.48	-29.26
878.647	-30.48
878.813	59.31
878.979	8.5
879.146	5.82
879.312	-3.81
879.479	1.7
879.645	-112.71
879.811	-149.13
879.978	-512.02
880.144	-136.17
880.31	-92.47
880.477	-322.42
880.643	-317.52
880.809	-115.17
880.975	-70.99
881.142	-683.41
881.308	-73
881.474	-18.67
881.64	-28.88
881.806	-76.28
881.972	6.28
882.138	42.09
882.304	5.55
882.47	-111.87
882.636	-591.6
882.802	-200.24
882.968	-70.15
883.134	-30.81
883.3	-63.9
883.466	-8.68
883.632	21.91
883.798	-10.29
883.964	-26.18
884.129	0.16
884.295	-2.05
884.461	-55.55
884.627	-35.87
884.793	-80.47
884.958	-32.56
885.124	-95.68
885.29	-170.03
885.455	-292.11
885.621	-50.18
885.787	-94.54
885.952	-17.09
886.118	15.61
886.283	19.3
886.449	-42.5
886.614	-81.21
886.78	-210.67
886.945	1483.2
887.111	-821.24
887.276	-652.13
887.442	-1152.5
887.607	-575.35
887.773	-338.77
887.938	-244.06
888.103	-263.39
888.269	-103.54
888.434	-146.89
888.599	-37.38
888.764	48.88
888.93	47.35
889.095	16.71
889.26	-35.88
889.425	-14.87
889.59	-9.08
889.756	-98.35
889.921	-56.88
890.086	20.12
890.251	-3.65
890.416	-184.38
890.581	-762.5
890.746	149.55
890.911	251.43
891.076	107.47
891.241	-77.43
891.406	24.72
891.571	3.85
891.736	-232
891.901	-577.65
892.065	463.46
892.23	134.74
892.395	195.84
892.56	268.42
892.725	-263.87
892.889	-1028.66
893.054	-187.93
893.219	-82.99
893.384	-36.87
893.548	-79.37
893.713	-103.36
893.878	-50.35
