Data from Ofra_1a_PS_2GT41_Reflection_2.txt Node
Date: Tue Jul 20 10:51:05 EDT 2021
User: Adam
Spectrometer: FLMT01687
Trigger mode: 0
Integration Time (sec): 1.004000E0
Scans to average: 2
Electric dark correction enabled: true
Nonlinearity correction enabled: false
Boxcar width: 2
XAxis mode: Wavelengths
Number of Pixels in Spectrum: 3648
>>>>>Begin Spectral Data<<<<<
179.494	-86.8
179.716	-114.5
179.937	297.99
180.158	21.02
180.38	84.7
180.601	58.69
180.823	-6.19
181.044	-8.49
181.265	58
181.486	99.59
181.708	-1.26
181.929	4827.27
182.15	-41.04
182.372	462.56
182.593	114.48
182.814	-79.97
183.035	-34.76
183.257	-21.28
183.478	-14.14
183.699	-43
183.92	-64.45
184.141	-53.08
184.363	-29.32
184.584	-51.57
184.805	-8.42
185.026	27.18
185.247	13.77
185.468	-17.09
185.689	14.68
185.91	-20.99
186.132	-11.62
186.353	7.38
186.574	11.8
186.795	14.76
187.016	24.94
187.237	29.87
187.458	13.09
187.679	11.31
187.9	4.17
188.121	5.7
188.342	-3.2
188.563	-7.63
188.784	36.48
189.005	29.01
189.226	14.83
189.447	18.88
189.667	12.5
189.888	-9.03
190.109	-34.08
190.33	-3.12
190.551	-19.41
190.772	-9.65
190.993	-16.48
191.214	-13.96
191.434	-36.85
191.655	-17.35
191.876	-27.87
192.097	-34.26
192.318	-9.02
192.538	-36.92
192.759	-36.33
192.98	-5.1
193.201	10.66
193.421	10.58
193.642	18.16
193.863	29.32
194.083	26.14
194.304	0.2
194.525	10.31
194.745	18.04
194.966	18.65
195.187	12.19
195.407	12.71
195.628	12.65
195.848	4.95
196.069	-19.13
196.29	-6.96
196.51	3.09
196.731	-16.6
196.951	-38.35
197.172	-15.58
197.392	-42.07
197.613	-19.82
197.833	-9.05
198.054	13.37
198.274	7.35
198.495	12.36
198.715	13.79
198.936	19.94
199.156	20.56
199.377	24.65
199.597	26.19
199.817	22.84
200.038	-4.64
200.258	5.2
200.479	-1.29
200.699	-3.78
200.919	-13.66
201.14	-13.38
201.36	-25.05
201.58	-45.93
201.801	-47.09
202.021	-51.03
202.241	-31.06
202.461	-2.67
202.682	27.13
202.902	28.45
203.122	26.01
203.342	20.71
203.563	1.16
203.783	-11.26
204.003	-30.59
204.223	7.01
204.443	14.29
204.663	21.94
204.884	46.75
205.104	50.56
205.324	27.44
205.544	3.35
205.764	11.43
205.984	12.79
206.204	15.1
206.424	13.65
206.644	13.13
206.864	-10.3
207.084	-16.39
207.304	-17.76
207.525	-30.05
207.745	-11.07
207.964	0.36
208.184	-15.26
208.404	-4.36
208.624	18.02
208.844	24.63
209.064	20.83
209.284	24
209.504	16.14
209.724	15.59
209.944	-10.23
210.164	-9.68
210.384	-17.35
210.604	-52.81
210.823	-122.54
211.043	-60.59
211.263	-159.36
211.483	-88.95
211.703	-41.49
211.922	-31.41
212.142	-25.63
212.362	16.36
212.582	6.39
212.801	-18.28
213.021	-12.19
213.241	-33.48
213.461	-28.56
213.68	-15.85
213.9	-3.26
214.12	-20.74
214.339	-14.58
214.559	-27.68
214.779	-38.17
214.998	-44.3
215.218	-9.43
215.438	-7.45
215.657	-8.24
215.877	-9.1
216.096	12.56
216.316	6.24
216.535	2.11
216.755	-4.35
216.974	-21.48
217.194	-39.01
217.413	-27.81
217.633	-45.26
217.852	-32.63
218.072	-9.85
218.291	-6.15
218.511	-25.62
218.73	-9.03
218.95	-17.21
219.169	-25.44
219.389	-24.56
219.608	13.02
219.827	17.31
220.047	35.98
220.266	43.27
220.485	45.31
220.705	22.44
220.924	-26.6
221.143	-10.89
221.363	2.13
221.582	-8.27
221.801	-4.98
222.021	13.54
222.24	-11.83
222.459	-7.97
222.678	4.94
222.897	3.26
223.117	21.67
223.336	31.12
223.555	44.77
223.774	55.26
223.993	32.11
224.213	36.57
224.432	35.08
224.651	7.16
224.87	18.77
225.089	30.72
225.308	21.97
225.527	19.66
225.746	27.9
225.965	21.01
226.184	2.48
226.404	-6.39
226.623	3.59
226.842	1.31
227.061	-15.89
227.28	-1.45
227.499	0.38
227.718	3.42
227.936	2.5
228.155	10.23
228.374	11.18
228.593	10.25
228.812	1.92
229.031	4.43
229.25	6.6
229.469	12.27
229.688	29.57
229.907	36.69
230.125	44.69
230.344	43.56
230.563	50.84
230.782	44.43
231.001	32.12
231.22	38.04
231.438	48.83
231.657	48.2
231.876	36.97
232.095	49.87
232.313	29.97
232.532	7.4
232.751	-9.85
232.969	3.07
233.188	-21.17
233.407	0.63
233.625	3.11
233.844	-13.99
234.063	-15
234.281	4.7
234.5	-0.96
234.719	0.58
234.937	9.88
235.156	-11.55
235.374	-16.06
235.593	7.82
235.811	28.37
236.03	30.8
236.249	38.7
236.467	40.44
236.686	24.91
236.904	17.07
237.123	8.61
237.341	13.58
237.559	-0.76
237.778	25.05
237.996	-7.65
238.215	-29.28
238.433	-90.18
238.652	-18.42
238.87	-37.78
239.088	-19.89
239.307	-9.75
239.525	-3.42
239.743	-16.21
239.962	-30.82
240.18	-6.85
240.398	-6.7
240.617	-20.9
240.835	-13
241.053	-12.19
241.271	-15.48
241.49	10.37
241.708	14.39
241.926	8.91
242.144	27.16
242.363	4.31
242.581	-39.82
242.799	-31
243.017	-15.24
243.235	-13.33
243.453	-17.47
243.672	-14.53
243.89	-13.06
244.108	1.06
244.326	9.35
244.544	26.37
244.762	25.16
244.98	30.63
245.198	24.75
245.416	26.92
245.634	11.12
245.852	-12.7
246.07	10.58
246.288	5.22
246.506	2.85
246.724	-0.79
246.942	11.32
247.16	4.91
247.378	-19.65
247.596	-31.31
247.814	-21.79
248.032	-6.16
248.25	-10.04
248.468	24.92
248.685	28.99
248.903	11.42
249.121	7.66
249.339	8.59
249.557	-17.04
249.775	-11.37
249.992	7
250.21	8.48
250.428	16.63
250.646	31.73
250.863	15.27
251.081	18.83
251.299	36.72
251.517	39.72
251.734	32.24
251.952	41.45
252.17	51.7
252.387	39.9
252.605	14.64
252.823	10.61
253.04	20.77
253.258	-1.58
253.475	2.77
253.693	23.46
253.911	19.1
254.128	8.88
254.346	13.83
254.563	34.1
254.781	26.57
254.998	16.28
255.216	-6.57
255.433	-18.34
255.651	-35.89
255.868	-50.05
256.086	-29.31
256.303	-12.17
256.521	-7.77
256.738	-16.04
256.956	-9.41
257.173	-18.14
257.39	-11.2
257.608	-5.82
257.825	-10.56
258.043	6.06
258.26	8.2
258.477	10.83
258.695	7.49
258.912	13.86
259.129	-7.15
259.346	-4.92
259.564	-27.7
259.781	-36.27
259.998	-10.16
260.216	22.82
260.433	12.89
260.65	23.86
260.867	27.86
261.084	18.71
261.302	2.73
261.519	11.83
261.736	6.52
261.953	13.73
262.17	20.16
262.387	17.88
262.604	22.77
262.822	33.55
263.039	31.78
263.256	32.38
263.473	26.31
263.69	18.81
263.907	24.26
264.124	37.74
264.341	27.63
264.558	34.17
264.775	45.83
264.992	38.44
265.209	15.63
265.426	14.8
265.643	16.06
265.86	-9.59
266.077	-19.48
266.294	-2.97
266.51	20.24
266.727	8.32
266.944	37.88
267.161	44.39
267.378	41.98
267.595	22.09
267.812	8.9
268.028	-25.05
268.245	-42.35
268.462	-34.82
268.679	-24.4
268.896	10.89
269.112	6.51
269.329	-25.35
269.546	-5
269.763	0.14
269.979	-4.36
270.196	6.22
270.413	18.49
270.629	6.48
270.846	-10.97
271.063	-12.54
271.279	-10.87
271.496	-15.18
271.712	-18.98
271.929	3.22
272.146	-18.93
272.362	-2.31
272.579	1.42
272.795	-14.75
273.012	-11.48
273.228	7.05
273.445	-3.25
273.661	-9.05
273.878	1.26
274.094	-16.61
274.311	-17.57
274.527	-28.98
274.744	13.3
274.96	21.88
275.177	39.05
275.393	39.93
275.609	38.02
275.826	18.07
276.042	1.27
276.259	-4.87
276.475	-17.6
276.691	-24.53
276.908	-9.19
277.124	11.97
277.34	12.55
277.557	9.7
277.773	2.88
277.989	-15.22
278.205	-7.05
278.422	-12.69
278.638	-11.85
278.854	-7.63
279.07	8.95
279.286	-9.06
279.503	1.99
279.719	7.44
279.935	9.74
280.151	-7.67
280.367	-3.43
280.583	-5.59
280.799	-4.73
281.016	-51.85
281.232	-25.25
281.448	-25.61
281.664	-24.75
281.88	-23.99
282.096	6.41
282.312	-5.12
282.528	1.53
282.744	3.82
282.96	-18.96
283.176	-38.36
283.392	-42.39
283.608	-31.13
283.824	-53.94
284.04	-68.01
284.256	-8.18
284.471	-6.46
284.687	-12.05
284.903	-9.5
285.119	18.6
285.335	7.34
285.551	12.11
285.767	9.82
285.982	2.04
286.198	-26.26
286.414	3.85
286.63	-0.49
286.846	-1.44
287.061	30.18
287.277	-2.57
287.493	-33.88
287.709	-25.69
287.924	-15.4
288.14	-14.71
288.356	3.28
288.571	23.67
288.787	10.7
289.003	17.23
289.218	-0.25
289.434	10.22
289.65	20.6
289.865	20.28
290.081	23.69
290.296	29.34
290.512	20.92
290.727	1.56
290.943	-0.03
291.159	-7.59
291.374	-24.65
291.59	-6.64
291.805	-11.22
292.021	-1.41
292.236	-8.56
292.451	16.26
292.667	-1.63
292.882	6.1
293.098	-7.22
293.313	-13.53
293.529	-20.92
293.744	-18.04
293.959	-18.19
294.175	-5.74
294.39	-1.98
294.605	19.09
294.821	17.97
295.036	13.93
295.251	25.06
295.467	22.31
295.682	2.59
295.897	-0.37
296.112	-1.33
296.328	-3.55
296.543	-15.94
296.758	-13.67
296.973	-12.83
297.188	-20.77
297.404	-58.18
297.619	-68.87
297.834	-102.03
298.049	-79.09
298.264	-59.05
298.479	-53.82
298.694	7.44
298.909	17.58
299.125	13.29
299.34	18.64
299.555	24.28
299.77	20.05
299.985	28.38
300.2	33.38
300.415	27.98
300.63	22.47
300.845	6.73
301.06	-3.99
301.275	-12.71
301.49	-8.81
301.704	6.29
301.919	3.92
302.134	5.41
302.349	0.27
302.564	-5.67
302.779	-33.18
302.994	-7.45
303.209	4.25
303.423	9.8
303.638	12.35
303.853	15.19
304.068	4.49
304.283	-9.8
304.497	-15.77
304.712	11.25
304.927	19.41
305.142	20.79
305.356	24.55
305.571	13.45
305.786	2.69
306	-9.12
306.215	-18.6
306.43	-13.34
306.644	0.32
306.859	-17.96
307.074	0.79
307.288	17.38
307.503	19.49
307.717	13.83
307.932	22.36
308.147	17.84
308.361	9.5
308.576	-9.09
308.79	-6.04
309.005	-44.02
309.219	-18.08
309.434	-0.05
309.648	1.96
309.863	6.85
310.077	26.41
310.292	13.37
310.506	-4.22
310.72	-5.97
310.935	6.55
311.149	10.52
311.364	8.53
311.578	3.55
311.792	0.32
312.007	-10.69
312.221	-24.16
312.435	-4.67
312.649	10.72
312.864	-9.73
313.078	-0.9
313.292	24.12
313.507	20.76
313.721	8.41
313.935	42.43
314.149	16.71
314.363	2.96
314.578	-1.49
314.792	-26.24
315.006	-34.57
315.22	0.34
315.434	3.1
315.648	14.7
315.862	21.31
316.077	31.48
316.291	34.46
316.505	1.91
316.719	1.21
316.933	5.54
317.147	-17.13
317.361	-29.74
317.575	-7.19
317.789	-14.16
318.003	-6.12
318.217	22.93
318.431	11.97
318.645	7.7
318.859	12.91
319.073	23.99
319.287	9.26
319.5	13.63
319.714	13.51
319.928	9.11
320.142	-7.32
320.356	12.88
320.57	-6.93
320.784	4.12
320.997	-7.01
321.211	11.12
321.425	-12.36
321.639	19.68
321.853	21.73
322.066	26.35
322.28	19.56
322.494	19.76
322.707	8.83
322.921	2.43
323.135	7.61
323.349	-1.03
323.562	7.19
323.776	15.55
323.989	24.39
324.203	4.77
324.417	2.6
324.63	-19.65
324.844	-29.27
325.057	-53.14
325.271	-28.3
325.485	-10.77
325.698	8.99
325.912	10.9
326.125	2.24
326.339	-3.36
326.552	-2.94
326.766	-7.11
326.979	14.32
327.193	17.98
327.406	10.92
327.619	15.61
327.833	14.01
328.046	7.81
328.26	5.03
328.473	20.78
328.686	17.49
328.9	20.91
329.113	14.89
329.326	17.11
329.54	24.93
329.753	23.72
329.966	19.27
330.179	15.21
330.393	9.95
330.606	-13.33
330.819	-25.26
331.032	-31.69
331.246	-9.66
331.459	5.04
331.672	10.06
331.885	4.08
332.098	9.3
332.311	-2.73
332.525	-7.82
332.738	4.3
332.951	1.57
333.164	-2.66
333.377	-4.63
333.59	-15.88
333.803	-25.97
334.016	-11.22
334.229	5.72
334.442	0.77
334.655	0.87
334.868	1.86
335.081	0.62
335.294	-15.87
335.507	0.47
335.72	8.61
335.933	21.89
336.146	19.74
336.359	31.4
336.572	30.14
336.785	31.57
336.997	9.94
337.21	21.78
337.423	-27.52
337.636	-36.27
337.849	-33.95
338.062	-20.57
338.274	-20.3
338.487	-14.99
338.7	-28.89
338.913	-15.02
339.125	-26.24
339.338	-33.21
339.551	-12.5
339.763	8
339.976	13.81
340.189	15.86
340.402	32.75
340.614	32.82
340.827	24.87
341.039	25.99
341.252	25.88
341.465	13.56
341.677	11.18
341.89	5.38
342.102	16.37
342.315	22.3
342.527	38.88
342.74	38.11
342.952	43.74
343.165	37.72
343.377	35.91
343.59	14.43
343.802	16.55
344.015	20.72
344.227	13.76
344.44	20.45
344.652	24.25
344.864	32.67
345.077	48.89
345.289	41.43
345.502	32.54
345.714	28.53
345.926	18.2
346.139	1.1
346.351	19.72
346.563	33.72
346.775	42.89
346.988	53.48
347.2	48.73
347.412	24.96
347.624	19.47
347.837	35.93
348.049	26.53
348.261	16.68
348.473	20.2
348.685	19.79
348.897	1.22
349.11	2.67
349.322	17.78
349.534	20.7
349.746	17.17
349.958	-2.79
350.17	-22.4
350.382	-18.88
350.594	-17.7
350.806	-3.49
351.018	14.64
351.23	23.31
351.442	23.07
351.654	25.3
351.866	13.69
352.078	21.37
352.29	11.7
352.502	10.07
352.714	9.44
352.926	4.19
353.138	5.39
353.35	4.57
353.561	8.62
353.773	2.44
353.985	12.48
354.197	13.92
354.409	19.27
354.621	8.36
354.832	1.63
355.044	-25.53
355.256	-47.93
355.468	-63
355.679	-28.88
355.891	-6.72
356.103	4.12
356.314	-2.76
356.526	-8.93
356.738	-13.84
356.949	-33.11
357.161	-16.18
357.373	0.23
357.584	7.84
357.796	15.06
358.008	22.42
358.219	9.87
358.431	-0.29
358.642	12.47
358.854	8.9
359.065	1.46
359.277	6.65
359.488	3.61
359.7	0.72
359.911	-17.86
360.123	-7.46
360.334	-26.25
360.546	-19.19
360.757	-22.56
360.969	-10.77
361.18	-8.73
361.391	19.14
361.603	27.4
361.814	46.94
362.025	45.78
362.237	43.37
362.448	39.43
362.659	20.73
362.871	-5.91
363.082	-14.65
363.293	-37.58
363.504	-55.92
363.716	-42.3
363.927	-2.41
364.138	-17.49
364.349	-20.2
364.56	-46.36
364.772	-25.89
364.983	-21.7
365.194	-6.17
365.405	16.86
365.616	20.91
365.827	14.98
366.038	4.63
366.25	15.02
366.461	-1.54
366.672	14.87
366.883	18.68
367.094	7.97
367.305	-15.9
367.516	-2.31
367.727	-20.83
367.938	-23.93
368.149	-22.51
368.36	-12.38
368.571	-27.26
368.781	-29.79
368.992	-26.19
369.203	-14.32
369.414	-17.75
369.625	-16.23
369.836	13.25
370.047	14.19
370.258	7.35
370.468	8.25
370.679	13.89
370.89	-2.52
371.101	7.52
371.312	3.62
371.522	8
371.733	6.23
371.944	-7.99
372.155	-15.54
372.365	-6.07
372.576	-14.28
372.787	-7.58
372.997	4.09
373.208	-1.18
373.419	-11.47
373.629	-8.29
373.84	-21.46
374.05	-26.49
374.261	-21.01
374.472	-6.89
374.682	3.14
374.893	5.48
375.103	23.48
375.314	21.68
375.524	9.34
375.735	5.56
375.945	9.48
376.156	-3.82
376.366	-7.09
376.577	1.63
376.787	-0.03
376.997	4.04
377.208	7.06
377.418	1.62
377.629	2.29
377.839	9.06
378.049	8.55
378.26	7.73
378.47	12.44
378.68	9.43
378.89	8.26
379.101	13.53
379.311	19.05
379.521	12.68
379.732	15.89
379.942	6.57
380.152	-8.98
380.362	-8.87
380.572	5.68
380.783	3.48
380.993	13.37
381.203	14.43
381.413	19.34
381.623	13.83
381.833	16.7
382.043	10.31
382.253	11.33
382.463	14.35
382.674	18.98
382.884	19.65
383.094	12.16
383.304	19.09
383.514	12.83
383.724	9.51
383.934	0.23
384.144	9.53
384.353	8.93
384.563	6.24
384.773	10.92
384.983	10.11
385.193	5.56
385.403	1.24
385.613	4.38
385.823	-2.97
386.033	-0.23
386.242	-1.83
386.452	-2.62
386.662	-4.58
386.872	2.61
387.082	-0.15
387.291	-0.02
387.501	-0.37
387.711	2.92
387.921	-0.8
388.13	5.98
388.34	5.7
388.55	3
388.759	-4.42
388.969	-3.96
389.179	-3.37
389.388	-1.84
389.598	-0.01
389.807	0.32
390.017	0.38
390.227	-3.33
390.436	0.74
390.646	4.16
390.855	5.36
391.065	7.98
391.274	8.11
391.484	4.49
391.693	3.22
391.903	4.86
392.112	1.03
392.322	0.81
392.531	0.55
392.74	-0.89
392.95	-1.1
393.159	0.79
393.369	0.6
393.578	2.02
393.787	2.34
393.997	3.51
394.206	2.9
394.415	3.76
394.625	2.09
394.834	0.83
395.043	0.07
395.252	2.9
395.462	4.11
395.671	4.49
395.88	5.78
396.089	4.68
396.298	3.18
396.508	1.88
396.717	2.72
396.926	2.4
397.135	3.9
397.344	3.06
397.553	3.54
397.762	4
397.971	3.64
398.181	3.37
398.39	3.41
398.599	3.94
398.808	3.05
399.017	4.51
399.226	4.57
399.435	4.68
399.644	4.54
399.853	4.96
400.062	4.45
400.27	4.02
400.479	4.4
400.688	4.24
400.897	4.09
401.106	3.88
401.315	4.15
401.524	4.22
401.733	4.37
401.941	4.63
402.15	4.63
402.359	4.53
402.568	4.6
402.777	4.47
402.985	4.3
403.194	4.15
403.403	4.37
403.612	3.8
403.82	3.41
404.029	3.45
404.238	3.49
404.446	3.61
404.655	3.99
404.864	4.24
405.072	4.21
405.281	4.35
405.489	4.02
405.698	4.03
405.906	4.13
406.115	4.11
406.324	4.1
406.532	4.14
406.741	4.03
406.949	4.06
407.158	4.18
407.366	4.1
407.574	4.15
407.783	4.15
407.991	4.02
408.2	3.9
408.408	3.96
408.617	4.02
408.825	3.99
409.033	4.05
409.242	4.16
409.45	4.06
409.658	3.98
409.867	4.03
410.075	4.05
410.283	3.9
410.491	3.87
410.7	3.79
410.908	3.89
411.116	3.87
411.324	3.83
411.533	3.74
411.741	3.7
411.949	3.61
412.157	3.45
412.365	3.57
412.573	3.68
412.781	3.64
412.99	3.52
413.198	3.69
413.406	3.72
413.614	3.81
413.822	4.04
414.03	4.06
414.238	4.01
414.446	4
414.654	3.84
414.862	3.73
415.07	3.67
415.278	3.75
415.486	3.57
415.694	3.76
415.902	3.68
416.109	3.67
416.317	3.51
416.525	3.47
416.733	3.3
416.941	3.41
417.149	3.38
417.357	3.48
417.564	3.55
417.772	3.69
417.98	3.57
418.188	3.6
418.395	3.38
418.603	3.32
418.811	3.11
419.019	3.1
419.226	3.16
419.434	3.25
419.642	3.17
419.849	3.26
420.057	3.24
420.265	3.23
420.472	3.25
420.68	3.38
420.887	3.24
421.095	3.33
421.302	3.33
421.51	3.24
421.717	3.21
421.925	3.33
422.132	3.37
422.34	3.28
422.547	3.31
422.755	3.4
422.962	3.36
423.17	3.12
423.377	3.27
423.585	3.45
423.792	3.32
423.999	3.36
424.207	3.33
424.414	3.14
424.621	3.09
424.829	3.16
425.036	3.09
425.243	3.29
425.451	3.41
425.658	3.42
425.865	3.43
426.072	3.51
426.28	3.56
426.487	3.44
426.694	3.23
426.901	3.24
427.108	3.22
427.315	3.06
427.523	3.04
427.73	3.07
427.937	2.91
428.144	2.86
428.351	2.99
428.558	3.12
428.765	3.13
428.972	3.36
429.179	3.21
429.386	3.19
429.593	3.08
429.8	3.12
430.007	3.07
430.214	3.33
430.421	3.37
430.628	3.39
430.835	3.29
431.042	3.14
431.249	3.14
431.456	3.09
431.662	3.24
431.869	3.48
432.076	3.61
432.283	3.69
432.49	3.74
432.697	3.66
432.903	3.62
433.11	3.8
433.317	3.82
433.524	3.83
433.73	3.8
433.937	3.86
434.144	3.61
434.35	3.54
434.557	3.58
434.764	3.63
434.97	3.39
435.177	3.57
435.384	3.55
435.59	3.4
435.797	3.53
436.003	3.7
436.21	3.64
436.416	3.65
436.623	3.78
436.829	3.62
437.036	3.66
437.242	3.71
437.449	3.87
437.655	3.89
437.862	4.01
438.068	3.96
438.275	3.98
438.481	3.8
438.687	3.79
438.894	3.85
439.1	3.87
439.307	3.96
439.513	4.08
439.719	4.18
439.926	4.08
440.132	4.17
440.338	4.03
440.544	3.97
440.751	3.87
440.957	3.91
441.163	3.87
441.369	3.96
441.575	3.9
441.782	3.92
441.988	4
442.194	3.96
442.4	3.89
442.606	4.06
442.812	4.03
443.018	4.01
443.224	4.09
443.431	4.16
443.637	4.04
443.843	4.11
444.049	4.06
444.255	4.01
444.461	3.91
444.667	3.93
444.873	3.94
445.079	3.96
445.284	3.99
445.49	4.04
445.696	4.07
445.902	4.09
446.108	4.11
446.314	4.09
446.52	4.22
446.726	4.33
446.931	4.26
447.137	4.21
447.343	4.4
447.549	4.35
447.755	4.25
447.96	4.26
448.166	4.33
448.372	4.19
448.578	4.12
448.783	4.08
448.989	4.18
449.195	4.12
449.4	4.18
449.606	4.22
449.812	4.24
450.017	4.27
450.223	4.25
450.428	4.22
450.634	4.15
450.84	4.14
451.045	4.12
451.251	4.23
451.456	4.28
451.662	4.42
451.867	4.39
452.073	4.34
452.278	4.32
452.483	4.32
452.689	4.31
452.894	4.44
453.1	4.43
453.305	4.41
453.51	4.4
453.716	4.32
453.921	4.4
454.127	4.47
454.332	4.5
454.537	4.52
454.742	4.51
454.948	4.39
455.153	4.41
455.358	4.38
455.563	4.35
455.769	4.4
455.974	4.42
456.179	4.3
456.384	4.23
456.589	4.22
456.795	4.21
457	4.15
457.205	4.24
457.41	4.26
457.615	4.29
457.82	4.34
458.025	4.36
458.23	4.29
458.435	4.33
458.64	4.33
458.845	4.35
459.05	4.42
459.255	4.5
459.46	4.53
459.665	4.46
459.87	4.38
460.075	4.46
460.28	4.46
460.485	4.52
460.69	4.59
460.895	4.66
461.099	4.5
461.304	4.41
461.509	4.47
461.714	4.54
461.919	4.47
462.123	4.56
462.328	4.49
462.533	4.37
462.738	4.3
462.942	4.25
463.147	4.29
463.352	4.5
463.556	4.47
463.761	4.45
463.966	4.54
464.17	4.57
464.375	4.54
464.58	4.55
464.784	4.53
464.989	4.54
465.193	4.48
465.398	4.49
465.602	4.7
465.807	4.75
466.011	4.77
466.216	4.79
466.42	4.79
466.625	4.7
466.829	4.72
467.034	4.76
467.238	4.83
467.443	4.82
467.647	4.79
467.851	4.81
468.056	4.83
468.26	4.82
468.464	4.84
468.669	4.93
468.873	4.91
469.077	4.91
469.282	4.91
469.486	4.88
469.69	4.86
469.894	4.89
470.099	4.81
470.303	4.78
470.507	4.85
470.711	4.85
470.915	4.95
471.119	5.08
471.324	5.17
471.528	5.2
471.732	5.21
471.936	5.27
472.14	5.22
472.344	5.28
472.548	5.28
472.752	5.3
472.956	5.17
473.16	5.18
473.364	5.12
473.568	5.06
473.772	5.02
473.976	5.08
474.18	5.12
474.384	5.09
474.588	5.18
474.792	5.24
474.995	5.23
475.199	5.22
475.403	5.29
475.607	5.31
475.811	5.32
476.015	5.29
476.218	5.24
476.422	5.2
476.626	5.21
476.83	5.26
477.033	5.3
477.237	5.34
477.441	5.35
477.644	5.31
477.848	5.32
478.052	5.27
478.255	5.34
478.459	5.34
478.663	5.37
478.866	5.36
479.07	5.39
479.273	5.4
479.477	5.45
479.681	5.5
479.884	5.46
480.088	5.49
480.291	5.45
480.495	5.42
480.698	5.39
480.901	5.44
481.105	5.43
481.308	5.52
481.512	5.53
481.715	5.64
481.919	5.69
482.122	5.71
482.325	5.72
482.529	5.74
482.732	5.58
482.935	5.54
483.138	5.54
483.342	5.53
483.545	5.64
483.748	5.74
483.952	5.75
484.155	5.85
484.358	5.8
484.561	5.74
484.764	5.7
484.967	5.69
485.171	5.69
485.374	5.64
485.577	5.65
485.78	5.62
485.983	5.61
486.186	5.54
486.389	5.63
486.592	5.63
486.795	5.71
486.998	5.66
487.201	5.71
487.404	5.76
487.607	5.77
487.81	5.79
488.013	5.8
488.216	5.77
488.419	5.71
488.622	5.68
488.825	5.69
489.028	5.69
489.231	5.72
489.433	5.75
489.636	5.81
489.839	5.85
490.042	5.92
490.245	5.94
490.447	5.95
490.65	5.93
490.853	5.96
491.056	5.96
491.258	6.01
491.461	5.99
491.664	6.02
491.866	5.99
492.069	6.03
492.272	5.94
492.474	6.05
492.677	6.02
492.879	6.01
493.082	6.09
493.285	6.27
493.487	6.27
493.69	6.35
493.892	6.43
494.095	6.43
494.297	6.37
494.5	6.38
494.702	6.38
494.905	6.41
495.107	6.42
495.309	6.53
495.512	6.59
495.714	6.67
495.917	6.73
496.119	6.78
496.321	6.72
496.524	6.66
496.726	6.7
496.928	6.68
497.13	6.61
497.333	6.58
497.535	6.7
497.737	6.68
497.939	6.66
498.142	6.75
498.344	6.86
498.546	6.87
498.748	6.95
498.95	7.07
499.152	7.15
499.355	7.11
499.557	7.12
499.759	7.21
499.961	7.19
500.163	7.17
500.365	7.29
500.567	7.32
500.769	7.31
500.971	7.34
501.173	7.34
501.375	7.38
501.577	7.38
501.779	7.37
501.981	7.42
502.183	7.47
502.385	7.46
502.587	7.58
502.788	7.66
502.99	7.71
503.192	7.76
503.394	7.77
503.596	7.66
503.798	7.56
503.999	7.51
504.201	7.47
504.403	7.45
504.605	7.55
504.806	7.66
505.008	7.69
505.21	7.74
505.411	7.83
505.613	7.81
505.815	7.75
506.016	7.76
506.218	7.73
506.42	7.63
506.621	7.65
506.823	7.71
507.024	7.69
507.226	7.74
507.427	7.79
507.629	7.83
507.83	7.8
508.032	7.79
508.233	7.8
508.435	7.79
508.636	7.83
508.838	7.83
509.039	7.78
509.24	7.74
509.442	7.78
509.643	7.68
509.845	7.68
510.046	7.73
510.247	7.75
510.448	7.74
510.65	7.75
510.851	7.79
511.052	7.79
511.254	7.83
511.455	7.83
511.656	7.79
511.857	7.76
512.058	7.72
512.26	7.65
512.461	7.65
512.662	7.66
512.863	7.58
513.064	7.58
513.265	7.59
513.466	7.57
513.667	7.63
513.868	7.71
514.069	7.67
514.27	7.7
514.471	7.63
514.672	7.57
514.873	7.64
515.074	7.7
515.275	7.67
515.476	7.72
515.677	7.75
515.878	7.71
516.079	7.72
516.28	7.7
516.481	7.7
516.682	7.69
516.882	7.66
517.083	7.63
517.284	7.66
517.485	7.69
517.686	7.74
517.886	7.78
518.087	7.8
518.288	7.78
518.488	7.73
518.689	7.65
518.89	7.6
519.091	7.64
519.291	7.71
519.492	7.75
519.692	7.79
519.893	7.79
520.094	7.77
520.294	7.73
520.495	7.72
520.695	7.78
520.896	7.74
521.096	7.77
521.297	7.82
521.497	7.84
521.698	7.78
521.898	7.84
522.099	7.82
522.299	7.8
522.499	7.76
522.7	7.8
522.9	7.82
523.101	7.79
523.301	7.8
523.501	7.88
523.702	7.87
523.902	7.88
524.102	8.02
524.302	8.04
524.503	7.98
524.703	8.01
524.903	8.01
525.103	7.93
525.304	7.98
525.504	8.06
525.704	8.06
525.904	8.01
526.104	8
526.304	7.96
526.504	7.91
526.705	7.93
526.905	8
527.105	8.01
527.305	8.03
527.505	8
527.705	8
527.905	7.99
528.105	8.01
528.305	8
528.505	8.04
528.705	8.07
528.905	8.1
529.105	8.11
529.304	8.09
529.504	8.17
529.704	8.14
529.904	8.14
530.104	8.16
530.304	8.24
530.503	8.18
530.703	8.18
530.903	8.19
531.103	8.23
531.303	8.23
531.502	8.33
531.702	8.39
531.902	8.49
532.101	8.52
532.301	8.5
532.501	8.54
532.7	8.55
532.9	8.52
533.1	8.51
533.299	8.55
533.499	8.52
533.698	8.53
533.898	8.56
534.097	8.55
534.297	8.56
534.496	8.53
534.696	8.55
534.895	8.56
535.095	8.66
535.294	8.68
535.494	8.68
535.693	8.73
535.892	8.73
536.092	8.68
536.291	8.71
536.491	8.74
536.69	8.74
536.889	8.73
537.088	8.72
537.288	8.72
537.487	8.79
537.686	8.82
537.886	8.83
538.085	8.85
538.284	8.87
538.483	8.83
538.682	8.86
538.882	8.93
539.081	8.98
539.28	8.99
539.479	9.02
539.678	9.02
539.877	9.05
540.076	9.05
540.275	9.1
540.474	9.11
540.673	9.16
540.872	9.13
541.071	9.22
541.27	9.25
541.469	9.32
541.668	9.37
541.867	9.47
542.066	9.47
542.265	9.54
542.464	9.54
542.663	9.62
542.862	9.66
543.06	9.74
543.259	9.79
543.458	9.84
543.657	9.89
543.856	9.96
544.054	9.95
544.253	9.94
544.452	9.98
544.651	9.92
544.849	9.89
545.048	9.88
545.247	9.93
545.445	9.96
545.644	10.05
545.843	10.07
546.041	10.09
546.24	10.14
546.438	10.16
546.637	10.11
546.836	10.18
547.034	10.23
547.233	10.26
547.431	10.3
547.63	10.37
547.828	10.43
548.027	10.49
548.225	10.53
548.423	10.52
548.622	10.62
548.82	10.62
549.019	10.67
549.217	10.79
549.415	10.9
549.614	10.99
549.812	11.05
550.01	11.13
550.209	11.17
550.407	11.29
550.605	11.24
550.803	11.36
551.002	11.44
551.2	11.43
551.398	11.46
551.596	11.6
551.794	11.68
551.993	11.7
552.191	11.85
552.389	11.9
552.587	11.92
552.785	11.88
552.983	12
553.181	12.05
553.379	12.12
553.577	12.2
553.775	12.38
553.973	12.42
554.171	12.46
554.369	12.54
554.567	12.62
554.765	12.62
554.963	12.71
555.161	12.76
555.359	12.84
555.557	12.89
555.755	13.05
555.952	13.2
556.15	13.31
556.348	13.35
556.546	13.49
556.744	13.5
556.941	13.45
557.139	13.5
557.337	13.64
557.535	13.66
557.732	13.73
557.93	13.92
558.128	14.01
558.325	14.02
558.523	14.12
558.721	14.18
558.918	14.18
559.116	14.3
559.313	14.5
559.511	14.65
559.708	14.83
559.906	14.93
560.104	14.96
560.301	15.01
560.498	15.05
560.696	15.08
560.893	15.18
561.091	15.25
561.288	15.31
561.486	15.41
561.683	15.55
561.88	15.65
562.078	15.77
562.275	15.89
562.473	15.88
562.67	15.92
562.867	15.94
563.064	16.01
563.262	16.06
563.459	16.21
563.656	16.25
563.853	16.38
564.051	16.53
564.248	16.64
564.445	16.7
564.642	16.83
564.839	16.87
565.036	16.88
565.234	16.91
565.431	17.03
565.628	17.13
565.825	17.26
566.022	17.37
566.219	17.5
566.416	17.51
566.613	17.61
566.81	17.75
567.007	17.71
567.204	17.79
567.401	17.86
567.598	17.89
567.795	17.88
567.991	18
568.188	18.01
568.385	18.1
568.582	18.2
568.779	18.28
568.976	18.37
569.172	18.5
569.369	18.6
569.566	18.53
569.763	18.43
569.96	18.55
570.156	18.57
570.353	18.57
570.55	18.65
570.746	18.82
570.943	18.82
571.14	18.79
571.336	18.83
571.533	18.88
571.729	18.89
571.926	18.91
572.123	18.98
572.319	19.01
572.516	19.06
572.712	19.1
572.909	19.06
573.105	19.16
573.302	19.2
573.498	19.19
573.695	19.25
573.891	19.29
574.087	19.18
574.284	19.15
574.48	19.14
574.677	19.11
574.873	19.11
575.069	19.21
575.266	19.34
575.462	19.41
575.658	19.43
575.854	19.5
576.051	19.47
576.247	19.31
576.443	19.3
576.639	19.27
576.835	19.22
577.032	19.19
577.228	19.26
577.424	19.22
577.62	19.24
577.816	19.21
578.012	19.21
578.208	19.21
578.404	19.12
578.6	19.09
578.796	19.13
578.993	19.18
579.189	19.17
579.384	19.18
579.58	19.17
579.776	19.15
579.972	19.13
580.168	19.09
580.364	19.2
580.56	19.13
580.756	19.08
580.952	18.94
581.148	19.06
581.343	19
581.539	19.09
581.735	19.09
581.931	19.11
582.127	18.95
582.322	18.88
582.518	18.79
582.714	18.79
582.909	18.82
583.105	18.82
583.301	18.79
583.496	18.76
583.692	18.68
583.888	18.63
584.083	18.57
584.279	18.48
584.474	18.48
584.67	18.48
584.866	18.47
585.061	18.49
585.257	18.63
585.452	18.63
585.648	18.54
585.843	18.48
586.039	18.45
586.234	18.33
586.429	18.36
586.625	18.46
586.82	18.5
587.015	18.45
587.211	18.46
587.406	18.46
587.601	18.46
587.797	18.49
587.992	18.49
588.187	18.46
588.383	18.51
588.578	18.53
588.773	18.54
588.968	18.65
589.163	18.76
589.359	18.62
589.554	18.55
589.749	18.48
589.944	18.46
590.139	18.45
590.334	18.6
590.529	18.68
590.724	18.8
590.919	18.81
591.114	18.77
591.309	18.71
591.504	18.76
591.699	18.68
591.894	18.66
592.089	18.71
592.284	18.73
592.479	18.73
592.674	18.82
592.869	18.82
593.064	18.91
593.259	18.94
593.454	18.92
593.648	18.97
593.843	19.09
594.038	19.13
594.233	19.29
594.428	19.34
594.622	19.39
594.817	19.4
595.012	19.42
595.206	19.36
595.401	19.51
595.596	19.58
595.79	19.61
595.985	19.62
596.18	19.77
596.374	19.82
596.569	19.89
596.763	19.93
596.958	20.04
597.153	20.1
597.347	20.07
597.542	20.09
597.736	20.23
597.931	20.33
598.125	20.33
598.319	20.44
598.514	20.45
598.708	20.48
598.903	20.49
599.097	20.58
599.291	20.54
599.486	20.65
599.68	20.65
599.874	20.77
600.069	20.82
600.263	20.99
600.457	21.01
600.651	21.12
600.846	21.05
601.04	20.97
601.234	20.89
601.428	20.93
601.622	20.92
601.817	21.02
602.011	21.09
602.205	21.12
602.399	21.11
602.593	21.16
602.787	21.09
602.981	21.13
603.175	21.18
603.369	21.21
603.563	21.24
603.757	21.28
603.951	21.24
604.145	21.21
604.339	21.22
604.533	21.13
604.727	21.12
604.921	21.1
605.115	21.12
605.309	21.02
605.502	21.04
605.696	20.97
605.89	21.03
606.084	20.87
606.278	20.87
606.471	20.83
606.665	20.85
606.859	20.7
607.053	20.7
607.246	20.66
607.44	20.43
607.634	20.36
607.827	20.38
608.021	20.33
608.214	20.19
608.408	20.27
608.602	20.15
608.795	20.09
608.989	20.05
609.182	20.13
609.376	20.1
609.569	20.15
609.763	20.05
609.956	20.08
610.15	19.94
610.343	19.85
610.537	19.73
610.73	19.65
610.923	19.54
611.117	19.53
611.31	19.39
611.504	19.26
611.697	19.2
611.89	19.08
612.083	18.9
612.277	18.95
612.47	18.88
612.663	18.83
612.856	18.77
613.05	18.78
613.243	18.58
613.436	18.64
613.629	18.55
613.822	18.54
614.015	18.45
614.209	18.44
614.402	18.33
614.595	18.31
614.788	18.22
614.981	18.15
615.174	18.05
615.367	17.95
615.56	17.87
615.753	17.89
615.946	17.84
616.139	17.86
616.332	17.82
616.525	17.76
616.718	17.63
616.911	17.55
617.103	17.48
617.296	17.4
617.489	17.28
617.682	17.25
617.875	17.25
618.067	17.2
618.26	17.16
618.453	17.27
618.646	17.23
618.838	17.14
619.031	17.12
619.224	17.05
619.417	16.98
619.609	16.93
619.802	16.9
619.994	16.82
620.187	16.81
620.38	16.7
620.572	16.7
620.765	16.68
620.957	16.68
621.15	16.7
621.342	16.67
621.535	16.66
621.727	16.56
621.92	16.53
622.112	16.41
622.305	16.37
622.497	16.27
622.69	16.28
622.882	16.29
623.074	16.35
623.267	16.35
623.459	16.36
623.651	16.38
623.844	16.39
624.036	16.38
624.228	16.32
624.42	16.25
624.613	16.21
624.805	16.14
624.997	16.07
625.189	16.06
625.381	16.06
625.574	15.97
625.766	15.97
625.958	15.96
626.15	15.99
626.342	15.97
626.534	15.95
626.726	15.95
626.918	15.94
627.11	15.85
627.302	15.78
627.494	15.78
627.686	15.71
627.878	15.67
628.07	15.69
628.262	15.78
628.454	15.76
628.646	15.72
628.838	15.74
629.029	15.64
629.221	15.51
629.413	15.41
629.605	15.35
629.797	15.27
629.989	15.31
630.18	15.35
630.372	15.41
630.564	15.43
630.755	15.38
630.947	15.41
631.139	15.33
631.33	15.31
631.522	15.27
631.714	15.22
631.905	15.1
632.097	15.05
632.289	14.98
632.48	14.9
632.672	14.86
632.863	14.78
633.055	14.79
633.246	14.78
633.438	14.74
633.629	14.76
633.821	14.83
634.012	14.77
634.203	14.76
634.395	14.76
634.586	14.74
634.777	14.67
634.969	14.62
635.16	14.55
635.351	14.55
635.543	14.56
635.734	14.54
635.925	14.54
636.117	14.53
636.308	14.58
636.499	14.5
636.69	14.5
636.881	14.46
637.073	14.52
637.264	14.45
637.455	14.49
637.646	14.42
637.837	14.47
638.028	14.39
638.219	14.5
638.41	14.49
638.601	14.53
638.792	14.45
638.983	14.43
639.174	14.24
639.365	14.19
639.556	14.07
639.747	14.06
639.938	14.1
640.129	14.1
640.32	13.96
640.511	14
640.701	14.06
640.892	13.97
641.083	13.91
641.274	13.97
641.465	13.92
641.655	13.86
641.846	13.85
642.037	13.85
642.228	13.74
642.418	13.64
642.609	13.6
642.8	13.49
642.99	13.43
643.181	13.48
643.372	13.53
643.562	13.5
643.753	13.56
643.943	13.47
644.134	13.38
644.324	13.42
644.515	13.4
644.705	13.33
644.896	13.4
645.086	13.42
645.277	13.31
645.467	13.22
645.658	13.15
645.848	13.07
646.038	13.07
646.229	13.06
646.419	13.01
646.61	13.01
646.8	13
646.99	13
647.18	13.04
647.371	13.06
647.561	13.06
647.751	13.02
647.941	12.89
648.132	12.83
648.322	12.85
648.512	12.88
648.702	12.92
648.892	13.1
649.082	13.05
649.272	13.02
649.462	13.1
649.653	13.06
649.843	12.9
650.033	12.9
650.223	12.82
650.413	12.71
650.603	12.7
650.793	12.69
650.983	12.68
651.172	12.74
651.362	12.63
651.552	12.6
651.742	12.59
651.932	12.52
652.122	12.4
652.312	12.44
652.502	12.36
652.691	12.33
652.881	12.34
653.071	12.38
653.261	12.31
653.45	12.28
653.64	12.19
653.83	12.05
654.019	11.92
654.209	11.81
654.399	11.69
654.588	11.56
654.778	11.55
654.968	11.55
655.157	11.45
655.347	11.35
655.536	11.3
655.726	11.08
655.915	10.98
656.105	10.96
656.294	10.88
656.484	10.78
656.673	10.83
656.863	10.71
657.052	10.55
657.241	10.44
657.431	10.38
657.62	10.23
657.809	10.13
657.999	10.07
658.188	10.03
658.377	9.88
658.567	9.75
658.756	9.57
658.945	9.51
659.134	9.37
659.324	9.27
659.513	9.2
659.702	9.1
659.891	8.88
660.08	8.8
660.269	8.67
660.458	8.54
660.648	8.42
660.837	8.36
661.026	8.08
661.215	7.92
661.404	7.85
661.593	7.81
661.782	7.71
661.971	7.74
662.16	7.76
662.349	7.58
662.538	7.42
662.726	7.38
662.915	7.35
663.104	7.26
663.293	7.27
663.482	7.18
663.671	7.08
663.86	6.97
664.048	6.98
664.237	6.88
664.426	6.89
664.615	6.84
664.803	6.75
664.992	6.61
665.181	6.61
665.369	6.47
665.558	6.39
665.747	6.45
665.935	6.54
666.124	6.5
666.312	6.54
666.501	6.53
666.69	6.48
666.878	6.42
667.067	6.33
667.255	6.35
667.444	6.4
667.632	6.39
667.82	6.35
668.009	6.35
668.197	6.32
668.386	6.29
668.574	6.3
668.762	6.25
668.951	6.29
669.139	6.26
669.327	6.34
669.516	6.36
669.704	6.38
669.892	6.46
670.08	6.58
670.269	6.54
670.457	6.46
670.645	6.46
670.833	6.52
671.021	6.58
671.21	6.61
671.398	6.7
671.586	6.79
671.774	6.79
671.962	6.65
672.15	6.68
672.338	6.73
672.526	6.74
672.714	6.72
672.902	6.92
673.09	7.09
673.278	7.11
673.466	7.2
673.654	7.25
673.842	7.25
674.03	7.29
674.218	7.32
674.405	7.35
674.593	7.47
674.781	7.53
674.969	7.6
675.157	7.73
675.344	7.82
675.532	7.81
675.72	7.88
675.908	7.71
676.095	7.66
676.283	7.78
676.471	7.82
676.658	7.94
676.846	8.1
677.033	8.13
677.221	8.13
677.409	8.31
677.596	8.26
677.784	8.42
677.971	8.55
678.159	8.53
678.346	8.48
678.534	8.58
678.721	8.59
678.909	8.71
679.096	8.76
679.283	8.79
679.471	8.88
679.658	8.99
679.846	9.06
680.033	9.41
680.22	9.63
680.408	9.59
680.595	9.65
680.782	9.66
680.969	9.67
681.157	9.75
681.344	9.85
681.531	10.01
681.718	10.14
681.905	10.18
682.093	10.25
682.28	10.54
682.467	10.68
682.654	10.77
682.841	10.97
683.028	11
683.215	11.12
683.402	11.01
683.589	11.32
683.776	11.37
683.963	11.68
684.15	11.87
684.337	12.3
684.524	12.34
684.711	12.57
684.898	12.62
685.085	12.67
685.271	12.8
685.458	13.09
685.645	13.2
685.832	13.53
686.019	13.67
686.205	13.69
686.392	13.89
686.579	14.06
686.766	14.25
686.952	14.62
687.139	15.02
687.326	15.28
687.512	15.6
687.699	15.85
687.886	16.14
688.072	16.38
688.259	16.66
688.445	17.28
688.632	17.74
688.818	18.06
689.005	18.61
689.191	19.14
689.378	19.34
689.564	19.78
689.751	20.25
689.937	20.67
690.124	20.94
690.31	21.12
690.496	21.65
690.683	22.24
690.869	22.67
691.055	23.19
691.242	23.91
691.428	24.43
691.614	25.01
691.8	25.61
691.987	26.39
692.173	27.15
692.359	27.73
692.545	28.29
692.731	28.92
692.918	29.27
693.104	29.79
693.29	30.24
693.476	30.82
693.662	31.39
693.848	32.1
694.034	32.75
694.22	33.64
694.406	34.21
694.592	34.92
694.778	35.38
694.964	35.89
695.15	36.4
695.336	36.96
695.522	37.43
695.708	38.36
695.894	39.04
696.08	39.57
696.265	40.51
696.451	41.1
696.637	41.85
696.823	42.57
697.009	43.42
697.194	44.02
697.38	44.84
697.566	45.25
697.751	45.82
697.937	46.5
698.123	46.85
698.308	47.37
698.494	48.31
698.68	48.88
698.865	49.35
699.051	50.1
699.236	51
699.422	51.37
699.607	52.18
699.793	52.97
699.978	53.66
700.164	54.11
700.349	54.77
700.535	55.1
700.72	55.44
700.906	55.76
701.091	56.38
701.276	56.71
701.462	57.34
701.647	58.13
701.832	58.96
702.018	59.57
702.203	60.16
702.388	60.76
702.573	61.15
702.759	61.8
702.944	61.82
703.129	62.31
703.314	62.65
703.499	62.86
703.684	63.16
703.87	63.95
704.055	64.44
704.24	65.01
704.425	65.75
704.61	66.38
704.795	66.93
704.98	67.35
705.165	67.68
705.35	68.02
705.535	68.48
705.72	68.7
705.905	69.34
706.09	70.11
706.275	70.69
706.459	70.88
706.644	71.31
706.829	71.49
707.014	72.07
707.199	72.52
707.384	72.8
707.568	73.17
707.753	73.66
707.938	73.51
708.123	73.57
708.307	74.11
708.492	74.8
708.677	74.93
708.861	75.34
709.046	75.43
709.231	75.58
709.415	75.71
709.6	76.2
709.784	76.61
709.969	77.38
710.153	77.52
710.338	78.21
710.522	78.55
710.707	78.46
710.891	78.45
711.076	78.87
711.26	79
711.445	79.1
711.629	79.6
711.813	80.21
711.998	80.6
712.182	80.21
712.366	80.69
712.551	81.21
712.735	81.15
712.919	81.26
713.103	81.97
713.288	82.31
713.472	82.46
713.656	82.85
713.84	83.09
714.024	83.22
714.208	83.24
714.393	83.36
714.577	83.66
714.761	84.05
714.945	84.42
715.129	84.87
715.313	85.25
715.497	84.95
715.681	85.06
715.865	84.77
716.049	84.58
716.233	84.42
716.417	85.07
716.601	85.07
716.785	85.69
716.968	85.96
717.152	86.37
717.336	86.57
717.52	87.03
717.704	87.15
717.888	87.67
718.071	87.58
718.255	87.62
718.439	87.79
718.622	88.27
718.806	88.02
718.99	88.25
719.174	88.36
719.357	88.77
719.541	88.73
719.724	88.89
719.908	88.96
720.092	89.02
720.275	88.7
720.459	88.69
720.642	88.84
720.826	88.69
721.009	89.25
721.193	89.07
721.376	89.29
721.559	89.57
721.743	90.03
721.926	89.95
722.11	90.5
722.293	90.62
722.476	90.41
722.66	90.78
722.843	90.81
723.026	91.13
723.21	91.18
723.393	91.96
723.576	91.74
723.759	92
723.942	91.95
724.126	91.81
724.309	91.54
724.492	92.18
724.675	92.16
724.858	92.6
725.041	93.3
725.224	93.89
725.407	94.3
725.59	93.62
725.774	93.49
725.957	93.2
726.14	92.83
726.322	92.27
726.505	93.07
726.688	93.2
726.871	93.36
727.054	94
727.237	94.05
727.42	93.79
727.603	93.56
727.786	93.25
727.968	92.73
728.151	93.11
728.334	93.97
728.517	94.04
728.699	94.38
728.882	94.19
729.065	93.59
729.248	93.26
729.43	93.46
729.613	93.99
729.796	95
729.978	96
730.161	96.21
730.343	96.19
730.526	95.99
730.708	95.66
730.891	95.6
731.073	95.9
731.256	96.4
731.438	97.21
731.621	97.57
731.803	97.33
731.986	96.69
732.168	96.67
732.35	96.35
732.533	95.98
732.715	96.64
732.898	96.7
733.08	96.62
733.262	96.66
733.444	97
733.627	96.85
733.809	98.43
733.991	98.55
734.173	98.18
734.355	98.64
734.538	97.84
734.72	96.92
734.902	97.68
735.084	97.81
735.266	97.81
735.448	98.68
735.63	98.9
735.812	98.31
735.994	98.47
736.176	98.38
736.358	99.22
736.54	99.73
736.722	99.3
736.904	98.66
737.086	97.69
737.268	97.36
737.45	97.16
737.632	97.84
737.814	98.91
737.995	100.21
738.177	99.44
738.359	99.26
738.541	99.53
738.723	99.35
738.904	98.04
739.086	99.03
739.268	98.84
739.449	97.98
739.631	97.98
739.813	98.92
739.994	98.18
740.176	98.9
740.358	99.77
740.539	98.92
740.721	98.9
740.902	99.04
741.084	99.58
741.265	99.81
741.447	101.37
741.628	101.99
741.81	102.37
741.991	102.07
742.172	101.63
742.354	100.95
742.535	100.67
742.717	99.75
742.898	98.99
743.079	99.78
743.261	99.96
743.442	98.76
743.623	99.24
743.804	99.09
743.986	98.8
744.167	98.53
744.348	99.06
744.529	98.97
744.71	99.11
744.891	97.59
745.073	98.41
745.254	98.55
745.435	99.07
745.616	99.47
745.797	99.96
745.978	99.06
746.159	98.05
746.34	98.6
746.521	98.55
746.702	99.76
746.883	100.28
747.064	101.46
747.245	100.75
747.426	100.51
747.606	100.61
747.787	100.66
747.968	99.97
748.149	99.84
748.33	100.06
748.51	98.64
748.691	98.35
748.872	99.99
749.053	100.26
749.233	99.59
749.414	100
749.595	99.65
749.775	98.65
749.956	97.97
750.137	97.69
750.317	96.91
750.498	97.88
750.678	97.82
750.859	98.93
751.04	99.79
751.22	99.54
751.4	98.83
751.581	99.53
751.761	99.36
751.942	99.27
752.122	100.9
752.303	101.21
752.483	100.31
752.663	100.01
752.844	99.23
753.024	99.45
753.204	99.83
753.385	99.79
753.565	100.16
753.745	100.14
753.925	98.59
754.106	97.68
754.286	97.3
754.466	96
754.646	95.64
754.826	98.22
755.006	97.56
755.187	98.56
755.367	98.54
755.547	100.2
755.727	99.04
755.907	99.71
756.087	98.11
756.267	97.31
756.447	97.69
756.627	96.43
756.807	97.46
756.987	97.37
757.167	98.72
757.346	96.18
757.526	97.95
757.706	97.32
757.886	98.93
758.066	98.88
758.246	100.53
758.425	97.78
758.605	96.67
758.785	97.45
758.965	97.54
759.144	95.04
759.324	97.45
759.504	98.99
759.683	96.74
759.863	97.17
760.043	98.7
760.222	97.33
760.402	95.32
760.581	95.58
760.761	95.34
760.94	95.6
761.12	95.49
761.299	97.6
761.479	98.14
761.658	97.94
761.838	97.9
762.017	99.5
762.197	96.71
762.376	96.72
762.555	95.76
762.735	96.53
762.914	94.81
763.093	96.28
763.273	95.94
763.452	95.84
763.631	94.25
763.81	94.12
763.99	93.81
764.169	94.18
764.348	94.87
764.527	95.87
764.706	96.14
764.885	96.58
765.064	96.64
765.243	95.53
765.423	95.41
765.602	95.58
765.781	94.95
765.96	94.31
766.139	94.93
766.318	97.47
766.497	96.6
766.676	95.04
766.854	95.07
767.033	95.32
767.212	93.5
767.391	95.51
767.57	98.67
767.749	97.84
767.928	98.42
768.106	97.84
768.285	96.42
768.464	94.81
768.643	96.46
768.821	95.85
769	95.22
769.179	95
769.357	94.52
769.536	92.82
769.715	91.22
769.893	92.7
770.072	91.9
770.25	92.38
770.429	91.9
770.607	93.12
770.786	90.63
770.964	91.89
771.143	92.78
771.321	91.78
771.5	92.29
771.678	92.03
771.857	91.15
772.035	90.01
772.213	92.37
772.392	89.91
772.57	90.1
772.748	91.74
772.927	91.63
773.105	91.14
773.283	92.45
773.461	93.71
773.64	91.45
773.818	93.24
773.996	94.07
774.174	96.5
774.352	95.12
774.531	94.39
774.709	93.29
774.887	90.72
775.065	89.78
775.243	90.4
775.421	90.2
775.599	89.73
775.777	90.5
775.955	89.05
776.133	88.61
776.311	88.78
776.489	88.17
776.667	88.42
776.844	89.56
777.022	89.48
777.2	91.37
777.378	88.9
777.556	88.6
777.734	91.18
777.911	92.67
778.089	93.12
778.267	95.74
778.445	99.84
778.622	97.01
778.8	94.49
778.978	94.13
779.155	95.25
779.333	94.25
779.511	91.99
779.688	92.74
779.866	93.08
780.043	93.24
780.221	91.2
780.398	91.7
780.576	91.76
780.753	89.99
780.931	90.4
781.108	92.34
781.286	93.8
781.463	94.89
781.64	95.28
781.818	94.11
781.995	92.96
782.172	90.7
782.35	89.62
782.527	89.15
782.704	87.65
782.882	83.48
783.059	82.58
783.236	83.18
783.413	82.18
783.59	85.84
783.768	88.27
783.945	88.54
784.122	88.13
784.299	89.49
784.476	84.8
784.653	84.55
784.83	84.93
785.007	85.44
785.184	85.25
785.361	87.13
785.538	87.86
785.715	90.22
785.892	88.44
786.069	89.85
786.246	90.23
786.423	89.78
786.6	90.43
786.776	92.36
786.953	89.44
787.13	89.48
787.307	87.6
787.484	85.6
787.66	85.17
787.837	85.8
788.014	85.97
788.191	85.66
788.367	84.83
788.544	85.39
788.721	85.03
788.897	86.2
789.074	89.83
789.25	89.58
789.427	87.17
789.603	87.05
789.78	86.93
789.956	84.4
790.133	87.19
790.309	87.02
790.486	90.98
790.662	86.18
790.839	86.9
791.015	85.4
791.192	87.94
791.368	85.5
791.544	89.66
791.721	90.34
791.897	88.38
792.073	84.55
792.249	85.26
792.426	84.34
792.602	82.33
792.778	81.63
792.954	83.41
793.13	76.33
793.307	74.92
793.483	74.52
793.659	78.29
793.835	81.4
794.011	88.9
794.187	87.61
794.363	90.01
794.539	86.51
794.715	85.11
794.891	82.24
795.067	83.75
795.243	82.34
795.419	84.4
795.595	88.6
795.771	86.03
795.947	85.45
796.122	80.11
796.298	82.61
796.474	83.08
796.65	91.51
796.826	91.14
797.001	96.73
797.177	87.1
797.353	81.39
797.529	78.05
797.704	76.74
797.88	78.25
798.056	85.24
798.231	85.77
798.407	86.11
798.582	86.28
798.758	87.24
798.934	90.34
799.109	90.06
799.285	88.72
799.46	87.64
799.636	86.69
799.811	81.86
799.986	80.77
800.162	74.25
800.337	74.75
800.513	74.39
800.688	73.41
800.863	80.6
801.039	84.52
801.214	85.4
801.389	85.67
801.565	87.17
801.74	80.96
801.915	84.7
802.09	81.38
802.265	75.05
802.441	73.85
802.616	75.25
802.791	74.22
802.966	76.09
803.141	80.01
803.316	81.75
803.491	78.53
803.666	81.45
803.841	81.44
804.016	80.48
804.191	79.99
804.366	79.02
804.541	76.45
804.716	78.28
804.891	81.75
805.066	79.22
805.241	80.58
805.416	83.7
805.591	79.88
805.765	82.58
805.94	89.45
806.115	86.93
806.29	82.43
806.464	85.96
806.639	83.93
806.814	83.49
806.989	85.18
807.163	91.94
807.338	90.56
807.512	88.78
807.687	85.8
807.862	85.55
808.036	83.01
808.211	78.5
808.385	84.36
808.56	83.65
808.734	83.11
808.909	81.8
809.083	89.29
809.258	85.26
809.432	93.3
809.606	102.48
809.781	101.64
809.955	102.3
810.13	91.06
810.304	80.06
810.478	76.58
810.652	72.03
810.827	70.52
811.001	74.38
811.175	76.68
811.349	75.87
811.524	78.54
811.698	76.77
811.872	79.58
812.046	75.52
812.22	75.05
812.394	72.14
812.568	73.13
812.742	65.07
812.916	71.09
813.09	64.26
813.264	62.36
813.438	61.84
813.612	66.88
813.786	62.47
813.96	71.63
814.134	70.33
814.308	68.69
814.482	69.55
814.656	70.62
814.83	63.3
815.003	67.19
815.177	68.95
815.351	72.02
815.525	75.79
815.698	75.53
815.872	68.18
816.046	66.76
816.219	72.13
816.393	62.1
816.567	68.18
816.74	73.75
816.914	78.29
817.088	72.86
817.261	78.88
817.435	76.23
817.608	81.71
817.782	75.11
817.955	70.24
818.129	73.93
818.302	73.22
818.475	73.99
818.649	70.33
818.822	70.78
818.996	78.68
819.169	84.31
819.342	81.9
819.516	90.02
819.689	84.33
819.862	72.24
820.035	72.72
820.209	68.24
820.382	58.95
820.555	58.53
820.728	61.48
820.901	48.89
821.075	47.66
821.248	52.49
821.421	50.97
821.594	51.56
821.767	70.62
821.94	64.97
822.113	69.12
822.286	82.96
822.459	84.66
822.632	78.78
822.805	81.67
822.978	74.88
823.151	55.81
823.324	55.26
823.496	40.76
823.669	49.96
823.842	64.9
824.015	72.51
824.188	74.26
824.361	76.18
824.533	68.12
824.706	54.29
824.879	59.02
825.051	62.04
825.224	76.02
825.397	69
825.569	69.49
825.742	76.72
825.915	78.97
826.087	62.44
826.26	55.55
826.432	52.69
826.605	42.5
826.777	38.3
826.95	40.1
827.122	44.18
827.295	75.77
827.467	89.27
827.64	70.6
827.812	65.91
827.984	85.88
828.157	43.87
828.329	50.49
828.501	52.64
828.674	57.83
828.846	58.53
829.018	52
829.19	46.18
829.363	62.36
829.535	56.62
829.707	48.17
829.879	53.1
830.051	56.03
830.223	56.6
830.395	59.66
830.568	60.85
830.74	60.59
830.912	59.59
831.084	50.39
831.256	45.82
831.428	55.55
831.6	62
831.772	51.66
831.943	43.06
832.115	56.34
832.287	52.53
832.459	42.96
832.631	43.63
832.803	57.34
832.975	62.14
833.146	50.82
833.318	61.46
833.49	69.56
833.662	71.11
833.833	53.49
834.005	57.87
834.177	66.53
834.348	61.48
834.52	63.29
834.692	73.47
834.863	77.44
835.035	72.93
835.206	66.36
835.378	59.49
835.549	55.81
835.721	48.29
835.892	48.93
836.064	54.66
836.235	69.86
836.407	75.4
836.578	92.11
836.749	82.51
836.921	93.71
837.092	60.26
837.264	57.24
837.435	35.65
837.606	55.95
837.777	53.01
837.949	64.22
838.12	55.15
838.291	73.8
838.462	74.4
838.633	67.19
838.805	51.11
838.976	58.58
839.147	51.06
839.318	36.33
839.489	38.75
839.66	60.63
839.831	49.62
840.002	44.72
840.173	51.69
840.344	56.77
840.515	34.8
840.686	45.5
840.857	36.74
841.028	33.2
841.199	35.14
841.369	46.31
841.54	53.64
841.711	108.73
841.882	93.85
842.053	65.86
842.223	76.47
842.394	51.49
842.565	18.78
842.736	20.05
842.906	9.59
843.077	3.18
843.248	28.02
843.418	41.57
843.589	41.17
843.759	53.33
843.93	79.35
844.101	62.41
844.271	94.49
844.442	85.67
844.612	82.06
844.783	66.01
844.953	73.9
845.123	52.47
845.294	53.77
845.464	55.12
845.635	45.02
845.805	34.56
845.975	54.75
846.146	40.1
846.316	49.91
846.486	46.75
846.656	40.85
846.827	50.88
846.997	60.91
847.167	41.97
847.337	41.09
847.507	46.22
847.677	30.17
847.848	28.4
848.018	45.57
848.188	58.98
848.358	35.14
848.528	54.12
848.698	36.91
848.868	31.93
849.038	3.05
849.208	12.66
849.378	14.35
849.548	9.07
849.718	-17.82
849.887	-37.2
850.057	-5.02
850.227	-8.65
850.397	20.74
850.567	13.74
850.737	36.96
850.906	5.19
851.076	-18.93
851.246	6.49
851.415	0.68
851.585	15.08
851.755	43.38
851.924	61.69
852.094	35.2
852.264	32.64
852.433	23.97
852.603	6.44
852.772	16.02
852.942	49.7
853.111	38.92
853.281	39.41
853.45	30.01
853.62	18.6
853.789	-16.85
853.959	14.88
854.128	22.67
854.297	40.97
854.467	50.12
854.636	64.74
854.805	65.83
854.975	61.89
855.144	66.18
855.313	80.41
855.482	50.49
855.652	48.16
855.821	35.04
855.99	30.1
856.159	23.27
856.328	35.57
856.497	26.79
856.667	25.06
856.836	36.49
857.005	25.69
857.174	29.25
857.343	10.41
857.512	-1.82
857.681	-39.42
857.85	-46.73
858.019	-104.2
858.188	-92.18
858.356	-27.15
858.525	15.72
858.694	26.4
858.863	33.69
859.032	42.21
859.201	45.85
859.369	32.25
859.538	35.53
859.707	36.6
859.876	30.32
860.044	38.97
860.213	48.09
860.382	51.75
860.55	52.57
860.719	72.01
860.888	62.59
861.056	42.62
861.225	42.62
861.393	61.99
861.562	50.42
861.73	54.46
861.899	52.08
862.067	48.62
862.236	31.06
862.404	32.86
862.572	52.27
862.741	52.62
862.909	32.75
863.078	11.06
863.246	-0.35
863.414	-4.01
863.582	-0.96
863.751	13.26
863.919	56.5
864.087	67.86
864.255	84.64
864.424	88.15
864.592	72.74
864.76	35.4
864.928	58.21
865.096	40.34
865.264	49.04
865.432	48.16
865.6	72.39
865.768	50.56
865.936	60.37
866.104	55.48
866.272	5.42
866.44	29.5
866.608	30.76
866.776	21.43
866.944	23.62
867.112	44.31
867.28	34.58
867.448	12.39
867.615	10.99
867.783	-7.25
867.951	-14.97
868.119	-29.41
868.286	9.82
868.454	21.28
868.622	22.61
868.789	22.4
868.957	14.04
869.125	11.37
869.292	-7.08
869.46	12.53
869.627	13.72
869.795	8.95
869.963	45.88
870.13	30.78
870.298	36.92
870.465	20.33
870.632	9.57
870.8	-26.22
870.967	-14.75
871.135	-63.11
871.302	-41.88
871.469	5.35
871.637	27.48
871.804	40.46
871.971	51.37
872.139	74.56
872.306	39.41
872.473	-21.53
872.64	-91.54
872.807	-44.27
872.975	-183.73
873.142	-42.03
873.309	3.46
873.476	57.82
873.643	67.96
873.81	68.09
873.977	29.74
874.144	51.89
874.311	-5.44
874.478	-32.36
874.645	-78.27
874.812	42.06
874.979	43.36
875.146	36.02
875.313	30.51
875.48	55.41
875.647	38.41
875.813	-0.97
875.98	19.39
876.147	-54.5
876.314	-7.83
876.481	-36.09
876.647	19.72
876.814	-4.14
876.981	27.23
877.147	9.89
877.314	34.38
877.481	39.73
877.647	80.46
877.814	107.81
877.98	111.73
878.147	128.23
878.314	120.65
878.48	114.95
878.647	104.59
878.813	142.74
878.979	109.23
879.146	129.59
879.312	175.36
879.479	115.08
879.645	58.56
879.811	20.6
879.978	38.68
880.144	0.73
880.31	0.8
880.477	14.12
880.643	26.94
880.809	-35.68
880.975	-17.54
881.142	-100.97
881.308	452.62
881.474	709.85
881.64	-112.82
881.806	-194.58
881.972	-93.08
882.138	-14.36
882.304	3.62
882.47	-20.64
882.636	-0.83
882.802	32.71
882.968	76.96
883.134	63.24
883.3	66.93
883.466	112.66
883.632	99.16
883.798	56.49
883.964	-25.5
884.129	-116.59
884.295	14.55
884.461	3.15
884.627	-7.22
884.793	2.32
884.958	20.68
885.124	1.65
885.29	-34.01
885.455	4.72
885.621	44.54
885.787	33.98
885.952	50.77
886.118	88.05
886.283	79.58
886.449	69.28
886.614	53.04
886.78	45.2
886.945	-2.48
887.111	-12.06
887.276	-26.94
887.442	-94.41
887.607	-75.39
887.773	-14.01
887.938	-21.8
888.103	-13.17
888.269	13.95
888.434	21.93
888.599	17.63
888.764	32.08
888.93	22.17
889.095	19.94
889.26	-10.67
889.425	-51.05
889.59	-137.03
889.756	-74.46
889.921	-71.57
890.086	-93.13
890.251	6.19
890.416	8.64
890.581	-8.48
890.746	55.68
890.911	21.78
891.076	-0.34
891.241	-2.64
891.406	25.75
891.571	51.69
891.736	86.61
891.901	97.06
892.065	71.27
892.23	45.07
892.395	-29.06
892.56	3.04
892.725	-35.66
892.889	-176.96
893.054	5.4
893.219	27.41
893.384	32.34
893.548	20.74
893.713	113.44
893.878	30.11
