Data from Ofra_PS_T2_2A_6GT17_Reflection_2.txt Node
Date: Wed Jul 21 17:17:42 EDT 2021
User: Adam
Spectrometer: FLMT01687
Trigger mode: 0
Integration Time (sec): 1.100000E0
Scans to average: 2
Electric dark correction enabled: true
Nonlinearity correction enabled: false
Boxcar width: 2
XAxis mode: Wavelengths
Number of Pixels in Spectrum: 3648
>>>>>Begin Spectral Data<<<<<
179.494	575.8
179.716	684.47
179.937	627.57
180.158	595.94
180.38	992.97
180.601	521.41
180.823	164.64
181.044	27.84
181.265	345.4
181.486	97.79
181.708	70.38
181.929	-204.59
182.15	-175.7
182.372	195.02
182.593	97.65
182.814	34.29
183.035	68.04
183.257	65.93
183.478	-20.16
183.699	15.27
183.92	-1.56
184.141	-31.27
184.363	-100.88
184.584	-40.51
184.805	-30.06
185.026	23.15
185.247	34.59
185.468	25.58
185.689	23.54
185.91	18.48
186.132	0.11
186.353	-12.4
186.574	35.56
186.795	17.18
187.016	-27.17
187.237	-31.85
187.458	-73.1
187.679	-43.88
187.9	-8.82
188.121	8.46
188.342	13.95
188.563	47.53
188.784	50.21
189.005	42.21
189.226	104.56
189.447	103.71
189.667	45.75
189.888	-210.71
190.109	-921.75
190.33	-574.03
190.551	-1193.58
190.772	-254.66
190.993	-199.46
191.214	-223.09
191.434	-182.74
191.655	-62.42
191.876	-146.31
192.097	-213.77
192.318	-225.97
192.538	-377.93
192.759	-273.31
192.98	-109.47
193.201	-39.01
193.421	-15.79
193.642	15.95
193.863	36.05
194.083	-4.8
194.304	-15.66
194.525	-12.53
194.745	-26.84
194.966	-77.13
195.187	-71.73
195.407	-113.39
195.628	-183.27
195.848	-162.73
196.069	-135.76
196.29	-93.53
196.51	-92.96
196.731	-75.03
196.951	-108.74
197.172	-126.01
197.392	-152.95
197.613	-150.22
197.833	-184.69
198.054	-142.45
198.274	-76.28
198.495	-75.33
198.715	-42.27
198.936	-60.55
199.156	-61.28
199.377	-158.75
199.597	-170.22
199.817	-178.68
200.038	-97.98
200.258	-139.7
200.479	-82.27
200.699	-50.66
200.919	12.53
201.14	19.89
201.36	-10.56
201.58	22.21
201.801	50.65
202.021	13.94
202.241	-0.92
202.461	12.03
202.682	-80.09
202.902	-214.06
203.122	-126.96
203.342	-118.01
203.563	-64.17
203.783	-38.75
204.003	-66.1
204.223	-74.07
204.443	-9.17
204.663	-61.82
204.884	-14.58
205.104	25.49
205.324	50.97
205.544	41.31
205.764	56.45
205.984	47.8
206.204	48.08
206.424	33.31
206.644	-10.06
206.864	-14.68
207.084	-76.37
207.304	-65.4
207.525	-236.8
207.745	-142.73
207.964	-89.96
208.184	-116.81
208.404	-158.05
208.624	-145.52
208.844	-134.4
209.064	-448.33
209.284	-417.03
209.504	-219.84
209.724	-87.3
209.944	-61.34
210.164	-17.76
210.384	-15.09
210.604	-16.73
210.823	-63.92
211.043	-76.67
211.263	-55.14
211.483	-53.76
211.703	-117.17
211.922	-69.45
212.142	4.98
212.362	20.33
212.582	10.75
212.801	25.6
213.021	-12.74
213.241	-35.12
213.461	-89.77
213.68	-99.41
213.9	-80.01
214.12	-53.67
214.339	-110.1
214.559	-91.38
214.779	-34.82
214.998	-30.87
215.218	-87.8
215.438	-49.06
215.657	-40.37
215.877	-42.94
216.096	-2.77
216.316	21.06
216.535	-7.87
216.755	-8.55
216.974	-123.91
217.194	-181.82
217.413	-167.24
217.633	-127.24
217.852	-245.63
218.072	-85.68
218.291	-58.81
218.511	-25.4
218.73	-61.74
218.95	-29.52
219.169	-39.83
219.389	-84.9
219.608	-60.06
219.827	-48.32
220.047	-39.24
220.266	-21.87
220.485	-5.05
220.705	-12.17
220.924	-29.53
221.143	5.21
221.363	-22.98
221.582	-10.99
221.801	0.92
222.021	19.31
222.24	-75.66
222.459	-24.57
222.678	-56.09
222.897	-154.07
223.117	-190.93
223.336	-136.51
223.555	-116.48
223.774	-66.48
223.993	-12.95
224.213	32.85
224.432	5.59
224.651	34.38
224.87	12.25
225.089	18.12
225.308	6.91
225.527	38.12
225.746	34.78
225.965	24.48
226.184	1.57
226.404	26.14
226.623	-18.1
226.842	-22.24
227.061	14.08
227.28	22.42
227.499	4.75
227.718	23.38
227.936	25.26
228.155	21.63
228.374	-17.83
228.593	-5.85
228.812	-12.77
229.031	-23.52
229.25	-88.23
229.469	-70.03
229.688	-73.52
229.907	-22.07
230.125	11.16
230.344	19.16
230.563	39.06
230.782	46.62
231.001	-38.57
231.22	-43.76
231.438	-20.81
231.657	-15.72
231.876	-34.63
232.095	27.28
232.313	31.29
232.532	34.32
232.751	-3.59
232.969	-22.52
233.188	-79.92
233.407	-25.32
233.625	-18.92
233.844	-39.24
234.063	-6.1
234.281	5.49
234.5	-9.6
234.719	-7.87
234.937	13.55
235.156	1.1
235.374	-6.62
235.593	-24.93
235.811	-47.89
236.03	-46.3
236.249	-90.93
236.467	-97.94
236.686	-45
236.904	-21.1
237.123	-46.27
237.341	-31.87
237.559	-18.78
237.778	-26.95
237.996	-51.06
238.215	-15.01
238.433	-5.78
238.652	-4.72
238.87	-39.52
239.088	-25.48
239.307	-34.39
239.525	-35.5
239.743	-70.03
239.962	-70.24
240.18	-67.11
240.398	-103.17
240.617	-115.71
240.835	-99.39
241.053	-25.62
241.271	20.93
241.49	45.12
241.708	34.64
241.926	36.75
242.144	0.73
242.363	-65.85
242.581	-90.3
242.799	-24.77
243.017	26.15
243.235	-2.48
243.453	18.53
243.672	5.7
243.89	-2.83
244.108	-38.16
244.326	-7.84
244.544	-19.04
244.762	-23.03
244.98	-26
245.198	-6.35
245.416	-32.51
245.634	-23.05
245.852	-21.02
246.07	-29.67
246.288	-61.71
246.506	-105.92
246.724	-98.7
246.942	-94.91
247.16	-44.75
247.378	-17.92
247.596	15.1
247.814	11.11
248.032	-5.5
248.25	-11.4
248.468	-17.12
248.685	-3.67
248.903	32.82
249.121	22.86
249.339	3.37
249.557	-2.91
249.775	0.24
249.992	-83.99
250.21	-57.1
250.428	-50.13
250.646	-65.87
250.863	-95.33
251.081	-49.43
251.299	-56.6
251.517	-51.05
251.734	-39.98
251.952	-34.48
252.17	-30.78
252.387	-11.67
252.605	-21.43
252.823	-19.16
253.04	-8.77
253.258	10.34
253.475	-4.58
253.693	23.99
253.911	39.71
254.128	43.3
254.346	36.07
254.563	22.11
254.781	-3.25
254.998	-53
255.216	-79.54
255.433	-60.14
255.651	-33.71
255.868	-3.9
256.086	66.97
256.303	65.2
256.521	43.37
256.738	18.09
256.956	-5.77
257.173	-53.4
257.39	-66.98
257.608	-105.67
257.825	-26.29
258.043	14.26
258.26	32.48
258.477	70.61
258.695	78.3
258.912	6.55
259.129	0.79
259.346	-31.88
259.564	-75.81
259.781	-93.05
259.998	-23.77
260.216	9.74
260.433	41.63
260.65	38.73
260.867	43.61
261.084	10.29
261.302	-27.22
261.519	-60
261.736	-65.1
261.953	-85.35
262.17	-35.87
262.387	-80.49
262.604	-106.44
262.822	-110.91
263.039	-76.25
263.256	-133.03
263.473	-71.46
263.69	-36.02
263.907	10.41
264.124	8.96
264.341	14.14
264.558	4.18
264.775	17.26
264.992	-4.19
265.209	-3.82
265.426	26.78
265.643	36.51
265.86	42.48
266.077	49.12
266.294	69.77
266.51	8.45
266.727	-8.6
266.944	-2.52
267.161	-31.75
267.378	-37.43
267.595	1.29
267.812	-21.4
268.028	-54.28
268.245	-25.75
268.462	-48.2
268.679	-63.63
268.896	12.17
269.112	23.27
269.329	27.28
269.546	48.23
269.763	36.22
269.979	11.76
270.196	10.81
270.413	-35.57
270.629	-60.5
270.846	-69.22
271.063	-65.33
271.279	-100.43
271.496	-85.44
271.712	-58.73
271.929	-40.62
272.146	-66.44
272.362	-45.98
272.579	-3.39
272.795	-13.69
273.012	0.96
273.228	-6.47
273.445	-28.87
273.661	-40.03
273.878	-86.98
274.094	-104.43
274.311	-117.63
274.527	-25.76
274.744	-29.6
274.96	-5.89
275.177	13.44
275.393	25.96
275.609	9.95
275.826	33.42
276.042	34.17
276.259	12.25
276.475	26.44
276.691	22.69
276.908	-15.26
277.124	-2.83
277.34	9.18
277.557	-10.02
277.773	-23.17
277.989	-8.53
278.205	-17.7
278.422	-7.4
278.638	2.68
278.854	29.37
279.07	13.15
279.286	2.98
279.503	-32.04
279.719	-46.08
279.935	-84.45
280.151	-83.83
280.367	-51.62
280.583	-66.38
280.799	-49.3
281.016	-75.12
281.232	-43.15
281.448	-45.72
281.664	-10.24
281.88	-67.11
282.096	-17.1
282.312	9.36
282.528	30.18
282.744	38.54
282.96	61.88
283.176	28.06
283.392	20.71
283.608	4.86
283.824	-6.17
284.04	-14.86
284.256	6.49
284.471	-8.23
284.687	-21.08
284.903	14.29
285.119	49.75
285.335	13.79
285.551	36.59
285.767	26.91
285.982	-10.45
286.198	-63.45
286.414	1.1
286.63	-3.43
286.846	21.7
287.061	-5.37
287.277	41.19
287.493	2.51
287.709	2.23
287.924	-11.79
288.14	33.8
288.356	10.31
288.571	43.56
288.787	30.57
289.003	24.82
289.218	7.91
289.434	-35.77
289.65	-42.26
289.865	-52.5
290.081	-27.84
290.296	-10.65
290.512	6.58
290.727	-13.96
290.943	-18.25
291.159	-28.21
291.374	-39.11
291.59	-60.03
291.805	-37.09
292.021	-16.82
292.236	-19.87
292.451	-8.49
292.667	3.03
292.882	4.37
293.098	1.96
293.313	-15.92
293.529	-33.96
293.744	-49.24
293.959	-62.41
294.175	-58.68
294.39	-26.3
294.605	-16.68
294.821	15.75
295.036	11.6
295.251	14.73
295.467	3.61
295.682	3.05
295.897	-61.3
296.112	-51.71
296.328	-49.84
296.543	-70.67
296.758	-72.09
296.973	-3.44
297.188	23.3
297.404	-1.26
297.619	-13.85
297.834	-10.22
298.049	-40.86
298.264	-67.4
298.479	-0.24
298.694	9.19
298.909	27.8
299.125	32.73
299.34	42.52
299.555	-2.38
299.77	-4.18
299.985	-57.54
300.2	-109.67
300.415	-128.63
300.63	-75.77
300.845	-67.02
301.06	-49.76
301.275	-6.03
301.49	19.41
301.704	-7.39
301.919	-21.21
302.134	-36.63
302.349	-50.13
302.564	-119.14
302.779	-164.15
302.994	-174.73
303.209	-74.85
303.423	-7.45
303.638	52.38
303.853	27.84
304.068	35.65
304.283	17.1
304.497	-5.47
304.712	-19.77
304.927	-2.71
305.142	-13.15
305.356	-8.61
305.571	-11.91
305.786	-25.53
306	-33.47
306.215	-17.66
306.43	-36.46
306.644	-35.41
306.859	2.28
307.074	13.69
307.288	-13.57
307.503	-20.83
307.717	-28.97
307.932	-33.1
308.147	-42.33
308.361	-25.21
308.576	-36.09
308.79	-78.72
309.005	-64.83
309.219	-41.43
309.434	-46.55
309.648	-46.28
309.863	-4.34
310.077	-14.9
310.292	-29.31
310.506	-22.74
310.72	-6.25
310.935	-1.22
311.149	-6.93
311.364	14.56
311.578	18.62
311.792	11.25
312.007	5.67
312.221	-2.69
312.435	0.61
312.649	-12.31
312.864	-42.21
313.078	-24.08
313.292	13.86
313.507	-55.87
313.721	-55.6
313.935	16.69
314.149	-7.01
314.363	0.85
314.578	13.87
314.792	19.79
315.006	9.13
315.22	28.85
315.434	33.03
315.648	35.51
315.862	22.68
316.077	28.61
316.291	-2.98
316.505	3.25
316.719	-11.89
316.933	-32.05
317.147	-38.78
317.361	-76.14
317.575	-116.29
317.789	-163.34
318.003	-204.3
318.217	-161.63
318.431	-57.37
318.645	-10.2
318.859	-0.09
319.073	20.38
319.287	0.21
319.5	-27.53
319.714	-62.62
319.928	-89.72
320.142	-129.42
320.356	-69.28
320.57	-30.05
320.784	-58.94
320.997	-44.81
321.211	-10.52
321.425	-63.46
321.639	-95.25
321.853	-22.48
322.066	-11.12
322.28	-16.5
322.494	-14.4
322.707	1.13
322.921	-23.15
323.135	-30.3
323.349	-21.98
323.562	-39.19
323.776	-45.37
323.989	-46.49
324.203	-67.68
324.417	-78.67
324.63	-81.18
324.844	-90.18
325.057	-77.37
325.271	-45.69
325.485	-13.13
325.698	21.19
325.912	40.39
326.125	10.42
326.339	11.72
326.552	-4.88
326.766	-14.19
326.979	2.4
327.193	45.07
327.406	34.69
327.619	17.54
327.833	36.51
328.046	0.99
328.26	-32.58
328.473	-18.6
328.686	-51.67
328.9	-76.09
329.113	-48.35
329.326	-81.6
329.54	-67.46
329.753	-66.62
329.966	-85.47
330.179	-87.19
330.393	-38.93
330.606	-27.11
330.819	2.8
331.032	24.64
331.246	23.44
331.459	46.4
331.672	43.39
331.885	33.45
332.098	-0.09
332.311	-0.3
332.525	-56.47
332.738	-47.6
332.951	-22.58
333.164	7.8
333.377	21.98
333.59	39.88
333.803	33.71
334.016	36
334.229	31.24
334.442	38.55
334.655	47.56
334.868	53.92
335.081	36.98
335.294	22.59
335.507	9.46
335.72	-7.62
335.933	-20.59
336.146	-34.73
336.359	-27.94
336.572	-63.58
336.785	-81.35
336.997	-71.7
337.21	-35.94
337.423	-37.41
337.636	-29.47
337.849	-15.13
338.062	-28.62
338.274	-41.11
338.487	-57.18
338.7	-56.9
338.913	-89.68
339.125	-103.65
339.338	-146.98
339.551	-98.85
339.763	-47.22
339.976	-25.94
340.189	0.48
340.402	19.64
340.614	1.97
340.827	-27.58
341.039	-49.86
341.252	-55.01
341.465	-28.79
341.677	-33.57
341.89	-58.86
342.102	-10.35
342.315	-20.31
342.527	-62.45
342.74	-44.23
342.952	-2.9
343.165	-16.49
343.377	9.84
343.59	7.71
343.802	16.25
344.015	8.97
344.227	10.36
344.44	3.99
344.652	1.72
344.864	-15.56
345.077	16.46
345.289	18.41
345.502	20.18
345.714	8.38
345.926	17.14
346.139	-2.7
346.351	10.85
346.563	16.66
346.775	31.09
346.988	17.77
347.2	7.97
347.412	-51.63
347.624	-74.4
347.837	-99.31
348.049	-61.71
348.261	-37.44
348.473	-12.22
348.685	-25.18
348.897	-20.71
349.11	-46.36
349.322	-72.54
349.534	-67.16
349.746	-38.89
349.958	-35.93
350.17	-30.29
350.382	-11.87
350.594	-23.86
350.806	-32.99
351.018	-34.14
351.23	-54.39
351.442	-114.31
351.654	-103.21
351.866	-85.57
352.078	-64.95
352.29	-30.2
352.502	4.06
352.714	8.12
352.926	-9.06
353.138	-6.29
353.35	-18.08
353.561	-22.41
353.773	-38.77
353.985	-15.31
354.197	-29.89
354.409	-29.19
354.621	-29.2
354.832	-9.31
355.044	-20.69
355.256	-17.33
355.468	-4
355.679	-15.5
355.891	-16.45
356.103	-32.87
356.314	-28.09
356.526	-36.72
356.738	-19.43
356.949	-40.95
357.161	-18.05
357.373	-23.13
357.584	-25.77
357.796	-19.29
358.008	-17.75
358.219	-8.19
358.431	-7.76
358.642	-11.03
358.854	-6.42
359.065	-14.5
359.277	-37.94
359.488	-42.84
359.7	-49.57
359.911	-78.13
360.123	-53
360.334	-63.69
360.546	-74.05
360.757	-76.66
360.969	-38.57
361.18	-29.02
361.391	-19.39
361.603	-17.53
361.814	0.63
362.025	-14
362.237	-17.14
362.448	6.23
362.659	16.45
362.871	8.57
363.082	12.89
363.293	7.55
363.504	-6.46
363.716	-32.29
363.927	-40.38
364.138	-59.13
364.349	-80.12
364.56	-70.45
364.772	-59.28
364.983	-26.8
365.194	-31.4
365.405	-9.95
365.616	12.23
365.827	26.07
366.038	-6.67
366.25	-10.18
366.461	-28.91
366.672	-23.32
366.883	-8.77
367.094	1.48
367.305	-3.82
367.516	-2.85
367.727	-35.8
367.938	-52.78
368.149	-44.58
368.36	-12.04
368.571	-1.38
368.781	-4.78
368.992	-13.64
369.203	-34
369.414	-64.94
369.625	-77.75
369.836	-69.85
370.047	-100.55
370.258	-65.7
370.468	-67.23
370.679	-86.08
370.89	-84.5
371.101	-50.58
371.312	-70.98
371.522	-58.13
371.733	-32.97
371.944	-17.22
372.155	-17.82
372.365	-20.27
372.576	-26.9
372.787	-32.35
372.997	-54.06
373.208	-59.68
373.419	-19.11
373.629	-54.21
373.84	-50.76
374.05	-62
374.261	-53
374.472	-92.01
374.682	-35.04
374.893	-38.65
375.103	6.03
375.314	8.63
375.524	17.98
375.735	19.81
375.945	23.62
376.156	-8.29
376.366	-8.89
376.577	-11.26
376.787	-20.63
376.997	-12.03
377.208	-13.35
377.418	-22.85
377.629	-3.85
377.839	1.8
378.049	-1.6
378.26	16.92
378.47	19.85
378.68	-0.32
378.89	-3.61
379.101	-14.15
379.311	-49.49
379.521	-70.89
379.732	-56.12
379.942	-62
380.152	-60.54
380.362	-22.4
380.572	-9.74
380.783	-2.47
380.993	14.99
381.203	25.14
381.413	38.37
381.623	36.22
381.833	33.01
382.043	14.45
382.253	2.44
382.463	-5.41
382.674	-17.43
382.884	-38.4
383.094	-30.77
383.304	-25.7
383.514	-19.99
383.724	-7.76
383.934	-5.95
384.144	-14.62
384.353	-20.17
384.563	-24.45
384.773	-20.26
384.983	-30.49
385.193	-8.06
385.403	-0.51
385.613	-1.11
385.823	-12.15
386.033	-2.51
386.242	-19.06
386.452	-28.98
386.662	-40.85
386.872	-22.98
387.082	-23.56
387.291	-26.28
387.501	-26.7
387.711	-17.59
387.921	-26.33
388.13	-29.73
388.34	-14.59
388.55	-17.9
388.759	-15.2
388.969	-10.15
389.179	-8.24
389.388	-11.72
389.598	0.69
389.807	-8.31
390.017	-11.97
390.227	-6.14
390.436	-7.59
390.646	-8.92
390.855	-5.48
391.065	-5.77
391.274	-9.48
391.484	-12.32
391.693	-11.04
391.903	-7.93
392.112	-0.59
392.322	1.53
392.531	5.95
392.74	6.17
392.95	1.92
393.159	-2.97
393.369	-3.01
393.578	-3.31
393.787	-4.56
393.997	-1.92
394.206	-2.47
394.415	-2.03
394.625	-2.51
394.834	-3.01
395.043	-2.76
395.252	-0.36
395.462	0.52
395.671	1.26
395.88	1.85
396.089	2.22
396.298	0.46
396.508	0.57
396.717	0.2
396.926	0.96
397.135	1.02
397.344	1.14
397.553	1.66
397.762	3.2
397.971	2.77
398.181	2.67
398.39	1.97
398.599	1.21
398.808	0.4
399.017	1.66
399.226	3.34
399.435	4.74
399.644	5.12
399.853	4.2
400.062	3.31
400.27	2.45
400.479	1.86
400.688	1.14
400.897	1.91
401.106	1.99
401.315	1.67
401.524	1.75
401.733	2.3
401.941	2.8
402.15	2.85
402.359	2.85
402.568	3.22
402.777	3.44
402.985	3.03
403.194	3
403.403	2.85
403.612	2.31
403.82	1.84
404.029	2.09
404.238	1.86
404.446	2.4
404.655	2.34
404.864	2.46
405.072	2.02
405.281	2.36
405.489	1.89
405.698	2.03
405.906	1.98
406.115	2.09
406.324	1.94
406.532	2.12
406.741	2.51
406.949	2.56
407.158	2.58
407.366	2.62
407.574	2.56
407.783	2.41
407.991	2.36
408.2	2.5
408.408	2.46
408.617	2.4
408.825	2.14
409.033	2.24
409.242	2.26
409.45	2.37
409.658	2.25
409.867	2.6
410.075	2.36
410.283	2.2
410.491	2.05
410.7	2.11
410.908	2.03
411.116	2.35
411.324	2.45
411.533	2.4
411.741	2.73
411.949	2.75
412.157	2.47
412.365	2.4
412.573	2.46
412.781	2.34
412.99	2.11
413.198	2.36
413.406	2.46
413.614	2.42
413.822	2.34
414.03	2.38
414.238	2
414.446	1.99
414.654	1.8
414.862	1.9
415.07	1.93
415.278	2.27
415.486	2.01
415.694	2.16
415.902	1.86
416.109	1.74
416.317	1.65
416.525	1.64
416.733	1.57
416.941	1.86
417.149	1.75
417.357	1.75
417.564	1.87
417.772	2.17
417.98	1.99
418.188	2.16
418.395	2.17
418.603	2.31
418.811	1.98
419.019	1.98
419.226	2.11
419.434	2.31
419.642	2.05
419.849	2.13
420.057	2.13
420.265	2.17
420.472	1.74
420.68	1.83
420.887	1.81
421.095	1.9
421.302	1.65
421.51	2.07
421.717	2.17
421.925	2.25
422.132	2.12
422.34	1.9
422.547	1.67
422.755	1.53
422.962	1.37
423.17	1.31
423.377	1.6
423.585	1.69
423.792	1.58
423.999	1.8
424.207	1.8
424.414	1.91
424.621	1.83
424.829	1.94
425.036	1.78
425.243	1.95
425.451	1.75
425.658	1.52
425.865	1.8
426.072	1.77
426.28	1.97
426.487	1.95
426.694	2.07
426.901	1.75
427.108	1.84
427.315	1.68
427.523	1.98
427.73	2.11
427.937	2.07
428.144	1.94
428.351	1.68
428.558	1.71
428.765	1.56
428.972	1.53
429.179	1.68
429.386	2.04
429.593	1.73
429.8	1.75
430.007	1.89
430.214	2.01
430.421	1.8
430.628	1.77
430.835	1.64
431.042	1.81
431.249	1.83
431.456	1.82
431.662	1.93
431.869	2.19
432.076	2.02
432.283	2.03
432.49	2.07
432.697	2.09
432.903	1.81
433.11	1.74
433.317	1.77
433.524	1.94
433.73	1.86
433.937	2.14
434.144	2.13
434.35	1.94
434.557	1.69
434.764	1.73
434.97	1.63
435.177	1.82
435.384	1.82
435.59	1.91
435.797	2.14
436.003	2.21
436.21	2.21
436.416	2.4
436.623	2.42
436.829	2.35
437.036	2.48
437.242	2.47
437.449	2.36
437.655	2.41
437.862	2.4
438.068	2.2
438.275	2.28
438.481	2.5
438.687	2.45
438.894	2.34
439.1	2.39
439.307	2.48
439.513	2.27
439.719	2.27
439.926	2.49
440.132	2.47
440.338	2.29
440.544	2.56
440.751	2.53
440.957	2.45
441.163	2.37
441.369	2.46
441.575	2.11
441.782	2.09
441.988	1.95
442.194	2.03
442.4	2
442.606	2.3
442.812	2.39
443.018	2.53
443.224	2.61
443.431	2.7
443.637	2.47
443.843	2.4
444.049	2.41
444.255	2.33
444.461	2.4
444.667	2.34
444.873	2.56
445.079	2.48
445.284	2.51
445.49	2.19
445.696	2.1
445.902	1.95
446.108	2
446.314	1.96
446.52	2.03
446.726	2.34
446.931	2.28
447.137	2.3
447.343	2.31
447.549	2.29
447.755	2.07
447.96	2.16
448.166	2.12
448.372	2.13
448.578	2.15
448.783	2.26
448.989	2.31
449.195	2.43
449.4	2.46
449.606	2.43
449.812	2.34
450.017	2.31
450.223	2.17
450.428	2.1
450.634	2.27
450.84	2.46
451.045	2.35
451.251	2.3
451.456	2.67
451.662	2.71
451.867	2.7
452.073	2.85
452.278	2.98
452.483	2.87
452.689	2.78
452.894	2.74
453.1	2.65
453.305	2.55
453.51	2.45
453.716	2.33
453.921	2.39
454.127	2.31
454.332	2.33
454.537	2.28
454.742	2.37
454.948	2.27
455.153	2.38
455.358	2.48
455.563	2.71
455.769	2.82
455.974	2.83
456.179	2.71
456.384	2.65
456.589	2.46
456.795	2.29
457	2.23
457.205	2.57
457.41	2.56
457.615	2.53
457.82	2.58
458.025	2.64
458.23	2.33
458.435	2.32
458.64	2.23
458.845	2.32
459.05	2.37
459.255	2.43
459.46	2.49
459.665	2.53
459.87	2.54
460.075	2.53
460.28	2.61
460.485	2.64
460.69	2.68
460.895	2.49
461.099	2.41
461.304	2.54
461.509	2.52
461.714	2.43
461.919	2.62
462.123	2.58
462.328	2.52
462.533	2.43
462.738	2.64
462.942	2.56
463.147	2.67
463.352	2.72
463.556	2.81
463.761	2.73
463.966	2.77
464.17	2.75
464.375	2.59
464.58	2.51
464.784	2.49
464.989	2.5
465.193	2.61
465.398	2.68
465.602	2.81
465.807	2.79
466.011	2.83
466.216	2.79
466.42	2.84
466.625	2.89
466.829	2.95
467.034	2.96
467.238	3.11
467.443	3.05
467.647	2.82
467.851	2.91
468.056	2.98
468.26	2.81
468.464	2.82
468.669	3
468.873	3.07
469.077	3.03
469.282	3.08
469.486	3.09
469.69	3.03
469.894	2.88
470.099	2.93
470.303	3.02
470.507	3
470.711	2.96
470.915	2.95
471.119	2.88
471.324	2.79
471.528	2.87
471.732	2.98
471.936	3.05
472.14	3.09
472.344	3.15
472.548	3.16
472.752	3.32
472.956	3.56
473.16	3.58
473.364	3.46
473.568	3.49
473.772	3.46
473.976	3.26
474.18	3.25
474.384	3.41
474.588	3.36
474.792	3.21
474.995	3.34
475.199	3.39
475.403	3.45
475.607	3.48
475.811	3.44
476.015	3.41
476.218	3.52
476.422	3.42
476.626	3.54
476.83	3.71
477.033	3.64
477.237	3.47
477.441	3.55
477.644	3.46
477.848	3.42
478.052	3.42
478.255	3.46
478.459	3.37
478.663	3.57
478.866	3.62
479.07	3.67
479.273	3.76
479.477	3.85
479.681	3.77
479.884	3.81
480.088	3.79
480.291	3.8
480.495	3.81
480.698	3.86
480.901	3.85
481.105	3.99
481.308	3.9
481.512	3.9
481.715	3.92
481.919	3.98
482.122	3.92
482.325	4.01
482.529	4.05
482.732	3.98
482.935	3.83
483.138	3.79
483.342	3.83
483.545	3.9
483.748	3.94
483.952	4.1
484.155	4.25
484.358	4.21
484.561	4.16
484.764	4.16
484.967	4.2
485.171	4.22
485.374	4.23
485.577	4.34
485.78	4.32
485.983	4.29
486.186	4.17
486.389	4.15
486.592	4.08
486.795	4.12
486.998	4.07
487.201	4.13
487.404	4.23
487.607	4.36
487.81	4.35
488.013	4.43
488.216	4.41
488.419	4.38
488.622	4.24
488.825	4.19
489.028	4.15
489.231	4.16
489.433	4.09
489.636	4.04
489.839	4.07
490.042	3.99
490.245	3.95
490.447	4.03
490.65	4.11
490.853	4.11
491.056	4.2
491.258	4.29
491.461	4.28
491.664	4.36
491.866	4.31
492.069	4.38
492.272	4.28
492.474	4.36
492.677	4.36
492.879	4.5
493.082	4.52
493.285	4.67
493.487	4.69
493.69	4.61
493.892	4.52
494.095	4.44
494.297	4.37
494.5	4.33
494.702	4.32
494.905	4.37
495.107	4.39
495.309	4.44
495.512	4.5
495.714	4.56
495.917	4.67
496.119	4.69
496.321	4.74
496.524	4.79
496.726	4.78
496.928	4.7
497.13	4.68
497.333	4.64
497.535	4.64
497.737	4.66
497.939	4.68
498.142	4.75
498.344	4.7
498.546	4.57
498.748	4.61
498.95	4.75
499.152	4.71
499.355	4.75
499.557	4.91
499.759	4.98
499.961	4.89
500.163	4.93
500.365	5.02
500.567	5.06
500.769	4.95
500.971	4.98
501.173	4.96
501.375	5
501.577	4.94
501.779	5.01
501.981	5.04
502.183	5.1
502.385	5.04
502.587	4.96
502.788	5.02
502.99	5.07
503.192	5.12
503.394	5.1
503.596	5.19
503.798	5.27
503.999	5.28
504.201	5.21
504.403	5.33
504.605	5.38
504.806	5.25
505.008	5.23
505.21	5.38
505.411	5.38
505.613	5.41
505.815	5.48
506.016	5.55
506.218	5.64
506.42	5.61
506.621	5.64
506.823	5.68
507.024	5.61
507.226	5.47
507.427	5.5
507.629	5.53
507.83	5.58
508.032	5.66
508.233	5.78
508.435	5.83
508.636	5.9
508.838	5.84
509.039	5.87
509.24	5.82
509.442	5.82
509.643	5.75
509.845	5.81
510.046	5.91
510.247	5.98
510.448	6.02
510.65	6.08
510.851	6.2
511.052	6.17
511.254	6.21
511.455	6.32
511.656	6.44
511.857	6.48
512.058	6.43
512.26	6.43
512.461	6.4
512.662	6.37
512.863	6.26
513.064	6.3
513.265	6.28
513.466	6.3
513.667	6.27
513.868	6.25
514.069	6.36
514.27	6.5
514.471	6.45
514.672	6.47
514.873	6.5
515.074	6.53
515.275	6.43
515.476	6.47
515.677	6.49
515.878	6.63
516.079	6.61
516.28	6.65
516.481	6.76
516.682	6.88
516.882	6.82
517.083	6.82
517.284	6.75
517.485	6.73
517.686	6.64
517.886	6.6
518.087	6.65
518.288	6.74
518.488	6.68
518.689	6.69
518.89	6.73
519.091	6.76
519.291	6.78
519.492	6.88
519.692	6.97
519.893	7.03
520.094	6.96
520.294	6.93
520.495	6.93
520.695	6.99
520.896	6.99
521.096	7.09
521.297	7.17
521.497	7.16
521.698	7.06
521.898	7.04
522.099	7.01
522.299	7.08
522.499	7.12
522.7	7.22
522.9	7.24
523.101	7.38
523.301	7.35
523.501	7.31
523.702	7.28
523.902	7.38
524.102	7.33
524.302	7.29
524.503	7.35
524.703	7.33
524.903	7.31
525.103	7.31
525.304	7.44
525.504	7.5
525.704	7.63
525.904	7.63
526.104	7.62
526.304	7.59
526.504	7.61
526.705	7.54
526.905	7.64
527.105	7.66
527.305	7.62
527.505	7.55
527.705	7.57
527.905	7.53
528.105	7.55
528.305	7.55
528.505	7.63
528.705	7.71
528.905	7.62
529.105	7.64
529.304	7.76
529.504	7.85
529.704	7.83
529.904	7.91
530.104	7.97
530.304	8.04
530.503	8
530.703	7.96
530.903	7.97
531.103	7.96
531.303	7.85
531.502	7.91
531.702	8.07
531.902	8.13
532.101	8.18
532.301	8.27
532.501	8.3
532.7	8.27
532.9	8.27
533.1	8.27
533.299	8.25
533.499	8.25
533.698	8.19
533.898	8.23
534.097	8.23
534.297	8.32
534.496	8.3
534.696	8.36
534.895	8.47
535.095	8.55
535.294	8.54
535.494	8.51
535.693	8.53
535.892	8.48
536.092	8.39
536.291	8.38
536.491	8.48
536.69	8.59
536.889	8.57
537.088	8.66
537.288	8.76
537.487	8.81
537.686	8.78
537.886	8.86
538.085	8.89
538.284	9.05
538.483	9.02
538.682	9.08
538.882	9.1
539.081	9.18
539.28	9.01
539.479	9.05
539.678	9.07
539.877	9.2
540.076	9.22
540.275	9.3
540.474	9.38
540.673	9.42
540.872	9.31
541.071	9.34
541.27	9.41
541.469	9.48
541.668	9.53
541.867	9.6
542.066	9.66
542.265	9.75
542.464	9.72
542.663	9.75
542.862	9.89
543.06	9.96
543.259	9.92
543.458	9.98
543.657	10.1
543.856	10.1
544.054	10.08
544.253	10.14
544.452	10.21
544.651	10.27
544.849	10.24
545.048	10.34
545.247	10.36
545.445	10.42
545.644	10.44
545.843	10.52
546.041	10.57
546.24	10.7
546.438	10.86
546.637	10.89
546.836	11.02
547.034	11.15
547.233	11.19
547.431	11.14
547.63	11.18
547.828	11.21
548.027	11.24
548.225	11.3
548.423	11.38
548.622	11.55
548.82	11.52
549.019	11.61
549.217	11.69
549.415	11.77
549.614	11.81
549.812	11.94
550.01	11.96
550.209	12.02
550.407	12.09
550.605	12.11
550.803	12.31
551.002	12.42
551.2	12.51
551.398	12.69
551.596	12.89
551.794	12.9
551.993	12.98
552.191	13.04
552.389	13.15
552.587	13.21
552.785	13.33
552.983	13.47
553.181	13.63
553.379	13.65
553.577	13.71
553.775	13.82
553.973	13.91
554.171	14.02
554.369	14.06
554.567	14.14
554.765	14.18
554.963	14.25
555.161	14.26
555.359	14.34
555.557	14.57
555.755	14.73
555.952	14.87
556.15	14.96
556.348	15.17
556.546	15.2
556.744	15.22
556.941	15.25
557.139	15.42
557.337	15.45
557.535	15.49
557.732	15.68
557.93	15.9
558.128	16.03
558.325	16.19
558.523	16.28
558.721	16.41
558.918	16.46
559.116	16.56
559.313	16.63
559.511	16.85
559.708	16.89
559.906	16.97
560.104	17.09
560.301	17.27
560.498	17.33
560.696	17.42
560.893	17.57
561.091	17.72
561.288	17.84
561.486	18.01
561.683	18.15
561.88	18.28
562.078	18.45
562.275	18.45
562.473	18.54
562.67	18.82
562.867	18.91
563.064	18.99
563.262	19.15
563.459	19.24
563.656	19.32
563.853	19.43
564.051	19.52
564.248	19.67
564.445	19.83
564.642	19.88
564.839	20.14
565.036	20.27
565.234	20.46
565.431	20.63
565.628	20.76
565.825	20.83
566.022	20.99
566.219	21.12
566.416	21.23
566.613	21.4
566.81	21.57
567.007	21.64
567.204	21.63
567.401	21.67
567.598	21.69
567.795	21.69
567.991	21.72
568.188	21.89
568.385	22.05
568.582	22.24
568.779	22.37
568.976	22.49
569.172	22.6
569.369	22.62
569.566	22.64
569.763	22.71
569.96	22.81
570.156	22.87
570.353	22.85
570.55	22.89
570.746	23
570.943	23.05
571.14	23.1
571.336	23.34
571.533	23.49
571.729	23.5
571.926	23.68
572.123	23.76
572.319	23.76
572.516	23.74
572.712	23.79
572.909	23.79
573.105	23.9
573.302	24.02
573.498	24.13
573.695	24.14
573.891	24.15
574.087	24.07
574.284	24.03
574.48	24.1
574.677	24.16
574.873	24.2
575.069	24.29
575.266	24.35
575.462	24.3
575.658	24.47
575.854	24.51
576.051	24.54
576.247	24.5
576.443	24.51
576.639	24.39
576.835	24.39
577.032	24.37
577.228	24.54
577.424	24.59
577.62	24.52
577.816	24.62
578.012	24.68
578.208	24.58
578.404	24.49
578.6	24.61
578.796	24.57
578.993	24.56
579.189	24.59
579.384	24.69
579.58	24.64
579.776	24.59
579.972	24.5
580.168	24.4
580.364	24.33
580.56	24.29
580.756	24.23
580.952	24.26
581.148	24.29
581.343	24.34
581.539	24.47
581.735	24.55
581.931	24.64
582.127	24.68
582.322	24.59
582.518	24.53
582.714	24.51
582.909	24.47
583.105	24.41
583.301	24.42
583.496	24.45
583.692	24.46
583.888	24.36
584.083	24.48
584.279	24.6
584.474	24.53
584.67	24.53
584.866	24.62
585.061	24.46
585.257	24.42
585.452	24.32
585.648	24.31
585.843	24.3
586.039	24.28
586.234	24.28
586.429	24.26
586.625	24.32
586.82	24.29
587.015	24.33
587.211	24.25
587.406	24.32
587.601	24.21
587.797	24.15
587.992	24.11
588.187	24.25
588.383	24.23
588.578	24.28
588.773	24.39
588.968	24.53
589.163	24.53
589.359	24.55
589.554	24.51
589.749	24.56
589.944	24.56
590.139	24.56
590.334	24.66
590.529	24.63
590.724	24.64
590.919	24.7
591.114	24.75
591.309	24.83
591.504	24.97
591.699	24.97
591.894	25.08
592.089	25.05
592.284	25.05
592.479	25.15
592.674	25.19
592.869	25.16
593.064	25.32
593.259	25.44
593.454	25.55
593.648	25.64
593.843	25.66
594.038	25.67
594.233	25.67
594.428	25.58
594.622	25.66
594.817	25.77
595.012	25.87
595.206	25.89
595.401	26.01
595.596	26.04
595.79	26.16
595.985	26.27
596.18	26.45
596.374	26.58
596.569	26.76
596.763	26.84
596.958	26.91
597.153	26.97
597.347	26.9
597.542	27.01
597.736	27
597.931	27.15
598.125	27.25
598.319	27.48
598.514	27.46
598.708	27.57
598.903	27.51
599.097	27.55
599.291	27.62
599.486	27.69
599.68	27.82
599.874	27.94
600.069	27.99
600.263	27.96
600.457	28.07
600.651	28.07
600.846	28.11
601.04	28.17
601.234	28.29
601.428	28.29
601.622	28.36
601.817	28.39
602.011	28.43
602.205	28.41
602.399	28.41
602.593	28.43
602.787	28.43
602.981	28.38
603.175	28.41
603.369	28.41
603.563	28.35
603.757	28.45
603.951	28.51
604.145	28.46
604.339	28.48
604.533	28.42
604.727	28.37
604.921	28.41
605.115	28.48
605.309	28.53
605.502	28.6
605.696	28.54
605.89	28.43
606.084	28.36
606.278	28.29
606.471	28.24
606.665	28.13
606.859	27.97
607.053	27.89
607.246	27.87
607.44	27.81
607.634	27.79
607.827	27.88
608.021	27.81
608.214	27.72
608.408	27.66
608.602	27.6
608.795	27.47
608.989	27.36
609.182	27.29
609.376	27.24
609.569	27.12
609.763	27.01
609.956	26.95
610.15	26.82
610.343	26.7
610.537	26.61
610.73	26.54
610.923	26.49
611.117	26.5
611.31	26.37
611.504	26.33
611.697	26.33
611.89	26.22
612.083	26.09
612.277	26.06
612.47	25.9
612.663	25.79
612.856	25.72
613.05	25.55
613.243	25.52
613.436	25.41
613.629	25.32
613.822	25.2
614.015	25.16
614.209	24.99
614.402	25
614.595	24.85
614.788	24.77
614.981	24.66
615.174	24.52
615.367	24.35
615.56	24.27
615.753	24.2
615.946	24.17
616.139	24.22
616.332	24.38
616.525	24.37
616.718	24.36
616.911	24.29
617.103	24.22
617.296	24.09
617.489	24
617.682	23.96
617.875	23.96
618.067	23.81
618.26	23.63
618.453	23.61
618.646	23.55
618.838	23.5
619.031	23.55
619.224	23.55
619.417	23.6
619.609	23.58
619.802	23.49
619.994	23.41
620.187	23.39
620.38	23.2
620.572	23.09
620.765	23.14
620.957	22.94
621.15	22.95
621.342	22.96
621.535	22.95
621.727	22.89
621.92	22.94
622.112	22.84
622.305	22.85
622.497	22.75
622.69	22.76
622.882	22.75
623.074	22.79
623.267	22.7
623.459	22.67
623.651	22.55
623.844	22.58
624.036	22.5
624.228	22.44
624.42	22.41
624.613	22.5
624.805	22.44
624.997	22.44
625.189	22.48
625.381	22.56
625.574	22.44
625.766	22.35
625.958	22.24
626.15	22.16
626.342	22.09
626.534	22.07
626.726	22.1
626.918	22.16
627.11	22.06
627.302	21.94
627.494	21.86
627.686	21.79
627.878	21.65
628.07	21.65
628.262	21.6
628.454	21.6
628.646	21.59
628.838	21.59
629.029	21.54
629.221	21.6
629.413	21.53
629.605	21.44
629.797	21.34
629.989	21.37
630.18	21.36
630.372	21.35
630.564	21.35
630.755	21.47
630.947	21.43
631.139	21.23
631.33	21.02
631.522	21.08
631.714	21.04
631.905	21
632.097	21.04
632.289	21.2
632.48	21.13
632.672	20.99
632.863	20.88
633.055	20.81
633.246	20.72
633.438	20.55
633.629	20.51
633.821	20.57
634.012	20.58
634.203	20.51
634.395	20.59
634.586	20.61
634.777	20.56
634.969	20.57
635.16	20.56
635.351	20.44
635.543	20.46
635.734	20.43
635.925	20.36
636.117	20.46
636.308	20.59
636.499	20.49
636.69	20.44
636.881	20.4
637.073	20.39
637.264	20.29
637.455	20.38
637.646	20.51
637.837	20.57
638.028	20.5
638.219	20.58
638.41	20.49
638.601	20.4
638.792	20.45
638.983	20.45
639.174	20.31
639.365	20.36
639.556	20.3
639.747	20.2
639.938	20.19
640.129	20.26
640.32	20.12
640.511	20.13
640.701	20.23
640.892	20.1
641.083	20.04
641.274	20.09
641.465	20.03
641.655	19.83
641.846	19.89
642.037	19.87
642.228	19.77
642.418	19.8
642.609	19.91
642.8	19.89
642.99	19.84
643.181	20
643.372	19.98
643.562	19.88
643.753	19.76
643.943	19.73
644.134	19.54
644.324	19.5
644.515	19.53
644.705	19.67
644.896	19.64
645.086	19.63
645.277	19.59
645.467	19.51
645.658	19.45
645.848	19.51
646.038	19.47
646.229	19.46
646.419	19.43
646.61	19.31
646.8	19.22
646.99	19.21
647.18	19.15
647.371	19.09
647.561	18.96
647.751	18.95
647.941	18.86
648.132	18.86
648.322	18.88
648.512	19.03
648.702	19.01
648.892	19.07
649.082	19
649.272	18.89
649.462	18.78
649.653	18.67
649.843	18.59
650.033	18.6
650.223	18.56
650.413	18.56
650.603	18.59
650.793	18.57
650.983	18.49
651.172	18.42
651.362	18.33
651.552	18.25
651.742	18.14
651.932	18.09
652.122	18.16
652.312	18.21
652.502	18.09
652.691	18.05
652.881	18.04
653.071	17.87
653.261	17.63
653.45	17.43
653.64	17.39
653.83	17.1
654.019	17.02
654.209	17.01
654.399	17.02
654.588	16.86
654.778	16.82
654.968	16.65
655.157	16.48
655.347	16.31
655.536	16.15
655.726	15.98
655.915	15.76
656.105	15.61
656.294	15.43
656.484	15.23
656.673	15.09
656.863	15.13
657.052	14.91
657.241	14.65
657.431	14.37
657.62	14.02
657.809	13.6
657.999	13.4
658.188	13.29
658.377	13.27
658.567	13.2
658.756	13.05
658.945	12.83
659.134	12.6
659.324	12.39
659.513	12.23
659.702	12.11
659.891	12
660.08	11.84
660.269	11.63
660.458	11.36
660.648	11.15
660.837	10.99
661.026	10.91
661.215	10.75
661.404	10.59
661.593	10.47
661.782	10.2
661.971	10.01
662.16	9.85
662.349	9.71
662.538	9.51
662.726	9.54
662.915	9.22
663.104	9
663.293	8.94
663.482	8.9
663.671	8.64
663.86	8.57
664.048	8.47
664.237	8.41
664.426	8.07
664.615	8.02
664.803	8.02
664.992	7.95
665.181	7.81
665.369	7.81
665.558	7.76
665.747	7.6
665.935	7.54
666.124	7.55
666.312	7.55
666.501	7.53
666.69	7.41
666.878	7.33
667.067	7.12
667.255	7.22
667.444	7.33
667.632	7.44
667.82	7.57
668.009	7.5
668.197	7.29
668.386	7.09
668.574	7.14
668.762	6.95
668.951	7
669.139	6.97
669.327	6.83
669.516	6.77
669.704	6.79
669.892	6.87
670.08	6.92
670.269	6.95
670.457	6.89
670.645	6.73
670.833	6.86
671.021	6.9
671.21	6.88
671.398	7.15
671.586	7.31
671.774	7.11
671.962	7.12
672.15	7.24
672.338	7.04
672.526	7.17
672.714	7.14
672.902	7.21
673.09	7.39
673.278	7.59
673.466	7.57
673.654	7.91
673.842	7.87
674.03	7.84
674.218	7.71
674.405	7.8
674.593	7.62
674.781	7.75
674.969	7.8
675.157	8.04
675.344	8.13
675.532	8.29
675.72	8.44
675.908	8.48
676.095	8.43
676.283	8.49
676.471	8.72
676.658	8.75
676.846	8.9
677.033	9.03
677.221	9.01
677.409	8.79
677.596	8.89
677.784	8.85
677.971	8.9
678.159	9.09
678.346	9.2
678.534	9.35
678.721	9.58
678.909	9.66
679.096	9.77
679.283	10.09
679.471	10.26
679.658	10.31
679.846	10.66
680.033	10.88
680.22	10.97
680.408	10.92
680.595	11.03
680.782	10.87
680.969	11.07
681.157	11.2
681.344	11.39
681.531	11.52
681.718	11.72
681.905	11.84
682.093	12.05
682.28	12.33
682.467	12.62
682.654	12.89
682.841	13
683.028	13.18
683.215	13.28
683.402	13.35
683.589	13.53
683.776	13.76
683.963	13.79
684.15	14.07
684.337	14.3
684.524	14.58
684.711	14.84
684.898	15.13
685.085	15.34
685.271	15.8
685.458	16.16
685.645	16.39
685.832	16.92
686.019	17.35
686.205	17.69
686.392	17.92
686.579	18.34
686.766	18.71
686.952	19.06
687.139	19.65
687.326	19.92
687.512	20.4
687.699	20.68
687.886	21.02
688.072	21.14
688.259	21.84
688.445	22.29
688.632	22.71
688.818	23.32
689.005	23.75
689.191	24.2
689.378	24.86
689.564	25.61
689.751	26.36
689.937	27.1
690.124	27.78
690.31	28.09
690.496	28.58
690.683	29.06
690.869	29.63
691.055	30.18
691.242	31.15
691.428	31.92
691.614	32.66
691.8	33.44
691.987	34.17
692.173	34.58
692.359	35.17
692.545	35.7
692.731	36.21
692.918	36.9
693.104	37.69
693.29	38.47
693.476	39.23
693.662	39.97
693.848	40.47
694.034	41.11
694.22	41.61
694.406	42.28
694.592	42.99
694.778	43.8
694.964	44.57
695.15	45.44
695.336	46.06
695.522	46.89
695.708	47.45
695.894	48.03
696.08	48.55
696.265	49.11
696.451	49.41
696.637	50.27
696.823	50.9
697.009	51.58
697.194	52.26
697.38	53.02
697.566	53.25
697.751	53.67
697.937	54.11
698.123	54.75
698.308	55.58
698.494	56.41
698.68	57.01
698.865	57.64
699.051	58.22
699.236	58.54
699.422	59.01
699.607	59.44
699.793	59.99
699.978	60.38
700.164	60.88
700.349	61.58
700.535	62.17
700.72	62.48
700.906	63.17
701.091	63.61
701.276	63.94
701.462	64.64
701.647	65.49
701.832	65.67
702.018	65.91
702.203	66.11
702.388	66.3
702.573	66.55
702.759	67.11
702.944	67.66
703.129	67.97
703.314	68.39
703.499	68.49
703.684	68.51
703.87	69.53
704.055	70.36
704.24	70.53
704.425	71.13
704.61	71.57
704.795	71.29
704.98	70.97
705.165	71.51
705.35	71.45
705.535	71.81
705.72	72.25
705.905	73.11
706.09	73.4
706.275	73.71
706.459	73.74
706.644	73.63
706.829	73.77
707.014	73.55
707.199	74.08
707.384	75.03
707.568	75.32
707.753	75.83
707.938	76.51
708.123	76.52
708.307	76.34
708.492	76.58
708.677	76.47
708.861	76.72
709.046	76.76
709.231	77.3
709.415	77.59
709.6	77.31
709.784	77.02
709.969	77.34
710.153	76.83
710.338	76.65
710.522	77.02
710.707	77.5
710.891	77.67
711.076	78.07
711.26	78.26
711.445	78.7
711.629	78.61
711.813	78.53
711.998	78.77
712.182	78.7
712.366	79.09
712.551	79.84
712.735	80.36
712.919	79.77
713.103	80.2
713.288	79.66
713.472	79.28
713.656	79.82
713.84	80.51
714.024	80.89
714.208	80.92
714.393	81.68
714.577	81.55
714.761	81.72
714.945	81.72
715.129	82.09
715.313	81.77
715.497	81.46
715.681	82.3
715.865	82.04
716.049	82.14
716.233	81.74
716.417	82.42
716.601	81.84
716.785	82.15
716.968	82
717.152	82.16
717.336	81.71
717.52	81.59
717.704	81.75
717.888	82.51
718.071	83.09
718.255	83.49
718.439	83.71
718.622	83.87
718.806	83.8
718.99	83.2
719.174	83.12
719.357	83.39
719.541	83.31
719.724	83.19
719.908	83.93
720.092	84.35
720.275	84.24
720.459	83.9
720.642	83.91
720.826	83.52
721.009	82.85
721.193	82.47
721.376	82.81
721.559	82.94
721.743	83.38
721.926	83.85
722.11	84.41
722.293	84.04
722.476	83.82
722.66	83.73
722.843	83.62
723.026	83.04
723.21	83.42
723.393	84.12
723.576	84.31
723.759	84.16
723.942	84.89
724.126	85.17
724.309	84.72
724.492	84.41
724.675	84.32
724.858	84.27
725.041	84.59
725.224	85.27
725.407	85.53
725.59	86.19
725.774	86.16
725.957	85.11
726.14	84.56
726.322	84.98
726.505	84.95
726.688	85.07
726.871	85.48
727.054	85.95
727.237	85.48
727.42	85.44
727.603	85.16
727.786	85.71
727.968	85.87
728.151	86.09
728.334	86.14
728.517	86.45
728.699	86.91
728.882	86.73
729.065	87.53
729.248	87.63
729.43	88.2
729.613	88.44
729.796	88.82
729.978	87.28
730.161	87.33
730.343	86.9
730.526	86.91
730.708	86.22
730.891	86.99
731.073	86.94
731.256	86.43
731.438	85.78
731.621	86.75
731.803	87.5
731.986	87.21
732.168	87.22
732.35	87.52
732.533	86.77
732.715	86.45
732.898	87.58
733.08	88.49
733.262	89.18
733.444	89.69
733.627	89.46
733.809	89.22
733.991	89.81
734.173	89.11
734.355	88.28
734.538	89.09
734.72	88.54
734.902	88.35
735.084	88.76
735.266	89.55
735.448	89.42
735.63	89.67
735.812	89.27
735.994	89.95
736.176	90.43
736.358	90.29
736.54	91.16
736.722	90.7
736.904	90.22
737.086	89.9
737.268	90.86
737.45	91.08
737.632	91.5
737.814	91.19
737.995	91.03
738.177	90.16
738.359	88.43
738.541	89.26
738.723	89.76
738.904	90.26
739.086	90.61
739.268	91.32
739.449	91
739.631	90.5
739.813	90.94
739.994	90.86
740.176	91.54
740.358	91.35
740.539	92.56
740.721	92.21
740.902	92.73
741.084	92.14
741.265	91.86
741.447	91.52
741.628	91.81
741.81	90.48
741.991	91.44
742.172	92.55
742.354	92.76
742.535	91.95
742.717	92.24
742.898	92.52
743.079	92.14
743.261	91.73
743.442	91.45
743.623	92.62
743.804	92.07
743.986	92.37
744.167	91.82
744.348	91.92
744.529	91.83
744.71	90.66
744.891	89.87
745.073	89.3
745.254	88.92
745.435	88.19
745.616	88
745.797	88.24
745.978	88.73
746.159	90.34
746.34	89.28
746.521	90.93
746.702	89.98
746.883	90.02
747.064	88.14
747.245	88.92
747.426	88.5
747.606	88.46
747.787	89.08
747.968	90.2
748.149	90.53
748.33	91.05
748.51	91.72
748.691	91.55
748.872	91.55
749.053	90.7
749.233	89.25
749.414	88.17
749.595	86.99
749.775	86.26
749.956	86.08
750.137	86.51
750.317	88.91
750.498	90.19
750.678	90.79
750.859	91.36
751.04	90.63
751.22	87.28
751.4	86.59
751.581	84.06
751.761	84.43
751.942	85.33
752.122	86.44
752.303	85.17
752.483	87.46
752.663	87.59
752.844	87.04
753.024	88.99
753.204	90.73
753.385	90.13
753.565	89.32
753.745	89.71
753.925	87.2
754.106	85.85
754.286	85.9
754.466	86.01
754.646	86.25
754.826	85.95
755.006	84.92
755.187	86.56
755.367	88.21
755.547	87.85
755.727	90.35
755.907	92.3
756.087	92.42
756.267	90.5
756.447	89.68
756.627	87.58
756.807	87.69
756.987	85.72
757.167	86.69
757.346	87.48
757.526	87.12
757.706	86.1
757.886	87.37
758.066	87.67
758.246	89.53
758.425	89.74
758.605	89.57
758.785	88.64
758.965	88.05
759.144	84.77
759.324	85.93
759.504	86.9
759.683	86.77
759.863	85.13
760.043	85.42
760.222	84.4
760.402	84.09
760.581	84.46
760.761	87.25
760.94	86.52
761.12	89.54
761.299	89.57
761.479	88.8
761.658	85.71
761.838	86.15
762.017	82.81
762.197	83.15
762.376	82.98
762.555	84.3
762.735	84.8
762.914	84.3
763.093	83.75
763.273	82.36
763.452	81.68
763.631	82.14
763.81	82.62
763.99	82.8
764.169	84.17
764.348	83.45
764.527	81.99
764.706	83.11
764.885	83.89
765.064	82.36
765.243	82.89
765.423	84.09
765.602	83.07
765.781	80.18
765.96	80.41
766.139	79.89
766.318	79.73
766.497	79.13
766.676	82.29
766.854	84.07
767.033	83.87
767.212	83.69
767.391	84.36
767.57	83.23
767.749	82.74
767.928	84.55
768.106	81.13
768.285	80.2
768.464	79.13
768.643	78.34
768.821	76.83
769	82.48
769.179	82.94
769.357	82.1
769.536	83.15
769.715	83.68
769.893	82.46
770.072	80.81
770.25	81.56
770.429	81.34
770.607	80.91
770.786	79.22
770.964	82.35
771.143	82.14
771.321	83.02
771.5	84.61
771.678	84.09
771.857	81.88
772.035	80.94
772.213	79.03
772.392	77.08
772.57	79.44
772.748	79.51
772.927	79.54
773.105	79.93
773.283	80.73
773.461	80.9
773.64	83.23
773.818	83.07
773.996	83.62
774.174	83.29
774.352	79.61
774.531	74.74
774.709	76.93
774.887	75.7
775.065	74.52
775.243	74.8
775.421	76.98
775.599	77.16
775.777	76.13
775.955	74.75
776.133	71.82
776.311	71.9
776.489	68.09
776.667	70
776.844	73.77
777.022	75.29
777.2	75.57
777.378	76.76
777.556	76
777.734	75.93
777.911	79.53
778.089	79.73
778.267	81.28
778.445	78.63
778.622	75.57
778.8	74.19
778.978	74.87
779.155	73.18
779.333	76.72
779.511	78.79
779.688	79.91
779.866	73.77
780.043	71.24
780.221	69.87
780.398	67.06
780.576	67.14
780.753	74.56
780.931	75.94
781.108	73.8
781.286	76.8
781.463	74.2
781.64	68.14
781.818	71.47
781.995	74.42
782.172	71.68
782.35	73.56
782.527	81.51
782.704	78.25
782.882	78.97
783.059	80.39
783.236	79.94
783.413	77.12
783.59	78.01
783.768	76.03
783.945	77.76
784.122	78.4
784.299	79.45
784.476	77.46
784.653	76.57
784.83	73.3
785.007	68.89
785.184	67.51
785.361	66.2
785.538	69.14
785.715	74.76
785.892	77.24
786.069	78.7
786.246	83.2
786.423	81.74
786.6	79.41
786.776	81.16
786.953	75.5
787.13	76.22
787.307	75.11
787.484	72.66
787.66	70.4
787.837	74.37
788.014	71.66
788.191	69.72
788.367	66.57
788.544	72.13
788.721	70.46
788.897	73.23
789.074	79.15
789.25	79.26
789.427	76.15
789.603	76.43
789.78	76.13
789.956	71.92
790.133	71.43
790.309	71.9
790.486	73.36
790.662	71.8
790.839	70.34
791.015	72.11
791.192	67.19
791.368	66.47
791.544	62.81
791.721	63.27
791.897	61.82
792.073	59.81
792.249	52.77
792.426	58.91
792.602	66.6
792.778	70.2
792.954	69.54
793.13	74.08
793.307	63.55
793.483	54.27
793.659	49.76
793.835	55.9
794.011	55.61
794.187	63.08
794.363	60.77
794.539	66.57
794.715	61.52
794.891	61.38
795.067	56.46
795.243	62.92
795.419	60.27
795.595	58.45
795.771	59.1
795.947	62.91
796.122	56.86
796.298	60.14
796.474	64.95
796.65	62.56
796.826	57.23
797.001	59.57
797.177	53.7
797.353	58.17
797.529	62.36
797.704	66.6
797.88	64.37
798.056	63.52
798.231	56.46
798.407	61.16
798.582	62.89
798.758	69.98
798.934	78.53
799.109	78.7
799.285	71.48
799.46	73.44
799.636	66.98
799.811	61.07
799.986	65.46
800.162	68.13
800.337	69.79
800.513	70.3
800.688	66.7
800.863	73.03
801.039	67.3
801.214	60.13
801.389	59.91
801.565	60.76
801.74	47.42
801.915	55.22
802.09	57.86
802.265	70.81
802.441	69.42
802.616	69.76
802.791	66.7
802.966	66.86
803.141	58.06
803.316	56.91
803.491	63.72
803.666	65.87
803.841	62.71
804.016	61.09
804.191	65.46
804.366	62.96
804.541	58.67
804.716	60.26
804.891	58.54
805.066	59.9
805.241	59.27
805.416	59.81
805.591	58.35
805.765	64.51
805.94	67.42
806.115	64.19
806.29	57.78
806.464	59.08
806.639	43.21
806.814	38.78
806.989	28.53
807.163	45.48
807.338	45.79
807.512	57.43
807.687	43.54
807.862	68.6
808.036	67.77
808.211	71.07
808.385	72.53
808.56	89.51
808.734	78.27
808.909	68.51
809.083	55.42
809.258	64.26
809.432	66.96
809.606	53.61
809.781	47.16
809.955	60.46
810.13	54.88
810.304	43.63
810.478	45.64
810.652	59.14
810.827	58.21
811.001	50.29
811.175	49.09
811.349	48.07
811.524	39.11
811.698	27.08
811.872	32.92
812.046	42.81
812.22	52.34
812.394	51.11
812.568	57.19
812.742	57.87
812.916	54.88
813.09	44.06
813.264	42.92
813.438	49.52
813.612	50.76
813.786	44.66
813.96	57.61
814.134	58.41
814.308	60.35
814.482	64.15
814.656	59.71
814.83	63.81
815.003	73.68
815.177	66.18
815.351	58.43
815.525	64.32
815.698	52.61
815.872	32.4
816.046	22.67
816.219	23.88
816.393	32.78
816.567	44.15
816.74	58.45
816.914	65.7
817.088	66.01
817.261	52.43
817.435	35.29
817.608	33.55
817.782	24.19
817.955	30.44
818.129	34.84
818.302	46.83
818.475	58.48
818.649	57.21
818.822	43.5
818.996	58.13
819.169	50.24
819.342	31.49
819.516	44.5
819.689	59.94
819.862	48.43
820.035	47.59
820.209	48.25
820.382	47.29
820.555	46.58
820.728	34.67
820.901	31.63
821.075	37.76
821.248	35.55
821.421	20.4
821.594	29.11
821.767	66.71
821.94	69.12
822.113	55.52
822.286	64.11
822.459	70.98
822.632	48.68
822.805	42.31
822.978	41.31
823.151	31.78
823.324	24.73
823.496	-2.44
823.669	-2.62
823.842	8.47
824.015	-8.9
824.188	-16.72
824.361	5.27
824.533	-0.85
824.706	0.63
824.879	19
825.051	28.22
825.224	21.19
825.397	14.44
825.569	0.83
825.742	18.06
825.915	24.47
826.087	42.99
826.26	35.6
826.432	29.05
826.605	23.28
826.777	15.17
826.95	0.05
827.122	-12.59
827.295	14.68
827.467	18.02
827.64	-11.54
827.812	3.31
827.984	27.6
828.157	14.78
828.329	-6.23
828.501	23.07
828.674	43.15
828.846	20.43
829.018	17.89
829.19	-3.94
829.363	12.47
829.535	-5.67
829.707	0.07
829.879	-19.6
830.051	-20.83
830.223	-21.8
830.395	-53.51
830.568	-55.94
830.74	-51.89
830.912	-13.98
831.084	-44.63
831.256	-31.16
831.428	-33.53
831.6	-60.61
831.772	-98.7
831.943	-93.13
832.115	-55.23
832.287	-46.22
832.459	-5.74
832.631	12.2
832.803	26.35
832.975	35.08
833.146	31.86
833.318	26.94
833.49	38.92
833.662	9.79
833.833	-1.4
834.005	10.29
834.177	4.23
834.348	-10.59
834.52	-19.3
834.692	-20.32
834.863	-43.44
835.035	-51.1
835.206	-95.02
835.378	-52.99
835.549	-63.44
835.721	-50.06
835.892	-31.69
836.064	-30.23
836.235	-28.4
836.407	-15.13
836.578	-33.87
836.749	-42.12
836.921	-37.16
837.092	-67.56
837.264	-58.69
837.435	-78.87
837.606	-14.35
837.777	9.12
837.949	30.11
838.12	17.79
838.291	29.21
838.462	6.49
838.633	-20.95
838.805	-32.04
838.976	-39.83
839.147	-105.53
839.318	-98.55
839.489	-126.03
839.66	-117.47
839.831	-60.61
840.002	-38.63
840.173	-77.62
840.344	-12.72
840.515	-22.79
840.686	-133.1
840.857	-110.38
841.028	-76.2
841.199	-108.74
841.369	-94.54
841.54	-68.47
841.711	-28.4
841.882	-20.07
842.053	-18.27
842.223	-28.46
842.394	-4.23
842.565	-13.58
842.736	9.41
842.906	19.94
843.077	28.9
843.248	64.92
843.418	68.23
843.589	12.77
843.759	93.84
843.93	70.5
844.101	-4.68
844.271	3.85
844.442	39.76
844.612	36.48
844.783	18.33
844.953	3.22
845.123	26.73
845.294	-12.85
845.464	-207.39
845.635	-119.16
845.805	-23.66
845.975	-15.6
846.146	-25.05
846.316	-23.21
846.486	14.78
846.656	30.78
846.827	24.79
846.997	10.75
847.167	38.69
847.337	-4.68
847.507	-57.37
847.677	-43.66
847.848	35.91
848.018	25.85
848.188	35.2
848.358	25.74
848.528	4.57
848.698	-62.26
848.868	-171.55
849.038	-289.02
849.208	-123.74
849.378	-65.69
849.548	-53.09
849.718	-17.68
849.887	7.92
850.057	-6.96
850.227	-55.79
850.397	-64.29
850.567	-162.43
850.737	-415.54
850.906	-1284.69
851.076	-828.71
851.246	-382.59
851.415	-11.09
851.585	-10.21
851.755	-26.12
851.924	0.12
852.094	-44.28
852.264	-160.34
852.433	-1302.64
852.603	-295.24
852.772	-259.64
852.942	-86.88
853.111	-100.72
853.281	-16.36
853.45	14.71
853.62	-67.48
853.789	-73.49
853.959	-66.17
854.128	-93.79
854.297	-103.43
854.467	-94.51
854.636	-93.9
854.805	-15.32
854.975	-57.61
855.144	-156.64
855.313	-252.97
855.482	-638.5
855.652	-339.7
855.821	-221.15
855.99	-18.46
856.159	-2.82
856.328	3.86
856.497	-31.61
856.667	-24.66
856.836	-19.73
857.005	-42.53
857.174	-40.11
857.343	-34.52
857.512	14.6
857.681	-56.78
857.85	-116.92
858.019	-75.45
858.188	-72.39
858.356	-84.78
858.525	-180.63
858.694	-119.7
858.863	-230.22
859.032	-166.39
859.201	-307.98
859.369	-176.47
859.538	-156.12
859.707	-141.04
859.876	-146.19
860.044	-93.83
860.213	11.99
860.382	-33.52
860.55	-27.11
860.719	9.05
860.888	15.12
861.056	-43.56
861.225	-39.76
861.393	13.51
861.562	-18.35
861.73	-112.26
861.899	-362.17
862.067	-2478.45
862.236	-205.15
862.404	-432.78
862.572	-264.35
862.741	-111.49
862.909	-82.7
863.078	-174.96
863.246	-118.89
863.414	-80.56
863.582	-55.64
863.751	-89.82
863.919	-86.22
864.087	-2.6
864.255	-31.05
864.424	-311.45
864.592	-33.35
864.76	-73.09
864.928	-339.8
865.096	-210.75
865.264	-163.81
865.432	-1476.7
865.6	-104.37
865.768	-119.99
865.936	-122.81
866.104	-149.39
866.272	-236.8
866.44	-378.64
866.608	596.06
866.776	238.35
866.944	2271.51
867.112	-332.52
867.28	-175.09
867.448	-44.92
867.615	-3.67
867.783	17.23
867.951	-7.98
868.119	40.27
868.286	1.12
868.454	-186.82
868.622	-230.97
868.789	-396.52
868.957	-8112.5
869.125	-4062.5
869.292	-212.71
869.46	-323.05
869.627	-37.97
869.795	-53.55
869.963	-15.65
870.13	-4.48
870.298	26.95
870.465	-83.34
870.632	-121.5
870.8	-99.3
870.967	-174.15
871.135	-274.61
871.302	-201.68
871.469	-186.89
871.637	-236.57
871.804	-141.6
871.971	-132.56
872.139	-498.95
872.306	-50.12
872.473	-99.57
872.64	-399.89
872.807	-163.23
872.975	6.14
873.142	-215.55
873.309	1464.19
873.476	74.67
873.643	101.04
873.81	27.75
873.977	56.41
874.144	52.37
874.311	-100.65
874.478	-143.18
874.645	-160.16
874.812	-108.3
874.979	-37.37
875.146	-54.45
875.313	-63.59
875.48	18.54
875.647	-2.07
875.813	-57.75
875.98	-26.86
876.147	-31.64
876.314	-92.36
876.481	911.36
876.647	-999.72
876.814	470.34
876.981	3.94
877.147	-29.73
877.314	-12.73
877.481	15.36
877.647	38.61
877.814	-8.03
877.98	-46.57
878.147	39.56
878.314	72.99
878.48	13.95
878.647	9.57
878.813	54.59
878.979	15.93
879.146	-46.03
879.312	-53.1
879.479	-142.32
879.645	-250.59
879.811	-486.04
879.978	-1141.79
880.144	-309.76
880.31	-173.44
880.477	-528.5
880.643	-541.46
880.809	-257.88
880.975	-211.15
881.142	-1411.59
881.308	-199.56
881.474	-133.35
881.64	-185
881.806	-291.36
881.972	-112.58
882.138	-133.55
882.304	-164.77
882.47	-228.85
882.636	-758.81
882.802	-235.59
882.968	-60.83
883.134	-58.42
883.3	-59.52
883.466	8.19
883.632	44.85
883.798	4.21
883.964	8.8
884.129	0.53
884.295	-26.19
884.461	-112.01
884.627	-128.45
884.793	-157.13
884.958	-64.58
885.124	-185.13
885.29	-264.09
885.455	-366.38
885.621	-116.76
885.787	-208.68
885.952	-89.6
886.118	-96.66
886.283	-122.11
886.449	-228.6
886.614	-247.81
886.78	-493.37
886.945	1856.97
887.111	-732.8
887.276	-623.15
887.442	-1133.41
887.607	-493.28
887.773	-272.85
887.938	-327.09
888.103	-399.92
888.269	-243.6
888.434	-446.89
888.599	-242.83
888.764	-61.87
888.93	-21.71
889.095	-57.54
889.26	-95.47
889.425	-76.22
889.59	-77.51
889.756	-90.85
889.921	-49.7
890.086	27.6
890.251	28.33
890.416	-119.16
890.581	-1536.69
890.746	224.55
890.911	442.52
891.076	206.16
891.241	-531.9
891.406	5.8
891.571	-83.59
891.736	-348.97
891.901	-572.35
892.065	526.1
892.23	149.79
892.395	243.98
892.56	305.71
892.725	-444.34
892.889	-2060.37
893.054	-317.59
893.219	-97.31
893.384	-69.44
893.548	-92.29
893.713	-76.34
893.878	-27.92
