Data from Ofra_PS_T2_1A_8CX24_Reflection_2.txt Node
Date: Wed Jul 21 18:14:19 EDT 2021
User: Adam
Spectrometer: FLMT01687
Trigger mode: 0
Integration Time (sec): 1.100000E0
Scans to average: 2
Electric dark correction enabled: true
Nonlinearity correction enabled: false
Boxcar width: 2
XAxis mode: Wavelengths
Number of Pixels in Spectrum: 3648
>>>>>Begin Spectral Data<<<<<
179.494	512
179.716	599.53
179.937	557.46
180.158	505.25
180.38	766.25
180.601	377.35
180.823	118.67
181.044	181.52
181.265	420.59
181.486	146.11
181.708	89.15
181.929	267.35
182.15	170.42
182.372	212.16
182.593	99.65
182.814	45.09
183.035	75.83
183.257	72.42
183.478	-41.91
183.699	17.3
183.92	7.55
184.141	2.46
184.363	-32.77
184.584	26.98
184.805	26.9
185.026	51.37
185.247	49.04
185.468	32.94
185.689	34.47
185.91	51.24
186.132	52.48
186.353	70.16
186.574	133.6
186.795	105.09
187.016	59.59
187.237	44.67
187.458	5.02
187.679	8.64
187.9	2.35
188.121	0.65
188.342	-23.38
188.563	30.31
188.784	30.09
189.005	35.48
189.226	101.13
189.447	120.93
189.667	73.3
189.888	-173.89
190.109	-925.97
190.33	-556.77
190.551	-1111.5
190.772	-194.43
190.993	-110.74
191.214	-73.14
191.434	-42.38
191.655	4.17
191.876	-61.63
192.097	-121.5
192.318	-122.13
192.538	-228.45
192.759	-121.67
192.98	13.64
193.201	50.85
193.421	54.39
193.642	64.77
193.863	61.78
194.083	29.32
194.304	26.3
194.525	13.08
194.745	4.33
194.966	7.01
195.187	-9.51
195.407	-37.61
195.628	-87.15
195.848	-111.21
196.069	-84.23
196.29	-49.73
196.51	-52.95
196.731	-25.45
196.951	-11.57
197.172	-60.39
197.392	-98.17
197.613	-75.44
197.833	-111
198.054	-97.33
198.274	-42.78
198.495	-46.05
198.715	-32.44
198.936	-55.06
199.156	-41.81
199.377	-127.69
199.597	-134.95
199.817	-108.63
200.038	-34.13
200.258	-77.75
200.479	-25.2
200.699	16.08
200.919	12.11
201.14	-11.66
201.36	-20.6
201.58	20
201.801	48.1
202.021	17.72
202.241	23.93
202.461	25.71
202.682	-46.39
202.902	-101.2
203.122	-51.99
203.342	-41.08
203.563	-2.53
203.783	28.01
204.003	-1.41
204.223	5.22
204.443	36.45
204.663	3.7
204.884	12.29
205.104	50
205.324	77.47
205.544	70.12
205.764	78.62
205.984	68.47
206.204	53.34
206.424	37.76
206.644	22.03
206.864	14.88
207.084	-39.02
207.304	-27.38
207.525	-186.25
207.745	-94.37
207.964	-46.6
208.184	-39.5
208.404	-70.53
208.624	-62.04
208.844	-81.19
209.064	-342.63
209.284	-406.99
209.504	-205.25
209.724	-34.02
209.944	-14.56
210.164	20.13
210.384	35.79
210.604	44.07
210.823	-6.71
211.043	-19.93
211.263	-15.31
211.483	-4.64
211.703	-69.72
211.922	-45.28
212.142	18.7
212.362	23.62
212.582	-4.22
212.801	11.63
213.021	-6.13
213.241	-23.13
213.461	-31.78
213.68	-38.4
213.9	-14.4
214.12	0.09
214.339	-47.06
214.559	-36.51
214.779	14.75
214.998	26.78
215.218	3.07
215.438	20.15
215.657	8.96
215.877	-22.27
216.096	-22.41
216.316	-6.84
216.535	-20.55
216.755	-14.71
216.974	-39.04
217.194	-57.14
217.413	-88.4
217.633	-97.96
217.852	-166.79
218.072	-76.46
218.291	-40.64
218.511	2.35
218.73	-8.64
218.95	-8.7
219.169	-21.81
219.389	-64.33
219.608	-55.06
219.827	-45.08
220.047	-44.72
220.266	-31.99
220.485	-15.33
220.705	-2.34
220.924	-5.55
221.143	36.41
221.363	33.3
221.582	37.15
221.801	45.82
222.021	53.55
222.24	-6.15
222.459	25.99
222.678	18.76
222.897	-25
223.117	-80.07
223.336	-47.31
223.555	-40.43
223.774	7.6
223.993	19.6
224.213	86.48
224.432	68.35
224.651	75.31
224.87	34.21
225.089	51.46
225.308	28.8
225.527	33.5
225.746	37.54
225.965	40.92
226.184	-3.11
226.404	18
226.623	1.4
226.842	-12.11
227.061	-3.53
227.28	7.5
227.499	-12.95
227.718	10.53
227.936	1.44
228.155	26.44
228.374	17.33
228.593	26.3
228.812	38.88
229.031	45.19
229.25	-6.93
229.469	6.29
229.688	19.64
229.907	19.5
230.125	30.05
230.344	45.59
230.563	55.33
230.782	49.36
231.001	-12.2
231.22	-12.52
231.438	0.52
231.657	7.21
231.876	5.79
232.095	47.04
232.313	48.11
232.532	57.29
232.751	4.13
232.969	-17.48
233.188	-97.5
233.407	-29.19
233.625	-28
233.844	-9.42
234.063	5.56
234.281	25.82
234.5	9.35
234.719	14.63
234.937	21.14
235.156	25.03
235.374	17.85
235.593	14.42
235.811	17.93
236.03	12.12
236.249	-30.25
236.467	-8.61
236.686	10.15
236.904	15.6
237.123	6.11
237.341	14.11
237.559	8.06
237.778	-13.19
237.996	-34.19
238.215	-2.23
238.433	15.65
238.652	21.8
238.87	14.11
239.088	26.34
239.307	21.49
239.525	2.62
239.743	-16.21
239.962	-9.48
240.18	-22.56
240.398	-62.28
240.617	-61.05
240.835	-49.51
241.053	-15.06
241.271	7.04
241.49	24.66
241.708	1.35
241.926	-12.2
242.144	-8.04
242.363	-25.14
242.581	-12.31
242.799	3.61
243.017	22.73
243.235	-5.26
243.453	-10.02
243.672	-22.63
243.89	-8.19
244.108	-15.9
244.326	14.9
244.544	9.25
244.762	23.17
244.98	29.37
245.198	33.49
245.416	10.19
245.634	18.42
245.852	1.76
246.07	-5.56
246.288	-10.31
246.506	-43.69
246.724	-25.4
246.942	-13.9
247.16	16.2
247.378	20.76
247.596	52.81
247.814	52.53
248.032	29.18
248.25	25.09
248.468	21.2
248.685	26.39
248.903	31.99
249.121	36.26
249.339	3.53
249.557	-10.7
249.775	-5.79
249.992	-64.99
250.21	-63.58
250.428	-37.38
250.646	-50.27
250.863	-69.53
251.081	-25.62
251.299	1.66
251.517	18.65
251.734	5.11
251.952	1.35
252.17	-9.28
252.387	-11.96
252.605	-21.58
252.823	-5.19
253.04	14.28
253.258	42.79
253.475	40.33
253.693	47.47
253.911	53.38
254.128	42.18
254.346	23.37
254.563	7.59
254.781	-10.77
254.998	-48.86
255.216	-48.38
255.433	-15.34
255.651	29.45
255.868	35.66
256.086	66.49
256.303	44.71
256.521	32.08
256.738	8.31
256.956	-12.96
257.173	-37.37
257.39	-32.49
257.608	-78.28
257.825	0.76
258.043	44
258.26	38.86
258.477	59.87
258.695	70.87
258.912	4.92
259.129	17.99
259.346	1.26
259.564	-30.68
259.781	-39.71
259.998	10.9
260.216	6.5
260.433	27.63
260.65	32.59
260.867	37.98
261.084	8.14
261.302	-0.6
261.519	-1.5
261.736	-46.43
261.953	-70.28
262.17	-25.7
262.387	-71.71
262.604	-91.47
262.822	-65.79
263.039	-42.22
263.256	-93.07
263.473	-51.07
263.69	-26.75
263.907	10.09
264.124	35.6
264.341	29.97
264.558	26.4
264.775	23.96
264.992	5.56
265.209	-10.59
265.426	9.85
265.643	13.96
265.86	30.01
266.077	40.73
266.294	35.28
266.51	20.68
266.727	20.15
266.944	7.7
267.161	7.1
267.378	11.66
267.595	30.35
267.812	11.45
268.028	3.81
268.245	21.55
268.462	7.26
268.679	3.92
268.896	39.46
269.112	45.65
269.329	37.32
269.546	44.5
269.763	36.21
269.979	10.8
270.196	9.43
270.413	-14.31
270.629	-44.9
270.846	-54.68
271.063	-39.51
271.279	-70.47
271.496	-71.77
271.712	-35.47
271.929	-26.41
272.146	-28.13
272.362	-17.91
272.579	30.78
272.795	47.97
273.012	53.14
273.228	41.74
273.445	41.05
273.661	5.92
273.878	-52.17
274.094	-49.14
274.311	-67.48
274.527	-7.26
274.744	-7.74
274.96	4.24
275.177	12.93
275.393	30.23
275.609	27.45
275.826	37.06
276.042	30.04
276.259	12.23
276.475	24.35
276.691	9.93
276.908	-1.35
277.124	15.43
277.34	20.88
277.557	4.45
277.773	-3.11
277.989	-14.79
278.205	-19.53
278.422	-4.13
278.638	-2.28
278.854	20.45
279.07	42
279.286	36.06
279.503	2.68
279.719	7.81
279.935	-26.78
280.151	-46.17
280.367	-21.91
280.583	-26.61
280.799	-39.48
281.016	-54.36
281.232	-20.53
281.448	-28.63
281.664	-3.72
281.88	-39.37
282.096	-9.96
282.312	14.31
282.528	16.84
282.744	10.66
282.96	32.73
283.176	23.02
283.392	4.94
283.608	4.27
283.824	11.12
284.04	19.41
284.256	20.87
284.471	18.97
284.687	23.37
284.903	48.2
285.119	64.18
285.335	46.13
285.551	65.49
285.767	46.7
285.982	13.23
286.198	-10.63
286.414	43.13
286.63	27.52
286.846	48.55
287.061	30.61
287.277	52.35
287.493	22.14
287.709	41.59
287.924	26.78
288.14	63.76
288.356	44
288.571	63.85
288.787	44.5
289.003	36.2
289.218	16.48
289.434	-7.08
289.65	-4.1
289.865	-0.54
290.081	36.95
290.296	36.58
290.512	48.58
290.727	16.45
290.943	3.17
291.159	-23.15
291.374	-21.33
291.59	-35.68
291.805	-24.39
292.021	-13.36
292.236	-1.66
292.451	8.14
292.667	23
292.882	47.05
293.098	47.18
293.313	26.78
293.529	-2.95
293.744	-24.82
293.959	-43.36
294.175	-34.2
294.39	14.12
294.605	30.54
294.821	56.57
295.036	69.61
295.251	70.02
295.467	20.47
295.682	12.5
295.897	-39.06
296.112	-66.05
296.328	-61.1
296.543	-55.44
296.758	-62.97
296.973	-29.25
297.188	7.98
297.404	-15.29
297.619	-15.24
297.834	-12.94
298.049	-18.73
298.264	-47.53
298.479	1.86
298.694	1.43
298.909	20.1
299.125	20.12
299.34	29.4
299.555	2.34
299.77	22.32
299.985	-27.59
300.2	-72.12
300.415	-71.75
300.63	-42.69
300.845	-62.44
301.06	-55.61
301.275	-8.92
301.49	-2.97
301.704	-16
301.919	-16.93
302.134	-18.65
302.349	-22.83
302.564	-72.79
302.779	-64.06
302.994	-52.51
303.209	-29.06
303.423	-29.92
303.638	21.07
303.853	-13.43
304.068	-14.58
304.283	-14.83
304.497	-13.5
304.712	-16.56
304.927	4.56
305.142	-2.43
305.356	6.87
305.571	10.9
305.786	-3.77
306	-23.79
306.215	0.07
306.43	-17.27
306.644	-11.15
306.859	24.36
307.074	37.89
307.288	-3.01
307.503	-17.28
307.717	-22.34
307.932	-35.78
308.147	-42.17
308.361	-24.32
308.576	-7.21
308.79	-31.41
309.005	-24.67
309.219	-10.32
309.434	-7.14
309.648	-25.69
309.863	-4.67
310.077	12.57
310.292	16.47
310.506	15.26
310.72	29.1
310.935	26.39
311.149	15.49
311.364	23.99
311.578	29.75
311.792	20.74
312.007	36.29
312.221	19.11
312.435	10.02
312.649	3.99
312.864	33.21
313.078	18.15
313.292	90.01
313.507	100.21
313.721	139.76
313.935	70.82
314.149	72.14
314.363	49.61
314.578	51.33
314.792	35.06
315.006	12.14
315.22	17.95
315.434	15.11
315.648	18.61
315.862	13.53
316.077	18.23
316.291	8.44
316.505	4.68
316.719	-3.14
316.933	21.44
317.147	33.54
317.361	-15.9
317.575	-27.35
317.789	-52.34
318.003	-127.9
318.217	-105.97
318.431	-28.15
318.645	0.26
318.859	0.67
319.073	37.3
319.287	29.03
319.5	6.02
319.714	-26.73
319.928	-36.17
320.142	-70.32
320.356	-37.01
320.57	23.74
320.784	32.44
320.997	15.1
321.211	6.49
321.425	-38.32
321.639	-77.93
321.853	-39.83
322.066	-2.39
322.28	-3.72
322.494	7.84
322.707	24.28
322.921	21.36
323.135	4.77
323.349	10.42
323.562	-12.63
323.776	-32.98
323.989	-28.51
324.203	-40.36
324.417	-44.99
324.63	-34.82
324.844	-40.16
325.057	-49.55
325.271	-18.75
325.485	-2.53
325.698	17.25
325.912	41.81
326.125	17.42
326.339	10.65
326.552	9.4
326.766	16.68
326.979	17.29
327.193	50.08
327.406	26.02
327.619	21.89
327.833	20.09
328.046	-11.53
328.26	-34.7
328.473	9.63
328.686	-4.46
328.9	1.29
329.113	26.08
329.326	18.71
329.54	4.66
329.753	-11.61
329.966	-36.17
330.179	-5.35
330.393	16.45
330.606	29.31
330.819	49.35
331.032	61.93
331.246	45.31
331.459	56.37
331.672	42.99
331.885	32.35
332.098	1.57
332.311	-5.64
332.525	-41.6
332.738	-25.64
332.951	21.22
333.164	46.23
333.377	59.61
333.59	76.76
333.803	78.27
334.016	50.6
334.229	47.93
334.442	54.27
334.655	55.45
334.868	55.34
335.081	50.1
335.294	38.38
335.507	26.84
335.72	20.11
335.933	1.94
336.146	0.44
336.359	9.27
336.572	-18.03
336.785	-40.96
336.997	-28.21
337.21	-9.22
337.423	-21.38
337.636	-12.25
337.849	14.09
338.062	2.71
338.274	6.54
338.487	13.39
338.7	18.39
338.913	-22.09
339.125	-24.3
339.338	-48.94
339.551	-19.42
339.763	14.98
339.976	30.16
340.189	49
340.402	53.61
340.614	31.68
340.827	22.43
341.039	10.43
341.252	7.75
341.465	10.25
341.677	7.99
341.89	-36.85
342.102	-5.5
342.315	-27.99
342.527	-59.64
342.74	-45.27
342.952	2.16
343.165	-2.65
343.377	24.87
343.59	27.68
343.802	35.59
344.015	34.34
344.227	51.52
344.44	44.82
344.652	48.12
344.864	44.02
345.077	36.25
345.289	33.41
345.502	28.5
345.714	25.05
345.926	27.94
346.139	24.73
346.351	31.87
346.563	37.18
346.775	42.11
346.988	32.01
347.2	32.93
347.412	-21.03
347.624	-36.56
347.837	-69.8
348.049	-62.44
348.261	-34.79
348.473	-15.22
348.685	-12.66
348.897	0.58
349.11	-1.83
349.322	-25.06
349.534	-0.15
349.746	-5.62
349.958	-8.15
350.17	-16.37
350.382	18.23
350.594	9.94
350.806	7.27
351.018	9.46
351.23	-9.21
351.442	-68.18
351.654	-69.33
351.866	-40.1
352.078	-12.79
352.29	21.29
352.502	37.17
352.714	38.86
352.926	24
353.138	14.33
353.35	-0.2
353.561	-14.49
353.773	-32.82
353.985	-7.28
354.197	-11.25
354.409	-3.31
354.621	2.5
354.832	21.72
355.044	2.16
355.256	-2.3
355.468	4.21
355.679	3.2
355.891	7.87
356.103	3.36
356.314	9.13
356.526	3.69
356.738	6.56
356.949	-14.58
357.161	-4.03
357.373	-2.2
357.584	-9.97
357.796	9.86
358.008	-1.55
358.219	17.21
358.431	11.91
358.642	22.63
358.854	5.12
359.065	7.81
359.277	-24.49
359.488	-29.44
359.7	-57.42
359.911	-59.67
360.123	-46.78
360.334	-60.76
360.546	-65.16
360.757	-54.86
360.969	-52.91
361.18	-40.08
361.391	-8.42
361.603	-26.71
361.814	-8.38
362.025	-14.19
362.237	-12.05
362.448	-8.32
362.659	17.44
362.871	11.85
363.082	28.55
363.293	28.87
363.504	26.73
363.716	7.32
363.927	8.93
364.138	-11.74
364.349	-33.6
364.56	-26.31
364.772	-18.02
364.983	-15.64
365.194	-7.36
365.405	7.9
365.616	22.86
365.827	28.12
366.038	26.83
366.25	19.9
366.461	-4.02
366.672	-1.31
366.883	5.59
367.094	7.3
367.305	-7.82
367.516	-1.35
367.727	-30.61
367.938	-41.39
368.149	-44.01
368.36	-26.75
368.571	-17.76
368.781	-27.16
368.992	-36.81
369.203	-53.93
369.414	-73.19
369.625	-80.27
369.836	-69.51
370.047	-86.16
370.258	-63.56
370.468	-53.4
370.679	-59.45
370.89	-48.79
371.101	-27.93
371.312	-26.56
371.522	-17.69
371.733	-16.81
371.944	-3.71
372.155	2.45
372.365	-4.49
372.576	-9.95
372.787	-2.66
372.997	-28.4
373.208	-14.74
373.419	4.27
373.629	-13.29
373.84	-18.71
374.05	-21.82
374.261	-26.48
374.472	-30.29
374.682	19.14
374.893	21.07
375.103	46.44
375.314	35.81
375.524	30.59
375.735	17.03
375.945	35.51
376.156	16.36
376.366	15.97
376.577	12.26
376.787	1.32
376.997	-8.39
377.208	-5.39
377.418	-15.94
377.629	-11.55
377.839	-13.59
378.049	-14.26
378.26	-3.1
378.47	10.24
378.68	4.43
378.89	10.59
379.101	11.21
379.311	-8.92
379.521	-38.22
379.732	-30.41
379.942	-48.22
380.152	-61.6
380.362	-28.27
380.572	-17.3
380.783	-0.73
380.993	17.63
381.203	25.36
381.413	24.21
381.623	34.29
381.833	30.29
382.043	15.18
382.253	15.06
382.463	9.17
382.674	1.94
382.884	-23.65
383.094	-10.63
383.304	-9.67
383.514	-11.36
383.724	-5.46
383.934	-1.04
384.144	-17.17
384.353	-31.01
384.563	-23.02
384.773	-23.45
384.983	-30.23
385.193	-9.46
385.403	0.87
385.613	1.62
385.823	-9.72
386.033	-5.12
386.242	-14.28
386.452	-18.82
386.662	-24.49
386.872	-6.67
387.082	-6.77
387.291	-10.01
387.501	-7.95
387.711	-4.36
387.921	-12.52
388.13	-9.48
388.34	-0.15
388.55	-4.99
388.759	-9.36
388.969	-5.75
389.179	-9.19
389.388	-12.12
389.598	-5.68
389.807	-8.8
390.017	-10.74
390.227	-8.27
390.436	-9.35
390.646	-5.8
390.855	-2.1
391.065	-1.95
391.274	-2.9
391.484	-2.66
391.693	-1.4
391.903	0.55
392.112	5.62
392.322	7.45
392.531	9.42
392.74	5.71
392.95	1.47
393.159	-0.4
393.369	-1.05
393.578	-1.52
393.787	-2.64
393.997	-0.26
394.206	-2.97
394.415	-3.25
394.625	-3.25
394.834	-4.04
395.043	-3.28
395.252	-0.85
395.462	0.79
395.671	0.66
395.88	1.55
396.089	1.62
396.298	0.59
396.508	-0.12
396.717	0.03
396.926	0.93
397.135	0.38
397.344	-0.09
397.553	0.29
397.762	1.47
397.971	0.92
398.181	0.92
398.39	0.84
398.599	0.85
398.808	0.69
399.017	1.68
399.226	2.74
399.435	3.64
399.644	3.81
399.853	2.64
400.062	2.23
400.27	1.64
400.479	1.09
400.688	0.42
400.897	0.92
401.106	0.67
401.315	0.61
401.524	0.75
401.733	1.45
401.941	1.98
402.15	2.39
402.359	2.31
402.568	2.62
402.777	2.52
402.985	2.2
403.194	1.92
403.403	1.98
403.612	1.56
403.82	1.22
404.029	1.16
404.238	1.2
404.446	1.49
404.655	1.37
404.864	1.6
405.072	1.43
405.281	1.58
405.489	1.28
405.698	1.3
405.906	1.15
406.115	1.23
406.324	1.11
406.532	1.21
406.741	1.58
406.949	1.55
407.158	1.52
407.366	1.58
407.574	1.61
407.783	1.52
407.991	1.45
408.2	1.65
408.408	1.62
408.617	1.43
408.825	1.29
409.033	1.45
409.242	1.4
409.45	1.48
409.658	1.39
409.867	1.59
410.075	1.57
410.283	1.49
410.491	1.46
410.7	1.43
410.908	1.43
411.116	1.55
411.324	1.62
411.533	1.44
411.741	1.78
411.949	1.6
412.157	1.31
412.365	1.33
412.573	1.47
412.781	1.45
412.99	1.44
413.198	1.73
413.406	1.57
413.614	1.5
413.822	1.39
414.03	1.42
414.238	1.13
414.446	1.29
414.654	1.15
414.862	1.13
415.07	1.1
415.278	1.32
415.486	1.13
415.694	1.22
415.902	1.14
416.109	1.14
416.317	1.08
416.525	0.93
416.733	1
416.941	1.14
417.149	1.03
417.357	1.09
417.564	1.45
417.772	1.59
417.98	1.51
418.188	1.62
418.395	1.55
418.603	1.49
418.811	1.15
419.019	1.05
419.226	1.25
419.434	1.39
419.642	1.17
419.849	1.33
420.057	1.41
420.265	1.28
420.472	1.1
420.68	1.2
420.887	1.2
421.095	1.2
421.302	1.16
421.51	1.38
421.717	1.56
421.925	1.65
422.132	1.53
422.34	1.38
422.547	1.31
422.755	1.2
422.962	1.02
423.17	1.08
423.377	1.1
423.585	1.14
423.792	1.08
423.999	1.22
424.207	1.13
424.414	1.31
424.621	1.23
424.829	1.17
425.036	1.12
425.243	1.36
425.451	1.37
425.658	1.11
425.865	1.24
426.072	1.27
426.28	1.4
426.487	1.2
426.694	1.33
426.901	1.14
427.108	1.13
427.315	0.89
427.523	1.22
427.73	1.29
427.937	1.32
428.144	1.15
428.351	1.12
428.558	1.1
428.765	1.05
428.972	1.04
429.179	1.28
429.386	1.56
429.593	1.32
429.8	1.28
430.007	1.3
430.214	1.35
430.421	1.11
430.628	1
430.835	0.98
431.042	1.16
431.249	1.18
431.456	1.16
431.662	1.27
431.869	1.44
432.076	1.36
432.283	1.34
432.49	1.36
432.697	1.31
432.903	1
433.11	0.97
433.317	1.06
433.524	1.2
433.73	1.2
433.937	1.47
434.144	1.41
434.35	1.28
434.557	1.07
434.764	1.14
434.97	1.04
435.177	1.2
435.384	1.09
435.59	1.23
435.797	1.39
436.003	1.39
436.21	1.38
436.416	1.55
436.623	1.48
436.829	1.44
437.036	1.57
437.242	1.61
437.449	1.52
437.655	1.55
437.862	1.57
438.068	1.43
438.275	1.39
438.481	1.6
438.687	1.59
438.894	1.47
439.1	1.43
439.307	1.54
439.513	1.4
439.719	1.35
439.926	1.52
440.132	1.59
440.338	1.37
440.544	1.52
440.751	1.52
440.957	1.51
441.163	1.44
441.369	1.59
441.575	1.34
441.782	1.43
441.988	1.29
442.194	1.31
442.4	1.2
442.606	1.51
442.812	1.58
443.018	1.62
443.224	1.68
443.431	1.83
443.637	1.47
443.843	1.32
444.049	1.33
444.255	1.25
444.461	1.26
444.667	1.3
444.873	1.44
445.079	1.47
445.284	1.66
445.49	1.43
445.696	1.34
445.902	1.18
446.108	1.14
446.314	0.97
446.52	1.05
446.726	1.29
446.931	1.4
447.137	1.38
447.343	1.43
447.549	1.41
447.755	1.26
447.96	1.2
448.166	1.14
448.372	1.07
448.578	1.11
448.783	1.17
448.989	1.28
449.195	1.51
449.4	1.53
449.606	1.48
449.812	1.39
450.017	1.37
450.223	1.24
450.428	1.22
450.634	1.42
450.84	1.57
451.045	1.48
451.251	1.45
451.456	1.69
451.662	1.58
451.867	1.67
452.073	1.72
452.278	1.82
452.483	1.85
452.689	1.85
452.894	1.83
453.1	1.8
453.305	1.66
453.51	1.5
453.716	1.44
453.921	1.41
454.127	1.37
454.332	1.3
454.537	1.22
454.742	1.27
454.948	1.24
455.153	1.25
455.358	1.41
455.563	1.57
455.769	1.59
455.974	1.52
456.179	1.48
456.384	1.43
456.589	1.33
456.795	1.14
457	1.13
457.205	1.39
457.41	1.38
457.615	1.35
457.82	1.44
458.025	1.47
458.23	1.27
458.435	1.3
458.64	1.26
458.845	1.47
459.05	1.48
459.255	1.48
459.46	1.5
459.665	1.52
459.87	1.48
460.075	1.43
460.28	1.56
460.485	1.58
460.69	1.64
460.895	1.48
461.099	1.45
461.304	1.51
461.509	1.47
461.714	1.44
461.919	1.56
462.123	1.5
462.328	1.46
462.533	1.43
462.738	1.51
462.942	1.5
463.147	1.61
463.352	1.62
463.556	1.65
463.761	1.61
463.966	1.59
464.17	1.59
464.375	1.48
464.58	1.47
464.784	1.44
464.989	1.36
465.193	1.34
465.398	1.39
465.602	1.5
465.807	1.45
466.011	1.54
466.216	1.53
466.42	1.5
466.625	1.53
466.829	1.62
467.034	1.54
467.238	1.76
467.443	1.77
467.647	1.6
467.851	1.64
468.056	1.79
468.26	1.65
468.464	1.65
468.669	1.8
468.873	1.96
469.077	1.91
469.282	2.01
469.486	2.04
469.69	1.96
469.894	1.76
470.099	1.75
470.303	1.77
470.507	1.71
470.711	1.63
470.915	1.6
471.119	1.53
471.324	1.39
471.528	1.41
471.732	1.52
471.936	1.57
472.14	1.66
472.344	1.71
472.548	1.68
472.752	1.85
472.956	1.97
473.16	1.92
473.364	1.84
473.568	1.94
473.772	1.86
473.976	1.73
474.18	1.74
474.384	1.85
474.588	1.78
474.792	1.7
474.995	1.78
475.199	1.86
475.403	1.88
475.607	1.88
475.811	1.8
476.015	1.79
476.218	1.79
476.422	1.71
476.626	1.78
476.83	1.87
477.033	1.8
477.237	1.67
477.441	1.7
477.644	1.71
477.848	1.69
478.052	1.69
478.255	1.78
478.459	1.79
478.663	1.84
478.866	1.92
479.07	1.96
479.273	2.07
479.477	2.14
479.681	2.09
479.884	2.02
480.088	1.96
480.291	1.88
480.495	1.84
480.698	1.85
480.901	1.91
481.105	2.03
481.308	2.04
481.512	2.05
481.715	2.04
481.919	2.09
482.122	2.06
482.325	1.99
482.529	1.96
482.732	2.02
482.935	1.91
483.138	1.86
483.342	2.01
483.545	2.09
483.748	2.08
483.952	2.11
484.155	2.22
484.358	2.17
484.561	2.15
484.764	2.11
484.967	2.22
485.171	2.24
485.374	2.21
485.577	2.25
485.78	2.29
485.983	2.24
486.186	2.12
486.389	2.09
486.592	2.06
486.795	2.07
486.998	2.06
487.201	2.13
487.404	2.21
487.607	2.29
487.81	2.3
488.013	2.38
488.216	2.41
488.419	2.37
488.622	2.3
488.825	2.2
489.028	2.1
489.231	2.02
489.433	2
489.636	1.93
489.839	1.99
490.042	1.94
490.245	2
490.447	2.04
490.65	2.06
490.853	2.02
491.056	2.07
491.258	2.04
491.461	2.04
491.664	2.13
491.866	2.08
492.069	2.17
492.272	2.13
492.474	2.16
492.677	2.16
492.879	2.29
493.082	2.29
493.285	2.39
493.487	2.34
493.69	2.28
493.892	2.23
494.095	2.19
494.297	2.16
494.5	2.18
494.702	2.14
494.905	2.16
495.107	2.15
495.309	2.15
495.512	2.18
495.714	2.27
495.917	2.29
496.119	2.32
496.321	2.36
496.524	2.38
496.726	2.4
496.928	2.4
497.13	2.34
497.333	2.29
497.535	2.31
497.737	2.28
497.939	2.28
498.142	2.34
498.344	2.3
498.546	2.21
498.748	2.29
498.95	2.38
499.152	2.36
499.355	2.45
499.557	2.54
499.759	2.5
499.961	2.4
500.163	2.47
500.365	2.42
500.567	2.49
500.769	2.45
500.971	2.52
501.173	2.44
501.375	2.49
501.577	2.4
501.779	2.4
501.981	2.38
502.183	2.38
502.385	2.33
502.587	2.28
502.788	2.37
502.99	2.4
503.192	2.49
503.394	2.47
503.596	2.47
503.798	2.55
503.999	2.57
504.201	2.5
504.403	2.58
504.605	2.7
504.806	2.59
505.008	2.54
505.21	2.63
505.411	2.64
505.613	2.55
505.815	2.52
506.016	2.62
506.218	2.68
506.42	2.65
506.621	2.71
506.823	2.78
507.024	2.67
507.226	2.57
507.427	2.6
507.629	2.61
507.83	2.61
508.032	2.63
508.233	2.7
508.435	2.71
508.636	2.75
508.838	2.73
509.039	2.78
509.24	2.75
509.442	2.77
509.643	2.69
509.845	2.69
510.046	2.71
510.247	2.76
510.448	2.73
510.65	2.84
510.851	2.92
511.052	2.92
511.254	2.88
511.455	2.97
511.656	2.99
511.857	3
512.058	3
512.26	3.01
512.461	2.94
512.662	2.94
512.863	2.89
513.064	2.89
513.265	2.87
513.466	2.91
513.667	2.89
513.868	2.89
514.069	2.97
514.27	3.05
514.471	3
514.672	3
514.873	3.03
515.074	3.02
515.275	2.88
515.476	2.95
515.677	2.95
515.878	3.04
516.079	3
516.28	3.08
516.481	3.12
516.682	3.09
516.882	2.96
517.083	2.97
517.284	2.93
517.485	2.86
517.686	2.91
517.886	2.91
518.087	2.99
518.288	3.06
518.488	3.09
518.689	3.07
518.89	3.05
519.091	2.98
519.291	2.96
519.492	3.01
519.692	3.04
519.893	3.12
520.094	3.15
520.294	3.13
520.495	3.08
520.695	3.11
520.896	3.11
521.096	3.1
521.297	3.15
521.497	3.14
521.698	3.06
521.898	3.05
522.099	3.04
522.299	3.1
522.499	3.15
522.7	3.17
522.9	3.18
523.101	3.28
523.301	3.26
523.501	3.23
523.702	3.28
523.902	3.36
524.102	3.37
524.302	3.31
524.503	3.37
524.703	3.36
524.903	3.34
525.103	3.27
525.304	3.39
525.504	3.41
525.704	3.45
525.904	3.43
526.104	3.43
526.304	3.39
526.504	3.38
526.705	3.38
526.905	3.44
527.105	3.42
527.305	3.39
527.505	3.34
527.705	3.35
527.905	3.3
528.105	3.34
528.305	3.33
528.505	3.34
528.705	3.41
528.905	3.39
529.105	3.41
529.304	3.48
529.504	3.53
529.704	3.46
529.904	3.48
530.104	3.49
530.304	3.51
530.503	3.47
530.703	3.43
530.903	3.46
531.103	3.48
531.303	3.45
531.502	3.48
531.702	3.6
531.902	3.62
532.101	3.57
532.301	3.57
532.501	3.56
532.7	3.52
532.9	3.51
533.1	3.55
533.299	3.58
533.499	3.65
533.698	3.63
533.898	3.63
534.097	3.61
534.297	3.71
534.496	3.69
534.696	3.74
534.895	3.8
535.095	3.89
535.294	3.81
535.494	3.77
535.693	3.79
535.892	3.79
536.092	3.68
536.291	3.64
536.491	3.73
536.69	3.78
536.889	3.72
537.088	3.77
537.288	3.88
537.487	3.9
537.686	3.83
537.886	3.9
538.085	3.96
538.284	4.02
538.483	3.99
538.682	4.06
538.882	4.08
539.081	4.08
539.28	3.95
539.479	3.97
539.678	3.95
539.877	4.01
540.076	4.01
540.275	4.1
540.474	4.15
540.673	4.19
540.872	4.14
541.071	4.16
541.27	4.15
541.469	4.22
541.668	4.25
541.867	4.32
542.066	4.4
542.265	4.46
542.464	4.41
542.663	4.42
542.862	4.51
543.06	4.49
543.259	4.49
543.458	4.5
543.657	4.54
543.856	4.52
544.054	4.54
544.253	4.53
544.452	4.55
544.651	4.58
544.849	4.54
545.048	4.62
545.247	4.68
545.445	4.75
545.644	4.75
545.843	4.78
546.041	4.79
546.24	4.85
546.438	4.92
546.637	4.97
546.836	5.11
547.034	5.19
547.233	5.22
547.431	5.15
547.63	5.19
547.828	5.12
548.027	5.12
548.225	5.11
548.423	5.16
548.622	5.2
548.82	5.2
549.019	5.24
549.217	5.34
549.415	5.39
549.614	5.4
549.812	5.44
550.01	5.39
550.209	5.38
550.407	5.47
550.605	5.46
550.803	5.56
551.002	5.67
551.2	5.76
551.398	5.81
551.596	5.94
551.794	5.95
551.993	5.97
552.191	5.98
552.389	6.07
552.587	6.11
552.785	6.17
552.983	6.25
553.181	6.35
553.379	6.34
553.577	6.38
553.775	6.49
553.973	6.55
554.171	6.58
554.369	6.6
554.567	6.61
554.765	6.59
554.963	6.6
555.161	6.59
555.359	6.69
555.557	6.84
555.755	6.94
555.952	7.07
556.15	7.14
556.348	7.16
556.546	7.24
556.744	7.23
556.941	7.23
557.139	7.37
557.337	7.4
557.535	7.39
557.732	7.52
557.93	7.63
558.128	7.65
558.325	7.75
558.523	7.77
558.721	7.87
558.918	7.83
559.116	7.89
559.313	7.93
559.511	8.07
559.708	8.07
559.906	8.19
560.104	8.24
560.301	8.37
560.498	8.36
560.696	8.42
560.893	8.5
561.091	8.59
561.288	8.67
561.486	8.73
561.683	8.81
561.88	8.86
562.078	8.94
562.275	8.94
562.473	9.09
562.67	9.22
562.867	9.39
563.064	9.43
563.262	9.43
563.459	9.42
563.656	9.48
563.853	9.46
564.051	9.54
564.248	9.71
564.445	9.86
564.642	9.89
564.839	10
565.036	10.16
565.234	10.27
565.431	10.35
565.628	10.41
565.825	10.5
566.022	10.5
566.219	10.54
566.416	10.63
566.613	10.67
566.81	10.71
567.007	10.71
567.204	10.73
567.401	10.69
567.598	10.81
567.795	10.81
567.991	10.88
568.188	11
568.385	11.16
568.582	11.16
568.779	11.25
568.976	11.32
569.172	11.4
569.369	11.31
569.566	11.42
569.763	11.41
569.96	11.49
570.156	11.43
570.353	11.49
570.55	11.5
570.746	11.53
570.943	11.53
571.14	11.52
571.336	11.6
571.533	11.71
571.729	11.78
571.926	11.85
572.123	12
572.319	12.08
572.516	12.01
572.712	12.08
572.909	12.08
573.105	12.11
573.302	12.13
573.498	12.25
573.695	12.24
573.891	12.26
574.087	12.29
574.284	12.28
574.48	12.21
574.677	12.24
574.873	12.26
575.069	12.35
575.266	12.4
575.462	12.45
575.658	12.57
575.854	12.75
576.051	12.72
576.247	12.72
576.443	12.72
576.639	12.69
576.835	12.57
577.032	12.5
577.228	12.66
577.424	12.75
577.62	12.72
577.816	12.74
578.012	12.84
578.208	12.74
578.404	12.75
578.6	12.79
578.796	12.92
578.993	12.97
579.189	12.98
579.384	12.86
579.58	12.76
579.776	12.7
579.972	12.63
580.168	12.54
580.364	12.63
580.56	12.72
580.756	12.59
580.952	12.55
581.148	12.63
581.343	12.67
581.539	12.71
581.735	12.84
581.931	12.86
582.127	12.94
582.322	12.9
582.518	12.89
582.714	12.84
582.909	12.81
583.105	12.68
583.301	12.68
583.496	12.72
583.692	12.66
583.888	12.63
584.083	12.72
584.279	12.75
584.474	12.67
584.67	12.76
584.866	12.82
585.061	12.77
585.257	12.82
585.452	12.82
585.648	12.75
585.843	12.86
586.039	12.9
586.234	12.8
586.429	12.81
586.625	12.95
586.82	12.86
587.015	12.89
587.211	12.87
587.406	12.9
587.601	12.82
587.797	12.77
587.992	12.74
588.187	12.86
588.383	12.87
588.578	12.86
588.773	12.98
588.968	13.03
589.163	13.06
589.359	13.01
589.554	13.02
589.749	12.96
589.944	12.98
590.139	12.99
590.334	13.06
590.529	13.07
590.724	13.18
590.919	13.24
591.114	13.2
591.309	13.31
591.504	13.39
591.699	13.35
591.894	13.44
592.089	13.43
592.284	13.39
592.479	13.43
592.674	13.43
592.869	13.41
593.064	13.56
593.259	13.73
593.454	13.81
593.648	13.92
593.843	13.85
594.038	13.86
594.233	13.71
594.428	13.71
594.622	13.71
594.817	13.92
595.012	13.96
595.206	14.06
595.401	14.11
595.596	14.19
595.79	14.2
595.985	14.32
596.18	14.45
596.374	14.53
596.569	14.61
596.763	14.57
596.958	14.56
597.153	14.66
597.347	14.66
597.542	14.78
597.736	14.84
597.931	14.87
598.125	14.87
598.319	15
598.514	14.92
598.708	15.05
598.903	15.08
599.097	15.11
599.291	15.13
599.486	15.24
599.68	15.21
599.874	15.31
600.069	15.29
600.263	15.24
600.457	15.37
600.651	15.42
600.846	15.49
601.04	15.58
601.234	15.64
601.428	15.7
601.622	15.78
601.817	15.73
602.011	15.78
602.205	15.82
602.399	15.74
602.593	15.74
602.787	15.81
602.981	15.78
603.175	15.81
603.369	15.74
603.563	15.81
603.757	15.82
603.951	15.87
604.145	15.84
604.339	15.92
604.533	15.77
604.727	15.72
604.921	15.66
605.115	15.7
605.309	15.72
605.502	15.72
605.696	15.7
605.89	15.63
606.084	15.54
606.278	15.45
606.471	15.48
606.665	15.43
606.859	15.41
607.053	15.4
607.246	15.4
607.44	15.36
607.634	15.25
607.827	15.31
608.021	15.21
608.214	15.17
608.408	15.04
608.602	14.99
608.795	14.81
608.989	14.78
609.182	14.65
609.376	14.63
609.569	14.59
609.763	14.48
609.956	14.32
610.15	14.28
610.343	14.2
610.537	14.17
610.73	14.15
610.923	14.21
611.117	14.18
611.31	14.19
611.504	14.17
611.697	14.16
611.89	14.04
612.083	13.94
612.277	13.87
612.47	13.73
612.663	13.74
612.856	13.7
613.05	13.67
613.243	13.6
613.436	13.52
613.629	13.32
613.822	13.22
614.015	13.09
614.209	12.9
614.402	12.9
614.595	12.96
614.788	12.93
614.981	12.91
615.174	12.86
615.367	12.76
615.56	12.65
615.753	12.6
615.946	12.5
616.139	12.51
616.332	12.59
616.525	12.55
616.718	12.55
616.911	12.53
617.103	12.55
617.296	12.46
617.489	12.37
617.682	12.29
617.875	12.27
618.067	12.18
618.26	12.03
618.453	12.07
618.646	12.02
618.838	11.99
619.031	12.05
619.224	12.02
619.417	11.95
619.609	12
619.802	11.96
619.994	11.91
620.187	11.99
620.38	11.97
620.572	11.86
620.765	11.88
620.957	11.78
621.15	11.64
621.342	11.62
621.535	11.73
621.727	11.63
621.92	11.66
622.112	11.63
622.305	11.65
622.497	11.5
622.69	11.57
622.882	11.54
623.074	11.6
623.267	11.5
623.459	11.46
623.651	11.34
623.844	11.33
624.036	11.33
624.228	11.34
624.42	11.3
624.613	11.41
624.805	11.32
624.997	11.32
625.189	11.27
625.381	11.31
625.574	11.22
625.766	11.16
625.958	11.07
626.15	11.17
626.342	11.07
626.534	11.07
626.726	11.1
626.918	11.12
627.11	10.96
627.302	10.99
627.494	10.91
627.686	10.89
627.878	10.84
628.07	10.9
628.262	10.91
628.454	10.99
628.646	11
628.838	11.04
629.029	10.95
629.221	11.01
629.413	10.87
629.605	10.74
629.797	10.66
629.989	10.68
630.18	10.54
630.372	10.59
630.564	10.66
630.755	10.7
630.947	10.73
631.139	10.68
631.33	10.61
631.522	10.65
631.714	10.6
631.905	10.53
632.097	10.48
632.289	10.54
632.48	10.48
632.672	10.44
632.863	10.33
633.055	10.35
633.246	10.36
633.438	10.28
633.629	10.29
633.821	10.39
634.012	10.4
634.203	10.29
634.395	10.37
634.586	10.35
634.777	10.27
634.969	10.24
635.16	10.27
635.351	10.15
635.543	10.22
635.734	10.17
635.925	10.23
636.117	10.26
636.308	10.28
636.499	10.17
636.69	10.17
636.881	10.09
637.073	10.12
637.264	10.06
637.455	10.11
637.646	10.23
637.837	10.26
638.028	10.14
638.219	10.26
638.41	10.2
638.601	10.07
638.792	10.08
638.983	10.12
639.174	10.06
639.365	10.11
639.556	10.09
639.747	10.05
639.938	10.04
640.129	9.95
640.32	9.9
640.511	9.97
640.701	10.07
640.892	9.96
641.083	10.11
641.274	10.16
641.465	10.13
641.655	9.97
641.846	10.05
642.037	9.91
642.228	9.88
642.418	9.85
642.609	9.92
642.8	9.89
642.99	9.83
643.181	9.85
643.372	9.98
643.562	9.94
643.753	9.94
643.943	9.96
644.134	9.87
644.324	9.72
644.515	9.66
644.705	9.78
644.896	9.8
645.086	9.87
645.277	9.81
645.467	9.79
645.658	9.69
645.848	9.73
646.038	9.68
646.229	9.72
646.419	9.65
646.61	9.56
646.8	9.46
646.99	9.34
647.18	9.23
647.371	9.26
647.561	9.24
647.751	9.27
647.941	9.28
648.132	9.31
648.322	9.36
648.512	9.42
648.702	9.4
648.892	9.45
649.082	9.5
649.272	9.29
649.462	9.22
649.653	9.14
649.843	9.09
650.033	9.08
650.223	9.18
650.413	9.07
650.603	9.16
650.793	9.2
650.983	9.06
651.172	8.97
651.362	9
651.552	8.89
651.742	8.79
651.932	8.87
652.122	8.94
652.312	9.06
652.502	9.01
652.691	9
652.881	8.95
653.071	8.81
653.261	8.62
653.45	8.46
653.64	8.34
653.83	8.19
654.019	8.21
654.209	8.1
654.399	8.2
654.588	8.16
654.778	8.14
654.968	8.03
655.157	8.04
655.347	7.91
655.536	7.8
655.726	7.69
655.915	7.49
656.105	7.33
656.294	7.33
656.484	7.25
656.673	7.22
656.863	7.23
657.052	7.11
657.241	6.89
657.431	6.77
657.62	6.57
657.809	6.4
657.999	6.31
658.188	6.22
658.377	6.04
658.567	6.01
658.756	5.91
658.945	5.84
659.134	5.69
659.324	5.63
659.513	5.45
659.702	5.36
659.891	5.26
660.08	5.19
660.269	5.16
660.458	5.11
660.648	5.01
660.837	4.91
661.026	4.88
661.215	4.74
661.404	4.61
661.593	4.61
661.782	4.46
661.971	4.47
662.16	4.43
662.349	4.46
662.538	4.35
662.726	4.33
662.915	4.16
663.104	4.05
663.293	4.01
663.482	4.03
663.671	4.07
663.86	3.97
664.048	4.01
664.237	3.97
664.426	3.77
664.615	3.73
664.803	3.72
664.992	3.55
665.181	3.4
665.369	3.42
665.558	3.34
665.747	3.34
665.935	3.54
666.124	3.7
666.312	3.78
666.501	3.77
666.69	3.74
666.878	3.71
667.067	3.54
667.255	3.59
667.444	3.76
667.632	3.84
667.82	3.89
668.009	4
668.197	3.96
668.386	3.87
668.574	3.93
668.762	3.85
668.951	3.78
669.139	3.8
669.327	3.65
669.516	3.7
669.704	3.72
669.892	3.88
670.08	3.83
670.269	3.88
670.457	3.73
670.645	3.62
670.833	3.78
671.021	3.88
671.21	4.04
671.398	4.27
671.586	4.33
671.774	4.16
671.962	4.13
672.15	4.19
672.338	4.09
672.526	4.2
672.714	4.14
672.902	4.23
673.09	4.33
673.278	4.45
673.466	4.44
673.654	4.64
673.842	4.66
674.03	4.62
674.218	4.64
674.405	4.71
674.593	4.75
674.781	4.82
674.969	4.86
675.157	4.95
675.344	5.08
675.532	5.09
675.72	5.16
675.908	5.25
676.095	5.21
676.283	5.27
676.471	5.38
676.658	5.48
676.846	5.51
677.033	5.64
677.221	5.7
677.409	5.53
677.596	5.55
677.784	5.63
677.971	5.61
678.159	5.66
678.346	5.86
678.534	5.92
678.721	6.16
678.909	6.16
679.096	6.14
679.283	6.39
679.471	6.38
679.658	6.3
679.846	6.51
680.033	6.81
680.22	6.8
680.408	6.95
680.595	7.01
680.782	6.94
680.969	6.96
681.157	6.98
681.344	6.97
681.531	7
681.718	7.12
681.905	7.13
682.093	7.3
682.28	7.52
682.467	7.81
682.654	7.94
682.841	8.01
683.028	8.11
683.215	8.2
683.402	8.03
683.589	8.26
683.776	8.43
683.963	8.37
684.15	8.47
684.337	8.76
684.524	8.78
684.711	8.98
684.898	9.11
685.085	9.25
685.271	9.42
685.458	9.59
685.645	9.61
685.832	9.98
686.019	10.17
686.205	10.4
686.392	10.7
686.579	11.01
686.766	11.15
686.952	11.4
687.139	11.83
687.326	11.9
687.512	12.23
687.699	12.49
687.886	12.59
688.072	12.49
688.259	12.81
688.445	13.11
688.632	13.37
688.818	13.95
689.005	14.56
689.191	14.89
689.378	15.48
689.564	15.94
689.751	16.25
689.937	16.66
690.124	17.34
690.31	17.42
690.496	17.95
690.683	18.51
690.869	18.93
691.055	19.3
691.242	20.08
691.428	20.63
691.614	21.25
691.8	21.93
691.987	22.56
692.173	23.05
692.359	23.66
692.545	24.24
692.731	24.84
692.918	25.59
693.104	26.13
693.29	26.74
693.476	27.5
693.662	28
693.848	28.57
694.034	29.47
694.22	30.21
694.406	30.79
694.592	31.63
694.778	32.42
694.964	32.96
695.15	33.69
695.336	34.3
695.522	35.34
695.708	35.94
695.894	36.75
696.08	37.65
696.265	38.63
696.451	39.27
696.637	40.05
696.823	40.76
697.009	41.2
697.194	41.81
697.38	42.31
697.566	43.06
697.751	43.92
697.937	44.91
698.123	45.68
698.308	46.36
698.494	47.02
698.68	47.5
698.865	47.96
699.051	48.62
699.236	49.09
699.422	49.89
699.607	50.59
699.793	51.34
699.978	52.06
700.164	52.88
700.349	53.52
700.535	54.15
700.72	54.65
700.906	55.2
701.091	55.8
701.276	56.38
701.462	57.29
701.647	58.07
701.832	58.63
702.018	59.19
702.203	59.57
702.388	59.52
702.573	59.98
702.759	60.74
702.944	61.54
703.129	61.77
703.314	62.63
703.499	62.98
703.684	63.52
703.87	64.13
704.055	65.53
704.24	66.09
704.425	66.93
704.61	67.18
704.795	67.45
704.98	67.33
705.165	67.46
705.35	67.71
705.535	68.06
705.72	68.35
705.905	68.87
706.09	69.71
706.275	70
706.459	70.17
706.644	70.51
706.829	70.95
707.014	70.68
707.199	71.43
707.384	72
707.568	72.21
707.753	72.84
707.938	73.81
708.123	73.84
708.307	74.4
708.492	74.88
708.677	74.67
708.861	74.67
709.046	74.98
709.231	75.45
709.415	75.85
709.6	76.19
709.784	76.43
709.969	76.7
710.153	76.47
710.338	76.84
710.522	77.14
710.707	77.68
710.891	77.71
711.076	78.13
711.26	77.91
711.445	78.21
711.629	78.35
711.813	78.75
711.998	78.99
712.182	79.44
712.366	80.13
712.551	80.79
712.735	81.22
712.919	81.47
713.103	82.21
713.288	82.02
713.472	81.64
713.656	82.17
713.84	82.27
714.024	82.2
714.208	82.09
714.393	82.63
714.577	82.77
714.761	83.03
714.945	83.4
715.129	84.18
715.313	84.29
715.497	84.03
715.681	84.54
715.865	84.41
716.049	84.36
716.233	84.76
716.417	85.45
716.601	85.24
716.785	85.47
716.968	85.58
717.152	85.26
717.336	85.13
717.52	85.64
717.704	85.66
717.888	86.28
718.071	87.08
718.255	87.25
718.439	87.03
718.622	87.41
718.806	87.46
718.99	87.05
719.174	86.91
719.357	87.34
719.541	87.58
719.724	87.72
719.908	88.87
720.092	89.78
720.275	90.1
720.459	90.26
720.642	89.96
720.826	89.2
721.009	88.64
721.193	88.27
721.376	88.05
721.559	88.49
721.743	88.89
721.926	89.32
722.11	89.5
722.293	89.64
722.476	89.3
722.66	89.43
722.843	89.47
723.026	89.37
723.21	89.7
723.393	90.85
723.576	90.64
723.759	90.21
723.942	91.06
724.126	91.06
724.309	90.69
724.492	91.05
724.675	91.28
724.858	91.16
725.041	91.5
725.224	91.99
725.407	92.31
725.59	93.28
725.774	93.36
725.957	92.88
726.14	92.44
726.322	92.36
726.505	92.18
726.688	92.8
726.871	94
727.054	94.59
727.237	94.31
727.42	95.12
727.603	95.63
727.786	95.31
727.968	95.41
728.151	96.07
728.334	95.62
728.517	95.06
728.699	95.13
728.882	94.97
729.065	94.97
729.248	95.32
729.43	95.79
729.613	97.26
729.796	98.42
729.978	98.12
730.161	98.05
730.343	97.46
730.526	96.6
730.708	95.21
730.891	95.94
731.073	95.66
731.256	95.92
731.438	95.95
731.621	97.76
731.803	97.72
731.986	98.18
732.168	97.3
732.35	97.76
732.533	96.55
732.715	96.88
732.898	96.97
733.08	97.87
733.262	97.98
733.444	98.11
733.627	97.75
733.809	97.88
733.991	98.74
734.173	98
734.355	97.92
734.538	98.51
734.72	98.69
734.902	98.93
735.084	99.28
735.266	99.59
735.448	99.84
735.63	99.93
735.812	99.55
735.994	100.78
736.176	101.29
736.358	100.55
736.54	101.57
736.722	101.32
736.904	100.03
737.086	99.88
737.268	101.05
737.45	100
737.632	100.52
737.814	99.98
737.995	99.82
738.177	99.79
738.359	98.88
738.541	99.05
738.723	100.26
738.904	100.81
739.086	100.65
739.268	101.9
739.449	101.76
739.631	101.38
739.813	101.88
739.994	102.31
740.176	102.9
740.358	102.38
740.539	103.97
740.721	103.52
740.902	104.12
741.084	103.63
741.265	104.13
741.447	103.41
741.628	103.88
741.81	102.47
741.991	103.05
742.172	103.19
742.354	103.49
742.535	102.93
742.717	103.64
742.898	103.82
743.079	104.9
743.261	104.36
743.442	103.84
743.623	104.72
743.804	104.17
743.986	103.66
744.167	102.57
744.348	103.19
744.529	102.46
744.71	101.85
744.891	101.4
745.073	101.02
745.254	100.62
745.435	100.71
745.616	100.9
745.797	100.59
745.978	102.05
746.159	102.34
746.34	101.35
746.521	102.72
746.702	102.34
746.883	101.65
747.064	101.29
747.245	102.13
747.426	100.77
747.606	101.3
747.787	101.89
747.968	101.73
748.149	101.89
748.33	102.26
748.51	102.1
748.691	101.23
748.872	102.53
749.053	102.22
749.233	102.32
749.414	102.31
749.595	102.3
749.775	101.28
749.956	99.62
750.137	98.99
750.317	100.2
750.498	102.5
750.678	102.67
750.859	104.52
751.04	105.15
751.22	103.33
751.4	101.99
751.581	101.25
751.761	101.65
751.942	102.02
752.122	102.26
752.303	100.43
752.483	100.7
752.663	99.2
752.844	98.32
753.024	99.59
753.204	101.75
753.385	101.29
753.565	101.98
753.745	101.64
753.925	100.42
754.106	99.09
754.286	99.62
754.466	99.85
754.646	100.13
754.826	98.76
755.006	98.08
755.187	98.29
755.367	97.46
755.547	98.4
755.727	100.48
755.907	102.18
756.087	102.95
756.267	103.11
756.447	101.85
756.627	100.46
756.807	99.92
756.987	98.33
757.167	98.79
757.346	99.46
757.526	98.85
757.706	100.43
757.886	101.2
758.066	102
758.246	102.97
758.425	104.31
758.605	101.15
758.785	101.84
758.965	101.47
759.144	100.27
759.324	100.3
759.504	101.55
759.683	101.18
759.863	99.77
760.043	98.78
760.222	97.1
760.402	97.56
760.581	96.93
760.761	98.74
760.94	97.84
761.12	100.45
761.299	100.63
761.479	101.22
761.658	99.69
761.838	101.23
762.017	99.27
762.197	100.29
762.376	99.56
762.555	100.11
762.735	100.98
762.914	101.49
763.093	99.46
763.273	98.76
763.452	99.47
763.631	98.86
763.81	98.08
763.99	98.22
764.169	97.92
764.348	94.68
764.527	93.45
764.706	96.03
764.885	98.38
765.064	97.68
765.243	99.69
765.423	99.68
765.602	97.03
765.781	93.36
765.96	93.01
766.139	92.54
766.318	94.14
766.497	94.2
766.676	95.27
766.854	96.89
767.033	97.37
767.212	95.12
767.391	96.62
767.57	98.05
767.749	99.78
767.928	101.11
768.106	100.26
768.285	98.27
768.464	96.04
768.643	93.66
768.821	92.53
769	95.96
769.179	96.81
769.357	96.23
769.536	97.42
769.715	96.63
769.893	96.16
770.072	94.9
770.25	97.24
770.429	96.6
770.607	96.36
770.786	95.1
770.964	97.13
771.143	95.37
771.321	97.12
771.5	98.48
771.678	96.11
771.857	95.45
772.035	95.4
772.213	92.99
772.392	90.2
772.57	93.66
772.748	93.78
772.927	93.14
773.105	92.79
773.283	93.93
773.461	93.94
773.64	93.08
773.818	94.31
773.996	95.94
774.174	95.53
774.352	92.99
774.531	91.38
774.709	94.5
774.887	91.95
775.065	92.65
775.243	92.8
775.421	94.17
775.599	92.51
775.777	91.81
775.955	90.66
776.133	89.5
776.311	89.14
776.489	85.92
776.667	87.73
776.844	88.07
777.022	87.17
777.2	87.61
777.378	89.21
777.556	90.72
777.734	90.88
777.911	96.87
778.089	95.13
778.267	93.52
778.445	90.39
778.622	90.31
778.8	85.87
778.978	88.66
779.155	90.3
779.333	92.3
779.511	91.38
779.688	94.71
779.866	90.61
780.043	86.64
780.221	86.52
780.398	84.89
780.576	85.05
780.753	88.98
780.931	89.92
781.108	87.87
781.286	91.96
781.463	88.82
781.64	84.3
781.818	89.06
781.995	92.11
782.172	93.63
782.35	97.56
782.527	101.39
782.704	99.43
782.882	98.63
783.059	94.37
783.236	91.1
783.413	91.57
783.59	91.55
783.768	88.63
783.945	91.65
784.122	92.37
784.299	90.16
784.476	89.08
784.653	91.06
784.83	87.92
785.007	86.53
785.184	89.36
785.361	89.07
785.538	90.77
785.715	93.82
785.892	94.72
786.069	96.93
786.246	99.73
786.423	101.59
786.6	102.87
786.776	104.91
786.953	100.43
787.13	101.44
787.307	97.13
787.484	93.72
787.66	92.2
787.837	92.04
788.014	89.31
788.191	87.92
788.367	88.12
788.544	87.7
788.721	86.63
788.897	87.16
789.074	89.17
789.25	88.78
789.427	91.78
789.603	91.63
789.78	91.91
789.956	91.6
790.133	91
790.309	88.62
790.486	95.6
790.662	94.05
790.839	96.43
791.015	94.49
791.192	94.53
791.368	91.25
791.544	88.72
791.721	86.47
791.897	91.16
792.073	86.95
792.249	79.77
792.426	81.09
792.602	83.07
792.778	80.03
792.954	80.8
793.13	84.91
793.307	80.09
793.483	71.51
793.659	70.91
793.835	75.03
794.011	74.49
794.187	80.23
794.363	84.34
794.539	89.39
794.715	87.01
794.891	87.7
795.067	83.02
795.243	87.21
795.419	82.51
795.595	80.88
795.771	78.32
795.947	84.19
796.122	84.35
796.298	87.47
796.474	86.85
796.65	87.98
796.826	83.49
797.001	79.71
797.177	74
797.353	80.06
797.529	82.1
797.704	83.61
797.88	82.39
798.056	81.92
798.231	76.92
798.407	77.88
798.582	82.3
798.758	88.05
798.934	95.96
799.109	95.44
799.285	95.75
799.46	92.64
799.636	90.5
799.811	85.53
799.986	88.4
800.162	86.35
800.337	83.86
800.513	82.06
800.688	82.05
800.863	88.77
801.039	83.15
801.214	83.47
801.389	87.78
801.565	86.42
801.74	68.76
801.915	77.81
802.09	78.42
802.265	76.15
802.441	76.49
802.616	84.41
802.791	80.7
802.966	81.02
803.141	78.99
803.316	75.48
803.491	79.33
803.666	83.39
803.841	76.95
804.016	76.46
804.191	82.24
804.366	76.29
804.541	75.23
804.716	78.64
804.891	75.47
805.066	79.19
805.241	78.77
805.416	73.32
805.591	67.93
805.765	72.33
805.94	75.7
806.115	74.39
806.29	68.94
806.464	78.63
806.639	74.11
806.814	63.16
806.989	62.88
807.163	80.76
807.338	85.72
807.512	85.54
807.687	77.45
807.862	83.84
808.036	81.2
808.211	78.22
808.385	86.85
808.56	101.22
808.734	99.36
808.909	95.16
809.083	96.14
809.258	93.7
809.432	87.37
809.606	74.74
809.781	73.72
809.955	75.08
810.13	82.64
810.304	81.11
810.478	88.4
810.652	95.43
810.827	93.42
811.001	85.15
811.175	74.64
811.349	71.25
811.524	58.76
811.698	48.15
811.872	54.61
812.046	72.67
812.22	78.44
812.394	81.8
812.568	91.48
812.742	93.49
812.916	85.88
813.09	77.78
813.264	75.36
813.438	76.34
813.612	70.34
813.786	68.28
813.96	78.12
814.134	80.63
814.308	90.45
814.482	90.15
814.656	89.05
814.83	90.77
815.003	94.22
815.177	72.76
815.351	66.77
815.525	69.73
815.698	60.78
815.872	51.25
816.046	55.39
816.219	60.75
816.393	74.15
816.567	78.69
816.74	85.54
816.914	84.78
817.088	87.27
817.261	62.7
817.435	50.59
817.608	61.05
817.782	58.82
817.955	58.37
818.129	60.2
818.302	72.05
818.475	79.38
818.649	84.95
818.822	72.78
818.996	97.63
819.169	97.51
819.342	85.91
819.516	91.91
819.689	99.3
819.862	77.82
820.035	71.75
820.209	63.26
820.382	53.07
820.555	57.34
820.728	55.25
820.901	53.04
821.075	60.74
821.248	74.9
821.421	74.18
821.594	76.47
821.767	96.43
821.94	104.56
822.113	76.14
822.286	68.8
822.459	70.5
822.632	49.93
822.805	27.04
822.978	38.77
823.151	44.85
823.324	38.52
823.496	31.82
823.669	46.5
823.842	46.97
824.015	30.67
824.188	27.46
824.361	44.97
824.533	30.92
824.706	38.73
824.879	49.73
825.051	54.63
825.224	42.45
825.397	55.32
825.569	53.77
825.742	71.83
825.915	88.36
826.087	117.18
826.26	74.12
826.432	76.22
826.605	62.95
826.777	49.62
826.95	44.45
827.122	53.4
827.295	61.49
827.467	66.7
827.64	55.99
827.812	42.5
827.984	46.11
828.157	31.88
828.329	-9.17
828.501	19.61
828.674	22.21
828.846	15.22
829.018	33.35
829.19	31.14
829.363	36.81
829.535	55.23
829.707	66.59
829.879	40.94
830.051	50.65
830.223	40.01
830.395	6.77
830.568	2.34
830.74	7.64
830.912	22.63
831.084	22.32
831.256	31.95
831.428	21.59
831.6	13.4
831.772	-6.33
831.943	-15.83
832.115	-1.11
832.287	34.04
832.459	44.69
832.631	58.25
832.803	68.28
832.975	92.77
833.146	70.01
833.318	64.2
833.49	65.31
833.662	62.06
833.833	38.21
834.005	28.05
834.177	33.47
834.348	27.8
834.52	29.49
834.692	17.96
834.863	24.29
835.035	16.64
835.206	-33.26
835.378	-32.99
835.549	-24.36
835.721	-10
835.892	1.88
836.064	15.32
836.235	15.83
836.407	24.77
836.578	-9.34
836.749	-19.53
836.921	-30.41
837.092	-52.97
837.264	-59.61
837.435	-63.49
837.606	-28.61
837.777	4.42
837.949	19.41
838.12	25.39
838.291	34.36
838.462	23.42
838.633	-2.55
838.805	14.43
838.976	38.07
839.147	27.19
839.318	4.67
839.489	-28.34
839.66	-34.89
839.831	-15.37
840.002	4.77
840.173	4
840.344	68.23
840.515	99.32
840.686	48.49
840.857	15.25
841.028	31.15
841.199	5.72
841.369	-21.96
841.54	-12.73
841.711	10.33
841.882	20
842.053	-3.06
842.223	-11.72
842.394	-5.76
842.565	-8.32
842.736	15.18
842.906	34.92
843.077	41.44
843.248	60.71
843.418	67.38
843.589	22.29
843.759	84.49
843.93	103.5
844.101	36.39
844.271	28.69
844.442	38.98
844.612	35.32
844.783	3.79
844.953	-3.8
845.123	-1.41
845.294	36.02
845.464	-46.27
845.635	57.21
845.805	85.29
845.975	69.66
846.146	-7.39
846.316	-13.02
846.486	0.06
846.656	31.25
846.827	19.49
846.997	31.87
847.167	74.88
847.337	50.34
847.507	33.17
847.677	42.47
847.848	82.21
848.018	58.95
848.188	64.25
848.358	36.77
848.528	18.92
848.698	-36.65
848.868	-115.72
849.038	-198.32
849.208	-63.99
849.378	-1.41
849.548	16.94
849.718	31.17
849.887	48.59
850.057	46.02
850.227	18.46
850.397	0.46
850.567	-31.63
850.737	-45.22
850.906	-306.25
851.076	-491.41
851.246	-109.42
851.415	9.09
851.585	-11.42
851.755	-40.36
851.924	29.84
852.094	40.72
852.264	-6.42
852.433	-538.46
852.603	-67.33
852.772	-37.54
852.942	-52.18
853.111	-33.38
853.281	8.55
853.45	58.37
853.62	-15.92
853.789	-16.2
853.959	8.78
854.128	0.63
854.297	-65.73
854.467	-44.68
854.636	8.99
854.805	22.32
854.975	-2.5
855.144	82.47
855.313	411.89
855.482	-5.84
855.652	-82.04
855.821	0.29
855.99	40.69
856.159	35.15
856.328	40.46
856.497	29.2
856.667	21.16
856.836	14.56
857.005	-3.97
857.174	-24.31
857.343	-26.21
857.512	-10.1
857.681	-66
857.85	-123.85
858.019	-43.81
858.188	-26.35
858.356	-44.51
858.525	-71.7
858.694	-37.15
858.863	-126.93
859.032	-142.04
859.201	-147.49
859.369	-66.33
859.538	-82.13
859.707	-73.23
859.876	-58.72
860.044	-12.62
860.213	21.88
860.382	21.54
860.55	33.64
860.719	58.61
860.888	51.61
861.056	21.25
861.225	15.77
861.393	35.98
861.562	31.47
861.73	-56.05
861.899	-140.84
862.067	-875.86
862.236	2.37
862.404	-115.56
862.572	-39.4
862.741	23.89
862.909	24.09
863.078	-38.36
863.246	1.71
863.414	20.9
863.582	25.86
863.751	-15.29
863.919	-10.86
864.087	21.02
864.255	48.85
864.424	-162.15
864.592	7.3
864.76	0.87
864.928	-184
865.096	-155.41
865.264	-101.62
865.432	-1388.64
865.6	-100
865.768	-62.09
865.936	-89.3
866.104	-102
866.272	-130.94
866.44	-306.69
866.608	482.07
866.776	217.17
866.944	2223.26
867.112	-429.24
867.28	-180.87
867.448	-87.81
867.615	-31.71
867.783	-12.17
867.951	-16.64
868.119	6.27
868.286	33.54
868.454	-20.54
868.622	48.93
868.789	131.2
868.957	2407.14
869.125	-123.68
869.292	43.73
869.46	-114.06
869.627	44.8
869.795	2.32
869.963	19.45
870.13	21.73
870.298	44.63
870.465	-36.84
870.632	-29.31
870.8	-17.58
870.967	-49
871.135	-93.18
871.302	-90.71
871.469	-103.98
871.637	-199.29
871.804	-80.3
871.971	-104.15
872.139	-394.42
872.306	-7.73
872.473	-26.18
872.64	-214.59
872.807	-70.78
872.975	74.24
873.142	-107.64
873.309	321.62
873.476	69.03
873.643	158.5
873.81	73.39
873.977	85.36
874.144	28.24
874.311	-121.18
874.478	-180.85
874.645	-179.41
874.812	-100.56
874.979	-20.58
875.146	-6.2
875.313	-4.77
875.48	48.55
875.647	12.58
875.813	-34.58
875.98	-11.86
876.147	-13.9
876.314	-58.42
876.481	777.69
876.647	-868.54
876.814	339.9
876.981	-45.77
877.147	-76.25
877.314	-25.92
877.481	12.29
877.647	-4.16
877.814	-55.05
877.98	-65.98
878.147	-37.15
878.314	-13.35
878.48	-37.15
878.647	-1.09
878.813	40.71
878.979	42.25
879.146	15.98
879.312	-0.81
879.479	-58.64
879.645	-111.49
879.811	-195.58
879.978	-596.95
880.144	-108.43
880.31	-65.83
880.477	-312.46
880.643	-385.21
880.809	-108.25
880.975	-49.03
881.142	-334.55
881.308	12.5
881.474	26.29
881.64	-12.04
881.806	-66.59
881.972	-29.17
882.138	36.15
882.304	84.15
882.47	-33.95
882.636	-222.95
882.802	5.1
882.968	-17.08
883.134	2.22
883.3	11.91
883.466	51.57
883.632	84.18
883.798	73.33
883.964	71.66
884.129	93.1
884.295	90.91
884.461	-4.02
884.627	-46.59
884.793	-52.58
884.958	-2.25
885.124	-102.57
885.29	-197.13
885.455	-220.87
885.621	-55.14
885.787	-176.35
885.952	-74.1
886.118	-30.8
886.283	-64.98
886.449	-134.58
886.614	-126.79
886.78	-247.69
886.945	1114.75
887.111	-500.58
887.276	-408.52
887.442	-809.09
887.607	-275.47
887.773	-213.69
887.938	-144.65
888.103	-247.68
888.269	-170.48
888.434	-351.35
888.599	-108.53
888.764	-4.49
888.93	39.64
889.095	32.6
889.26	-18.59
889.425	20.32
889.59	13.87
889.756	-6.25
889.921	-1.86
890.086	88.23
890.251	41.24
890.416	-58.12
890.581	-835.48
890.746	97.14
890.911	316.56
891.076	122.18
891.241	-68.66
891.406	112.06
891.571	86.26
891.736	-31.19
891.901	-115.93
892.065	153.85
892.23	95.65
892.395	170.06
892.56	241.62
892.725	-224.22
892.889	-985.37
893.054	-186.12
893.219	-46.47
893.384	17.64
893.548	-9.56
893.713	-14.81
893.878	7.94
