Data from Ofra_PS_T2_1A_2CX12_Reflection_1.txt Node
Date: Wed Jul 21 17:52:39 EDT 2021
User: Adam
Spectrometer: FLMT01687
Trigger mode: 0
Integration Time (sec): 1.100000E0
Scans to average: 2
Electric dark correction enabled: true
Nonlinearity correction enabled: false
Boxcar width: 2
XAxis mode: Wavelengths
Number of Pixels in Spectrum: 3648
>>>>>Begin Spectral Data<<<<<
179.494	592.8
179.716	682.59
179.937	658.06
180.158	654
180.38	1106.25
180.601	447.51
180.823	102.81
181.044	-4.27
181.265	55.15
181.486	-18.5
181.708	68.59
181.929	593.88
182.15	-71.83
182.372	152.03
182.593	-28.22
182.814	34.08
183.035	63.65
183.257	43.98
183.478	-75.96
183.699	8.82
183.92	-53.99
184.141	-38.81
184.363	-84.6
184.584	-27.62
184.805	-19.4
185.026	28.24
185.247	45.1
185.468	7.16
185.689	15.53
185.91	29.3
186.132	33.09
186.353	1.67
186.574	86.15
186.795	65.43
187.016	-2.93
187.237	-23.55
187.458	-23.2
187.679	-16.33
187.9	-27.83
188.121	-6.39
188.342	12.16
188.563	47.69
188.784	59.93
189.005	98.26
189.226	143.85
189.447	121.25
189.667	66.99
189.888	-226.11
190.109	-1394.81
190.33	-661.94
190.551	-1165.49
190.772	-262.95
190.993	-212.65
191.214	-124.45
191.434	-103.35
191.655	-25.77
191.876	-83.13
192.097	-161.54
192.318	-196.11
192.538	-278.01
192.759	-195.51
192.98	-90.99
193.201	-5.95
193.421	-1.42
193.642	6.49
193.863	12.23
194.083	-3.51
194.304	-17.49
194.525	-14.03
194.745	-9.43
194.966	-25.25
195.187	-38.67
195.407	-56.23
195.628	-108.57
195.848	-113.57
196.069	-120.17
196.29	-37.4
196.51	-76.75
196.731	-55.61
196.951	-61.02
197.172	-48.41
197.392	-128.99
197.613	-103.15
197.833	-167.6
198.054	-158.61
198.274	-116.6
198.495	-102.03
198.715	-67.1
198.936	-78.58
199.156	-44.04
199.377	-127.81
199.597	-139.14
199.817	-156.39
200.038	-53.33
200.258	-101.32
200.479	-15.28
200.699	-19.08
200.919	34.02
201.14	-14.9
201.36	-40.39
201.58	-6.38
201.801	34.09
202.021	-2.47
202.241	-12.23
202.461	-18.32
202.682	-139.88
202.902	-244.15
203.122	-130.86
203.342	-93.19
203.563	-17.55
203.783	29.38
204.003	27.82
204.223	9.28
204.443	47.26
204.663	2.28
204.884	19.69
205.104	61.47
205.324	76.42
205.544	48.15
205.764	60.8
205.984	50.67
206.204	32
206.424	30.93
206.644	12.04
206.864	18.22
207.084	-23.15
207.304	40.57
207.525	-61.88
207.745	-55.16
207.964	-26.33
208.184	-49.58
208.404	-97.76
208.624	-88
208.844	-58.34
209.064	-326.27
209.284	-296.89
209.504	-111.44
209.724	-9.43
209.944	-20.88
210.164	26.89
210.384	28.43
210.604	11
210.823	-31.62
211.043	-34.21
211.263	-30.76
211.483	-31.86
211.703	-73.91
211.922	-46.75
212.142	-3.96
212.362	-4.82
212.582	-21.54
212.801	-18.04
213.021	-50.46
213.241	-68.33
213.461	-78.42
213.68	-104.66
213.9	-55.79
214.12	-26.76
214.339	-94.31
214.559	-78.74
214.779	-10.67
214.998	-21.32
215.218	-66.53
215.438	-22.32
215.657	-46.03
215.877	-62.07
216.096	-45.85
216.316	-18.16
216.535	-28.59
216.755	-27.07
216.974	-133.24
217.194	-156.5
217.413	-171.65
217.633	-146.95
217.852	-278.12
218.072	-104.27
218.291	-46.63
218.511	-0.41
218.73	-38.46
218.95	-22.91
219.169	-32.87
219.389	-92.73
219.608	-69.67
219.827	-64.17
220.047	-33.87
220.266	-24.87
220.485	-11.84
220.705	-6.35
220.924	-12
221.143	27.45
221.363	6.18
221.582	21.1
221.801	26.11
222.021	45.13
222.24	-44.41
222.459	27.88
222.678	-0.44
222.897	-56.49
223.117	-98.64
223.336	-81.65
223.555	-58.13
223.774	-42.76
223.993	-29.01
224.213	9.49
224.432	-17.59
224.651	7.13
224.87	4.05
225.089	16.5
225.308	21.55
225.527	53.37
225.746	57.05
225.965	40.86
226.184	34.1
226.404	25.9
226.623	-2.87
226.842	-3.38
227.061	26.09
227.28	28.58
227.499	19.42
227.718	26.56
227.936	20.7
228.155	40.67
228.374	10.05
228.593	14.22
228.812	16.57
229.031	2.51
229.25	-48.12
229.469	-43.97
229.688	-29.16
229.907	19.42
230.125	35.28
230.344	14.15
230.563	34.13
230.782	42.52
231.001	-56.71
231.22	-34.29
231.438	13.34
231.657	8.28
231.876	-8.45
232.095	39.55
232.313	38.02
232.532	12.9
232.751	-4.03
232.969	-9.24
233.188	-36.56
233.407	25.47
233.625	7.47
233.844	-15.05
234.063	-2.86
234.281	-3.36
234.5	-34.3
234.719	-18.35
234.937	9.85
235.156	16.59
235.374	25.72
235.593	29.94
235.811	18.09
236.03	-11.04
236.249	-62.97
236.467	-53.97
236.686	-27.07
236.904	-6.59
237.123	-17.03
237.341	-7.62
237.559	-13.09
237.778	-32.04
237.996	-60.1
238.215	-13.56
238.433	-2.44
238.652	2.3
238.87	-8.58
239.088	3.99
239.307	6.71
239.525	-8.32
239.743	-41.24
239.962	-28.97
240.18	-45.29
240.398	-118.96
240.617	-124.08
240.835	-104.77
241.053	-82.94
241.271	-30.15
241.49	6.09
241.708	-15.23
241.926	-35.82
242.144	-12.66
242.363	-71.13
242.581	-77.33
242.799	-8.93
243.017	8.82
243.235	-19.54
243.453	-12.56
243.672	-16.53
243.89	-27.15
244.108	-45.54
244.326	-20.49
244.544	-11.36
244.762	-18.01
244.98	-18.18
245.198	-4.78
245.416	-43.18
245.634	-43.36
245.852	-37.68
246.07	-23.24
246.288	-11.02
246.506	-24.4
246.724	-24.23
246.942	-20.56
247.16	-10.6
247.378	-7.56
247.596	14.59
247.814	20.94
248.032	-5.37
248.25	6.31
248.468	13.93
248.685	40.53
248.903	57.52
249.121	74.03
249.339	40.23
249.557	24.72
249.775	22.87
249.992	-38.26
250.21	-64.62
250.428	-36.76
250.646	-61.85
250.863	-101.76
251.081	-73.36
251.299	-48.61
251.517	-40.77
251.734	-23.82
251.952	-21.55
252.17	-8.84
252.387	-4.8
252.605	-19.98
252.823	-9.76
253.04	14.23
253.258	14.74
253.475	12.68
253.693	35.65
253.911	32.35
254.128	27.41
254.346	42.43
254.563	15.79
254.781	-16.26
254.998	-37.44
255.216	-54.5
255.433	-53.36
255.651	-3.91
255.868	28.68
256.086	64.1
256.303	64.19
256.521	41.48
256.738	15.5
256.956	-10.38
257.173	-51.04
257.39	-69.02
257.608	-95.43
257.825	-53.68
258.043	-18.72
258.26	4.33
258.477	43.64
258.695	38.23
258.912	-8.53
259.129	-5.2
259.346	-34.35
259.564	-72.74
259.781	-69.23
259.998	0.66
260.216	28
260.433	65.51
260.65	62.95
260.867	75.13
261.084	43.77
261.302	6.49
261.519	-15.62
261.736	-41.72
261.953	-61.3
262.17	-25.34
262.387	-40.84
262.604	-84.31
262.822	-91.68
263.039	-98.8
263.256	-129.38
263.473	-63.47
263.69	-20.84
263.907	9.26
264.124	39.45
264.341	35.61
264.558	12.49
264.775	18.83
264.992	28.27
265.209	18.08
265.426	38.15
265.643	38.84
265.86	41.85
266.077	48.44
266.294	36.39
266.51	-9.38
266.727	-18.37
266.944	-17.87
267.161	-48.59
267.378	-40.08
267.595	-20.25
267.812	-45.72
268.028	-60.6
268.245	-17.33
268.462	-45
268.679	-40.2
268.896	15.21
269.112	24.17
269.329	13.14
269.546	35.31
269.763	19.95
269.979	-4.15
270.196	-11.08
270.413	-42.74
270.629	-83.81
270.846	-96.99
271.063	-82.84
271.279	-92.86
271.496	-78.26
271.712	-21.24
271.929	28.95
272.146	17.57
272.362	20.45
272.579	68.14
272.795	45.18
273.012	36.17
273.228	39.17
273.445	15.31
273.661	-59.36
273.878	-89.59
274.094	-86.72
274.311	-116.72
274.527	-33.35
274.744	-9.51
274.96	-10.34
275.177	4.95
275.393	30.03
275.609	18.45
275.826	41.61
276.042	49.69
276.259	30.61
276.475	38.52
276.691	42.86
276.908	14.85
277.124	22.23
277.34	25.38
277.557	1.33
277.773	-11.85
277.989	-23.12
278.205	-20.41
278.422	-18.82
278.638	-2.62
278.854	14.05
279.07	21.85
279.286	1.16
279.503	-2.39
279.719	-10.01
279.935	-33.28
280.151	-43.31
280.367	-11.3
280.583	-38.36
280.799	-39.91
281.016	-69.43
281.232	-39.89
281.448	-53.34
281.664	-17.54
281.88	-48.7
282.096	-6.14
282.312	32.3
282.528	59.65
282.744	58.3
282.96	44.11
283.176	11.73
283.392	-1.26
283.608	-9.74
283.824	-2.08
284.04	13.45
284.256	35.03
284.471	25.06
284.687	4.48
284.903	28.62
285.119	54.43
285.335	24.27
285.551	21.81
285.767	15.47
285.982	-21.47
286.198	-74.03
286.414	-4.65
286.63	11.82
286.846	37.9
287.061	24.09
287.277	47.84
287.493	21.51
287.709	34.59
287.924	11.86
288.14	44.71
288.356	47.29
288.571	55.1
288.787	34.33
289.003	43.55
289.218	13.47
289.434	-32.73
289.65	-17.73
289.865	-38.11
290.081	-19.69
290.296	-11.81
290.512	-0.2
290.727	-43.11
290.943	-33.18
291.159	-47.12
291.374	-42.77
291.59	-58.28
291.805	-46.61
292.021	-28.88
292.236	-25.96
292.451	-8.25
292.667	10.91
292.882	24.06
293.098	19.34
293.313	0.93
293.529	-31.26
293.744	-57.56
293.959	-60.79
294.175	-58.27
294.39	-14.97
294.605	4.87
294.821	33.5
295.036	44.58
295.251	51.78
295.467	12.73
295.682	-0.37
295.897	-64.54
296.112	-92.58
296.328	-84.26
296.543	-89.12
296.758	-80.63
296.973	-24.63
297.188	16.42
297.404	-11.84
297.619	-7.26
297.834	-18.6
298.049	-31.34
298.264	-60.08
298.479	-7.67
298.694	4.01
298.909	29.31
299.125	29.06
299.34	37.46
299.555	17.35
299.77	20.13
299.985	-32.28
300.2	-89.19
300.415	-102.22
300.63	-67.53
300.845	-76.6
301.06	-89.16
301.275	-39.52
301.49	-22.7
301.704	-35.35
301.919	-46.51
302.134	-37.06
302.349	-48.97
302.564	-108.83
302.779	-146.7
302.994	-136.36
303.209	-101.6
303.423	-48.33
303.638	21.43
303.853	-4.05
304.068	5.19
304.283	14.39
304.497	-2.62
304.712	-6.11
304.927	15.58
305.142	1.1
305.356	4.49
305.571	9.23
305.786	-9.31
306	-36.85
306.215	-34.84
306.43	-72.42
306.644	-62.78
306.859	-4.3
307.074	19.52
307.288	-6.17
307.503	4.85
307.717	-32.47
307.932	-49.67
308.147	-66.76
308.361	-47.14
308.576	-40.45
308.79	-78.18
309.005	-68.07
309.219	-37.43
309.434	-38.63
309.648	-46.54
309.863	0.47
310.077	7.4
310.292	-5.23
310.506	8.81
310.72	20.54
310.935	27.78
311.149	29.13
311.364	45.63
311.578	43.13
311.792	43.79
312.007	38.39
312.221	8.36
312.435	7.62
312.649	-6.39
312.864	13.3
313.078	13.78
313.292	93.49
313.507	42.81
313.721	86.3
313.935	36.59
314.149	34.7
314.363	11.29
314.578	21.33
314.792	17.79
315.006	2.45
315.22	13.65
315.434	11.23
315.648	27.72
315.862	22.04
316.077	22.23
316.291	-4.08
316.505	9.69
316.719	-21.78
316.933	-44.09
317.147	-43.79
317.361	-67.86
317.575	-92.92
317.789	-119.72
318.003	-162.04
318.217	-124.31
318.431	-38.82
318.645	10.28
318.859	9.43
319.073	38.02
319.287	15.45
319.5	-20.66
319.714	-67.07
319.928	-77.05
320.142	-116.27
320.356	-40.84
320.57	-0.52
320.784	-6.84
320.997	-17.03
321.211	-4.56
321.425	-77.91
321.639	-102.45
321.853	-44.29
322.066	-26.41
322.28	-29.2
322.494	-11.4
322.707	24.04
322.921	7.33
323.135	-11.01
323.349	5.27
323.562	-16.04
323.776	-39.63
323.989	-40.78
324.203	-52.71
324.417	-64.14
324.63	-70.61
324.844	-79.85
325.057	-60.29
325.271	-29.28
325.485	0.43
325.698	26.86
325.912	44.47
326.125	10.67
326.339	12.56
326.552	-12.31
326.766	-5.08
326.979	14.52
327.193	65.08
327.406	46.05
327.619	23.16
327.833	41.24
328.046	8.49
328.26	-32.3
328.473	6.86
328.686	8.63
328.9	-12.25
329.113	5.8
329.326	-21.85
329.54	-25.65
329.753	-38.23
329.966	-69.05
330.179	-51.95
330.393	-6.05
330.606	-0.69
330.819	25.8
331.032	45.78
331.246	46.89
331.459	65.62
331.672	52.59
331.885	34.76
332.098	7.15
332.311	-16.93
332.525	-83.13
332.738	-64.07
332.951	-27.47
333.164	-0.35
333.377	12.71
333.59	34.79
333.803	30.06
334.016	24.9
334.229	23.84
334.442	42.94
334.655	62.22
334.868	64.93
335.081	43.94
335.294	27.42
335.507	35.37
335.72	19.33
335.933	9.22
336.146	4.19
336.359	6.4
336.572	-54.31
336.785	-72.85
336.997	-57.15
337.21	-10.95
337.423	-20.92
337.636	-5.28
337.849	17.71
338.062	15.29
338.274	4.91
338.487	-7.13
338.7	-8.46
338.913	-53.96
339.125	-76.56
339.338	-115.18
339.551	-58.81
339.763	-25.79
339.976	-9.6
340.189	11.58
340.402	18.99
340.614	12.79
340.827	-3.84
341.039	-23.56
341.252	-26.98
341.465	-2.67
341.677	-4.83
341.89	-30.84
342.102	11.29
342.315	-1.5
342.527	-44.37
342.74	-57.18
342.952	-15.57
343.165	-21.8
343.377	7.14
343.59	2.55
343.802	23.88
344.015	27.91
344.227	37.8
344.44	36.6
344.652	40.83
344.864	27.12
345.077	34.63
345.289	35.91
345.502	29.62
345.714	22.53
345.926	26.36
346.139	23.37
346.351	34.04
346.563	37.66
346.775	48.35
346.988	29.2
347.2	-3.16
347.412	-76.91
347.624	-100.68
347.837	-132.98
348.049	-101.98
348.261	-27.07
348.473	0.75
348.685	-8.68
348.897	-13.45
349.11	-18.5
349.322	-60.88
349.534	-39.02
349.746	-22.34
349.958	-9.34
350.17	-15.77
350.382	2.94
350.594	-7.28
350.806	-21.1
351.018	-10.09
351.23	-29.05
351.442	-60.24
351.654	-72.65
351.866	-44.23
352.078	-49.56
352.29	-8.49
352.502	8.14
352.714	21.01
352.926	12.93
353.138	15.78
353.35	-3.53
353.561	-16.39
353.773	-32.73
353.985	-16.54
354.197	-26.68
354.409	-35.4
354.621	-31.57
354.832	-21.93
355.044	-33.83
355.256	-26.08
355.468	2.45
355.679	-3.92
355.891	11.15
356.103	-2.36
356.314	3.94
356.526	-0.36
356.738	23.3
356.949	7.33
357.161	13.33
357.373	-4.67
357.584	-11.9
357.796	-21.42
358.008	-22.85
358.219	8.11
358.431	14.7
358.642	24.91
358.854	30.58
359.065	23.91
359.277	-16.7
359.488	-22.29
359.7	-60.73
359.911	-78.96
360.123	-53.68
360.334	-51.66
360.546	-76.37
360.757	-69.97
360.969	-55.33
361.18	-48.44
361.391	-37.98
361.603	-40.96
361.814	-23.87
362.025	-26.95
362.237	-36.14
362.448	-18.64
362.659	7.76
362.871	5.63
363.082	5.84
363.293	12.86
363.504	-13.05
363.716	-39.13
363.927	-40.63
364.138	-67.37
364.349	-85.35
364.56	-68.29
364.772	-45.44
364.983	-16.51
365.194	-2.1
365.405	8.31
365.616	37.49
365.827	29.17
366.038	-5.32
366.25	-15.13
366.461	-45.95
366.672	-39.44
366.883	-15.43
367.094	10.11
367.305	9.19
367.516	23.62
367.727	-6.98
367.938	-24.86
368.149	-40.67
368.36	-16.63
368.571	-15.46
368.781	-21.71
368.992	-29.75
369.203	-50.79
369.414	-77.98
369.625	-93.96
369.836	-82.01
370.047	-104.74
370.258	-70.73
370.468	-75.63
370.679	-82.44
370.89	-78
371.101	-54.32
371.312	-67.08
371.522	-48.7
371.733	-25.22
371.944	-8.3
372.155	1.87
372.365	-1.04
372.576	-1.71
372.787	-13.37
372.997	-26.44
373.208	-24.65
373.419	13.67
373.629	-19.71
373.84	-25.65
374.05	-44.43
374.261	-32.28
374.472	-59.13
374.682	1.08
374.893	15.95
375.103	49.7
375.314	38.87
375.524	27.33
375.735	11.2
375.945	11.08
376.156	-18.46
376.366	-8.37
376.577	1.26
376.787	-5.11
376.997	-1.89
377.208	-2.31
377.418	-17.62
377.629	-1.18
377.839	0.93
378.049	0.93
378.26	22.38
378.47	29.67
378.68	17.26
378.89	14.4
379.101	18.47
379.311	-12.23
379.521	-35.26
379.732	-32.67
379.942	-32.5
380.152	-58.2
380.362	-20.08
380.572	-14.56
380.783	6.23
380.993	23.35
381.203	40.57
381.413	43.57
381.623	48.1
381.833	33.9
382.043	12.84
382.253	-4.8
382.463	-3.79
382.674	-14.46
382.884	-35.43
383.094	-29.82
383.304	-15.16
383.514	-11.82
383.724	-7.89
383.934	-12.46
384.144	-22.9
384.353	-35.13
384.563	-41.33
384.773	-28.41
384.983	-23.97
385.193	-3.35
385.403	3.23
385.613	5.39
385.823	-11.79
386.033	-9.28
386.242	-22.19
386.452	-25.09
386.662	-33.17
386.872	-12.7
387.082	-17.87
387.291	-24.08
387.501	-28.51
387.711	-18.72
387.921	-32.21
388.13	-28.12
388.34	-6.64
388.55	-10.57
388.759	-12.25
388.969	-3.19
389.179	-4.26
389.388	-12.8
389.598	-2.01
389.807	-7.27
390.017	-12.08
390.227	-10.66
390.436	-12.38
390.646	-12.37
390.855	-7.09
391.065	-5.75
391.274	-8.86
391.484	-9.52
391.693	-8.03
391.903	-8.67
392.112	-2.8
392.322	2.61
392.531	6.58
392.74	5.42
392.95	2.52
393.159	-1.77
393.369	-2.05
393.578	-4.43
393.787	-6.11
393.997	-2.94
394.206	-4.8
394.415	-5.69
394.625	-5.19
394.834	-5.58
395.043	-5.87
395.252	-1.88
395.462	0.28
395.671	2.62
395.88	3.87
396.089	4.56
396.298	2.83
396.508	2.02
396.717	0.29
396.926	0.83
397.135	0.11
397.344	0.31
397.553	1.1
397.762	3.02
397.971	2.44
398.181	2.34
398.39	1.75
398.599	0.68
398.808	-0.28
399.017	0.98
399.226	2.49
399.435	3.69
399.644	4.01
399.853	3.28
400.062	2.5
400.27	1.61
400.479	0.86
400.688	0.15
400.897	0.61
401.106	0.86
401.315	0.98
401.524	1.24
401.733	2.2
401.941	2.88
402.15	2.88
402.359	2.54
402.568	3.13
402.777	3.05
402.985	2.52
403.194	2.17
403.403	2.25
403.612	1.58
403.82	1.18
404.029	1.57
404.238	1.64
404.446	1.98
404.655	1.87
404.864	2.02
405.072	1.57
405.281	1.69
405.489	1.26
405.698	1.36
405.906	1.27
406.115	1.45
406.324	1.33
406.532	1.77
406.741	2.07
406.949	2.22
407.158	2.18
407.366	2.28
407.574	2.07
407.783	1.91
407.991	1.63
408.2	1.82
408.408	1.89
408.617	1.77
408.825	1.58
409.033	1.86
409.242	1.72
409.45	1.73
409.658	1.68
409.867	2
410.075	1.81
410.283	1.73
410.491	1.59
410.7	1.63
410.908	1.46
411.116	1.84
411.324	1.82
411.533	1.76
411.741	1.96
411.949	2.03
412.157	1.69
412.365	1.73
412.573	1.84
412.781	1.9
412.99	1.8
413.198	1.98
413.406	1.92
413.614	1.85
413.822	1.66
414.03	1.6
414.238	1.38
414.446	1.52
414.654	1.48
414.862	1.62
415.07	1.78
415.278	2.17
415.486	1.91
415.694	2.04
415.902	1.9
416.109	1.66
416.317	1.39
416.525	1.34
416.733	1.22
416.941	1.38
417.149	1.41
417.357	1.46
417.564	1.68
417.772	2.05
417.98	1.9
418.188	1.8
418.395	1.8
418.603	1.97
418.811	1.44
419.019	1.28
419.226	1.76
419.434	1.76
419.642	1.49
419.849	1.75
420.057	1.88
420.265	1.64
420.472	1.29
420.68	1.4
420.887	1.26
421.095	1.3
421.302	1.25
421.51	1.77
421.717	1.82
421.925	1.8
422.132	1.67
422.34	1.39
422.547	1.27
422.755	1.06
422.962	1.04
423.17	1.06
423.377	1.33
423.585	1.4
423.792	1.39
423.999	1.49
424.207	1.49
424.414	1.64
424.621	1.52
424.829	1.53
425.036	1.46
425.243	1.68
425.451	1.41
425.658	1.26
425.865	1.53
426.072	1.49
426.28	1.55
426.487	1.53
426.694	1.72
426.901	1.45
427.108	1.64
427.315	1.36
427.523	1.76
427.73	1.7
427.937	1.77
428.144	1.55
428.351	1.52
428.558	1.51
428.765	1.39
428.972	1.3
429.179	1.58
429.386	1.96
429.593	1.63
429.8	1.62
430.007	1.71
430.214	1.7
430.421	1.37
430.628	1.21
430.835	1.11
431.042	1.22
431.249	1.15
431.456	1.22
431.662	1.38
431.869	1.57
432.076	1.55
432.283	1.58
432.49	1.54
432.697	1.64
432.903	1.46
433.11	1.36
433.317	1.41
433.524	1.65
433.73	1.48
433.937	1.66
434.144	1.57
434.35	1.46
434.557	1.21
434.764	1.22
434.97	1.08
435.177	1.32
435.384	1.19
435.59	1.25
435.797	1.59
436.003	1.73
436.21	1.6
436.416	1.8
436.623	1.81
436.829	1.75
437.036	1.79
437.242	1.78
437.449	1.65
437.655	1.66
437.862	1.57
438.068	1.5
438.275	1.59
438.481	1.86
438.687	1.8
438.894	1.71
439.1	1.75
439.307	1.91
439.513	1.74
439.719	1.79
439.926	1.85
440.132	1.79
440.338	1.63
440.544	1.79
440.751	1.73
440.957	1.79
441.163	1.64
441.369	1.65
441.575	1.29
441.782	1.29
441.988	1.13
442.194	1.23
442.4	1.29
442.606	1.59
442.812	1.72
443.018	1.97
443.224	2.04
443.431	2.03
443.637	1.83
443.843	1.64
444.049	1.57
444.255	1.53
444.461	1.6
444.667	1.62
444.873	1.83
445.079	1.74
445.284	1.77
445.49	1.51
445.696	1.37
445.902	1.25
446.108	1.23
446.314	1.11
446.52	1.18
446.726	1.54
446.931	1.52
447.137	1.63
447.343	1.79
447.549	1.79
447.755	1.58
447.96	1.63
448.166	1.48
448.372	1.3
448.578	1.31
448.783	1.33
448.989	1.41
449.195	1.57
449.4	1.67
449.606	1.59
449.812	1.54
450.017	1.53
450.223	1.36
450.428	1.28
450.634	1.48
450.84	1.6
451.045	1.54
451.251	1.55
451.456	1.84
451.662	1.88
451.867	1.83
452.073	1.74
452.278	1.89
452.483	1.94
452.689	1.79
452.894	1.86
453.1	1.93
453.305	1.8
453.51	1.62
453.716	1.55
453.921	1.55
454.127	1.56
454.332	1.52
454.537	1.41
454.742	1.39
454.948	1.3
455.153	1.34
455.358	1.44
455.563	1.6
455.769	1.77
455.974	1.79
456.179	1.64
456.384	1.65
456.589	1.62
456.795	1.37
457	1.31
457.205	1.53
457.41	1.43
457.615	1.34
457.82	1.5
458.025	1.48
458.23	1.3
458.435	1.4
458.64	1.32
458.845	1.43
459.05	1.5
459.255	1.54
459.46	1.5
459.665	1.53
459.87	1.54
460.075	1.45
460.28	1.47
460.485	1.63
460.69	1.69
460.895	1.51
461.099	1.51
461.304	1.67
461.509	1.65
461.714	1.56
461.919	1.73
462.123	1.67
462.328	1.65
462.533	1.46
462.738	1.6
462.942	1.44
463.147	1.56
463.352	1.5
463.556	1.53
463.761	1.55
463.966	1.6
464.17	1.57
464.375	1.47
464.58	1.45
464.784	1.3
464.989	1.29
465.193	1.32
465.398	1.36
465.602	1.52
465.807	1.54
466.011	1.57
466.216	1.58
466.42	1.6
466.625	1.57
466.829	1.66
467.034	1.69
467.238	1.89
467.443	1.86
467.647	1.71
467.851	1.75
468.056	1.83
468.26	1.59
468.464	1.57
468.669	1.75
468.873	1.86
469.077	1.8
469.282	1.94
469.486	2.04
469.69	2.01
469.894	1.8
470.099	1.86
470.303	1.93
470.507	1.81
470.711	1.67
470.915	1.71
471.119	1.59
471.324	1.43
471.528	1.42
471.732	1.49
471.936	1.46
472.14	1.56
472.344	1.59
472.548	1.67
472.752	1.86
472.956	2.09
473.16	2.05
473.364	1.99
473.568	2
473.772	1.95
473.976	1.78
474.18	1.75
474.384	1.81
474.588	1.7
474.792	1.55
474.995	1.61
475.199	1.69
475.403	1.81
475.607	1.91
475.811	1.91
476.015	1.96
476.218	1.97
476.422	1.78
476.626	1.81
476.83	1.91
477.033	1.81
477.237	1.64
477.441	1.79
477.644	1.77
477.848	1.71
478.052	1.69
478.255	1.79
478.459	1.74
478.663	1.86
478.866	1.89
479.07	1.91
479.273	2.07
479.477	2.15
479.681	2.07
479.884	2.06
480.088	2.03
480.291	1.91
480.495	1.82
480.698	1.8
480.901	1.89
481.105	2.03
481.308	1.99
481.512	2.02
481.715	2.09
481.919	2.09
482.122	2.04
482.325	2.06
482.529	2.08
482.732	2.08
482.935	1.97
483.138	1.92
483.342	2.03
483.545	2.12
483.748	2.1
483.952	2.16
484.155	2.3
484.358	2.24
484.561	2.14
484.764	2.12
484.967	2.24
485.171	2.3
485.374	2.29
485.577	2.43
485.78	2.44
485.983	2.41
486.186	2.24
486.389	2.19
486.592	2.13
486.795	2.18
486.998	2.09
487.201	2.15
487.404	2.33
487.607	2.35
487.81	2.33
488.013	2.39
488.216	2.39
488.419	2.3
488.622	2.24
488.825	2.18
489.028	2.11
489.231	2.04
489.433	1.95
489.636	1.88
489.839	1.9
490.042	1.88
490.245	1.85
490.447	1.96
490.65	2.02
490.853	2.08
491.056	2.14
491.258	2.24
491.461	2.19
491.664	2.3
491.866	2.19
492.069	2.25
492.272	2.15
492.474	2.22
492.677	2.19
492.879	2.29
493.082	2.37
493.285	2.54
493.487	2.53
493.69	2.47
493.892	2.39
494.095	2.29
494.297	2.23
494.5	2.23
494.702	2.23
494.905	2.33
495.107	2.37
495.309	2.38
495.512	2.4
495.714	2.48
495.917	2.49
496.119	2.45
496.321	2.51
496.524	2.53
496.726	2.51
496.928	2.54
497.13	2.56
497.333	2.51
497.535	2.56
497.737	2.58
497.939	2.54
498.142	2.57
498.344	2.54
498.546	2.41
498.748	2.42
498.95	2.54
499.152	2.51
499.355	2.55
499.557	2.66
499.759	2.76
499.961	2.72
500.163	2.77
500.365	2.8
500.567	2.85
500.769	2.72
500.971	2.72
501.173	2.65
501.375	2.67
501.577	2.57
501.779	2.6
501.981	2.58
502.183	2.66
502.385	2.62
502.587	2.62
502.788	2.69
502.99	2.72
503.192	2.79
503.394	2.74
503.596	2.8
503.798	2.83
503.999	2.87
504.201	2.83
504.403	2.99
504.605	3
504.806	2.92
505.008	2.93
505.21	2.99
505.411	2.99
505.613	2.99
505.815	3.03
506.016	3.07
506.218	3.11
506.42	3.1
506.621	3.16
506.823	3.25
507.024	3.2
507.226	3.16
507.427	3.15
507.629	3.16
507.83	3.16
508.032	3.17
508.233	3.27
508.435	3.3
508.636	3.37
508.838	3.34
509.039	3.32
509.24	3.3
509.442	3.35
509.643	3.28
509.845	3.29
510.046	3.43
510.247	3.46
510.448	3.48
510.65	3.54
510.851	3.66
511.052	3.61
511.254	3.58
511.455	3.68
511.656	3.74
511.857	3.79
512.058	3.82
512.26	3.81
512.461	3.72
512.662	3.72
512.863	3.6
513.064	3.59
513.265	3.59
513.466	3.67
513.667	3.6
513.868	3.68
514.069	3.74
514.27	3.85
514.471	3.77
514.672	3.79
514.873	3.74
515.074	3.75
515.275	3.6
515.476	3.62
515.677	3.66
515.878	3.81
516.079	3.78
516.28	3.87
516.481	3.98
516.682	3.98
516.882	3.87
517.083	3.91
517.284	3.83
517.485	3.79
517.686	3.79
517.886	3.81
518.087	3.83
518.288	3.93
518.488	3.91
518.689	3.93
518.89	3.88
519.091	3.92
519.291	3.9
519.492	3.94
519.692	4.02
519.893	4.15
520.094	4.08
520.294	4.07
520.495	4.05
520.695	4.05
520.896	4
521.096	4.1
521.297	4.12
521.497	4.11
521.698	4.03
521.898	4.03
522.099	4.02
522.299	4.11
522.499	4.12
522.7	4.15
522.9	4.11
523.101	4.13
523.301	4.1
523.501	4.12
523.702	4.16
523.902	4.3
524.102	4.35
524.302	4.32
524.503	4.35
524.703	4.33
524.903	4.28
525.103	4.19
525.304	4.33
525.504	4.38
525.704	4.48
525.904	4.49
526.104	4.53
526.304	4.43
526.504	4.45
526.705	4.4
526.905	4.47
527.105	4.53
527.305	4.55
527.505	4.44
527.705	4.42
527.905	4.42
528.105	4.38
528.305	4.35
528.505	4.36
528.705	4.46
528.905	4.41
529.105	4.43
529.304	4.54
529.504	4.66
529.704	4.61
529.904	4.62
530.104	4.6
530.304	4.69
530.503	4.6
530.703	4.57
530.903	4.55
531.103	4.61
531.303	4.49
531.502	4.57
531.702	4.66
531.902	4.76
532.101	4.75
532.301	4.78
532.501	4.8
532.7	4.75
532.9	4.74
533.1	4.72
533.299	4.69
533.499	4.73
533.698	4.71
533.898	4.7
534.097	4.74
534.297	4.87
534.496	4.81
534.696	4.88
534.895	4.97
535.095	5.09
535.294	5.04
535.494	5.02
535.693	5.04
535.892	5.01
536.092	4.87
536.291	4.88
536.491	4.97
536.69	5.02
536.889	4.98
537.088	5
537.288	5.08
537.487	5.09
537.686	5.1
537.886	5.2
538.085	5.3
538.284	5.37
538.483	5.35
538.682	5.44
538.882	5.43
539.081	5.48
539.28	5.42
539.479	5.41
539.678	5.32
539.877	5.45
540.076	5.42
540.275	5.44
540.474	5.56
540.673	5.62
540.872	5.52
541.071	5.59
541.27	5.66
541.469	5.71
541.668	5.7
541.867	5.74
542.066	5.76
542.265	5.8
542.464	5.73
542.663	5.74
542.862	5.91
543.06	5.95
543.259	5.99
543.458	6.05
543.657	6.15
543.856	6.11
544.054	6.05
544.253	6
544.452	6.02
544.651	6.12
544.849	6.09
545.048	6.19
545.247	6.24
545.445	6.3
545.644	6.3
545.843	6.32
546.041	6.33
546.24	6.47
546.438	6.55
546.637	6.58
546.836	6.74
547.034	6.82
547.233	6.77
547.431	6.72
547.63	6.75
547.828	6.71
548.027	6.75
548.225	6.8
548.423	6.88
548.622	6.99
548.82	7.01
549.019	7.07
549.217	7.17
549.415	7.18
549.614	7.19
549.812	7.23
550.01	7.22
550.209	7.22
550.407	7.36
550.605	7.35
550.803	7.47
551.002	7.56
551.2	7.63
551.398	7.69
551.596	7.86
551.794	7.88
551.993	7.96
552.191	7.98
552.389	8.08
552.587	8.16
552.785	8.28
552.983	8.33
553.181	8.46
553.379	8.46
553.577	8.46
553.775	8.52
553.973	8.58
554.171	8.69
554.369	8.69
554.567	8.7
554.765	8.75
554.963	8.83
555.161	8.79
555.359	8.95
555.557	9.17
555.755	9.27
555.952	9.34
556.15	9.43
556.348	9.53
556.546	9.56
556.744	9.63
556.941	9.69
557.139	9.8
557.337	9.79
557.535	9.76
557.732	9.84
557.93	10.04
558.128	10.1
558.325	10.24
558.523	10.36
558.721	10.45
558.918	10.43
559.116	10.57
559.313	10.6
559.511	10.79
559.708	10.86
559.906	10.94
560.104	11
560.301	11.13
560.498	11.14
560.696	11.19
560.893	11.31
561.091	11.45
561.288	11.54
561.486	11.6
561.683	11.71
561.88	11.77
562.078	11.84
562.275	11.89
562.473	12.09
562.67	12.24
562.867	12.37
563.064	12.48
563.262	12.51
563.459	12.57
563.656	12.69
563.853	12.79
564.051	12.84
564.248	13.06
564.445	13.17
564.642	13.25
564.839	13.33
565.036	13.54
565.234	13.68
565.431	13.7
565.628	13.82
565.825	13.98
566.022	14.06
566.219	14.07
566.416	14.24
566.613	14.29
566.81	14.36
567.007	14.33
567.204	14.39
567.401	14.4
567.598	14.43
567.795	14.45
567.991	14.53
568.188	14.69
568.385	14.92
568.582	15.03
568.779	15.16
568.976	15.27
569.172	15.35
569.369	15.24
569.566	15.32
569.763	15.4
569.96	15.41
570.156	15.37
570.353	15.48
570.55	15.56
570.746	15.54
570.943	15.63
571.14	15.69
571.336	15.79
571.533	15.87
571.729	15.95
571.926	15.98
572.123	16.06
572.319	16.05
572.516	16.06
572.712	16.13
572.909	16.16
573.105	16.25
573.302	16.29
573.498	16.36
573.695	16.38
573.891	16.51
574.087	16.49
574.284	16.52
574.48	16.41
574.677	16.45
574.873	16.44
575.069	16.52
575.266	16.61
575.462	16.67
575.658	16.76
575.854	16.74
576.051	16.77
576.247	16.72
576.443	16.66
576.639	16.58
576.835	16.55
577.032	16.51
577.228	16.63
577.424	16.79
577.62	16.7
577.816	16.8
578.012	16.81
578.208	16.74
578.404	16.77
578.6	16.87
578.796	16.83
578.993	16.85
579.189	16.81
579.384	16.65
579.58	16.55
579.776	16.58
579.972	16.55
580.168	16.53
580.364	16.66
580.56	16.67
580.756	16.65
580.952	16.57
581.148	16.61
581.343	16.55
581.539	16.61
581.735	16.64
581.931	16.71
582.127	16.71
582.322	16.67
582.518	16.77
582.714	16.67
582.909	16.56
583.105	16.44
583.301	16.41
583.496	16.32
583.692	16.28
583.888	16.3
584.083	16.45
584.279	16.44
584.474	16.35
584.67	16.45
584.866	16.47
585.061	16.37
585.257	16.49
585.452	16.48
585.648	16.39
585.843	16.4
586.039	16.48
586.234	16.36
586.429	16.35
586.625	16.46
586.82	16.4
587.015	16.32
587.211	16.23
587.406	16.3
587.601	16.23
587.797	16.24
587.992	16.2
588.187	16.4
588.383	16.27
588.578	16.16
588.773	16.23
588.968	16.32
589.163	16.27
589.359	16.29
589.554	16.45
589.749	16.45
589.944	16.5
590.139	16.46
590.334	16.56
590.529	16.52
590.724	16.54
590.919	16.59
591.114	16.59
591.309	16.69
591.504	16.78
591.699	16.79
591.894	16.79
592.089	16.86
592.284	16.81
592.479	16.9
592.674	16.93
592.869	16.93
593.064	17.03
593.259	17.13
593.454	17.17
593.648	17.2
593.843	17.23
594.038	17.22
594.233	17.19
594.428	17.14
594.622	17.21
594.817	17.34
595.012	17.38
595.206	17.45
595.401	17.55
595.596	17.62
595.79	17.77
595.985	17.91
596.18	17.97
596.374	18.07
596.569	18.09
596.763	17.98
596.958	18
597.153	18.11
597.347	18.09
597.542	18.22
597.736	18.3
597.931	18.38
598.125	18.44
598.319	18.63
598.514	18.72
598.708	18.87
598.903	18.95
599.097	18.97
599.291	18.9
599.486	18.87
599.68	18.83
599.874	18.9
600.069	18.97
600.263	19.05
600.457	19.17
600.651	19.22
600.846	19.25
601.04	19.28
601.234	19.33
601.428	19.41
601.622	19.49
601.817	19.45
602.011	19.55
602.205	19.67
602.399	19.54
602.593	19.52
602.787	19.61
602.981	19.53
603.175	19.46
603.369	19.48
603.563	19.55
603.757	19.58
603.951	19.58
604.145	19.59
604.339	19.64
604.533	19.53
604.727	19.4
604.921	19.46
605.115	19.48
605.309	19.62
605.502	19.65
605.696	19.66
605.89	19.55
606.084	19.42
606.278	19.24
606.471	19.12
606.665	18.94
606.859	18.78
607.053	18.77
607.246	18.71
607.44	18.71
607.634	18.8
607.827	18.93
608.021	18.77
608.214	18.75
608.408	18.69
608.602	18.59
608.795	18.45
608.989	18.48
609.182	18.4
609.376	18.3
609.569	18.14
609.763	17.96
609.956	17.89
610.15	17.75
610.343	17.75
610.537	17.75
610.73	17.83
610.923	17.75
611.117	17.7
611.31	17.63
611.504	17.62
611.697	17.47
611.89	17.39
612.083	17.37
612.277	17.33
612.47	17.2
612.663	17.16
612.856	17.11
613.05	17
613.243	16.9
613.436	16.83
613.629	16.77
613.822	16.68
614.015	16.62
614.209	16.46
614.402	16.42
614.595	16.39
614.788	16.25
614.981	16.09
615.174	15.98
615.367	15.84
615.56	15.75
615.753	15.81
615.946	15.75
616.139	15.8
616.332	15.91
616.525	15.87
616.718	15.89
616.911	15.9
617.103	15.86
617.296	15.74
617.489	15.61
617.682	15.42
617.875	15.42
618.067	15.32
618.26	15.18
618.453	15.2
618.646	15.2
618.838	15.19
619.031	15.23
619.224	15.26
619.417	15.26
619.609	15.32
619.802	15.19
619.994	15.13
620.187	15.1
620.38	15.01
620.572	14.82
620.765	14.81
620.957	14.72
621.15	14.62
621.342	14.65
621.535	14.73
621.727	14.68
621.92	14.69
622.112	14.66
622.305	14.65
622.497	14.51
622.69	14.48
622.882	14.46
623.074	14.57
623.267	14.53
623.459	14.5
623.651	14.53
623.844	14.61
624.036	14.54
624.228	14.45
624.42	14.44
624.613	14.56
624.805	14.47
624.997	14.47
625.189	14.41
625.381	14.51
625.574	14.32
625.766	14.17
625.958	14.1
626.15	14.21
626.342	14.16
626.534	14.15
626.726	14.2
626.918	14.17
627.11	14.09
627.302	14.02
627.494	13.93
627.686	13.91
627.878	13.83
628.07	13.86
628.262	13.79
628.454	13.88
628.646	13.94
628.838	14
629.029	13.86
629.221	13.89
629.413	13.77
629.605	13.64
629.797	13.6
629.989	13.63
630.18	13.51
630.372	13.39
630.564	13.39
630.755	13.34
630.947	13.33
631.139	13.31
631.33	13.26
631.522	13.37
631.714	13.34
631.905	13.3
632.097	13.28
632.289	13.38
632.48	13.28
632.672	13.13
632.863	13.02
633.055	13
633.246	13.01
633.438	12.88
633.629	12.97
633.821	13.1
634.012	13.07
634.203	12.98
634.395	13.01
634.586	12.97
634.777	12.79
634.969	12.81
635.16	12.82
635.351	12.73
635.543	12.83
635.734	12.88
635.925	12.86
636.117	12.91
636.308	12.96
636.499	12.79
636.69	12.72
636.881	12.68
637.073	12.66
637.264	12.66
637.455	12.72
637.646	12.78
637.837	12.85
638.028	12.81
638.219	12.89
638.41	12.85
638.601	12.76
638.792	12.78
638.983	12.66
639.174	12.46
639.365	12.52
639.556	12.47
639.747	12.39
639.938	12.49
640.129	12.57
640.32	12.47
640.511	12.53
640.701	12.66
640.892	12.61
641.083	12.62
641.274	12.67
641.465	12.62
641.655	12.44
641.846	12.41
642.037	12.32
642.228	12.25
642.418	12.38
642.609	12.45
642.8	12.43
642.99	12.43
643.181	12.51
643.372	12.43
643.562	12.31
643.753	12.24
643.943	12.2
644.134	12.1
644.324	12.04
644.515	12.05
644.705	12.14
644.896	12.15
645.086	12.14
645.277	12.12
645.467	12.18
645.658	12.13
645.848	12.11
646.038	12.07
646.229	12.01
646.419	11.87
646.61	11.79
646.8	11.76
646.99	11.76
647.18	11.77
647.371	11.76
647.561	11.72
647.751	11.73
647.941	11.62
648.132	11.57
648.322	11.53
648.512	11.63
648.702	11.6
648.892	11.63
649.082	11.66
649.272	11.52
649.462	11.38
649.653	11.2
649.843	11.15
650.033	11.02
650.223	11.09
650.413	11.1
650.603	11.22
650.793	11.22
650.983	11.25
651.172	11.2
651.362	11.15
651.552	11.02
651.742	10.97
651.932	10.95
652.122	10.91
652.312	10.96
652.502	10.94
652.691	10.88
652.881	10.73
653.071	10.68
653.261	10.49
653.45	10.4
653.64	10.37
653.83	10.3
654.019	10.24
654.209	10.19
654.399	10.15
654.588	10.01
654.778	9.87
654.968	9.8
655.157	9.72
655.347	9.62
655.536	9.54
655.726	9.47
655.915	9.24
656.105	9.2
656.294	9.13
656.484	8.97
656.673	8.84
656.863	8.78
657.052	8.54
657.241	8.34
657.431	8.09
657.62	7.94
657.809	7.68
657.999	7.51
658.188	7.36
658.377	7.29
658.567	7.27
658.756	7.25
658.945	7.2
659.134	6.98
659.324	6.92
659.513	6.81
659.702	6.63
659.891	6.53
660.08	6.45
660.269	6.34
660.458	6.11
660.648	6.03
660.837	5.92
661.026	5.97
661.215	5.76
661.404	5.72
661.593	5.73
661.782	5.46
661.971	5.37
662.16	5.34
662.349	5.29
662.538	5.1
662.726	5.17
662.915	4.93
663.104	4.84
663.293	4.82
663.482	4.83
663.671	4.72
663.86	4.64
664.048	4.59
664.237	4.5
664.426	4.3
664.615	4.23
664.803	4.26
664.992	4.1
665.181	3.96
665.369	3.91
665.558	3.77
665.747	3.65
665.935	3.75
666.124	3.8
666.312	3.82
666.501	3.88
666.69	3.78
666.878	3.66
667.067	3.52
667.255	3.67
667.444	3.94
667.632	4.02
667.82	4.12
668.009	4.12
668.197	3.95
668.386	3.66
668.574	3.84
668.762	3.77
668.951	3.74
669.139	3.74
669.327	3.66
669.516	3.63
669.704	3.56
669.892	3.74
670.08	3.77
670.269	3.73
670.457	3.56
670.645	3.5
670.833	3.59
671.021	3.57
671.21	3.67
671.398	3.93
671.586	3.98
671.774	3.76
671.962	3.74
672.15	3.78
672.338	3.56
672.526	3.75
672.714	3.64
672.902	3.68
673.09	3.81
673.278	4.14
673.466	4.14
673.654	4.38
673.842	4.41
674.03	4.42
674.218	4.1
674.405	4.12
674.593	4.06
674.781	4.23
674.969	4.25
675.157	4.55
675.344	4.62
675.532	4.69
675.72	4.69
675.908	4.66
676.095	4.49
676.283	4.48
676.471	4.68
676.658	4.71
676.846	4.76
677.033	4.84
677.221	4.91
677.409	4.65
677.596	4.74
677.784	4.82
677.971	4.9
678.159	4.9
678.346	5.05
678.534	5.11
678.721	5.28
678.909	5.25
679.096	5.32
679.283	5.63
679.471	5.65
679.658	5.67
679.846	5.9
680.033	6.14
680.22	5.99
680.408	5.97
680.595	5.99
680.782	5.94
680.969	5.97
681.157	6.09
681.344	6.27
681.531	6.3
681.718	6.36
681.905	6.45
682.093	6.58
682.28	6.71
682.467	6.93
682.654	7.04
682.841	7.15
683.028	7.32
683.215	7.51
683.402	7.48
683.589	7.72
683.776	7.86
683.963	7.78
684.15	7.99
684.337	8.29
684.524	8.43
684.711	8.64
684.898	8.78
685.085	8.78
685.271	9.03
685.458	9.17
685.645	9.23
685.832	9.65
686.019	9.95
686.205	10.01
686.392	10.24
686.579	10.47
686.766	10.79
686.952	10.93
687.139	11.51
687.326	11.73
687.512	12.09
687.699	12.3
687.886	12.6
688.072	12.61
688.259	13.06
688.445	13.4
688.632	13.7
688.818	14.39
689.005	14.83
689.191	15.25
689.378	15.86
689.564	16.42
689.751	16.83
689.937	17.42
690.124	17.98
690.31	18.23
690.496	18.78
690.683	19.22
690.869	19.7
691.055	20.01
691.242	20.8
691.428	21.25
691.614	21.77
691.8	22.39
691.987	23.15
692.173	23.62
692.359	24.3
692.545	24.98
692.731	25.63
692.918	26.41
693.104	27.01
693.29	27.93
693.476	28.68
693.662	29.5
693.848	30.15
694.034	30.77
694.22	31.03
694.406	31.7
694.592	32.19
694.778	32.68
694.964	33.36
695.15	34.08
695.336	34.5
695.522	35.46
695.708	36.08
695.894	36.87
696.08	37.71
696.265	38.59
696.451	38.97
696.637	40
696.823	40.69
697.009	41.3
697.194	41.82
697.38	42.61
697.566	42.98
697.751	43.45
697.937	44.36
698.123	45.12
698.308	45.85
698.494	46.51
698.68	47.39
698.865	47.74
699.051	48.33
699.236	48.9
699.422	49.42
699.607	49.91
699.793	50.45
699.978	50.99
700.164	51.25
700.349	52.29
700.535	53.08
700.72	53.71
700.906	54.52
701.091	55.18
701.276	55.52
701.462	56.28
701.647	57.03
701.832	57.61
702.018	58.26
702.203	58.71
702.388	58.9
702.573	59.28
702.759	59.9
702.944	60.47
703.129	60.82
703.314	61.39
703.499	61.84
703.684	61.99
703.87	63.06
704.055	64.03
704.24	64.43
704.425	64.98
704.61	65.39
704.795	65.23
704.98	65.33
705.165	65.24
705.35	65.66
705.535	66.06
705.72	66.14
705.905	66.59
706.09	67.51
706.275	67.53
706.459	67.57
706.644	67.82
706.829	68
707.014	68.11
707.199	68.75
707.384	69.55
707.568	70.18
707.753	70.72
707.938	71.12
708.123	71.51
708.307	71.53
708.492	71.62
708.677	71.72
708.861	71.64
709.046	71.39
709.231	72.02
709.415	72.67
709.6	72.67
709.784	73.1
709.969	73.72
710.153	73.65
710.338	73.67
710.522	74.18
710.707	74.65
710.891	74.61
711.076	74.72
711.26	74.91
711.445	75.15
711.629	75.14
711.813	75.4
711.998	75.98
712.182	75.73
712.366	76.21
712.551	76.9
712.735	77.37
712.919	77.1
713.103	77.79
713.288	77.36
713.472	76.94
713.656	77.69
713.84	77.92
714.024	77.87
714.208	78.12
714.393	78.49
714.577	78.02
714.761	78.12
714.945	78.75
715.129	79.29
715.313	79.38
715.497	79.33
715.681	80
715.865	79.57
716.049	79.51
716.233	79.79
716.417	79.97
716.601	79.63
716.785	79.9
716.968	79.79
717.152	79.79
717.336	80.15
717.52	80.46
717.704	81
717.888	81.56
718.071	81.78
718.255	81.88
718.439	81.7
718.622	81.41
718.806	81.55
718.99	81.43
719.174	81.49
719.357	81.7
719.541	81.97
719.724	82.01
719.908	82.91
720.092	83.18
720.275	83.47
720.459	83.85
720.642	83.61
720.826	83.13
721.009	82.8
721.193	82.15
721.376	82.05
721.559	82.59
721.743	82.84
721.926	83.19
722.11	83.97
722.293	83.36
722.476	83.1
722.66	83.24
722.843	82.86
723.026	82.79
723.21	83.39
723.393	83.81
723.576	83.14
723.759	83.24
723.942	83.9
724.126	84.13
724.309	84.04
724.492	84.58
724.675	84.58
724.858	84.38
725.041	84.87
725.224	84.98
725.407	85.18
725.59	86.13
725.774	85.86
725.957	85.31
726.14	84.97
726.322	85.36
726.505	84.69
726.688	85.43
726.871	85.36
727.054	85.64
727.237	85.29
727.42	85.9
727.603	85.27
727.786	85.55
727.968	85.54
728.151	85
728.334	85.02
728.517	85.14
728.699	85.47
728.882	85.7
729.065	86.68
729.248	86.8
729.43	87.44
729.613	88.58
729.796	89.33
729.978	88.53
730.161	88.47
730.343	87.89
730.526	87.43
730.708	86.61
730.891	87.42
731.073	87.15
731.256	87.11
731.438	86.38
731.621	87.2
731.803	86.8
731.986	87.12
732.168	87.13
732.35	87.8
732.533	87.67
732.715	88.01
732.898	89.64
733.08	89.45
733.262	89.48
733.444	88.99
733.627	89.48
733.809	88.98
733.991	90.64
734.173	90.22
734.355	90.34
734.538	90.49
734.72	89.67
734.902	89.05
735.084	89.8
735.266	90.11
735.448	90.05
735.63	90.49
735.812	91.1
735.994	91.64
736.176	91.7
736.358	91.3
736.54	91.91
736.722	90.63
736.904	89.77
737.086	89.97
737.268	91.32
737.45	91.43
737.632	91.93
737.814	91.04
737.995	91.05
738.177	90.65
738.359	89.25
738.541	89.82
738.723	91.15
738.904	91.8
739.086	91.1
739.268	91.73
739.449	91.88
739.631	91.17
739.813	90.79
739.994	91.86
740.176	91.62
740.358	91.35
740.539	93
740.721	93.32
740.902	93.82
741.084	93.87
741.265	94.21
741.447	93.22
741.628	93.05
741.81	91.04
741.991	92.37
742.172	92.65
742.354	93.26
742.535	93.05
742.717	94.86
742.898	94.66
743.079	94.97
743.261	93.86
743.442	93.18
743.623	93.14
743.804	92.84
743.986	93.54
744.167	93.32
744.348	94.25
744.529	94.25
744.71	92.8
744.891	91.5
745.073	91.71
745.254	91.33
745.435	90.2
745.616	90.56
745.797	89.77
745.978	89.13
746.159	89.88
746.34	89.96
746.521	92.37
746.702	92.3
746.883	93.69
747.064	92.48
747.245	92.51
747.426	91.62
747.606	92.22
747.787	92.12
747.968	91.96
748.149	92.84
748.33	92.2
748.51	92.25
748.691	91.64
748.872	92.74
749.053	92.27
749.233	91.5
749.414	91.48
749.595	89.95
749.775	88.75
749.956	87.43
750.137	88.04
750.317	88.99
750.498	91.25
750.678	92.24
750.859	94.04
751.04	94.01
751.22	92.41
751.4	91.55
751.581	90.28
751.761	90.37
751.942	91.19
752.122	91.97
752.303	91.3
752.483	91.34
752.663	90.93
752.844	89.01
753.024	89.76
753.204	91.37
753.385	92.17
753.565	91.16
753.745	92.31
753.925	91.8
754.106	90.38
754.286	90.7
754.466	90.9
754.646	91.76
754.826	91.12
755.006	90.53
755.187	91.71
755.367	92.01
755.547	91.22
755.727	91.65
755.907	92.29
756.087	92.02
756.267	90.55
756.447	89.2
756.627	88.54
756.807	89.99
756.987	89.19
757.167	90.41
757.346	91.91
757.526	91.21
757.706	90.75
757.886	92.56
758.066	93.5
758.246	95.19
758.425	94.74
758.605	93.62
758.785	90.76
758.965	90.4
759.144	86.92
759.324	88
759.504	88.41
759.683	89.45
759.863	87.62
760.043	87.28
760.222	87.34
760.402	86.09
760.581	84.91
760.761	88.31
760.94	88.54
761.12	90.73
761.299	92.14
761.479	91.93
761.658	88.82
761.838	89.44
762.017	86.44
762.197	86.57
762.376	87.22
762.555	88.94
762.735	89.1
762.914	89.03
763.093	89.21
763.273	89.14
763.452	88.34
763.631	87.94
763.81	87.63
763.99	86.98
764.169	86.75
764.348	84.95
764.527	84.17
764.706	87.48
764.885	87.88
765.064	86.96
765.243	88.99
765.423	90.56
765.602	87.4
765.781	85.27
765.96	84.89
766.139	83.72
766.318	84.45
766.497	85.56
766.676	87.81
766.854	90.08
767.033	91.01
767.212	88.96
767.391	89.75
767.57	89.66
767.749	88.96
767.928	90.22
768.106	90.84
768.285	87.66
768.464	85.68
768.643	84.73
768.821	84.4
769	85.67
769.179	86.84
769.357	86.75
769.536	86.9
769.715	85.01
769.893	85.12
770.072	85.53
770.25	86.03
770.429	86.52
770.607	85.42
770.786	84.22
770.964	84.05
771.143	83.57
771.321	84.01
771.5	87.67
771.678	86.75
771.857	84.76
772.035	86.76
772.213	86.16
772.392	81.22
772.57	83.5
772.748	85.14
772.927	83.82
773.105	83.59
773.283	86.35
773.461	85.62
773.64	86.49
773.818	85.93
773.996	86
774.174	85.06
774.352	80.72
774.531	77.23
774.709	79.53
774.887	78.69
775.065	77.81
775.243	80.73
775.421	82.63
775.599	82.93
775.777	82.29
775.955	80.06
776.133	79.03
776.311	79.43
776.489	76.23
776.667	76.68
776.844	79.92
777.022	79.8
777.2	78.57
777.378	80.26
777.556	81.47
777.734	84.26
777.911	86.54
778.089	86.93
778.267	87.31
778.445	84.36
778.622	80.83
778.8	78.81
778.978	81.48
779.155	79.93
779.333	81.96
779.511	82.92
779.688	85.6
779.866	79.85
780.043	78.89
780.221	78.45
780.398	75.15
780.576	74.77
780.753	78.14
780.931	76.12
781.108	77.51
781.286	80.47
781.463	78.27
781.64	74.13
781.818	77.94
781.995	76.88
782.172	76.73
782.35	75.52
782.527	81.79
782.704	80.97
782.882	82.21
783.059	78.9
783.236	82.02
783.413	80.38
783.59	79.86
783.768	74.68
783.945	81.36
784.122	81.3
784.299	82.11
784.476	82.32
784.653	83
784.83	76.04
785.007	70.58
785.184	72.26
785.361	70.46
785.538	77.66
785.715	80.53
785.892	84.25
786.069	82.71
786.246	84.31
786.423	78.19
786.6	77.13
786.776	79.8
786.953	78.05
787.13	80.35
787.307	80.64
787.484	81.51
787.66	76.98
787.837	77.09
788.014	73.04
788.191	72.51
788.367	70.49
788.544	75.56
788.721	72.49
788.897	72.94
789.074	73.74
789.25	69.1
789.427	69.07
789.603	71.83
789.78	74.47
789.956	74.23
790.133	79.42
790.309	76.96
790.486	78.2
790.662	75.23
790.839	74.07
791.015	74.5
791.192	71.34
791.368	73.38
791.544	72.63
791.721	71.94
791.897	69.82
792.073	68.82
792.249	59.96
792.426	62.59
792.602	68.75
792.778	71.57
792.954	72.33
793.13	77
793.307	70.85
793.483	63.57
793.659	66.18
793.835	73.72
794.011	71.76
794.187	73.36
794.363	69.45
794.539	67.75
794.715	57.53
794.891	58.5
795.067	60.37
795.243	67.62
795.419	66.65
795.595	67.52
795.771	67.77
795.947	69.79
796.122	64.47
796.298	68.14
796.474	71.21
796.65	70.53
796.826	66.11
797.001	65.94
797.177	59.75
797.353	63.38
797.529	64.82
797.704	67.81
797.88	69.12
798.056	64.3
798.231	60.6
798.407	64.27
798.582	65.52
798.758	74.99
798.934	88.31
799.109	87.86
799.285	85.13
799.46	86.79
799.636	78.1
799.811	69.55
799.986	68.53
800.162	67.58
800.337	66.16
800.513	65.21
800.688	62.96
800.863	75.86
801.039	73.16
801.214	65.94
801.389	66.81
801.565	69.85
801.74	52.87
801.915	57.64
802.09	61.11
802.265	67.85
802.441	64.84
802.616	64.75
802.791	64.86
802.966	65.33
803.141	58.69
803.316	57.72
803.491	66.21
803.666	69.55
803.841	68.21
804.016	70.16
804.191	69.05
804.366	60
804.541	51.33
804.716	50.04
804.891	44.38
805.066	52.78
805.241	49.4
805.416	51.91
805.591	53.22
805.765	60.46
805.94	57.79
806.115	62.27
806.29	52.21
806.464	60.12
806.639	55.09
806.814	44.97
806.989	38.84
807.163	60.72
807.338	55.29
807.512	49.52
807.687	46.92
807.862	62.17
808.036	59.25
808.211	63.2
808.385	75.41
808.56	94.24
808.734	96.34
808.909	91.6
809.083	78.18
809.258	82.08
809.432	66.68
809.606	52.18
809.781	50.58
809.955	62.42
810.13	60.44
810.304	61.82
810.478	59.86
810.652	63.17
810.827	60.42
811.001	54.93
811.175	57.57
811.349	59.93
811.524	56.89
811.698	44.8
811.872	38.06
812.046	46.83
812.22	55.88
812.394	54.36
812.568	66.06
812.742	80.31
812.916	72.27
813.09	65.77
813.264	64.05
813.438	65.59
813.612	56.02
813.786	50.54
813.96	57.66
814.134	62.6
814.308	68.7
814.482	70.11
814.656	71.95
814.83	75.14
815.003	72.63
815.177	62.86
815.351	56.33
815.525	57.25
815.698	44.56
815.872	39.25
816.046	23.68
816.219	42.37
816.393	55.05
816.567	61.78
816.74	64.3
816.914	76.61
817.088	78.05
817.261	68.71
817.435	64.28
817.608	65.85
817.782	69.55
817.955	59.61
818.129	50.02
818.302	52.57
818.475	65.82
818.649	54.26
818.822	51.4
818.996	79.12
819.169	76.34
819.342	52.64
819.516	71.69
819.689	75.99
819.862	53.39
820.035	47.85
820.209	48.59
820.382	41.12
820.555	32.71
820.728	22.25
820.901	16.54
821.075	17.34
821.248	23.2
821.421	14.91
821.594	22.69
821.767	52.04
821.94	71.13
822.113	43.26
822.286	49.74
822.459	60.76
822.632	50.86
822.805	25.29
822.978	37.46
823.151	25.32
823.324	7.03
823.496	-18.38
823.669	-12.21
823.842	5.16
824.015	-7.58
824.188	-22.63
824.361	-11.27
824.533	-9.73
824.706	-4.96
824.879	13.17
825.051	45.86
825.224	52.78
825.397	62.2
825.569	42.4
825.742	50.99
825.915	61.97
826.087	71.77
826.26	48.38
826.432	53.72
826.605	47.7
826.777	27.67
826.95	32.44
827.122	24.59
827.295	39.17
827.467	49.53
827.64	26.62
827.812	12.27
827.984	14.71
828.157	-6.64
828.329	-41.4
828.501	-16.32
828.674	11.48
828.846	15.16
829.018	21.24
829.19	1.22
829.363	36.92
829.535	29.87
829.707	27.1
829.879	1.88
830.051	-0.37
830.223	-38.05
830.395	-61.17
830.568	-55.41
830.74	-32.74
830.912	13.5
831.084	-8.94
831.256	-4.2
831.428	-0.57
831.6	-27.27
831.772	-72.76
831.943	-54.12
832.115	-24.43
832.287	-1.49
832.459	15.27
832.631	30.19
832.803	59.37
832.975	86.36
833.146	56.95
833.318	60.36
833.49	58.14
833.662	26.15
833.833	-5.16
834.005	6.76
834.177	13.55
834.348	33.16
834.52	5.13
834.692	4.85
834.863	-19.07
835.035	-17.59
835.206	-102.09
835.378	-36.42
835.549	-62.01
835.721	-38.2
835.892	-25.92
836.064	-3.57
836.235	-16.68
836.407	38.26
836.578	20.78
836.749	-1.11
836.921	-29.28
837.092	-67.37
837.264	-76.51
837.435	-88.64
837.606	-30.09
837.777	8.73
837.949	42.13
838.12	29.3
838.291	48.1
838.462	32.09
838.633	4.86
838.805	-7.81
838.976	17.29
839.147	-43.02
839.318	-53.77
839.489	-92.91
839.66	-84.36
839.831	-33.18
840.002	-20.28
840.173	-55.72
840.344	-5.68
840.515	-10.22
840.686	-149.25
840.857	-74.71
841.028	17.04
841.199	15.56
841.369	-13.43
841.54	-2.23
841.711	11.85
841.882	21.27
842.053	-2.9
842.223	-9.91
842.394	14.48
842.565	38.88
842.736	24.63
842.906	37.03
843.077	46.98
843.248	54.09
843.418	15.01
843.589	-30.19
843.759	17.52
843.93	-3.15
844.101	-22.18
844.271	-14
844.442	0.96
844.612	1.8
844.783	-28.25
844.953	-60.16
845.123	-73.17
845.294	-54.04
845.464	-261.49
845.635	-103.66
845.805	25.43
845.975	22.68
846.146	-55.14
846.316	-39.72
846.486	-12.81
846.656	6.3
846.827	-3.41
846.997	12.22
847.167	50.05
847.337	14.33
847.507	-30.98
847.677	-30.95
847.848	28.21
848.018	19.73
848.188	34.15
848.358	17.74
848.528	18.32
848.698	-22.68
848.868	-91.03
849.038	-192.23
849.208	-66.63
849.378	-5.39
849.548	6.32
849.718	15.23
849.887	30.02
850.057	11.6
850.227	-32.48
850.397	-72.06
850.567	-185.07
850.737	-519.13
850.906	-1665
851.076	-1204.69
851.246	-584.29
851.415	-81.82
851.585	-21.85
851.755	-42.25
851.924	-12.01
852.094	-47.91
852.264	-193.14
852.433	-1566.35
852.603	-306.68
852.772	-272.35
852.942	-113.68
853.111	-77.16
853.281	-19.67
853.45	-5.83
853.62	-59.24
853.789	-52.96
853.959	-16.6
854.128	-15.66
854.297	-54.69
854.467	-91.56
854.636	-110.64
854.805	-44.74
854.975	-90.44
855.144	-129.04
855.313	-56.64
855.482	-363.5
855.652	-203.87
855.821	-144.77
855.99	7.07
856.159	27.27
856.328	41.94
856.497	13
856.667	26.69
856.836	22.4
857.005	-8.41
857.174	-67.78
857.343	-70.72
857.512	-67.29
857.681	-136.91
857.85	-203
858.019	-77.3
858.188	-86.16
858.356	-98.06
858.525	-142.22
858.694	-86.6
858.863	-192.28
859.032	-124.05
859.201	-183.92
859.369	-92.6
859.538	-105.96
859.707	-93.23
859.876	-134.31
860.044	-96.85
860.213	0.5
860.382	-11.92
860.55	-4.67
860.719	35.81
860.888	60.13
861.056	17.63
861.225	-7.42
861.393	57.39
861.562	84.26
861.73	-11.13
861.899	21.99
862.067	-424.14
862.236	-68.25
862.404	-286.17
862.572	-186.6
862.741	-96.52
862.909	-87.63
863.078	-222.43
863.246	-142.71
863.414	-146.62
863.582	-98.94
863.751	-66.62
863.919	-48.3
864.087	7.88
864.255	19.3
864.424	-225.9
864.592	-33.08
864.76	-32.1
864.928	-52.8
865.096	-151.91
865.264	-52.56
865.432	-1193.18
865.6	-46.5
865.768	-108.84
865.936	-80.71
866.104	-125.61
866.272	-188.44
866.44	-454.72
866.608	684.78
866.776	352.32
866.944	3313.95
867.112	-643.22
867.28	-291.13
867.448	-144.83
867.615	-61.58
867.783	-47.62
867.951	-49.64
868.119	12.65
868.286	-20.87
868.454	-160.4
868.622	-183.29
868.789	-243.61
868.957	-4392.86
869.125	-2210.53
869.292	-157
869.46	-197.81
869.627	11.27
869.795	-39.16
869.963	-42.86
870.13	-3.06
870.298	24.96
870.465	-48.61
870.632	-53.47
870.8	-29.03
870.967	-98.3
871.135	-189.86
871.302	-153.87
871.469	-150
871.637	-122.78
871.804	-60.23
871.971	-59.88
872.139	-378.14
872.306	-21.71
872.473	-62.83
872.64	-242.06
872.807	-102.27
872.975	41.16
873.142	-212.73
873.309	1354.05
873.476	64.93
873.643	128.66
873.81	76.51
873.977	97.51
874.144	43.86
874.311	-173.65
874.478	-194.75
874.645	-232.53
874.812	-158.07
874.979	-49.21
875.146	-39.97
875.313	-78.47
875.48	-13.56
875.647	-41.41
875.813	-88.36
875.98	-40.65
876.147	-51.66
876.314	-105.51
876.481	947.11
876.647	-1095.51
876.814	562.69
876.981	-130.38
877.147	-46.99
877.314	13.78
877.481	4.4
877.647	14.6
877.814	-32.35
877.98	-84.09
878.147	-33.52
878.314	65.59
878.48	22.09
878.647	32.7
878.813	77.44
878.979	39.98
879.146	-41.66
879.312	-24.19
879.479	-39.87
879.645	-180.64
879.811	-300
879.978	-618.32
880.144	-189.61
880.31	-109.52
880.477	-341.95
880.643	-390.85
880.809	-163
880.975	-130.89
881.142	-1022.73
881.308	-109.57
881.474	-75.97
881.64	-55.92
881.806	-68.21
881.972	21.17
882.138	68.37
882.304	166.86
882.47	-66.05
882.636	-494.26
882.802	-225.48
882.968	-60.09
883.134	-53.39
883.3	-30
883.466	7.65
883.632	60.49
883.798	5.08
883.964	-19.89
884.129	-28.61
884.295	12.52
884.461	-74.53
884.627	-56.97
884.793	-55.83
884.958	-36.74
885.124	-173.75
885.29	-268.03
885.455	-425.24
885.621	-120.56
885.787	-139.59
885.952	-23.31
886.118	-44.17
886.283	-53.52
886.449	-176.95
886.614	-191.25
886.78	-429.23
886.945	1455.74
887.111	-818.5
887.276	-507.95
887.442	-1159.09
887.607	-530.66
887.773	-424.2
887.938	-366.58
888.103	-504.33
888.269	-290.06
888.434	-572.43
888.599	-193.36
888.764	-34.57
888.93	15.73
889.095	-17.24
889.26	-49.54
889.425	-6.33
889.59	-30.11
889.756	-100.18
889.921	-54.26
890.086	35.32
890.251	10.66
890.416	-107.78
890.581	-1330.65
890.746	169.29
890.911	372.61
891.076	168.05
891.241	-264.18
891.406	90.72
891.571	42.65
891.736	-61.93
891.901	-169.91
892.065	316.48
892.23	67.22
892.395	156.75
892.56	323.41
892.725	-77.34
892.889	-329.27
893.054	-234.7
893.219	-113.43
893.384	-55.77
893.548	-179.27
893.713	-187.79
893.878	-121.96
