Data from Ofra_1a_PS_4CX12_Reflection_3.txt Node
Date: Tue Jul 20 10:55:52 EDT 2021
User: Adam
Spectrometer: FLMT01687
Trigger mode: 0
Integration Time (sec): 1.004000E0
Scans to average: 2
Electric dark correction enabled: true
Nonlinearity correction enabled: false
Boxcar width: 2
XAxis mode: Wavelengths
Number of Pixels in Spectrum: 3648
>>>>>Begin Spectral Data<<<<<
179.494	-380.2
179.716	-574.05
179.937	1204.35
180.158	-1307.64
180.38	205.74
180.601	113.21
180.823	6.55
181.044	-200.15
181.265	-151.55
181.486	232.99
181.708	116.99
181.929	-8500
182.15	-6.91
182.372	183.74
182.593	468.25
182.814	-244.65
183.035	-83.81
183.257	-65.27
183.478	-64.08
183.699	-66.18
183.92	-98.29
184.141	-106.36
184.363	-81.5
184.584	-96.27
184.805	-45.56
185.026	-0.85
185.247	0.85
185.468	-27.31
185.689	-1
185.91	-34.48
186.132	-19.74
186.353	-19.32
186.574	9.18
186.795	13.29
187.016	49.75
187.237	33.02
187.458	52.07
187.679	17.69
187.9	17.64
188.121	12.89
188.342	50.68
188.563	46.19
188.784	86.93
189.005	85.22
189.226	59.12
189.447	31.05
189.667	10.25
189.888	-21.03
190.109	-68.06
190.33	-54.6
190.551	-39.64
190.772	-24.89
190.993	-46.14
191.214	-35.96
191.434	-59.2
191.655	-94.91
191.876	-56.43
192.097	-2.57
192.318	35.57
192.538	17.97
192.759	35.79
192.98	34.72
193.201	16.91
193.421	-5.06
193.642	10.84
193.863	-1.69
194.083	-3.63
194.304	10.25
194.525	12.38
194.745	18.31
194.966	18.31
195.187	15.85
195.407	1.03
195.628	20.02
195.848	5.38
196.069	-8.09
196.29	-19.23
196.51	-15.07
196.731	-61.69
196.951	-82.37
197.172	-62.57
197.392	-62.64
197.613	-32.13
197.833	-19.89
198.054	-4.58
198.274	-4.37
198.495	3.68
198.715	13.33
198.936	27.72
199.156	20.18
199.377	16.91
199.597	23.84
199.817	14.72
200.038	1.4
200.258	23.61
200.479	41.88
200.699	20.4
200.919	5.52
201.14	0.41
201.36	-9.13
201.58	-35.07
201.801	-33.56
202.021	-24.38
202.241	-8.97
202.461	-2.34
202.682	8.01
202.902	21.36
203.122	24.98
203.342	20.54
203.563	2.41
203.783	-19.97
204.003	-41.04
204.223	-22.95
204.443	-35.66
204.663	-56.96
204.884	-26.27
205.104	-27.47
205.324	-46.81
205.544	-70.51
205.764	-14.46
205.984	-9.53
206.204	4.31
206.424	-9.54
206.644	4.19
206.864	-56
207.084	-29.69
207.304	-52.83
207.525	-51.96
207.745	-29.4
207.964	-0.22
208.184	-9.89
208.404	-12.4
208.624	4
208.844	3.3
209.064	-10.35
209.284	-3.42
209.504	-1.43
209.724	-8.05
209.944	-26.78
210.164	-19.69
210.384	-35.39
210.604	-75.01
210.823	-76.36
211.043	-45.41
211.263	-132.65
211.483	-89.61
211.703	-52.44
211.922	-71.34
212.142	-66.46
212.362	-14.23
212.582	-12.42
212.801	-1.82
213.021	2.13
213.241	-10.46
213.461	-25.01
213.68	-7.82
213.9	-11.01
214.12	-34.08
214.339	-36.06
214.559	-22.9
214.779	-32.44
214.998	-21.52
215.218	10.43
215.438	23.87
215.657	9.68
215.877	1.01
216.096	11.41
216.316	6.61
216.535	-6.89
216.755	13.27
216.974	10.8
217.194	-5.96
217.413	-10.43
217.633	-22.19
217.852	-22.36
218.072	-17.19
218.291	-29.63
218.511	-29.82
218.73	-26.72
218.95	-67.72
219.169	-61.2
219.389	-32.51
219.608	-36.4
219.827	-29.72
220.047	-20.39
220.266	-51.07
220.485	-62.28
220.705	-46.86
220.924	-66.28
221.143	-13.13
221.363	3.48
221.582	-0.02
221.801	22.89
222.021	27.15
222.24	24.42
222.459	42.48
222.678	45
222.897	18.69
223.117	23.66
223.336	21.27
223.555	0.68
223.774	-17.15
223.993	10.8
224.213	54.79
224.432	38.18
224.651	30.29
224.87	38.72
225.089	33.5
225.308	18.21
225.527	22.4
225.746	31.16
225.965	3.05
226.184	-5.92
226.404	-17.4
226.623	-11.83
226.842	-15
227.061	-2.48
227.28	3.82
227.499	9.77
227.718	16.31
227.936	16.44
228.155	13.11
228.374	14.68
228.593	15.83
228.812	5.88
229.031	19.85
229.25	13.92
229.469	3.11
229.688	-2.63
229.907	12.96
230.125	-0.68
230.344	4.77
230.563	22.78
230.782	29.14
231.001	20.82
231.22	31.12
231.438	47.65
231.657	46.9
231.876	39.64
232.095	48.11
232.313	43.99
232.532	19.95
232.751	1.52
232.969	0.18
233.188	-7.96
233.407	-1.35
233.625	15.92
233.844	26.37
234.063	21.66
234.281	24.45
234.5	32.14
234.719	23.7
234.937	-10.99
235.156	-14.98
235.374	-21.9
235.593	-30.65
235.811	-2.44
236.03	16.68
236.249	24.38
236.467	23.23
236.686	21.31
236.904	14.15
237.123	15.53
237.341	8.48
237.559	-2.82
237.778	25.48
237.996	0.85
238.215	-48.09
238.433	-83.97
238.652	-24.67
238.87	-48.87
239.088	-54.37
239.307	-8.1
239.525	5.05
239.743	-0.89
239.962	-28.7
240.18	-13.3
240.398	-19.78
240.617	-36.78
240.835	-51.45
241.053	-7.83
241.271	-1.66
241.49	-1.92
241.708	0.32
241.926	3.9
242.144	10.1
242.363	-10.43
242.581	-36.94
242.799	-30.93
243.017	-18.56
243.235	-30.72
243.453	-39.07
243.672	-25.18
243.89	-18.75
244.108	-14.04
244.326	9.7
244.544	26.26
244.762	19.73
244.98	17.59
245.198	17.16
245.416	1.08
245.634	-14
245.852	-19.87
246.07	7.57
246.288	9.2
246.506	12.3
246.724	21.65
246.942	23.22
247.16	10.24
247.378	5.13
247.596	17.59
247.814	-1.45
248.032	-19.95
248.25	13.02
248.468	17.49
248.685	17.8
248.903	14.95
249.121	22.43
249.339	3.47
249.557	-7.35
249.775	-14.74
249.992	-0.01
250.21	-1.43
250.428	9.66
250.646	7.79
250.863	1.82
251.081	-7.4
251.299	-18.66
251.517	-16.46
251.734	-2.98
251.952	3.42
252.17	6.83
252.387	0.58
252.605	-5.36
252.823	-14.34
253.04	19.97
253.258	15.38
253.475	40.62
253.693	36.79
253.911	15.41
254.128	3.56
254.346	14.4
254.563	14.78
254.781	2.39
254.998	22.76
255.216	-12
255.433	-29.52
255.651	-22.82
255.868	-8.24
256.086	3.64
256.303	7.63
256.521	23.18
256.738	10.35
256.956	19.26
257.173	-8.63
257.39	4.77
257.608	-3.14
257.825	2.62
258.043	2.07
258.26	16.04
258.477	14.33
258.695	9.36
258.912	-6.71
259.129	-12.75
259.346	-42.98
259.564	-34.49
259.781	-33.35
259.998	15.14
260.216	12.39
260.433	14.55
260.65	15.61
260.867	24.07
261.084	11.82
261.302	-2.34
261.519	12.31
261.736	-8.85
261.953	-19.38
262.17	-2.52
262.387	2.48
262.604	11.1
262.822	16.34
263.039	20.57
263.256	14.33
263.473	13.77
263.69	-12.45
263.907	6.47
264.124	13.36
264.341	19.89
264.558	18.33
264.775	41.02
264.992	14.92
265.209	2.66
265.426	-24.54
265.643	-5.23
265.86	-19.39
266.077	-3.37
266.294	10.53
266.51	37.3
266.727	33.44
266.944	55.03
267.161	46.88
267.378	46.7
267.595	8.27
267.812	0.34
268.028	-60.63
268.245	-61.62
268.462	-60.91
268.679	-29.12
268.896	-13.95
269.112	8.26
269.329	-18.43
269.546	5.96
269.763	7.27
269.979	-2.84
270.196	0.31
270.413	16.81
270.629	-4.09
270.846	-23.53
271.063	-14.75
271.279	-10.65
271.496	-7.79
271.712	-4.06
271.929	23.76
272.146	16.28
272.362	26.67
272.579	8.72
272.795	16.81
273.012	12.73
273.228	12.96
273.445	-6.43
273.661	-7.42
273.878	-29.02
274.094	-40.5
274.311	-26.78
274.527	-33.93
274.744	5.97
274.96	13.11
275.177	23.94
275.393	26.35
275.609	35.64
275.826	22.39
276.042	15.95
276.259	13.5
276.475	2.16
276.691	-12.85
276.908	-16.62
277.124	-5.19
277.34	-15.14
277.557	-14.45
277.773	-19.62
277.989	-21.55
278.205	-8.92
278.422	-17.48
278.638	-10.78
278.854	5.05
279.07	23.92
279.286	14.54
279.503	27.77
279.719	23.12
279.935	13.67
280.151	-8.23
280.367	-3.12
280.583	-2.07
280.799	-3.35
281.016	-20.5
281.232	-5.34
281.448	-9.22
281.664	-14.11
281.88	-9.56
282.096	3.47
282.312	11.03
282.528	11.43
282.744	9.97
282.96	-8.12
283.176	-33.18
283.392	-84.65
283.608	-58.09
283.824	-66
284.04	-113.74
284.256	-35.74
284.471	1.34
284.687	-0.01
284.903	7.61
285.119	39.15
285.335	26.47
285.551	12.73
285.767	11.53
285.982	10
286.198	-5.37
286.414	4.89
286.63	-29.21
286.846	-50.86
287.061	-34.02
287.277	-47
287.493	-55.56
287.709	-27.9
287.924	-2.71
288.14	12.35
288.356	27.36
288.571	36.68
288.787	27.75
289.003	22.61
289.218	-15.02
289.434	-25.21
289.65	-13.45
289.865	-9.15
290.081	0.4
290.296	8.56
290.512	10.91
290.727	2.65
290.943	11.75
291.159	-4.42
291.374	-25.09
291.59	-17.58
291.805	-33.73
292.021	-45.98
292.236	-44.27
292.451	-30.46
292.667	-38.39
292.882	-18.75
293.098	-32.09
293.313	-33.34
293.529	-33.29
293.744	-51.96
293.959	-54.63
294.175	-33.52
294.39	-16.42
294.605	5.7
294.821	24.73
295.036	23.73
295.251	11.74
295.467	-6.61
295.682	-10.36
295.897	-21.11
296.112	-18.46
296.328	-7.88
296.543	-9.52
296.758	-18.43
296.973	-15.96
297.188	-26.97
297.404	-50.15
297.619	-58.53
297.834	-65.03
298.049	-33.57
298.264	-39.96
298.479	-42.83
298.694	-1.36
298.909	-5.13
299.125	-11.58
299.34	1.18
299.555	2.5
299.77	13.14
299.985	25.39
300.2	25.4
300.415	26.66
300.63	34.62
300.845	22.39
301.06	12.72
301.275	13.65
301.49	12.11
301.704	-0.6
301.919	3.16
302.134	13.01
302.349	12.27
302.564	12.69
302.779	24.26
302.994	23.01
303.209	19.4
303.423	6.95
303.638	3.99
303.853	-30.7
304.068	-35.69
304.283	-34.24
304.497	-40.91
304.712	-22.05
304.927	13.46
305.142	9.07
305.356	6.24
305.571	14.76
305.786	16.05
306	7.24
306.215	15.02
306.43	14.74
306.644	7.72
306.859	-9.09
307.074	-6.36
307.288	0.9
307.503	26.03
307.717	19.65
307.932	25.41
308.147	22.97
308.361	11.21
308.576	-15.78
308.79	-3.25
309.005	-6.04
309.219	11.09
309.434	21.65
309.648	18.04
309.863	17.22
310.077	-0.75
310.292	0.66
310.506	-17.11
310.72	-13.62
310.935	-3.31
311.149	16.46
311.364	10.2
311.578	12.12
311.792	17.45
312.007	9.4
312.221	-15.92
312.435	-9.84
312.649	6.99
312.864	-32.39
313.078	-44.75
313.292	-44.7
313.507	-33.44
313.721	-42.51
313.935	-0.2
314.149	11.27
314.363	30.81
314.578	12.46
314.792	15.16
315.006	-21.76
315.22	-13.22
315.434	-11.71
315.648	-21.95
315.862	-20.52
316.077	-14.3
316.291	-23.07
316.505	-58.65
316.719	-52.96
316.933	-35.95
317.147	-20.32
317.361	-2.16
317.575	13.5
317.789	18.4
318.003	18.24
318.217	26.67
318.431	13.91
318.645	6.08
318.859	11.28
319.073	8.58
319.287	1.18
319.5	4.14
319.714	2.58
319.928	-4.03
320.142	-3.06
320.356	1.73
320.57	-17.66
320.784	-18.68
320.997	-31.02
321.211	-6.82
321.425	-37.15
321.639	-1.73
321.853	18.9
322.066	29.51
322.28	16.93
322.494	24
322.707	22.01
322.921	7.23
323.135	8.29
323.349	5.67
323.562	6.62
323.776	6.76
323.989	14.62
324.203	0.12
324.417	-5.84
324.63	-9
324.844	-33.4
325.057	-78.1
325.271	-60.13
325.485	-48.81
325.698	-29.82
325.912	-1.89
326.125	-1.23
326.339	5.92
326.552	-7.7
326.766	-11.91
326.979	-4.8
327.193	25.12
327.406	-6.44
327.619	-1.5
327.833	-3.15
328.046	-3.94
328.26	-16.61
328.473	5.43
328.686	9.35
328.9	12.5
329.113	5.57
329.326	3.93
329.54	-1.13
329.753	7.72
329.966	8.07
330.179	9.65
330.393	6.44
330.606	9.9
330.819	1.63
331.032	-6.43
331.246	0.63
331.459	25.09
331.672	18.33
331.885	17.68
332.098	20.36
332.311	-0.85
332.525	-14.92
332.738	-2.7
332.951	-8.68
333.164	-0.64
333.377	1.83
333.59	-10.17
333.803	-13.06
334.016	-7.93
334.229	-10.29
334.442	-8.96
334.655	21.22
334.868	5.14
335.081	4.79
335.294	-0.48
335.507	17.47
335.72	1.66
335.933	9.82
336.146	8.18
336.359	16.65
336.572	6.76
336.785	8.81
336.997	6.49
337.21	18.76
337.423	-1.06
337.636	-4.02
337.849	-6.91
338.062	1.83
338.274	19.75
338.487	15.7
338.7	10.84
338.913	20.46
339.125	9.54
339.338	-14.57
339.551	-11.49
339.763	-4.43
339.976	-8.8
340.189	-4.24
340.402	7.15
340.614	13.62
340.827	16.42
341.039	15.17
341.252	22.04
341.465	13.28
341.677	10.05
341.89	6.55
342.102	12.17
342.315	12.2
342.527	11.06
342.74	5.41
342.952	4.44
343.165	4
343.377	3.84
343.59	19.76
343.802	29.21
344.015	36.74
344.227	27.04
344.44	17.89
344.652	-6.01
344.864	-4.95
345.077	-10.99
345.289	11.84
345.502	22.91
345.714	40.58
345.926	38.8
346.139	15.79
346.351	-4.72
346.563	4.27
346.775	11.02
346.988	7.98
347.2	21.74
347.412	25.78
347.624	17.71
347.837	12.25
348.049	4.93
348.261	-1.37
348.473	-20.1
348.685	-33.62
348.897	-36.78
349.11	-17.53
349.322	-6.34
349.534	11.82
349.746	14.25
349.958	3.04
350.17	-4.53
350.382	0.38
350.594	6.61
350.806	37.97
351.018	46.86
351.23	46.19
351.442	45
351.654	40.44
351.866	18.92
352.078	25.89
352.29	35.9
352.502	27.04
352.714	29.2
352.926	31.09
353.138	29.85
353.35	13.93
353.561	27.51
353.773	15.26
353.985	20.97
354.197	6.96
354.409	8.5
354.621	-21.86
354.832	-15.49
355.044	-33.02
355.256	-40.93
355.468	-61.73
355.679	-21.22
355.891	-15.29
356.103	-7.12
356.314	-12.88
356.526	-11.24
356.738	-24.9
356.949	-30.59
357.161	-24.54
357.373	-6.26
357.584	-1.05
357.796	12.49
358.008	16.09
358.219	13.76
358.431	9.83
358.642	4.83
358.854	7.74
359.065	-10.31
359.277	-9.47
359.488	-17
359.7	-1.01
359.911	-10.6
360.123	19.19
360.334	18.39
360.546	11.88
360.757	15.68
360.969	13.85
361.18	-1.98
361.391	7.89
361.603	23.61
361.814	1.79
362.025	9.32
362.237	9.57
362.448	12.79
362.659	4.69
362.871	-7.6
363.082	-4.63
363.293	2.15
363.504	-26.2
363.716	-10.06
363.927	22.09
364.138	7.3
364.349	-14.23
364.56	-14.16
364.772	-23.54
364.983	-17.76
365.194	-4.98
365.405	2.2
365.616	7.59
365.827	-5.17
366.038	-13.39
366.25	-8.21
366.461	-7.31
366.672	-1.81
366.883	2.77
367.094	-14.4
367.305	-25.83
367.516	-18.16
367.727	-21.44
367.938	-14.91
368.149	-9.06
368.36	-13.97
368.571	-33.16
368.781	-33.95
368.992	-36.59
369.203	-28.58
369.414	-24.93
369.625	-17.25
369.836	-4.22
370.047	-5.93
370.258	-7.99
370.468	-8.57
370.679	-10.6
370.89	-16.54
371.101	16.49
371.312	9.8
371.522	21.38
371.733	19.07
371.944	4.76
372.155	-9.51
372.365	-0.01
372.576	-4.76
372.787	13.09
372.997	14.59
373.208	-0.58
373.419	-1.46
373.629	-12.66
373.84	-34.38
374.05	-22.86
374.261	-26.3
374.472	-22.08
374.682	-5.92
374.893	-8.06
375.103	-1.38
375.314	5.08
375.524	13.27
375.735	16.39
375.945	22.75
376.156	19.41
376.366	16.19
376.577	7.95
376.787	5.43
376.997	6.74
377.208	6.01
377.418	7.72
377.629	2.64
377.839	2.26
378.049	-0.95
378.26	-5.9
378.47	-8.03
378.68	-0.79
378.89	0.1
379.101	9.25
379.311	8.31
379.521	2.21
379.732	0.66
379.942	-6.5
380.152	-14.31
380.362	-14.19
380.572	4.15
380.783	19.54
380.993	26.69
381.203	24.04
381.413	27.2
381.623	19.59
381.833	18.8
382.043	10.74
382.253	12.97
382.463	17.96
382.674	16.64
382.884	7.89
383.094	7.3
383.304	11.77
383.514	6.38
383.724	-0.72
383.934	-8.83
384.144	1.56
384.353	-7.28
384.563	-1.02
384.773	12.72
384.983	12.35
385.193	6.85
385.403	11.35
385.613	6.52
385.823	1.03
386.033	5.04
386.242	4.52
386.452	5.71
386.662	6.76
386.872	10.07
387.082	7.34
387.291	5.7
387.501	9.67
387.711	12.99
387.921	2.98
388.13	7.23
388.34	8.08
388.55	-1.64
388.759	-12.55
388.969	-9.43
389.179	-11.11
389.388	-15.19
389.598	-14.15
389.807	-9.49
390.017	-8.66
390.227	-10.42
390.436	-4.82
390.646	-0.04
390.855	1.76
391.065	3.41
391.274	6.87
391.484	5.07
391.693	4.18
391.903	3.67
392.112	4.69
392.322	1.31
392.531	1.63
392.74	1.22
392.95	2.18
393.159	1.99
393.369	3.97
393.578	4.47
393.787	4.21
393.997	3.87
394.206	2.52
394.415	3.55
394.625	2.43
394.834	0.79
395.043	1.48
395.252	4.61
395.462	4.61
395.671	5.67
395.88	8.11
396.089	7.17
396.298	6.05
396.508	5.43
396.717	5.37
396.926	5.03
397.135	5.24
397.344	4.7
397.553	4.74
397.762	5.87
397.971	5.96
398.181	5.72
398.39	5.98
398.599	6.26
398.808	5.27
399.017	5.7
399.226	6.36
399.435	6.57
399.644	6.72
399.853	7.34
400.062	6.96
400.27	6.57
400.479	6.63
400.688	6.51
400.897	6.21
401.106	6.59
401.315	6.7
401.524	6.55
401.733	6.08
401.941	6.37
402.15	6.19
402.359	6.11
402.568	6.18
402.777	6.61
402.985	6.01
403.194	5.63
403.403	5.59
403.612	5.41
403.82	5.09
404.029	5.49
404.238	5.73
404.446	6.1
404.655	6.01
404.864	6.23
405.072	6.19
405.281	6.07
405.489	5.82
405.698	6.02
405.906	6.1
406.115	6.02
406.324	6.2
406.532	6.29
406.741	6.34
406.949	6.2
407.158	6.36
407.366	6.15
407.574	6.18
407.783	6.28
407.991	6.27
408.2	6.28
408.408	6.34
408.617	6.2
408.825	5.97
409.033	6.01
409.242	5.93
409.45	5.97
409.658	6.07
409.867	6.14
410.075	6.26
410.283	6.11
410.491	6
410.7	5.9
410.908	5.84
411.116	5.82
411.324	5.91
411.533	5.88
411.741	5.9
411.949	5.8
412.157	5.67
412.365	5.74
412.573	5.74
412.781	5.66
412.99	5.75
413.198	5.9
413.406	5.89
413.614	6.04
413.822	6.16
414.03	6.07
414.238	5.92
414.446	5.84
414.654	5.63
414.862	5.51
415.07	5.57
415.278	5.73
415.486	5.6
415.694	5.76
415.902	5.79
416.109	5.75
416.317	5.54
416.525	5.54
416.733	5.44
416.941	5.36
417.149	5.22
417.357	5.3
417.564	5.25
417.772	5.24
417.98	5.29
418.188	5.35
418.395	5.06
418.603	5.01
418.811	4.97
419.019	4.8
419.226	4.91
419.434	4.98
419.642	4.94
419.849	4.92
420.057	5.13
420.265	5
420.472	4.98
420.68	5.13
420.887	5.06
421.095	4.97
421.302	5.12
421.51	5
421.717	5.08
421.925	5.12
422.132	5.23
422.34	4.96
422.547	5.13
422.755	5.08
422.962	5.17
423.17	4.9
423.377	5
423.585	5.23
423.792	5.16
423.999	5.02
424.207	4.97
424.414	5.03
424.621	4.85
424.829	4.84
425.036	5.1
425.243	5.32
425.451	5.28
425.658	5.24
425.865	5.28
426.072	5.07
426.28	4.99
426.487	5.03
426.694	4.85
426.901	4.99
427.108	4.96
427.315	5.07
427.523	5.05
427.73	5.28
427.937	5.1
428.144	5.13
428.351	5.09
428.558	5.09
428.765	4.98
428.972	5.03
429.179	4.89
429.386	4.87
429.593	4.76
429.8	4.8
430.007	4.87
430.214	5.05
430.421	5.19
430.628	5.26
430.835	5.33
431.042	5.24
431.249	5.29
431.456	5.2
431.662	5.44
431.869	5.56
432.076	5.62
432.283	5.57
432.49	5.62
432.697	5.46
432.903	5.24
433.11	5.32
433.317	5.27
433.524	5.23
433.73	5.18
433.937	5.43
434.144	5.25
434.35	5.21
434.557	5.26
434.764	5.32
434.97	5.13
435.177	5.51
435.384	5.57
435.59	5.6
435.797	5.66
436.003	5.71
436.21	5.45
436.416	5.51
436.623	5.55
436.829	5.54
437.036	5.54
437.242	5.63
437.449	5.59
437.655	5.72
437.862	5.9
438.068	5.94
438.275	5.99
438.481	6.09
438.687	5.94
438.894	5.97
439.1	5.97
439.307	5.94
439.513	6.06
439.719	6.1
439.926	5.96
440.132	6.1
440.338	6.09
440.544	6.07
440.751	6.05
440.957	6.16
441.163	6.01
441.369	6.01
441.575	5.94
441.782	6
441.988	5.96
442.194	5.94
442.4	5.96
442.606	6.13
442.812	6.23
443.018	6.23
443.224	6.43
443.431	6.38
443.637	6.24
443.843	6.22
444.049	6.27
444.255	6.21
444.461	6.23
444.667	6.17
444.873	6.05
445.079	6.03
445.284	6.13
445.49	6.17
445.696	6.25
445.902	6.35
446.108	6.39
446.314	6.26
446.52	6.35
446.726	6.46
446.931	6.38
447.137	6.38
447.343	6.47
447.549	6.41
447.755	6.36
447.96	6.46
448.166	6.47
448.372	6.4
448.578	6.43
448.783	6.5
448.989	6.59
449.195	6.65
449.4	6.76
449.606	6.75
449.812	6.65
450.017	6.61
450.223	6.5
450.428	6.48
450.634	6.47
450.84	6.43
451.045	6.43
451.251	6.52
451.456	6.57
451.662	6.67
451.867	6.77
452.073	6.78
452.278	6.68
452.483	6.7
452.689	6.68
452.894	6.82
453.1	6.74
453.305	6.86
453.51	6.85
453.716	6.84
453.921	6.79
454.127	6.93
454.332	6.95
454.537	6.93
454.742	6.89
454.948	6.82
455.153	6.88
455.358	6.87
455.563	7
455.769	7.03
455.974	7.04
456.179	6.91
456.384	6.9
456.589	6.77
456.795	6.79
457	6.8
457.205	6.84
457.41	6.78
457.615	6.83
457.82	6.9
458.025	6.99
458.23	6.98
458.435	7.02
458.64	7.03
458.845	7.02
459.05	6.99
459.255	7.08
459.46	7.11
459.665	7.22
459.87	7.08
460.075	7.08
460.28	7.08
460.485	7.18
460.69	7.13
460.895	7.36
461.099	7.31
461.304	7.22
461.509	7.18
461.714	7.19
461.919	7.1
462.123	7.14
462.328	7.1
462.533	7.05
462.738	7.05
462.942	7.02
463.147	7.07
463.352	7.15
463.556	7.26
463.761	7.22
463.966	7.33
464.17	7.44
464.375	7.55
464.58	7.5
464.784	7.54
464.989	7.53
465.193	7.42
465.398	7.39
465.602	7.62
465.807	7.66
466.011	7.7
466.216	7.71
466.42	7.71
466.625	7.6
466.829	7.59
467.034	7.69
467.238	7.81
467.443	7.83
467.647	7.83
467.851	7.77
468.056	7.76
468.26	7.76
468.464	7.81
468.669	7.8
468.873	7.99
469.077	7.94
469.282	7.95
469.486	7.99
469.69	8.13
469.894	8.15
470.099	8.21
470.303	8.19
470.507	8.19
470.711	8.05
470.915	8.06
471.119	8.04
471.324	8.05
471.528	8.1
471.732	8.2
471.936	8.2
472.14	8.27
472.344	8.41
472.548	8.44
472.752	8.39
472.956	8.36
473.16	8.35
473.364	8.28
473.568	8.19
473.772	8.17
473.976	8.22
474.18	8.19
474.384	8.24
474.588	8.36
474.792	8.4
474.995	8.38
475.199	8.41
475.403	8.39
475.607	8.38
475.811	8.34
476.015	8.35
476.218	8.38
476.422	8.4
476.626	8.4
476.83	8.53
477.033	8.59
477.237	8.51
477.441	8.54
477.644	8.51
477.848	8.44
478.052	8.39
478.255	8.45
478.459	8.4
478.663	8.51
478.866	8.54
479.07	8.52
479.273	8.58
479.477	8.57
479.681	8.57
479.884	8.59
480.088	8.68
480.291	8.65
480.495	8.71
480.698	8.67
480.901	8.62
481.105	8.59
481.308	8.62
481.512	8.62
481.715	8.7
481.919	8.76
482.122	8.8
482.325	8.88
482.529	8.89
482.732	8.8
482.935	8.77
483.138	8.7
483.342	8.66
483.545	8.67
483.748	8.75
483.952	8.81
484.155	8.9
484.358	8.91
484.561	8.94
484.764	8.84
484.967	8.8
485.171	8.81
485.374	8.74
485.577	8.67
485.78	8.73
485.983	8.74
486.186	8.73
486.389	8.82
486.592	8.91
486.795	8.86
486.998	8.8
487.201	8.78
487.404	8.91
487.607	8.87
487.81	8.81
488.013	8.87
488.216	8.81
488.419	8.66
488.622	8.65
488.825	8.71
489.028	8.71
489.231	8.72
489.433	8.65
489.636	8.6
489.839	8.67
490.042	8.7
490.245	8.7
490.447	8.77
490.65	8.85
490.853	8.83
491.056	8.78
491.258	8.82
491.461	8.77
491.664	8.72
491.866	8.69
492.069	8.77
492.272	8.75
492.474	8.71
492.677	8.68
492.879	8.69
493.082	8.63
493.285	8.69
493.487	8.76
493.69	8.74
493.892	8.67
494.095	8.65
494.297	8.59
494.5	8.55
494.702	8.62
494.905	8.68
495.107	8.66
495.309	8.69
495.512	8.72
495.714	8.7
495.917	8.75
496.119	8.82
496.321	8.79
496.524	8.74
496.726	8.73
496.928	8.7
497.13	8.65
497.333	8.66
497.535	8.64
497.737	8.64
497.939	8.62
498.142	8.65
498.344	8.66
498.546	8.71
498.748	8.75
498.95	8.82
499.152	8.79
499.355	8.75
499.557	8.75
499.759	8.76
499.961	8.71
500.163	8.77
500.365	8.81
500.567	8.81
500.769	8.78
500.971	8.77
501.173	8.69
501.375	8.76
501.577	8.73
501.779	8.76
501.981	8.83
502.183	8.86
502.385	8.89
502.587	8.91
502.788	8.91
502.99	8.91
503.192	8.96
503.394	8.89
503.596	8.88
503.798	8.83
503.999	8.87
504.201	8.79
504.403	8.79
504.605	8.86
504.806	8.97
505.008	8.95
505.21	9.02
505.411	9.07
505.613	9.11
505.815	9.1
506.016	9.14
506.218	9.23
506.42	9.16
506.621	9.16
506.823	9.09
507.024	9.01
507.226	8.96
507.427	9.02
507.629	8.99
507.83	9.08
508.032	9.12
508.233	9.16
508.435	9.11
508.636	9.16
508.838	9.12
509.039	9.07
509.24	9.06
509.442	9.14
509.643	9.08
509.845	9.11
510.046	9.2
510.247	9.2
510.448	9.15
510.65	9.22
510.851	9.21
511.052	9.18
511.254	9.23
511.455	9.3
511.656	9.23
511.857	9.26
512.058	9.24
512.26	9.2
512.461	9.16
512.662	9.26
512.863	9.16
513.064	9.19
513.265	9.19
513.466	9.24
513.667	9.23
513.868	9.3
514.069	9.34
514.27	9.39
514.471	9.37
514.672	9.35
514.873	9.37
515.074	9.36
515.275	9.31
515.476	9.31
515.677	9.31
515.878	9.38
516.079	9.35
516.28	9.35
516.481	9.39
516.682	9.41
516.882	9.36
517.083	9.38
517.284	9.41
517.485	9.35
517.686	9.41
517.886	9.36
518.087	9.34
518.288	9.28
518.488	9.27
518.689	9.23
518.89	9.24
519.091	9.31
519.291	9.34
519.492	9.38
519.692	9.39
519.893	9.47
520.094	9.4
520.294	9.45
520.495	9.49
520.695	9.48
520.896	9.49
521.096	9.53
521.297	9.5
521.497	9.45
521.698	9.44
521.898	9.43
522.099	9.45
522.299	9.48
522.499	9.49
522.7	9.52
522.9	9.48
523.101	9.48
523.301	9.47
523.501	9.48
523.702	9.44
523.902	9.47
524.102	9.54
524.302	9.58
524.503	9.56
524.703	9.64
524.903	9.63
525.103	9.57
525.304	9.57
525.504	9.68
525.704	9.6
525.904	9.61
526.104	9.63
526.304	9.65
526.504	9.64
526.705	9.68
526.905	9.71
527.105	9.71
527.305	9.69
527.505	9.64
527.705	9.66
527.905	9.71
528.105	9.74
528.305	9.73
528.505	9.76
528.705	9.8
528.905	9.75
529.105	9.72
529.304	9.77
529.504	9.81
529.704	9.78
529.904	9.83
530.104	9.82
530.304	9.75
530.503	9.71
530.703	9.7
530.903	9.68
531.103	9.73
531.303	9.77
531.502	9.84
531.702	9.92
531.902	9.99
532.101	10.01
532.301	10.04
532.501	10.08
532.7	10.1
532.9	10.1
533.1	10.1
533.299	10.11
533.499	10.05
533.698	9.97
533.898	9.98
534.097	10.06
534.297	10.03
534.496	9.97
534.696	10.03
534.895	10.05
535.095	10.08
535.294	10.11
535.494	10.16
535.693	10.19
535.892	10.16
536.092	10.07
536.291	10.17
536.491	10.24
536.69	10.26
536.889	10.22
537.088	10.28
537.288	10.24
537.487	10.31
537.686	10.29
537.886	10.4
538.085	10.38
538.284	10.42
538.483	10.37
538.682	10.41
538.882	10.41
539.081	10.48
539.28	10.47
539.479	10.45
539.678	10.45
539.877	10.47
540.076	10.46
540.275	10.5
540.474	10.5
540.673	10.62
540.872	10.67
541.071	10.72
541.27	10.74
541.469	10.76
541.668	10.73
541.867	10.75
542.066	10.78
542.265	10.85
542.464	10.92
542.663	11.01
542.862	11.12
543.06	11.22
543.259	11.33
543.458	11.43
543.657	11.43
543.856	11.42
544.054	11.35
544.253	11.28
544.452	11.21
544.651	11.2
544.849	11.18
545.048	11.21
545.247	11.28
545.445	11.34
545.644	11.38
545.843	11.44
546.041	11.46
546.24	11.48
546.438	11.57
546.637	11.61
546.836	11.62
547.034	11.7
547.233	11.79
547.431	11.81
547.63	11.79
547.828	11.85
548.027	11.89
548.225	11.89
548.423	11.92
548.622	12.07
548.82	12.09
549.019	12.13
549.217	12.21
549.415	12.3
549.614	12.48
549.812	12.56
550.01	12.65
550.209	12.7
550.407	12.74
550.605	12.57
550.803	12.63
551.002	12.69
551.2	12.73
551.398	12.77
551.596	12.98
551.794	12.99
551.993	13.05
552.191	13.16
552.389	13.22
552.587	13.27
552.785	13.38
552.983	13.46
553.181	13.47
553.379	13.53
553.577	13.5
553.775	13.52
553.973	13.63
554.171	13.7
554.369	13.82
554.567	13.94
554.765	14.02
554.963	14.07
555.161	14.15
555.359	14.23
555.557	14.28
555.755	14.43
555.952	14.52
556.15	14.58
556.348	14.67
556.546	14.8
556.744	14.82
556.941	14.83
557.139	14.97
557.337	14.99
557.535	15.04
557.732	15.08
557.93	15.27
558.128	15.32
558.325	15.49
558.523	15.59
558.721	15.78
558.918	15.81
559.116	16
559.313	16.08
559.511	16.24
559.708	16.34
559.906	16.51
560.104	16.5
560.301	16.55
560.498	16.61
560.696	16.68
560.893	16.75
561.091	16.9
561.288	17.14
561.486	17.18
561.683	17.3
561.88	17.47
562.078	17.6
562.275	17.62
562.473	17.85
562.67	17.98
562.867	18.05
563.064	18.15
563.262	18.22
563.459	18.36
563.656	18.47
563.853	18.47
564.051	18.6
564.248	18.74
564.445	18.78
564.642	18.9
564.839	19.03
565.036	19.2
565.234	19.32
565.431	19.45
565.628	19.5
565.825	19.65
566.022	19.77
566.219	19.86
566.416	19.91
566.613	20.08
566.81	20.17
567.007	20.17
567.204	20.28
567.401	20.41
567.598	20.46
567.795	20.46
567.991	20.53
568.188	20.6
568.385	20.69
568.582	20.8
568.779	21.03
568.976	21.15
569.172	21.31
569.369	21.37
569.566	21.45
569.763	21.38
569.96	21.45
570.156	21.46
570.353	21.55
570.55	21.6
570.746	21.77
570.943	21.8
571.14	21.8
571.336	21.84
571.533	21.94
571.729	21.95
571.926	22.11
572.123	22.21
572.319	22.32
572.516	22.44
572.712	22.53
572.909	22.41
573.105	22.5
573.302	22.46
573.498	22.42
573.695	22.44
573.891	22.56
574.087	22.49
574.284	22.56
574.48	22.64
574.677	22.63
574.873	22.68
575.069	22.8
575.266	22.81
575.462	22.81
575.658	22.96
575.854	23
576.051	23.08
576.247	23.1
576.443	23.04
576.639	22.97
576.835	22.9
577.032	22.83
577.228	22.82
577.424	22.79
577.62	22.81
577.816	22.86
578.012	22.87
578.208	22.95
578.404	23.09
578.6	23.15
578.796	23.18
578.993	23.22
579.189	23.16
579.384	23.17
579.58	23.15
579.776	23.16
579.972	23.16
580.168	23.16
580.364	23.16
580.56	23.11
580.756	23.05
580.952	22.96
581.148	22.99
581.343	22.92
581.539	22.94
581.735	22.96
581.931	22.96
582.127	22.82
582.322	22.87
582.518	22.78
582.714	22.77
582.909	22.82
583.105	22.83
583.301	22.8
583.496	22.73
583.692	22.65
583.888	22.61
584.083	22.64
584.279	22.44
584.474	22.51
584.67	22.55
584.866	22.58
585.061	22.61
585.257	22.77
585.452	22.79
585.648	22.73
585.843	22.63
586.039	22.64
586.234	22.62
586.429	22.61
586.625	22.61
586.82	22.67
587.015	22.65
587.211	22.66
587.406	22.65
587.601	22.7
587.797	22.74
587.992	22.7
588.187	22.75
588.383	22.75
588.578	22.8
588.773	22.81
588.968	22.84
589.163	22.94
589.359	23.02
589.554	22.95
589.749	23.01
589.944	23.08
590.139	23.02
590.334	23.09
590.529	23.22
590.724	23.21
590.919	23.16
591.114	23.18
591.309	23.18
591.504	23.22
591.699	23.27
591.894	23.3
592.089	23.34
592.284	23.39
592.479	23.4
592.674	23.38
592.869	23.44
593.064	23.46
593.259	23.52
593.454	23.62
593.648	23.66
593.843	23.75
594.038	23.91
594.233	23.88
594.428	23.91
594.622	24.05
594.817	24.22
595.012	24.2
595.206	24.28
595.401	24.37
595.596	24.4
595.79	24.41
595.985	24.57
596.18	24.73
596.374	24.76
596.569	24.89
596.763	24.91
596.958	24.99
597.153	25.02
597.347	25.13
597.542	25.23
597.736	25.32
597.931	25.33
598.125	25.43
598.319	25.44
598.514	25.48
598.708	25.54
598.903	25.68
599.097	25.78
599.291	25.85
599.486	25.9
599.68	25.95
599.874	25.96
600.069	26
600.263	26.17
600.457	26.18
600.651	26.25
600.846	26.22
601.04	26.32
601.234	26.3
601.428	26.44
601.622	26.49
601.817	26.58
602.011	26.55
602.205	26.57
602.399	26.49
602.593	26.53
602.787	26.56
602.981	26.44
603.175	26.55
603.369	26.58
603.563	26.62
603.757	26.55
603.951	26.69
604.145	26.54
604.339	26.53
604.533	26.45
604.727	26.52
604.921	26.45
605.115	26.45
605.309	26.39
605.502	26.48
605.696	26.42
605.89	26.48
606.084	26.52
606.278	26.53
606.471	26.38
606.665	26.27
606.859	26.11
607.053	26.02
607.246	26
607.44	25.86
607.634	25.87
607.827	25.88
608.021	25.79
608.214	25.68
608.408	25.74
608.602	25.63
608.795	25.62
608.989	25.57
609.182	25.47
609.376	25.31
609.569	25.33
609.763	25.18
609.956	25.13
610.15	25.07
610.343	25.03
610.537	24.93
610.73	24.87
610.923	24.83
611.117	24.78
611.31	24.65
611.504	24.52
611.697	24.35
611.89	24.2
612.083	24.02
612.277	23.96
612.47	23.81
612.663	23.82
612.856	23.7
613.05	23.71
613.243	23.55
613.436	23.58
613.629	23.52
613.822	23.52
614.015	23.51
614.209	23.46
614.402	23.34
614.595	23.2
614.788	23.09
614.981	22.91
615.174	22.89
615.367	22.8
615.56	22.7
615.753	22.73
615.946	22.61
616.139	22.56
616.332	22.55
616.525	22.55
616.718	22.34
616.911	22.33
617.103	22.36
617.296	22.23
617.489	22.07
617.682	22.07
617.875	22.01
618.067	21.86
618.26	21.85
618.453	21.91
618.646	21.81
618.838	21.77
619.031	21.67
619.224	21.54
619.417	21.44
619.609	21.4
619.802	21.34
619.994	21.36
620.187	21.4
620.38	21.47
620.572	21.46
620.765	21.46
620.957	21.39
621.15	21.3
621.342	21.24
621.535	21.24
621.727	21.21
621.92	21.31
622.112	21.33
622.305	21.25
622.497	21.19
622.69	21.11
622.882	20.97
623.074	20.99
623.267	21
623.459	20.94
623.651	20.91
623.844	20.93
624.036	20.99
624.228	20.98
624.42	20.99
624.613	20.98
624.805	20.85
624.997	20.73
625.189	20.68
625.381	20.66
625.574	20.73
625.766	20.72
625.958	20.67
626.15	20.62
626.342	20.6
626.534	20.49
626.726	20.45
626.918	20.4
627.11	20.4
627.302	20.41
627.494	20.39
627.686	20.33
627.878	20.3
628.07	20.21
628.262	20.11
628.454	20.01
628.646	20.03
628.838	20.1
629.029	20.06
629.221	20.05
629.413	20.06
629.605	20.05
629.797	19.91
629.989	19.9
630.18	19.94
630.372	19.9
630.564	19.83
630.755	19.85
630.947	19.83
631.139	19.71
631.33	19.57
631.522	19.5
631.714	19.39
631.905	19.33
632.097	19.27
632.289	19.29
632.48	19.25
632.672	19.23
632.863	19.13
633.055	19.15
633.246	19.18
633.438	19.21
633.629	19.22
633.821	19.2
634.012	19.22
634.203	19.16
634.395	19.15
634.586	19.11
634.777	19.14
634.969	19.05
635.16	18.99
635.351	18.99
635.543	18.96
635.734	18.86
635.925	18.9
636.117	18.94
636.308	18.91
636.499	18.82
636.69	18.9
636.881	18.81
637.073	18.8
637.264	18.75
637.455	18.81
637.646	18.77
637.837	18.84
638.028	18.78
638.219	18.87
638.41	19
638.601	19
638.792	18.93
638.983	18.96
639.174	18.86
639.365	18.78
639.556	18.71
639.747	18.65
639.938	18.68
640.129	18.64
640.32	18.6
640.511	18.62
640.701	18.66
640.892	18.58
641.083	18.61
641.274	18.49
641.465	18.53
641.655	18.5
641.846	18.53
642.037	18.44
642.228	18.46
642.418	18.38
642.609	18.39
642.8	18.36
642.99	18.42
643.181	18.47
643.372	18.45
643.562	18.4
643.753	18.32
643.943	18.21
644.134	18.09
644.324	18.09
644.515	18.09
644.705	18.06
644.896	18.16
645.086	18.18
645.277	18.13
645.467	18
645.658	17.97
645.848	17.92
646.038	17.92
646.229	17.92
646.419	17.9
646.61	17.96
646.8	17.9
646.99	17.88
647.18	17.83
647.371	17.89
647.561	17.83
647.751	17.76
647.941	17.75
648.132	17.71
648.322	17.62
648.512	17.64
648.702	17.73
648.892	17.67
649.082	17.69
649.272	17.69
649.462	17.63
649.653	17.44
649.843	17.41
650.033	17.41
650.223	17.46
650.413	17.41
650.603	17.51
650.793	17.42
650.983	17.35
651.172	17.3
651.362	17.18
651.552	17.08
651.742	17.11
651.932	17
652.122	16.93
652.312	16.93
652.502	16.86
652.691	16.77
652.881	16.77
653.071	16.64
653.261	16.59
653.45	16.49
653.64	16.38
653.83	16.3
654.019	16.18
654.209	15.98
654.399	15.78
654.588	15.71
654.778	15.53
654.968	15.46
655.157	15.39
655.347	15.36
655.536	15.16
655.726	14.89
655.915	14.79
656.105	14.63
656.294	14.48
656.484	14.35
656.673	14.36
656.863	14.28
657.052	14.13
657.241	14.04
657.431	13.92
657.62	13.73
657.809	13.4
657.999	13.33
658.188	13.15
658.377	13.02
658.567	13.02
658.756	12.94
658.945	12.77
659.134	12.56
659.324	12.31
659.513	12.11
659.702	11.94
659.891	11.81
660.08	11.71
660.269	11.65
660.458	11.4
660.648	11.29
660.837	11.14
661.026	11.03
661.215	10.9
661.404	10.89
661.593	10.79
661.782	10.66
661.971	10.45
662.16	10.38
662.349	10.17
662.538	10.05
662.726	9.95
662.915	10
663.104	9.88
663.293	9.95
663.482	9.84
663.671	9.71
663.86	9.58
664.048	9.5
664.237	9.37
664.426	9.31
664.615	9.35
664.803	9.2
664.992	9.18
665.181	9.07
665.369	8.93
665.558	8.84
665.747	8.87
665.935	8.76
666.124	8.68
666.312	8.69
666.501	8.65
666.69	8.58
666.878	8.55
667.067	8.56
667.255	8.47
667.444	8.5
667.632	8.49
667.82	8.49
668.009	8.42
668.197	8.49
668.386	8.37
668.574	8.47
668.762	8.44
668.951	8.48
669.139	8.41
669.327	8.46
669.516	8.34
669.704	8.45
669.892	8.39
670.08	8.43
670.269	8.44
670.457	8.44
670.645	8.33
670.833	8.48
671.021	8.56
671.21	8.53
671.398	8.58
671.586	8.62
671.774	8.64
671.962	8.6
672.15	8.68
672.338	8.78
672.526	8.84
672.714	8.84
672.902	8.91
673.09	9.03
673.278	9.09
673.466	9.21
673.654	9.21
673.842	9.38
674.03	9.44
674.218	9.38
674.405	9.38
674.593	9.53
674.781	9.5
674.969	9.6
675.157	9.76
675.344	9.83
675.532	9.83
675.72	9.9
675.908	9.71
676.095	9.71
676.283	9.77
676.471	9.83
676.658	9.93
676.846	10.1
677.033	10.23
677.221	10.25
677.409	10.39
677.596	10.45
677.784	10.56
677.971	10.58
678.159	10.66
678.346	10.69
678.534	10.77
678.721	10.87
678.909	11.01
679.096	11.21
679.283	11.29
679.471	11.32
679.658	11.36
679.846	11.38
680.033	11.47
680.22	11.69
680.408	11.75
680.595	11.85
680.782	12.08
680.969	12.29
681.157	12.28
681.344	12.39
681.531	12.58
681.718	12.59
681.905	12.58
682.093	12.71
682.28	12.91
682.467	13.01
682.654	13.22
682.841	13.41
683.028	13.56
683.215	13.79
683.402	13.96
683.589	14.09
683.776	14.18
683.963	14.47
684.15	14.59
684.337	14.83
684.524	14.98
684.711	15.37
684.898	15.43
685.085	15.72
685.271	15.92
685.458	16.14
685.645	16.2
685.832	16.46
686.019	16.63
686.205	16.96
686.392	17.35
686.579	17.69
686.766	18.17
686.952	18.48
687.139	18.93
687.326	19.3
687.512	19.61
687.699	20.02
687.886	20.53
688.072	20.74
688.259	21.17
688.445	21.69
688.632	22.02
688.818	22.54
689.005	23.15
689.191	23.57
689.378	24.21
689.564	24.72
689.751	25.24
689.937	25.92
690.124	26.57
690.31	27.02
690.496	27.81
690.683	28.41
690.869	28.76
691.055	29.36
691.242	29.96
691.428	30.62
691.614	31.38
691.8	32.2
691.987	32.97
692.173	33.82
692.359	34.51
692.545	35.14
692.731	36.05
692.918	36.65
693.104	37.44
693.29	37.99
693.476	38.76
693.662	39.42
693.848	40.35
694.034	41.14
694.22	41.97
694.406	42.59
694.592	43.28
694.778	43.84
694.964	44.31
695.15	45.16
695.336	46
695.522	46.81
695.708	47.73
695.894	48.76
696.08	49.5
696.265	50.27
696.451	51.02
696.637	51.73
696.823	52.41
697.009	53.05
697.194	53.81
697.38	54.58
697.566	55.02
697.751	55.77
697.937	56.53
698.123	57.09
698.308	57.4
698.494	58.39
698.68	59.15
698.865	59.7
699.051	60.48
699.236	61.51
699.422	61.92
699.607	62.64
699.793	63.55
699.978	63.79
700.164	64
700.349	65.01
700.535	65.11
700.72	65.57
700.906	66.61
701.091	67.46
701.276	67.99
701.462	68.78
701.647	69
701.832	69.56
702.018	70.34
702.203	70.85
702.388	71.15
702.573	71.83
702.759	72.15
702.944	72.01
703.129	72.27
703.314	72.69
703.499	73.05
703.684	73.69
703.87	74.27
704.055	74.66
704.24	75.22
704.425	75.72
704.61	76.05
704.795	77
704.98	77.22
705.165	77.39
705.35	77.86
705.535	78.15
705.72	78.2
705.905	78.92
706.09	79.49
706.275	79.79
706.459	80.08
706.644	80.32
706.829	80.53
707.014	81.12
707.199	81.39
707.384	81.44
707.568	81.78
707.753	82.43
707.938	82.59
708.123	83.06
708.307	83.72
708.492	84.26
708.677	83.87
708.861	84.09
709.046	83.97
709.231	83.77
709.415	83.69
709.6	84.01
709.784	84.07
709.969	84.64
710.153	84.92
710.338	85.48
710.522	86.06
710.707	86.16
710.891	86.3
711.076	86.49
711.26	86.63
711.445	86.49
711.629	86.72
711.813	86.88
711.998	87.42
712.182	87.12
712.366	87.88
712.551	88.07
712.735	87.99
712.919	88.29
713.103	89.01
713.288	88.77
713.472	89.3
713.656	89.53
713.84	89.19
714.024	89.07
714.208	89.29
714.393	89.23
714.577	89.62
714.761	90.22
714.945	90.23
715.129	90.22
715.313	90.26
715.497	90.04
715.681	89.68
715.865	89.64
716.049	89.57
716.233	89.6
716.417	89.78
716.601	89.91
716.785	90
716.968	90
717.152	90.38
717.336	90.5
717.52	91.14
717.704	91.7
717.888	92.23
718.071	92.03
718.255	92.5
718.439	92.47
718.622	92.53
718.806	92.6
718.99	92.74
719.174	92.7
719.357	92.91
719.541	93.16
719.724	93.46
719.908	93.73
720.092	93.98
720.275	93.66
720.459	93.74
720.642	93.58
720.826	93.47
721.009	92.84
721.193	92.33
721.376	92.41
721.559	92.39
721.743	92.69
721.926	93.45
722.11	94.67
722.293	94.96
722.476	94.52
722.66	95
722.843	94.66
723.026	94.75
723.21	94.14
723.393	94.94
723.576	94.54
723.759	95.18
723.942	95.15
724.126	95.43
724.309	95.53
724.492	95.76
724.675	95.57
724.858	95.51
725.041	95.71
725.224	96.16
725.407	96.31
725.59	96
725.774	95.71
725.957	95.72
726.14	94.99
726.322	95.36
726.505	96.09
726.688	96.32
726.871	96.46
727.054	97.25
727.237	96.44
727.42	95.94
727.603	96.34
727.786	96.09
727.968	95.59
728.151	96.16
728.334	96.61
728.517	96.28
728.699	96.22
728.882	96.24
729.065	96.05
729.248	96.08
729.43	96.63
729.613	96.71
729.796	97.49
729.978	97.44
730.161	97.55
730.343	97.47
730.526	97.87
730.708	97.49
730.891	98.02
731.073	98.22
731.256	98.27
731.438	99.43
731.621	99.49
731.803	99.41
731.986	99.38
732.168	100.4
732.35	99.65
732.533	99.82
732.715	99.83
732.898	99.8
733.08	98.87
733.262	98.78
733.444	99.18
733.627	99.86
733.809	100.39
733.991	101.05
734.173	101.04
734.355	100.67
734.538	100.38
734.72	100.07
734.902	100.18
735.084	100.55
735.266	101.33
735.448	101.97
735.63	102.84
735.812	102.4
735.994	102.25
736.176	102.3
736.358	101.88
736.54	102.29
736.722	102.31
736.904	102.08
737.086	101.52
737.268	102.09
737.45	101.5
737.632	101.99
737.814	102.69
737.995	102.62
738.177	102.51
738.359	102.39
738.541	101.95
738.723	101.6
738.904	101.47
739.086	101.89
739.268	101.58
739.449	101.28
739.631	102.15
739.813	102.51
739.994	101.09
740.176	101.19
740.358	101.91
740.539	101.12
740.721	101.77
740.902	102.65
741.084	103.19
741.265	103.65
741.447	103.91
741.628	103.95
741.81	103.72
741.991	103.39
742.172	102.78
742.354	102.98
742.535	102.62
742.717	102.2
742.898	101.94
743.079	102.49
743.261	102.81
743.442	102.74
743.623	103.59
743.804	103.38
743.986	102.78
744.167	102.32
744.348	101.23
744.529	100.92
744.71	100.86
744.891	100.15
745.073	99.99
745.254	101.47
745.435	101.39
745.616	101.74
745.797	102.55
745.978	102.59
746.159	101.85
746.34	102.27
746.521	102.13
746.702	102.78
746.883	102.1
747.064	102.05
747.245	102.75
747.426	102.88
747.606	102.83
747.787	104.01
747.968	104.82
748.149	103.27
748.33	103.08
748.51	101.39
748.691	100.88
748.872	101.56
749.053	101.53
749.233	102.02
749.414	103.47
749.595	103.69
749.775	101.82
749.956	101.97
750.137	101.27
750.317	100.25
750.498	100.25
750.678	100.24
750.859	100.69
751.04	101.35
751.22	100.46
751.4	100.16
751.581	101.41
751.761	101.48
751.942	102.58
752.122	102.91
752.303	104.16
752.483	102.71
752.663	102.2
752.844	101.13
753.024	103.28
753.204	101.68
753.385	102.01
753.565	101.19
753.745	99.63
753.925	96.97
754.106	98.04
754.286	97.35
754.466	97.76
754.646	98.9
754.826	101.87
755.006	100.89
755.187	102.67
755.367	102.77
755.547	102.55
755.727	100.77
755.907	100.05
756.087	99.42
756.267	98.92
756.447	99.18
756.627	99.33
756.807	100.87
756.987	100.27
757.167	101.06
757.346	100.51
757.526	101.07
757.706	100.69
757.886	101.38
758.066	102.51
758.246	102.16
758.425	100.37
758.605	98.35
758.785	97.76
758.965	97.35
759.144	97.31
759.324	98.82
759.504	100.84
759.683	100.86
759.863	100.48
760.043	100.96
760.222	101.22
760.402	99.78
760.581	99.96
760.761	99.04
760.94	98.34
761.12	96.87
761.299	98.22
761.479	97.66
761.658	98.07
761.838	99.37
762.017	100.01
762.197	99.11
762.376	99.86
762.555	100.1
762.735	100.41
762.914	99.09
763.093	97.86
763.273	96.65
763.452	95.7
763.631	94.35
763.81	95.4
763.99	95.39
764.169	95.03
764.348	93.97
764.527	93.66
764.706	93.51
764.885	95.4
765.064	97.19
765.243	98.15
765.423	98.54
765.602	99.15
765.781	97.6
765.96	95.85
766.139	95.11
766.318	96.2
766.497	94.53
766.676	93.59
766.854	95.23
767.033	96.75
767.212	95.7
767.391	97.4
767.57	100.07
767.749	98.35
767.928	98.32
768.106	99.13
768.285	97.1
768.464	96.18
768.643	95.63
768.821	93.72
769	92.98
769.179	94.21
769.357	93.69
769.536	93.13
769.715	93.63
769.893	93.35
770.072	92.7
770.25	92
770.429	92.74
770.607	94.18
770.786	93.23
770.964	93.77
771.143	94.93
771.321	93.02
771.5	93.17
771.678	93.76
771.857	93.21
772.035	93.76
772.213	96.54
772.392	94.9
772.57	95.37
772.748	94.34
772.927	93.61
773.105	91.92
773.283	92.8
773.461	93.49
773.64	95.12
773.818	96.93
773.996	99.26
774.174	98.31
774.352	96.41
774.531	95.68
774.709	93.77
774.887	90.96
775.065	92.04
775.243	91.9
775.421	90.93
775.599	92.34
775.777	92.82
775.955	91.18
776.133	92.86
776.311	92.38
776.489	90.46
776.667	90.93
776.844	90.21
777.022	87.73
777.2	89.04
777.378	86.59
777.556	87.83
777.734	89.74
777.911	92.38
778.089	94.09
778.267	95.41
778.445	96.81
778.622	94.84
778.8	90.75
778.978	88.64
779.155	90.89
779.333	89.22
779.511	89.6
779.688	91.15
779.866	91.69
780.043	90.15
780.221	92.64
780.398	92
780.576	91.59
780.753	90.32
780.931	90.78
781.108	88.83
781.286	91.28
781.463	91.69
781.64	93.23
781.818	94.97
781.995	93.45
782.172	91.7
782.35	92.85
782.527	92.17
782.704	88.84
782.882	86.09
783.059	86.23
783.236	85.56
783.413	85.47
783.59	86.41
783.768	86.95
783.945	86.12
784.122	84.99
784.299	84.09
784.476	82.77
784.653	84.08
784.83	81.14
785.007	82.29
785.184	80.76
785.361	80.66
785.538	82.4
785.715	89.35
785.892	86.24
786.069	87.29
786.246	88.26
786.423	86.53
786.6	83.44
786.776	84.18
786.953	83.22
787.13	86.32
787.307	85.27
787.484	83.58
787.66	86.85
787.837	86.92
788.014	86
788.191	85.21
788.367	82.43
788.544	80.94
788.721	80.2
788.897	78.15
789.074	80.59
789.25	83.58
789.427	81.11
789.603	80.58
789.78	79.94
789.956	78.43
790.133	80.13
790.309	83.74
790.486	85.51
790.662	85.17
790.839	87.15
791.015	88.71
791.192	87.33
791.368	84.86
791.544	86.36
791.721	85.07
791.897	82.42
792.073	82.52
792.249	83.99
792.426	81.61
792.602	80.9
792.778	78.62
792.954	79.63
793.13	78.34
793.307	79.67
793.483	78.62
793.659	79.07
793.835	81.41
794.011	86.58
794.187	85.21
794.363	86.32
794.539	88.14
794.715	83.89
794.891	82.61
795.067	83.76
795.243	83.91
795.419	82.22
795.595	85.87
795.771	84.36
795.947	87.78
796.122	86.38
796.298	83.36
796.474	84.47
796.65	83.74
796.826	80.05
797.001	83.42
797.177	81.95
797.353	78.31
797.529	77.8
797.704	80.57
797.88	79.24
798.056	83.65
798.231	82.21
798.407	89.58
798.582	86.47
798.758	83.62
798.934	87.44
799.109	87.12
799.285	79.36
799.46	80.09
799.636	81.69
799.811	77.62
799.986	77.09
800.162	71.89
800.337	71.39
800.513	71.67
800.688	63.17
800.863	68.68
801.039	73.27
801.214	66.53
801.389	62.45
801.565	71.24
801.74	65.02
801.915	64.18
802.09	69.46
802.265	76.14
802.441	75.85
802.616	73.2
802.791	74.65
802.966	78.87
803.141	76.6
803.316	74.25
803.491	79.31
803.666	80.98
803.841	75.19
804.016	71.73
804.191	75.84
804.366	69.97
804.541	70.72
804.716	71.96
804.891	75.09
805.066	72.6
805.241	75.91
805.416	79.26
805.591	85.27
805.765	88.26
805.94	87.03
806.115	88.04
806.29	81.67
806.464	77.53
806.639	74.84
806.814	74.27
806.989	77.13
807.163	86.71
807.338	83.54
807.512	78.46
807.687	80.57
807.862	85.33
808.036	84.03
808.211	89.91
808.385	98.22
808.56	90.76
808.734	73.43
808.909	70.89
809.083	73.34
809.258	72.46
809.432	69.77
809.606	80.97
809.781	77.64
809.955	74.01
810.13	68.97
810.304	77.92
810.478	73.23
810.652	71.02
810.827	70.41
811.001	72.91
811.175	72.64
811.349	71.44
811.524	74.97
811.698	71.09
811.872	78.83
812.046	82.04
812.22	84.78
812.394	81.74
812.568	86.95
812.742	81.08
812.916	82.4
813.09	79.06
813.264	71.42
813.438	72.13
813.612	65.82
813.786	54.64
813.96	62.84
814.134	65.08
814.308	65.42
814.482	66.9
814.656	72.43
814.83	69.2
815.003	69.91
815.177	64.27
815.351	73.01
815.525	74.77
815.698	71.05
815.872	68.82
816.046	69.81
816.219	61.09
816.393	57.37
816.567	55.75
816.74	64.14
816.914	55.07
817.088	63.21
817.261	68.87
817.435	76.14
817.608	68.93
817.782	73.43
817.955	71.49
818.129	64.08
818.302	58.53
818.475	62.72
818.649	66.71
818.822	63.86
818.996	73.52
819.169	79.87
819.342	77.54
819.516	75.73
819.689	67.8
819.862	58.53
820.035	57.41
820.209	55
820.382	52.42
820.555	55.27
820.728	51.46
820.901	46.41
821.075	62.74
821.248	60.72
821.421	58.63
821.594	62.66
821.767	67.24
821.94	52.01
822.113	55.29
822.286	66.62
822.459	64.64
822.632	70.2
822.805	74.39
822.978	77.29
823.151	66.57
823.324	62.98
823.496	48.31
823.669	57.63
823.842	62.19
824.015	60.72
824.188	64.81
824.361	71.45
824.533	56.3
824.706	52.58
824.879	55.94
825.051	63.35
825.224	59.65
825.397	59.98
825.569	55.87
825.742	62.25
825.915	58.27
826.087	48.96
826.26	47.57
826.432	57.8
826.605	60.25
826.777	59.19
826.95	63.87
827.122	61.25
827.295	59.11
827.467	52.97
827.64	42.29
827.812	55.22
827.984	65.92
828.157	57.43
828.329	56.97
828.501	57.22
828.674	54.78
828.846	64.62
829.018	65.48
829.19	57.33
829.363	63.69
829.535	64.58
829.707	54.09
829.879	44.74
830.051	58.09
830.223	52.03
830.395	39.62
830.568	38.28
830.74	45.73
830.912	37.45
831.084	33.32
831.256	34.63
831.428	38.46
831.6	23.61
831.772	7.15
831.943	1.9
832.115	34.78
832.287	33.74
832.459	41.95
832.631	65.02
832.803	78.91
832.975	68.32
833.146	65.51
833.318	68.61
833.49	61.92
833.662	59.38
833.833	38.87
834.005	36.63
834.177	43.26
834.348	42.71
834.52	44.46
834.692	42.88
834.863	51.24
835.035	52.33
835.206	45.87
835.378	45.38
835.549	51.63
835.721	40.72
835.892	32.85
836.064	34.33
836.235	25.02
836.407	24.41
836.578	26.47
836.749	27.16
836.921	30.5
837.092	34.07
837.264	44.97
837.435	47.77
837.606	57.29
837.777	54.49
837.949	54.07
838.12	50.74
838.291	46.63
838.462	50.48
838.633	49.47
838.805	43.36
838.976	42.16
839.147	59
839.318	57.14
839.489	53.77
839.66	69.05
839.831	72.91
840.002	58.76
840.173	61.32
840.344	56.02
840.515	40.6
840.686	30
840.857	35.43
841.028	24.1
841.199	30.25
841.369	25.62
841.54	30
841.711	42.14
841.882	49.53
842.053	42.96
842.223	40.06
842.394	51.16
842.565	50.41
842.736	45.64
842.906	37.98
843.077	48.08
843.248	43.65
843.418	39.38
843.589	37.13
843.759	59.19
843.93	54.59
844.101	52.9
844.271	58.5
844.442	55.99
844.612	49.77
844.783	58.28
844.953	49.8
845.123	38.65
845.294	31.81
845.464	26.37
845.635	18.67
845.805	19.31
845.975	50.53
846.146	52.9
846.316	34.42
846.486	58.92
846.656	73.76
846.827	59.72
846.997	62.94
847.167	64.87
847.337	39.66
847.507	34.82
847.677	34.27
847.848	35.76
848.018	45.43
848.188	54.72
848.358	43.45
848.528	40.1
848.698	26.44
848.868	14.5
849.038	16.92
849.208	21.23
849.378	24.83
849.548	36.53
849.718	38.35
849.887	16.7
850.057	23.07
850.227	46.1
850.397	63.36
850.567	30.6
850.737	50.76
850.906	20.72
851.076	0.27
851.246	-2.33
851.415	20.66
851.585	17.26
851.755	69.85
851.924	85
852.094	90.62
852.264	89.32
852.433	64.17
852.603	29.86
852.772	44.25
852.942	52.54
853.111	38.13
853.281	63.84
853.45	74.13
853.62	60.02
853.789	7.52
853.959	29.23
854.128	35.04
854.297	28.97
854.467	27.8
854.636	44.88
854.805	39.55
854.975	19.3
855.144	23.3
855.313	10.83
855.482	21.28
855.652	1.88
855.821	15.45
855.99	29.24
856.159	57.26
856.328	69.29
856.497	68.49
856.667	67.95
856.836	42.95
857.005	35.58
857.174	21.45
857.343	-1.72
857.512	-2.03
857.681	-9.21
857.85	-39.18
858.019	-67.78
858.188	-42.56
858.356	-1.21
858.525	19.98
858.694	67.61
858.863	55.6
859.032	45.41
859.201	18.21
859.369	31.58
859.538	18.86
859.707	15.65
859.876	49.25
860.044	56.48
860.213	29.98
860.382	21.73
860.55	24.54
860.719	3.62
860.888	1.69
861.056	31.15
861.225	18.61
861.393	5.85
861.562	6.54
861.73	-13.24
861.899	-33.16
862.067	-39.44
862.236	-31.15
862.404	-29.43
862.572	-3.69
862.741	-13.7
862.909	17.12
863.078	34.06
863.246	23.48
863.414	18.35
863.582	31.51
863.751	15.04
863.919	10.77
864.087	-4.18
864.255	-18.78
864.424	-55.87
864.592	-3.42
864.76	-7.06
864.928	31.31
865.096	36.44
865.264	74.09
865.432	61.41
865.6	78.43
865.768	54.82
865.936	41.93
866.104	26.93
866.272	-17.53
866.44	-6.05
866.608	15.84
866.776	39.54
866.944	65.93
867.112	61.7
867.28	42.24
867.448	55.98
867.615	33.71
867.783	14.85
867.951	26.08
868.119	69.87
868.286	30.79
868.454	38.97
868.622	16.5
868.789	1.7
868.957	-12.77
869.125	5.48
869.292	-27.09
869.46	-0.27
869.627	3
869.795	-10.27
869.963	-8.42
870.13	6.53
870.298	24.65
870.465	44.04
870.632	41.22
870.8	17.29
870.967	9.76
871.135	-10.53
871.302	-37.59
871.469	-24.72
871.637	-35.77
871.804	7.66
871.971	16.83
872.139	5.97
872.306	-4.38
872.473	-20.2
872.64	-124.2
872.807	-148.5
872.975	-284.84
873.142	-82.84
873.309	-53.21
873.476	-6.07
873.643	-7.04
873.81	10.2
873.977	-34.41
874.144	-16.17
874.311	-80.01
874.478	-108.74
874.645	-129.3
874.812	5.94
874.979	-5.54
875.146	2.4
875.313	20.68
875.48	84.5
875.647	13.08
875.813	-59.32
875.98	-60.18
876.147	-175.32
876.314	-179.63
876.481	-170.55
876.647	-54.45
876.814	-5.18
876.981	12.73
877.147	-0.65
877.314	-13.56
877.481	4.29
877.647	-6.61
877.814	-8.99
877.98	-2.66
878.147	55.24
878.314	50.4
878.48	50.69
878.647	59.2
878.813	77.1
878.979	56.79
879.146	75.37
879.312	91.92
879.479	69.53
879.645	55.77
879.811	11.69
879.978	12.44
880.144	24.97
880.31	24.03
880.477	25.41
880.643	43.14
880.809	-1.71
880.975	-39.16
881.142	-23.39
881.308	302.15
881.474	457.6
881.64	4.69
881.806	-77.08
881.972	-94.15
882.138	-30.37
882.304	-33.85
882.47	-99.11
882.636	-94.82
882.802	-88.42
882.968	-79.26
883.134	-45.21
883.3	-18
883.466	36.19
883.632	65.1
883.798	-6.38
883.964	-76.86
884.129	-922.71
884.295	-153.87
884.461	-226.8
884.627	-84.11
884.793	-111.7
884.958	-4.7
885.124	-19.81
885.29	-53.06
885.455	-157.31
885.621	-101.76
885.787	-114.95
885.952	-114.86
886.118	-16.74
886.283	3.2
886.449	10.17
886.614	10.11
886.78	20.94
886.945	-17.49
887.111	-27.44
887.276	-32.06
887.442	-72.8
887.607	-36.55
887.773	-14.31
887.938	-20.02
888.103	-13.66
888.269	22.92
888.434	23.12
888.599	16.3
888.764	49.48
888.93	50.5
889.095	16.61
889.26	-13.65
889.425	-26.16
889.59	-87.9
889.756	-78.98
889.921	-47.39
890.086	-11.47
890.251	56.76
890.416	9.64
890.581	24.34
890.746	63.19
890.911	43.41
891.076	30.62
891.241	39.58
891.406	37.21
891.571	65.54
891.736	2.08
891.901	45.52
892.065	46.85
892.23	44.72
892.395	-22.2
892.56	-4.34
892.725	-25.05
892.889	-196.98
893.054	-71.22
893.219	-57.49
893.384	-65.91
893.548	-97.39
893.713	-97.19
893.878	-157.99
