Data from Ofra_PS_T2_2A_8HS24_Reflection_3.txt Node
Date: Wed Jul 21 17:22:41 EDT 2021
User: Adam
Spectrometer: FLMT01687
Trigger mode: 0
Integration Time (sec): 1.100000E0
Scans to average: 2
Electric dark correction enabled: true
Nonlinearity correction enabled: false
Boxcar width: 2
XAxis mode: Wavelengths
Number of Pixels in Spectrum: 3648
>>>>>Begin Spectral Data<<<<<
179.494	495.2
179.716	576.94
179.937	552.02
180.158	603.5
180.38	963.12
180.601	531.49
180.823	150.13
181.044	-57.35
181.265	-29.41
181.486	-5.9
181.708	11.55
181.929	451.02
182.15	-560.56
182.372	144.26
182.593	6.62
182.814	40.45
183.035	100.87
183.257	71.55
183.478	-64.26
183.699	5.88
183.92	-27.72
184.141	-4.14
184.363	-51.07
184.584	5.5
184.805	19.2
185.026	56.03
185.247	56.75
185.468	52.11
185.689	73.68
185.91	61.67
186.132	40.9
186.353	34.85
186.574	89.67
186.795	68.1
187.016	27.41
187.237	32.34
187.458	28.63
187.679	-1.66
187.9	-0.85
188.121	24
188.342	51.62
188.563	62.2
188.784	110.48
189.005	99.13
189.226	128.71
189.447	94.09
189.667	33.98
189.888	-354.19
190.109	-1031.17
190.33	-651.61
190.551	-1079.65
190.772	-246
190.993	-168.02
191.214	-154.37
191.434	-71.65
191.655	10.8
191.876	-13.14
192.097	-41.78
192.318	-72.95
192.538	-158.94
192.759	-172.23
192.98	-58.34
193.201	-16.92
193.421	3.64
193.642	14.4
193.863	31.28
194.083	-2.08
194.304	-21.7
194.525	-36.34
194.745	-51.57
194.966	-80.16
195.187	-64.63
195.407	-51.75
195.628	-94.68
195.848	-103.74
196.069	-82.1
196.29	-48.12
196.51	-57.29
196.731	-45.89
196.951	-71.13
197.172	-82.03
197.392	-127.04
197.613	-138.16
197.833	-133.74
198.054	-88.71
198.274	-43.26
198.495	-47.76
198.715	-32.67
198.936	-56.71
199.156	-67.7
199.377	-165.99
199.597	-130.88
199.817	-136.94
200.038	-60.65
200.258	-65.03
200.479	3.75
200.699	-15.72
200.919	68.17
201.14	11.89
201.36	-48.91
201.58	0.86
201.801	26.85
202.021	-19.3
202.241	-23.8
202.461	-3.98
202.682	-102.49
202.902	-139.89
203.122	-61.09
203.342	-41.08
203.563	-11.78
203.783	15.89
204.003	-25.3
204.223	-22.6
204.443	22.32
204.663	-6.74
204.884	-1.29
205.104	39.57
205.324	42.42
205.544	45.41
205.764	59.54
205.984	56.86
206.204	65.12
206.424	44.71
206.644	14.27
206.864	21.21
207.084	29.97
207.304	24.21
207.525	-45.63
207.745	11.44
207.964	38.69
208.184	-24.84
208.404	-71.98
208.624	-60.64
208.844	-56.96
209.064	-328.11
209.284	-348.7
209.504	-161.35
209.724	-12.89
209.944	-10.48
210.164	21.9
210.384	40.4
210.604	22.5
210.823	-28.92
211.043	-41.22
211.263	-31.12
211.483	-37.17
211.703	-70.23
211.922	-46.38
212.142	-1.09
212.362	-1.41
212.582	-19.93
212.801	-9.54
213.021	-33.5
213.241	-59.96
213.461	-84.07
213.68	-85.17
213.9	-49.13
214.12	-17.67
214.339	-51.4
214.559	-38.45
214.779	5.19
214.998	-13.39
215.218	-49.8
215.438	-17.47
215.657	-2.13
215.877	4.85
216.096	40.19
216.316	51.3
216.535	46.72
216.755	33.51
216.974	-35.12
217.194	-121.67
217.413	-151.42
217.633	-137.04
217.852	-223.22
218.072	-80.34
218.291	-24.94
218.511	22.03
218.73	-9.92
218.95	-6.47
219.169	-22.77
219.389	-76.77
219.608	-66.86
219.827	-51.06
220.047	-53.46
220.266	-25.39
220.485	-12.57
220.705	10.36
220.924	-25.87
221.143	25.55
221.363	-6.96
221.582	9.08
221.801	6.34
222.021	36.84
222.24	-26.26
222.459	15.66
222.678	-16.25
222.897	-59.65
223.117	-114.82
223.336	-71.99
223.555	-15.31
223.774	52.49
223.993	68.87
224.213	144.06
224.432	109
224.651	104.75
224.87	58.96
225.089	63.15
225.308	38.26
225.527	52.97
225.746	47.14
225.965	47.54
226.184	16.52
226.404	39.16
226.623	0.26
226.842	13.58
227.061	35.54
227.28	44.78
227.499	22.43
227.718	42.7
227.936	33.35
228.155	29.26
228.374	5.54
228.593	15.29
228.812	4.22
229.031	-1.81
229.25	-50.98
229.469	-42.54
229.688	-22.14
229.907	13.33
230.125	9.07
230.344	40.26
230.563	48.55
230.782	40.93
231.001	-27.87
231.22	-18.58
231.438	-16.38
231.657	-17.43
231.876	-21.63
232.095	31.66
232.313	39.6
232.532	13.83
232.751	-15.7
232.969	-26.12
233.188	-124.04
233.407	-46.98
233.625	-13.51
233.844	-14.7
234.063	-1.83
234.281	21.53
234.5	20.04
234.719	41.68
234.937	51.73
235.156	44.53
235.374	40.58
235.593	23.86
235.811	-13.18
236.03	-18.98
236.249	-36.38
236.467	-53.29
236.686	-29.04
236.904	-6.82
237.123	-32.04
237.341	-29.25
237.559	-7.17
237.778	-14.08
237.996	-46.85
238.215	4.26
238.433	13.37
238.652	8.84
238.87	-4.81
239.088	35.41
239.307	31.18
239.525	32.9
239.743	-9.04
239.962	-0.17
240.18	-53.98
240.398	-93.04
240.617	-94.58
240.835	-69.94
241.053	-52.24
241.271	-20.1
241.49	0.73
241.708	-26.01
241.926	-57.64
242.144	-39.4
242.363	-75.33
242.581	-103.11
242.799	-59.69
243.017	-1.94
243.235	-9.21
243.453	12.43
243.672	12.54
243.89	13.01
244.108	-22.71
244.326	-5.59
244.544	-0.84
244.762	-7.22
244.98	-4.21
245.198	17.72
245.416	-12.07
245.634	-14.11
245.852	-1.84
246.07	-4.67
246.288	8.98
246.506	-10.22
246.724	-17.43
246.942	-23.73
247.16	-1.47
247.378	-7.26
247.596	11.74
247.814	-1.47
248.032	-17.84
248.25	-7.14
248.468	4.01
248.685	25.56
248.903	56.11
249.121	64.06
249.339	30.23
249.557	17.01
249.775	17.08
249.992	-40.56
250.21	-47.72
250.428	-28.19
250.646	-52.33
250.863	-85.83
251.081	-42.88
251.299	-45.12
251.517	-29.43
251.734	-4.73
251.952	-0.78
252.17	-13.95
252.387	2.31
252.605	-12.55
252.823	-5.63
253.04	12.33
253.258	28.55
253.475	26.76
253.693	49.09
253.911	52.49
254.128	50.83
254.346	56.57
254.563	28.52
254.781	2.57
254.998	-25.12
255.216	-19.04
255.433	-9.64
255.651	31.41
255.868	73.23
256.086	82.63
256.303	47.24
256.521	27.71
256.738	5.28
256.956	-31.47
257.173	-55.87
257.39	-59.88
257.608	-71.55
257.825	33.28
258.043	76.4
258.26	83.63
258.477	127.21
258.695	126.66
258.912	40.66
259.129	22.47
259.346	-13.43
259.564	-72.17
259.781	-95.1
259.998	-19.37
260.216	7.19
260.433	35.82
260.65	39.86
260.867	48.33
261.084	17.28
261.302	0.75
261.519	-4.41
261.736	-30.93
261.953	-54.95
262.17	-20.07
262.387	-49.56
262.604	-74.66
262.822	-62.15
263.039	-36.54
263.256	-101.89
263.473	-62.26
263.69	-30.67
263.907	12.87
264.124	28.67
264.341	44.93
264.558	32.18
264.775	45.91
264.992	16.14
265.209	27.61
265.426	33.89
265.643	51.52
265.86	67.39
266.077	81.99
266.294	80.53
266.51	48.83
266.727	4.43
266.944	-9.93
267.161	-23.09
267.378	-32.82
267.595	8.69
267.812	-18.47
268.028	-27.98
268.245	-7.93
268.462	-37.53
268.679	-51.89
268.896	12.5
269.112	12.78
269.329	3.76
269.546	6.71
269.763	4.88
269.979	-17.65
270.196	-22.1
270.413	-38.74
270.629	-38.56
270.846	-44.84
271.063	-33.97
271.279	-56.95
271.496	-41.63
271.712	-17.9
271.929	-7.52
272.146	-13.22
272.362	9.09
272.579	32.03
272.795	25.6
273.012	36.46
273.228	38.34
273.445	6.2
273.661	-19.4
273.878	-39.17
274.094	-53.59
274.311	-80.84
274.527	-10.73
274.744	-13.25
274.96	-24.4
275.177	-6.88
275.393	14.3
275.609	21.86
275.826	38.96
276.042	28.16
276.259	-4.64
276.475	11.56
276.691	-4.41
276.908	-23.24
277.124	7.21
277.34	20.07
277.557	0.25
277.773	0.84
277.989	-6.19
278.205	-16.9
278.422	2.29
278.638	3.97
278.854	24.21
279.07	47.27
279.286	44.19
279.503	0.72
279.719	16
279.935	-12.35
280.151	-26.1
280.367	-7.89
280.583	4.61
280.799	-27.6
281.016	-40.43
281.232	-19.1
281.448	-27.53
281.664	1.95
281.88	-23.54
282.096	-12.41
282.312	7.3
282.528	34.59
282.744	25.37
282.96	41.68
283.176	27.88
283.392	13.6
283.608	-3.15
283.824	-6.46
284.04	-1.87
284.256	7.34
284.471	-3.6
284.687	2.57
284.903	24.32
285.119	49.03
285.335	18.17
285.551	30.83
285.767	8.12
285.982	-8.04
286.198	-62.01
286.414	-4.78
286.63	5.05
286.846	30.11
287.061	-1.86
287.277	43.89
287.493	12.03
287.709	25.37
287.924	3.4
288.14	48.85
288.356	31.12
288.571	51.52
288.787	38.34
289.003	49
289.218	33.65
289.434	-1.03
289.65	2.23
289.865	-8.9
290.081	16.34
290.296	5.23
290.512	9.2
290.727	-16.51
290.943	-22.93
291.159	-38.09
291.374	-38.66
291.59	-48.69
291.805	-26.18
292.021	-12.41
292.236	-10.26
292.451	20.12
292.667	25.98
292.882	44.18
293.098	36.48
293.313	21.67
293.529	-9.95
293.744	-25.29
293.959	-53.93
294.175	-39.97
294.39	-9.42
294.605	2.77
294.821	34.47
295.036	48.12
295.251	50.07
295.467	40.01
295.682	40.72
295.897	-12.07
296.112	-26.6
296.328	-34.26
296.543	-55.2
296.758	-44.69
296.973	-6.58
297.188	25.93
297.404	9.06
297.619	-11.12
297.834	-14.21
298.049	-9.54
298.264	-28.28
298.479	28.94
298.694	38.1
298.909	52.02
299.125	45.45
299.34	44.85
299.555	10.92
299.77	23.68
299.985	-29.55
300.2	-81.81
300.415	-94.7
300.63	-72.38
300.845	-74.58
301.06	-82.87
301.275	-34.07
301.49	-9.02
301.704	-6.92
301.919	-12.64
302.134	-12.82
302.349	-17.86
302.564	-77.76
302.779	-97.43
302.994	-69.91
303.209	-39.41
303.423	-16.11
303.638	61.57
303.853	29.37
304.068	23.78
304.283	23.7
304.497	11.41
304.712	-19.79
304.927	-15.1
305.142	-32.02
305.356	-27.98
305.571	-35.73
305.786	-41.66
306	-57.53
306.215	-22.78
306.43	-55.47
306.644	-62.09
306.859	-19.86
307.074	3.54
307.288	-45.55
307.503	-50.21
307.717	-44.37
307.932	-48.2
308.147	-50.58
308.361	-15.11
308.576	-13.32
308.79	-43.92
309.005	-38.25
309.219	-23.66
309.434	-29.35
309.648	-26.24
309.863	2.41
310.077	-4.87
310.292	-10.22
310.506	-14.8
310.72	5.33
310.935	-2.52
311.149	-1.99
311.364	12.68
311.578	24
311.792	5.01
312.007	26.93
312.221	18.59
312.435	21.66
312.649	5.07
312.864	43.24
313.078	53.84
313.292	98.81
313.507	56.76
313.721	70.15
313.935	29.37
314.149	2.36
314.363	4.29
314.578	22.79
314.792	38.26
315.006	15.31
315.22	28.21
315.434	34.72
315.648	29.82
315.862	13.68
316.077	28.14
316.291	16.41
316.505	2.75
316.719	24.16
316.933	13.96
317.147	6.35
317.361	-50.22
317.575	-73.06
317.789	-136.17
318.003	-236.82
318.217	-170.28
318.431	-58.91
318.645	1.62
318.859	13.97
319.073	48.85
319.287	29.18
319.5	-5.92
319.714	-52.25
319.928	-89.74
320.142	-112.51
320.356	-46.62
320.57	7.11
320.784	9.74
320.997	-9.08
321.211	-19.07
321.425	-88.91
321.639	-122.85
321.853	-53.83
322.066	-13.59
322.28	-9.13
322.494	14.72
322.707	36.83
322.921	14.38
323.135	14.84
323.349	36.26
323.562	2.19
323.776	-22.99
323.989	-17.78
324.203	-40.55
324.417	-63.26
324.63	-70.13
324.844	-58.77
325.057	-48.08
325.271	-15.64
325.485	14.95
325.698	50.75
325.912	64.75
326.125	45.3
326.339	32.9
326.552	5.03
326.766	-18.89
326.979	-3.42
327.193	33.05
327.406	18.41
327.619	16.36
327.833	28.36
328.046	-2.73
328.26	-35.4
328.473	-3.3
328.686	-38.75
328.9	-24.64
329.113	-7.34
329.326	-25.75
329.54	-8.4
329.753	23.46
329.966	11.41
330.179	27.29
330.393	37.52
330.606	28.27
330.819	33.21
331.032	44.73
331.246	41.61
331.459	61.87
331.672	52.64
331.885	37.94
332.098	7.2
332.311	-6.4
332.525	-75.5
332.738	-73.81
332.951	-31.76
333.164	9.19
333.377	33.09
333.59	54.12
333.803	60.17
334.016	45.68
334.229	37.23
334.442	34.46
334.655	59.73
334.868	66.03
335.081	58.28
335.294	39.65
335.507	30.55
335.72	11.34
335.933	-11.21
336.146	-9.26
336.359	4.47
336.572	-41.22
336.785	-77.81
336.997	-56.69
337.21	-32.61
337.423	-30.1
337.636	-3.81
337.849	25.78
338.062	21.21
338.274	13.55
338.487	0.44
338.7	-1.95
338.913	-45.37
339.125	-57.94
339.338	-94.2
339.551	-83.88
339.763	-56.94
339.976	-18.92
340.189	-10.52
340.402	-3.16
340.614	-11.35
340.827	-22.48
341.039	-46.11
341.252	-39.48
341.465	-18.3
341.677	-11.16
341.89	-34.97
342.102	-2.2
342.315	-14.71
342.527	-33.91
342.74	-26.28
342.952	13.88
343.165	-4.68
343.377	20.53
343.59	11.95
343.802	21.32
344.015	13.56
344.227	34.81
344.44	23.61
344.652	33.5
344.864	27.63
345.077	40.55
345.289	41.93
345.502	40.93
345.714	21.22
345.926	18.24
346.139	2.93
346.351	2.26
346.563	9.46
346.775	18.77
346.988	4.75
347.2	-1.69
347.412	-57.06
347.624	-70.33
347.837	-71.15
348.049	-34.87
348.261	5.6
348.473	33.42
348.685	39.59
348.897	32.89
349.11	19.42
349.322	-2.46
349.534	9.72
349.746	0.07
349.958	8.3
350.17	18.35
350.382	20.83
350.594	10.81
350.806	20.46
351.018	22.29
351.23	-6.99
351.442	-42.67
351.654	-32.74
351.866	-37.07
352.078	-38.05
352.29	-15.82
352.502	9.02
352.714	-2.65
352.926	-10.16
353.138	-3.81
353.35	-3.85
353.561	-9.07
353.773	-25.66
353.985	-9.88
354.197	-25
354.409	-23.32
354.621	-28.78
354.832	-5.87
355.044	-17.93
355.256	-10.3
355.468	0.29
355.679	3.08
355.891	17.86
356.103	4.15
356.314	3.08
356.526	6.59
356.738	-2.83
356.949	-25.89
357.161	0.77
357.373	-3.65
357.584	-18.89
357.796	5.57
358.008	2.83
358.219	17.89
358.431	20.67
358.642	32.62
358.854	32.6
359.065	23.96
359.277	-18.35
359.488	-26.76
359.7	-53.6
359.911	-84.55
360.123	-54.1
360.334	-49.32
360.546	-48.95
360.757	-54.86
360.969	-27.8
361.18	-6.52
361.391	7.78
361.603	-15.03
361.814	10.71
362.025	16.36
362.237	0.91
362.448	14.08
362.659	26.5
362.871	27.36
363.082	18.15
363.293	16.86
363.504	-9.67
363.716	-20.09
363.927	-49.62
364.138	-86.2
364.349	-86.76
364.56	-61.41
364.772	-54.98
364.983	-26.22
365.194	-10.2
365.405	3.18
365.616	22.74
365.827	26.61
366.038	-2.77
366.25	-13.61
366.461	-56.91
366.672	-37.68
366.883	-10.28
367.094	14.3
367.305	9.35
367.516	20.65
367.727	-10.77
367.938	-37.69
368.149	-42.09
368.36	-22.08
368.571	-11
368.781	-20.1
368.992	-28.65
369.203	-43.28
369.414	-69.86
369.625	-86.91
369.836	-69.68
370.047	-94.2
370.258	-69.02
370.468	-66.35
370.679	-81.06
370.89	-71.4
371.101	-35.44
371.312	-49.06
371.522	-39.94
371.733	-22.02
371.944	-22.46
372.155	-20.9
372.365	-24.68
372.576	-25.72
372.787	-31.01
372.997	-52.84
373.208	-49.25
373.419	-8.97
373.629	-40.12
373.84	-39.71
374.05	-40.14
374.261	-29.18
374.472	-61.16
374.682	6.36
374.893	0.92
375.103	34.36
375.314	27.94
375.524	33.55
375.735	23.45
375.945	32.68
376.156	0.16
376.366	1.53
376.577	2.66
376.787	-9.02
376.997	-2.47
377.208	5.81
377.418	-9.9
377.629	2.05
377.839	9.59
378.049	3.12
378.26	13.59
378.47	31.02
378.68	17.2
378.89	6.18
379.101	4.6
379.311	-21.52
379.521	-65.46
379.732	-66.7
379.942	-58.07
380.152	-82.6
380.362	-49.6
380.572	-37.87
380.783	-23.8
380.993	-11.36
381.203	10.35
381.413	26.96
381.623	33.78
381.833	30.09
382.043	15.18
382.253	4.52
382.463	-9.58
382.674	-15.94
382.884	-33.99
383.094	-26.43
383.304	-19.27
383.514	-14.56
383.724	0.63
383.934	-1.69
384.144	-15.68
384.353	-17.45
384.563	-17.17
384.773	-16.53
384.983	-19.46
385.193	-0.46
385.403	-0.67
385.613	-0.51
385.823	-10.11
386.033	-1.64
386.242	-7.3
386.452	-7.87
386.662	-15.11
386.872	-11.17
387.082	-20.07
387.291	-25.24
387.501	-30.34
387.711	-14.45
387.921	-19.57
388.13	-13.13
388.34	-5
388.55	-8.15
388.759	-12.08
388.969	-3.68
389.179	-6.81
389.388	-8.63
389.598	0.64
389.807	-6.3
390.017	-9.11
390.227	-6.78
390.436	-8.96
390.646	-11.77
390.855	-5.07
391.065	-6.03
391.274	-7.38
391.484	-5.26
391.693	-1.63
391.903	-2.83
392.112	2.75
392.322	3.19
392.531	5.68
392.74	6.86
392.95	4.21
393.159	1.66
393.369	2.96
393.578	0.79
393.787	-3.88
393.997	-3.08
394.206	-4.72
394.415	-3.63
394.625	-3.08
394.834	-3.62
395.043	-1.34
395.252	1.62
395.462	3.02
395.671	3.68
395.88	5.33
396.089	5.64
396.298	3.15
396.508	1.34
396.717	0.3
396.926	1.25
397.135	0.42
397.344	0.26
397.553	1.15
397.762	3.09
397.971	2.04
398.181	2.19
398.39	1.97
398.599	1.86
398.808	0.88
399.017	2.11
399.226	3.41
399.435	4.77
399.644	4.9
399.853	4.36
400.062	3.59
400.27	2.81
400.479	2.25
400.688	1.49
400.897	1.96
401.106	1.99
401.315	1.66
401.524	1.69
401.733	2.22
401.941	2.44
402.15	2.52
402.359	2.39
402.568	2.59
402.777	2.88
402.985	2.7
403.194	2.63
403.403	2.71
403.612	2.28
403.82	2.01
404.029	2.2
404.238	2.11
404.446	2.52
404.655	2.59
404.864	2.63
405.072	2.4
405.281	2.58
405.489	2.18
405.698	2.09
405.906	2.02
406.115	2
406.324	1.9
406.532	2.15
406.741	2.55
406.949	2.47
407.158	2.58
407.366	2.71
407.574	2.53
407.783	2.41
407.991	2.26
408.2	2.4
408.408	2.21
408.617	2.19
408.825	1.95
409.033	2.13
409.242	2.09
409.45	2.32
409.658	2.25
409.867	2.42
410.075	2.13
410.283	1.93
410.491	1.75
410.7	1.75
410.908	1.76
411.116	2.27
411.324	2.24
411.533	2.19
411.741	2.41
411.949	2.46
412.157	2.02
412.365	2.13
412.573	2.16
412.781	2.07
412.99	1.91
413.198	2.18
413.406	2.22
413.614	2.24
413.822	2.14
414.03	2.07
414.238	1.85
414.446	1.9
414.654	1.63
414.862	1.67
415.07	1.83
415.278	2
415.486	1.63
415.694	1.76
415.902	1.7
416.109	1.52
416.317	1.48
416.525	1.45
416.733	1.55
416.941	1.62
417.149	1.63
417.357	1.59
417.564	1.89
417.772	2.16
417.98	2.09
418.188	2.05
418.395	2.08
418.603	2.14
418.811	1.69
419.019	1.62
419.226	1.96
419.434	2.02
419.642	1.68
419.849	1.85
420.057	1.95
420.265	1.73
420.472	1.42
420.68	1.53
420.887	1.44
421.095	1.6
421.302	1.57
421.51	1.88
421.717	2.04
421.925	2.15
422.132	1.91
422.34	1.68
422.547	1.67
422.755	1.5
422.962	1.32
423.17	1.23
423.377	1.47
423.585	1.41
423.792	1.44
423.999	1.6
424.207	1.77
424.414	1.82
424.621	1.79
424.829	1.76
425.036	1.65
425.243	1.84
425.451	1.73
425.658	1.59
425.865	1.88
426.072	2.01
426.28	2.06
426.487	1.99
426.694	2.16
426.901	1.9
427.108	1.75
427.315	1.54
427.523	1.83
427.73	1.72
427.937	1.75
428.144	1.68
428.351	1.58
428.558	1.68
428.765	1.69
428.972	1.58
429.179	1.74
429.386	2.03
429.593	1.68
429.8	1.55
430.007	1.78
430.214	1.94
430.421	1.74
430.628	1.6
430.835	1.49
431.042	1.55
431.249	1.42
431.456	1.47
431.662	1.71
431.869	1.99
432.076	2.03
432.283	2.21
432.49	2.19
432.697	2.2
432.903	1.91
433.11	1.79
433.317	1.72
433.524	1.94
433.73	1.84
433.937	2.16
434.144	2.03
434.35	2.01
434.557	1.77
434.764	1.74
434.97	1.64
435.177	1.85
435.384	1.76
435.59	1.83
435.797	2.17
436.003	2.29
436.21	2.24
436.416	2.38
436.623	2.26
436.829	2.2
437.036	2.22
437.242	2.12
437.449	2.04
437.655	2.11
437.862	2.01
438.068	1.92
438.275	2.11
438.481	2.27
438.687	2.26
438.894	2.22
439.1	2.3
439.307	2.42
439.513	2.32
439.719	2.42
439.926	2.53
440.132	2.41
440.338	2.17
440.544	2.27
440.751	2.18
440.957	2.27
441.163	2.24
441.369	2.39
441.575	2.17
441.782	2.18
441.988	1.92
442.194	2.06
442.4	2.03
442.606	2.31
442.812	2.4
443.018	2.57
443.224	2.51
443.431	2.57
443.637	2.38
443.843	2.17
444.049	2.19
444.255	2.11
444.461	2.14
444.667	2.1
444.873	2.4
445.079	2.4
445.284	2.58
445.49	2.3
445.696	2.17
445.902	1.99
446.108	1.92
446.314	1.8
446.52	1.9
446.726	2.2
446.931	2.23
447.137	2.25
447.343	2.26
447.549	2.23
447.755	2.09
447.96	2.13
448.166	2.07
448.372	2.05
448.578	2.17
448.783	2.18
448.989	2.22
449.195	2.46
449.4	2.49
449.606	2.38
449.812	2.36
450.017	2.41
450.223	2.26
450.428	2.22
450.634	2.45
450.84	2.69
451.045	2.57
451.251	2.45
451.456	2.69
451.662	2.65
451.867	2.53
452.073	2.52
452.278	2.72
452.483	2.69
452.689	2.55
452.894	2.57
453.1	2.62
453.305	2.48
453.51	2.37
453.716	2.33
453.921	2.32
454.127	2.22
454.332	2.22
454.537	2.16
454.742	2.19
454.948	2.18
455.153	2.27
455.358	2.42
455.563	2.64
455.769	2.73
455.974	2.64
456.179	2.54
456.384	2.48
456.589	2.43
456.795	2.2
457	2.24
457.205	2.49
457.41	2.45
457.615	2.35
457.82	2.52
458.025	2.58
458.23	2.34
458.435	2.43
458.64	2.35
458.845	2.52
459.05	2.51
459.255	2.59
459.46	2.53
459.665	2.57
459.87	2.52
460.075	2.5
460.28	2.56
460.485	2.67
460.69	2.76
460.895	2.51
461.099	2.48
461.304	2.54
461.509	2.46
461.714	2.33
461.919	2.57
462.123	2.5
462.328	2.5
462.533	2.4
462.738	2.52
462.942	2.42
463.147	2.58
463.352	2.56
463.556	2.61
463.761	2.59
463.966	2.65
464.17	2.59
464.375	2.49
464.58	2.47
464.784	2.5
464.989	2.41
465.193	2.4
465.398	2.45
465.602	2.58
465.807	2.53
466.011	2.62
466.216	2.66
466.42	2.69
466.625	2.74
466.829	2.84
467.034	2.85
467.238	3.01
467.443	2.92
467.647	2.78
467.851	2.77
468.056	2.83
468.26	2.69
468.464	2.8
468.669	2.86
468.873	3.02
469.077	2.94
469.282	3.07
469.486	3.11
469.69	3.2
469.894	2.97
470.099	3.11
470.303	3.14
470.507	3
470.711	2.84
470.915	2.9
471.119	2.81
471.324	2.69
471.528	2.74
471.732	2.86
471.936	2.79
472.14	2.86
472.344	2.93
472.548	2.89
472.752	3.02
472.956	3.32
473.16	3.26
473.364	3.16
473.568	3.26
473.772	3.22
473.976	3.07
474.18	3.02
474.384	3.12
474.588	3.11
474.792	2.97
474.995	3.02
475.199	3.17
475.403	3.19
475.607	3.2
475.811	3.23
476.015	3.26
476.218	3.29
476.422	3.26
476.626	3.32
476.83	3.41
477.033	3.33
477.237	3.21
477.441	3.23
477.644	3.2
477.848	3.26
478.052	3.28
478.255	3.36
478.459	3.39
478.663	3.51
478.866	3.49
479.07	3.47
479.273	3.62
479.477	3.7
479.681	3.6
479.884	3.53
480.088	3.54
480.291	3.4
480.495	3.34
480.698	3.31
480.901	3.38
481.105	3.45
481.308	3.41
481.512	3.38
481.715	3.52
481.919	3.57
482.122	3.55
482.325	3.56
482.529	3.58
482.732	3.51
482.935	3.42
483.138	3.41
483.342	3.49
483.545	3.56
483.748	3.65
483.952	3.73
484.155	3.87
484.358	3.89
484.561	3.87
484.764	3.8
484.967	3.83
485.171	3.82
485.374	3.78
485.577	3.83
485.78	3.84
485.983	3.83
486.186	3.75
486.389	3.75
486.592	3.74
486.795	3.74
486.998	3.69
487.201	3.78
487.404	3.83
487.607	3.87
487.81	3.9
488.013	3.95
488.216	3.89
488.419	3.88
488.622	3.81
488.825	3.72
489.028	3.67
489.231	3.62
489.433	3.56
489.636	3.52
489.839	3.5
490.042	3.49
490.245	3.49
490.447	3.58
490.65	3.56
490.853	3.58
491.056	3.63
491.258	3.72
491.461	3.7
491.664	3.83
491.866	3.83
492.069	3.92
492.272	3.78
492.474	3.84
492.677	3.86
492.879	3.93
493.082	3.97
493.285	4.16
493.487	4.09
493.69	3.99
493.892	3.91
494.095	3.86
494.297	3.78
494.5	3.79
494.702	3.89
494.905	3.94
495.107	3.91
495.309	3.86
495.512	3.9
495.714	3.87
495.917	3.98
496.119	4
496.321	4.09
496.524	4.12
496.726	4.1
496.928	4.04
497.13	4.05
497.333	4.04
497.535	4.02
497.737	4.06
497.939	4.01
498.142	4.03
498.344	4.02
498.546	3.95
498.748	3.92
498.95	4.05
499.152	3.98
499.355	3.98
499.557	4.1
499.759	4.23
499.961	4.14
500.163	4.16
500.365	4.21
500.567	4.29
500.769	4.19
500.971	4.24
501.173	4.23
501.375	4.23
501.577	4.09
501.779	4.1
501.981	4.12
502.183	4.14
502.385	4.08
502.587	4.01
502.788	4.1
502.99	4.12
503.192	4.22
503.394	4.27
503.596	4.34
503.798	4.35
503.999	4.34
504.201	4.32
504.403	4.32
504.605	4.36
504.806	4.35
505.008	4.33
505.21	4.41
505.411	4.45
505.613	4.48
505.815	4.47
506.016	4.52
506.218	4.54
506.42	4.54
506.621	4.55
506.823	4.59
507.024	4.52
507.226	4.46
507.427	4.42
507.629	4.43
507.83	4.48
508.032	4.49
508.233	4.6
508.435	4.7
508.636	4.75
508.838	4.66
509.039	4.72
509.24	4.72
509.442	4.75
509.643	4.69
509.845	4.78
510.046	4.84
510.247	4.82
510.448	4.79
510.65	4.88
510.851	5.02
511.052	5
511.254	5
511.455	5.07
511.656	5.12
511.857	5.14
512.058	5.18
512.26	5.2
512.461	5.16
512.662	5.14
512.863	5.03
513.064	5
513.265	5.02
513.466	5.07
513.667	5.03
513.868	5.05
514.069	5.19
514.27	5.28
514.471	5.21
514.672	5.22
514.873	5.2
515.074	5.18
515.275	5.07
515.476	5.08
515.677	5.13
515.878	5.24
516.079	5.15
516.28	5.18
516.481	5.35
516.682	5.36
516.882	5.31
517.083	5.29
517.284	5.24
517.485	5.13
517.686	5.1
517.886	5.05
518.087	5.18
518.288	5.25
518.488	5.24
518.689	5.28
518.89	5.33
519.091	5.3
519.291	5.27
519.492	5.31
519.692	5.37
519.893	5.4
520.094	5.39
520.294	5.38
520.495	5.37
520.695	5.33
520.896	5.28
521.096	5.31
521.297	5.38
521.497	5.37
521.698	5.31
521.898	5.33
522.099	5.34
522.299	5.41
522.499	5.4
522.7	5.46
522.9	5.44
523.101	5.51
523.301	5.47
523.501	5.48
523.702	5.51
523.902	5.61
524.102	5.63
524.302	5.57
524.503	5.62
524.703	5.62
524.903	5.57
525.103	5.46
525.304	5.57
525.504	5.63
525.704	5.71
525.904	5.71
526.104	5.74
526.304	5.72
526.504	5.72
526.705	5.67
526.905	5.78
527.105	5.83
527.305	5.8
527.505	5.69
527.705	5.7
527.905	5.64
528.105	5.58
528.305	5.58
528.505	5.7
528.705	5.78
528.905	5.77
529.105	5.81
529.304	5.84
529.504	5.89
529.704	5.8
529.904	5.79
530.104	5.76
530.304	5.89
530.503	5.82
530.703	5.81
530.903	5.82
531.103	5.88
531.303	5.79
531.502	5.81
531.702	5.93
531.902	5.95
532.101	5.91
532.301	5.91
532.501	5.99
532.7	5.91
532.9	5.95
533.1	5.98
533.299	5.99
533.499	5.94
533.698	5.96
533.898	6
534.097	6.03
534.297	6.09
534.496	6.1
534.696	6.15
534.895	6.2
535.095	6.25
535.294	6.2
535.494	6.15
535.693	6.15
535.892	6.12
536.092	6.05
536.291	6.02
536.491	6.11
536.69	6.17
536.889	6.14
537.088	6.1
537.288	6.18
537.487	6.21
537.686	6.16
537.886	6.17
538.085	6.27
538.284	6.4
538.483	6.34
538.682	6.44
538.882	6.51
539.081	6.58
539.28	6.36
539.479	6.37
539.678	6.33
539.877	6.42
540.076	6.39
540.275	6.53
540.474	6.66
540.673	6.72
540.872	6.65
541.071	6.71
541.27	6.72
541.469	6.72
541.668	6.73
541.867	6.78
542.066	6.83
542.265	6.87
542.464	6.85
542.663	6.88
542.862	7.02
543.06	7.08
543.259	7.19
543.458	7.26
543.657	7.3
543.856	7.31
544.054	7.24
544.253	7.18
544.452	7.12
544.651	7.16
544.849	7.09
545.048	7.19
545.247	7.27
545.445	7.38
545.644	7.4
545.843	7.39
546.041	7.38
546.24	7.45
546.438	7.54
546.637	7.56
546.836	7.7
547.034	7.76
547.233	7.76
547.431	7.73
547.63	7.79
547.828	7.79
548.027	7.79
548.225	7.79
548.423	7.81
548.622	7.89
548.82	7.85
549.019	7.92
549.217	8.08
549.415	8.1
549.614	8.14
549.812	8.2
550.01	8.22
550.209	8.21
550.407	8.27
550.605	8.3
550.803	8.43
551.002	8.52
551.2	8.5
551.398	8.62
551.596	8.73
551.794	8.77
551.993	8.86
552.191	8.97
552.389	9.03
552.587	9.07
552.785	9.09
552.983	9.12
553.181	9.24
553.379	9.3
553.577	9.29
553.775	9.4
553.973	9.43
554.171	9.43
554.369	9.47
554.567	9.54
554.765	9.56
554.963	9.64
555.161	9.68
555.359	9.76
555.557	9.89
555.755	9.98
555.952	10.1
556.15	10.21
556.348	10.31
556.546	10.41
556.744	10.42
556.941	10.42
557.139	10.53
557.337	10.54
557.535	10.54
557.732	10.63
557.93	10.79
558.128	10.81
558.325	10.93
558.523	10.98
558.721	11.12
558.918	11.13
559.116	11.16
559.313	11.2
559.511	11.34
559.708	11.35
559.906	11.46
560.104	11.56
560.301	11.74
560.498	11.75
560.696	11.8
560.893	11.9
561.091	11.96
561.288	11.94
561.486	12.04
561.683	12.17
561.88	12.25
562.078	12.37
562.275	12.36
562.473	12.4
562.67	12.53
562.867	12.58
563.064	12.68
563.262	12.81
563.459	12.92
563.656	13.01
563.853	13.03
564.051	13.08
564.248	13.25
564.445	13.36
564.642	13.41
564.839	13.58
565.036	13.81
565.234	13.92
565.431	13.98
565.628	14.03
565.825	14.13
566.022	14.1
566.219	14.16
566.416	14.24
566.613	14.32
566.81	14.35
567.007	14.3
567.204	14.25
567.401	14.29
567.598	14.33
567.795	14.38
567.991	14.5
568.188	14.59
568.385	14.68
568.582	14.76
568.779	14.86
568.976	14.93
569.172	15.08
569.369	15.06
569.566	15.17
569.763	15.13
569.96	15.14
570.156	15.09
570.353	15.13
570.55	15.1
570.746	15.2
570.943	15.29
571.14	15.29
571.336	15.35
571.533	15.48
571.729	15.46
571.926	15.52
572.123	15.65
572.319	15.71
572.516	15.63
572.712	15.7
572.909	15.69
573.105	15.78
573.302	15.81
573.498	15.95
573.695	15.96
573.891	16
574.087	15.97
574.284	15.99
574.48	15.91
574.677	15.9
574.873	15.95
575.069	16
575.266	16.08
575.462	16.06
575.658	16.21
575.854	16.24
576.051	16.24
576.247	16.17
576.443	16.22
576.639	16.05
576.835	16.02
577.032	15.96
577.228	16.05
577.424	16.1
577.62	16.13
577.816	16.17
578.012	16.18
578.208	16.17
578.404	16.18
578.6	16.2
578.796	16.17
578.993	16.24
579.189	16.16
579.384	16
579.58	15.96
579.776	15.91
579.972	15.81
580.168	15.8
580.364	15.97
580.56	16.02
580.756	16.05
580.952	16.04
581.148	16.05
581.343	16.01
581.539	15.97
581.735	15.95
581.931	16
582.127	15.97
582.322	15.93
582.518	15.96
582.714	15.9
582.909	15.84
583.105	15.77
583.301	15.71
583.496	15.67
583.692	15.66
583.888	15.65
584.083	15.78
584.279	15.85
584.474	15.87
584.67	15.96
584.866	16
585.061	15.85
585.257	15.85
585.452	15.8
585.648	15.66
585.843	15.65
586.039	15.78
586.234	15.67
586.429	15.62
586.625	15.74
586.82	15.62
587.015	15.49
587.211	15.44
587.406	15.51
587.601	15.48
587.797	15.48
587.992	15.52
588.187	15.64
588.383	15.63
588.578	15.58
588.773	15.7
588.968	15.78
589.163	15.78
589.359	15.77
589.554	15.81
589.749	15.73
589.944	15.78
590.139	15.71
590.334	15.77
590.529	15.73
590.724	15.87
590.919	15.87
591.114	15.93
591.309	15.94
591.504	16.04
591.699	16.01
591.894	16.04
592.089	16.07
592.284	16.09
592.479	16.15
592.674	16.12
592.869	16.16
593.064	16.28
593.259	16.35
593.454	16.49
593.648	16.6
593.843	16.53
594.038	16.52
594.233	16.48
594.428	16.33
594.622	16.38
594.817	16.68
595.012	16.73
595.206	16.8
595.401	16.86
595.596	16.79
595.79	16.79
595.985	16.9
596.18	17.05
596.374	17.14
596.569	17.3
596.763	17.26
596.958	17.28
597.153	17.34
597.347	17.38
597.542	17.46
597.736	17.49
597.931	17.53
598.125	17.53
598.319	17.73
598.514	17.8
598.708	17.9
598.903	17.96
599.097	18.01
599.291	18.01
599.486	18
599.68	17.96
599.874	18.07
600.069	18.04
600.263	17.93
600.457	18
600.651	18.15
600.846	18.09
601.04	18.14
601.234	18.29
601.428	18.37
601.622	18.33
601.817	18.31
602.011	18.42
602.205	18.47
602.399	18.43
602.593	18.39
602.787	18.51
602.981	18.49
603.175	18.44
603.369	18.44
603.563	18.62
603.757	18.56
603.951	18.53
604.145	18.54
604.339	18.54
604.533	18.37
604.727	18.42
604.921	18.37
605.115	18.41
605.309	18.47
605.502	18.5
605.696	18.39
605.89	18.34
606.084	18.24
606.278	18.07
606.471	18
606.665	17.95
606.859	17.98
607.053	17.94
607.246	18.01
607.44	17.94
607.634	17.9
607.827	17.86
608.021	17.77
608.214	17.66
608.408	17.68
608.602	17.7
608.795	17.6
608.989	17.54
609.182	17.49
609.376	17.45
609.569	17.37
609.763	17.29
609.956	17.27
610.15	17.17
610.343	17.15
610.537	17.06
610.73	17.12
610.923	17.07
611.117	17
611.31	16.87
611.504	16.84
611.697	16.69
611.89	16.66
612.083	16.64
612.277	16.66
612.47	16.6
612.663	16.55
612.856	16.45
613.05	16.29
613.243	16.18
613.436	16.05
613.629	16
613.822	15.91
614.015	15.84
614.209	15.66
614.402	15.69
614.595	15.62
614.788	15.56
614.981	15.52
615.174	15.46
615.367	15.3
615.56	15.25
615.753	15.18
615.946	15.16
616.139	15.27
616.332	15.45
616.525	15.39
616.718	15.52
616.911	15.55
617.103	15.49
617.296	15.33
617.489	15.32
617.682	15.08
617.875	15.05
618.067	14.87
618.26	14.77
618.453	14.78
618.646	14.84
618.838	14.81
619.031	14.95
619.224	14.96
619.417	14.91
619.609	14.96
619.802	14.92
619.994	14.89
620.187	14.88
620.38	14.82
620.572	14.74
620.765	14.76
620.957	14.6
621.15	14.47
621.342	14.42
621.535	14.38
621.727	14.32
621.92	14.36
622.112	14.4
622.305	14.44
622.497	14.39
622.69	14.35
622.882	14.31
623.074	14.37
623.267	14.32
623.459	14.28
623.651	14.19
623.844	14.21
624.036	14.2
624.228	14.12
624.42	14.17
624.613	14.33
624.805	14.21
624.997	14.16
625.189	14.14
625.381	14.11
625.574	13.97
625.766	13.98
625.958	13.89
626.15	13.92
626.342	13.86
626.534	13.88
626.726	13.88
626.918	13.9
627.11	13.89
627.302	13.83
627.494	13.75
627.686	13.73
627.878	13.67
628.07	13.62
628.262	13.62
628.454	13.65
628.646	13.64
628.838	13.77
629.029	13.7
629.221	13.77
629.413	13.71
629.605	13.61
629.797	13.45
629.989	13.5
630.18	13.38
630.372	13.37
630.564	13.43
630.755	13.47
630.947	13.6
631.139	13.48
631.33	13.33
631.522	13.38
631.714	13.29
631.905	13.1
632.097	13.18
632.289	13.27
632.48	13.11
632.672	13.03
632.863	12.96
633.055	12.88
633.246	12.87
633.438	12.8
633.629	12.79
633.821	12.75
634.012	12.77
634.203	12.7
634.395	12.8
634.586	12.83
634.777	12.85
634.969	12.84
635.16	12.86
635.351	12.8
635.543	12.79
635.734	12.82
635.925	12.86
636.117	12.88
636.308	12.89
636.499	12.86
636.69	12.69
636.881	12.6
637.073	12.63
637.264	12.57
637.455	12.61
637.646	12.82
637.837	12.83
638.028	12.76
638.219	12.85
638.41	12.76
638.601	12.6
638.792	12.64
638.983	12.55
639.174	12.49
639.365	12.51
639.556	12.5
639.747	12.46
639.938	12.54
640.129	12.51
640.32	12.43
640.511	12.42
640.701	12.54
640.892	12.46
641.083	12.48
641.274	12.59
641.465	12.57
641.655	12.35
641.846	12.36
642.037	12.31
642.228	12.23
642.418	12.35
642.609	12.42
642.8	12.48
642.99	12.4
643.181	12.45
643.372	12.4
643.562	12.39
643.753	12.2
643.943	12.21
644.134	12.04
644.324	12
644.515	11.98
644.705	12.13
644.896	12.16
645.086	12.29
645.277	12.26
645.467	12.27
645.658	12.18
645.848	12.28
646.038	12.29
646.229	12.21
646.419	12.23
646.61	12.25
646.8	12.11
646.99	11.99
647.18	12.02
647.371	12.02
647.561	11.98
647.751	12
647.941	11.92
648.132	11.89
648.322	11.86
648.512	11.93
648.702	11.85
648.892	11.92
649.082	11.95
649.272	11.83
649.462	11.67
649.653	11.65
649.843	11.66
650.033	11.62
650.223	11.59
650.413	11.61
650.603	11.66
650.793	11.65
650.983	11.59
651.172	11.57
651.362	11.45
651.552	11.34
651.742	11.21
651.932	11.21
652.122	11.25
652.312	11.35
652.502	11.4
652.691	11.39
652.881	11.3
653.071	11.28
653.261	11.15
653.45	10.95
653.64	10.95
653.83	10.87
654.019	10.73
654.209	10.66
654.399	10.69
654.588	10.64
654.778	10.57
654.968	10.5
655.157	10.5
655.347	10.39
655.536	10.21
655.726	10.1
655.915	9.99
656.105	9.86
656.294	9.8
656.484	9.67
656.673	9.57
656.863	9.54
657.052	9.46
657.241	9.29
657.431	9.16
657.62	9.06
657.809	8.77
657.999	8.58
658.188	8.44
658.377	8.34
658.567	8.3
658.756	8.2
658.945	8.18
659.134	8.09
659.324	8.05
659.513	8
659.702	7.89
659.891	7.75
660.08	7.7
660.269	7.67
660.458	7.55
660.648	7.53
660.837	7.38
661.026	7.34
661.215	7.16
661.404	6.99
661.593	6.93
661.782	6.82
661.971	6.71
662.16	6.52
662.349	6.4
662.538	6.23
662.726	6.29
662.915	6.16
663.104	6.15
663.293	6.16
663.482	6.23
663.671	6.07
663.86	6.01
664.048	5.98
664.237	6
664.426	5.75
664.615	5.73
664.803	5.72
664.992	5.63
665.181	5.48
665.369	5.46
665.558	5.32
665.747	5.22
665.935	5.28
666.124	5.26
666.312	5.33
666.501	5.33
666.69	5.24
666.878	5.12
667.067	4.98
667.255	5.04
667.444	5.27
667.632	5.42
667.82	5.52
668.009	5.66
668.197	5.59
668.386	5.41
668.574	5.43
668.762	5.42
668.951	5.33
669.139	5.22
669.327	5.1
669.516	5.12
669.704	5.03
669.892	5.15
670.08	5.21
670.269	5.25
670.457	5.11
670.645	4.92
670.833	5
671.021	5.16
671.21	5.26
671.398	5.53
671.586	5.71
671.774	5.56
671.962	5.48
672.15	5.45
672.338	5.27
672.526	5.36
672.714	5.32
672.902	5.41
673.09	5.57
673.278	5.87
673.466	5.87
673.654	6.1
673.842	6.08
674.03	6.03
674.218	5.77
674.405	5.86
674.593	5.77
674.781	5.89
674.969	6.06
675.157	6.29
675.344	6.32
675.532	6.44
675.72	6.54
675.908	6.46
676.095	6.38
676.283	6.5
676.471	6.68
676.658	6.65
676.846	6.7
677.033	6.88
677.221	6.88
677.409	6.73
677.596	6.84
677.784	6.93
677.971	6.94
678.159	6.92
678.346	7
678.534	7.04
678.721	7.21
678.909	7.16
679.096	7.23
679.283	7.32
679.471	7.48
679.658	7.51
679.846	7.76
680.033	8.16
680.22	8.32
680.408	8.21
680.595	8.21
680.782	8.16
680.969	8.13
681.157	8.13
681.344	8.23
681.531	8.33
681.718	8.31
681.905	8.26
682.093	8.42
682.28	8.78
682.467	9.04
682.654	9.37
682.841	9.56
683.028	9.86
683.215	9.8
683.402	9.69
683.589	9.9
683.776	10.1
683.963	9.95
684.15	10.11
684.337	10.32
684.524	10.33
684.711	10.51
684.898	10.54
685.085	10.72
685.271	11.1
685.458	11.31
685.645	11.39
685.832	11.89
686.019	12.06
686.205	12.11
686.392	12.31
686.579	12.51
686.766	12.8
686.952	12.91
687.139	13.39
687.326	13.56
687.512	13.85
687.699	13.97
687.886	14.31
688.072	14.3
688.259	14.59
688.445	15.06
688.632	15.27
688.818	15.82
689.005	16.26
689.191	16.62
689.378	17.06
689.564	17.53
689.751	17.67
689.937	17.99
690.124	18.47
690.31	18.65
690.496	18.96
690.683	19.42
690.869	19.72
691.055	20.09
691.242	20.57
691.428	21.23
691.614	21.81
691.8	22.53
691.987	23.1
692.173	23.63
692.359	24.12
692.545	24.69
692.731	25.13
692.918	25.71
693.104	26.06
693.29	26.42
693.476	26.99
693.662	27.45
693.848	27.8
694.034	28.37
694.22	29
694.406	29.28
694.592	30.01
694.778	30.4
694.964	30.82
695.15	31.09
695.336	31.64
695.522	32.09
695.708	32.88
695.894	33.37
696.08	34.02
696.265	34.51
696.451	35.16
696.637	35.75
696.823	36.56
697.009	37.03
697.194	37.59
697.38	37.87
697.566	38.18
697.751	38.5
697.937	39.33
698.123	39.89
698.308	40.45
698.494	41.17
698.68	41.72
698.865	42.15
699.051	42.73
699.236	43.11
699.422	43.36
699.607	43.58
699.793	43.86
699.978	44.19
700.164	44.55
700.349	45.29
700.535	45.98
700.72	46.22
700.906	46.87
701.091	47.35
701.276	47.63
701.462	48.42
701.647	49.29
701.832	49.4
702.018	50.11
702.203	50.34
702.388	50.14
702.573	50.55
702.759	51.32
702.944	51.3
703.129	51.67
703.314	52.26
703.499	52.21
703.684	52.47
703.87	53.49
704.055	54.35
704.24	54.87
704.425	55.72
704.61	55.74
704.795	55.82
704.98	55.68
705.165	55.7
705.35	55.81
705.535	56.27
705.72	56.62
705.905	57.44
706.09	57.85
706.275	57.94
706.459	57.94
706.644	57.85
706.829	57.88
707.014	57.81
707.199	58.18
707.384	58.81
707.568	59.01
707.753	59.33
707.938	60.06
708.123	60.28
708.307	60.35
708.492	60.84
708.677	60.78
708.861	60.87
709.046	60.82
709.231	61.36
709.415	61.73
709.6	61.63
709.784	61.59
709.969	62.22
710.153	62.22
710.338	62.3
710.522	62.91
710.707	63.53
710.891	63.38
711.076	63.37
711.26	63.4
711.445	63.74
711.629	63.54
711.813	64
711.998	64.42
712.182	64.13
712.366	64.25
712.551	65.06
712.735	65.24
712.919	65.11
713.103	65.86
713.288	65.74
713.472	65.37
713.656	65.65
713.84	65.98
714.024	66.27
714.208	66.34
714.393	66.64
714.577	66.7
714.761	67.03
714.945	67.04
715.129	67.49
715.313	67.46
715.497	67.11
715.681	67.39
715.865	67.29
716.049	67.17
716.233	67.31
716.417	68.15
716.601	68.11
716.785	68.18
716.968	68.29
717.152	68.69
717.336	68.68
717.52	68.64
717.704	68.86
717.888	69.66
718.071	69.69
718.255	69.45
718.439	69.6
718.622	70.14
718.806	69.83
718.99	69.55
719.174	69.58
719.357	69.47
719.541	69.17
719.724	68.89
719.908	69.88
720.092	70.32
720.275	70.94
720.459	70.77
720.642	70.91
720.826	69.82
721.009	69.59
721.193	68.99
721.376	69.8
721.559	70.24
721.743	71.06
721.926	71.29
722.11	72.22
722.293	71.85
722.476	71.63
722.66	71.42
722.843	71.58
723.026	70.56
723.21	70.54
723.393	71.51
723.576	71.9
723.759	71.69
723.942	72.31
724.126	72.63
724.309	72.26
724.492	72.5
724.675	72.44
724.858	72.33
725.041	72.97
725.224	73.1
725.407	72.92
725.59	73.9
725.774	74.11
725.957	72.67
726.14	72.1
726.322	72.53
726.505	71.88
726.688	72.63
726.871	72.95
727.054	73.25
727.237	72.93
727.42	73.49
727.603	72.97
727.786	73.63
727.968	73.94
728.151	73.75
728.334	73.65
728.517	74.14
728.699	74.42
728.882	74.24
729.065	75.09
729.248	75.46
729.43	75.89
729.613	76.07
729.796	76.7
729.978	75.98
730.161	75.96
730.343	75.79
730.526	76.53
730.708	75.95
730.891	76.32
731.073	75.61
731.256	75.03
731.438	74.56
731.621	75.45
731.803	76.01
731.986	76.96
732.168	76.63
732.35	76.67
732.533	76.43
732.715	75.81
732.898	76.31
733.08	76.78
733.262	77.02
733.444	77.01
733.627	77.95
733.809	78.14
733.991	79.39
734.173	78.89
734.355	79.06
734.538	78.9
734.72	77.67
734.902	76.99
735.084	77.11
735.266	77.72
735.448	78.31
735.63	79.1
735.812	79.13
735.994	80.41
736.176	80.03
736.358	79.13
736.54	80.24
736.722	80.38
736.904	79.84
737.086	79.17
737.268	80.54
737.45	79.26
737.632	78.76
737.814	78.14
737.995	79.39
738.177	78.36
738.359	78.16
738.541	78.93
738.723	79.77
738.904	79.54
739.086	80.74
739.268	80.89
739.449	80.72
739.631	80.14
739.813	80.93
739.994	80.4
740.176	81.23
740.358	80.98
740.539	82.72
740.721	82.42
740.902	82.75
741.084	82.47
741.265	82.78
741.447	82.47
741.628	82.17
741.81	81.07
741.991	81.65
742.172	82.85
742.354	82.46
742.535	82.85
742.717	83.65
742.898	83.82
743.079	83.76
743.261	83.59
743.442	82.82
743.623	83.59
743.804	83.82
743.986	84.16
744.167	82.34
744.348	82.39
744.529	81.93
744.71	80.25
744.891	79.54
745.073	79.9
745.254	79.93
745.435	78.63
745.616	78.38
745.797	78.33
745.978	79.14
746.159	79.09
746.34	79.75
746.521	82.16
746.702	80.68
746.883	79.5
747.064	79.27
747.245	79.47
747.426	78.53
747.606	79.08
747.787	80.8
747.968	80.8
748.149	81.67
748.33	81.89
748.51	82.21
748.691	81.13
748.872	82.75
749.053	81.86
749.233	80.75
749.414	80.51
749.595	80.12
749.775	77.27
749.956	76.25
750.137	75.85
750.317	77.22
750.498	78.93
750.678	81.06
750.859	82
751.04	83.19
751.22	81.53
751.4	80.31
751.581	78.35
751.761	78.62
751.942	78.65
752.122	79.72
752.303	79.41
752.483	80.26
752.663	79.61
752.844	78.51
753.024	78.44
753.204	79.77
753.385	79.3
753.565	79.16
753.745	79.64
753.925	79.61
754.106	78.79
754.286	79.26
754.466	80.44
754.646	81.21
754.826	79.69
755.006	78.15
755.187	78.96
755.367	78.4
755.547	78.01
755.727	80.03
755.907	81.33
756.087	81.25
756.267	79.83
756.447	80.66
756.627	78.04
756.807	78.12
756.987	77.05
757.167	78
757.346	76.68
757.526	75.05
757.706	75.74
757.886	77.27
758.066	78.99
758.246	81.34
758.425	84.83
758.605	83.67
758.785	83.5
758.965	82.62
759.144	79.5
759.324	80
759.504	82.2
759.683	81.59
759.863	79.11
760.043	78.65
760.222	76.61
760.402	74.67
760.581	74.09
760.761	76.86
760.94	76.75
761.12	80.13
761.299	81.57
761.479	81.5
761.658	79.33
761.838	79.78
762.017	77.82
762.197	76.73
762.376	76.63
762.555	79.2
762.735	80.18
762.914	78.35
763.093	78.75
763.273	78.39
763.452	76.26
763.631	76.17
763.81	77.3
763.99	75.55
764.169	76.66
764.348	76.34
764.527	74.79
764.706	75.29
764.885	77.35
765.064	75.6
765.243	76.06
765.423	78.33
765.602	77.11
765.781	75.61
765.96	73.83
766.139	72.57
766.318	72.34
766.497	71.69
766.676	71.92
766.854	76.73
767.033	78.47
767.212	78.44
767.391	78.22
767.57	79.13
767.749	78.86
767.928	78.94
768.106	77.21
768.285	76.47
768.464	76.07
768.643	74.44
768.821	74.22
769	77.08
769.179	78.61
769.357	75.91
769.536	75.55
769.715	76.11
769.893	75.23
770.072	74.01
770.25	75.83
770.429	75.09
770.607	73.78
770.786	73.72
770.964	76.71
771.143	76.87
771.321	78.51
771.5	79.26
771.678	77.7
771.857	74.55
772.035	73.94
772.213	73.05
772.392	71.42
772.57	72.07
772.748	73.61
772.927	71.66
773.105	70.27
773.283	71.88
773.461	71.29
773.64	69.58
773.818	71.33
773.996	73.88
774.174	70.65
774.352	67.51
774.531	66.77
774.709	68.51
774.887	66.85
775.065	68.82
775.243	71.72
775.421	73.73
775.599	73.88
775.777	71.72
775.955	71.37
776.133	68.54
776.311	67
776.489	63.86
776.667	65.28
776.844	65.44
777.022	66.73
777.2	67.62
777.378	67.75
777.556	68.22
777.734	70.86
777.911	72.79
778.089	72.31
778.267	74.63
778.445	74.68
778.622	72.26
778.8	71.03
778.978	75.14
779.155	74.01
779.333	73.97
779.511	72.83
779.688	74.19
779.866	66.69
780.043	64.7
780.221	63.79
780.398	63.1
780.576	64.87
780.753	69.38
780.931	69.36
781.108	68.34
781.286	72.43
781.463	68.89
781.64	65.51
781.818	67.57
781.995	70.48
782.172	68.25
782.35	69.04
782.527	73.92
782.704	72.18
782.882	72.34
783.059	71.04
783.236	71.16
783.413	70.53
783.59	71.68
783.768	66.64
783.945	72.07
784.122	73.23
784.299	72.7
784.476	70.42
784.653	72.15
784.83	66.93
785.007	64.06
785.184	65.2
785.361	67.17
785.538	70.81
785.715	74.76
785.892	74.67
786.069	73.25
786.246	74.87
786.423	73.23
786.6	71.29
786.776	75.86
786.953	76.03
787.13	77.63
787.307	77.23
787.484	76.22
787.66	72.51
787.837	74.17
788.014	69.16
788.191	67.19
788.367	62.47
788.544	66.11
788.721	63.38
788.897	66.86
789.074	69.49
789.25	72.06
789.427	72.15
789.603	71.98
789.78	69.63
789.956	64.92
790.133	63.88
790.309	63.27
790.486	66.33
790.662	64.46
790.839	68.43
791.015	71.38
791.192	67.25
791.368	66.39
791.544	65.68
791.721	65.8
791.897	64.44
792.073	63.19
792.249	59.48
792.426	62.6
792.602	64.92
792.778	64.85
792.954	64.67
793.13	64.67
793.307	57.92
793.483	51.74
793.659	53.77
793.835	60.3
794.011	59.65
794.187	65.13
794.363	64.92
794.539	64.59
794.715	55.89
794.891	57.21
795.067	53.82
795.243	58.68
795.419	54.48
795.595	57.02
795.771	54.41
795.947	59.91
796.122	56.43
796.298	60.62
796.474	60.53
796.65	59.47
796.826	55.98
797.001	57.54
797.177	49.76
797.353	55.67
797.529	58.68
797.704	58.02
797.88	56.48
798.056	56.72
798.231	48.49
798.407	54.42
798.582	57.84
798.758	64.2
798.934	75.43
799.109	78.28
799.285	70.1
799.46	68.81
799.636	62.62
799.811	57.44
799.986	60.27
800.162	63.21
800.337	66.4
800.513	63.97
800.688	64.76
800.863	69.14
801.039	63.32
801.214	58.2
801.389	61.61
801.565	55.02
801.74	45.15
801.915	55.34
802.09	55.22
802.265	61.36
802.441	62.12
802.616	65.69
802.791	59.84
802.966	63.45
803.141	58.98
803.316	57.68
803.491	63.49
803.666	67.86
803.841	62.52
804.016	55.77
804.191	59.5
804.366	52.6
804.541	47.51
804.716	48.59
804.891	49.68
805.066	57.34
805.241	56.23
805.416	55.13
805.591	56.41
805.765	61.73
805.94	58.5
806.115	60.83
806.29	57.1
806.464	55.29
806.639	50.21
806.814	47.14
806.989	32.78
807.163	51.53
807.338	57.99
807.512	58.81
807.687	46.87
807.862	66.17
808.036	63.25
808.211	65.53
808.385	67.16
808.56	82
808.734	93.2
808.909	90.81
809.083	78.58
809.258	86.23
809.432	80.62
809.606	55.82
809.781	47.71
809.955	59.12
810.13	62.16
810.304	57.65
810.478	61.62
810.652	70.26
810.827	70.46
811.001	59.06
811.175	57.22
811.349	60.1
811.524	53.09
811.698	44.9
811.872	53.69
812.046	61.75
812.22	62.06
812.394	66.23
812.568	68.29
812.742	66.21
812.916	61.36
813.09	58.08
813.264	58.39
813.438	69.08
813.612	57.94
813.786	53.48
813.96	65.05
814.134	62.12
814.308	71.5
814.482	78.14
814.656	81.01
814.83	78.37
815.003	83.57
815.177	59.27
815.351	55.04
815.525	55.09
815.698	42.2
815.872	32.14
816.046	27.76
816.219	36.19
816.393	49.57
816.567	56.34
816.74	60.21
816.914	65.33
817.088	74.88
817.261	62.46
817.435	50.73
817.608	60.25
817.782	56.49
817.955	45.75
818.129	40.52
818.302	52.6
818.475	56.19
818.649	59.79
818.822	55.26
818.996	82.97
819.169	88.64
819.342	72.57
819.516	84.61
819.689	80.44
819.862	59.95
820.035	41.57
820.209	46.34
820.382	44.26
820.555	49.52
820.728	34.56
820.901	36.1
821.075	38.66
821.248	42.91
821.421	17.88
821.594	33.35
821.767	69.3
821.94	68.99
822.113	41.17
822.286	54.37
822.459	58.49
822.632	40.15
822.805	30.43
822.978	38.21
823.151	28.71
823.324	20.74
823.496	1.09
823.669	0.65
823.842	4.18
824.015	-16.03
824.188	-4.54
824.361	-1.68
824.533	8.72
824.706	14.36
824.879	43.96
825.051	39.47
825.224	40.74
825.397	32.51
825.569	18.72
825.742	23.81
825.915	37.62
826.087	64.52
826.26	47.43
826.432	63.71
826.605	61.12
826.777	40.78
826.95	33.96
827.122	31.03
827.295	25.88
827.467	26.15
827.64	7.21
827.812	-6.76
827.984	15.64
828.157	7.32
828.329	-24.03
828.501	-2.72
828.674	30.42
828.846	12.32
829.018	29.75
829.19	12.98
829.363	51.4
829.535	51.35
829.707	52.17
829.879	32.04
830.051	42.63
830.223	8.81
830.395	-23.7
830.568	-24.33
830.74	-23.06
830.912	1.36
831.084	-7.55
831.256	4.25
831.428	2.89
831.6	4.99
831.772	-25.96
831.943	-38.81
832.115	-16.16
832.287	-4.23
832.459	5.37
832.631	21.84
832.803	67.18
832.975	89.7
833.146	90.03
833.318	92.16
833.49	102.59
833.662	58.23
833.833	18.86
834.005	11.38
834.177	12.52
834.348	8.6
834.52	-13.52
834.692	-7.83
834.863	-24.4
835.035	-18.02
835.206	-69.27
835.378	-21.59
835.549	-36.19
835.721	-13.28
835.892	-13.22
836.064	-4.49
836.235	-12.9
836.407	38.63
836.578	-11.54
836.749	-26.58
836.921	-41.44
837.092	-48.52
837.264	-74.87
837.435	-63.71
837.606	-4.04
837.777	25.27
837.949	31.49
838.12	35.79
838.291	48.41
838.462	21.78
838.633	-1.68
838.805	7.69
838.976	5.68
839.147	-38.44
839.318	-25.93
839.489	-53.03
839.66	-47.14
839.831	-9.47
840.002	14.9
840.173	-6.37
840.344	56.27
840.515	98.3
840.686	26.63
840.857	-7.92
841.028	-20.48
841.199	-74.07
841.369	-125.91
841.54	-94.7
841.711	-58.51
841.882	-12.18
842.053	-7.9
842.223	10.23
842.394	19.52
842.565	18.32
842.736	10.42
842.906	32.21
843.077	34.31
843.248	49.74
843.418	32.07
843.589	-17.07
843.759	10.04
843.93	32.17
844.101	23.78
844.271	29.94
844.442	45.11
844.612	45.65
844.783	15.37
844.953	-25.58
845.123	-17.59
845.294	-35.25
845.464	-276.42
845.635	-113.04
845.805	-8.65
845.975	5.54
846.146	-31.37
846.316	-21.89
846.486	1.19
846.656	43.7
846.827	33.81
846.997	42.15
847.167	86.95
847.337	30.33
847.507	-59.48
847.677	-31.13
847.848	39.9
848.018	30.06
848.188	49.44
848.358	46.42
848.528	38.68
848.698	-0.9
848.868	-73.52
849.038	-173.74
849.208	-27.97
849.378	-1.03
849.548	-14.93
849.718	3.67
849.887	25.74
850.057	-6.29
850.227	-19.08
850.397	-53.58
850.567	-137.13
850.737	-415.65
850.906	-1225
851.076	-1164.06
851.246	-403.14
851.415	-41.69
851.585	-22.34
851.755	-63.43
851.924	4.67
852.094	-57.27
852.264	-157.74
852.433	-939.42
852.603	-197.28
852.772	-213.65
852.942	-89.17
853.111	-78.54
853.281	-9.37
853.45	20.87
853.62	-36.94
853.789	-50.3
853.959	-9.54
854.128	-78.16
854.297	-72.66
854.467	-82.86
854.636	-63.67
854.805	-21.78
854.975	-25.44
855.144	-113.15
855.313	-5.59
855.482	-340.88
855.652	-176.06
855.821	-155.81
855.99	24.32
856.159	27.35
856.328	41.12
856.497	13.34
856.667	15.57
856.836	-5.86
857.005	-43.42
857.174	-60.09
857.343	-67.5
857.512	-71.75
857.681	-79.79
857.85	-128.09
858.019	-96.59
858.188	-89.19
858.356	-89.86
858.525	-170.75
858.694	-128.87
858.863	-188.94
859.032	-155.02
859.201	-85.68
859.369	25.51
859.538	14.26
859.707	-32.62
859.876	-0.37
860.044	-76.62
860.213	-3.88
860.382	-8.91
860.55	11.09
860.719	29.69
860.888	36.79
861.056	7.41
861.225	-11.46
861.393	26.52
861.562	29.26
861.73	-52.54
861.899	-172.25
862.067	-1041.38
862.236	-63.03
862.404	-189.05
862.572	-97.6
862.741	-24.37
862.909	-33.48
863.078	-140.07
863.246	-109.86
863.414	-107.67
863.582	-76.65
863.751	-112.79
863.919	-104.71
864.087	-33.38
864.255	-19.14
864.424	-318.73
864.592	-47.69
864.76	-124.89
864.928	-572.8
865.096	-328.34
865.264	-176.82
865.432	-2043.18
865.6	-76
865.768	-111.91
865.936	-149.11
866.104	-207.57
866.272	-262.19
866.44	-596.06
866.608	847.28
866.776	308.72
866.944	2795.35
867.112	-490.25
867.28	-178.78
867.448	-29.06
867.615	4.18
867.783	15.21
867.951	6.56
868.119	89.76
868.286	53.94
868.454	-22.77
868.622	-58.47
868.789	-84.21
868.957	-3078.57
869.125	-3084.21
869.292	-255.53
869.46	-277.19
869.627	-32.37
869.795	-34
869.963	34.1
870.13	62.73
870.298	76.57
870.465	25.9
870.632	-12.8
870.8	-26.59
870.967	-58.73
871.135	-127.8
871.302	-110.33
871.469	-127.21
871.637	-86.12
871.804	-27.95
871.971	-78.66
872.139	-358.14
872.306	33.72
872.473	-4.97
872.64	-201.72
872.807	57.79
872.975	116.31
873.142	-54.18
873.309	1067.57
873.476	79.1
873.643	70.75
873.81	15.05
873.977	38.36
874.144	41.96
874.311	-121.18
874.478	-129.49
874.645	-145.67
874.812	-91.09
874.979	-35.25
875.146	-26.39
875.313	-35.42
875.48	26.59
875.647	-4.03
875.813	-47.87
875.98	-18.04
876.147	-41.35
876.314	-113.41
876.481	1122.31
876.647	-1424.72
876.814	613.47
876.981	-113.85
877.147	-76.76
877.314	-6.94
877.481	28.86
877.647	26.11
877.814	-14.87
877.98	-55.12
878.147	3.49
878.314	35.33
878.48	30.61
878.647	22.62
878.813	84.47
878.979	71.69
879.146	8.49
879.312	-8.97
879.479	-42.19
879.645	-158.09
879.811	-362.15
879.978	-700
880.144	-278.65
880.31	-154.76
880.477	-410.94
880.643	-394.72
880.809	-177.38
880.975	-75.1
881.142	-642.73
881.308	-62.5
881.474	-38.06
881.64	-25.44
881.806	-165.43
881.972	-45.45
882.138	-68.76
882.304	-118.16
882.47	-289.39
882.636	-886.89
882.802	-340.76
882.968	-105.12
883.134	-55.71
883.3	-47.08
883.466	7.5
883.632	49.78
883.798	29.81
883.964	24.49
884.129	50.94
884.295	104.32
884.461	2.76
884.627	-26.11
884.793	-46.82
884.958	-40
885.124	-152.64
885.29	-246.93
885.455	-373.79
885.621	-97.2
885.787	-165.55
885.952	-109.06
886.118	-97.79
886.283	-73.9
886.449	-173.73
886.614	-150.89
886.78	-173.85
886.945	613.11
887.111	-448.55
887.276	-348.86
887.442	-629.09
887.607	-247.17
887.773	-186.94
887.938	-226.89
888.103	-232.82
888.269	-133.43
888.434	-338.38
888.599	-123.46
888.764	1.37
888.93	16.24
889.095	2.76
889.26	-17.21
889.425	21.11
889.59	25.36
889.756	-22.86
889.921	-23.4
890.086	45.43
890.251	42.01
890.416	-103.43
890.581	-1067.74
890.746	170
890.911	392.99
891.076	199.44
891.241	-312.69
891.406	56.4
891.571	-3.32
891.736	-200.46
891.901	-222.12
892.065	219.78
892.23	94.65
892.395	117.22
892.56	201.73
892.725	19.53
892.889	60.98
893.054	-83.91
893.219	-19.96
893.384	30.66
893.548	-53.57
893.713	-62.44
893.878	-29.91
