Data from Ofra_PS_T2_2A_4HS15_Reflection_2.txt Node
Date: Wed Jul 21 17:13:49 EDT 2021
User: Adam
Spectrometer: FLMT01687
Trigger mode: 0
Integration Time (sec): 1.100000E0
Scans to average: 2
Electric dark correction enabled: true
Nonlinearity correction enabled: false
Boxcar width: 2
XAxis mode: Wavelengths
Number of Pixels in Spectrum: 3648
>>>>>Begin Spectral Data<<<<<
179.494	426.4
179.716	564.47
179.937	557.86
180.158	585.25
180.38	966.25
180.601	419.89
180.823	66.24
181.044	-120.38
181.265	-8.09
181.486	48.53
181.708	149.19
181.929	1134.69
182.15	-685.92
182.372	55.41
182.593	9.06
182.814	48.36
183.035	95.3
183.257	69.96
183.478	-60.21
183.699	14.88
183.92	14.22
184.141	3.36
184.363	-23.02
184.584	41.69
184.805	28.85
185.026	32.54
185.247	29.1
185.468	8.57
185.689	17.74
185.91	25
186.132	29.14
186.353	21.87
186.574	101.02
186.795	76.98
187.016	12.57
187.237	8.6
187.458	25.51
187.679	0.24
187.9	-2.99
188.121	16.87
188.342	19.73
188.563	31.24
188.784	45.55
189.005	39.33
189.226	55.87
189.447	45.37
189.667	-47.09
189.888	-408.37
190.109	-1493.51
190.33	-678.06
190.551	-1195.58
190.772	-308.96
190.993	-235.08
191.214	-171.83
191.434	-125.91
191.655	-38.77
191.876	-115.81
192.097	-149.65
192.318	-185.86
192.538	-254.55
192.759	-224.08
192.98	-73.57
193.201	-10.02
193.421	11.07
193.642	11.72
193.863	23.31
194.083	-2.02
194.304	-25.52
194.525	-45.02
194.745	-64.79
194.966	-94.79
195.187	-100.73
195.407	-128.9
195.628	-172.53
195.848	-165.63
196.069	-137.78
196.29	-101.88
196.51	-96.89
196.731	-82.46
196.951	-133.5
197.172	-127.02
197.392	-138.61
197.613	-141.06
197.833	-159.29
198.054	-126.34
198.274	-79.33
198.495	-102.36
198.715	-62.82
198.936	-88.33
199.156	-48.93
199.377	-179.14
199.597	-161.65
199.817	-193.79
200.038	-117.87
200.258	-206.36
200.479	-98.66
200.699	-61.13
200.919	-4.38
201.14	-17.78
201.36	-18.07
201.58	4.32
201.801	19.13
202.021	-16.58
202.241	-21.72
202.461	-17.22
202.682	-116.92
202.902	-221.54
203.122	-148.54
203.342	-117.33
203.563	-69.33
203.783	-28.42
204.003	-54.84
204.223	-29.85
204.443	20.54
204.663	-25.87
204.884	-10.63
205.104	33.74
205.324	43.79
205.544	19.85
205.764	48.96
205.984	46.59
206.204	45.31
206.424	34.67
206.644	-4.1
206.864	6.25
207.084	-61.13
207.304	-39.73
207.525	-192.5
207.745	-71.11
207.964	-14.59
208.184	-12.58
208.404	-46.79
208.624	-43.39
208.844	-47.93
209.064	-352.76
209.284	-365.54
209.504	-197.75
209.724	-41.71
209.944	-18.32
210.164	23.07
210.384	21.06
210.604	8.55
210.823	-44.77
211.043	-83.7
211.263	-62.02
211.483	-70.31
211.703	-132.76
211.922	-99.08
212.142	-3.1
212.362	10.15
212.582	3.46
212.801	19.41
213.021	-9.05
213.241	-40.39
213.461	-80.25
213.68	-84.22
213.9	-52.87
214.12	-46.14
214.339	-119.29
214.559	-109.61
214.779	-63.45
214.998	-71.65
215.218	-125.15
215.438	-77.09
215.657	-83.55
215.877	-83.69
216.096	-50.99
216.316	-35.3
216.535	-44.14
216.755	-46.25
216.974	-153.85
217.194	-199.52
217.413	-174.48
217.633	-163.36
217.852	-262.19
218.072	-113.31
218.291	-58.3
218.511	-15.81
218.73	-29.6
218.95	-23.91
219.169	-27.82
219.389	-79.76
219.608	-70.37
219.827	-70.03
220.047	-53.17
220.266	-35.23
220.485	-25.13
220.705	-14.31
220.924	-37.42
221.143	5.95
221.363	-27.45
221.582	-6.69
221.801	3.9
222.021	31.48
222.24	-79.33
222.459	8.61
222.678	-18.76
222.897	-75.16
223.117	-125.89
223.336	-56.17
223.555	-61.12
223.774	15.2
223.993	26.49
224.213	90.51
224.432	50.25
224.651	69.17
224.87	12.09
225.089	21.09
225.308	8.35
225.527	27.75
225.746	7.88
225.965	2.02
226.184	-26.08
226.404	-0.56
226.623	-28.19
226.842	-3.77
227.061	13.82
227.28	17.23
227.499	-16.36
227.718	7.92
227.936	-8.34
228.155	-6.31
228.374	-17.77
228.593	-3.78
228.812	-8.79
229.031	-20.54
229.25	-61.07
229.469	-78.6
229.688	-49.1
229.907	-27.04
230.125	-4.23
230.344	7.11
230.563	23.79
230.782	24.5
231.001	-49.74
231.22	-58.63
231.438	-33.21
231.657	-16.43
231.876	-37.78
232.095	12.96
232.313	22.82
232.532	11.12
232.751	-23.04
232.969	-35.85
233.188	-86.31
233.407	-24.88
233.625	-14.57
233.844	-40.76
234.063	-27.01
234.281	4.79
234.5	-6.12
234.719	-15.76
234.937	16.53
235.156	31.58
235.374	26.72
235.593	7.52
235.811	13.42
236.03	-4.85
236.249	-58.88
236.467	-56.38
236.686	-23.09
236.904	-13.92
237.123	-42.47
237.341	-34.91
237.559	-27.29
237.778	-46.24
237.996	-76.32
238.215	-31.38
238.433	-3.14
238.652	-11.98
238.87	-20.16
239.088	8.82
239.307	19.88
239.525	15.41
239.743	-21.13
239.962	3.53
240.18	-38.07
240.398	-72.63
240.617	-95.01
240.835	-66.63
241.053	-45.85
241.271	11.66
241.49	8.85
241.708	0.52
241.926	-0.13
242.144	-13.37
242.363	-77.53
242.581	-85.73
242.799	-25.52
243.017	-12.3
243.235	-35.99
243.453	-17.76
243.672	-27.14
243.89	-31.62
244.108	-39.45
244.326	-12.48
244.544	4.81
244.762	20.32
244.98	22.59
245.198	24.43
245.416	-13.79
245.634	-40.72
245.852	-60.8
246.07	-82.32
246.288	-90.1
246.506	-95.52
246.724	-75.35
246.942	-68.62
247.16	-21.94
247.378	-28.76
247.596	-0.69
247.814	-5.8
248.032	-18.21
248.25	-15.4
248.468	9.57
248.685	14.97
248.903	40.52
249.121	39.06
249.339	7.75
249.557	-16.01
249.775	-11.06
249.992	-78.75
250.21	-73.3
250.428	-55.19
250.646	-78.15
250.863	-102.47
251.081	-65.82
251.299	-52.61
251.517	-34.11
251.734	-32.82
251.952	-29.73
252.17	-25.74
252.387	-16.44
252.605	-36.18
252.823	-26.99
253.04	-6.94
253.258	11.37
253.475	14.16
253.693	42.88
253.911	54.15
254.128	52.91
254.346	50.19
254.563	16.28
254.781	-16.33
254.998	-54.16
255.216	-69.52
255.433	-72.89
255.651	-24.42
255.868	-2.68
256.086	34.51
256.303	35.81
256.521	39.6
256.738	8.53
256.956	-22.34
257.173	-26.82
257.39	-59.6
257.608	-98.88
257.825	-8.95
258.043	56.56
258.26	52.75
258.477	87.77
258.695	91.42
258.912	1.54
259.129	-16.38
259.346	-63
259.564	-103.82
259.781	-116.06
259.998	-36.52
260.216	-4.67
260.433	43.68
260.65	29.97
260.867	46.64
261.084	22.03
261.302	0.37
261.519	-17.03
261.736	-23.56
261.953	-61.61
262.17	-24.33
262.387	-55.87
262.604	-75.09
262.822	-74.95
263.039	-51.93
263.256	-99.27
263.473	-61.04
263.69	-47.94
263.907	-6.07
264.124	11.14
264.341	17.21
264.558	5.43
264.775	25.66
264.992	27.19
265.209	18.87
265.426	36.62
265.643	49.01
265.86	57.97
266.077	47.77
266.294	42.78
266.51	0.43
266.727	-19.42
266.944	-25.58
267.161	-39.15
267.378	-40.39
267.595	-6.08
267.812	-33.99
268.028	-77.57
268.245	-38.88
268.462	-56.37
268.679	-63.58
268.896	-2.13
269.112	18.96
269.329	10.46
269.546	25.5
269.763	22.08
269.979	7.29
270.196	6.59
270.413	-12.67
270.629	-35.75
270.846	-57.07
271.063	-62.2
271.279	-94.97
271.496	-93.51
271.712	-67.67
271.929	-41.29
272.146	-38.15
272.362	-11
272.579	17.64
272.795	44.43
273.012	48.23
273.228	50.64
273.445	14.52
273.661	2.52
273.878	-60.09
274.094	-76.02
274.311	-102.94
274.527	-16.45
274.744	-23.27
274.96	-11.8
275.177	9.69
275.393	30.13
275.609	24.16
275.826	45.69
276.042	40.55
276.259	4.64
276.475	19.93
276.691	16.83
276.908	-11.78
277.124	9.7
277.34	23.7
277.557	2.03
277.773	-12.7
277.989	-15.24
278.205	-31.32
278.422	-6.77
278.638	-12.55
278.854	1.14
279.07	-2.41
279.286	0.13
279.503	-55.43
279.719	-45.56
279.935	-81.07
280.151	-86.22
280.367	-67.9
280.583	-87.77
280.799	-64.85
281.016	-86.86
281.232	-35.83
281.448	-42.37
281.664	-5.21
281.88	-48.78
282.096	-1.91
282.312	11.9
282.528	26.29
282.744	19.78
282.96	22.82
283.176	1.96
283.392	-17.54
283.608	-24.77
283.824	-33.26
284.04	-20.15
284.256	-5.43
284.471	1.11
284.687	13.75
284.903	55.65
285.119	72.7
285.335	40.39
285.551	49.5
285.767	16.85
285.982	-12.02
286.198	-57.06
286.414	-3.71
286.63	-4.22
286.846	28.41
287.061	3.18
287.277	35.7
287.493	5.58
287.709	17.86
287.924	-5.73
288.14	30.9
288.356	11.76
288.571	41.86
288.787	21.08
289.003	15.61
289.218	1.73
289.434	-33.56
289.65	-34.8
289.865	-34.92
290.081	-0.53
290.296	-1.15
290.512	3.99
290.727	-23.08
290.943	-19.93
291.159	-39.92
291.374	-42.66
291.59	-53.76
291.805	-36.72
292.021	-27.51
292.236	-25.16
292.451	-9.85
292.667	13.7
292.882	25.6
293.098	19.84
293.313	14.78
293.529	11.59
293.744	-22.63
293.959	-37.07
294.175	-42.16
294.39	-0.43
294.605	13.96
294.821	43.35
295.036	45.08
295.251	63.03
295.467	42.13
295.682	35.02
295.897	-5.47
296.112	-19.03
296.328	-28.16
296.543	-68.47
296.758	-65.23
296.973	-15.31
297.188	6.22
297.404	-17.4
297.619	-26.36
297.834	-30.76
298.049	-64.83
298.264	-70.31
298.479	-26.08
298.694	-4.06
298.909	9.86
299.125	12.43
299.34	14.78
299.555	5.02
299.77	-10.13
299.985	-53.39
300.2	-101.52
300.415	-109.55
300.63	-80.08
300.845	-63.7
301.06	-55.16
301.275	-21.98
301.49	-2.24
301.704	-7.51
301.919	-30.09
302.134	-45.06
302.349	-36.78
302.564	-117.43
302.779	-169.19
302.994	-150.16
303.209	-84.36
303.423	-52.59
303.638	36.57
303.853	16.52
304.068	14.58
304.283	12.18
304.497	-1.07
304.712	-18.88
304.927	-6.02
305.142	-8.99
305.356	3.51
305.571	-2.97
305.786	-13.35
306	-41.56
306.215	-36.02
306.43	-68.52
306.644	-49.26
306.859	-7.16
307.074	7.33
307.288	-48.57
307.503	-37.62
307.717	-51.52
307.932	-64.81
308.147	-62.79
308.361	-17.94
308.576	-46.45
308.79	-87.21
309.005	-67.02
309.219	-56.02
309.434	-66.31
309.648	-41.26
309.863	-16.26
310.077	-22.78
310.292	-20.25
310.506	-21.83
310.72	-15.31
310.935	-7.6
311.149	-13.59
311.364	12.06
311.578	22.96
311.792	21.92
312.007	24.43
312.221	20.2
312.435	21.29
312.649	8.93
312.864	34.81
313.078	46.23
313.292	96.98
313.507	42.7
313.721	47.9
313.935	13.01
314.149	6.84
314.363	-2.72
314.578	2.46
314.792	4.26
315.006	-4.8
315.22	3.46
315.434	0.24
315.648	6.66
315.862	1.11
316.077	10.77
316.291	-12.32
316.505	-0.32
316.719	-14.08
316.933	-24.49
317.147	-49.05
317.361	-98.6
317.575	-111.29
317.789	-142.52
318.003	-192.74
318.217	-130.72
318.431	-28.32
318.645	14.29
318.859	11.08
319.073	34.43
319.287	9.22
319.5	-18.77
319.714	-61.85
319.928	-88.75
320.142	-133.03
320.356	-58.81
320.57	-19.06
320.784	-26.53
320.997	-17.48
321.211	10.85
321.425	-50.41
321.639	-92.82
321.853	-38.51
322.066	-19.65
322.28	-31.38
322.494	-24.85
322.707	-1.65
322.921	-18.74
323.135	-28.21
323.349	-21.28
323.562	-39
323.776	-48.87
323.989	-41.99
324.203	-45.44
324.417	-41.47
324.63	-42.9
324.844	-52.3
325.057	-63.71
325.271	-45.64
325.485	-18.11
325.698	0.55
325.912	14.77
326.125	-9.93
326.339	-18.97
326.552	-50.69
326.766	-56.94
326.979	-26.58
327.193	34.01
327.406	25.22
327.619	16.7
327.833	34.66
328.046	-3.6
328.26	-63.08
328.473	-26.7
328.686	-47.95
328.9	-50.92
329.113	-15.28
329.326	-28.89
329.54	-33.28
329.753	-30.03
329.966	-52.03
330.179	-68.09
330.393	-21.72
330.606	-8.02
330.819	2.4
331.032	27.82
331.246	30.07
331.459	47.46
331.672	37.89
331.885	35.12
332.098	-5.22
332.311	-10.53
332.525	-61.45
332.738	-40.76
332.951	-14.24
333.164	29.96
333.377	30.76
333.59	54.03
333.803	40.63
334.016	29.92
334.229	9.51
334.442	12.76
334.655	11.9
334.868	21.3
335.081	17.63
335.294	6.84
335.507	-4.76
335.72	-17.24
335.933	-37.45
336.146	-51.43
336.359	-46.9
336.572	-62.51
336.785	-87.79
336.997	-59.59
337.21	-23.27
337.423	-26.73
337.636	-24.15
337.849	-3.73
338.062	-3.65
338.274	-7.24
338.487	-18.84
338.7	-18.59
338.913	-53.13
339.125	-90.87
339.338	-152.71
339.551	-126.2
339.763	-76.74
339.976	-35.7
340.189	-10.65
340.402	-2.72
340.614	-8.01
340.827	-19.07
341.039	-40.58
341.252	-40.35
341.465	-21.38
341.677	-16.62
341.89	-56.92
342.102	-27.68
342.315	-38.4
342.527	-83.63
342.74	-75.83
342.952	-19.83
343.165	-16.79
343.377	4.91
343.59	11.15
343.802	23.01
344.015	24.44
344.227	35.04
344.44	17.85
344.652	21.04
344.864	5.16
345.077	18.41
345.289	15.59
345.502	20.31
345.714	17.09
345.926	20.92
346.139	2.58
346.351	13.51
346.563	23.63
346.775	26.64
346.988	9.36
347.2	-5.74
347.412	-73.8
347.624	-101.36
347.837	-118.63
348.049	-69.97
348.261	-28.98
348.473	-6.4
348.685	0.32
348.897	13.56
349.11	-22.16
349.322	-60.95
349.534	-33.82
349.746	-31.61
349.958	-44.77
350.17	-44.86
350.382	-7.67
350.594	-32.14
350.806	-36.64
351.018	-37.86
351.23	-43.64
351.442	-98.46
351.654	-90.76
351.866	-73.38
352.078	-65.37
352.29	-31.08
352.502	-10.67
352.714	-1.84
352.926	-11.34
353.138	-8.62
353.35	-25.23
353.561	-25.68
353.773	-40.06
353.985	-21.89
354.197	-25.91
354.409	-14.32
354.621	-11.29
354.832	-5.46
355.044	-11.54
355.256	-13.43
355.468	-4.09
355.679	-8.39
355.891	-6.13
356.103	-36.61
356.314	-35.92
356.526	-40.48
356.738	-39.8
356.949	-54.08
357.161	-11.79
357.373	-10.85
357.584	-26.67
357.796	-2.95
358.008	-7.22
358.219	6.44
358.431	5.35
358.642	13.5
358.854	2.35
359.065	3.91
359.277	-49.83
359.488	-61.23
359.7	-97.07
359.911	-113.88
360.123	-71.63
360.334	-65.45
360.546	-70.97
360.757	-46.71
360.969	-25.18
361.18	-23.44
361.391	-1.41
361.603	-11.92
361.814	1.77
362.025	-13.1
362.237	-28.18
362.448	-24
362.659	5.13
362.871	-8.14
363.082	-13.44
363.293	-9.66
363.504	-22.67
363.716	-46.29
363.927	-49.02
364.138	-54.36
364.349	-67.01
364.56	-67.23
364.772	-57.02
364.983	-26.77
365.194	-18.91
365.405	-4.87
365.616	25.15
365.827	21.56
366.038	-6.94
366.25	-15.51
366.461	-54.59
366.672	-50.26
366.883	-34.5
367.094	-20.39
367.305	-33.31
367.516	-11.27
367.727	-31.11
367.938	-33.35
368.149	-34.53
368.36	-12.83
368.571	-13.95
368.781	-26.98
368.992	-42.3
369.203	-56.01
369.414	-74.36
369.625	-90.79
369.836	-82.59
370.047	-104.8
370.258	-89.34
370.468	-69.88
370.679	-78.49
370.89	-70.79
371.101	-47.13
371.312	-50.85
371.522	-44.87
371.733	-36.09
371.944	-16.38
372.155	-1.65
372.365	-17.77
372.576	-25.68
372.787	-20.03
372.997	-57.73
373.208	-58.48
373.419	-10.9
373.629	-41.44
373.84	-47.51
374.05	-53.48
374.261	-36.9
374.472	-70.12
374.682	-14.97
374.893	-4.4
375.103	38.22
375.314	22.5
375.524	21.1
375.735	13.42
375.945	9.39
376.156	-27.19
376.366	-23.3
376.577	-16.71
376.787	-21.07
376.997	-14.01
377.208	-1.19
377.418	-6.71
377.629	6.94
377.839	6.13
378.049	4.28
378.26	16.37
378.47	22.34
378.68	5.34
378.89	2.27
379.101	2.01
379.311	-29.96
379.521	-59.25
379.732	-57.5
379.942	-68.86
380.152	-91.25
380.362	-51.31
380.572	-43.83
380.783	-25.62
380.993	-4.13
381.203	0.53
381.413	12.98
381.623	18.55
381.833	12.76
382.043	0.9
382.253	-10.99
382.463	-9.82
382.674	-21.12
382.884	-45.37
383.094	-44.47
383.304	-21
383.514	-27.65
383.724	-14.94
383.934	-12.57
384.144	-18.81
384.353	-33.71
384.563	-33.43
384.773	-28.83
384.983	-37.02
385.193	-20.47
385.403	-16.08
385.613	-16.95
385.823	-24.7
386.033	-15.46
386.242	-21.93
386.452	-24.83
386.662	-29.7
386.872	-13.61
387.082	-12.61
387.291	-17.41
387.501	-19.28
387.711	-10.04
387.921	-23.78
388.13	-22.04
388.34	-8.74
388.55	-11.15
388.759	-14.83
388.969	-6.85
389.179	-8.08
389.388	-10.79
389.598	-3.79
389.807	-7.82
390.017	-13.73
390.227	-10.3
390.436	-12.98
390.646	-12.15
390.855	-5.99
391.065	-5.98
391.274	-8.63
391.484	-10.05
391.693	-8.5
391.903	-9.06
392.112	-2.35
392.322	-1.27
392.531	1.92
392.74	2.34
392.95	-1.44
393.159	-3.5
393.369	-1.81
393.578	-1.64
393.787	-3.89
393.997	-2.34
394.206	-3.63
394.415	-3.98
394.625	-4.4
394.834	-5.39
395.043	-4.1
395.252	-1.35
395.462	-0.72
395.671	0.02
395.88	1.15
396.089	1.74
396.298	-0.67
396.508	-0.29
396.717	-0.6
396.926	-0.09
397.135	-0.95
397.344	-0.43
397.553	0.62
397.762	1.46
397.971	1.64
398.181	1.96
398.39	1.95
398.599	1.4
398.808	1.83
399.017	2.88
399.226	3.76
399.435	4.68
399.644	4.63
399.853	3.12
400.062	2.48
400.27	2.27
400.479	1.25
400.688	0.46
400.897	1.32
401.106	1.11
401.315	0.68
401.524	1
401.733	1.64
401.941	1.67
402.15	2.02
402.359	2.18
402.568	2.55
402.777	2.66
402.985	2.45
403.194	2.23
403.403	2.32
403.612	1.93
403.82	1.76
404.029	2.11
404.238	2.1
404.446	2.29
404.655	2.19
404.864	2.19
405.072	1.96
405.281	2.2
405.489	1.92
405.698	2
405.906	1.86
406.115	1.71
406.324	1.57
406.532	1.69
406.741	1.93
406.949	2.06
407.158	2.23
407.366	2.22
407.574	2.12
407.783	2.13
407.991	1.83
408.2	1.96
408.408	2.03
408.617	1.93
408.825	1.78
409.033	2.09
409.242	2.07
409.45	2.15
409.658	2.17
409.867	2.15
410.075	2.06
410.283	1.88
410.491	1.66
410.7	1.59
410.908	1.66
411.116	1.94
411.324	2
411.533	2.05
411.741	2.33
411.949	2.3
412.157	1.94
412.365	1.99
412.573	2.06
412.781	2.04
412.99	2
413.198	2.3
413.406	2.28
413.614	2.29
413.822	2.09
414.03	2.07
414.238	1.84
414.446	1.88
414.654	1.54
414.862	1.66
415.07	1.8
415.278	1.93
415.486	1.76
415.694	2.04
415.902	1.88
416.109	1.62
416.317	1.59
416.525	1.51
416.733	1.47
416.941	1.63
417.149	1.8
417.357	1.85
417.564	2.18
417.772	2.34
417.98	2.31
418.188	2.22
418.395	2.3
418.603	2.31
418.811	1.91
419.019	1.82
419.226	1.98
419.434	1.95
419.642	1.72
419.849	1.95
420.057	2.04
420.265	2.04
420.472	1.71
420.68	1.8
420.887	1.64
421.095	1.72
421.302	1.59
421.51	1.92
421.717	2.02
421.925	2.1
422.132	1.78
422.34	1.56
422.547	1.53
422.755	1.37
422.962	1.36
423.17	1.42
423.377	1.67
423.585	1.72
423.792	1.68
423.999	1.71
424.207	1.78
424.414	1.93
424.621	1.76
424.829	1.77
425.036	1.73
425.243	1.75
425.451	1.46
425.658	1.33
425.865	1.54
426.072	1.59
426.28	1.89
426.487	1.84
426.694	2.04
426.901	1.81
427.108	1.87
427.315	1.59
427.523	1.97
427.73	1.82
427.937	1.76
428.144	1.59
428.351	1.69
428.558	1.76
428.765	1.78
428.972	1.71
429.179	1.84
429.386	1.91
429.593	1.47
429.8	1.36
430.007	1.6
430.214	1.77
430.421	1.61
430.628	1.62
430.835	1.54
431.042	1.86
431.249	1.76
431.456	1.84
431.662	2.02
431.869	2.26
432.076	2.1
432.283	2.21
432.49	2.21
432.697	2.24
432.903	2.01
433.11	1.87
433.317	1.89
433.524	2.07
433.73	1.95
433.937	2.27
434.144	2.18
434.35	2.13
434.557	1.92
434.764	1.97
434.97	1.82
435.177	2.11
435.384	2.03
435.59	2.16
435.797	2.35
436.003	2.38
436.21	2.26
436.416	2.42
436.623	2.3
436.829	2.24
437.036	2.38
437.242	2.38
437.449	2.21
437.655	2.29
437.862	2.25
438.068	2.14
438.275	2.22
438.481	2.41
438.687	2.42
438.894	2.41
439.1	2.48
439.307	2.64
439.513	2.6
439.719	2.52
439.926	2.68
440.132	2.56
440.338	2.25
440.544	2.23
440.751	2.26
440.957	2.27
441.163	2.2
441.369	2.39
441.575	2.32
441.782	2.22
441.988	2.03
442.194	2.15
442.4	2.06
442.606	2.34
442.812	2.4
443.018	2.54
443.224	2.53
443.431	2.68
443.637	2.45
443.843	2.44
444.049	2.39
444.255	2.32
444.461	2.31
444.667	2.29
444.873	2.38
445.079	2.41
445.284	2.59
445.49	2.28
445.696	2.09
445.902	2.05
446.108	2
446.314	1.9
446.52	2.06
446.726	2.39
446.931	2.4
447.137	2.54
447.343	2.6
447.549	2.52
447.755	2.43
447.96	2.49
448.166	2.35
448.372	2.23
448.578	2.32
448.783	2.27
448.989	2.32
449.195	2.54
449.4	2.6
449.606	2.6
449.812	2.49
450.017	2.45
450.223	2.23
450.428	2.18
450.634	2.3
450.84	2.53
451.045	2.54
451.251	2.55
451.456	2.83
451.662	2.92
451.867	2.94
452.073	2.92
452.278	3.04
452.483	3.04
452.689	2.84
452.894	2.88
453.1	2.89
453.305	2.76
453.51	2.68
453.716	2.65
453.921	2.6
454.127	2.56
454.332	2.61
454.537	2.48
454.742	2.48
454.948	2.45
455.153	2.52
455.358	2.65
455.563	2.83
455.769	3.01
455.974	3
456.179	2.89
456.384	2.84
456.589	2.77
456.795	2.55
457	2.52
457.205	2.78
457.41	2.77
457.615	2.68
457.82	2.81
458.025	2.82
458.23	2.64
458.435	2.63
458.64	2.64
458.845	2.74
459.05	2.73
459.255	2.74
459.46	2.72
459.665	2.73
459.87	2.76
460.075	2.77
460.28	2.76
460.485	2.86
460.69	2.92
460.895	2.7
461.099	2.7
461.304	2.87
461.509	2.84
461.714	2.81
461.919	2.98
462.123	2.92
462.328	2.95
462.533	2.94
462.738	3.06
462.942	2.93
463.147	3.02
463.352	2.96
463.556	2.98
463.761	2.88
463.966	2.93
464.17	2.87
464.375	2.78
464.58	2.72
464.784	2.62
464.989	2.55
465.193	2.59
465.398	2.62
465.602	2.78
465.807	2.83
466.011	2.98
466.216	3.02
466.42	3.1
466.625	3.04
466.829	3.18
467.034	3.2
467.238	3.42
467.443	3.37
467.647	3.26
467.851	3.3
468.056	3.37
468.26	3.16
468.464	3.19
468.669	3.3
468.873	3.35
469.077	3.24
469.282	3.34
469.486	3.28
469.69	3.25
469.894	3.09
470.099	3.15
470.303	3.21
470.507	3.15
470.711	3.13
470.915	3.11
471.119	3.05
471.324	2.92
471.528	3.04
471.732	3.11
471.936	3.15
472.14	3.16
472.344	3.23
472.548	3.2
472.752	3.28
472.956	3.52
473.16	3.55
473.364	3.46
473.568	3.47
473.772	3.46
473.976	3.28
474.18	3.28
474.384	3.39
474.588	3.37
474.792	3.22
474.995	3.36
475.199	3.44
475.403	3.46
475.607	3.47
475.811	3.51
476.015	3.44
476.218	3.47
476.422	3.34
476.626	3.44
476.83	3.53
477.033	3.45
477.237	3.36
477.441	3.42
477.644	3.34
477.848	3.36
478.052	3.36
478.255	3.33
478.459	3.38
478.663	3.54
478.866	3.53
479.07	3.53
479.273	3.71
479.477	3.72
479.681	3.59
479.884	3.53
480.088	3.5
480.291	3.38
480.495	3.4
480.698	3.46
480.901	3.54
481.105	3.69
481.308	3.68
481.512	3.63
481.715	3.71
481.919	3.72
482.122	3.69
482.325	3.76
482.529	3.81
482.732	3.69
482.935	3.58
483.138	3.47
483.342	3.5
483.545	3.56
483.748	3.63
483.952	3.73
484.155	3.88
484.358	3.87
484.561	3.81
484.764	3.8
484.967	3.85
485.171	3.82
485.374	3.75
485.577	3.83
485.78	3.81
485.983	3.81
486.186	3.73
486.389	3.71
486.592	3.63
486.795	3.66
486.998	3.58
487.201	3.63
487.404	3.74
487.607	3.79
487.81	3.8
488.013	3.9
488.216	3.9
488.419	3.82
488.622	3.73
488.825	3.63
489.028	3.6
489.231	3.57
489.433	3.53
489.636	3.54
489.839	3.6
490.042	3.52
490.245	3.53
490.447	3.61
490.65	3.67
490.853	3.65
491.056	3.74
491.258	3.79
491.461	3.79
491.664	3.77
491.866	3.75
492.069	3.81
492.272	3.7
492.474	3.75
492.677	3.82
492.879	3.86
493.082	3.86
493.285	4.01
493.487	4
493.69	3.89
493.892	3.83
494.095	3.82
494.297	3.73
494.5	3.72
494.702	3.76
494.905	3.84
495.107	3.81
495.309	3.85
495.512	3.88
495.714	3.94
495.917	3.96
496.119	3.98
496.321	4.03
496.524	4.02
496.726	4.03
496.928	4.04
497.13	3.95
497.333	3.87
497.535	3.86
497.737	3.85
497.939	3.8
498.142	3.88
498.344	3.85
498.546	3.77
498.748	3.75
498.95	3.91
499.152	3.87
499.355	3.93
499.557	4.04
499.759	4.07
499.961	3.98
500.163	4.06
500.365	4.09
500.567	4.16
500.769	4.11
500.971	4.09
501.173	3.97
501.375	4
501.577	3.88
501.779	3.9
501.981	3.88
502.183	3.99
502.385	3.9
502.587	3.85
502.788	3.92
502.99	3.96
503.192	3.93
503.394	3.97
503.596	4.07
503.798	4.1
503.999	4.12
504.201	4.16
504.403	4.2
504.605	4.17
504.806	4.13
505.008	4.11
505.21	4.15
505.411	4.13
505.613	4.15
505.815	4.12
506.016	4.16
506.218	4.21
506.42	4.24
506.621	4.22
506.823	4.26
507.024	4.2
507.226	4.13
507.427	4.11
507.629	4.21
507.83	4.28
508.032	4.25
508.233	4.36
508.435	4.41
508.636	4.46
508.838	4.35
509.039	4.39
509.24	4.34
509.442	4.34
509.643	4.21
509.845	4.27
510.046	4.31
510.247	4.28
510.448	4.27
510.65	4.27
510.851	4.39
511.052	4.4
511.254	4.41
511.455	4.52
511.656	4.61
511.857	4.65
512.058	4.64
512.26	4.64
512.461	4.6
512.662	4.61
512.863	4.43
513.064	4.43
513.265	4.41
513.466	4.4
513.667	4.34
513.868	4.42
514.069	4.52
514.27	4.57
514.471	4.55
514.672	4.56
514.873	4.51
515.074	4.52
515.275	4.45
515.476	4.46
515.677	4.48
515.878	4.66
516.079	4.6
516.28	4.67
516.481	4.78
516.682	4.79
516.882	4.6
517.083	4.67
517.284	4.64
517.485	4.58
517.686	4.58
517.886	4.65
518.087	4.63
518.288	4.67
518.488	4.62
518.689	4.64
518.89	4.61
519.091	4.61
519.291	4.61
519.492	4.69
519.692	4.68
519.893	4.78
520.094	4.73
520.294	4.71
520.495	4.66
520.695	4.68
520.896	4.68
521.096	4.74
521.297	4.75
521.497	4.78
521.698	4.73
521.898	4.71
522.099	4.69
522.299	4.77
522.499	4.77
522.7	4.85
522.9	4.82
523.101	4.92
523.301	4.9
523.501	4.94
523.702	4.92
523.902	4.99
524.102	5.01
524.302	4.96
524.503	4.97
524.703	5.04
524.903	5.03
525.103	4.98
525.304	5.11
525.504	5.18
525.704	5.19
525.904	5.2
526.104	5.17
526.304	5.13
526.504	5.11
526.705	5.08
526.905	5.15
527.105	5.17
527.305	5.16
527.505	5.11
527.705	5.08
527.905	5.05
528.105	5.07
528.305	5.04
528.505	5.08
528.705	5.22
528.905	5.14
529.105	5.11
529.304	5.17
529.504	5.25
529.704	5.14
529.904	5.25
530.104	5.3
530.304	5.38
530.503	5.33
530.703	5.31
530.903	5.32
531.103	5.35
531.303	5.26
531.502	5.3
531.702	5.38
531.902	5.38
532.101	5.37
532.301	5.39
532.501	5.41
532.7	5.41
532.9	5.42
533.1	5.47
533.299	5.49
533.499	5.48
533.698	5.47
533.898	5.46
534.097	5.44
534.297	5.5
534.496	5.51
534.696	5.57
534.895	5.72
535.095	5.82
535.294	5.76
535.494	5.74
535.693	5.73
535.892	5.66
536.092	5.56
536.291	5.54
536.491	5.58
536.69	5.59
536.889	5.53
537.088	5.55
537.288	5.67
537.487	5.8
537.686	5.79
537.886	5.88
538.085	5.93
538.284	6.01
538.483	5.91
538.682	6.02
538.882	6
539.081	6.04
539.28	5.85
539.479	5.88
539.678	5.78
539.877	5.88
540.076	5.9
540.275	6.04
540.474	6.11
540.673	6.2
540.872	6.12
541.071	6.16
541.27	6.19
541.469	6.17
541.668	6.17
541.867	6.2
542.066	6.2
542.265	6.23
542.464	6.25
542.663	6.31
542.862	6.46
543.06	6.52
543.259	6.54
543.458	6.58
543.657	6.64
543.856	6.66
544.054	6.63
544.253	6.6
544.452	6.54
544.651	6.56
544.849	6.5
545.048	6.56
545.247	6.62
545.445	6.71
545.644	6.71
545.843	6.71
546.041	6.77
546.24	6.85
546.438	6.94
546.637	6.91
546.836	7.07
547.034	7.07
547.233	7.09
547.431	7.03
547.63	7.07
547.828	7.01
548.027	7.05
548.225	7.01
548.423	7.02
548.622	7.13
548.82	7.12
549.019	7.16
549.217	7.28
549.415	7.37
549.614	7.43
549.812	7.48
550.01	7.44
550.209	7.44
550.407	7.53
550.605	7.49
550.803	7.6
551.002	7.7
551.2	7.8
551.398	7.89
551.596	8.04
551.794	8.08
551.993	8.19
552.191	8.24
552.389	8.29
552.587	8.34
552.785	8.38
552.983	8.43
553.181	8.47
553.379	8.53
553.577	8.51
553.775	8.54
553.973	8.59
554.171	8.67
554.369	8.63
554.567	8.67
554.765	8.76
554.963	8.82
555.161	8.77
555.359	8.88
555.557	9.12
555.755	9.2
555.952	9.3
556.15	9.39
556.348	9.48
556.546	9.5
556.744	9.52
556.941	9.51
557.139	9.58
557.337	9.57
557.535	9.49
557.732	9.64
557.93	9.81
558.128	9.92
558.325	10.06
558.523	10.15
558.721	10.14
558.918	10.08
559.116	10.14
559.313	10.09
559.511	10.29
559.708	10.33
559.906	10.45
560.104	10.49
560.301	10.63
560.498	10.55
560.696	10.61
560.893	10.62
561.091	10.71
561.288	10.78
561.486	10.88
561.683	11
561.88	11.14
562.078	11.25
562.275	11.31
562.473	11.43
562.67	11.61
562.867	11.72
563.064	11.81
563.262	11.86
563.459	11.9
563.656	11.91
563.853	11.89
564.051	11.99
564.248	12.12
564.445	12.24
564.642	12.26
564.839	12.44
565.036	12.54
565.234	12.65
565.431	12.63
565.628	12.77
565.825	12.81
566.022	12.81
566.219	12.77
566.416	12.87
566.613	12.89
566.81	12.87
567.007	12.91
567.204	12.99
567.401	13.06
567.598	13.12
567.795	13.22
567.991	13.22
568.188	13.34
568.385	13.43
568.582	13.47
568.779	13.5
568.976	13.54
569.172	13.6
569.369	13.57
569.566	13.59
569.763	13.67
569.96	13.75
570.156	13.7
570.353	13.77
570.55	13.83
570.746	13.85
570.943	13.86
571.14	13.85
571.336	13.94
571.533	14
571.729	14.01
571.926	14.14
572.123	14.28
572.319	14.22
572.516	14.22
572.712	14.27
572.909	14.22
573.105	14.26
573.302	14.33
573.498	14.43
573.695	14.42
573.891	14.5
574.087	14.5
574.284	14.51
574.48	14.41
574.677	14.4
574.873	14.39
575.069	14.45
575.266	14.51
575.462	14.61
575.658	14.73
575.854	14.82
576.051	14.83
576.247	14.82
576.443	14.76
576.639	14.72
576.835	14.59
577.032	14.52
577.228	14.55
577.424	14.62
577.62	14.56
577.816	14.65
578.012	14.65
578.208	14.64
578.404	14.65
578.6	14.74
578.796	14.75
578.993	14.79
579.189	14.7
579.384	14.61
579.58	14.53
579.776	14.5
579.972	14.48
580.168	14.47
580.364	14.46
580.56	14.47
580.756	14.43
580.952	14.35
581.148	14.32
581.343	14.39
581.539	14.5
581.735	14.56
581.931	14.56
582.127	14.61
582.322	14.53
582.518	14.45
582.714	14.4
582.909	14.4
583.105	14.35
583.301	14.33
583.496	14.37
583.692	14.26
583.888	14.28
584.083	14.38
584.279	14.47
584.474	14.35
584.67	14.44
584.866	14.5
585.061	14.36
585.257	14.36
585.452	14.39
585.648	14.28
585.843	14.31
586.039	14.36
586.234	14.25
586.429	14.16
586.625	14.28
586.82	14.16
587.015	14.18
587.211	14.18
587.406	14.32
587.601	14.29
587.797	14.3
587.992	14.26
588.187	14.37
588.383	14.28
588.578	14.27
588.773	14.35
588.968	14.37
589.163	14.34
589.359	14.34
589.554	14.31
589.749	14.29
589.944	14.43
590.139	14.46
590.334	14.47
590.529	14.52
590.724	14.56
590.919	14.59
591.114	14.54
591.309	14.67
591.504	14.64
591.699	14.54
591.894	14.56
592.089	14.58
592.284	14.56
592.479	14.74
592.674	14.84
592.869	14.86
593.064	14.98
593.259	15.06
593.454	15.05
593.648	15.08
593.843	15.04
594.038	15.05
594.233	15.01
594.428	14.97
594.622	15.01
594.817	15.15
595.012	15.16
595.206	15.16
595.401	15.25
595.596	15.33
595.79	15.37
595.985	15.48
596.18	15.62
596.374	15.69
596.569	15.74
596.763	15.72
596.958	15.79
597.153	15.82
597.347	15.83
597.542	15.94
597.736	15.96
597.931	16.03
598.125	16.05
598.319	16.19
598.514	16.11
598.708	16.17
598.903	16.16
599.097	16.28
599.291	16.26
599.486	16.37
599.68	16.43
599.874	16.48
600.069	16.52
600.263	16.5
600.457	16.55
600.651	16.64
600.846	16.64
601.04	16.66
601.234	16.68
601.428	16.77
601.622	16.74
601.817	16.71
602.011	16.75
602.205	16.84
602.399	16.72
602.593	16.69
602.787	16.76
602.981	16.68
603.175	16.68
603.369	16.69
603.563	16.79
603.757	16.84
603.951	16.93
604.145	16.86
604.339	16.98
604.533	16.78
604.727	16.72
604.921	16.64
605.115	16.66
605.309	16.59
605.502	16.69
605.696	16.58
605.89	16.51
606.084	16.5
606.278	16.42
606.471	16.34
606.665	16.34
606.859	16.27
607.053	16.21
607.246	16.16
607.44	16.17
607.634	16.08
607.827	16.12
608.021	16.05
608.214	16.03
608.408	15.98
608.602	16.04
608.795	15.92
608.989	15.87
609.182	15.82
609.376	15.76
609.569	15.7
609.763	15.67
609.956	15.64
610.15	15.57
610.343	15.57
610.537	15.5
610.73	15.46
610.923	15.46
611.117	15.45
611.31	15.35
611.504	15.35
611.697	15.26
611.89	15.18
612.083	15.08
612.277	15.05
612.47	14.91
612.663	14.92
612.856	14.93
613.05	14.89
613.243	14.85
613.436	14.8
613.629	14.69
613.822	14.58
614.015	14.46
614.209	14.28
614.402	14.29
614.595	14.28
614.788	14.23
614.981	14.15
615.174	14.09
615.367	13.99
615.56	13.89
615.753	13.88
615.946	13.9
616.139	13.98
616.332	14.06
616.525	14.03
616.718	14.03
616.911	14.04
617.103	13.97
617.296	13.9
617.489	13.89
617.682	13.8
617.875	13.72
618.067	13.66
618.26	13.54
618.453	13.56
618.646	13.6
618.838	13.6
619.031	13.73
619.224	13.73
619.417	13.68
619.609	13.67
619.802	13.64
619.994	13.53
620.187	13.52
620.38	13.45
620.572	13.39
620.765	13.46
620.957	13.34
621.15	13.27
621.342	13.29
621.535	13.28
621.727	13.18
621.92	13.19
622.112	13.18
622.305	13.2
622.497	13.09
622.69	13.05
622.882	13.02
623.074	13.05
623.267	12.92
623.459	12.87
623.651	12.83
623.844	12.9
624.036	12.92
624.228	12.92
624.42	12.96
624.613	13.07
624.805	12.96
624.997	12.88
625.189	12.85
625.381	12.88
625.574	12.74
625.766	12.66
625.958	12.65
626.15	12.72
626.342	12.68
626.534	12.75
626.726	12.8
626.918	12.8
627.11	12.74
627.302	12.76
627.494	12.7
627.686	12.7
627.878	12.62
628.07	12.62
628.262	12.58
628.454	12.64
628.646	12.61
628.838	12.66
629.029	12.59
629.221	12.6
629.413	12.41
629.605	12.31
629.797	12.26
629.989	12.29
630.18	12.26
630.372	12.32
630.564	12.39
630.755	12.39
630.947	12.41
631.139	12.29
631.33	12.22
631.522	12.31
631.714	12.31
631.905	12.24
632.097	12.19
632.289	12.22
632.48	12.14
632.672	12
632.863	11.96
633.055	12.01
633.246	11.99
633.438	11.84
633.629	11.84
633.821	11.84
634.012	11.78
634.203	11.69
634.395	11.75
634.586	11.83
634.777	11.75
634.969	11.77
635.16	11.86
635.351	11.76
635.543	11.74
635.734	11.84
635.925	11.87
636.117	11.86
636.308	11.88
636.499	11.83
636.69	11.64
636.881	11.58
637.073	11.62
637.264	11.64
637.455	11.68
637.646	11.83
637.837	11.9
638.028	11.74
638.219	11.76
638.41	11.65
638.601	11.54
638.792	11.53
638.983	11.52
639.174	11.46
639.365	11.46
639.556	11.49
639.747	11.39
639.938	11.48
640.129	11.4
640.32	11.35
640.511	11.41
640.701	11.48
640.892	11.4
641.083	11.49
641.274	11.55
641.465	11.51
641.655	11.39
641.846	11.39
642.037	11.29
642.228	11.21
642.418	11.21
642.609	11.27
642.8	11.31
642.99	11.29
643.181	11.42
643.372	11.43
643.562	11.35
643.753	11.23
643.943	11.23
644.134	11.05
644.324	10.92
644.515	10.95
644.705	11.1
644.896	11.12
645.086	11.24
645.277	11.23
645.467	11.16
645.658	11.06
645.848	11.04
646.038	10.93
646.229	10.97
646.419	10.97
646.61	10.88
646.8	10.82
646.99	10.83
647.18	10.8
647.371	10.77
647.561	10.72
647.751	10.75
647.941	10.65
648.132	10.61
648.322	10.62
648.512	10.77
648.702	10.72
648.892	10.72
649.082	10.66
649.272	10.5
649.462	10.3
649.653	10.21
649.843	10.21
650.033	10.23
650.223	10.29
650.413	10.28
650.603	10.36
650.793	10.38
650.983	10.27
651.172	10.21
651.362	10.19
651.552	10.07
651.742	9.92
651.932	9.94
652.122	9.98
652.312	10.06
652.502	10.02
652.691	10.04
652.881	9.92
653.071	9.82
653.261	9.57
653.45	9.55
653.64	9.54
653.83	9.48
654.019	9.46
654.209	9.45
654.399	9.42
654.588	9.33
654.778	9.3
654.968	9.21
655.157	9.18
655.347	9.11
655.536	9.04
655.726	8.96
655.915	8.84
656.105	8.73
656.294	8.65
656.484	8.48
656.673	8.49
656.863	8.45
657.052	8.33
657.241	8.15
657.431	8.07
657.62	7.84
657.809	7.6
657.999	7.52
658.188	7.43
658.377	7.3
658.567	7.27
658.756	7.21
658.945	7.06
659.134	6.93
659.324	6.84
659.513	6.74
659.702	6.63
659.891	6.59
660.08	6.49
660.269	6.43
660.458	6.34
660.648	6.31
660.837	6.13
661.026	6.12
661.215	5.96
661.404	5.8
661.593	5.71
661.782	5.62
661.971	5.51
662.16	5.49
662.349	5.48
662.538	5.36
662.726	5.33
662.915	5.27
663.104	5.23
663.293	5.23
663.482	5.23
663.671	5.21
663.86	5.02
664.048	4.89
664.237	4.82
664.426	4.58
664.615	4.56
664.803	4.59
664.992	4.6
665.181	4.48
665.369	4.43
665.558	4.36
665.747	4.27
665.935	4.28
666.124	4.36
666.312	4.54
666.501	4.44
666.69	4.39
666.878	4.29
667.067	4.06
667.255	4.09
667.444	4.42
667.632	4.55
667.82	4.61
668.009	4.63
668.197	4.53
668.386	4.3
668.574	4.27
668.762	4.24
668.951	4.2
669.139	4.2
669.327	4.06
669.516	4.13
669.704	3.99
669.892	4.09
670.08	4.03
670.269	3.93
670.457	3.8
670.645	3.75
670.833	3.88
671.021	3.86
671.21	4.09
671.398	4.27
671.586	4.34
671.774	4.14
671.962	4.19
672.15	4.12
672.338	3.83
672.526	3.89
672.714	3.89
672.902	3.86
673.09	3.93
673.278	4.21
673.466	4.23
673.654	4.41
673.842	4.41
674.03	4.35
674.218	4.17
674.405	4.16
674.593	4.05
674.781	4.19
674.969	4.14
675.157	4.27
675.344	4.39
675.532	4.4
675.72	4.51
675.908	4.68
676.095	4.64
676.283	4.61
676.471	4.82
676.658	4.76
676.846	4.71
677.033	4.85
677.221	4.96
677.409	4.82
677.596	4.77
677.784	4.82
677.971	4.86
678.159	4.77
678.346	4.83
678.534	4.93
678.721	5.05
678.909	5.07
679.096	5.11
679.283	5.29
679.471	5.38
679.658	5.38
679.846	5.52
680.033	5.78
680.22	5.87
680.408	5.85
680.595	5.89
680.782	5.71
680.969	5.62
681.157	5.46
681.344	5.52
681.531	5.52
681.718	5.64
681.905	5.76
682.093	5.94
682.28	6.13
682.467	6.51
682.654	6.65
682.841	6.71
683.028	6.87
683.215	6.9
683.402	6.65
683.589	6.76
683.776	6.91
683.963	6.91
684.15	7.05
684.337	7.32
684.524	7.41
684.711	7.57
684.898	7.59
685.085	7.85
685.271	8.09
685.458	8.33
685.645	8.43
685.832	8.88
686.019	8.99
686.205	9.1
686.392	9.29
686.579	9.49
686.766	9.67
686.952	9.88
687.139	10.27
687.326	10.43
687.512	10.68
687.699	10.89
687.886	11.01
688.072	11.03
688.259	11.37
688.445	11.74
688.632	11.92
688.818	12.48
689.005	12.76
689.191	13.12
689.378	13.56
689.564	14.06
689.751	14.32
689.937	14.82
690.124	15.27
690.31	15.37
690.496	15.71
690.683	16.16
690.869	16.68
691.055	17.06
691.242	17.89
691.428	18.46
691.614	19.08
691.8	19.63
691.987	20.15
692.173	20.54
692.359	21.05
692.545	21.48
692.731	21.82
692.918	22.46
693.104	22.95
693.29	23.4
693.476	24.06
693.662	24.77
693.848	25.15
694.034	25.8
694.22	26.28
694.406	26.75
694.592	27.32
694.778	27.88
694.964	28.24
695.15	28.92
695.336	29.47
695.522	30.19
695.708	30.73
695.894	31.45
696.08	32.23
696.265	32.87
696.451	33.2
696.637	34.05
696.823	34.67
697.009	35.08
697.194	35.4
697.38	35.58
697.566	36.01
697.751	36.68
697.937	37.41
698.123	38.14
698.308	39.18
698.494	39.82
698.68	40.13
698.865	40.64
699.051	41.15
699.236	41.53
699.422	42.02
699.607	42.63
699.793	43.06
699.978	43.43
700.164	44.06
700.349	44.87
700.535	45.31
700.72	45.54
700.906	46.4
701.091	46.78
701.276	47.01
701.462	47.87
701.647	48.77
701.832	49.07
702.018	49.4
702.203	49.79
702.388	49.65
702.573	50.09
702.759	50.72
702.944	51.29
703.129	51.49
703.314	52.16
703.499	52.32
703.684	52.27
703.87	53.4
704.055	54.26
704.24	54.63
704.425	55.17
704.61	55.82
704.795	55.59
704.98	55.85
705.165	56.05
705.35	56.27
705.535	56.49
705.72	56.92
705.905	57.43
706.09	58.05
706.275	58.64
706.459	58.88
706.644	59.18
706.829	59.44
707.014	59.41
707.199	59.73
707.384	60.34
707.568	60.62
707.753	61.07
707.938	61.75
708.123	61.82
708.307	61.9
708.492	62.08
708.677	61.96
708.861	61.98
709.046	62.2
709.231	62.82
709.415	63.13
709.6	63.31
709.784	63.73
709.969	64.13
710.153	64.13
710.338	64.2
710.522	64.57
710.707	64.91
710.891	65
711.076	65.56
711.26	66.04
711.445	66.2
711.629	66.26
711.813	66.62
711.998	66.55
712.182	66.47
712.366	67.1
712.551	67.83
712.735	68.04
712.919	67.97
713.103	68.45
713.288	68.22
713.472	67.66
713.656	68.15
713.84	68.45
714.024	68.67
714.208	69.02
714.393	69.24
714.577	69.12
714.761	69.41
714.945	69.27
715.129	69.08
715.313	69.42
715.497	69.51
715.681	70.17
715.865	70.2
716.049	70.68
716.233	70.88
716.417	71.15
716.601	71.05
716.785	71.49
716.968	71.73
717.152	71.83
717.336	71.84
717.52	71.81
717.704	71.44
717.888	71.58
718.071	71.62
718.255	71.96
718.439	71.96
718.622	72.77
718.806	72.74
718.99	72.56
719.174	72.41
719.357	72.27
719.541	72.07
719.724	72.08
719.908	72.85
720.092	73.5
720.275	73.93
720.459	74.32
720.642	74.5
720.826	74.7
721.009	74.07
721.193	73.94
721.376	73.51
721.559	73.61
721.743	73.64
721.926	73.95
722.11	74.08
722.293	74.15
722.476	73.85
722.66	73.54
722.843	73.75
723.026	73.24
723.21	73.28
723.393	74.52
723.576	74.75
723.759	74.29
723.942	74.82
724.126	75.55
724.309	75.44
724.492	75.63
724.675	76
724.858	76.32
725.041	76.43
725.224	76.51
725.407	76.4
725.59	76.95
725.774	76.94
725.957	75.93
726.14	75.11
726.322	75.52
726.505	75.21
726.688	76.05
726.871	76.47
727.054	76.96
727.237	76.38
727.42	76.58
727.603	76.17
727.786	76.6
727.968	76.92
728.151	77.33
728.334	77.12
728.517	77.26
728.699	77.72
728.882	77.41
729.065	77.73
729.248	78.66
729.43	78.71
729.613	79.27
729.796	79.95
729.978	79.3
730.161	78.54
730.343	78.75
730.526	78.91
730.708	78.22
730.891	79.06
731.073	78.72
731.256	78.29
731.438	77.97
731.621	78.59
731.803	78.44
731.986	78.73
732.168	78.4
732.35	78.44
732.533	78.25
732.715	78.37
732.898	79.6
733.08	79.7
733.262	79.77
733.444	79.39
733.627	79.53
733.809	78.9
733.991	79.86
734.173	79.39
734.355	79.81
734.538	80.29
734.72	79.99
734.902	79.93
735.084	80.3
735.266	80.41
735.448	80.3
735.63	80.87
735.812	80.56
735.994	81.63
736.176	81.99
736.358	81.17
736.54	82.02
736.722	81.71
736.904	80.54
737.086	79.97
737.268	81.08
737.45	80.47
737.632	80.48
737.814	79.6
737.995	79.32
738.177	79.11
738.359	78.13
738.541	78.81
738.723	80.25
738.904	81.24
739.086	81.14
739.268	81.99
739.449	82.15
739.631	81.67
739.813	81.6
739.994	81.98
740.176	82
740.358	81.75
740.539	83.44
740.721	84.04
740.902	84.68
741.084	84.23
741.265	83.77
741.447	82.3
741.628	82.12
741.81	81.62
741.991	82.43
742.172	84.04
742.354	84.46
742.535	84.03
742.717	83.86
742.898	84.38
743.079	84.45
743.261	83.57
743.442	83.56
743.623	83.93
743.804	83.26
743.986	83.17
744.167	82.99
744.348	82.56
744.529	82.5
744.71	81.23
744.891	80.82
745.073	80.08
745.254	79.85
745.435	78.96
745.616	79.72
745.797	79.64
745.978	80.31
746.159	81.38
746.34	80.76
746.521	82.37
746.702	81.08
746.883	81.13
747.064	79.8
747.245	80.7
747.426	79.9
747.606	80.37
747.787	81.28
747.968	82.14
748.149	82.64
748.33	81.98
748.51	81.55
748.691	80.92
748.872	82.39
749.053	81.5
749.233	81.67
749.414	81.97
749.595	81.42
749.775	78.79
749.956	78.19
750.137	77.85
750.317	79.41
750.498	82.05
750.678	83.2
750.859	85.16
751.04	85.48
751.22	83.74
751.4	81.04
751.581	79.85
751.761	79.21
751.942	80.09
752.122	80.53
752.303	80.56
752.483	81.33
752.663	81.28
752.844	79.47
753.024	80.04
753.204	81.01
753.385	80.24
753.565	79.86
753.745	80.84
753.925	79.41
754.106	78.24
754.286	78.48
754.466	77.93
754.646	78.06
754.826	79.5
755.006	79.23
755.187	80.28
755.367	81.15
755.547	80.45
755.727	80.24
755.907	81.06
756.087	80.49
756.267	79.09
756.447	79.69
756.627	78.97
756.807	78.93
756.987	79.36
757.167	80.46
757.346	80.48
757.526	80.01
757.706	81.05
757.886	81.43
758.066	81.85
758.246	83.95
758.425	83.51
758.605	82.39
758.785	82.67
758.965	81.45
759.144	77.81
759.324	79.39
759.504	80.12
759.683	79.6
759.863	78.89
760.043	77.77
760.222	76.21
760.402	75.38
760.581	73.31
760.761	74.95
760.94	75.81
761.12	78.29
761.299	78.74
761.479	80.79
761.658	79.93
761.838	80.59
762.017	80.03
762.197	79.79
762.376	79.73
762.555	80.73
762.735	82.3
762.914	80.8
763.093	80.98
763.273	80.11
763.452	78.61
763.631	76.85
763.81	77.09
763.99	76.3
764.169	75.92
764.348	76.46
764.527	76.68
764.706	78.58
764.885	80.32
765.064	78.97
765.243	79.47
765.423	79.68
765.602	77.38
765.781	75.95
765.96	76.91
766.139	74.68
766.318	76.39
766.497	75.54
766.676	74.68
766.854	75.68
767.033	76.33
767.212	74.07
767.391	74.93
767.57	76.14
767.749	75
767.928	75.76
768.106	74.08
768.285	72.8
768.464	72.38
768.643	72.14
768.821	72.25
769	74.51
769.179	74
769.357	72.64
769.536	73.23
769.715	74.82
769.893	76.27
770.072	77.21
770.25	77.98
770.429	78.85
770.607	76.03
770.786	73.93
770.964	75.24
771.143	75.51
771.321	75.98
771.5	77.39
771.678	77.92
771.857	76.35
772.035	75.42
772.213	74.51
772.392	71.02
772.57	73.08
772.748	74.03
772.927	74.45
773.105	73.13
773.283	76.55
773.461	74.62
773.64	75.22
773.818	74.9
773.996	77.56
774.174	74.94
774.352	73.35
774.531	70.66
774.709	73.19
774.887	71.29
775.065	71.83
775.243	72.37
775.421	73.07
775.599	72.1
775.777	70.64
775.955	70.27
776.133	69.01
776.311	69.31
776.489	65.93
776.667	65.73
776.844	67.08
777.022	66.44
777.2	66.08
777.378	67.62
777.556	69.57
777.734	70.57
777.911	71.84
778.089	71.52
778.267	72.31
778.445	69.81
778.622	68.92
778.8	69.89
778.978	73.5
779.155	70.73
779.333	71.63
779.511	70.32
779.688	72.09
779.866	63.84
780.043	65.6
780.221	65.22
780.398	63.58
780.576	63.71
780.753	68.76
780.931	68.26
781.108	68.26
781.286	72.62
781.463	67.28
781.64	63.62
781.818	65.34
781.995	65.33
782.172	63.32
782.35	66
782.527	70.18
782.704	67.28
782.882	69.46
783.059	66.8
783.236	67.31
783.413	69.53
783.59	70.43
783.768	69.26
783.945	72.86
784.122	72.4
784.299	70.72
784.476	71.54
784.653	69.05
784.83	65.83
785.007	65.09
785.184	64.69
785.361	63.14
785.538	69.18
785.715	72.42
785.892	71.44
786.069	73.11
786.246	74.85
786.423	69.4
786.6	67.62
786.776	69.67
786.953	66.12
787.13	67.42
787.307	67.83
787.484	67.83
787.66	66.02
787.837	65.65
788.014	63.87
788.191	63.18
788.367	61.19
788.544	64.3
788.721	65.62
788.897	68.8
789.074	69.76
789.25	68.49
789.427	69.09
789.603	65.96
789.78	63.01
789.956	61.18
790.133	62.45
790.309	61.34
790.486	66.56
790.662	65.88
790.839	69.11
791.015	70.3
791.192	66.65
791.368	67.46
791.544	65.66
791.721	64.71
791.897	65.62
792.073	65.35
792.249	54.3
792.426	60.34
792.602	60.45
792.778	57.56
792.954	58.49
793.13	64.23
793.307	53.47
793.483	47.05
793.659	48.34
793.835	51.55
794.011	47.72
794.187	53.09
794.363	51.51
794.539	55.7
794.715	53.41
794.891	55.68
795.067	57.27
795.243	67.61
795.419	61.78
795.595	57.45
795.771	60.82
795.947	57.7
796.122	53.65
796.298	57.62
796.474	62.69
796.65	62.75
796.826	62.52
797.001	60.64
797.177	57.03
797.353	60.39
797.529	62.7
797.704	64.26
797.88	64.58
798.056	60.91
798.231	56.16
798.407	50.1
798.582	51.51
798.758	60.15
798.934	67.92
799.109	66.09
799.285	67.98
799.46	68.02
799.636	66.47
799.811	62.6
799.986	61.6
800.162	62.75
800.337	64.26
800.513	54.95
800.688	57.56
800.863	65.44
801.039	60.28
801.214	56.06
801.389	60.31
801.565	54.13
801.74	44.04
801.915	54.35
802.09	49.33
802.265	55.68
802.441	56.15
802.616	63.02
802.791	56.64
802.966	65.26
803.141	60.35
803.316	58.58
803.491	60.78
803.666	64.23
803.841	58.84
804.016	55.85
804.191	62.94
804.366	52.95
804.541	49.74
804.716	49.84
804.891	47.6
805.066	49.71
805.241	50.84
805.416	49.87
805.591	48.28
805.765	53.28
805.94	52.88
806.115	55.22
806.29	49.35
806.464	49.79
806.639	45.05
806.814	36.73
806.989	30.07
807.163	48.27
807.338	44.08
807.512	41.05
807.687	33.8
807.862	49.03
808.036	42.4
808.211	48.95
808.385	57.48
808.56	77.26
808.734	70.91
808.909	62.91
809.083	54.51
809.258	57.24
809.432	50.39
809.606	41.1
809.781	47.34
809.955	56.19
810.13	50.83
810.304	40.63
810.478	41.24
810.652	52.18
810.827	57.92
811.001	58.36
811.175	56.24
811.349	55.38
811.524	36.33
811.698	15.01
811.872	12.08
812.046	22.15
812.22	26.75
812.394	36.09
812.568	49.05
812.742	55.05
812.916	50.88
813.09	46.04
813.264	45.93
813.438	52.46
813.612	45.64
813.786	38.85
813.96	52.4
814.134	46.27
814.308	48.77
814.482	53.35
814.656	54.5
814.83	55.67
815.003	67.36
815.177	55.77
815.351	50.85
815.525	52.94
815.698	41.72
815.872	31.39
816.046	19.42
816.219	36.4
816.393	49.7
816.567	51.01
816.74	41.79
816.914	54.87
817.088	49.93
817.261	36.73
817.435	40.61
817.608	60.51
817.782	55.75
817.955	51.59
818.129	45.84
818.302	47.72
818.475	45.2
818.649	41.28
818.822	30.89
818.996	45.63
819.169	55.18
819.342	43.67
819.516	60.87
819.689	69.67
819.862	54.47
820.035	35.48
820.209	35.72
820.382	33.25
820.555	33.92
820.728	15.98
820.901	13.92
821.075	17.01
821.248	17.55
821.421	-7.43
821.594	4.07
821.767	37.52
821.94	60.44
822.113	33.5
822.286	44.24
822.459	65
822.632	45.51
822.805	20.02
822.978	27.03
823.151	22.91
823.324	3.54
823.496	-10.28
823.669	-15.83
823.842	-5.51
824.015	-27.11
824.188	-35.59
824.361	-20.35
824.533	-12.67
824.706	-8.69
824.879	6.54
825.051	25.03
825.224	19.91
825.397	20.39
825.569	-0.25
825.742	26.14
825.915	38.74
826.087	59.53
826.26	33.35
826.432	47.7
826.605	34.01
826.777	19.81
826.95	13.53
827.122	2.73
827.295	9.89
827.467	21.56
827.64	-2.74
827.812	-11.99
827.984	16.56
828.157	5.77
828.329	-35.88
828.501	-19.61
828.674	-1.3
828.846	-7.34
829.018	20.46
829.19	3.43
829.363	16.24
829.535	18.67
829.707	17.14
829.879	-14.08
830.051	-7.34
830.223	-11.1
830.395	-31.41
830.568	-52.17
830.74	-56.34
830.912	-9.49
831.084	-30.12
831.256	-25.41
831.428	-11.01
831.6	-6.43
831.772	-54.48
831.943	-55.52
832.115	-25.86
832.287	-16.12
832.459	-9.35
832.631	-1.45
832.803	25.91
832.975	42.7
833.146	31.5
833.318	31.43
833.49	56.29
833.662	35.99
833.833	1.23
834.005	7.5
834.177	11.5
834.348	1.87
834.52	-10.77
834.692	-19.23
834.863	-40.64
835.035	-39.14
835.206	-99.23
835.378	-57.92
835.549	-45.11
835.721	-38.98
835.892	-31.63
836.064	-17.5
836.235	-15.37
836.407	5.45
836.578	3.99
836.749	5.81
836.921	-22.63
837.092	-67.8
837.264	-73.67
837.435	-94.65
837.606	-52.05
837.777	3.34
837.949	26.43
838.12	28.08
838.291	44.88
838.462	39.11
838.633	3.07
838.805	-14.61
838.976	2.35
839.147	-49.81
839.318	-70.16
839.489	-115.66
839.66	-85.88
839.831	-58.58
840.002	-54.94
840.173	-76.89
840.344	-4.88
840.515	-12.95
840.686	-203.77
840.857	-117.76
841.028	-74.01
841.199	-73.54
841.369	-87.74
841.54	-53.07
841.711	-16.95
841.882	7.27
842.053	-7.57
842.223	-27.46
842.394	-2.45
842.565	-16.4
842.736	-12.12
842.906	-3.49
843.077	17.58
843.248	16.11
843.418	19.93
843.589	-23.06
843.759	-4.01
843.93	18.18
844.101	-6.39
844.271	2.23
844.442	16.04
844.612	26.85
844.783	-15.96
844.953	-41.31
845.123	-87.93
845.294	-79.35
845.464	-348.66
845.635	-164.99
845.805	-88.41
845.975	-29.44
846.146	-80.72
846.316	-67.97
846.486	-47.93
846.656	-1.83
846.827	-21.7
846.997	-5.49
847.167	33.46
847.337	17.44
847.507	-32.87
847.677	4.93
847.848	31.96
848.018	24.05
848.188	27.33
848.358	9.6
848.528	-16.77
848.698	-59.24
848.868	-161.1
849.038	-219.54
849.208	-67.47
849.378	10.27
849.548	8.6
849.718	17.49
849.887	27.34
850.057	-4.85
850.227	-58.65
850.397	-98.15
850.567	-231.24
850.737	-620
850.906	-1913.75
851.076	-1235.94
851.246	-642.93
851.415	-121.94
851.585	-66.83
851.755	-81.07
851.924	-23.83
852.094	-43.74
852.264	-120.35
852.433	-1007.69
852.603	-159.16
852.772	-166.21
852.942	-114.74
853.111	-117.19
853.281	-72.48
853.45	-37.62
853.62	-100.25
853.789	-109.31
853.959	-99.81
854.128	-72.31
854.297	-134.15
854.467	-138.83
854.636	-108.07
854.805	-43.24
854.975	-88.82
855.144	-103.84
855.313	-139.16
855.482	-447.45
855.652	-216.9
855.821	-190.41
855.99	-40.32
856.159	-20.78
856.328	-19.16
856.497	-40.12
856.667	-20.73
856.836	-33.55
857.005	-52.03
857.174	-53.78
857.343	-98.54
857.512	-32.02
857.681	-85.6
857.85	-74.91
858.019	-52.55
858.188	-49.29
858.356	-84.97
858.525	-143.4
858.694	-152.86
858.863	-276.41
859.032	-178.2
859.201	-262.56
859.369	-131.89
859.538	-62.13
859.707	-51.38
859.876	-92.11
860.044	-73.1
860.213	-1.32
860.382	-32.92
860.55	-48.76
860.719	10.94
860.888	21.62
861.056	-49.73
861.225	-50.14
861.393	-8.91
861.562	-39.85
861.73	-119.14
861.899	-189.01
862.067	-1358.62
862.236	-82.7
862.404	-301.15
862.572	-239.6
862.741	-112.12
862.909	-82.3
863.078	-196.4
863.246	-97.5
863.414	-50.68
863.582	-18.34
863.751	-39.41
863.919	-9.95
864.087	-8.02
864.255	-7.04
864.424	-313.55
864.592	-28.76
864.76	-72.93
864.928	-176
865.096	-142.68
865.264	-61.73
865.432	-1652.27
865.6	-162.5
865.768	-94.4
865.936	-100.32
866.104	-149.22
866.272	-216.88
866.44	-470.47
866.608	792.93
866.776	395.91
866.944	3497.67
867.112	-569.92
867.28	-226.09
867.448	-79.56
867.615	-33.37
867.783	-1.52
867.951	-27.34
868.119	-1.57
868.286	-9.89
868.454	-94.55
868.622	-113.37
868.789	-169.55
868.957	-3478.57
869.125	-3018.42
869.292	-253.81
869.46	-410
869.627	-87.28
869.795	-88.53
869.963	-48.2
870.13	-25.81
870.298	6.89
870.465	-109
870.632	-122.85
870.8	-84.54
870.967	-117
871.135	-214.69
871.302	-131.84
871.469	-99.12
871.637	-225.62
871.804	-159.47
871.971	-189.33
872.139	-615.81
872.306	-103.29
872.473	-102.23
872.64	-386.7
872.807	-112.34
872.975	11.28
873.142	-251.27
873.309	2208.11
873.476	-14.18
873.643	60.28
873.81	-19.45
873.977	37.19
874.144	42.41
874.311	-80.71
874.478	-173.05
874.645	-197.92
874.812	-160.48
874.979	-99.86
875.146	-102.24
875.313	-119.07
875.48	-12.7
875.647	-31.78
875.813	-67.07
875.98	-33.87
876.147	-54.98
876.314	-109.24
876.481	995.04
876.647	-1308.99
876.814	648.7
876.981	-143.46
877.147	-92.6
877.314	-20
877.481	10.03
877.647	44.78
877.814	3.97
877.98	-36.06
878.147	18.3
878.314	74.8
878.48	28.81
878.647	50.54
878.813	96.22
878.979	75.52
879.146	6.79
879.312	-0.71
879.479	-70.43
879.645	-192.34
879.811	-392.11
879.978	-825.19
880.144	-245.51
880.31	-125.12
880.477	-372.34
880.643	-391.2
880.809	-167.65
880.975	-132.82
881.142	-832.73
881.308	-123.83
881.474	-93.06
881.64	-113.79
881.806	-185.38
881.972	-67.71
882.138	-32.02
882.304	17.87
882.47	-153.05
882.636	-768.03
882.802	-296.5
882.968	-78.88
883.134	-54.1
883.3	-44.94
883.466	23.54
883.632	80.88
883.798	36.91
883.964	14.65
884.129	20.58
884.295	39.2
884.461	-51.32
884.627	-66.91
884.793	-55.98
884.958	-27.75
885.124	-138.8
885.29	-238.11
885.455	-411.17
885.621	-135.51
885.787	-225.45
885.952	-78.71
886.118	-93.25
886.283	-57.93
886.449	-179.15
886.614	-140.54
886.78	-234.62
886.945	916.39
887.111	-671.68
887.276	-445.45
887.442	-1007.27
887.607	-543.87
887.773	-323.25
887.938	-247.78
888.103	-317.03
888.269	-199.1
888.434	-345.95
888.599	-154.5
888.764	-64.06
888.93	-30.82
889.095	-58.78
889.26	-112.36
889.425	-82.45
889.59	-76.28
889.756	-83.21
889.921	-21.68
890.086	48.48
890.251	43.27
890.416	-108.01
890.581	-1370.97
890.746	212.5
890.911	484.08
891.076	238.16
891.241	-524.63
891.406	7.61
891.571	-86.97
891.736	-341.74
891.901	-513.27
892.065	785.71
892.23	161.2
892.395	243.25
892.56	354.05
892.725	-514.06
892.889	-1421.95
893.054	-311.67
893.219	-133.22
893.384	-73.41
893.548	-137.82
893.713	-157.86
893.878	-100.47
