Data from Ofra_2a_PS_9GT47_Reflection_2.txt Node
Date: Tue Jul 20 10:01:17 EDT 2021
User: Adam
Spectrometer: FLMT01687
Trigger mode: 0
Integration Time (sec): 9.450000E-1
Scans to average: 3
Electric dark correction enabled: true
Nonlinearity correction enabled: false
Boxcar width: 3
XAxis mode: Wavelengths
Number of Pixels in Spectrum: 3648
>>>>>Begin Spectral Data<<<<<
179.494	1247.34
179.716	820.07
179.937	884.62
180.158	3504.69
180.38	-2001.16
180.601	-465.8
180.823	-248.77
181.044	-194.42
181.265	-210.53
181.486	-23.6
181.708	-452.17
181.929	172.09
182.15	165.91
182.372	-57.76
182.593	-56.85
182.814	413.77
183.035	204.96
183.257	87.15
183.478	29.63
183.699	57.1
183.92	51.66
184.141	53.8
184.363	33.68
184.584	36.7
184.805	42.09
185.026	32.61
185.247	7.96
185.468	-5.48
185.689	10.02
185.91	14.67
186.132	16.88
186.353	3.31
186.574	13.2
186.795	11
187.016	25.64
187.237	11.39
187.458	20.55
187.679	-5.44
187.9	7.49
188.121	20.46
188.342	44.26
188.563	29.49
188.784	53.3
189.005	53.79
189.226	72.27
189.447	49.43
189.667	37.4
189.888	36.04
190.109	31.2
190.33	6.78
190.551	1.66
190.772	-9.5
190.993	11.48
191.214	14.98
191.434	24.19
191.655	30.68
191.876	40.14
192.097	37.16
192.318	47.53
192.538	50.27
192.759	54.11
192.98	30.05
193.201	38.67
193.421	46.01
193.642	45.93
193.863	47.48
194.083	42.75
194.304	29.9
194.525	51.81
194.745	27.28
194.966	23.05
195.187	34.33
195.407	24.63
195.628	18.06
195.848	17.19
196.069	24.32
196.29	21.07
196.51	13.3
196.731	24.72
196.951	34.49
197.172	44.09
197.392	51.89
197.613	39.01
197.833	53.3
198.054	48.18
198.274	15.76
198.495	19.39
198.715	8.36
198.936	-3.23
199.156	-1.6
199.377	1.74
199.597	-8.39
199.817	19.18
200.038	8.24
200.258	8.16
200.479	15.3
200.699	19.15
200.919	2.09
201.14	19.9
201.36	26.62
201.58	30.97
201.801	35.14
202.021	25.94
202.241	20.6
202.461	39.88
202.682	27.1
202.902	19.09
203.122	17.01
203.342	23.6
203.563	33.76
203.783	31.27
204.003	27.12
204.223	32.57
204.443	32.9
204.663	35.4
204.884	22.7
205.104	21.88
205.324	39.38
205.544	42.71
205.764	62.93
205.984	55.71
206.204	56.57
206.424	61.2
206.644	42.66
206.864	31.54
207.084	43.76
207.304	29.2
207.525	25.1
207.745	32.95
207.964	29.55
208.184	33.27
208.404	27.49
208.624	3.7
208.844	-0.22
209.064	8.47
209.284	8.28
209.504	7.74
209.724	-12.04
209.944	-8.39
210.164	2.34
210.384	14.09
210.604	7.14
210.823	-8.92
211.043	-25.55
211.263	-0.08
211.483	-3.81
211.703	-5.66
211.922	-5.29
212.142	6.23
212.362	9
212.582	20.54
212.801	12.33
213.021	24.09
213.241	17.21
213.461	11.13
213.68	3.98
213.9	15.46
214.12	9.95
214.339	19.58
214.559	31.97
214.779	43.17
214.998	48.34
215.218	58.58
215.438	56.64
215.657	57.22
215.877	58.3
216.096	39.43
216.316	27.43
216.535	23.73
216.755	10.02
216.974	11.04
217.194	12.68
217.413	26.79
217.633	21.14
217.852	20.69
218.072	27.21
218.291	42.83
218.511	35.1
218.73	26.76
218.95	10.23
219.169	22.14
219.389	25.67
219.608	30.82
219.827	17.2
220.047	20.75
220.266	29.04
220.485	40.71
220.705	29.64
220.924	41.26
221.143	27.28
221.363	31.89
221.582	29.19
221.801	32.53
222.021	28.3
222.24	29.71
222.459	14.16
222.678	-0.96
222.897	-11.99
223.117	-1.85
223.336	2.32
223.555	-15.24
223.774	-13.79
223.993	5.24
224.213	22.64
224.432	28.99
224.651	15.23
224.87	11
225.089	22.69
225.308	25.95
225.527	19.02
225.746	14.53
225.965	22.36
226.184	29.35
226.404	20.34
226.623	42.6
226.842	46.5
227.061	43.43
227.28	63.86
227.499	62.61
227.718	50.04
227.936	46.01
228.155	35.54
228.374	39.99
228.593	39.1
228.812	30.23
229.031	17.96
229.25	34.39
229.469	45.12
229.688	44.29
229.907	33.07
230.125	28.13
230.344	30.27
230.563	37.64
230.782	24.6
231.001	25.57
231.22	22.35
231.438	23.2
231.657	31.14
231.876	25.91
232.095	29.73
232.313	31.5
232.532	26.64
232.751	33.37
232.969	41.94
233.188	39.38
233.407	43.15
233.625	29.97
233.844	40.14
234.063	47.47
234.281	40.53
234.5	32.86
234.719	31.87
234.937	35.92
235.156	26.04
235.374	14.46
235.593	6.97
235.811	-5.75
236.03	-18.39
236.249	-5.15
236.467	-14.05
236.686	4.32
236.904	11.12
237.123	13.31
237.341	18.16
237.559	33.23
237.778	30.39
237.996	33.34
238.215	30.54
238.433	35.79
238.652	36.29
238.87	38.28
239.088	23.57
239.307	21.75
239.525	16.22
239.743	4.72
239.962	-4.23
240.18	6.31
240.398	-0.42
240.617	15.56
240.835	23.5
241.053	28.95
241.271	43.56
241.49	30.61
241.708	16.19
241.926	11
242.144	8.44
242.363	0.53
242.581	-3
242.799	-14.83
243.017	5.31
243.235	8.86
243.453	20.58
243.672	10.03
243.89	9.44
244.108	13.72
244.326	12.97
244.544	9.95
244.762	17.62
244.98	11.95
245.198	5.72
245.416	7.42
245.634	23.05
245.852	26.86
246.07	29.42
246.288	18.07
246.506	27.28
246.724	54.17
246.942	51.65
247.16	31.83
247.378	19.34
247.596	18.42
247.814	9.74
248.032	-0.75
248.25	-20.14
248.468	-11.63
248.685	-4.1
248.903	0.14
249.121	3.87
249.339	14.1
249.557	26.72
249.775	14.42
249.992	5.3
250.21	-9.45
250.428	-8.68
250.646	-9.61
250.863	-2.64
251.081	-9.6
251.299	9.41
251.517	28.04
251.734	42.97
251.952	57.79
252.17	46.76
252.387	41.47
252.605	33.53
252.823	13.64
253.04	1.83
253.258	5.08
253.475	-8.18
253.693	13.52
253.911	6.29
254.128	5.49
254.346	13.27
254.563	7.16
254.781	1.25
254.998	2.17
255.216	-3.82
255.433	-8.15
255.651	0.19
255.868	1.2
256.086	-2.99
256.303	11.71
256.521	-0.92
256.738	-4.89
256.956	-5.39
257.173	0.12
257.39	12.86
257.608	23.14
257.825	13.66
258.043	36.93
258.26	36.97
258.477	43.83
258.695	48.22
258.912	47.53
259.129	35.61
259.346	38.57
259.564	21.75
259.781	36.34
259.998	32.84
260.216	30.87
260.433	28.44
260.65	44.04
260.867	29.89
261.084	33.55
261.302	32.98
261.519	17.69
261.736	9.12
261.953	3.38
262.17	1.82
262.387	16.01
262.604	2.43
262.822	-5.67
263.039	17.59
263.256	14.18
263.473	9
263.69	-0.84
263.907	3.11
264.124	12.23
264.341	18.25
264.558	18.39
264.775	30.32
264.992	42
265.209	45.14
265.426	45.58
265.643	38.74
265.86	28.95
266.077	27.67
266.294	20.94
266.51	15.06
266.727	13.39
266.944	-5.59
267.161	-13.74
267.378	-24.24
267.595	-42.62
267.812	-33.05
268.028	-12.87
268.245	-10.86
268.462	-4.16
268.679	7.87
268.896	14.33
269.112	31.24
269.329	36.52
269.546	28.69
269.763	27.86
269.979	22.2
270.196	19.23
270.413	18.93
270.629	15.79
270.846	7.87
271.063	2.5
271.279	-0.82
271.496	-2.59
271.712	0.45
271.929	9.38
272.146	8.58
272.362	-8.68
272.579	-1.27
272.795	-0.46
273.012	5.97
273.228	-0.06
273.445	-1.94
273.661	-7.38
273.878	4.28
274.094	0.4
274.311	-4.24
274.527	-5.48
274.744	-7.3
274.96	0.18
275.177	14.57
275.393	26.07
275.609	32.61
275.826	46.79
276.042	62.44
276.259	61.08
276.475	48.39
276.691	41.36
276.908	30.25
277.124	23.89
277.34	15.38
277.557	4.08
277.773	0.86
277.989	1.53
278.205	-8.42
278.422	-2.19
278.638	5.88
278.854	13.88
279.07	-3.27
279.286	9.28
279.503	6.53
279.719	14.63
279.935	6.95
280.151	11.64
280.367	2.98
280.583	16.06
280.799	17.34
281.016	19.43
281.232	16.01
281.448	8.11
281.664	3.17
281.88	6.4
282.096	4.15
282.312	-4.88
282.528	-11.45
282.744	-12.88
282.96	3.13
283.176	6.33
283.392	15.11
283.608	21.18
283.824	19.52
284.04	30.69
284.256	36.4
284.471	36.53
284.687	28.73
284.903	17.54
285.119	9.74
285.335	7.32
285.551	2.53
285.767	-0.43
285.982	-11.17
286.198	-13.44
286.414	11.63
286.63	19.28
286.846	15.41
287.061	16.03
287.277	22.9
287.493	26.87
287.709	31.73
287.924	28.45
288.14	32.99
288.356	53.47
288.571	42.11
288.787	38.56
289.003	45.99
289.218	36.77
289.434	26.15
289.65	31.07
289.865	24.24
290.081	28.42
290.296	20.6
290.512	22.48
290.727	29.34
290.943	27.94
291.159	20.27
291.374	11.15
291.59	9.51
291.805	15.92
292.021	3.54
292.236	11.01
292.451	11.33
292.667	9.43
292.882	12.61
293.098	11.87
293.313	6.71
293.529	11.44
293.744	8.69
293.959	8.27
294.175	9.56
294.39	15.67
294.605	15.07
294.821	17.96
295.036	18.83
295.251	18.47
295.467	24.73
295.682	24.14
295.897	18.83
296.112	23.02
296.328	23.56
296.543	13.38
296.758	9.22
296.973	17.5
297.188	14.55
297.404	18.01
297.619	16.82
297.834	21.92
298.049	27.89
298.264	34.1
298.479	15.57
298.694	16.73
298.909	9.45
299.125	10.23
299.34	-2.76
299.555	7.04
299.77	-2.18
299.985	-5.03
300.2	-9.41
300.415	-1
300.63	-5.6
300.845	3.06
301.06	-0.78
301.275	5.72
301.49	15.17
301.704	17.08
301.919	10.53
302.134	9.41
302.349	6
302.564	8.7
302.779	11.16
302.994	12.25
303.209	15.12
303.423	20.06
303.638	27.87
303.853	35.04
304.068	25.41
304.283	16.09
304.497	21.97
304.712	29.02
304.927	27.16
305.142	26.62
305.356	26.16
305.571	35.73
305.786	34.53
306	33.73
306.215	29.6
306.43	31.3
306.644	30.91
306.859	27.79
307.074	19.27
307.288	27.15
307.503	22.65
307.717	20.96
307.932	26.44
308.147	28.79
308.361	26.34
308.576	23.13
308.79	13.49
309.005	12.44
309.219	16.32
309.434	6.31
309.648	-10.42
309.863	-9.47
310.077	-16.14
310.292	-4.73
310.506	8.67
310.72	-7.08
310.935	-0.79
311.149	11.22
311.364	10.14
311.578	6.32
311.792	-1.73
312.007	-13.7
312.221	3.9
312.435	4.62
312.649	3.51
312.864	6.89
313.078	29.2
313.292	35.15
313.507	45.52
313.721	37.55
313.935	45.15
314.149	33.51
314.363	36.24
314.578	43.77
314.792	43.56
315.006	46.87
315.22	44.74
315.434	38.15
315.648	41.51
315.862	39.08
316.077	38.61
316.291	41.7
316.505	35.85
316.719	26.96
316.933	28.81
317.147	25.92
317.361	27.66
317.575	14.32
317.789	20.03
318.003	27.29
318.217	42.91
318.431	41.9
318.645	41.94
318.859	30.45
319.073	27.12
319.287	24.55
319.5	20.85
319.714	11.58
319.928	13.66
320.142	15.06
320.356	34.43
320.57	35.49
320.784	33.34
320.997	36.04
321.211	36.97
321.425	21.46
321.639	25.04
321.853	17.15
322.066	15.63
322.28	14.15
322.494	16.72
322.707	20.91
322.921	34.45
323.135	45.4
323.349	40.04
323.562	45.7
323.776	44.34
323.989	32.5
324.203	32.02
324.417	24.06
324.63	3.74
324.844	-0.47
325.057	-1.58
325.271	-6.31
325.485	1.25
325.698	-3.28
325.912	11.55
326.125	21.9
326.339	31.32
326.552	33.75
326.766	41.58
326.979	44.34
327.193	46.41
327.406	40.72
327.619	25.59
327.833	11.49
328.046	6.6
328.26	-3.66
328.473	-11.06
328.686	-7.74
328.9	-15.6
329.113	-6.04
329.326	1.03
329.54	3.75
329.753	10.34
329.966	18.77
330.179	24.48
330.393	27.12
330.606	33.39
330.819	38.47
331.032	39.36
331.246	41.18
331.459	37.25
331.672	30.1
331.885	26.08
332.098	22
332.311	8.96
332.525	10.21
332.738	7.87
332.951	8.98
333.164	2.3
333.377	-0.84
333.59	7.88
333.803	18.18
334.016	14.05
334.229	6.18
334.442	22.79
334.655	35.82
334.868	36.93
335.081	37.31
335.294	32.8
335.507	39.57
335.72	40.05
335.933	37.56
336.146	34.2
336.359	31.53
336.572	23.84
336.785	27.59
336.997	19.12
337.21	19.05
337.423	6.7
337.636	6.06
337.849	6.76
338.062	14.13
338.274	10.13
338.487	13.52
338.7	18.3
338.913	18.76
339.125	21.77
339.338	33.6
339.551	31.61
339.763	27.78
339.976	25.61
340.189	22.92
340.402	18.15
340.614	21.55
340.827	7.82
341.039	10.56
341.252	10.69
341.465	10.78
341.677	-0.64
341.89	10.49
342.102	9.52
342.315	26.21
342.527	13.21
342.74	15.7
342.952	19.24
343.165	41.9
343.377	37.94
343.59	40.41
343.802	34.95
344.015	44.24
344.227	38.9
344.44	33.25
344.652	29.47
344.864	32.65
345.077	23.37
345.289	13.52
345.502	8.45
345.714	11.25
345.926	10.25
346.139	12.71
346.351	-11.23
346.563	-9.37
346.775	-13.97
346.988	-7.98
347.2	-2.97
347.412	4.81
347.624	0.87
347.837	7.31
348.049	8.08
348.261	14.37
348.473	2.33
348.685	10.67
348.897	14.46
349.11	21.32
349.322	30.22
349.534	27.12
349.746	37.91
349.958	48.3
350.17	46
350.382	26.6
350.594	26.46
350.806	29.32
351.018	40.87
351.23	29.51
351.442	26.38
351.654	27.83
351.866	34.97
352.078	30.26
352.29	38.04
352.502	34.58
352.714	40.34
352.926	38.7
353.138	35.14
353.35	29.95
353.561	21.02
353.773	7.6
353.985	5.35
354.197	0.45
354.409	4.12
354.621	1.65
354.832	1.78
355.044	6.33
355.256	4.26
355.468	2.66
355.679	7.85
355.891	10.75
356.103	16.3
356.314	19.9
356.526	17.45
356.738	17.65
356.949	22.12
357.161	19.89
357.373	13.81
357.584	23.18
357.796	15.6
358.008	21.81
358.219	33.43
358.431	30.17
358.642	26.25
358.854	25.04
359.065	10.58
359.277	15.16
359.488	0.59
359.7	-9.02
359.911	-4.87
360.123	3.56
360.334	4.28
360.546	3.6
360.757	5.87
360.969	23.18
361.18	24.99
361.391	17.27
361.603	12.18
361.814	18.16
362.025	22.59
362.237	17.89
362.448	10.59
362.659	-0.36
362.871	1.33
363.082	5.64
363.293	2.14
363.504	5.52
363.716	8.04
363.927	11.19
364.138	20.67
364.349	25.35
364.56	22.81
364.772	22.99
364.983	15.12
365.194	17.72
365.405	11.26
365.616	4.72
365.827	3.27
366.038	16.92
366.25	14.46
366.461	18.29
366.672	18.71
366.883	24.39
367.094	23.65
367.305	21.3
367.516	13.36
367.727	16.57
367.938	15.42
368.149	18.62
368.36	19.64
368.571	21.2
368.781	15.47
368.992	10.39
369.203	17.32
369.414	12.59
369.625	9.58
369.836	8.25
370.047	8.08
370.258	10.56
370.468	10.88
370.679	0.46
370.89	18.06
371.101	13.95
371.312	12.36
371.522	14.75
371.733	11.34
371.944	12.34
372.155	4.33
372.365	-7.56
372.576	-8.92
372.787	-10.56
372.997	-10.93
373.208	-7.82
373.419	-4.68
373.629	11.04
373.84	4.34
374.05	15.73
374.261	12.49
374.472	9.74
374.682	7.68
374.893	3.46
375.103	4.01
375.314	9.95
375.524	5.47
375.735	13.15
375.945	14.49
376.156	21.2
376.366	25.93
376.577	23.12
376.787	21.66
376.997	25.78
377.208	20.52
377.418	23.59
377.629	17.41
377.839	21.98
378.049	24.23
378.26	27.22
378.47	23.41
378.68	18.72
378.89	10.28
379.101	7.2
379.311	-2.81
379.521	-5.53
379.732	-13.7
379.942	-11.26
380.152	-6.06
380.362	7.35
380.572	11.02
380.783	12.97
380.993	10.55
381.203	18.02
381.413	18.98
381.623	19.37
381.833	8.98
382.043	3.71
382.253	6.68
382.463	11.37
382.674	8.88
382.884	4.82
383.094	6.23
383.304	7.58
383.514	11.15
383.724	8.04
383.934	3.64
384.144	6.33
384.353	5.34
384.563	4.19
384.773	7.9
384.983	10.12
385.193	12.35
385.403	17.4
385.613	12.81
385.823	11.6
386.033	12.14
386.242	11.9
386.452	9.62
386.662	10.71
386.872	6.2
387.082	3.12
387.291	7.47
387.501	8.34
387.711	8.27
387.921	8.65
388.13	5.97
388.34	7.13
388.55	14.17
388.759	12.86
388.969	10.08
389.179	10.8
389.388	10.13
389.598	7.89
389.807	7.07
390.017	3.25
390.227	2.3
390.436	3.83
390.646	4.68
390.855	5.61
391.065	7.1
391.274	6.55
391.484	8.71
391.693	10.1
391.903	9.38
392.112	7.21
392.322	8.96
392.531	9.56
392.74	7.96
392.95	7.82
393.159	7.25
393.369	7.34
393.578	7.06
393.787	6.11
393.997	5.45
394.206	6.77
394.415	6.3
394.625	5.34
394.834	4.73
395.043	5.4
395.252	5.7
395.462	6.11
395.671	6.72
395.88	6.77
396.089	7.1
396.298	7.28
396.508	7.18
396.717	6.42
396.926	5.95
397.135	5.06
397.344	4.83
397.553	5.22
397.762	5.38
397.971	5.28
398.181	4.98
398.39	5.23
398.599	5.7
398.808	5.82
399.017	5.67
399.226	5.82
399.435	5.75
399.644	5.97
399.853	5.93
400.062	5.97
400.27	5.84
400.479	5.86
400.688	5.9
400.897	6.23
401.106	6.26
401.315	6.1
401.524	6.24
401.733	6.41
401.941	6.16
402.15	5.94
402.359	5.7
402.568	5.48
402.777	5.59
402.985	5.33
403.194	5.1
403.403	5.01
403.612	5.1
403.82	5.19
404.029	5.33
404.238	5.35
404.446	5.1
404.655	4.99
404.864	5.08
405.072	5.01
405.281	4.72
405.489	4.78
405.698	4.64
405.906	4.75
406.115	4.85
406.324	4.72
406.532	4.72
406.741	4.8
406.949	4.6
407.158	4.77
407.366	4.91
407.574	4.94
407.783	4.95
407.991	4.89
408.2	4.93
408.408	5.01
408.617	4.87
408.825	4.81
409.033	4.7
409.242	4.69
409.45	4.67
409.658	4.67
409.867	4.7
410.075	4.68
410.283	4.6
410.491	4.58
410.7	4.71
410.908	4.7
411.116	4.6
411.324	4.58
411.533	4.51
411.741	4.51
411.949	4.65
412.157	4.58
412.365	4.59
412.573	4.66
412.781	4.61
412.99	4.69
413.198	4.73
413.406	4.64
413.614	4.62
413.822	4.56
414.03	4.42
414.238	4.52
414.446	4.34
414.654	4.26
414.862	4.16
415.07	4.21
415.278	4.17
415.486	4.33
415.694	4.16
415.902	4.19
416.109	4.25
416.317	4.17
416.525	4.12
416.733	4.27
416.941	4.15
417.149	4.28
417.357	4.3
417.564	4.23
417.772	4.35
417.98	4.29
418.188	4.16
418.395	4.18
418.603	4.02
418.811	3.95
419.019	3.96
419.226	4.04
419.434	3.97
419.642	3.98
419.849	3.92
420.057	4.03
420.265	4.11
420.472	4.06
420.68	3.95
420.887	4.06
421.095	4.05
421.302	4.16
421.51	4.15
421.717	4.2
421.925	4.17
422.132	4.1
422.34	4.06
422.547	4.01
422.755	3.98
422.962	3.88
423.17	3.83
423.377	3.94
423.585	3.99
423.792	4.04
423.999	4.07
424.207	3.94
424.414	4.03
424.621	4
424.829	3.88
425.036	3.82
425.243	3.77
425.451	3.75
425.658	3.85
425.865	3.72
426.072	3.84
426.28	3.95
426.487	3.96
426.694	3.89
426.901	3.83
427.108	3.82
427.315	3.85
427.523	3.81
427.73	3.81
427.937	3.85
428.144	3.88
428.351	4.03
428.558	3.93
428.765	3.94
428.972	3.89
429.179	3.77
429.386	3.89
429.593	3.81
429.8	3.84
430.007	3.98
430.214	4.05
430.421	4.1
430.628	4.03
430.835	3.93
431.042	4.02
431.249	3.92
431.456	3.94
431.662	3.93
431.869	3.99
432.076	4.11
432.283	4.07
432.49	4.04
432.697	4.03
432.903	4.04
433.11	4.02
433.317	4
433.524	3.92
433.73	3.99
433.937	3.97
434.144	4.09
434.35	4.01
434.557	3.99
434.764	3.92
434.97	4.06
435.177	4.03
435.384	4.1
435.59	4.06
435.797	4.09
436.003	4.07
436.21	4.06
436.416	3.96
436.623	4.05
436.829	4.02
437.036	3.98
437.242	4
437.449	4.08
437.655	4.15
437.862	4.12
438.068	4.18
438.275	4.15
438.481	4.18
438.687	4.17
438.894	4.12
439.1	4.12
439.307	4.22
439.513	4.13
439.719	4.24
439.926	4.26
440.132	4.27
440.338	4.32
440.544	4.32
440.751	4.28
440.957	4.26
441.163	4.26
441.369	4.21
441.575	4.24
441.782	4.2
441.988	4.22
442.194	4.32
442.4	4.33
442.606	4.32
442.812	4.34
443.018	4.36
443.224	4.35
443.431	4.35
443.637	4.24
443.843	4.33
444.049	4.29
444.255	4.27
444.461	4.2
444.667	4.22
444.873	4.17
445.079	4.26
445.284	4.2
445.49	4.2
445.696	4.25
445.902	4.33
446.108	4.37
446.314	4.43
446.52	4.4
446.726	4.42
446.931	4.43
447.137	4.42
447.343	4.41
447.549	4.36
447.755	4.34
447.96	4.34
448.166	4.35
448.372	4.35
448.578	4.4
448.783	4.37
448.989	4.41
449.195	4.42
449.4	4.42
449.606	4.4
449.812	4.47
450.017	4.47
450.223	4.48
450.428	4.48
450.634	4.56
450.84	4.55
451.045	4.57
451.251	4.55
451.456	4.49
451.662	4.49
451.867	4.52
452.073	4.47
452.278	4.48
452.483	4.57
452.689	4.55
452.894	4.59
453.1	4.56
453.305	4.55
453.51	4.57
453.716	4.58
453.921	4.5
454.127	4.51
454.332	4.48
454.537	4.54
454.742	4.55
454.948	4.52
455.153	4.53
455.358	4.61
455.563	4.66
455.769	4.66
455.974	4.58
456.179	4.51
456.384	4.54
456.589	4.54
456.795	4.42
457	4.34
457.205	4.34
457.41	4.4
457.615	4.53
457.82	4.6
458.025	4.59
458.23	4.7
458.435	4.69
458.64	4.73
458.845	4.74
459.05	4.68
459.255	4.64
459.46	4.67
459.665	4.71
459.87	4.73
460.075	4.74
460.28	4.76
460.485	4.83
460.69	4.79
460.895	4.81
461.099	4.8
461.304	4.86
461.509	4.82
461.714	4.82
461.919	4.8
462.123	4.9
462.328	4.88
462.533	4.85
462.738	4.82
462.942	4.95
463.147	4.94
463.352	4.96
463.556	4.94
463.761	4.95
463.966	5.04
464.17	5.11
464.375	5.01
464.58	5.03
464.784	5
464.989	4.97
465.193	4.99
465.398	4.98
465.602	4.91
465.807	4.95
466.011	5.01
466.216	5.04
466.42	5.12
466.625	5.12
466.829	5.12
467.034	5.19
467.238	5.26
467.443	5.25
467.647	5.27
467.851	5.24
468.056	5.27
468.26	5.2
468.464	5.2
468.669	5.16
468.873	5.14
469.077	5.13
469.282	5.17
469.486	5.2
469.69	5.28
469.894	5.32
470.099	5.39
470.303	5.4
470.507	5.44
470.711	5.4
470.915	5.42
471.119	5.45
471.324	5.4
471.528	5.37
471.732	5.37
471.936	5.42
472.14	5.47
472.344	5.44
472.548	5.42
472.752	5.5
472.956	5.56
473.16	5.61
473.364	5.55
473.568	5.57
473.772	5.62
473.976	5.62
474.18	5.62
474.384	5.6
474.588	5.63
474.792	5.63
474.995	5.65
475.199	5.64
475.403	5.68
475.607	5.67
475.811	5.68
476.015	5.73
476.218	5.75
476.422	5.76
476.626	5.77
476.83	5.77
477.033	5.79
477.237	5.79
477.441	5.74
477.644	5.79
477.848	5.78
478.052	5.77
478.255	5.78
478.459	5.86
478.663	5.9
478.866	5.91
479.07	5.92
479.273	5.94
479.477	5.97
479.681	5.98
479.884	5.89
480.088	5.9
480.291	5.94
480.495	5.94
480.698	5.91
480.901	5.95
481.105	5.97
481.308	6.01
481.512	6.02
481.715	6.01
481.919	6.01
482.122	6.07
482.325	6.06
482.529	6.09
482.732	6.08
482.935	6.08
483.138	6.07
483.342	6.09
483.545	6.05
483.748	6.09
483.952	6.09
484.155	6.13
484.358	6.11
484.561	6.17
484.764	6.15
484.967	6.22
485.171	6.18
485.374	6.19
485.577	6.21
485.78	6.29
485.983	6.26
486.186	6.28
486.389	6.24
486.592	6.3
486.795	6.29
486.998	6.26
487.201	6.2
487.404	6.28
487.607	6.28
487.81	6.34
488.013	6.32
488.216	6.32
488.419	6.32
488.622	6.32
488.825	6.25
489.028	6.27
489.231	6.26
489.433	6.25
489.636	6.19
489.839	6.19
490.042	6.24
490.245	6.28
490.447	6.28
490.65	6.28
490.853	6.3
491.056	6.35
491.258	6.4
491.461	6.36
491.664	6.36
491.866	6.41
492.069	6.45
492.272	6.44
492.474	6.47
492.677	6.45
492.879	6.51
493.082	6.56
493.285	6.53
493.487	6.52
493.69	6.55
493.892	6.6
494.095	6.6
494.297	6.61
494.5	6.65
494.702	6.7
494.905	6.73
495.107	6.74
495.309	6.69
495.512	6.78
495.714	6.81
495.917	6.83
496.119	6.83
496.321	6.88
496.524	6.9
496.726	6.98
496.928	7.01
497.13	7.06
497.333	7.08
497.535	7.13
497.737	7.15
497.939	7.18
498.142	7.18
498.344	7.18
498.546	7.23
498.748	7.22
498.95	7.28
499.152	7.29
499.355	7.35
499.557	7.45
499.759	7.52
499.961	7.5
500.163	7.57
500.365	7.56
500.567	7.58
500.769	7.6
500.971	7.55
501.173	7.52
501.375	7.54
501.577	7.54
501.779	7.56
501.981	7.59
502.183	7.56
502.385	7.6
502.587	7.65
502.788	7.63
502.99	7.62
503.192	7.66
503.394	7.66
503.596	7.75
503.798	7.8
503.999	7.8
504.201	7.86
504.403	7.9
504.605	7.9
504.806	7.9
505.008	7.87
505.21	7.85
505.411	7.87
505.613	7.86
505.815	7.9
506.016	7.93
506.218	7.93
506.42	7.95
506.621	8
506.823	8.06
507.024	8.08
507.226	8.07
507.427	7.98
507.629	8.03
507.83	7.99
508.032	7.97
508.233	7.93
508.435	7.95
508.636	7.96
508.838	8.04
509.039	8.04
509.24	8.08
509.442	8.04
509.643	8.02
509.845	8.03
510.046	8.02
510.247	8.01
510.448	8.03
510.65	8.01
510.851	8.08
511.052	8.14
511.254	8.14
511.455	8.15
511.656	8.18
511.857	8.19
512.058	8.26
512.26	8.26
512.461	8.25
512.662	8.22
512.863	8.21
513.064	8.19
513.265	8.19
513.466	8.18
513.667	8.19
513.868	8.16
514.069	8.22
514.27	8.25
514.471	8.3
514.672	8.31
514.873	8.34
515.074	8.35
515.275	8.36
515.476	8.34
515.677	8.38
515.878	8.38
516.079	8.4
516.28	8.35
516.481	8.34
516.682	8.36
516.882	8.35
517.083	8.34
517.284	8.3
517.485	8.3
517.686	8.3
517.886	8.33
518.087	8.33
518.288	8.33
518.488	8.33
518.689	8.34
518.89	8.35
519.091	8.35
519.291	8.36
519.492	8.37
519.692	8.39
519.893	8.39
520.094	8.4
520.294	8.38
520.495	8.42
520.695	8.43
520.896	8.37
521.096	8.42
521.297	8.43
521.497	8.42
521.698	8.43
521.898	8.46
522.099	8.45
522.299	8.5
522.499	8.46
522.7	8.47
522.9	8.49
523.101	8.51
523.301	8.5
523.501	8.52
523.702	8.52
523.902	8.54
524.102	8.55
524.302	8.55
524.503	8.57
524.703	8.58
524.903	8.6
525.103	8.62
525.304	8.63
525.504	8.62
525.704	8.63
525.904	8.64
526.104	8.63
526.304	8.6
526.504	8.6
526.705	8.61
526.905	8.64
527.105	8.65
527.305	8.62
527.505	8.63
527.705	8.66
527.905	8.66
528.105	8.66
528.305	8.69
528.505	8.69
528.705	8.74
528.905	8.78
529.105	8.81
529.304	8.83
529.504	8.86
529.704	8.85
529.904	8.85
530.104	8.84
530.304	8.84
530.503	8.83
530.703	8.84
530.903	8.86
531.103	8.89
531.303	8.94
531.502	8.95
531.702	8.97
531.902	8.99
532.101	9.01
532.301	9.02
532.501	9.03
532.7	9.01
532.9	9.06
533.1	9.02
533.299	9.04
533.499	9.04
533.698	9.07
533.898	9.09
534.097	9.11
534.297	9.11
534.496	9.15
534.696	9.19
534.895	9.24
535.095	9.23
535.294	9.25
535.494	9.29
535.693	9.33
535.892	9.35
536.092	9.32
536.291	9.35
536.491	9.38
536.69	9.38
536.889	9.38
537.088	9.4
537.288	9.46
537.487	9.51
537.686	9.53
537.886	9.54
538.085	9.57
538.284	9.59
538.483	9.63
538.682	9.63
538.882	9.64
539.081	9.63
539.28	9.66
539.479	9.71
539.678	9.79
539.877	9.79
540.076	9.82
540.275	9.83
540.474	9.84
540.673	9.89
540.872	9.93
541.071	9.92
541.27	9.94
541.469	9.98
541.668	10.05
541.867	10.13
542.066	10.15
542.265	10.18
542.464	10.24
542.663	10.34
542.862	10.41
543.06	10.47
543.259	10.5
543.458	10.53
543.657	10.55
543.856	10.56
544.054	10.55
544.253	10.56
544.452	10.53
544.651	10.55
544.849	10.55
545.048	10.56
545.247	10.56
545.445	10.55
545.644	10.59
545.843	10.67
546.041	10.7
546.24	10.77
546.438	10.85
546.637	10.95
546.836	11.02
547.034	11.04
547.233	11.06
547.431	11.12
547.63	11.19
547.828	11.22
548.027	11.21
548.225	11.31
548.423	11.35
548.622	11.39
548.82	11.44
549.019	11.46
549.217	11.54
549.415	11.65
549.614	11.64
549.812	11.7
550.01	11.77
550.209	11.83
550.407	11.9
550.605	11.94
550.803	11.98
551.002	12.06
551.2	12.16
551.398	12.21
551.596	12.26
551.794	12.33
551.993	12.36
552.191	12.46
552.389	12.51
552.587	12.53
552.785	12.62
552.983	12.7
553.181	12.75
553.379	12.88
553.577	12.94
553.775	13.02
553.973	13.11
554.171	13.18
554.369	13.25
554.567	13.33
554.765	13.37
554.963	13.38
555.161	13.49
555.359	13.54
555.557	13.61
555.755	13.7
555.952	13.76
556.15	13.86
556.348	14.03
556.546	14.08
556.744	14.17
556.941	14.3
557.139	14.38
557.337	14.47
557.535	14.57
557.732	14.64
557.93	14.77
558.128	14.84
558.325	14.91
558.523	14.97
558.721	15.07
558.918	15.11
559.116	15.17
559.313	15.21
559.511	15.27
559.708	15.32
559.906	15.42
560.104	15.5
560.301	15.57
560.498	15.67
560.696	15.77
560.893	15.92
561.091	16.04
561.288	16.13
561.486	16.2
561.683	16.33
561.88	16.38
562.078	16.45
562.275	16.53
562.473	16.63
562.67	16.69
562.867	16.83
563.064	16.92
563.262	17.09
563.459	17.2
563.656	17.3
563.853	17.36
564.051	17.43
564.248	17.51
564.445	17.57
564.642	17.59
564.839	17.67
565.036	17.77
565.234	17.86
565.431	17.93
565.628	18
565.825	18.13
566.022	18.2
566.219	18.24
566.416	18.27
566.613	18.39
566.81	18.48
567.007	18.52
567.204	18.55
567.401	18.66
567.598	18.75
567.795	18.86
567.991	18.88
568.188	18.94
568.385	19.04
568.582	19.1
568.779	19.14
568.976	19.26
569.172	19.34
569.369	19.4
569.566	19.44
569.763	19.51
569.96	19.58
570.156	19.61
570.353	19.61
570.55	19.65
570.746	19.69
570.943	19.77
571.14	19.8
571.336	19.82
571.533	19.88
571.729	19.89
571.926	19.94
572.123	19.99
572.319	20.02
572.516	20.06
572.712	20.13
572.909	20.19
573.105	20.25
573.302	20.26
573.498	20.31
573.695	20.36
573.891	20.38
574.087	20.39
574.284	20.37
574.48	20.41
574.677	20.42
574.873	20.44
575.069	20.49
575.266	20.52
575.462	20.6
575.658	20.66
575.854	20.7
576.051	20.74
576.247	20.75
576.443	20.78
576.639	20.79
576.835	20.76
577.032	20.78
577.228	20.77
577.424	20.82
577.62	20.89
577.816	20.81
578.012	20.8
578.208	20.78
578.404	20.77
578.6	20.77
578.796	20.75
578.993	20.68
579.189	20.73
579.384	20.69
579.58	20.71
579.776	20.63
579.972	20.59
580.168	20.57
580.364	20.6
580.56	20.56
580.756	20.58
580.952	20.57
581.148	20.59
581.343	20.57
581.539	20.54
581.735	20.48
581.931	20.48
582.127	20.46
582.322	20.45
582.518	20.43
582.714	20.43
582.909	20.38
583.105	20.4
583.301	20.33
583.496	20.34
583.692	20.32
583.888	20.27
584.083	20.32
584.279	20.32
584.474	20.3
584.67	20.29
584.866	20.24
585.061	20.25
585.257	20.28
585.452	20.17
585.648	20.18
585.843	20.17
586.039	20.12
586.234	20.12
586.429	20.09
586.625	20.06
586.82	20.07
587.015	20.05
587.211	20.07
587.406	20.13
587.601	20.1
587.797	20.07
587.992	20.08
588.187	20.12
588.383	20.12
588.578	20.03
588.773	19.99
588.968	20.04
589.163	20.07
589.359	20
589.554	20
589.749	19.98
589.944	20.04
590.139	20.05
590.334	20.01
590.529	20.03
590.724	20.11
590.919	20.17
591.114	20.19
591.309	20.19
591.504	20.2
591.699	20.24
591.894	20.25
592.089	20.25
592.284	20.17
592.479	20.21
592.674	20.26
592.869	20.27
593.064	20.32
593.259	20.36
593.454	20.39
593.648	20.42
593.843	20.47
594.038	20.52
594.233	20.62
594.428	20.67
594.622	20.66
594.817	20.72
595.012	20.83
595.206	20.85
595.401	20.85
595.596	20.91
595.79	20.95
595.985	21.07
596.18	21.16
596.374	21.21
596.569	21.3
596.763	21.42
596.958	21.44
597.153	21.49
597.347	21.52
597.542	21.56
597.736	21.62
597.931	21.69
598.125	21.71
598.319	21.77
598.514	21.81
598.708	21.86
598.903	21.93
599.097	21.98
599.291	22.01
599.486	22.06
599.68	22.1
599.874	22.18
600.069	22.2
600.263	22.21
600.457	22.24
600.651	22.26
600.846	22.25
601.04	22.27
601.234	22.31
601.428	22.29
601.622	22.3
601.817	22.34
602.011	22.4
602.205	22.43
602.399	22.46
602.593	22.42
602.787	22.53
602.981	22.56
603.175	22.54
603.369	22.53
603.563	22.54
603.757	22.49
603.951	22.48
604.145	22.43
604.339	22.48
604.533	22.47
604.727	22.41
604.921	22.36
605.115	22.39
605.309	22.39
605.502	22.37
605.696	22.27
605.89	22.27
606.084	22.25
606.278	22.24
606.471	22.17
606.665	22.13
606.859	22.1
607.053	22.07
607.246	22.04
607.44	22.01
607.634	21.97
607.827	21.88
608.021	21.8
608.214	21.73
608.408	21.64
608.602	21.53
608.795	21.4
608.989	21.33
609.182	21.34
609.376	21.26
609.569	21.17
609.763	21.18
609.956	21.07
610.15	21.09
610.343	21.03
610.537	20.91
610.73	20.91
610.923	20.84
611.117	20.74
611.31	20.73
611.504	20.64
611.697	20.56
611.89	20.49
612.083	20.35
612.277	20.26
612.47	20.17
612.663	20.07
612.856	19.96
613.05	19.9
613.243	19.87
613.436	19.82
613.629	19.82
613.822	19.71
614.015	19.64
614.209	19.63
614.402	19.54
614.595	19.45
614.788	19.39
614.981	19.26
615.174	19.22
615.367	19.2
615.56	19.05
615.753	18.98
615.946	18.97
616.139	18.92
616.332	18.88
616.525	18.86
616.718	18.81
616.911	18.8
617.103	18.74
617.296	18.63
617.489	18.6
617.682	18.59
617.875	18.52
618.067	18.44
618.26	18.35
618.453	18.27
618.646	18.28
618.838	18.22
619.031	18.18
619.224	18.17
619.417	18.18
619.609	18.17
619.802	18.21
619.994	18.11
620.187	18.07
620.38	18.03
620.572	17.99
620.765	17.92
620.957	17.84
621.15	17.77
621.342	17.78
621.535	17.77
621.727	17.71
621.92	17.67
622.112	17.66
622.305	17.66
622.497	17.62
622.69	17.59
622.882	17.54
623.074	17.56
623.267	17.47
623.459	17.42
623.651	17.45
623.844	17.52
624.036	17.52
624.228	17.5
624.42	17.48
624.613	17.49
624.805	17.53
624.997	17.51
625.189	17.47
625.381	17.43
625.574	17.39
625.766	17.36
625.958	17.33
626.15	17.28
626.342	17.24
626.534	17.19
626.726	17.16
626.918	17.13
627.11	17.13
627.302	17.1
627.494	17.08
627.686	17.02
627.878	16.99
628.07	16.97
628.262	16.91
628.454	16.85
628.646	16.84
628.838	16.81
629.029	16.78
629.221	16.71
629.413	16.65
629.605	16.61
629.797	16.57
629.989	16.5
630.18	16.39
630.372	16.36
630.564	16.39
630.755	16.39
630.947	16.37
631.139	16.31
631.33	16.33
631.522	16.31
631.714	16.29
631.905	16.2
632.097	16.18
632.289	16.15
632.48	16.1
632.672	15.99
632.863	16.01
633.055	15.97
633.246	15.98
633.438	15.93
633.629	15.98
633.821	15.98
634.012	16.04
634.203	16.07
634.395	16.08
634.586	16.02
634.777	16.03
634.969	15.97
635.16	15.97
635.351	15.91
635.543	15.83
635.734	15.75
635.925	15.8
636.117	15.8
636.308	15.8
636.499	15.75
636.69	15.78
636.881	15.78
637.073	15.77
637.264	15.72
637.455	15.7
637.646	15.71
637.837	15.72
638.028	15.69
638.219	15.65
638.41	15.67
638.601	15.64
638.792	15.57
638.983	15.51
639.174	15.52
639.365	15.45
639.556	15.46
639.747	15.41
639.938	15.38
640.129	15.37
640.32	15.32
640.511	15.26
640.701	15.24
640.892	15.23
641.083	15.2
641.274	15.17
641.465	15.15
641.655	15.16
641.846	15.15
642.037	15.1
642.228	15.06
642.418	15.02
642.609	15
642.8	15
642.99	14.97
643.181	14.92
643.372	14.93
643.562	14.91
643.753	14.9
643.943	14.9
644.134	14.87
644.324	14.83
644.515	14.81
644.705	14.81
644.896	14.71
645.086	14.69
645.277	14.7
645.467	14.69
645.658	14.69
645.848	14.71
646.038	14.67
646.229	14.73
646.419	14.75
646.61	14.7
646.8	14.67
646.99	14.68
647.18	14.6
647.371	14.55
647.561	14.51
647.751	14.43
647.941	14.4
648.132	14.38
648.322	14.39
648.512	14.37
648.702	14.39
648.892	14.4
649.082	14.36
649.272	14.33
649.462	14.35
649.653	14.28
649.843	14.28
650.033	14.26
650.223	14.2
650.413	14.24
650.603	14.26
650.793	14.19
650.983	14.21
651.172	14.22
651.362	14.18
651.552	14.14
651.742	14.06
651.932	14.01
652.122	13.95
652.312	13.77
652.502	13.69
652.691	13.67
652.881	13.65
653.071	13.56
653.261	13.44
653.45	13.44
653.64	13.5
653.83	13.38
654.019	13.22
654.209	13.09
654.399	13
654.588	12.94
654.778	12.83
654.968	12.67
655.157	12.59
655.347	12.47
655.536	12.32
655.726	12.29
655.915	12.15
656.105	12.03
656.294	11.91
656.484	11.83
656.673	11.79
656.863	11.76
657.052	11.58
657.241	11.5
657.431	11.34
657.62	11.18
657.809	11.05
657.999	10.88
658.188	10.73
658.377	10.69
658.567	10.54
658.756	10.43
658.945	10.36
659.134	10.2
659.324	10.13
659.513	9.91
659.702	9.72
659.891	9.56
660.08	9.43
660.269	9.33
660.458	9.26
660.648	9.07
660.837	9.03
661.026	8.95
661.215	8.9
661.404	8.76
661.593	8.6
661.782	8.46
661.971	8.38
662.16	8.28
662.349	8.13
662.538	8.05
662.726	7.96
662.915	7.84
663.104	7.67
663.293	7.59
663.482	7.49
663.671	7.36
663.86	7.21
664.048	7.13
664.237	7.06
664.426	7.04
664.615	6.94
664.803	6.9
664.992	6.95
665.181	6.91
665.369	6.86
665.558	6.81
665.747	6.77
665.935	6.79
666.124	6.75
666.312	6.65
666.501	6.58
666.69	6.53
666.878	6.48
667.067	6.48
667.255	6.42
667.444	6.37
667.632	6.31
667.82	6.31
668.009	6.33
668.197	6.34
668.386	6.31
668.574	6.27
668.762	6.22
668.951	6.25
669.139	6.26
669.327	6.19
669.516	6.24
669.704	6.23
669.892	6.25
670.08	6.28
670.269	6.33
670.457	6.28
670.645	6.32
670.833	6.28
671.021	6.27
671.21	6.28
671.398	6.27
671.586	6.17
671.774	6.19
671.962	6.17
672.15	6.17
672.338	6.21
672.526	6.2
672.714	6.23
672.902	6.31
673.09	6.35
673.278	6.41
673.466	6.54
673.654	6.54
673.842	6.6
674.03	6.64
674.218	6.67
674.405	6.77
674.593	6.81
674.781	6.77
674.969	6.8
675.157	6.9
675.344	6.93
675.532	6.97
675.72	6.95
675.908	6.94
676.095	7.02
676.283	7.06
676.471	7.11
676.658	7.2
676.846	7.28
677.033	7.33
677.221	7.43
677.409	7.49
677.596	7.67
677.784	7.66
677.971	7.73
678.159	7.82
678.346	7.89
678.534	7.94
678.721	7.94
678.909	7.94
679.096	7.99
679.283	7.99
679.471	8.11
679.658	8.26
679.846	8.42
680.033	8.57
680.22	8.61
680.408	8.72
680.595	8.83
680.782	8.89
680.969	8.89
681.157	8.88
681.344	9
681.531	9.09
681.718	9.15
681.905	9.31
682.093	9.39
682.28	9.62
682.467	9.77
682.654	9.8
682.841	9.91
683.028	10.11
683.215	10.23
683.402	10.33
683.589	10.34
683.776	10.45
683.963	10.63
684.15	10.75
684.337	10.84
684.524	11.04
684.711	11.2
684.898	11.37
685.085	11.63
685.271	11.9
685.458	12.24
685.645	12.5
685.832	12.74
686.019	12.97
686.205	13.25
686.392	13.46
686.579	13.69
686.766	13.93
686.952	14.26
687.139	14.49
687.326	14.86
687.512	15.14
687.699	15.43
687.886	15.66
688.072	16.03
688.259	16.26
688.445	16.55
688.632	16.91
688.818	17.29
689.005	17.75
689.191	18.25
689.378	18.55
689.564	19
689.751	19.52
689.937	19.86
690.124	20.32
690.31	20.75
690.496	21.15
690.683	21.67
690.869	22.09
691.055	22.65
691.242	23.11
691.428	23.68
691.614	24.29
691.8	24.78
691.987	25.33
692.173	26.02
692.359	26.65
692.545	27.26
692.731	27.86
692.918	28.33
693.104	28.93
693.29	29.49
693.476	29.94
693.662	30.39
693.848	30.99
694.034	31.45
694.22	31.97
694.406	32.54
694.592	32.97
694.778	33.6
694.964	34.1
695.15	34.59
695.336	35.28
695.522	35.98
695.708	36.65
695.894	37.32
696.08	37.9
696.265	38.53
696.451	39.26
696.637	39.71
696.823	40.21
697.009	40.74
697.194	41.31
697.38	41.82
697.566	42.31
697.751	42.81
697.937	43.4
698.123	43.9
698.308	44.39
698.494	44.95
698.68	45.56
698.865	46.23
699.051	46.83
699.236	47.36
699.422	47.91
699.607	48.43
699.793	48.86
699.978	49.31
700.164	49.68
700.349	49.98
700.535	50.43
700.72	50.87
700.906	51.29
701.091	51.78
701.276	52.24
701.462	52.67
701.647	52.94
701.832	53.29
702.018	53.68
702.203	53.98
702.388	54.27
702.573	54.59
702.759	54.92
702.944	55.44
703.129	55.9
703.314	56.3
703.499	56.86
703.684	57.32
703.87	57.81
704.055	58.14
704.24	58.47
704.425	58.95
704.61	59.21
704.795	59.42
704.98	59.71
705.165	59.83
705.35	60.3
705.535	60.61
705.72	60.61
705.905	60.93
706.09	61.18
706.275	61.32
706.459	61.75
706.644	61.79
706.829	62.2
707.014	62.47
707.199	62.58
707.384	62.91
707.568	63.3
707.753	63.65
707.938	63.88
708.123	63.91
708.307	64.52
708.492	64.85
708.677	65.24
708.861	65.33
709.046	65.19
709.231	65.48
709.415	65.72
709.6	65.51
709.784	65.71
709.969	65.72
710.153	66.22
710.338	66.44
710.522	66.66
710.707	66.66
710.891	66.98
711.076	66.98
711.26	67.18
711.445	67.16
711.629	67.54
711.813	67.55
711.998	67.81
712.182	68.24
712.366	68.69
712.551	69
712.735	69.13
712.919	69.35
713.103	69.47
713.288	69.77
713.472	69.48
713.656	69.42
713.84	69.36
714.024	69.62
714.208	69.59
714.393	70.14
714.577	70.3
714.761	70.64
714.945	70.83
715.129	70.94
715.313	71.05
715.497	71.33
715.681	71.31
715.865	71.29
716.049	71.27
716.233	71.42
716.417	71.71
716.601	71.85
716.785	71.85
716.968	71.78
717.152	72.03
717.336	72.2
717.52	72.2
717.704	72.39
717.888	72.42
718.071	72.66
718.255	72.93
718.439	72.96
718.622	73.06
718.806	73.14
718.99	73.09
719.174	73.14
719.357	73.23
719.541	73.29
719.724	73.38
719.908	73.6
720.092	73.97
720.275	74.22
720.459	74.48
720.642	74.31
720.826	74.38
721.009	74.45
721.193	74.24
721.376	74.14
721.559	73.92
721.743	73.79
721.926	73.74
722.11	73.64
722.293	73.35
722.476	73.59
722.66	73.44
722.843	73.82
723.026	73.96
723.21	74.16
723.393	74.5
723.576	74.73
723.759	75.03
723.942	75.35
724.126	75.11
724.309	75.16
724.492	75.15
724.675	75.19
724.858	75.32
725.041	75.1
725.224	75.23
725.407	75.18
725.59	75.24
725.774	75.27
725.957	75.45
726.14	75.66
726.322	75.58
726.505	75.79
726.688	76.13
726.871	76.35
727.054	76.85
727.237	76.74
727.42	76.97
727.603	77.31
727.786	77.22
727.968	77.41
728.151	77.7
728.334	77.69
728.517	77.7
728.699	77.9
728.882	78.48
729.065	78.44
729.248	78.3
729.43	78.11
729.613	78.25
729.796	78.09
729.978	77.91
730.161	77.54
730.343	77.73
730.526	77.73
730.708	78
730.891	77.87
731.073	78.02
731.256	78.04
731.438	78.16
731.621	78.45
731.803	78.94
731.986	78.84
732.168	78.86
732.35	78.98
732.533	79.07
732.715	79.08
732.898	78.76
733.08	78.68
733.262	78.69
733.444	78.58
733.627	78.8
733.809	79.3
733.991	79.49
734.173	79.34
734.355	79.57
734.538	79.65
734.72	80.36
734.902	80.13
735.084	79.91
735.266	79.97
735.448	80.4
735.63	80.03
735.812	80.16
735.994	79.35
736.176	79.85
736.358	80.31
736.54	80.25
736.722	80.46
736.904	80.63
737.086	80.57
737.268	81.39
737.45	81.19
737.632	80.48
737.814	80.11
737.995	79.84
738.177	80.34
738.359	80.6
738.541	80.49
738.723	81.24
738.904	81.59
739.086	82.5
739.268	83.17
739.449	82.72
739.631	82.57
739.813	82.31
739.994	82.15
740.176	82.04
740.358	81.61
740.539	81.36
740.721	81.25
740.902	81.08
741.084	81.74
741.265	81.6
741.447	81.77
741.628	81.22
741.81	81.08
741.991	81.67
742.172	81.88
742.354	81.37
742.535	81.51
742.717	81.18
742.898	82.07
743.079	82.2
743.261	82.1
743.442	82.46
743.623	82.66
743.804	82.73
743.986	82.8
744.167	82.44
744.348	82.4
744.529	81.92
744.71	81.56
744.891	81.74
745.073	81.63
745.254	81.84
745.435	81.94
745.616	82.24
745.797	82.24
745.978	82.39
746.159	81.95
746.34	81.47
746.521	81.52
746.702	81.27
746.883	81.05
747.064	81
747.245	81.54
747.426	81.68
747.606	81.82
747.787	82.26
747.968	82.75
748.149	82.73
748.33	83.5
748.51	82.46
748.691	82.09
748.872	81.83
749.053	81.17
749.233	80.81
749.414	80.57
749.595	79.65
749.775	80.22
749.956	79.95
750.137	79.99
750.317	80.06
750.498	80.21
750.678	80.13
750.859	80.43
751.04	80.03
751.22	80.84
751.4	81.1
751.581	81.17
751.761	81.59
751.942	81.94
752.122	81.54
752.303	81.73
752.483	81.69
752.663	81.73
752.844	81.23
753.024	80.54
753.204	79.65
753.385	80.08
753.565	79.47
753.745	79.58
753.925	79.1
754.106	79.77
754.286	79.61
754.466	79.85
754.646	79.98
754.826	80.12
755.006	79.89
755.187	80.93
755.367	80.67
755.547	80.72
755.727	80.58
755.907	80.49
756.087	80.44
756.267	80.36
756.447	79.57
756.627	79.91
756.807	80.62
756.987	82.21
757.167	81.95
757.346	81.76
757.526	81.76
757.706	82.21
757.886	82.15
758.066	81.72
758.246	80.89
758.425	81.38
758.605	81.92
758.785	81.81
758.965	80.19
759.144	80.66
759.324	80.76
759.504	80.88
759.683	79.96
759.863	79.3
760.043	79.47
760.222	79.86
760.402	78.94
760.581	78.03
760.761	76.71
760.94	77.02
761.12	77.32
761.299	76.49
761.479	77.9
761.658	77.42
761.838	78.1
762.017	78.45
762.197	79.09
762.376	79.39
762.555	80.5
762.735	78.5
762.914	78.74
763.093	77.98
763.273	78
763.452	76.77
763.631	76.21
763.81	75.7
763.99	77.39
764.169	77.63
764.348	78.48
764.527	78.66
764.706	80.48
764.885	81.2
765.064	81.38
765.243	79.93
765.423	80.53
765.602	80.07
765.781	80.11
765.96	79.15
766.139	78.9
766.318	78.65
766.497	79.17
766.676	79.32
766.854	79.06
767.033	79.22
767.212	78.56
767.391	78.77
767.57	78.98
767.749	78.77
767.928	77.43
768.106	77.55
768.285	77.1
768.464	78.01
768.643	77.46
768.821	77.16
769	78.06
769.179	77.51
769.357	76.94
769.536	78.02
769.715	77.27
769.893	77.45
770.072	77.39
770.25	77.18
770.429	77.85
770.607	78.64
770.786	78.06
770.964	78.18
771.143	78.01
771.321	78.19
771.5	77.14
771.678	77.23
771.857	76.92
772.035	76.16
772.213	75.49
772.392	75.85
772.57	75.42
772.748	75.96
772.927	75.82
773.105	76.96
773.283	77.23
773.461	77.14
773.64	76.21
773.818	75.79
773.996	76.11
774.174	76.74
774.352	75.64
774.531	74.84
774.709	76.51
774.887	75.78
775.065	75.69
775.243	75.99
775.421	75.89
775.599	75.13
775.777	75.8
775.955	74.31
776.133	73.89
776.311	73.99
776.489	73.75
776.667	73.35
776.844	72.97
777.022	71.95
777.2	71.12
777.378	72.84
777.556	74.17
777.734	74.4
777.911	75.5
778.089	75.91
778.267	76.84
778.445	77.08
778.622	76.41
778.8	75.48
778.978	74.12
779.155	71.95
779.333	70.81
779.511	70.86
779.688	69.92
779.866	70.45
780.043	70.07
780.221	70.29
780.398	71.93
780.576	73.11
780.753	72.67
780.931	74.06
781.108	74.25
781.286	73.01
781.463	73.4
781.64	72.87
781.818	71.95
781.995	72.34
782.172	72.48
782.35	71.73
782.527	73.91
782.704	74.25
782.882	74.27
783.059	75.52
783.236	77.13
783.413	76.9
783.59	75.73
783.768	74.26
783.945	74.86
784.122	74.51
784.299	73.52
784.476	72.75
784.653	72.09
784.83	72.06
785.007	72.53
785.184	70.78
785.361	70.38
785.538	71.72
785.715	70.37
785.892	70.95
786.069	71.31
786.246	69.81
786.423	71.05
786.6	71.23
786.776	69.95
786.953	70.74
787.13	71.42
787.307	72.11
787.484	73.18
787.66	72.5
787.837	73.02
788.014	73.97
788.191	72.46
788.367	71.22
788.544	72.84
788.721	73.94
788.897	75.95
789.074	73.91
789.25	74.24
789.427	74.69
789.603	78.02
789.78	77.9
789.956	74.49
790.133	73.07
790.309	75.25
790.486	75.34
790.662	76.78
790.839	74.41
791.015	72.7
791.192	74.34
791.368	76.12
791.544	76.36
791.721	74.8
791.897	73.13
792.073	71.93
792.249	72.8
792.426	73.94
792.602	70.17
792.778	67.7
792.954	68.15
793.13	70.37
793.307	70.42
793.483	69.26
793.659	68.97
793.835	70.06
794.011	70.36
794.187	67.01
794.363	65.74
794.539	65.7
794.715	63.83
794.891	61.1
795.067	61.91
795.243	62.45
795.419	66.36
795.595	64.42
795.771	65.92
795.947	67.61
796.122	68.03
796.298	67.53
796.474	67.76
796.65	67.41
796.826	71.4
797.001	71.45
797.177	70.7
797.353	74.44
797.529	73.81
797.704	74.6
797.88	74.09
798.056	73.13
798.231	72.93
798.407	74.24
798.582	72.38
798.758	72.19
798.934	69.14
799.109	65.49
799.285	66.95
799.46	67.03
799.636	65.58
799.811	67.06
799.986	68.49
800.162	70.98
800.337	75.04
800.513	73.23
800.688	74.9
800.863	76.01
801.039	71.66
801.214	71.93
801.389	72.12
801.565	76.87
801.74	75.72
801.915	71.75
802.09	71.26
802.265	72.97
802.441	71.61
802.616	71.8
802.791	68.9
802.966	68.44
803.141	66.9
803.316	69.01
803.491	67.26
803.666	69.11
803.841	66.78
804.016	66.21
804.191	65.86
804.366	70.02
804.541	67.76
804.716	66.52
804.891	67.95
805.066	70.1
805.241	64.39
805.416	62.21
805.591	64.49
805.765	67.23
805.94	71.73
806.115	65.29
806.29	64.6
806.464	67.96
806.639	69.61
806.814	61.96
806.989	63.01
807.163	62.55
807.338	61.72
807.512	58.3
807.687	57.76
807.862	57.96
808.036	59.38
808.211	56.32
808.385	55.51
808.56	60.84
808.734	65.15
808.909	63.43
809.083	66.78
809.258	74.13
809.432	73.48
809.606	74.88
809.781	72.08
809.955	72.9
810.13	77.83
810.304	70.86
810.478	69.04
810.652	72.47
810.827	69.31
811.001	70.82
811.175	67.29
811.349	65.21
811.524	66.1
811.698	64.2
811.872	62.39
812.046	63.49
812.22	60.14
812.394	61.82
812.568	64.46
812.742	64.04
812.916	61.76
813.09	57.34
813.264	58.89
813.438	67.06
813.612	68.64
813.786	71.38
813.96	73.68
814.134	77.54
814.308	80.74
814.482	76.1
814.656	69.15
814.83	68.78
815.003	66.56
815.177	66.17
815.351	65.26
815.525	60.82
815.698	61.28
815.872	59.02
816.046	56.74
816.219	54.27
816.393	50.16
816.567	45.84
816.74	53.25
816.914	57.21
817.088	58.11
817.261	61.13
817.435	58.59
817.608	63.18
817.782	67.01
817.955	62.46
818.129	58.1
818.302	63.25
818.475	61.54
818.649	58.82
818.822	60.51
818.996	58.89
819.169	56.57
819.342	56.31
819.516	58.71
819.689	56.73
819.862	59.86
820.035	53.4
820.209	54.44
820.382	53.71
820.555	56.55
820.728	47.38
820.901	44.74
821.075	49.31
821.248	54.01
821.421	51.04
821.594	52.87
821.767	50.81
821.94	50.04
822.113	55.97
822.286	56.68
822.459	61.05
822.632	61.67
822.805	63.06
822.978	55.95
823.151	58.58
823.324	50.81
823.496	33.67
823.669	36.89
823.842	42.23
824.015	37.88
824.188	43.11
824.361	46.74
824.533	53.01
824.706	63.77
824.879	55.8
825.051	60.53
825.224	67.63
825.397	67.84
825.569	68.85
825.742	71
825.915	74.11
826.087	70.67
826.26	64.03
826.432	66.35
826.605	67.94
826.777	59.76
826.95	52.02
827.122	52.12
827.295	53.05
827.467	48.96
827.64	34.25
827.812	36.84
827.984	49.3
828.157	54.86
828.329	51.51
828.501	57.57
828.674	60.27
828.846	70.55
829.018	65.98
829.19	55.37
829.363	55.25
829.535	55.6
829.707	43.71
829.879	43.75
830.051	45
830.223	39.94
830.395	36.12
830.568	39.76
830.74	42.3
830.912	55.86
831.084	57.13
831.256	48.54
831.428	51.09
831.6	56.71
831.772	54.82
831.943	56.85
832.115	54.38
832.287	49.23
832.459	56.15
832.631	56.7
832.803	64
832.975	59.18
833.146	52.63
833.318	57.38
833.49	74.59
833.662	71.86
833.833	76.45
834.005	72.91
834.177	75.25
834.348	75.24
834.52	66.34
834.692	57.18
834.863	60.27
835.035	54.94
835.206	52.69
835.378	51.71
835.549	58.97
835.721	61.49
835.892	61.74
836.064	70.66
836.235	81.97
836.407	82.94
836.578	80.06
836.749	72.73
836.921	69.25
837.092	66.52
837.264	52.36
837.435	36.02
837.606	35.34
837.777	31.66
837.949	33.5
838.12	39.65
838.291	48.35
838.462	49.76
838.633	46.71
838.805	51.91
838.976	56.73
839.147	55.37
839.318	45.57
839.489	34.55
839.66	42.55
839.831	37.9
840.002	34.4
840.173	27.59
840.344	45.15
840.515	53.2
840.686	57.63
840.857	44.29
841.028	48.42
841.199	46.11
841.369	40.8
841.54	37.1
841.711	36.93
841.882	28.25
842.053	26.49
842.223	35.25
842.394	44.31
842.565	63.67
842.736	50.42
842.906	55.98
843.077	63.67
843.248	72.61
843.418	68.01
843.589	70.55
843.759	57.9
843.93	68.53
844.101	66.54
844.271	74.34
844.442	71.52
844.612	67.28
844.783	36.3
844.953	51.69
845.123	51.99
845.294	51.93
845.464	47.49
845.635	58.07
845.805	64.81
845.975	76.72
846.146	73.19
846.316	82.97
846.486	71.72
846.656	81.64
846.827	60.08
846.997	73.09
847.167	76.08
847.337	75.75
847.507	70.16
847.677	81.74
847.848	75.35
848.018	73.35
848.188	48.58
848.358	45.71
848.528	50.92
848.698	28.83
848.868	3.56
849.038	8.6
849.208	25.09
849.378	28.19
849.548	35.87
849.718	20.86
849.887	32.5
850.057	42.24
850.227	35.66
850.397	19.33
850.567	30.97
850.737	19.27
850.906	11.79
851.076	12.07
851.246	19.27
851.415	27.46
851.585	30.25
851.755	23.93
851.924	46.02
852.094	51.2
852.264	47.25
852.433	43.11
852.603	40.16
852.772	48.03
852.942	47.09
853.111	39.84
853.281	40.95
853.45	44.92
853.62	28.61
853.789	22.4
853.959	15.26
854.128	3.5
854.297	-7.66
854.467	3.76
854.636	22.92
854.805	38.6
854.975	51.75
855.144	65.74
855.313	85.43
855.482	82.86
855.652	85.4
855.821	79.13
855.99	100.48
856.159	88.01
856.328	63.21
856.497	44.76
856.667	55.39
856.836	46.14
857.005	34.8
857.174	39.23
857.343	49.55
857.512	49.06
857.681	51.15
857.85	38
858.019	56.75
858.188	62.37
858.356	25.23
858.525	14.97
858.694	27.06
858.863	32.48
859.032	34.73
859.201	11.26
859.369	15.95
859.538	18.92
859.707	21.02
859.876	24.93
860.044	29.52
860.213	33.25
860.382	47.73
860.55	86.77
860.719	89.06
860.888	82.5
861.056	78.69
861.225	87.39
861.393	98.52
861.562	68.06
861.73	43.36
861.899	31.28
862.067	62.82
862.236	67.24
862.404	57.18
862.572	52.36
862.741	69.97
862.909	71.76
863.078	73.75
863.246	74.63
863.414	66.3
863.582	61.58
863.751	39.15
863.919	28.55
864.087	27.74
864.255	36.22
864.424	16.07
864.592	23.39
864.76	37.63
864.928	43.01
865.096	35.88
865.264	39.07
865.432	27.76
865.6	19.9
865.768	0.41
865.936	-13.19
866.104	-18.53
866.272	4.45
866.44	-57.11
866.608	-37.04
866.776	3.96
866.944	7.7
867.112	-9.18
867.28	-36.86
867.448	-4.54
867.615	15.45
867.783	-19.95
867.951	-8.99
868.119	33.5
868.286	42.87
868.454	57.02
868.622	57.5
868.789	68.02
868.957	91.04
869.125	74.37
869.292	66.31
869.46	61.37
869.627	46.06
869.795	23.01
869.963	17.14
870.13	11.53
870.298	12.07
870.465	-47.56
870.632	-31.85
870.8	-18.2
870.967	-9.49
871.135	0.59
871.302	9.6
871.469	10.5
871.637	26.1
871.804	21.3
871.971	27.46
872.139	31.65
872.306	20.49
872.473	-11.55
872.64	-10.91
872.807	-22.89
872.975	-18.2
873.142	-44.37
873.309	-57.67
873.476	-9.34
873.643	76.82
873.81	14.94
873.977	-19.3
874.144	-43.31
874.311	-46.89
874.478	-93.9
874.645	-121.36
874.812	-85.33
874.979	-101.57
875.146	-120.02
875.313	-119.58
875.48	-9
875.647	50
875.813	51.59
875.98	46.83
876.147	70.26
876.314	77.33
876.481	49
876.647	25.34
876.814	28.3
876.981	9.07
877.147	2.67
877.314	-3.72
877.481	2.25
877.647	7.13
877.814	0.05
877.98	14.18
878.147	58.76
878.314	55.19
878.48	42.73
878.647	80.34
878.813	91.4
878.979	106.64
879.146	61.4
879.312	55.85
879.479	56.63
879.645	37.22
879.811	0.25
879.978	6.73
880.144	7.74
880.31	-25.22
880.477	-54.79
880.643	-78.14
880.809	52.33
880.975	44.85
881.142	13.78
881.308	-3.78
881.474	99.19
881.64	58.5
881.806	30.01
881.972	25.33
882.138	13.98
882.304	-54.37
882.47	-28.22
882.636	-94.07
882.802	-49.73
882.968	-128.89
883.134	-327.3
883.3	-102.43
883.466	23.04
883.632	16.47
883.798	9.77
883.964	8.96
884.129	36.49
884.295	33.35
884.461	17.7
884.627	-16.45
884.793	34.49
884.958	34.39
885.124	-10.92
885.29	-8.61
885.455	6.26
885.621	0.36
885.787	-11.09
885.952	-43.08
886.118	-33.48
886.283	0.2
886.449	-22.35
886.614	-9.65
886.78	33.42
886.945	24.05
887.111	39.92
887.276	31.78
887.442	29.05
887.607	45.13
887.773	15.52
887.938	15.37
888.103	50.44
888.269	47.46
888.434	45.17
888.599	54.92
888.764	41.73
888.93	46.68
889.095	17.8
889.26	29.54
889.425	38.08
889.59	19.08
889.756	-8.71
889.921	-9.72
890.086	-11.92
890.251	-11.92
890.416	-93.11
890.581	-90.61
890.746	-97.89
890.911	-160.85
891.076	-213.96
891.241	-313.53
891.406	-110.33
891.571	-55.52
891.736	-56.13
891.901	-10.86
892.065	27.01
892.23	12.55
892.395	16.21
892.56	10.11
892.725	-13.48
892.889	-33.18
893.054	-88.45
893.219	-147.18
893.384	-202.6
893.548	-443.33
893.713	906.93
893.878	380.98
