Data from Ofra_2a_PS_2GT3_Reflection_3.txt Node
Date: Tue Jul 20 09:40:52 EDT 2021
User: Adam
Spectrometer: FLMT01687
Trigger mode: 0
Integration Time (sec): 9.450000E-1
Scans to average: 3
Electric dark correction enabled: true
Nonlinearity correction enabled: false
Boxcar width: 3
XAxis mode: Wavelengths
Number of Pixels in Spectrum: 3648
>>>>>Begin Spectral Data<<<<<
179.494	659.17
179.716	403.7
179.937	450.55
180.158	1541.41
180.38	-578.49
180.601	-96.84
180.823	-31.1
181.044	28.88
181.265	24.64
181.486	75.82
181.708	-454.35
181.929	-38.84
182.15	-285.23
182.372	19.31
182.593	-34.08
182.814	352.4
183.035	312.6
183.257	162.77
183.478	108.28
183.699	133.39
183.92	94.16
184.141	89.32
184.363	78.07
184.584	55.39
184.805	64.33
185.026	75.64
185.247	45.56
185.468	47.02
185.689	28.34
185.91	27.83
186.132	47.67
186.353	37.2
186.574	37.93
186.795	33.96
187.016	44.17
187.237	62.98
187.458	70.8
187.679	55.87
187.9	60.18
188.121	62.19
188.342	77.11
188.563	68.08
188.784	60.74
189.005	67.17
189.226	64.72
189.447	52.45
189.667	44.02
189.888	44.91
190.109	50.1
190.33	46.93
190.551	40.16
190.772	33.17
190.993	49.64
191.214	60.96
191.434	37.96
191.655	41.65
191.876	46.73
192.097	43.92
192.318	53.61
192.538	50.79
192.759	54.55
192.98	62.62
193.201	78.96
193.421	83.49
193.642	87.96
193.863	101.75
194.083	95.71
194.304	73.57
194.525	79.78
194.745	50.58
194.966	44.5
195.187	60.56
195.407	55.1
195.628	57.02
195.848	72.25
196.069	76.77
196.29	75.89
196.51	86.96
196.731	69.3
196.951	73.98
197.172	69.04
197.392	36.67
197.613	24.51
197.833	33.37
198.054	30.94
198.274	20.23
198.495	40.16
198.715	36.3
198.936	77.41
199.156	73.41
199.377	74.52
199.597	69.15
199.817	80.06
200.038	60.51
200.258	67.71
200.479	65.67
200.699	79.77
200.919	61.96
201.14	66.16
201.36	64.68
201.58	56.63
201.801	52.22
202.021	52.96
202.241	47.45
202.461	63
202.682	64.36
202.902	57.55
203.122	52.97
203.342	65.61
203.563	57.25
203.783	52.36
204.003	46.65
204.223	46.85
204.443	50.07
204.663	55.47
204.884	42.57
205.104	52.6
205.324	74.77
205.544	69.96
205.764	72.91
205.984	64.98
206.204	70.65
206.424	65.44
206.644	65.38
206.864	55.6
207.084	60.54
207.304	56.44
207.525	52.6
207.745	52.35
207.964	54.87
208.184	35.96
208.404	34.73
208.624	38.81
208.844	28.51
209.064	31.52
209.284	36.8
209.504	29.18
209.724	18.45
209.944	10.7
210.164	11
210.384	19.9
210.604	29.75
210.823	17.54
211.043	32.64
211.263	55.35
211.483	51.25
211.703	59.65
211.922	59.25
212.142	58.84
212.362	66.28
212.582	63.24
212.801	53.96
213.021	63.04
213.241	49.62
213.461	46.08
213.68	53.11
213.9	50.38
214.12	51.22
214.339	53.84
214.559	53.31
214.779	61.66
214.998	56.51
215.218	49.64
215.438	54.96
215.657	54.28
215.877	56.93
216.096	54.96
216.316	52.66
216.535	67.35
216.755	60.68
216.974	59.85
217.194	67.32
217.413	74.12
217.633	65.27
217.852	65.31
218.072	51.89
218.291	65.19
218.511	52.03
218.73	50.08
218.95	37.1
219.169	49.59
219.389	38.81
219.608	37.78
219.827	35.9
220.047	56.73
220.266	52.47
220.485	60.44
220.705	32.29
220.924	33.2
221.143	31.64
221.363	16.05
221.582	0.39
221.801	-4.97
222.021	-10.36
222.24	4.63
222.459	12.18
222.678	12.02
222.897	13.56
223.117	23.59
223.336	22.86
223.555	20.9
223.774	31.4
223.993	34.98
224.213	44.23
224.432	68.89
224.651	76.59
224.87	82.7
225.089	94.17
225.308	80.43
225.527	82.22
225.746	74.43
225.965	59.35
226.184	55.37
226.404	42.56
226.623	41.53
226.842	50.78
227.061	60.39
227.28	72.84
227.499	70.54
227.718	67.96
227.936	64.8
228.155	58.66
228.374	50.47
228.593	33.98
228.812	30.07
229.031	23.5
229.25	33.75
229.469	45.01
229.688	49.85
229.907	53.84
230.125	63.54
230.344	67.49
230.563	76.37
230.782	63.66
231.001	61.99
231.22	55.04
231.438	50.19
231.657	49.15
231.876	43.07
232.095	23.13
232.313	41.11
232.532	37
232.751	47.8
232.969	53.7
233.188	60.03
233.407	60.09
233.625	66.42
233.844	51.32
234.063	56.1
234.281	47.97
234.5	50.6
234.719	40.14
234.937	37.68
235.156	38.54
235.374	41.54
235.593	36.83
235.811	23.04
236.03	13.17
236.249	32.75
236.467	43.83
236.686	36.61
236.904	35.21
237.123	37.92
237.341	35.5
237.559	34.96
237.778	31.88
237.996	26.79
238.215	24.79
238.433	33.23
238.652	27.65
238.87	32.1
239.088	21.29
239.307	20.19
239.525	19.92
239.743	19.99
239.962	25.65
240.18	47.53
240.398	52.91
240.617	67.32
240.835	71.04
241.053	71.55
241.271	81.18
241.49	64.02
241.708	59.06
241.926	52.66
242.144	43.26
242.363	35.02
242.581	37.62
242.799	20.52
243.017	23.15
243.235	11.1
243.453	12.66
243.672	17.48
243.89	26.9
244.108	21.51
244.326	34.98
244.544	44.54
244.762	47.81
244.98	46.27
245.198	38.82
245.416	39.68
245.634	57.71
245.852	45.65
246.07	36.07
246.288	27.24
246.506	42.03
246.724	54.26
246.942	57.89
247.16	38.05
247.378	39.21
247.596	49.4
247.814	34.96
248.032	38.03
248.25	45.51
248.468	37.21
248.685	52.68
248.903	43.6
249.121	42
249.339	52.8
249.557	39.06
249.775	20.26
249.992	21.12
250.21	10.63
250.428	21.2
250.646	23.75
250.863	22.65
251.081	26.62
251.299	55.44
251.517	62.11
251.734	65.82
251.952	64.06
252.17	62.56
252.387	62.7
252.605	68.96
252.823	36.32
253.04	41.44
253.258	44.88
253.475	40.34
253.693	46.33
253.911	48.51
254.128	42.19
254.346	45.22
254.563	44.64
254.781	47.32
254.998	42.63
255.216	35.75
255.433	30.84
255.651	27.59
255.868	27.42
256.086	25.85
256.303	27.25
256.521	14.2
256.738	12.43
256.956	15.07
257.173	24.98
257.39	35.21
257.608	33.75
257.825	24.32
258.043	39.32
258.26	39.25
258.477	43.89
258.695	40.31
258.912	37.43
259.129	31.37
259.346	36.97
259.564	30.15
259.781	33.69
259.998	28.83
260.216	38.91
260.433	37.9
260.65	56.98
260.867	47.29
261.084	45.8
261.302	54.31
261.519	48.54
261.736	39.5
261.953	43.96
262.17	25.61
262.387	35.01
262.604	24.26
262.822	12.99
263.039	26.19
263.256	18.79
263.473	14.71
263.69	16.9
263.907	13.64
264.124	19.53
264.341	15.95
264.558	13.27
264.775	32.4
264.992	29.65
265.209	39.23
265.426	42.12
265.643	45.69
265.86	45.15
266.077	42.74
266.294	37.01
266.51	41.59
266.727	21.03
266.944	24.22
267.161	24.97
267.378	32.52
267.595	32.98
267.812	22.9
268.028	21.25
268.245	35
268.462	30.23
268.679	23.62
268.896	21.79
269.112	36.11
269.329	41.87
269.546	33.44
269.763	36.42
269.979	33.52
270.196	41.87
270.413	40.89
270.629	33.26
270.846	30.92
271.063	36.51
271.279	31.35
271.496	30.87
271.712	17.16
271.929	27.32
272.146	29.71
272.362	22.35
272.579	24
272.795	26.37
273.012	24.2
273.228	35.68
273.445	33.47
273.661	28.6
273.878	43.49
274.094	40.54
274.311	37.23
274.527	39.47
274.744	36.24
274.96	28.55
275.177	38.23
275.393	26.49
275.609	35.82
275.826	38.42
276.042	42.03
276.259	48.25
276.475	53.04
276.691	50.03
276.908	55.01
277.124	53.98
277.34	54.99
277.557	58.85
277.773	56.27
277.989	54.27
278.205	43
278.422	36.14
278.638	34.99
278.854	37.5
279.07	27.74
279.286	25.34
279.503	30.92
279.719	41.1
279.935	36.34
280.151	42.22
280.367	37.32
280.583	37.92
280.799	42.35
281.016	45.4
281.232	47.81
281.448	51.46
281.664	43.53
281.88	47.1
282.096	40.51
282.312	38.34
282.528	25.37
282.744	23.01
282.96	26.23
283.176	34.8
283.392	46.21
283.608	53.08
283.824	41.22
284.04	44.44
284.256	47.3
284.471	45.79
284.687	36.15
284.903	34.56
285.119	28.81
285.335	39.6
285.551	48.25
285.767	43.36
285.982	42.77
286.198	38.87
286.414	33.3
286.63	40.32
286.846	32.98
287.061	30.51
287.277	41.03
287.493	45.55
287.709	55
287.924	60.51
288.14	58.29
288.356	72.43
288.571	65.58
288.787	53.32
289.003	55.97
289.218	54.84
289.434	47.63
289.65	56.64
289.865	51.53
290.081	48.29
290.296	46.87
290.512	43.6
290.727	55.59
290.943	41.18
291.159	24.12
291.374	26.39
291.59	27.18
291.805	33.85
292.021	24.84
292.236	15.18
292.451	26.43
292.667	45.17
292.882	43.9
293.098	40.57
293.313	30.52
293.529	27.09
293.744	28.88
293.959	42.71
294.175	29.67
294.39	35.34
294.605	39.69
294.821	38.1
295.036	52.03
295.251	50.72
295.467	37.97
295.682	39.81
295.897	29.88
296.112	41.07
296.328	52.66
296.543	46.21
296.758	49.12
296.973	56.02
297.188	62.19
297.404	62.86
297.619	70.65
297.834	61.66
298.049	63.38
298.264	47.26
298.479	38.1
298.694	42.32
298.909	41.08
299.125	31.74
299.34	24.2
299.555	28.2
299.77	34.52
299.985	37.79
300.2	29.83
300.415	34.03
300.63	27.84
300.845	32.53
301.06	30.34
301.275	38
301.49	37.71
301.704	41.06
301.919	37.4
302.134	31.05
302.349	29.1
302.564	28.97
302.779	22.74
302.994	24.27
303.209	13.19
303.423	21.34
303.638	44.07
303.853	49.31
304.068	45.53
304.283	43.71
304.497	43.49
304.712	43.11
304.927	35.13
305.142	31.77
305.356	33.35
305.571	37.03
305.786	29.15
306	27.42
306.215	28.62
306.43	37.18
306.644	41.1
306.859	36.45
307.074	28.84
307.288	37.39
307.503	39.21
307.717	38.91
307.932	38.4
308.147	42.37
308.361	34.86
308.576	38.66
308.79	38.74
309.005	38.36
309.219	46.53
309.434	46.5
309.648	28.21
309.863	38.21
310.077	42.28
310.292	39.78
310.506	49.06
310.72	38.82
310.935	37.71
311.149	44.66
311.364	46.45
311.578	47.57
311.792	40.52
312.007	31.13
312.221	41.34
312.435	43.73
312.649	61.55
312.864	50.61
313.078	38.14
313.292	43.86
313.507	44.99
313.721	25.48
313.935	45.66
314.149	38.23
314.363	50.51
314.578	74.6
314.792	73.25
315.006	80.64
315.22	84.21
315.434	66.3
315.648	71.34
315.862	66.96
316.077	57.45
316.291	59.59
316.505	49.19
316.719	36.29
316.933	41.97
317.147	32.95
317.361	18.6
317.575	7.94
317.789	12.18
318.003	17.55
318.217	36.3
318.431	36.91
318.645	42.26
318.859	38.15
319.073	33.06
319.287	33.96
319.5	35.66
319.714	34.47
319.928	39.46
320.142	34.32
320.356	52.4
320.57	53.35
320.784	58.71
320.997	59.88
321.211	56.05
321.425	43.08
321.639	44.32
321.853	36.21
322.066	36.2
322.28	34.34
322.494	25.88
322.707	18.06
322.921	21.72
323.135	21.38
323.349	26.6
323.562	28.93
323.776	26.03
323.989	36.36
324.203	47.62
324.417	48.02
324.63	41.73
324.844	26.87
325.057	29.35
325.271	26.01
325.485	19.29
325.698	13.69
325.912	18.07
326.125	22.28
326.339	33.4
326.552	41.65
326.766	46.98
326.979	49.11
327.193	48.1
327.406	45.56
327.619	42.23
327.833	40.2
328.046	26.54
328.26	23.96
328.473	22.86
328.686	25.62
328.9	24.96
329.113	35.95
329.326	38.99
329.54	39.01
329.753	41.02
329.966	32.87
330.179	37.06
330.393	41.65
330.606	41.3
330.819	41.21
331.032	48.95
331.246	49.88
331.459	55.73
331.672	49.99
331.885	45.61
332.098	47.07
332.311	31.77
332.525	24.88
332.738	21.67
332.951	19.44
333.164	11.9
333.377	4.81
333.59	11.67
333.803	25.6
334.016	29.64
334.229	30.57
334.442	44.52
334.655	61.23
334.868	63.05
335.081	61.98
335.294	65.05
335.507	62.93
335.72	57.47
335.933	51.17
336.146	48.08
336.359	42.73
336.572	38.04
336.785	39.1
336.997	30.38
337.21	32.45
337.423	30.86
337.636	28.46
337.849	25.77
338.062	23.28
338.274	28.53
338.487	24.81
338.7	34.78
338.913	36.5
339.125	34.37
339.338	38.18
339.551	38.49
339.763	29.69
339.976	34.51
340.189	26.81
340.402	27.92
340.614	35.32
340.827	31.63
341.039	34.02
341.252	32.6
341.465	28.76
341.677	25.28
341.89	27.76
342.102	29.28
342.315	34.08
342.527	26.75
342.74	30.53
342.952	40.16
343.165	53.46
343.377	53.79
343.59	44.58
343.802	50.02
344.015	52.8
344.227	50.33
344.44	40.29
344.652	37.67
344.864	37.36
345.077	39.9
345.289	34.16
345.502	38.14
345.714	34.19
345.926	38.63
346.139	36.07
346.351	20.79
346.563	26.01
346.775	26.27
346.988	20.55
347.2	22.75
347.412	27.15
347.624	23.62
347.837	31.32
348.049	30.03
348.261	28.32
348.473	25.13
348.685	30.02
348.897	28.37
349.11	35.09
349.322	32.35
349.534	35.8
349.746	47.45
349.958	46.52
350.17	54.25
350.382	43.89
350.594	42.98
350.806	48.66
351.018	46.41
351.23	40.04
351.442	42.76
351.654	41.37
351.866	48.65
352.078	44.3
352.29	54.64
352.502	53.98
352.714	58.2
352.926	56.65
353.138	55.89
353.35	43.09
353.561	39.26
353.773	23.72
353.985	25.22
354.197	19.35
354.409	22.83
354.621	22.95
354.832	29.04
355.044	41.78
355.256	44.78
355.468	41.41
355.679	45.42
355.891	43.06
356.103	39.38
356.314	42.78
356.526	33.4
356.738	25.51
356.949	21.73
357.161	17.97
357.373	16.75
357.584	25.46
357.796	22.77
358.008	23.54
358.219	42.34
358.431	46.46
358.642	47.5
358.854	47.35
359.065	44.04
359.277	42.25
359.488	38.56
359.7	32.05
359.911	35.1
360.123	35.38
360.334	33.04
360.546	25.1
360.757	29.45
360.969	35.81
361.18	27.66
361.391	24.09
361.603	26.11
361.814	28.27
362.025	32.9
362.237	33.72
362.448	33.64
362.659	34.21
362.871	38.36
363.082	38.84
363.293	37
363.504	38.89
363.716	38.12
363.927	39.94
364.138	46.07
364.349	47.45
364.56	42.37
364.772	48.34
364.983	40.66
365.194	43.57
365.405	46.49
365.616	36.38
365.827	31.36
366.038	41.69
366.25	32.02
366.461	36.4
366.672	30.83
366.883	28.8
367.094	33.4
367.305	32.21
367.516	29.27
367.727	32.32
367.938	34.18
368.149	36.73
368.36	33.39
368.571	36.85
368.781	33.68
368.992	31.82
369.203	33.03
369.414	28.11
369.625	19.25
369.836	19.47
370.047	11.21
370.258	11.13
370.468	4.37
370.679	2
370.89	23.26
371.101	26.99
371.312	21.24
371.522	25.48
371.733	21.91
371.944	24.07
372.155	14.05
372.365	-2.43
372.576	-1.19
372.787	2.09
372.997	3.04
373.208	16.42
373.419	21.01
373.629	32.59
373.84	30.76
374.05	33.35
374.261	31.57
374.472	25.6
374.682	13.85
374.893	9.24
375.103	12.04
375.314	13.27
375.524	11.87
375.735	24.12
375.945	28.89
376.156	33.12
376.366	35.84
376.577	38.6
376.787	38
376.997	41.63
377.208	31.99
377.418	29.67
377.629	31.85
377.839	36.99
378.049	33.64
378.26	44.18
378.47	46.75
378.68	41.97
378.89	39.35
379.101	32.29
379.311	23.1
379.521	18.56
379.732	3.2
379.942	1.17
380.152	11.15
380.362	19.68
380.572	24.13
380.783	30.06
380.993	33.3
381.203	37.47
381.413	35.29
381.623	33.02
381.833	25.25
382.043	22.59
382.253	19.23
382.463	24.9
382.674	27.87
382.884	22
383.094	20.64
383.304	20.73
383.514	22.9
383.724	21.52
383.934	16.45
384.144	14.24
384.353	20.87
384.563	17.26
384.773	18.21
384.983	17.19
385.193	20.34
385.403	22.95
385.613	19.69
385.823	16.63
386.033	16.54
386.242	14.49
386.452	13.23
386.662	11.73
386.872	11.38
387.082	12.91
387.291	14.53
387.501	19.03
387.711	20.38
387.921	19.37
388.13	18.02
388.34	13.59
388.55	15.14
388.759	14.24
388.969	8.49
389.179	10.57
389.388	12.99
389.598	9.98
389.807	9.5
390.017	9.61
390.227	7.2
390.436	9.73
390.646	8.15
390.855	7.01
391.065	8.29
391.274	8.48
391.484	6.92
391.693	8.32
391.903	6.57
392.112	5.03
392.322	5.29
392.531	6.43
392.74	5.96
392.95	7.15
393.159	7.13
393.369	7.25
393.578	8.34
393.787	8.59
393.997	8.34
394.206	8.32
394.415	7.66
394.625	6.18
394.834	5.65
395.043	5.37
395.252	4.58
395.462	4.44
395.671	5.47
395.88	5.55
396.089	6.39
396.298	6.88
396.508	6.41
396.717	6.17
396.926	5.84
397.135	4.99
397.344	4.25
397.553	3.89
397.762	3.86
397.971	3.9
398.181	3.48
398.39	3.49
398.599	3.44
398.808	3.78
399.017	4.11
399.226	4.05
399.435	4.21
399.644	4.4
399.853	4.36
400.062	4.44
400.27	4.54
400.479	4.4
400.688	4.42
400.897	4.46
401.106	4.45
401.315	4.31
401.524	4.48
401.733	4.63
401.941	4.52
402.15	4.28
402.359	4.18
402.568	4.21
402.777	4.15
402.985	4.01
403.194	3.76
403.403	3.64
403.612	3.73
403.82	3.71
404.029	3.71
404.238	3.79
404.446	3.64
404.655	3.49
404.864	3.48
405.072	3.48
405.281	3.34
405.489	3.34
405.698	3.31
405.906	3.36
406.115	3.45
406.324	3.41
406.532	3.45
406.741	3.57
406.949	3.51
407.158	3.51
407.366	3.5
407.574	3.53
407.783	3.48
407.991	3.36
408.2	3.31
408.408	3.33
408.617	3.27
408.825	3.27
409.033	3.2
409.242	3.18
409.45	3.13
409.658	3.09
409.867	3.06
410.075	3.08
410.283	3
410.491	2.93
410.7	3.01
410.908	3.08
411.116	3.04
411.324	3.08
411.533	2.99
411.741	2.94
411.949	3.06
412.157	3.02
412.365	3
412.573	3.01
412.781	3
412.99	3.05
413.198	3.18
413.406	3.06
413.614	3.09
413.822	3.09
414.03	3.05
414.238	3.07
414.446	2.98
414.654	2.97
414.862	2.96
415.07	2.92
415.278	2.83
415.486	2.99
415.694	2.94
415.902	2.96
416.109	2.93
416.317	2.93
416.525	3
416.733	3.11
416.941	2.95
417.149	2.99
417.357	3.04
417.564	3.05
417.772	3.08
417.98	3.01
418.188	2.87
418.395	2.97
418.603	2.82
418.811	2.74
419.019	2.74
419.226	2.82
419.434	2.84
419.642	2.88
419.849	2.83
420.057	2.95
420.265	3.04
420.472	2.96
420.68	2.82
420.887	2.79
421.095	2.87
421.302	2.93
421.51	2.87
421.717	2.89
421.925	2.8
422.132	2.79
422.34	2.78
422.547	2.63
422.755	2.49
422.962	2.45
423.17	2.34
423.377	2.55
423.585	2.57
423.792	2.56
423.999	2.62
424.207	2.53
424.414	2.58
424.621	2.59
424.829	2.45
425.036	2.33
425.243	2.36
425.451	2.4
425.658	2.55
425.865	2.41
426.072	2.48
426.28	2.45
426.487	2.58
426.694	2.58
426.901	2.44
427.108	2.43
427.315	2.56
427.523	2.55
427.73	2.63
427.937	2.58
428.144	2.6
428.351	2.73
428.558	2.67
428.765	2.59
428.972	2.55
429.179	2.44
429.386	2.5
429.593	2.42
429.8	2.41
430.007	2.51
430.214	2.59
430.421	2.66
430.628	2.69
430.835	2.65
431.042	2.7
431.249	2.67
431.456	2.61
431.662	2.54
431.869	2.56
432.076	2.62
432.283	2.5
432.49	2.49
432.697	2.5
432.903	2.6
433.11	2.69
433.317	2.73
433.524	2.6
433.73	2.72
433.937	2.72
434.144	2.72
434.35	2.67
434.557	2.58
434.764	2.47
434.97	2.6
435.177	2.56
435.384	2.61
435.59	2.64
435.797	2.65
436.003	2.71
436.21	2.74
436.416	2.72
436.623	2.78
436.829	2.77
437.036	2.76
437.242	2.76
437.449	2.74
437.655	2.74
437.862	2.8
438.068	2.84
438.275	2.84
438.481	2.89
438.687	2.97
438.894	2.97
439.1	3.03
439.307	3.02
439.513	2.98
439.719	2.98
439.926	2.97
440.132	2.89
440.338	2.95
440.544	2.9
440.751	2.93
440.957	2.88
441.163	2.9
441.369	2.86
441.575	2.85
441.782	2.8
441.988	2.79
442.194	2.86
442.4	2.97
442.606	3.03
442.812	3.04
443.018	3.05
443.224	3.09
443.431	3.16
443.637	3.05
443.843	3.06
444.049	2.98
444.255	2.98
444.461	3.03
444.667	3.01
444.873	2.96
445.079	3
445.284	2.9
445.49	2.9
445.696	2.97
445.902	2.95
446.108	2.97
446.314	3.04
446.52	3.06
446.726	3.11
446.931	3.18
447.137	3.13
447.343	3.15
447.549	3.12
447.755	3.1
447.96	3.1
448.166	3.13
448.372	3.14
448.578	3.16
448.783	3.08
448.989	3.13
449.195	3.11
449.4	3.07
449.606	3.01
449.812	3.03
450.017	3.06
450.223	3.13
450.428	3.12
450.634	3.19
450.84	3.21
451.045	3.25
451.251	3.29
451.456	3.24
451.662	3.22
451.867	3.24
452.073	3.17
452.278	3.22
452.483	3.22
452.689	3.19
452.894	3.16
453.1	3.13
453.305	3.12
453.51	3.16
453.716	3.11
453.921	3.13
454.127	3.09
454.332	3.15
454.537	3.26
454.742	3.27
454.948	3.2
455.153	3.23
455.358	3.28
455.563	3.27
455.769	3.25
455.974	3.17
456.179	3.08
456.384	3.12
456.589	3.14
456.795	3.04
457	3.08
457.205	3.07
457.41	3.12
457.615	3.23
457.82	3.28
458.025	3.24
458.23	3.28
458.435	3.25
458.64	3.3
458.845	3.25
459.05	3.23
459.255	3.21
459.46	3.2
459.665	3.27
459.87	3.28
460.075	3.26
460.28	3.32
460.485	3.37
460.69	3.33
460.895	3.38
461.099	3.31
461.304	3.34
461.509	3.28
461.714	3.27
461.919	3.24
462.123	3.28
462.328	3.26
462.533	3.28
462.738	3.27
462.942	3.4
463.147	3.41
463.352	3.47
463.556	3.48
463.761	3.51
463.966	3.57
464.17	3.58
464.375	3.52
464.58	3.49
464.784	3.45
464.989	3.44
465.193	3.49
465.398	3.46
465.602	3.46
465.807	3.51
466.011	3.59
466.216	3.63
466.42	3.68
466.625	3.65
466.829	3.7
467.034	3.77
467.238	3.79
467.443	3.83
467.647	3.85
467.851	3.84
468.056	3.82
468.26	3.79
468.464	3.76
468.669	3.78
468.873	3.73
469.077	3.76
469.282	3.8
469.486	3.9
469.69	3.92
469.894	4.01
470.099	4.01
470.303	4
470.507	3.98
470.711	3.99
470.915	3.99
471.119	4.04
471.324	3.95
471.528	3.99
471.732	4.03
471.936	4.16
472.14	4.17
472.344	4.17
472.548	4.18
472.752	4.27
472.956	4.32
473.16	4.35
473.364	4.25
473.568	4.33
473.772	4.43
473.976	4.48
474.18	4.47
474.384	4.39
474.588	4.44
474.792	4.46
474.995	4.46
475.199	4.43
475.403	4.41
475.607	4.43
475.811	4.47
476.015	4.47
476.218	4.53
476.422	4.54
476.626	4.5
476.83	4.53
477.033	4.58
477.237	4.61
477.441	4.64
477.644	4.65
477.848	4.65
478.052	4.73
478.255	4.73
478.459	4.78
478.663	4.78
478.866	4.79
479.07	4.77
479.273	4.76
479.477	4.77
479.681	4.81
479.884	4.76
480.088	4.76
480.291	4.79
480.495	4.82
480.698	4.87
480.901	4.9
481.105	4.92
481.308	4.96
481.512	5.04
481.715	5.04
481.919	5.04
482.122	5.04
482.325	5.06
482.529	5.1
482.732	5.12
482.935	5.13
483.138	5.16
483.342	5.2
483.545	5.22
483.748	5.21
483.952	5.2
484.155	5.22
484.358	5.18
484.561	5.21
484.764	5.26
484.967	5.29
485.171	5.32
485.374	5.33
485.577	5.36
485.78	5.39
485.983	5.38
486.186	5.34
486.389	5.29
486.592	5.29
486.795	5.28
486.998	5.29
487.201	5.32
487.404	5.37
487.607	5.39
487.81	5.47
488.013	5.43
488.216	5.46
488.419	5.43
488.622	5.39
488.825	5.33
489.028	5.32
489.231	5.31
489.433	5.31
489.636	5.29
489.839	5.34
490.042	5.35
490.245	5.4
490.447	5.4
490.65	5.41
490.853	5.44
491.056	5.45
491.258	5.46
491.461	5.45
491.664	5.38
491.866	5.44
492.069	5.45
492.272	5.43
492.474	5.42
492.677	5.43
492.879	5.46
493.082	5.52
493.285	5.52
493.487	5.49
493.69	5.51
493.892	5.57
494.095	5.55
494.297	5.57
494.5	5.58
494.702	5.58
494.905	5.6
495.107	5.6
495.309	5.55
495.512	5.58
495.714	5.6
495.917	5.61
496.119	5.64
496.321	5.66
496.524	5.71
496.726	5.74
496.928	5.8
497.13	5.85
497.333	5.88
497.535	5.87
497.737	5.88
497.939	5.89
498.142	5.9
498.344	5.85
498.546	5.86
498.748	5.86
498.95	5.91
499.152	5.9
499.355	5.92
499.557	6.02
499.759	6.09
499.961	6.09
500.163	6.14
500.365	6.16
500.567	6.18
500.769	6.23
500.971	6.2
501.173	6.23
501.375	6.24
501.577	6.28
501.779	6.31
501.981	6.36
502.183	6.37
502.385	6.38
502.587	6.37
502.788	6.38
502.99	6.35
503.192	6.37
503.394	6.42
503.596	6.45
503.798	6.57
503.999	6.6
504.201	6.66
504.403	6.76
504.605	6.78
504.806	6.77
505.008	6.77
505.21	6.75
505.411	6.83
505.613	6.86
505.815	6.85
506.016	6.93
506.218	6.96
506.42	7.03
506.621	7.06
506.823	7.08
507.024	7.1
507.226	7.13
507.427	7.09
507.629	7.14
507.83	7.13
508.032	7.16
508.233	7.14
508.435	7.17
508.636	7.19
508.838	7.24
509.039	7.26
509.24	7.3
509.442	7.3
509.643	7.35
509.845	7.34
510.046	7.36
510.247	7.43
510.448	7.48
510.65	7.52
510.851	7.57
511.052	7.63
511.254	7.64
511.455	7.66
511.656	7.66
511.857	7.69
512.058	7.73
512.26	7.75
512.461	7.79
512.662	7.84
512.863	7.89
513.064	7.9
513.265	7.95
513.466	8
513.667	8.01
513.868	8
514.069	8.06
514.27	8.07
514.471	8.09
514.672	8.09
514.873	8.11
515.074	8.12
515.275	8.14
515.476	8.15
515.677	8.16
515.878	8.22
516.079	8.25
516.28	8.22
516.481	8.25
516.682	8.3
516.882	8.32
517.083	8.34
517.284	8.32
517.485	8.38
517.686	8.43
517.886	8.46
518.087	8.47
518.288	8.47
518.488	8.51
518.689	8.54
518.89	8.54
519.091	8.6
519.291	8.6
519.492	8.64
519.692	8.7
519.893	8.71
520.094	8.74
520.294	8.75
520.495	8.75
520.695	8.77
520.896	8.79
521.096	8.83
521.297	8.86
521.497	8.85
521.698	8.86
521.898	8.93
522.099	8.93
522.299	8.94
522.499	8.94
522.7	8.96
522.9	9.02
523.101	9.07
523.301	9.06
523.501	9.11
523.702	9.11
523.902	9.12
524.102	9.13
524.302	9.16
524.503	9.16
524.703	9.15
524.903	9.18
525.103	9.24
525.304	9.29
525.504	9.31
525.704	9.32
525.904	9.34
526.104	9.43
526.304	9.45
526.504	9.43
526.705	9.43
526.905	9.45
527.105	9.45
527.305	9.44
527.505	9.41
527.705	9.39
527.905	9.39
528.105	9.42
528.305	9.41
528.505	9.44
528.705	9.5
528.905	9.52
529.105	9.58
529.304	9.63
529.504	9.62
529.704	9.7
529.904	9.74
530.104	9.76
530.304	9.82
530.503	9.81
530.703	9.86
530.903	9.9
531.103	9.87
531.303	9.87
531.502	9.91
531.702	9.9
531.902	9.94
532.101	9.94
532.301	9.95
532.501	10
532.7	10.01
532.9	10.02
533.1	10.03
533.299	10.05
533.499	10.08
533.698	10.16
533.898	10.18
534.097	10.25
534.297	10.26
534.496	10.28
534.696	10.33
534.895	10.38
535.095	10.39
535.294	10.44
535.494	10.45
535.693	10.51
535.892	10.57
536.092	10.58
536.291	10.62
536.491	10.65
536.69	10.67
536.889	10.67
537.088	10.67
537.288	10.7
537.487	10.75
537.686	10.78
537.886	10.81
538.085	10.88
538.284	10.91
538.483	10.98
538.682	11
538.882	11.03
539.081	11.08
539.28	11.1
539.479	11.1
539.678	11.19
539.877	11.23
540.076	11.28
540.275	11.33
540.474	11.34
540.673	11.41
540.872	11.48
541.071	11.5
541.27	11.51
541.469	11.55
541.668	11.6
541.867	11.69
542.066	11.74
542.265	11.79
542.464	11.84
542.663	11.94
542.862	12.03
543.06	12.1
543.259	12.11
543.458	12.13
543.657	12.17
543.856	12.23
544.054	12.26
544.253	12.28
544.452	12.28
544.651	12.34
544.849	12.42
545.048	12.48
545.247	12.53
545.445	12.55
545.644	12.62
545.843	12.69
546.041	12.8
546.24	12.85
546.438	12.91
546.637	13.01
546.836	13.09
547.034	13.14
547.233	13.24
547.431	13.26
547.63	13.36
547.828	13.44
548.027	13.48
548.225	13.59
548.423	13.7
548.622	13.78
548.82	13.92
549.019	13.98
549.217	14.1
549.415	14.21
549.614	14.26
549.812	14.34
550.01	14.42
550.209	14.48
550.407	14.61
550.605	14.67
550.803	14.74
551.002	14.84
551.2	14.91
551.398	14.96
551.596	15.02
551.794	15.06
551.993	15.11
552.191	15.2
552.389	15.3
552.587	15.41
552.785	15.6
552.983	15.73
553.181	15.84
553.379	15.97
553.577	16.11
553.775	16.26
553.973	16.36
554.171	16.41
554.369	16.49
554.567	16.64
554.765	16.72
554.963	16.77
555.161	16.84
555.359	16.93
555.557	17.1
555.755	17.24
555.952	17.36
556.15	17.51
556.348	17.66
556.546	17.8
556.744	17.92
556.941	18.01
557.139	18.13
557.337	18.24
557.535	18.34
557.732	18.5
557.93	18.64
558.128	18.77
558.325	18.92
558.523	19.07
558.721	19.22
558.918	19.36
559.116	19.44
559.313	19.57
559.511	19.67
559.708	19.78
559.906	19.87
560.104	19.97
560.301	20.12
560.498	20.25
560.696	20.38
560.893	20.53
561.091	20.72
561.288	20.88
561.486	21.06
561.683	21.21
561.88	21.35
562.078	21.48
562.275	21.65
562.473	21.76
562.67	21.87
562.867	21.97
563.064	22.11
563.262	22.28
563.459	22.42
563.656	22.52
563.853	22.64
564.051	22.79
564.248	22.91
564.445	23.03
564.642	23.16
564.839	23.34
565.036	23.54
565.234	23.69
565.431	23.85
565.628	23.97
565.825	24.12
566.022	24.22
566.219	24.25
566.416	24.38
566.613	24.51
566.81	24.59
567.007	24.7
567.204	24.8
567.401	24.92
567.598	25.05
567.795	25.06
567.991	25.15
568.188	25.26
568.385	25.41
568.582	25.52
568.779	25.61
568.976	25.74
569.172	25.91
569.369	25.99
569.566	26.11
569.763	26.19
569.96	26.29
570.156	26.36
570.353	26.41
570.55	26.45
570.746	26.51
570.943	26.56
571.14	26.59
571.336	26.66
571.533	26.73
571.729	26.8
571.926	26.89
572.123	26.93
572.319	27.01
572.516	27.12
572.712	27.14
572.909	27.21
573.105	27.3
573.302	27.33
573.498	27.39
573.695	27.43
573.891	27.43
574.087	27.47
574.284	27.49
574.48	27.44
574.677	27.48
574.873	27.57
575.069	27.61
575.266	27.69
575.462	27.74
575.658	27.82
575.854	27.94
576.051	27.94
576.247	28
576.443	28.04
576.639	28.07
576.835	28.09
577.032	28.11
577.228	28.14
577.424	28.19
577.62	28.18
577.816	28.22
578.012	28.19
578.208	28.23
578.404	28.26
578.6	28.24
578.796	28.31
578.993	28.27
579.189	28.17
579.384	28.16
579.58	28.12
579.776	28.08
579.972	28.06
580.168	28.01
580.364	28.05
580.56	28.09
580.756	28.08
580.952	28.1
581.148	28.04
581.343	28.07
581.539	28.01
581.735	27.97
581.931	28.05
582.127	28.04
582.322	28.03
582.518	28.03
582.714	27.98
582.909	28.01
583.105	28
583.301	27.9
583.496	27.89
583.692	27.89
583.888	27.92
584.083	27.98
584.279	28
584.474	28
584.67	28.05
584.866	28.06
585.061	27.99
585.257	27.98
585.452	27.95
585.648	27.86
585.843	27.83
586.039	27.79
586.234	27.79
586.429	27.79
586.625	27.78
586.82	27.69
587.015	27.72
587.211	27.76
587.406	27.79
587.601	27.78
587.797	27.76
587.992	27.79
588.187	27.85
588.383	27.88
588.578	27.86
588.773	27.87
588.968	27.93
589.163	28.07
589.359	28.06
589.554	28.07
589.749	28.11
589.944	28.15
590.139	28.19
590.334	28.21
590.529	28.24
590.724	28.35
590.919	28.46
591.114	28.46
591.309	28.54
591.504	28.57
591.699	28.61
591.894	28.62
592.089	28.63
592.284	28.65
592.479	28.73
592.674	28.76
592.869	28.86
593.064	28.98
593.259	29.04
593.454	29.12
593.648	29.16
593.843	29.2
594.038	29.32
594.233	29.39
594.428	29.44
594.622	29.47
594.817	29.61
595.012	29.69
595.206	29.8
595.401	29.86
595.596	29.93
595.79	30.01
595.985	30.13
596.18	30.18
596.374	30.29
596.569	30.38
596.763	30.49
596.958	30.54
597.153	30.58
597.347	30.65
597.542	30.75
597.736	30.89
597.931	31
598.125	31.05
598.319	31.15
598.514	31.25
598.708	31.42
598.903	31.5
599.097	31.55
599.291	31.61
599.486	31.66
599.68	31.71
599.874	31.82
600.069	31.81
600.263	31.85
600.457	31.9
600.651	32.01
600.846	32.08
601.04	32.14
601.234	32.17
601.428	32.25
601.622	32.25
601.817	32.28
602.011	32.26
602.205	32.36
602.399	32.38
602.593	32.39
602.787	32.44
602.981	32.47
603.175	32.48
603.369	32.52
603.563	32.52
603.757	32.49
603.951	32.46
604.145	32.37
604.339	32.39
604.533	32.33
604.727	32.29
604.921	32.2
605.115	32.21
605.309	32.26
605.502	32.25
605.696	32.17
605.89	32.2
606.084	32.2
606.278	32.13
606.471	32.04
606.665	31.95
606.859	31.91
607.053	31.89
607.246	31.74
607.44	31.65
607.634	31.65
607.827	31.57
608.021	31.47
608.214	31.44
608.408	31.33
608.602	31.28
608.795	31.17
608.989	31.11
609.182	31.13
609.376	31.08
609.569	30.96
609.763	30.97
609.956	30.91
610.15	30.86
610.343	30.78
610.537	30.66
610.73	30.58
610.923	30.49
611.117	30.34
611.31	30.25
611.504	30.23
611.697	30.12
611.89	29.97
612.083	29.9
612.277	29.78
612.47	29.71
612.663	29.63
612.856	29.47
613.05	29.37
613.243	29.39
613.436	29.29
613.629	29.27
613.822	29.21
614.015	29.1
614.209	29.07
614.402	29.01
614.595	28.87
614.788	28.76
614.981	28.66
615.174	28.5
615.367	28.47
615.56	28.34
615.753	28.27
615.946	28.25
616.139	28.18
616.332	28.09
616.525	28.07
616.718	27.95
616.911	27.9
617.103	27.78
617.296	27.66
617.489	27.65
617.682	27.62
617.875	27.46
618.067	27.39
618.26	27.32
618.453	27.27
618.646	27.22
618.838	27.14
619.031	27.1
619.224	27.15
619.417	27.17
619.609	27.14
619.802	27.17
619.994	27.08
620.187	27.03
620.38	26.94
620.572	26.87
620.765	26.75
620.957	26.66
621.15	26.57
621.342	26.57
621.535	26.55
621.727	26.58
621.92	26.53
622.112	26.56
622.305	26.52
622.497	26.48
622.69	26.43
622.882	26.37
623.074	26.28
623.267	26.24
623.459	26.19
623.651	26.19
623.844	26.22
624.036	26.22
624.228	26.24
624.42	26.26
624.613	26.27
624.805	26.28
624.997	26.24
625.189	26.2
625.381	26.13
625.574	26.02
625.766	25.96
625.958	25.89
626.15	25.84
626.342	25.84
626.534	25.76
626.726	25.78
626.918	25.77
627.11	25.69
627.302	25.65
627.494	25.63
627.686	25.58
627.878	25.51
628.07	25.48
628.262	25.46
628.454	25.46
628.646	25.44
628.838	25.35
629.029	25.25
629.221	25.25
629.413	25.14
629.605	25.05
629.797	24.98
629.989	24.93
630.18	24.89
630.372	24.86
630.564	24.83
630.755	24.83
630.947	24.74
631.139	24.67
631.33	24.67
631.522	24.63
631.714	24.65
631.905	24.59
632.097	24.54
632.289	24.55
632.48	24.53
632.672	24.47
632.863	24.49
633.055	24.44
633.246	24.44
633.438	24.42
633.629	24.44
633.821	24.42
634.012	24.4
634.203	24.39
634.395	24.35
634.586	24.28
634.777	24.26
634.969	24.19
635.16	24.17
635.351	24.16
635.543	24.08
635.734	24.06
635.925	24.13
636.117	24.1
636.308	24.11
636.499	24.11
636.69	24.14
636.881	24.17
637.073	24.15
637.264	24.08
637.455	24.1
637.646	24.08
637.837	24.11
638.028	24.14
638.219	24.1
638.41	24.1
638.601	24.05
638.792	24.03
638.983	23.98
639.174	23.94
639.365	23.84
639.556	23.78
639.747	23.78
639.938	23.81
640.129	23.78
640.32	23.74
640.511	23.69
640.701	23.64
640.892	23.68
641.083	23.62
641.274	23.6
641.465	23.59
641.655	23.63
641.846	23.56
642.037	23.55
642.228	23.51
642.418	23.47
642.609	23.43
642.8	23.36
642.99	23.3
643.181	23.33
643.372	23.35
643.562	23.32
643.753	23.28
643.943	23.21
644.134	23.26
644.324	23.27
644.515	23.21
644.705	23.13
644.896	23.06
645.086	23.01
645.277	23.03
645.467	22.94
645.658	22.88
645.848	22.87
646.038	22.88
646.229	22.9
646.419	22.97
646.61	22.95
646.8	22.94
646.99	22.93
647.18	22.82
647.371	22.74
647.561	22.65
647.751	22.56
647.941	22.54
648.132	22.46
648.322	22.44
648.512	22.52
648.702	22.47
648.892	22.45
649.082	22.39
649.272	22.21
649.462	22.21
649.653	22.18
649.843	22.06
650.033	22.07
650.223	22.03
650.413	22.03
650.603	22.12
650.793	22.04
650.983	21.98
651.172	21.94
651.362	21.91
651.552	21.81
651.742	21.76
651.932	21.65
652.122	21.59
652.312	21.51
652.502	21.42
652.691	21.32
652.881	21.26
653.071	21.07
653.261	20.95
653.45	20.83
653.64	20.76
653.83	20.67
654.019	20.5
654.209	20.39
654.399	20.28
654.588	20.14
654.778	19.99
654.968	19.81
655.157	19.6
655.347	19.47
655.536	19.24
655.726	19.14
655.915	18.96
656.105	18.75
656.294	18.52
656.484	18.37
656.673	18.19
656.863	18.01
657.052	17.73
657.241	17.55
657.431	17.4
657.62	17.21
657.809	17.01
657.999	16.82
658.188	16.6
658.377	16.54
658.567	16.29
658.756	16.09
658.945	15.87
659.134	15.59
659.324	15.33
659.513	15.09
659.702	14.8
659.891	14.59
660.08	14.36
660.269	14.21
660.458	14.04
660.648	13.82
660.837	13.65
661.026	13.43
661.215	13.23
661.404	13.04
661.593	12.82
661.782	12.63
661.971	12.44
662.16	12.23
662.349	12.03
662.538	11.89
662.726	11.71
662.915	11.53
663.104	11.27
663.293	11.08
663.482	10.95
663.671	10.8
663.86	10.64
664.048	10.47
664.237	10.33
664.426	10.27
664.615	10.14
664.803	9.98
664.992	9.89
665.181	9.78
665.369	9.66
665.558	9.56
665.747	9.53
665.935	9.44
666.124	9.39
666.312	9.26
666.501	9.12
666.69	9.09
666.878	8.97
667.067	8.89
667.255	8.86
667.444	8.79
667.632	8.7
667.82	8.68
668.009	8.62
668.197	8.6
668.386	8.5
668.574	8.42
668.762	8.37
668.951	8.38
669.139	8.4
669.327	8.36
669.516	8.37
669.704	8.38
669.892	8.42
670.08	8.38
670.269	8.38
670.457	8.35
670.645	8.36
670.833	8.34
671.021	8.27
671.21	8.29
671.398	8.34
671.586	8.39
671.774	8.36
671.962	8.39
672.15	8.41
672.338	8.5
672.526	8.54
672.714	8.56
672.902	8.55
673.09	8.59
673.278	8.62
673.466	8.72
673.654	8.75
673.842	8.79
674.03	8.88
674.218	8.9
674.405	9.03
674.593	9.09
674.781	9.14
674.969	9.19
675.157	9.23
675.344	9.33
675.532	9.44
675.72	9.45
675.908	9.56
676.095	9.68
676.283	9.77
676.471	9.88
676.658	9.94
676.846	10.09
677.033	10.22
677.221	10.3
677.409	10.34
677.596	10.53
677.784	10.63
677.971	10.79
678.159	10.87
678.346	10.99
678.534	11.11
678.721	11.23
678.909	11.31
679.096	11.41
679.283	11.45
679.471	11.6
679.658	11.69
679.846	11.87
680.033	12.11
680.22	12.24
680.408	12.35
680.595	12.5
680.782	12.58
680.969	12.72
681.157	12.82
681.344	12.92
681.531	13.09
681.718	13.4
681.905	13.65
682.093	13.92
682.28	14.17
682.467	14.33
682.654	14.47
682.841	14.7
683.028	14.93
683.215	15.13
683.402	15.31
683.589	15.56
683.776	15.86
683.963	16.14
684.15	16.37
684.337	16.6
684.524	16.91
684.711	17.26
684.898	17.64
685.085	18.04
685.271	18.49
685.458	18.96
685.645	19.36
685.832	19.79
686.019	20.14
686.205	20.49
686.392	20.82
686.579	21.16
686.766	21.57
686.952	22.03
687.139	22.37
687.326	22.92
687.512	23.39
687.699	23.87
687.886	24.39
688.072	24.87
688.259	25.41
688.445	26.01
688.632	26.59
688.818	27.19
689.005	27.91
689.191	28.49
689.378	29.02
689.564	29.61
689.751	30.4
689.937	30.95
690.124	31.62
690.31	32.25
690.496	32.95
690.683	33.8
690.869	34.44
691.055	35.3
691.242	36.01
691.428	36.77
691.614	37.51
691.8	38.25
691.987	38.95
692.173	39.79
692.359	40.33
692.545	41.15
692.731	41.97
692.918	42.74
693.104	43.57
693.29	44.32
693.476	44.98
693.662	45.77
693.848	46.48
694.034	47.08
694.22	47.79
694.406	48.54
694.592	49.26
694.778	50.01
694.964	50.63
695.15	51.29
695.336	52.08
695.522	52.8
695.708	53.5
695.894	54.19
696.08	54.85
696.265	55.49
696.451	56.28
696.637	56.92
696.823	57.43
697.009	57.99
697.194	58.68
697.38	59.26
697.566	59.78
697.751	60.45
697.937	61.02
698.123	61.71
698.308	62.21
698.494	62.7
698.68	63.32
698.865	64.03
699.051	64.54
699.236	65.05
699.422	65.56
699.607	66.12
699.793	66.62
699.978	67.13
700.164	67.65
700.349	68.15
700.535	68.58
700.72	69.2
700.906	69.68
701.091	70.16
701.276	70.58
701.462	70.85
701.647	71.22
701.832	71.81
702.018	72.01
702.203	72.39
702.388	72.7
702.573	73.23
702.759	73.61
702.944	73.93
703.129	74.17
703.314	74.68
703.499	75.05
703.684	75.55
703.87	75.81
704.055	76.31
704.24	76.83
704.425	77.37
704.61	77.52
704.795	77.83
704.98	77.96
705.165	78.13
705.35	78.42
705.535	78.66
705.72	78.65
705.905	78.85
706.09	79.14
706.275	79.34
706.459	79.75
706.644	80
706.829	80.01
707.014	80.44
707.199	80.61
707.384	80.93
707.568	81.43
707.753	81.66
707.938	81.89
708.123	82.04
708.307	82.45
708.492	82.7
708.677	82.84
708.861	82.93
709.046	82.92
709.231	83.16
709.415	83.46
709.6	83.19
709.784	83.53
709.969	83.67
710.153	84
710.338	84.21
710.522	84.25
710.707	84.17
710.891	84.52
711.076	84.56
711.26	84.69
711.445	84.56
711.629	84.76
711.813	84.78
711.998	84.98
712.182	85.29
712.366	85.67
712.551	85.93
712.735	85.87
712.919	86.03
713.103	86.23
713.288	86.58
713.472	86.39
713.656	86.18
713.84	86.09
714.024	86.63
714.208	86.57
714.393	86.74
714.577	86.95
714.761	87.47
714.945	87.6
715.129	87.82
715.313	87.75
715.497	88.06
715.681	88.61
715.865	88.7
716.049	88.48
716.233	88.84
716.417	89.03
716.601	89.36
716.785	89.37
716.968	88.83
717.152	88.9
717.336	89.18
717.52	89.08
717.704	89.09
717.888	89.12
718.071	89.31
718.255	89.51
718.439	89.38
718.622	89.47
718.806	89.18
718.99	89.37
719.174	89.26
719.357	89.2
719.541	89.41
719.724	89.64
719.908	89.44
720.092	89.96
720.275	90.28
720.459	90.43
720.642	90.66
720.826	90.83
721.009	90.58
721.193	90.69
721.376	90.48
721.559	89.96
721.743	89.95
721.926	89.71
722.11	89.55
722.293	89.48
722.476	89.5
722.66	89.63
722.843	90.04
723.026	90.36
723.21	90.63
723.393	90.73
723.576	91.01
723.759	91.44
723.942	91.65
724.126	91.7
724.309	91.45
724.492	91.52
724.675	91.69
724.858	92.2
725.041	92.03
725.224	92.34
725.407	92.42
725.59	92.72
725.774	92.94
725.957	93.11
726.14	92.82
726.322	92.9
726.505	93.04
726.688	93.25
726.871	93.14
727.054	93.05
727.237	92.68
727.42	93.06
727.603	92.98
727.786	93.15
727.968	93.31
728.151	93.52
728.334	93.59
728.517	94.24
728.699	94.26
728.882	94.74
729.065	94.7
729.248	94.44
729.43	94.52
729.613	94.63
729.796	94.46
729.978	94.78
730.161	94.69
730.343	94.84
730.526	95.03
730.708	95.33
730.891	95.52
731.073	95.67
731.256	95.52
731.438	96.04
731.621	95.97
731.803	96.02
731.986	95.95
732.168	95.79
732.35	96.12
732.533	96.3
732.715	95.81
732.898	95.9
733.08	96.21
733.262	95.92
733.444	96.13
733.627	95.96
733.809	95.85
733.991	96.08
734.173	95.94
734.355	95.96
734.538	96.41
734.72	96.82
734.902	96.82
735.084	97
735.266	97.25
735.448	97.35
735.63	97.16
735.812	97.15
735.994	96.71
736.176	97.11
736.358	97.29
736.54	96.85
736.722	96.88
736.904	97.19
737.086	97.38
737.268	97.89
737.45	97.69
737.632	97.05
737.814	97.26
737.995	97.94
738.177	98.16
738.359	98.31
738.541	97.74
738.723	98.07
738.904	98.37
739.086	98.83
739.268	98.98
739.449	98.91
739.631	98.63
739.813	99.11
739.994	99.13
740.176	99.26
740.358	99.09
740.539	98.37
740.721	98.29
740.902	97.98
741.084	97.87
741.265	97.54
741.447	97.65
741.628	97.55
741.81	98.08
741.991	98.42
742.172	98.69
742.354	99.11
742.535	99.17
742.717	99.32
742.898	99.69
743.079	99.48
743.261	99.26
743.442	99.51
743.623	99.36
743.804	99.95
743.986	99.93
744.167	99.84
744.348	100.1
744.529	99.78
744.71	99.75
744.891	99.64
745.073	98.94
745.254	99.1
745.435	98.66
745.616	98.64
745.797	98.51
745.978	98.85
746.159	98.76
746.34	99.37
746.521	99.31
746.702	98.85
746.883	98.82
747.064	98.93
747.245	99.35
747.426	99.83
747.606	99.67
747.787	99.76
747.968	100.64
748.149	100.62
748.33	101.21
748.51	100.02
748.691	99.59
748.872	99.41
749.053	99.1
749.233	98.54
749.414	98.53
749.595	97.75
749.775	98.84
749.956	98.6
750.137	99.07
750.317	99.29
750.498	99.76
750.678	99.45
750.859	100.07
751.04	99.4
751.22	98.96
751.4	98.89
751.581	98.62
751.761	98.74
751.942	98.71
752.122	98.77
752.303	98.04
752.483	99.76
752.663	100.05
752.844	100.05
753.024	100.11
753.204	100.31
753.385	100.13
753.565	100.34
753.745	99.4
753.925	98.56
754.106	98.38
754.286	98.19
754.466	98.19
754.646	97.72
754.826	98.53
755.006	98.48
755.187	98.39
755.367	98.19
755.547	98.73
755.727	98.78
755.907	99.43
756.087	99.17
756.267	98.68
756.447	98.92
756.627	99.97
756.807	99.41
756.987	99.99
757.167	100.11
757.346	99.49
757.526	100.66
757.706	100.71
757.886	100.28
758.066	99.93
758.246	99.24
758.425	99.53
758.605	99.45
758.785	98.89
758.965	97.55
759.144	97.97
759.324	98.31
759.504	98.18
759.683	97.13
759.863	97.83
760.043	97.62
760.222	98.58
760.402	98.17
760.581	98.27
760.761	97.87
760.94	97.71
761.12	97.37
761.299	97.1
761.479	97.41
761.658	96.77
761.838	97
762.017	97.35
762.197	98.52
762.376	98.93
762.555	99.25
762.735	98.22
762.914	98.44
763.093	97.69
763.273	97.15
763.452	96.11
763.631	94.96
763.81	95.54
763.99	96.44
764.169	96.57
764.348	97.43
764.527	97.16
764.706	96.3
764.885	97.22
765.064	96.04
765.243	95.32
765.423	95.96
765.602	94.63
765.781	95.51
765.96	96.48
766.139	95.82
766.318	96.34
766.497	97.18
766.676	97.36
766.854	97.92
767.033	97.25
767.212	97.14
767.391	97.33
767.57	97.25
767.749	96.81
767.928	95.03
768.106	95.82
768.285	95.95
768.464	96.83
768.643	97.78
768.821	97.27
769	98.41
769.179	98.57
769.357	96.94
769.536	96.37
769.715	94.77
769.893	93.4
770.072	93.65
770.25	93.01
770.429	93.34
770.607	94.49
770.786	94.88
770.964	94.93
771.143	95.55
771.321	95.09
771.5	93.84
771.678	94.64
771.857	92.98
772.035	92.77
772.213	93.26
772.392	93.51
772.57	93.31
772.748	93.14
772.927	92.17
773.105	93.61
773.283	93.29
773.461	93.04
773.64	91.76
773.818	91.59
773.996	91.41
774.174	91.72
774.352	91.66
774.531	91.27
774.709	91.65
774.887	91.31
775.065	90.87
775.243	91.79
775.421	90.87
775.599	89.72
775.777	91.08
775.955	90.27
776.133	89.76
776.311	90
776.489	89.89
776.667	90.64
776.844	90.83
777.022	91.37
777.2	91.86
777.378	93.34
777.556	94.26
777.734	94.33
777.911	95.89
778.089	95.38
778.267	94.6
778.445	92.84
778.622	92.33
778.8	92
778.978	92.17
779.155	89.74
779.333	89.36
779.511	88.97
779.688	89.61
779.866	88.8
780.043	89.96
780.221	88.95
780.398	90.56
780.576	91.6
780.753	90.76
780.931	92.82
781.108	93.36
781.286	91.31
781.463	92.03
781.64	91.48
781.818	91.83
781.995	93.38
782.172	92.29
782.35	93.28
782.527	94.44
782.704	92.39
782.882	92.72
783.059	91
783.236	91.31
783.413	90.77
783.59	91.26
783.768	90.62
783.945	92.64
784.122	91.03
784.299	91.45
784.476	92.23
784.653	91.73
784.83	89.17
785.007	88.57
785.184	88.4
785.361	88.74
785.538	90.34
785.715	86.58
785.892	86.83
786.069	88.17
786.246	88.17
786.423	90.49
786.6	90.95
786.776	90.09
786.953	90.89
787.13	92.63
787.307	93.11
787.484	95.7
787.66	92.47
787.837	93.25
788.014	92.77
788.191	92.51
788.367	90.37
788.544	90.27
788.721	87.94
788.897	89.11
789.074	87.53
789.25	88.58
789.427	89.84
789.603	91.46
789.78	91.62
789.956	90.24
790.133	90.2
790.309	90.82
790.486	93.08
790.662	93.36
790.839	94.9
791.015	95.1
791.192	96.35
791.368	98.21
791.544	97.34
791.721	93.81
791.897	93.01
792.073	91.5
792.249	91.51
792.426	92.46
792.602	90.89
792.778	91.97
792.954	93.97
793.13	94.57
793.307	91.02
793.483	89.99
793.659	90.83
793.835	89.06
794.011	86.43
794.187	82.13
794.363	82.77
794.539	85.78
794.715	83.93
794.891	82.11
795.067	83.09
795.243	84.34
795.419	87.7
795.595	85.38
795.771	87.63
795.947	90.55
796.122	91.25
796.298	89.24
796.474	92.32
796.65	89.03
796.826	94.4
797.001	90.67
797.177	90.02
797.353	90.7
797.529	92.67
797.704	89.61
797.88	92.75
798.056	89.99
798.231	91.35
798.407	90.09
798.582	88.77
798.758	89.56
798.934	89.92
799.109	89.21
799.285	90.51
799.46	91.53
799.636	93.64
799.811	93.74
799.986	94.59
800.162	94.52
800.337	94.9
800.513	93.54
800.688	93.85
800.863	94.67
801.039	92.39
801.214	90.62
801.389	91.99
801.565	93.6
801.74	90.8
801.915	89.4
802.09	90.13
802.265	93.65
802.441	94.78
802.616	94.61
802.791	96.05
802.966	95.7
803.141	91.92
803.316	89.47
803.491	87.51
803.666	86
803.841	87.23
804.016	83.99
804.191	84.15
804.366	89.24
804.541	87.17
804.716	85.01
804.891	88.66
805.066	86.87
805.241	87.63
805.416	88.28
805.591	88.41
805.765	88.43
805.94	91.96
806.115	87.75
806.29	86.91
806.464	83.93
806.639	85.67
806.814	82.69
806.989	81.5
807.163	80.53
807.338	80.8
807.512	79.64
807.687	80.84
807.862	79.24
808.036	75.17
808.211	78.6
808.385	75.78
808.56	77.25
808.734	77.22
808.909	78.8
809.083	78.82
809.258	85.73
809.432	84.6
809.606	83.09
809.781	82.51
809.955	84.43
810.13	85.43
810.304	84.25
810.478	84.37
810.652	87.03
810.827	92.4
811.001	91.25
811.175	88.67
811.349	89.85
811.524	90.11
811.698	89.96
811.872	89.41
812.046	83.77
812.22	83.95
812.394	87.91
812.568	84.29
812.742	80.99
812.916	77.7
813.09	74.28
813.264	81.65
813.438	88.13
813.612	80.57
813.786	86.33
813.96	92.8
814.134	98.08
814.308	94.05
814.482	90.32
814.656	85.84
814.83	92.68
815.003	89.63
815.177	88.81
815.351	90.71
815.525	92.27
815.698	91.09
815.872	87.6
816.046	83.97
816.219	88.12
816.393	79.73
816.567	77.14
816.74	82.03
816.914	87.51
817.088	90.44
817.261	89.12
817.435	84
817.608	91.73
817.782	95.23
817.955	97.05
818.129	101.85
818.302	101.9
818.475	99.56
818.649	98.51
818.822	97.87
818.996	98.02
819.169	88.02
819.342	77.99
819.516	79.04
819.689	85.77
819.862	79.65
820.035	79.73
820.209	68.96
820.382	72.41
820.555	70.77
820.728	70.06
820.901	66.67
821.075	75.28
821.248	75.34
821.421	78.92
821.594	82.43
821.767	89.09
821.94	84.81
822.113	87.05
822.286	88.63
822.459	96.66
822.632	99.8
822.805	97.58
822.978	90.94
823.151	97.65
823.324	84.97
823.496	76.27
823.669	75.05
823.842	77.86
824.015	74.29
824.188	76.57
824.361	70.97
824.533	86.66
824.706	99.79
824.879	88.88
825.051	94.86
825.224	92.75
825.397	87.35
825.569	93.58
825.742	92.4
825.915	87.89
826.087	85.99
826.26	82.84
826.432	88.71
826.605	87.41
826.777	88.11
826.95	85.99
827.122	92.15
827.295	96.71
827.467	86.68
827.64	82.33
827.812	83.14
827.984	83.48
828.157	84.08
828.329	85.6
828.501	78.7
828.674	79.67
828.846	76.95
829.018	76.41
829.19	77.6
829.363	77.57
829.535	67.97
829.707	70.53
829.879	74.61
830.051	78.52
830.223	75.14
830.395	67.56
830.568	63.34
830.74	66.87
830.912	67.05
831.084	61.34
831.256	55.01
831.428	62.33
831.6	62.68
831.772	65.28
831.943	66.74
832.115	73.16
832.287	77.2
832.459	89.95
832.631	86.26
832.803	88.54
832.975	95.04
833.146	87.2
833.318	78.84
833.49	89.99
833.662	79.2
833.833	80.35
834.005	73.26
834.177	72.95
834.348	80.06
834.52	76.04
834.692	74.7
834.863	84.75
835.035	77.21
835.206	78.43
835.378	69.9
835.549	63.44
835.721	70.09
835.892	61.6
836.064	66.26
836.235	65.55
836.407	71.55
836.578	70.52
836.749	74.88
836.921	79.02
837.092	95.83
837.264	85.09
837.435	85.79
837.606	79.6
837.777	80.09
837.949	74.35
838.12	72.79
838.291	70.93
838.462	77.99
838.633	76.19
838.805	80.1
838.976	89.98
839.147	83.73
839.318	76.64
839.489	62.85
839.66	57.13
839.831	60.36
840.002	54.07
840.173	49.21
840.344	57.49
840.515	65.44
840.686	78.02
840.857	74.97
841.028	80.35
841.199	84.22
841.369	77.5
841.54	80.21
841.711	83.91
841.882	92.2
842.053	111.31
842.223	130.34
842.394	113.37
842.565	129.55
842.736	139.64
842.906	158.23
843.077	122.72
843.248	116.77
843.418	108.36
843.589	110.2
843.759	97.88
843.93	90.28
844.101	80.84
844.271	75.39
844.442	70.97
844.612	65.28
844.783	52.61
844.953	42.89
845.123	45.53
845.294	54.74
845.464	65.67
845.635	74.07
845.805	77.18
845.975	80.65
846.146	91.22
846.316	106.98
846.486	88.53
846.656	91.55
846.827	87.55
846.997	101.31
847.167	100.98
847.337	110.85
847.507	101.66
847.677	108.73
847.848	110
848.018	103.79
848.188	91.85
848.358	109.63
848.528	99.22
848.698	75.58
848.868	69.22
849.038	70.57
849.208	74.62
849.378	68.45
849.548	68.35
849.718	64.87
849.887	86.76
850.057	83.78
850.227	72.13
850.397	69.93
850.567	85.1
850.737	76.78
850.906	77.02
851.076	76.82
851.246	76.84
851.415	90.18
851.585	89.81
851.755	82.13
851.924	96.96
852.094	97.34
852.264	101.15
852.433	113.3
852.603	123.78
852.772	121.96
852.942	110.16
853.111	102.46
853.281	94.94
853.45	87.34
853.62	84.24
853.789	74.57
853.959	67.55
854.128	68.42
854.297	67.96
854.467	75.44
854.636	82.71
854.805	78.42
854.975	79.51
855.144	88.79
855.313	103.92
855.482	98.37
855.652	91.48
855.821	82.23
855.99	81.1
856.159	80.68
856.328	69.41
856.497	56.41
856.667	58.6
856.836	63.14
857.005	69.25
857.174	80.9
857.343	80.22
857.512	78.49
857.681	79.91
857.85	79.55
858.019	76.61
858.188	65.71
858.356	47.33
858.525	46.55
858.694	64.91
858.863	64.67
859.032	59.26
859.201	56.66
859.369	64.02
859.538	52.34
859.707	59
859.876	62.83
860.044	66.13
860.213	69.65
860.382	63.25
860.55	71.45
860.719	74.75
860.888	73.23
861.056	67.16
861.225	77.56
861.393	93.25
861.562	95.7
861.73	77.95
861.899	74.31
862.067	71.74
862.236	59.69
862.404	50.41
862.572	54.61
862.741	53.72
862.909	63.13
863.078	76.31
863.246	83.28
863.414	95.31
863.582	92.15
863.751	63.39
863.919	81.7
864.087	64.5
864.255	60.77
864.424	75.66
864.592	85.41
864.76	95.66
864.928	105.15
865.096	88.1
865.264	105.27
865.432	104.8
865.6	95.04
865.768	81.56
865.936	86.84
866.104	109.94
866.272	131.86
866.44	110.53
866.608	114.13
866.776	97.64
866.944	90.41
867.112	63.52
867.28	35.34
867.448	56.88
867.615	89.91
867.783	71.37
867.951	86.25
868.119	89.25
868.286	112.03
868.454	105.49
868.622	108.19
868.789	96.87
868.957	110.13
869.125	94.36
869.292	97.33
869.46	96.54
869.627	98.93
869.795	90.5
869.963	93.18
870.13	100.08
870.298	100.45
870.465	102.86
870.632	110.18
870.8	66.61
870.967	53
871.135	61.17
871.302	62.92
871.469	72.09
871.637	69.44
871.804	60.82
871.971	69.82
872.139	83.1
872.306	65.16
872.473	54.73
872.64	72.92
872.807	89.63
872.975	138.32
873.142	145.92
873.309	190
873.476	340.66
873.643	340.05
873.81	234.71
873.977	163.33
874.144	131.42
874.311	96.51
874.478	27.65
874.645	11.21
874.812	28.43
874.979	20.43
875.146	-4.16
875.313	-15.4
875.48	58.66
875.647	83.64
875.813	61.99
875.98	32.92
876.147	70.68
876.314	100.54
876.481	77.71
876.647	70.89
876.814	71.46
876.981	74.85
877.147	76.46
877.314	75.44
877.481	65.63
877.647	71.7
877.814	69.28
877.98	93.81
878.147	78.74
878.314	83.63
878.48	75.26
878.647	93.12
878.813	70.15
878.979	82.8
879.146	58.4
879.312	113.13
879.479	105.43
879.645	107.07
879.811	82.44
879.978	131.31
880.144	148.31
880.31	153.64
880.477	76.96
880.643	113.19
880.809	123.52
880.975	116.42
881.142	69.63
881.308	82.67
881.474	106.39
881.64	82.45
881.806	68.91
881.972	105.53
882.138	108.42
882.304	102.75
882.47	74.73
882.636	61.49
882.802	108.98
882.968	156.86
883.134	84.82
883.3	110.45
883.466	124.02
883.632	104.59
883.798	116.27
883.964	111.4
884.129	100.34
884.295	63.47
884.461	70.76
884.627	80.73
884.793	61.56
884.958	42.93
885.124	16.58
885.29	21.74
885.455	40.58
885.621	32.3
885.787	24.48
885.952	22.41
886.118	35.26
886.283	50.79
886.449	40.06
886.614	57.66
886.78	69.15
886.945	77.88
887.111	81.32
887.276	72.72
887.442	63.28
887.607	71.58
887.773	50.15
887.938	41.12
888.103	44.76
888.269	49.73
888.434	64.25
888.599	92
888.764	93.79
888.93	110.6
889.095	125.58
889.26	181.49
889.425	209.4
889.59	154.37
889.756	146.61
889.921	132.47
890.086	147.88
890.251	135.66
890.416	75.27
890.581	44.05
890.746	55.88
890.911	36.04
891.076	69.57
891.241	56.5
891.406	57.12
891.571	84.2
891.736	73.84
891.901	103.45
892.065	106.9
892.23	88.07
892.395	61.48
892.56	74.29
892.725	79.05
892.889	86.99
893.054	42.77
893.219	24.55
893.384	20.5
893.548	75
893.713	172.77
893.878	179.89
