Data from Ofra_PS_T2_2A_0GT03_Reflection_1.txt Node
Date: Wed Jul 21 16:51:25 EDT 2021
User: Adam
Spectrometer: FLMT01687
Trigger mode: 0
Integration Time (sec): 1.100000E0
Scans to average: 2
Electric dark correction enabled: true
Nonlinearity correction enabled: false
Boxcar width: 2
XAxis mode: Wavelengths
Number of Pixels in Spectrum: 3648
>>>>>Begin Spectral Data<<<<<
179.494	403.6
179.716	435.29
179.937	397.28
180.158	449.87
180.38	706.56
180.601	521.82
180.823	209.34
181.044	257.11
181.265	270.96
181.486	35.25
181.708	-50.69
181.929	-264.29
182.15	161.27
182.372	236.32
182.593	104.7
182.814	-11.27
183.035	62.7
183.257	30.99
183.478	-66.28
183.699	-45.59
183.92	1.38
184.141	3.95
184.363	-3.13
184.584	6.2
184.805	25.92
185.026	45.84
185.247	39.35
185.468	24.47
185.689	34.93
185.91	7.74
186.132	2.53
186.353	-9.41
186.574	24.23
186.795	24.09
187.016	6.23
187.237	1.45
187.458	-34.94
187.679	-37.22
187.9	-30.65
188.121	-24.42
188.342	-38.45
188.563	21.4
188.784	12.12
189.005	-5.52
189.226	-10.96
189.447	-21.01
189.667	-307.04
189.888	-403.2
190.109	-1113.64
190.33	-555.16
190.551	-830.53
190.772	-202.54
190.993	-180.31
191.214	-191.16
191.434	-119.28
191.655	-70.98
191.876	-86.23
192.097	-125.26
192.318	-106.86
192.538	-118.62
192.759	-134.75
192.98	-77.04
193.201	-13.28
193.421	-16.09
193.642	-5.78
193.863	-3.07
194.083	-14.01
194.304	-34.16
194.525	-28.24
194.745	-46.75
194.966	-28.51
195.187	-43.01
195.407	-70.68
195.628	-107.16
195.848	-109.03
196.069	-117.54
196.29	-69.5
196.51	-46
196.731	-45.94
196.951	-50
197.172	-52.02
197.392	-71.56
197.613	-80.04
197.833	-101.16
198.054	-76.88
198.274	-49.52
198.495	-62.94
198.715	-28.59
198.936	-51.52
199.156	-58.41
199.377	-104.24
199.597	-88.52
199.817	-133.89
200.038	-64.69
200.258	-75.43
200.479	-67.49
200.699	-95.32
200.919	-27.77
201.14	-29.04
201.36	-58.98
201.58	-4.35
201.801	25.55
202.021	12.75
202.241	12.87
202.461	20.08
202.682	-32.96
202.902	-94.88
203.122	-32.58
203.342	-35.72
203.563	4.07
203.783	17.09
204.003	-6.6
204.223	-24.57
204.443	1.66
204.663	-50.82
204.884	-31.84
205.104	-2.77
205.324	2.26
205.544	17.79
205.764	36.21
205.984	42.05
206.204	41.88
206.424	16.73
206.644	-27.25
206.864	-27.16
207.084	-86.72
207.304	-84.06
207.525	-77.66
207.745	-22.98
207.964	-1.79
208.184	-27.7
208.404	-48.39
208.624	-67.43
208.844	-99.42
209.064	-336.52
209.284	-378.37
209.504	-256
209.724	-93.23
209.944	-38.36
210.164	-8.78
210.384	5.03
210.604	1.33
210.823	-34.19
211.043	-38.22
211.263	-40.47
211.483	-54.26
211.703	-76.95
211.922	-62.92
212.142	-27.19
212.362	-32.21
212.582	-17.44
212.801	-25.94
213.021	-44.65
213.241	-62.41
213.461	-82.61
213.68	-76.38
213.9	-57.93
214.12	-45.24
214.339	-72.28
214.559	-47.92
214.779	-32.43
214.998	-27.79
215.218	-35.59
215.438	-30.31
215.657	-20.47
215.877	-24
216.096	-10.54
216.316	-12.93
216.535	-3.24
216.755	-10.65
216.974	-49.56
217.194	-61.56
217.413	-42.85
217.633	-8.07
217.852	-55.76
218.072	-15.44
218.291	7.09
218.511	12.47
218.73	-21.42
218.95	-5.86
219.169	-8.43
219.389	-41.54
219.608	-19.21
219.827	-13.2
220.047	-11.76
220.266	-16.68
220.485	-4.9
220.705	4.2
220.924	-11.19
221.143	7.97
221.363	-7.15
221.582	-2.35
221.801	-7.69
222.021	14.45
222.24	-43.09
222.459	9.9
222.678	-29.17
222.897	-83.47
223.117	-173.68
223.336	-149.92
223.555	-112.62
223.774	-59.44
223.993	-82.58
224.213	-4.53
224.432	0.96
224.651	11.77
224.87	1.96
225.089	35.79
225.308	11.07
225.527	21.73
225.746	26.43
225.965	16.11
226.184	-20.81
226.404	21.19
226.623	-3.6
226.842	-15.35
227.061	-2.66
227.28	20.28
227.499	-3.79
227.718	10.06
227.936	8.31
228.155	7.08
228.374	-31.21
228.593	-8.78
228.812	-14.57
229.031	-21.07
229.25	-57.57
229.469	-70.1
229.688	-97.95
229.907	-41.55
230.125	-38.01
230.344	-1.61
230.563	5.46
230.782	29.17
231.001	-50.13
231.22	-39.39
231.438	-37.99
231.657	-32.51
231.876	-45.2
232.095	8.65
232.313	12.14
232.532	-14.81
232.751	-8.01
232.969	-36.3
233.188	-79.05
233.407	-26.8
233.625	-1.09
233.844	-18.71
234.063	-9.02
234.281	5.26
234.5	2.45
234.719	3.06
234.937	10.05
235.156	19.7
235.374	15
235.593	5.98
235.811	-11.29
236.03	-17.02
236.249	-60.98
236.467	-50.44
236.686	-12.75
236.904	9.69
237.123	7.23
237.341	11.16
237.559	10.17
237.778	-5.88
237.996	-30.75
238.215	-12.57
238.433	0.35
238.652	-1.64
238.87	-18.69
239.088	-11.21
239.307	-11.89
239.525	-34.4
239.743	-61.83
239.962	-54.78
240.18	-67.65
240.398	-85.83
240.617	-76.57
240.835	-31.47
241.053	-17.4
241.271	17.54
241.49	10.26
241.708	10.31
241.926	-42.68
242.144	-23.77
242.363	-57.89
242.581	-61.39
242.799	-45.13
243.017	-19.82
243.235	-34.31
243.453	-26.03
243.672	-38.13
243.89	-19.95
244.108	-24.4
244.326	-16.43
244.544	-4.3
244.762	8.94
244.98	-9.37
245.198	7.09
245.416	-1.31
245.634	-6.85
245.852	-18.68
246.07	-35.7
246.288	-74.03
246.506	-108.5
246.724	-107.07
246.942	-80.09
247.16	-21.17
247.378	-2.63
247.596	25.26
247.814	14.58
248.032	-1.98
248.25	-16.87
248.468	-7.71
248.685	-6.65
248.903	16.49
249.121	23.63
249.339	-2.75
249.557	-5.35
249.775	-7.02
249.992	-53.35
250.21	-63.81
250.428	-31.28
250.646	-60.17
250.863	-78.46
251.081	-57.91
251.299	-39.16
251.517	-50.28
251.734	-37.98
251.952	-25.57
252.17	-12.81
252.387	-15.38
252.605	-16.81
252.823	-10.46
253.04	-2.22
253.258	-10.24
253.475	-23.98
253.693	1.45
253.911	16.02
254.128	10.88
254.346	8.11
254.563	3.34
254.781	-27.07
254.998	-56.73
255.216	-65.46
255.433	-37.19
255.651	-22.32
255.868	-3.68
256.086	24.94
256.303	34.78
256.521	21.68
256.738	4.24
256.956	-10.35
257.173	-29.83
257.39	-41.37
257.608	-65.13
257.825	-10.2
258.043	-0.44
258.26	0.24
258.477	27.3
258.695	30.66
258.912	-10.11
259.129	1.64
259.346	-24.78
259.564	-60.01
259.781	-75.53
259.998	-28.46
260.216	-26.59
260.433	13.81
260.65	14.57
260.867	35.14
261.084	16.18
261.302	11.01
261.519	-6.84
261.736	-31.65
261.953	-54.76
262.17	-29.42
262.387	-74.15
262.604	-82.72
262.822	-80.42
263.039	-68.57
263.256	-95.96
263.473	-35.74
263.69	-27.2
263.907	1.72
264.124	-0.5
264.341	-7.63
264.558	-16.73
264.775	-3.08
264.992	-10.34
265.209	-6.06
265.426	16.35
265.643	29.28
265.86	30.53
266.077	41.1
266.294	52.95
266.51	17.25
266.727	2.94
266.944	6
267.161	-10.3
267.378	-34.94
267.595	-5.98
267.812	-22.09
268.028	-42.67
268.245	-35.13
268.462	-16.61
268.679	-31.82
268.896	-6.19
269.112	4.22
269.329	7.14
269.546	-0.13
269.763	-5.12
269.979	-7.69
270.196	-7.47
270.413	-23.41
270.629	-21.29
270.846	-22.32
271.063	-26.01
271.279	-54.28
271.496	-56.63
271.712	-28.35
271.929	-24.73
272.146	-33.5
272.362	-24.5
272.579	-2.45
272.795	-1.77
273.012	12.82
273.228	29.25
273.445	15.11
273.661	5.58
273.878	-28.16
274.094	-31.37
274.311	-59.96
274.527	0.03
274.744	3.08
274.96	4.01
275.177	5.15
275.393	18.26
275.609	7.48
275.826	26.23
276.042	26.58
276.259	34.76
276.475	33.75
276.691	31.41
276.908	6.59
277.124	24.39
277.34	12.07
277.557	4.8
277.773	1.61
277.989	-2
278.205	-10.34
278.422	9.13
278.638	9.33
278.854	12.19
279.07	20.32
279.286	11.06
279.503	-31.87
279.719	-27.48
279.935	-34.58
280.151	-34.71
280.367	-16.09
280.583	-27.36
280.799	-20.58
281.016	-32.11
281.232	-11.85
281.448	-14.5
281.664	12.06
281.88	-23.82
282.096	-10.61
282.312	-9.45
282.528	17.54
282.744	28.16
282.96	43.1
283.176	35.56
283.392	23.5
283.608	-1.58
283.824	-9.39
284.04	-0.57
284.256	3.67
284.471	9.65
284.687	24.06
284.903	35.28
285.119	36.49
285.335	19.37
285.551	18.4
285.767	-2.44
285.982	1.86
286.198	-31.86
286.414	3.07
286.63	7.35
286.846	5.83
287.061	-12.17
287.277	14.36
287.493	-7.19
287.709	-5.53
287.924	-1.64
288.14	27.37
288.356	24.21
288.571	36.42
288.787	24.08
289.003	26.92
289.218	6.98
289.434	-21.85
289.65	-28.56
289.865	-37.06
290.081	-30.42
290.296	-25.52
290.512	-4.43
290.727	-30.4
290.943	-19.33
291.159	-21.73
291.374	-20.58
291.59	-23.79
291.805	0.19
292.021	8.07
292.236	8.45
292.451	17.45
292.667	27.94
292.882	25.52
293.098	17.68
293.313	7.47
293.529	-11.16
293.744	-47.18
293.959	-45.85
294.175	-43.52
294.39	-15.07
294.605	-6.39
294.821	-1.26
295.036	8.89
295.251	14.84
295.467	5.65
295.682	-0.34
295.897	-14.58
296.112	-24.43
296.328	-36.37
296.543	-63.34
296.758	-62.77
296.973	-27.33
297.188	-10
297.404	-31.16
297.619	-40.39
297.834	-37.72
298.049	-67.24
298.264	-77.61
298.479	-26.76
298.694	-24.33
298.909	-12.61
299.125	-3.72
299.34	-4.03
299.555	-23.8
299.77	-11.39
299.985	-47.41
300.2	-77.88
300.415	-88.46
300.63	-58.42
300.845	-52.79
301.06	-42.8
301.275	-19.01
301.49	3.05
301.704	-4.51
301.919	-21.08
302.134	-26.79
302.349	-26.05
302.564	-70.94
302.779	-98.23
302.994	-126.88
303.209	-73.83
303.423	-38.26
303.638	10.96
303.853	-15.97
304.068	-8.31
304.283	-5.6
304.497	-16.29
304.712	-34.4
304.927	-19.93
305.142	-13.6
305.356	-19.49
305.571	-26.04
305.786	-29.89
306	-41.08
306.215	-57.43
306.43	-62.54
306.644	-61.55
306.859	-51.84
307.074	-13.8
307.288	-13.19
307.503	-19.62
307.717	-9.08
307.932	-12.92
308.147	-18.55
308.361	3.64
308.576	1.35
308.79	-24.36
309.005	-22.66
309.219	-12.57
309.434	-32.19
309.648	-23.51
309.863	-1.23
310.077	18
310.292	6.34
310.506	0.03
310.72	4.87
310.935	5.33
311.149	-7.26
311.364	4.94
311.578	22.18
311.792	15.04
312.007	14.6
312.221	3.81
312.435	-6.49
312.649	-19.55
312.864	-29.61
313.078	-32.27
313.292	15.99
313.507	11
313.721	-5.22
313.935	0.59
314.149	-7.83
314.363	-23.65
314.578	-11.74
314.792	3.64
315.006	0.31
315.22	16.42
315.434	25.04
315.648	15.11
315.862	18.73
316.077	21.51
316.291	-1.4
316.505	-14.74
316.719	-23.67
316.933	-33.5
317.147	-30.96
317.361	-58.65
317.575	-69.15
317.789	-86.03
318.003	-160.06
318.217	-132.21
318.431	-48.11
318.645	-14.71
318.859	-10.18
319.073	11.88
319.287	8.12
319.5	-12.56
319.714	-33.14
319.928	-37.58
320.142	-62.51
320.356	-45.86
320.57	-24.13
320.784	-31.66
320.997	-53.41
321.211	-48.94
321.425	-61.36
321.639	-83.76
321.853	-41.75
322.066	-8.72
322.28	-0.3
322.494	0.03
322.707	26.55
322.921	22.73
323.135	8.99
323.349	14.51
323.562	8.27
323.776	-5.61
323.989	-1.95
324.203	-16.02
324.417	-32.85
324.63	-46.97
324.844	-53.2
325.057	-56.28
325.271	-31.58
325.485	-7.43
325.698	11.19
325.912	26.96
326.125	1.3
326.339	0.78
326.552	-18.63
326.766	-35.15
326.979	-42.55
327.193	-1.34
327.406	-10.53
327.619	-7.99
327.833	6.7
328.046	0.49
328.26	-36.31
328.473	-20.56
328.686	-30.81
328.9	-48.98
329.113	-39.99
329.326	-35.22
329.54	-29.73
329.753	-37.46
329.966	-42.02
330.179	-43.74
330.393	-28.45
330.606	-26.11
330.819	-9.92
331.032	2.68
331.246	8.12
331.459	26.52
331.672	26.77
331.885	25.92
332.098	14.32
332.311	9.54
332.525	-41.18
332.738	-46.96
332.951	-27.22
333.164	14.77
333.377	11.94
333.59	39.43
333.803	43.99
334.016	21.2
334.229	-12.92
334.442	-11.82
334.655	1.75
334.868	2.5
335.081	27.24
335.294	21.64
335.507	23.29
335.72	7.73
335.933	6.86
336.146	-5.49
336.359	1.03
336.572	-10.34
336.785	-41.84
336.997	-44.07
337.21	-29.86
337.423	-26.47
337.636	-22.83
337.849	-11.5
338.062	-20.55
338.274	-5.93
338.487	-1.28
338.7	-7.21
338.913	-25.93
339.125	-42.67
339.338	-90.18
339.551	-98.35
339.763	-48.46
339.976	-21.3
340.189	-7.96
340.402	2.88
340.614	14.89
340.827	1.78
341.039	0.22
341.252	2.65
341.465	5.04
341.677	-1.18
341.89	-32.48
342.102	-19.25
342.315	-27.65
342.527	-46.46
342.74	-33.05
342.952	-14.49
343.165	-6.23
343.377	5.92
343.59	-2.1
343.802	-1.35
344.015	-1.16
344.227	-16.68
344.44	-11.6
344.652	6.65
344.864	-4.72
345.077	14.39
345.289	15.54
345.502	5.29
345.714	3.96
345.926	4.32
346.139	-3.13
346.351	-1.78
346.563	9.96
346.775	4.38
346.988	-0.53
347.2	-22.89
347.412	-58.96
347.624	-85.5
347.837	-112.43
348.049	-92.91
348.261	-48.97
348.473	-24.94
348.685	-7.1
348.897	-9.23
349.11	-24.47
349.322	-53.69
349.534	-42.43
349.746	-47.26
349.958	-42.66
350.17	-28.29
350.382	-1.53
350.594	-8.82
350.806	9
351.018	21.07
351.23	9.31
351.442	-23.04
351.654	-6.95
351.866	-17.14
352.078	-15.45
352.29	0.95
352.502	17.27
352.714	14.11
352.926	11.46
353.138	3.75
353.35	-4.73
353.561	-0.64
353.773	-18.26
353.985	-9.78
354.197	-11.27
354.409	-11.17
354.621	-18.43
354.832	0.02
355.044	-3.15
355.256	-0.25
355.468	9.35
355.679	4.7
355.891	6.97
356.103	-14.31
356.314	1.54
356.526	-16.1
356.738	-25.44
356.949	-36.81
357.161	-26.27
357.373	-39.93
357.584	-27.22
357.796	-6.06
358.008	-11.4
358.219	10.84
358.431	6.9
358.642	-5.86
358.854	-18.15
359.065	-26.41
359.277	-60.65
359.488	-60.31
359.7	-56.3
359.911	-53.3
360.123	-32.18
360.334	-30.05
360.546	-29.74
360.757	-30.06
360.969	-29.79
361.18	-11.86
361.391	18.35
361.603	13.5
361.814	18.02
362.025	17.19
362.237	-2.19
362.448	-17.59
362.659	-5.29
362.871	-2.86
363.082	5.44
363.293	4.55
363.504	2.63
363.716	-18.63
363.927	-24.1
364.138	-49.73
364.349	-54.97
364.56	-36.18
364.772	-13.59
364.983	10
365.194	26.54
365.405	42.91
365.616	47.44
365.827	48.19
366.038	30.4
366.25	21.5
366.461	-9.56
366.672	-3.04
366.883	8.86
367.094	6.5
367.305	4.13
367.516	17.27
367.727	7.41
367.938	-1.46
368.149	1.5
368.36	6.89
368.571	6.13
368.781	-11.62
368.992	-28.54
369.203	-42.09
369.414	-42.2
369.625	-56.28
369.836	-47.63
370.047	-58.14
370.258	-46.02
370.468	-57.15
370.679	-55.48
370.89	-46.3
371.101	-33.83
371.312	-39.74
371.522	-41.99
371.733	-25.47
371.944	-17.25
372.155	-9.98
372.365	-1.4
372.576	4.1
372.787	-15.1
372.997	-33.53
373.208	-28.69
373.419	-25.06
373.629	-48.79
373.84	-45.03
374.05	-37.79
374.261	-45.61
374.472	-45.4
374.682	-8.72
374.893	9.16
375.103	32.44
375.314	35.19
375.524	26.36
375.735	24.31
375.945	24.18
376.156	3.47
376.366	6.09
376.577	13.61
376.787	7.69
376.997	-6.52
377.208	-11.19
377.418	-22.88
377.629	-20.44
377.839	-15.35
378.049	-6.87
378.26	10.82
378.47	16.92
378.68	11.11
378.89	11.63
379.101	12.46
379.311	-14.88
379.521	-27.78
379.732	-32.48
379.942	-42.05
380.152	-62.53
380.362	-27.05
380.572	-16.1
380.783	5.81
380.993	16.51
381.203	24.2
381.413	30.32
381.623	27.98
381.833	12.18
382.043	3.25
382.253	-7.08
382.463	-5.71
382.674	-12.84
382.884	-19.8
383.094	-10.94
383.304	-4.74
383.514	-8.62
383.724	-5.9
383.934	-3.76
384.144	-17.18
384.353	-20.1
384.563	-24.2
384.773	-13.83
384.983	-26.2
385.193	-6.61
385.403	-5.29
385.613	-2.04
385.823	-13.58
386.033	-5.21
386.242	-15.48
386.452	-16.13
386.662	-25.59
386.872	-14.67
387.082	-17.58
387.291	-20.65
387.501	-15.53
387.711	-5.25
387.921	-10.77
388.13	-6.59
388.34	4.46
388.55	-2.8
388.759	-4.45
388.969	1.27
389.179	-2.66
389.388	-3.38
389.598	4.12
389.807	-0.91
390.017	-2.99
390.227	1.79
390.436	0.12
390.646	-1.73
390.855	4.16
391.065	3.17
391.274	-1.29
391.484	-4.86
391.693	-2.69
391.903	-1.41
392.112	4.08
392.322	6.96
392.531	9.26
392.74	9.13
392.95	4.84
393.159	-0.07
393.369	-0.15
393.578	-0.37
393.787	-2.26
393.997	-0.54
394.206	0.34
394.415	0.36
394.625	0.17
394.834	0.54
395.043	1.03
395.252	3.16
395.462	5.25
395.671	6.07
395.88	6.45
396.089	6.29
396.298	4.33
396.508	2.87
396.717	2.29
396.926	2.07
397.135	1.73
397.344	1.65
397.553	2.41
397.762	3.84
397.971	4.4
398.181	4.77
398.39	4.85
398.599	4.66
398.808	3.97
399.017	4.36
399.226	5.5
399.435	6.53
399.644	6.16
399.853	5.67
400.062	5.44
400.27	4.55
400.479	3.69
400.688	3.67
400.897	3.72
401.106	3.45
401.315	3.76
401.524	3.98
401.733	4.12
401.941	4.5
402.15	4.61
402.359	4.25
402.568	4.47
402.777	4.57
402.985	4.53
403.194	4.64
403.403	4.65
403.612	4.24
403.82	4.1
404.029	4.17
404.238	4.18
404.446	4.62
404.655	4.6
404.864	4.62
405.072	4.25
405.281	4.06
405.489	3.76
405.698	3.77
405.906	3.8
406.115	3.99
406.324	4.07
406.532	4.14
406.741	4.42
406.949	4.46
407.158	4.46
407.366	4.62
407.574	4.67
407.783	4.62
407.991	4.52
408.2	4.59
408.408	4.43
408.617	4.26
408.825	4.1
409.033	4.21
409.242	4.25
409.45	4.37
409.658	4.36
409.867	4.56
410.075	4.35
410.283	4.19
410.491	4.11
410.7	4.05
410.908	3.82
411.116	4.06
411.324	4.04
411.533	3.84
411.741	4.04
411.949	4.08
412.157	3.82
412.365	3.86
412.573	4.11
412.781	4.11
412.99	4.02
413.198	4.15
413.406	4.13
413.614	3.98
413.822	3.82
414.03	3.97
414.238	3.84
414.446	3.95
414.654	3.91
414.862	4.02
415.07	4
415.278	4.28
415.486	4.06
415.694	4.18
415.902	4.04
416.109	3.86
416.317	3.66
416.525	3.65
416.733	3.43
416.941	3.62
417.149	3.75
417.357	3.78
417.564	3.83
417.772	4.01
417.98	3.78
418.188	3.73
418.395	3.74
418.603	3.82
418.811	3.59
419.019	3.69
419.226	3.68
419.434	3.9
419.642	3.68
419.849	3.85
420.057	3.76
420.265	3.8
420.472	3.45
420.68	3.65
420.887	3.6
421.095	3.69
421.302	3.57
421.51	3.68
421.717	3.72
421.925	3.75
422.132	3.71
422.34	3.63
422.547	3.76
422.755	3.65
422.962	3.46
423.17	3.35
423.377	3.42
423.585	3.3
423.792	3.24
423.999	3.39
424.207	3.38
424.414	3.51
424.621	3.52
424.829	3.59
425.036	3.54
425.243	3.7
425.451	3.42
425.658	3.3
425.865	3.19
426.072	3.18
426.28	3.36
426.487	3.43
426.694	3.45
426.901	3.5
427.108	3.5
427.315	3.26
427.523	3.41
427.73	3.38
427.937	3.36
428.144	3.26
428.351	3.15
428.558	3.13
428.765	3.04
428.972	2.99
429.179	3.2
429.386	3.52
429.593	3.42
429.8	3.46
430.007	3.56
430.214	3.61
430.421	3.53
430.628	3.5
430.835	3.47
431.042	3.52
431.249	3.5
431.456	3.4
431.662	3.46
431.869	3.63
432.076	3.8
432.283	3.88
432.49	3.82
432.697	3.87
432.903	3.74
433.11	3.61
433.317	3.57
433.524	3.81
433.73	3.86
433.937	4.03
434.144	3.94
434.35	3.94
434.557	3.76
434.764	3.78
434.97	3.74
435.177	3.9
435.384	3.87
435.59	4.03
435.797	4.12
436.003	4.22
436.21	4.16
436.416	4.15
436.623	4.14
436.829	4.11
437.036	4.15
437.242	4.2
437.449	4.2
437.655	4.31
437.862	4.39
438.068	4.29
438.275	4.43
438.481	4.62
438.687	4.46
438.894	4.44
439.1	4.52
439.307	4.57
439.513	4.49
439.719	4.57
439.926	4.64
440.132	4.67
440.338	4.55
440.544	4.61
440.751	4.58
440.957	4.6
441.163	4.54
441.369	4.62
441.575	4.6
441.782	4.65
441.988	4.51
442.194	4.56
442.4	4.6
442.606	4.75
442.812	4.85
443.018	4.94
443.224	4.96
443.431	4.94
443.637	4.79
443.843	4.72
444.049	4.72
444.255	4.67
444.461	4.71
444.667	4.78
444.873	4.86
445.079	4.95
445.284	5.06
445.49	4.91
445.696	4.77
445.902	4.64
446.108	4.61
446.314	4.52
446.52	4.59
446.726	4.81
446.931	4.91
447.137	4.99
447.343	5.11
447.549	5.12
447.755	5.01
447.96	4.96
448.166	4.81
448.372	4.75
448.578	4.81
448.783	4.82
448.989	4.94
449.195	5.1
449.4	5.07
449.606	5.07
449.812	5.06
450.017	5.04
450.223	5.02
450.428	4.98
450.634	5.01
450.84	5.04
451.045	5.04
451.251	4.98
451.456	5.29
451.662	5.32
451.867	5.39
452.073	5.37
452.278	5.46
452.483	5.49
452.689	5.51
452.894	5.49
453.1	5.46
453.305	5.36
453.51	5.21
453.716	5.09
453.921	5.13
454.127	5.13
454.332	5.17
454.537	5.11
454.742	5.13
454.948	5.03
455.153	5.13
455.358	5.23
455.563	5.31
455.769	5.35
455.974	5.37
456.179	5.27
456.384	5.16
456.589	5.18
456.795	5.18
457	5.22
457.205	5.34
457.41	5.38
457.615	5.35
457.82	5.33
458.025	5.25
458.23	5.2
458.435	5.21
458.64	5.22
458.845	5.41
459.05	5.56
459.255	5.54
459.46	5.64
459.665	5.6
459.87	5.5
460.075	5.47
460.28	5.54
460.485	5.61
460.69	5.58
460.895	5.57
461.099	5.52
461.304	5.51
461.509	5.37
461.714	5.42
461.919	5.55
462.123	5.45
462.328	5.51
462.533	5.53
462.738	5.61
462.942	5.45
463.147	5.62
463.352	5.57
463.556	5.64
463.761	5.68
463.966	5.73
464.17	5.71
464.375	5.76
464.58	5.72
464.784	5.69
464.989	5.72
465.193	5.77
465.398	5.7
465.602	5.73
465.807	5.69
466.011	5.76
466.216	5.72
466.42	5.78
466.625	5.89
466.829	6.03
467.034	5.99
467.238	6.12
467.443	6.17
467.647	6
467.851	5.96
468.056	6.02
468.26	5.97
468.464	5.97
468.669	6.12
468.873	6.13
469.077	6.05
469.282	6.13
469.486	6.15
469.69	6.2
469.894	6.12
470.099	6.13
470.303	6.16
470.507	6.13
470.711	6.03
470.915	6.1
471.119	6.05
471.324	6
471.528	6
471.732	6.06
471.936	6.01
472.14	6.09
472.344	6.12
472.548	6.09
472.752	6.22
472.956	6.39
473.16	6.41
473.364	6.33
473.568	6.4
473.772	6.34
473.976	6.19
474.18	6.19
474.384	6.29
474.588	6.29
474.792	6.24
474.995	6.3
475.199	6.44
475.403	6.39
475.607	6.42
475.811	6.42
476.015	6.49
476.218	6.49
476.422	6.48
476.626	6.52
476.83	6.6
477.033	6.61
477.237	6.52
477.441	6.59
477.644	6.58
477.848	6.55
478.052	6.48
478.255	6.54
478.459	6.5
478.663	6.56
478.866	6.63
479.07	6.7
479.273	6.75
479.477	6.84
479.681	6.8
479.884	6.76
480.088	6.71
480.291	6.68
480.495	6.67
480.698	6.67
480.901	6.73
481.105	6.86
481.308	6.85
481.512	6.88
481.715	6.94
481.919	6.94
482.122	6.86
482.325	6.87
482.529	6.93
482.732	6.89
482.935	6.85
483.138	6.8
483.342	6.8
483.545	6.78
483.748	6.86
483.952	6.87
484.155	7.07
484.358	7.09
484.561	7.09
484.764	7
484.967	7.07
485.171	6.97
485.374	6.98
485.577	7.03
485.78	7.11
485.983	7.07
486.186	7.06
486.389	7.08
486.592	7.01
486.795	7.01
486.998	7.06
487.201	7.11
487.404	7.11
487.607	7.15
487.81	7.15
488.013	7.15
488.216	7.12
488.419	7.15
488.622	7.13
488.825	7.11
489.028	7.09
489.231	7.07
489.433	6.99
489.636	7.01
489.839	6.96
490.042	6.91
490.245	6.95
490.447	7.06
490.65	7.03
490.853	7.08
491.056	7.18
491.258	7.16
491.461	7.23
491.664	7.32
491.866	7.33
492.069	7.38
492.272	7.37
492.474	7.39
492.677	7.45
492.879	7.52
493.082	7.54
493.285	7.68
493.487	7.71
493.69	7.68
493.892	7.66
494.095	7.73
494.297	7.75
494.5	7.71
494.702	7.67
494.905	7.7
495.107	7.68
495.309	7.66
495.512	7.74
495.714	7.91
495.917	8.02
496.119	8.02
496.321	8.1
496.524	8.14
496.726	8.09
496.928	8.06
497.13	8.04
497.333	8.01
497.535	8.01
497.737	8.01
497.939	8.03
498.142	8.1
498.344	8.14
498.546	8.11
498.748	8.21
498.95	8.36
499.152	8.44
499.355	8.52
499.557	8.64
499.759	8.7
499.961	8.62
500.163	8.58
500.365	8.59
500.567	8.61
500.769	8.55
500.971	8.66
501.173	8.73
501.375	8.76
501.577	8.73
501.779	8.79
501.981	8.72
502.183	8.67
502.385	8.7
502.587	8.65
502.788	8.65
502.99	8.8
503.192	8.89
503.394	8.8
503.596	8.86
503.798	8.92
503.999	8.88
504.201	8.81
504.403	8.88
504.605	8.9
504.806	8.87
505.008	8.84
505.21	8.92
505.411	8.91
505.613	8.92
505.815	8.91
506.016	8.95
506.218	8.95
506.42	8.96
506.621	8.95
506.823	8.97
507.024	8.91
507.226	8.89
507.427	8.86
507.629	8.88
507.83	8.88
508.032	8.85
508.233	8.92
508.435	8.94
508.636	8.96
508.838	8.88
509.039	8.92
509.24	8.84
509.442	8.84
509.643	8.8
509.845	8.84
510.046	8.89
510.247	8.86
510.448	8.82
510.65	8.84
510.851	8.93
511.052	8.89
511.254	8.94
511.455	9
511.656	9
511.857	8.99
512.058	8.97
512.26	8.95
512.461	8.92
512.662	8.94
512.863	8.83
513.064	8.86
513.265	8.86
513.466	8.91
513.667	8.86
513.868	8.91
514.069	8.91
514.27	8.87
514.471	8.8
514.672	8.82
514.873	8.74
515.074	8.79
515.275	8.79
515.476	8.8
515.677	8.75
515.878	8.86
516.079	8.78
516.28	8.79
516.481	8.87
516.682	8.86
516.882	8.79
517.083	8.75
517.284	8.73
517.485	8.65
517.686	8.66
517.886	8.64
518.087	8.66
518.288	8.74
518.488	8.76
518.689	8.76
518.89	8.72
519.091	8.78
519.291	8.72
519.492	8.72
519.692	8.7
519.893	8.83
520.094	8.8
520.294	8.81
520.495	8.79
520.695	8.86
520.896	8.83
521.096	8.78
521.297	8.81
521.497	8.82
521.698	8.81
521.898	8.72
522.099	8.76
522.299	8.77
522.499	8.75
522.7	8.77
522.9	8.83
523.101	8.91
523.301	8.98
523.501	8.96
523.702	8.94
523.902	9.01
524.102	9
524.302	8.88
524.503	9.02
524.703	9.04
524.903	9.01
525.103	8.97
525.304	8.99
525.504	8.95
525.704	8.99
525.904	8.97
526.104	8.99
526.304	9.06
526.504	9.09
526.705	9.03
526.905	9.07
527.105	9.04
527.305	8.95
527.505	8.87
527.705	8.9
527.905	8.84
528.105	8.85
528.305	8.91
528.505	9.01
528.705	9.06
528.905	9.1
529.105	9.13
529.304	9.13
529.504	9.13
529.704	9.06
529.904	9.06
530.104	9.02
530.304	9.03
530.503	8.96
530.703	8.99
530.903	8.99
531.103	9.04
531.303	9.02
531.502	9.08
531.702	9.12
531.902	9.16
532.101	9.13
532.301	9.18
532.501	9.21
532.7	9.23
532.9	9.27
533.1	9.31
533.299	9.36
533.499	9.33
533.698	9.25
533.898	9.18
534.097	9.22
534.297	9.2
534.496	9.21
534.696	9.25
534.895	9.38
535.095	9.42
535.294	9.41
535.494	9.39
535.693	9.42
535.892	9.39
536.092	9.34
536.291	9.31
536.491	9.38
536.69	9.42
536.889	9.42
537.088	9.43
537.288	9.51
537.487	9.53
537.686	9.57
537.886	9.61
538.085	9.62
538.284	9.71
538.483	9.72
538.682	9.75
538.882	9.77
539.081	9.84
539.28	9.72
539.479	9.73
539.678	9.7
539.877	9.77
540.076	9.73
540.275	9.79
540.474	9.74
540.673	9.79
540.872	9.7
541.071	9.78
541.27	9.81
541.469	9.92
541.668	9.93
541.867	10.01
542.066	10.04
542.265	10.1
542.464	10.12
542.663	10.1
542.862	10.17
543.06	10.21
543.259	10.21
543.458	10.22
543.657	10.27
543.856	10.31
544.054	10.3
544.253	10.27
544.452	10.36
544.651	10.44
544.849	10.39
545.048	10.43
545.247	10.52
545.445	10.51
545.644	10.52
545.843	10.55
546.041	10.59
546.24	10.65
546.438	10.69
546.637	10.71
546.836	10.8
547.034	10.9
547.233	10.91
547.431	10.9
547.63	10.95
547.828	10.93
548.027	10.89
548.225	10.89
548.423	10.91
548.622	11.01
548.82	11.07
549.019	11.13
549.217	11.21
549.415	11.28
549.614	11.29
549.812	11.31
550.01	11.33
550.209	11.45
550.407	11.56
550.605	11.55
550.803	11.68
551.002	11.71
551.2	11.73
551.398	11.72
551.596	11.82
551.794	11.88
551.993	11.95
552.191	11.96
552.389	12.19
552.587	12.28
552.785	12.32
552.983	12.41
553.181	12.5
553.379	12.43
553.577	12.48
553.775	12.56
553.973	12.6
554.171	12.7
554.369	12.74
554.567	12.78
554.765	12.83
554.963	12.95
555.161	12.91
555.359	12.99
555.557	13.05
555.755	13.11
555.952	13.16
556.15	13.3
556.348	13.4
556.546	13.51
556.744	13.56
556.941	13.56
557.139	13.6
557.337	13.61
557.535	13.62
557.732	13.75
557.93	13.88
558.128	13.98
558.325	14.09
558.523	14.16
558.721	14.2
558.918	14.24
559.116	14.33
559.313	14.37
559.511	14.53
559.708	14.52
559.906	14.63
560.104	14.7
560.301	14.85
560.498	14.85
560.696	14.98
560.893	15.02
561.091	15.15
561.288	15.28
561.486	15.4
561.683	15.51
561.88	15.63
562.078	15.69
562.275	15.72
562.473	15.8
562.67	15.93
562.867	16.04
563.064	16.1
563.262	16.14
563.459	16.2
563.656	16.27
563.853	16.28
564.051	16.38
564.248	16.51
564.445	16.69
564.642	16.79
564.839	16.95
565.036	17.12
565.234	17.2
565.431	17.19
565.628	17.23
565.825	17.31
566.022	17.36
566.219	17.42
566.416	17.48
566.613	17.65
566.81	17.72
567.007	17.69
567.204	17.72
567.401	17.88
567.598	17.87
567.795	17.93
567.991	18.02
568.188	18.19
568.385	18.17
568.582	18.18
568.779	18.24
568.976	18.37
569.172	18.45
569.369	18.53
569.566	18.64
569.763	18.73
569.96	18.7
570.156	18.67
570.353	18.67
570.55	18.76
570.746	18.82
570.943	18.84
571.14	18.85
571.336	18.93
571.533	18.98
571.729	18.94
571.926	19.07
572.123	19.26
572.319	19.31
572.516	19.31
572.712	19.37
572.909	19.39
573.105	19.34
573.302	19.39
573.498	19.49
573.695	19.43
573.891	19.48
574.087	19.48
574.284	19.51
574.48	19.49
574.677	19.61
574.873	19.58
575.069	19.72
575.266	19.78
575.462	19.78
575.658	19.78
575.854	19.83
576.051	19.81
576.247	19.7
576.443	19.64
576.639	19.66
576.835	19.56
577.032	19.53
577.228	19.65
577.424	19.68
577.62	19.7
577.816	19.86
578.012	19.85
578.208	19.85
578.404	19.97
578.6	20
578.796	19.95
578.993	19.93
579.189	19.82
579.384	19.76
579.58	19.68
579.776	19.62
579.972	19.63
580.168	19.59
580.364	19.64
580.56	19.64
580.756	19.62
580.952	19.64
581.148	19.67
581.343	19.61
581.539	19.66
581.735	19.64
581.931	19.65
582.127	19.67
582.322	19.68
582.518	19.64
582.714	19.66
582.909	19.62
583.105	19.57
583.301	19.52
583.496	19.5
583.692	19.53
583.888	19.46
584.083	19.58
584.279	19.59
584.474	19.66
584.67	19.66
584.866	19.66
585.061	19.46
585.257	19.56
585.452	19.45
585.648	19.46
585.843	19.44
586.039	19.49
586.234	19.42
586.429	19.41
586.625	19.42
586.82	19.53
587.015	19.61
587.211	19.48
587.406	19.52
587.601	19.55
587.797	19.45
587.992	19.37
588.187	19.5
588.383	19.45
588.578	19.39
588.773	19.47
588.968	19.52
589.163	19.53
589.359	19.56
589.554	19.51
589.749	19.52
589.944	19.62
590.139	19.61
590.334	19.61
590.529	19.68
590.724	19.64
590.919	19.65
591.114	19.72
591.309	19.82
591.504	19.9
591.699	19.97
591.894	19.94
592.089	19.87
592.284	19.91
592.479	19.95
592.674	19.94
592.869	20.01
593.064	20.13
593.259	20.21
593.454	20.29
593.648	20.37
593.843	20.36
594.038	20.45
594.233	20.47
594.428	20.49
594.622	20.52
594.817	20.72
595.012	20.72
595.206	20.81
595.401	20.79
595.596	20.93
595.79	20.97
595.985	21.16
596.18	21.19
596.374	21.35
596.569	21.39
596.763	21.43
596.958	21.36
597.153	21.36
597.347	21.38
597.542	21.45
597.736	21.39
597.931	21.49
598.125	21.58
598.319	21.65
598.514	21.72
598.708	21.86
598.903	21.9
599.097	22.01
599.291	22.12
599.486	22.07
599.68	22.15
599.874	22.28
600.069	22.26
600.263	22.29
600.457	22.44
600.651	22.38
600.846	22.45
601.04	22.56
601.234	22.58
601.428	22.67
601.622	22.82
601.817	22.69
602.011	22.65
602.205	22.7
602.399	22.66
602.593	22.61
602.787	22.71
602.981	22.66
603.175	22.6
603.369	22.64
603.563	22.71
603.757	22.74
603.951	22.89
604.145	22.96
604.339	23.02
604.533	22.9
604.727	22.82
604.921	22.74
605.115	22.76
605.309	22.74
605.502	22.76
605.696	22.75
605.89	22.7
606.084	22.57
606.278	22.4
606.471	22.34
606.665	22.22
606.859	22.12
607.053	22.07
607.246	22.05
607.44	22.04
607.634	22.07
607.827	22.12
608.021	22.03
608.214	22.05
608.408	21.96
608.602	21.87
608.795	21.82
608.989	21.74
609.182	21.6
609.376	21.56
609.569	21.43
609.763	21.28
609.956	21.22
610.15	21.12
610.343	21.09
610.537	21.06
610.73	21.01
610.923	20.99
611.117	20.99
611.31	20.89
611.504	20.83
611.697	20.8
611.89	20.7
612.083	20.6
612.277	20.52
612.47	20.53
612.663	20.46
612.856	20.41
613.05	20.39
613.243	20.37
613.436	20.32
613.629	20.24
613.822	20.08
614.015	19.92
614.209	19.79
614.402	19.65
614.595	19.58
614.788	19.63
614.981	19.56
615.174	19.52
615.367	19.43
615.56	19.34
615.753	19.18
615.946	19.14
616.139	19.02
616.332	19.05
616.525	19.06
616.718	19.05
616.911	19.06
617.103	19.02
617.296	18.92
617.489	18.85
617.682	18.82
617.875	18.73
618.067	18.67
618.26	18.62
618.453	18.66
618.646	18.72
618.838	18.72
619.031	18.86
619.224	18.77
619.417	18.67
619.609	18.6
619.802	18.57
619.994	18.42
620.187	18.5
620.38	18.45
620.572	18.33
620.765	18.35
620.957	18.35
621.15	18.22
621.342	18.24
621.535	18.29
621.727	18.15
621.92	18.09
622.112	18.07
622.305	18.03
622.497	17.95
622.69	17.94
622.882	17.93
623.074	17.97
623.267	17.92
623.459	17.88
623.651	17.86
623.844	17.84
624.036	17.81
624.228	17.77
624.42	17.79
624.613	17.83
624.805	17.8
624.997	17.8
625.189	17.82
625.381	17.83
625.574	17.77
625.766	17.7
625.958	17.68
626.15	17.65
626.342	17.58
626.534	17.63
626.726	17.68
626.918	17.65
627.11	17.59
627.302	17.56
627.494	17.42
627.686	17.37
627.878	17.27
628.07	17.35
628.262	17.28
628.454	17.33
628.646	17.34
628.838	17.43
629.029	17.31
629.221	17.35
629.413	17.24
629.605	17.08
629.797	16.96
629.989	16.93
630.18	16.92
630.372	16.9
630.564	16.97
630.755	16.98
630.947	17.02
631.139	16.92
631.33	16.9
631.522	16.97
631.714	16.93
631.905	16.89
632.097	16.9
632.289	16.85
632.48	16.72
632.672	16.73
632.863	16.66
633.055	16.7
633.246	16.77
633.438	16.69
633.629	16.62
633.821	16.67
634.012	16.51
634.203	16.35
634.395	16.35
634.586	16.35
634.777	16.19
634.969	16.25
635.16	16.41
635.351	16.38
635.543	16.45
635.734	16.49
635.925	16.45
636.117	16.42
636.308	16.45
636.499	16.31
636.69	16.26
636.881	16.2
637.073	16.2
637.264	16.18
637.455	16.23
637.646	16.37
637.837	16.47
638.028	16.45
638.219	16.47
638.41	16.43
638.601	16.26
638.792	16.2
638.983	16.07
639.174	16.05
639.365	16.08
639.556	16.09
639.747	16.05
639.938	16.22
640.129	16.16
640.32	16.07
640.511	16.1
640.701	16.15
640.892	16.03
641.083	16.09
641.274	16.11
641.465	16.01
641.655	15.98
641.846	15.88
642.037	15.83
642.228	15.84
642.418	16
642.609	15.92
642.8	16.03
642.99	16.01
643.181	15.95
643.372	15.85
643.562	15.94
643.753	15.87
643.943	15.84
644.134	15.74
644.324	15.78
644.515	15.71
644.705	15.7
644.896	15.61
645.086	15.66
645.277	15.57
645.467	15.59
645.658	15.53
645.848	15.57
646.038	15.58
646.229	15.53
646.419	15.39
646.61	15.38
646.8	15.37
646.99	15.36
647.18	15.3
647.371	15.37
647.561	15.36
647.751	15.33
647.941	15.26
648.132	15.3
648.322	15.21
648.512	15.26
648.702	15.19
648.892	15.17
649.082	15.2
649.272	15.1
649.462	14.93
649.653	14.87
649.843	14.81
650.033	14.77
650.223	14.84
650.413	14.78
650.603	14.78
650.793	14.73
650.983	14.65
651.172	14.57
651.362	14.63
651.552	14.49
651.742	14.47
651.932	14.41
652.122	14.37
652.312	14.4
652.502	14.39
652.691	14.35
652.881	14.33
653.071	14.35
653.261	14.13
653.45	14.09
653.64	14.04
653.83	13.99
654.019	13.75
654.209	13.73
654.399	13.68
654.588	13.56
654.778	13.41
654.968	13.35
655.157	13.29
655.347	13.2
655.536	13.14
655.726	13.02
655.915	12.94
656.105	12.76
656.294	12.66
656.484	12.49
656.673	12.39
656.863	12.36
657.052	12.3
657.241	12.17
657.431	11.97
657.62	11.85
657.809	11.53
657.999	11.43
658.188	11.22
658.377	11.18
658.567	11.05
658.756	11.02
658.945	10.84
659.134	10.82
659.324	10.62
659.513	10.48
659.702	10.43
659.891	10.37
660.08	10.17
660.269	10.21
660.458	9.99
660.648	9.83
660.837	9.66
661.026	9.57
661.215	9.34
661.404	9.36
661.593	9.26
661.782	9.13
661.971	9.06
662.16	9.02
662.349	9
662.538	8.93
662.726	8.85
662.915	8.81
663.104	8.76
663.293	8.6
663.482	8.52
663.671	8.47
663.86	8.34
664.048	8.2
664.237	8.23
664.426	8.17
664.615	8.22
664.803	8.06
664.992	7.97
665.181	7.82
665.369	7.78
665.558	7.59
665.747	7.64
665.935	7.79
666.124	7.83
666.312	7.79
666.501	7.72
666.69	7.71
666.878	7.57
667.067	7.42
667.255	7.49
667.444	7.76
667.632	7.75
667.82	7.81
668.009	7.88
668.197	7.8
668.386	7.73
668.574	7.78
668.762	7.82
668.951	7.76
669.139	7.8
669.327	7.68
669.516	7.71
669.704	7.52
669.892	7.66
670.08	7.66
670.269	7.57
670.457	7.57
670.645	7.57
670.833	7.65
671.021	7.66
671.21	7.81
671.398	7.97
671.586	8.04
671.774	7.88
671.962	7.96
672.15	7.93
672.338	7.82
672.526	7.92
672.714	7.91
672.902	7.87
673.09	8.04
673.278	8.18
673.466	8.27
673.654	8.44
673.842	8.47
674.03	8.49
674.218	8.39
674.405	8.38
674.593	8.34
674.781	8.47
674.969	8.49
675.157	8.65
675.344	8.75
675.532	8.89
675.72	9.05
675.908	9.1
676.095	9.02
676.283	9.06
676.471	9.26
676.658	9.17
676.846	9.29
677.033	9.42
677.221	9.44
677.409	9.24
677.596	9.37
677.784	9.34
677.971	9.5
678.159	9.54
678.346	9.63
678.534	9.64
678.721	9.78
678.909	9.66
679.096	9.75
679.283	9.93
679.471	9.98
679.658	9.85
679.846	10.05
680.033	10.2
680.22	10.13
680.408	10.17
680.595	10.34
680.782	10.33
680.969	10.37
681.157	10.53
681.344	10.6
681.531	10.64
681.718	10.7
681.905	10.85
682.093	10.99
682.28	11.24
682.467	11.51
682.654	11.75
682.841	11.83
683.028	12.04
683.215	12.07
683.402	12.09
683.589	12.23
683.776	12.33
683.963	12.3
684.15	12.53
684.337	12.72
684.524	12.82
684.711	13.06
684.898	13.06
685.085	13.25
685.271	13.56
685.458	13.74
685.645	13.92
685.832	14.38
686.019	14.62
686.205	14.67
686.392	15
686.579	15.23
686.766	15.58
686.952	15.76
687.139	16.2
687.326	16.27
687.512	16.48
687.699	16.71
687.886	17.02
688.072	17.27
688.259	17.79
688.445	18.24
688.632	18.45
688.818	18.75
689.005	19.08
689.191	19.31
689.378	19.85
689.564	20.47
689.751	21.04
689.937	21.46
690.124	22.08
690.31	22.3
690.496	22.71
690.683	23.2
690.869	23.75
691.055	24.28
691.242	24.94
691.428	25.55
691.614	26.04
691.8	26.7
691.987	27.24
692.173	27.9
692.359	28.55
692.545	29.28
692.731	29.86
692.918	30.51
693.104	30.97
693.29	31.46
693.476	32.21
693.662	32.8
693.848	33.42
694.034	34.25
694.22	34.94
694.406	35.71
694.592	36.28
694.778	37.08
694.964	37.49
695.15	38.37
695.336	38.77
695.522	39.96
695.708	40.5
695.894	41.32
696.08	42.1
696.265	42.83
696.451	43.18
696.637	44.05
696.823	44.95
697.009	45.57
697.194	45.99
697.38	46.73
697.566	47.32
697.751	47.99
697.937	48.92
698.123	49.96
698.308	50.67
698.494	51.38
698.68	51.8
698.865	52.11
699.051	52.83
699.236	53.39
699.422	54.1
699.607	54.77
699.793	55.5
699.978	55.75
700.164	56.27
700.349	56.84
700.535	57.65
700.72	58.18
700.906	58.98
701.091	59.78
701.276	60.44
701.462	61.42
701.647	62.19
701.832	63
702.018	63.65
702.203	63.89
702.388	63.71
702.573	64.17
702.759	64.66
702.944	64.99
703.129	65.12
703.314	66.05
703.499	66.27
703.684	66.39
703.87	67.27
704.055	68.34
704.24	68.79
704.425	69.47
704.61	70.13
704.795	70.14
704.98	70.41
705.165	70.8
705.35	71.31
705.535	71.85
705.72	72.51
705.905	73.26
706.09	73.76
706.275	73.96
706.459	74.18
706.644	74.08
706.829	74.34
707.014	74.46
707.199	74.98
707.384	75.39
707.568	75.77
707.753	76.28
707.938	76.65
708.123	76.73
708.307	76.89
708.492	77.42
708.677	77.69
708.861	77.69
709.046	77.71
709.231	78.29
709.415	78.74
709.6	78.5
709.784	78.73
709.969	79.22
710.153	79.38
710.338	79.36
710.522	79.91
710.707	80.59
710.891	80.89
711.076	81.1
711.26	81.27
711.445	81.78
711.629	82.03
711.813	82.51
711.998	82.88
712.182	83.34
712.366	83.71
712.551	84.2
712.735	84.18
712.919	83.74
713.103	83.88
713.288	83.73
713.472	83.38
713.656	83.98
713.84	84.34
714.024	84.66
714.208	84.79
714.393	85.27
714.577	84.68
714.761	85.17
714.945	84.97
715.129	85.32
715.313	85.37
715.497	85.75
715.681	86.11
715.865	86.66
716.049	86.5
716.233	86.38
716.417	86.77
716.601	86.94
716.785	86.83
716.968	87.21
717.152	87.34
717.336	87.18
717.52	86.98
717.704	87.16
717.888	87.24
718.071	87.73
718.255	88.43
718.439	88.44
718.622	88.41
718.806	88.53
718.99	88.12
719.174	87.52
719.357	88.03
719.541	88.21
719.724	88.58
719.908	89.7
720.092	90.41
720.275	90.35
720.459	90.31
720.642	89.87
720.826	88.96
721.009	88.46
721.193	88.17
721.376	88.53
721.559	88.61
721.743	89.08
721.926	89.4
722.11	90.17
722.293	89.68
722.476	90.07
722.66	90.1
722.843	90.46
723.026	89.84
723.21	90.7
723.393	90.45
723.576	90.5
723.759	89.98
723.942	90.51
724.126	90.19
724.309	90.56
724.492	90.56
724.675	90.89
724.858	90.89
725.041	90.94
725.224	91.09
725.407	91.16
725.59	91.91
725.774	91.93
725.957	91.4
726.14	91.41
726.322	91.71
726.505	91.29
726.688	91.34
726.871	91.76
727.054	92.13
727.237	91.99
727.42	92.32
727.603	92.65
727.786	93.28
727.968	93.32
728.151	93.74
728.334	93.38
728.517	93.35
728.699	93.68
728.882	93.15
729.065	93.38
729.248	93.67
729.43	93.63
729.613	94.11
729.796	94.98
729.978	94.21
730.161	93.98
730.343	93.72
730.526	93.6
730.708	91.85
730.891	92.13
731.073	92.32
731.256	92.71
731.438	92.19
731.621	94.15
731.803	94.92
731.986	95
732.168	94.69
732.35	94.94
732.533	94.83
732.715	94.52
732.898	94.94
733.08	95.47
733.262	95.57
733.444	94.94
733.627	94.96
733.809	94.63
733.991	94.27
734.173	94.22
734.355	94.04
734.538	94.28
734.72	94.61
734.902	95.39
735.084	95.8
735.266	95.94
735.448	95.87
735.63	95.53
735.812	95.03
735.994	95.42
736.176	95.64
736.358	95.71
736.54	96.76
736.722	96.27
736.904	95.64
737.086	95.79
737.268	96.65
737.45	96.06
737.632	96.53
737.814	96.2
737.995	96.37
738.177	96.38
738.359	95.97
738.541	96.57
738.723	97.06
738.904	98.09
739.086	97.7
739.268	97.4
739.449	97.64
739.631	96.89
739.813	96.98
739.994	96.82
740.176	98.02
740.358	97.29
740.539	98.19
740.721	97.36
740.902	97.69
741.084	96.8
741.265	96.78
741.447	96.86
741.628	96.7
741.81	95.97
741.991	97.47
742.172	97.5
742.354	98.13
742.535	98.32
742.717	98.76
742.898	99.05
743.079	100.22
743.261	99.45
743.442	99.1
743.623	100.04
743.804	99.32
743.986	98.68
744.167	97.74
744.348	98.27
744.529	97.82
744.71	96.06
744.891	95.34
745.073	95.62
745.254	94.01
745.435	93.54
745.616	94.54
745.797	95.09
745.978	94.95
746.159	96.2
746.34	95.65
746.521	96.66
746.702	96.08
746.883	96.19
747.064	96.88
747.245	97.31
747.426	97.07
747.606	97.27
747.787	97.07
747.968	95.86
748.149	95.32
748.33	94.85
748.51	95.22
748.691	96.16
748.872	96.09
749.053	95.78
749.233	94.69
749.414	93.05
749.595	92.15
749.775	91.54
749.956	91.95
750.137	92.27
750.317	94.4
750.498	94.77
750.678	96.12
750.859	96.52
751.04	95.7
751.22	93.56
751.4	93.27
751.581	92.17
751.761	91.39
751.942	92.48
752.122	93.8
752.303	93.34
752.483	93.66
752.663	94.22
752.844	93.44
753.024	93.52
753.204	95.14
753.385	94.57
753.565	94.95
753.745	94.9
753.925	94.09
754.106	92.29
754.286	93.11
754.466	92.48
754.646	93.21
754.826	92.62
755.006	92.46
755.187	92.44
755.367	92.43
755.547	92.67
755.727	94.29
755.907	95.79
756.087	95.82
756.267	95.21
756.447	94.77
756.627	93.54
756.807	92.26
756.987	90.35
757.167	91.84
757.346	91.76
757.526	92.15
757.706	93.58
757.886	96.59
758.066	95.55
758.246	96.83
758.425	96.87
758.605	96.35
758.785	96
758.965	96.88
759.144	95.36
759.324	95.59
759.504	95.67
759.683	95.13
759.863	94.06
760.043	92.77
760.222	92.14
760.402	91.25
760.581	90.67
760.761	91.47
760.94	93.14
761.12	95
761.299	95.67
761.479	96.54
761.658	95.2
761.838	95.52
762.017	94.32
762.197	94.81
762.376	93.95
762.555	94.32
762.735	94.13
762.914	93.13
763.093	92.07
763.273	91.59
763.452	92.08
763.631	91.58
763.81	92.46
763.99	91.91
764.169	93.01
764.348	91.22
764.527	90.13
764.706	90.11
764.885	91.38
765.064	88.86
765.243	89.87
765.423	91.9
765.602	90.44
765.781	88.39
765.96	88.37
766.139	88.24
766.318	86.84
766.497	88.19
766.676	89.13
766.854	92.18
767.033	92.45
767.212	93.24
767.391	93.39
767.57	94.68
767.749	93.47
767.928	95.33
768.106	95.32
768.285	94.45
768.464	92.5
768.643	92.57
768.821	90.62
769	90.85
769.179	91.34
769.357	92.45
769.536	92.27
769.715	92.84
769.893	92.43
770.072	91.1
770.25	91.83
770.429	92.86
770.607	90.8
770.786	90.72
770.964	92.25
771.143	90.62
771.321	89.43
771.5	90.75
771.678	88.12
771.857	87.46
772.035	86.67
772.213	85.9
772.392	85.35
772.57	87.21
772.748	86.32
772.927	86.52
773.105	85.51
773.283	85.17
773.461	85.5
773.64	87.48
773.818	89.05
773.996	88.78
774.174	88
774.352	88.08
774.531	84.29
774.709	84.24
774.887	86.51
775.065	88.39
775.243	86.79
775.421	88.62
775.599	89.21
775.777	87.13
775.955	84.15
776.133	82.51
776.311	82.5
776.489	80.13
776.667	81.23
776.844	82.41
777.022	84.62
777.2	84.89
777.378	85.44
777.556	85.76
777.734	88.32
777.911	91.27
778.089	90.85
778.267	90.63
778.445	88.38
778.622	86.8
778.8	85.04
778.978	85.35
779.155	85.98
779.333	89.59
779.511	91.33
779.688	92.58
779.866	89.02
780.043	85.02
780.221	81.29
780.398	77.65
780.576	77.2
780.753	80.28
780.931	82.02
781.108	83.81
781.286	86.76
781.463	84.9
781.64	82.25
781.818	82.95
781.995	82.35
782.172	80.34
782.35	81
782.527	84.89
782.704	82.33
782.882	82.14
783.059	83.23
783.236	82.94
783.413	84.22
783.59	87.74
783.768	86.88
783.945	88.96
784.122	86.42
784.299	87.26
784.476	86.12
784.653	86.86
784.83	83.83
785.007	83.11
785.184	80.13
785.361	79.9
785.538	80.92
785.715	85.6
785.892	88.54
786.069	88.33
786.246	89.96
786.423	90.54
786.6	87.68
786.776	84.85
786.953	85.53
787.13	89.79
787.307	88.54
787.484	85.32
787.66	85.57
787.837	85.24
788.014	78.78
788.191	76.57
788.367	77.05
788.544	78.14
788.721	78.87
788.897	82.55
789.074	83.38
789.25	82.17
789.427	84.67
789.603	83.78
789.78	82.17
789.956	82.66
790.133	84.14
790.309	85.6
790.486	86.74
790.662	83.7
790.839	83.12
791.015	82.07
791.192	80.29
791.368	81.24
791.544	81.61
791.721	83.62
791.897	83.54
792.073	81.6
792.249	78.02
792.426	81.27
792.602	81.64
792.778	87
792.954	86.16
793.13	88.04
793.307	80.99
793.483	77.47
793.659	75.61
793.835	80.13
794.011	73.88
794.187	79.77
794.363	81.67
794.539	82.01
794.715	75.5
794.891	79.31
795.067	78.95
795.243	79.91
795.419	73.63
795.595	71.87
795.771	70.48
795.947	70.31
796.122	71.53
796.298	77.61
796.474	82.12
796.65	82.01
796.826	81.77
797.001	77.72
797.177	74.6
797.353	71.26
797.529	70.12
797.704	70.51
797.88	70.86
798.056	66.19
798.231	68.58
798.407	71.91
798.582	72.74
798.758	78.53
798.934	88.94
799.109	86.93
799.285	85.53
799.46	86.1
799.636	79.4
799.811	75.62
799.986	76.19
800.162	79.05
800.337	77.2
800.513	75.46
800.688	71.1
800.863	80.11
801.039	77.37
801.214	75.52
801.389	79.84
801.565	81.2
801.74	71.45
801.915	78.31
802.09	75.83
802.265	77.31
802.441	76.19
802.616	78.44
802.791	75.89
802.966	78.14
803.141	73.47
803.316	73.03
803.491	69.44
803.666	69.4
803.841	68.85
804.016	67.99
804.191	68.23
804.366	70.16
804.541	64.82
804.716	61.6
804.891	62.02
805.066	63.56
805.241	59.62
805.416	60.03
805.591	64.62
805.765	68.76
805.94	66.34
806.115	71.27
806.29	69.53
806.464	66.71
806.639	61.34
806.814	64.43
806.989	56.03
807.163	64.67
807.338	69.95
807.512	68.39
807.687	62.23
807.862	71.38
808.036	65.57
808.211	56.29
808.385	59.61
808.56	69.64
808.734	67.26
808.909	67.22
809.083	67.92
809.258	70.94
809.432	67.67
809.606	61.87
809.781	61.75
809.955	66.94
810.13	71.81
810.304	69.52
810.478	66.88
810.652	66.43
810.827	68.37
811.001	58.24
811.175	54.52
811.349	60.38
811.524	61.03
811.698	54.56
811.872	57.1
812.046	66.04
812.22	63.12
812.394	61.63
812.568	59.46
812.742	63.53
812.916	59.89
813.09	53.62
813.264	57.63
813.438	71.81
813.612	70.63
813.786	66.77
813.96	80.64
814.134	83.06
814.308	77.55
814.482	71.04
814.656	66.91
814.83	65.55
815.003	58.1
815.177	53.48
815.351	51.8
815.525	54.27
815.698	52.41
815.872	52.35
816.046	45.65
816.219	48.23
816.393	59.14
816.567	58.86
816.74	56.27
816.914	65.22
817.088	70.22
817.261	61.59
817.435	47.93
817.608	61.95
817.782	50.37
817.955	54.87
818.129	54.07
818.302	59.32
818.475	61.06
818.649	63.81
818.822	56.01
818.996	60.34
819.169	59.9
819.342	58.5
819.516	69.36
819.689	57.59
819.862	61.06
820.035	62.17
820.209	52.31
820.382	45.58
820.555	57.99
820.728	53.78
820.901	54.42
821.075	59.41
821.248	63.23
821.421	67.88
821.594	67.69
821.767	69.41
821.94	66.43
822.113	52.05
822.286	41.56
822.459	38.02
822.632	34.96
822.805	25.18
822.978	38.19
823.151	48.03
823.324	45.53
823.496	40.98
823.669	47.37
823.842	58.9
824.015	47.5
824.188	52.18
824.361	47.37
824.533	55.98
824.706	37.58
824.879	29.12
825.051	26.98
825.224	21.82
825.397	1.72
825.569	1.16
825.742	28.84
825.915	32.33
826.087	51.94
826.26	49.26
826.432	56.58
826.605	55.89
826.777	57.15
826.95	53.8
827.122	51.71
827.295	39.62
827.467	41.84
827.64	21.65
827.812	20.82
827.984	25.65
828.157	40.1
828.329	18.06
828.501	29.03
828.674	44.33
828.846	43.63
829.018	48.98
829.19	42.46
829.363	57.42
829.535	46.26
829.707	48.15
829.879	29.45
830.051	38.67
830.223	26.09
830.395	1.55
830.568	9.55
830.74	2.69
830.912	20.01
831.084	15.63
831.256	27.06
831.428	15.51
831.6	27.51
831.772	6.65
831.943	3.79
832.115	13.13
832.287	22.43
832.459	31.22
832.631	42.51
832.803	45.62
832.975	62.24
833.146	49.35
833.318	28.66
833.49	30.88
833.662	38.58
833.833	22.51
834.005	32.91
834.177	43.02
834.348	34.16
834.52	15.86
834.692	32.21
834.863	3.12
835.035	-6.42
835.206	-42.57
835.378	-23.59
835.549	-29.03
835.721	13.16
835.892	19.42
836.064	13.51
836.235	18.11
836.407	23.61
836.578	-17.89
836.749	7.11
836.921	-13.08
837.092	-33.63
837.264	-29.58
837.435	-36.69
837.606	-7.45
837.777	19.26
837.949	34.41
838.12	28.3
838.291	37.26
838.462	10.07
838.633	-11.09
838.805	-15.41
838.976	-27.23
839.147	-86.34
839.318	-58.01
839.489	-71.26
839.66	-71.35
839.831	-32.01
840.002	-10.1
840.173	0.05
840.344	56.82
840.515	107.41
840.686	83.79
840.857	69.59
841.028	10.41
841.199	-17.89
841.369	-35.45
841.54	-17.24
841.711	-4.98
841.882	19.14
842.053	28.81
842.223	14.67
842.394	9.98
842.565	14.68
842.736	25.17
842.906	21.34
843.077	58.2
843.248	94.38
843.418	98.47
843.589	61.97
843.759	112.86
843.93	31.03
844.101	20.46
844.271	-0.8
844.442	-4.19
844.612	7.41
844.783	-28.81
844.953	-73.34
845.123	-72.34
845.294	-39.52
845.464	-189.7
845.635	-61.67
845.805	50.95
845.975	22.13
846.146	-20.63
846.316	-24.59
846.486	-2.42
846.656	2.13
846.827	-0.48
846.997	11.28
847.167	15.65
847.337	9.14
847.507	-16.63
847.677	15.66
847.848	43.49
848.018	30.04
848.188	36.71
848.358	24.14
848.528	2.9
848.698	-11.3
848.868	-29.72
849.038	-92.54
849.208	0.06
849.378	35.88
849.548	14.79
849.718	25.42
849.887	33.97
850.057	10.05
850.227	-9.27
850.397	-38.39
850.567	-140.77
850.737	-312.83
850.906	-888.13
851.076	-533.98
851.246	-142.67
851.415	52.74
851.585	19.24
851.755	-2.07
851.924	-5.39
852.094	-61.22
852.264	-163.16
852.433	-988.94
852.603	-178.09
852.772	-114.51
852.942	-5.79
853.111	7.59
853.281	35.19
853.45	33.92
853.62	-20.57
853.789	-40.93
853.959	-68.61
854.128	-54.03
854.297	-50
854.467	-45.91
854.636	-33.49
854.805	-7.03
854.975	-7.87
855.144	-42.6
855.313	-45.8
855.482	-266.79
855.652	-126.58
855.821	-67.88
855.99	36.17
856.159	26.1
856.328	34.87
856.497	25.78
856.667	23.92
856.836	17.34
857.005	10.2
857.174	1.09
857.343	0.51
857.512	40.15
857.681	-17.38
857.85	-49.2
858.019	-8.8
858.188	4.31
858.356	-48.1
858.525	-65.39
858.694	-40.5
858.863	-103.86
859.032	-80.36
859.201	-100.13
859.369	-80.23
859.538	-42.66
859.707	-66.38
859.876	-95.69
860.044	-60.02
860.213	3.26
860.382	-5.52
860.55	14.62
860.719	32.86
860.888	35.04
861.056	14.96
861.225	23.69
861.393	58.1
861.562	72.87
861.73	32.32
861.899	141.62
862.067	394.83
862.236	27.13
862.404	-49.14
862.572	1.9
862.741	27.79
862.909	2.93
863.078	-55.39
863.246	-36.6
863.414	-39.62
863.582	-58.51
863.751	-75.81
863.919	-74.54
864.087	-59.07
864.255	-28.41
864.424	-199.4
864.592	-14.68
864.76	-9.72
864.928	-14
865.096	-129.78
865.264	-81.54
865.432	-980.68
865.6	-28.25
865.768	-51.9
865.936	-40.76
866.104	-73.39
866.272	-101.09
866.44	-306.89
866.608	461.14
866.776	215.67
866.944	1233.72
867.112	-195.55
867.28	-91.22
867.448	-50.92
867.615	-28.84
867.783	-33.32
867.951	-44.47
868.119	-33.19
868.286	-40.73
868.454	-108.29
868.622	-101.55
868.789	-103.57
868.957	-3017.86
869.125	-1727.63
869.292	-45.58
869.46	-104.84
869.627	-2.96
869.795	25.32
869.963	51.2
870.13	36.97
870.298	47.81
870.465	4.64
870.632	-58.07
870.8	-63.35
870.967	-123.26
871.135	-137.33
871.302	-116.61
871.469	-134.62
871.637	-104.45
871.804	-33.68
871.971	-114.92
872.139	-340.23
872.306	-43.83
872.473	-45.88
872.64	-208.37
872.807	-42.69
872.975	44.44
873.142	41.64
873.309	687.84
873.476	54.38
873.643	97.33
873.81	45.78
873.977	96.27
874.144	78.74
874.311	24.12
874.478	-16.69
874.645	-17.56
874.812	-61.69
874.979	-24.53
875.146	-6.27
875.313	-11.78
875.48	28.79
875.647	23.76
875.813	6.56
875.98	7.11
876.147	-1.57
876.314	-58.49
876.481	649.17
876.647	-912.92
876.814	346.37
876.981	-101.35
877.147	-20.05
877.314	21.79
877.481	49.1
877.647	2.96
877.814	-24.46
877.98	-79.29
878.147	-86.66
878.314	-43.44
878.48	-41.16
878.647	2.93
878.813	54.51
878.979	56.77
879.146	21.33
879.312	20.92
879.479	-21.35
879.645	-154.36
879.811	-309.31
879.978	-743.89
880.144	-216.43
880.31	-132.84
880.477	-279.79
880.643	-322.01
880.809	-108.35
880.975	-147.59
881.142	-757.73
881.308	-101.27
881.474	-44.44
881.64	-95.44
881.806	-64.62
881.972	-9.29
882.138	10.12
882.304	-52.59
882.47	-152.65
882.636	-658.61
882.802	-241.56
882.968	-109.39
883.134	-33.62
883.3	-4.66
883.466	9.71
883.632	19.15
883.798	6.81
883.964	-12.14
884.129	-11.61
884.295	47.91
884.461	44.48
884.627	33.46
884.793	43.5
884.958	50.28
885.124	-39.3
885.29	-111.17
885.455	-135.19
885.621	-15.3
885.787	-92.42
885.952	-11.58
886.118	3.01
886.283	-14.48
886.449	-102.12
886.614	-130.63
886.78	-304.42
886.945	1681.15
887.111	-587.57
887.276	-529.83
887.442	-842.27
887.607	-345.05
887.773	-197.61
887.938	-190.99
888.103	-190.25
888.269	-64.01
888.434	-122.97
888.599	-39.69
888.764	-50.29
888.93	-46.74
889.095	-62.6
889.26	-97.98
889.425	-102.04
889.59	-60.68
889.756	-13.3
889.921	4.45
890.086	37.05
890.251	23.29
890.416	-126.89
890.581	-1431.45
890.746	323.39
890.911	649.36
891.076	206.3
891.241	-438.43
891.406	-42.76
891.571	-109.36
891.736	-255.73
891.901	-623.45
892.065	563.19
892.23	135.37
892.395	165.46
892.56	240.03
892.725	-421.48
892.889	-2032.93
893.054	-216.56
893.219	-65.11
893.384	-13.36
893.548	2.89
893.713	25.8
893.878	36.21
