Data from Ofra_PS_T2_1A_9CX05_Reflection_2.txt Node
Date: Wed Jul 21 18:17:48 EDT 2021
User: Adam
Spectrometer: FLMT01687
Trigger mode: 0
Integration Time (sec): 1.100000E0
Scans to average: 2
Electric dark correction enabled: true
Nonlinearity correction enabled: false
Boxcar width: 2
XAxis mode: Wavelengths
Number of Pixels in Spectrum: 3648
>>>>>Begin Spectral Data<<<<<
179.494	567.4
179.716	640.71
179.937	580.09
180.158	604.56
180.38	937.66
180.601	424.45
180.823	114.39
181.044	98.22
181.265	174.45
181.486	139.21
181.708	92.21
181.929	410.71
182.15	50.35
182.372	197.55
182.593	195.38
182.814	84.64
183.035	94.39
183.257	63.97
183.478	-17.93
183.699	-2.12
183.92	-26.6
184.141	-34.57
184.363	-69.55
184.584	-24.2
184.805	5.83
185.026	29.04
185.247	43.39
185.468	22.74
185.689	30.54
185.91	25.56
186.132	23.97
186.353	6.09
186.574	53.09
186.795	35.15
187.016	1.6
187.237	-12.92
187.458	-43.18
187.679	-44.76
187.9	-32.01
188.121	-25.6
188.342	-34.09
188.563	20.22
188.784	30.66
189.005	19.7
189.226	39.85
189.447	64.18
189.667	-35.07
189.888	-357.76
190.109	-962.66
190.33	-528.55
190.551	-1226.77
190.772	-252.12
190.993	-159.73
191.214	-150.71
191.434	-110.25
191.655	1.07
191.876	-38.94
192.097	-53.54
192.318	-73.82
192.538	-85.41
192.759	-110.79
192.98	-38.03
193.201	-30.08
193.421	-14.01
193.642	15.35
193.863	26.1
194.083	4.47
194.304	3.48
194.525	3.44
194.745	-16.93
194.966	-46.62
195.187	-35.95
195.407	-60.97
195.628	-97.53
195.848	-124.81
196.069	-138.96
196.29	-94.94
196.51	-85.46
196.731	-67.06
196.951	-67.63
197.172	-59.08
197.392	-104.54
197.613	-99.02
197.833	-149.66
198.054	-113.19
198.274	-65.38
198.495	-72.27
198.715	-38.72
198.936	-43.04
199.156	-37.92
199.377	-116.85
199.597	-83.85
199.817	-83.92
200.038	-18.85
200.258	-62.02
200.479	6
200.699	-0.57
200.919	30.12
201.14	0.66
201.36	2.04
201.58	21.71
201.801	35.35
202.021	18.4
202.241	22.64
202.461	27.17
202.682	-42.99
202.902	-103.36
203.122	-80.67
203.342	-92.61
203.563	-39.86
203.783	5.12
204.003	-16.36
204.223	-18.9
204.443	41.45
204.663	-6.22
204.884	-16.66
205.104	31.27
205.324	55.55
205.544	34.5
205.764	41.25
205.984	57.2
206.204	44.48
206.424	29.92
206.644	4.53
206.864	10.28
207.084	-55.23
207.304	-23.08
207.525	-91.95
207.745	-50.7
207.964	14.06
208.184	-35.89
208.404	-66.27
208.624	-60.19
208.844	-58.69
209.064	-295.22
209.284	-219.24
209.504	-104.17
209.724	-36.76
209.944	-32.66
210.164	-7.73
210.384	-5.97
210.604	-21.8
210.823	-66.66
211.043	-62.35
211.263	-55.69
211.483	-57.91
211.703	-99.59
211.922	-61.89
212.142	2.08
212.362	11.73
212.582	16.2
212.801	20.19
213.021	-8.78
213.241	-44.6
213.461	-73.71
213.68	-106.39
213.9	-85.35
214.12	-58.17
214.339	-90.57
214.559	-75.44
214.779	-10.69
214.998	-12.58
215.218	-51.11
215.438	-22.85
215.657	-18.32
215.877	-12.05
216.096	18.94
216.316	23.11
216.535	-3.3
216.755	-3.66
216.974	-83.2
217.194	-170.02
217.413	-153.51
217.633	-114.42
217.852	-182.01
218.072	-95.06
218.291	-30.5
218.511	30.23
218.73	10.82
218.95	-1.6
219.169	-2.57
219.389	-45.67
219.608	-43.66
219.827	-45.15
220.047	-14.88
220.266	-15.37
220.485	-0.02
220.705	-13.38
220.924	-29.63
221.143	-0.99
221.363	-28.91
221.582	-41.19
221.801	-40.13
222.021	-29.47
222.24	-146.26
222.459	-62.01
222.678	-22.64
222.897	-83.58
223.117	-119.12
223.336	-123.46
223.555	-110.56
223.774	-71.29
223.993	-50.89
224.213	20.58
224.432	33.34
224.651	41.62
224.87	5.53
225.089	11.5
225.308	3.67
225.527	20.06
225.746	16.97
225.965	28.55
226.184	6.36
226.404	20.81
226.623	-12.45
226.842	-14.55
227.061	-7.62
227.28	2.23
227.499	-24.99
227.718	8.4
227.936	6.02
228.155	26.76
228.374	26.2
228.593	38.08
228.812	18.73
229.031	10.22
229.25	-31.19
229.469	-28.89
229.688	-38.8
229.907	5.69
230.125	30.88
230.344	25.62
230.563	23.45
230.782	28.57
231.001	-39.48
231.22	-59.51
231.438	-9.8
231.657	-0.39
231.876	-16.01
232.095	17.06
232.313	31.38
232.532	-7.87
232.751	-35.05
232.969	-47.39
233.188	-83.68
233.407	-2.82
233.625	8.81
233.844	6.58
234.063	8.8
234.281	11.75
234.5	-32.3
234.719	-30.47
234.937	-9.17
235.156	11.96
235.374	5.62
235.593	7.37
235.811	3.36
236.03	-14.57
236.249	-78.18
236.467	-53.7
236.686	-14.64
236.904	-2.11
237.123	-21.63
237.341	-19.06
237.559	-16.57
237.778	-40.65
237.996	-77.75
238.215	-14.72
238.433	4.21
238.652	3.33
238.87	1.74
239.088	5.79
239.307	-14.74
239.525	-23.13
239.743	-44.3
239.962	-47.61
240.18	-54.81
240.398	-81.55
240.617	-72.76
240.835	-43.21
241.053	-20.04
241.271	45.5
241.49	40.66
241.708	24.53
241.926	1.89
242.144	-14.8
242.363	-80.62
242.581	-75.63
242.799	-37.62
243.017	-7.44
243.235	-19.16
243.453	-3.63
243.672	-14.08
243.89	-16.79
244.108	-26.44
244.326	-12.44
244.544	-13
244.762	-21.66
244.98	-16.91
245.198	-9.78
245.416	-13.51
245.634	-25.24
245.852	-23.3
246.07	-36.07
246.288	-59.11
246.506	-72.29
246.724	-51.04
246.942	-32.2
247.16	-0.9
247.378	12.88
247.596	35.01
247.814	29.52
248.032	-2.26
248.25	-6.33
248.468	-8.78
248.685	-19.03
248.903	2.92
249.121	12.43
249.339	-5.22
249.557	-3.21
249.775	5.14
249.992	-32.65
250.21	-36.64
250.428	-24.52
250.646	-57.55
250.863	-77.66
251.081	-44.4
251.299	-42.88
251.517	-39.1
251.734	-13.53
251.952	-17.73
252.17	-32.03
252.387	-6.79
252.605	-16.16
252.823	-12.83
253.04	5.38
253.258	29.31
253.475	5.99
253.693	23.89
253.911	23.44
254.128	7.53
254.346	5.51
254.563	-4.24
254.781	-37.33
254.998	-69.27
255.216	-47.18
255.433	-56.7
255.651	-2.82
255.868	45.29
256.086	79.3
256.303	54.28
256.521	42.37
256.738	18.01
256.956	-10.78
257.173	-22.53
257.39	-39.92
257.608	-46.06
257.825	25.91
258.043	58.3
258.26	54.25
258.477	88.39
258.695	76.64
258.912	0.44
259.129	8.95
259.346	-19.67
259.564	-44.93
259.781	-37.81
259.998	9.48
260.216	25.69
260.433	50.92
260.65	30.6
260.867	41.24
261.084	19.95
261.302	-6.96
261.519	-23.06
261.736	-24.41
261.953	-56.68
262.17	-15.18
262.387	-23.78
262.604	-43.21
262.822	-40.4
263.039	-12.66
263.256	-56.06
263.473	-40.84
263.69	-28.28
263.907	7.71
264.124	19.89
264.341	13.52
264.558	7.14
264.775	10.14
264.992	-0.83
265.209	4.04
265.426	31.61
265.643	35.63
265.86	49.27
266.077	51.21
266.294	39.25
266.51	-2.37
266.727	-5.1
266.944	-8.36
267.161	-32.27
267.378	-38.71
267.595	-12.85
267.812	-30.78
268.028	-34.54
268.245	7.74
268.462	-0.43
268.679	-4.29
268.896	40.08
269.112	48.48
269.329	34.16
269.546	40.26
269.763	32.71
269.979	8.84
270.196	-8.03
270.413	-36.06
270.629	-64.83
270.846	-76.3
271.063	-78.96
271.279	-90.63
271.496	-71.44
271.712	-33.3
271.929	-29.7
272.146	-31.97
272.362	-27.02
272.579	7.47
272.795	4.5
273.012	25.11
273.228	43.91
273.445	31.77
273.661	17.43
273.878	5.23
274.094	1.15
274.311	-18.68
274.527	28.71
274.744	15.96
274.96	6.55
275.177	3.45
275.393	18.68
275.609	6.51
275.826	16.82
276.042	14.55
276.259	22.74
276.475	17.89
276.691	13.85
276.908	13.12
277.124	26.79
277.34	15.12
277.557	0.75
277.773	-4.28
277.989	-17.9
278.205	-28.15
278.422	-20.32
278.638	-6.27
278.854	-2.76
279.07	1.54
279.286	-13.18
279.503	-36.27
279.719	-44.83
279.935	-57.27
280.151	-57.77
280.367	-20.12
280.583	-28.38
280.799	-32.87
281.016	-56.8
281.232	-31.04
281.448	-37.91
281.664	-17.89
281.88	-54.57
282.096	-11.48
282.312	3.14
282.528	5.16
282.744	13.65
282.96	28.9
283.176	7.53
283.392	-3.95
283.608	-14.41
283.824	-21.04
284.04	-11.1
284.256	-2.27
284.471	6.46
284.687	20.79
284.903	58.54
285.119	61.11
285.335	39.9
285.551	21.79
285.767	-10.54
285.982	-39.52
286.198	-88.41
286.414	-29.73
286.63	-19.66
286.846	16.83
287.061	-4.42
287.277	37.49
287.493	10.53
287.709	31.64
287.924	14.35
288.14	33.39
288.356	11.63
288.571	25.94
288.787	4.1
289.003	-2
289.218	-5.49
289.434	-32.12
289.65	-23.54
289.865	-34.66
290.081	-33.68
290.296	-31.8
290.512	-16.66
290.727	-49.95
290.943	-43.91
291.159	-41.48
291.374	-38.25
291.59	-51.15
291.805	-34.07
292.021	-20.06
292.236	-5
292.451	-2.66
292.667	0.41
292.882	10.02
293.098	-2.83
293.313	-37.87
293.529	-64.41
293.744	-80.36
293.959	-80.44
294.175	-53.96
294.39	-8.2
294.605	16.01
294.821	42.1
295.036	68.74
295.251	69.82
295.467	29.44
295.682	12.61
295.897	-36.9
296.112	-80.03
296.328	-80.95
296.543	-88.9
296.758	-79.71
296.973	-44.19
297.188	0.27
297.404	-26.36
297.619	-31.02
297.834	-41.92
298.049	-58.1
298.264	-75.12
298.479	-22.13
298.694	-10.11
298.909	9.24
299.125	23.69
299.34	32.92
299.555	12.78
299.77	11.6
299.985	-12.68
300.2	-69.03
300.415	-102.83
300.63	-70.76
300.845	-64.64
301.06	-71.46
301.275	-30.01
301.49	-13.3
301.704	-15.09
301.919	-33.82
302.134	-48.37
302.349	-56.79
302.564	-134.88
302.779	-198.07
302.994	-169.79
303.209	-89.07
303.423	-55.61
303.638	30.41
303.853	5.19
304.068	3.69
304.283	-2.33
304.497	-11.08
304.712	-16.63
304.927	-3.51
305.142	-14.6
305.356	0.45
305.571	2.09
305.786	-14.47
306	-32.01
306.215	-26.42
306.43	-64.71
306.644	-66.95
306.859	-27.35
307.074	-11.14
307.288	-37.27
307.503	-22.49
307.717	-34.38
307.932	-30.35
308.147	-20.52
308.361	-9.23
308.576	-26.76
308.79	-52.76
309.005	-53.58
309.219	-41.71
309.434	-27.64
309.648	-19.88
309.863	7.85
310.077	-9.7
310.292	-18.58
310.506	-19.89
310.72	-5.59
310.935	-5.79
311.149	-12.39
311.364	7.31
311.578	22.27
311.792	12.6
312.007	15.37
312.221	18.4
312.435	7.47
312.649	-13.06
312.864	-36.86
313.078	-16.74
313.292	40.95
313.507	12.85
313.721	35.38
313.935	51.7
314.149	44.65
314.363	29.16
314.578	32.45
314.792	25.42
315.006	9.35
315.22	11.88
315.434	12.35
315.648	23.32
315.862	25.22
316.077	24.17
316.291	3.66
316.505	15.49
316.719	-7.83
316.933	-25.25
317.147	-5.19
317.361	-43.78
317.575	-67.73
317.789	-62.83
318.003	-95.19
318.217	-52.73
318.431	17.88
318.645	36.05
318.859	17.77
319.073	31.54
319.287	12.35
319.5	-13.89
319.714	-47.59
319.928	-72.06
320.142	-76.06
320.356	-42.19
320.57	-16.92
320.784	-24.9
320.997	-14.67
321.211	-10.98
321.425	-63.05
321.639	-90.13
321.853	-37.83
322.066	-17.33
322.28	-24.78
322.494	-21.19
322.707	6.7
322.921	-6.82
323.135	-10.87
323.349	1.14
323.562	-11.01
323.776	-24.83
323.989	-8.6
324.203	-29.54
324.417	-34.12
324.63	-29.27
324.844	-25.23
325.057	-42.1
325.271	-10.68
325.485	-0.59
325.698	13.42
325.912	12.1
326.125	-15.79
326.339	-26.05
326.552	-57.4
326.766	-64.51
326.979	-35.63
327.193	11.24
327.406	13.66
327.619	8.43
327.833	32.51
328.046	1.69
328.26	-24.06
328.473	-6.56
328.686	-21.8
328.9	-32.49
329.113	-13.23
329.326	-31.31
329.54	-23.61
329.753	-10
329.966	-33.39
330.179	-23.41
330.393	-16.4
330.606	-20.79
330.819	-6.21
331.032	9.07
331.246	11.34
331.459	42.55
331.672	33.68
331.885	24.66
332.098	6.83
332.311	-6.1
332.525	-70.55
332.738	-43.51
332.951	-9.39
333.164	18.42
333.377	19.04
333.59	43.58
333.803	32.14
334.016	25.48
334.229	18.01
334.442	23.11
334.655	27.99
334.868	40.87
335.081	31.75
335.294	7.79
335.507	-9.59
335.72	-17.74
335.933	-35.53
336.146	-40.73
336.359	-21.43
336.572	-29.1
336.785	-64.92
336.997	-41.55
337.21	-33.62
337.423	-44.47
337.636	-25.16
337.849	0.15
338.062	-25.31
338.274	-21.92
338.487	-21.04
338.7	-30.42
338.913	-66.74
339.125	-74.21
339.338	-127.68
339.551	-123.59
339.763	-84.72
339.976	-32.88
340.189	1.58
340.402	22.77
340.614	26.43
340.827	21.88
341.039	-0.02
341.252	-2.08
341.465	21.31
341.677	25.69
341.89	4.6
342.102	21.7
342.315	7.28
342.527	-35.9
342.74	-25.14
342.952	-12.26
343.165	-23.51
343.377	-6.37
343.59	-13.76
343.802	-16.75
344.015	-5.8
344.227	11.29
344.44	10.67
344.652	25.6
344.864	24.96
345.077	35.52
345.289	31.14
345.502	26.03
345.714	15.54
345.926	16.31
346.139	3.53
346.351	8.71
346.563	23.66
346.775	32.7
346.988	30.15
347.2	9.79
347.412	-31.75
347.624	-70.62
347.837	-109.34
348.049	-97.96
348.261	-50.26
348.473	-50.51
348.685	-42.43
348.897	-30.05
349.11	-39.76
349.322	-80.03
349.534	-52.81
349.746	-42.5
349.958	-33.6
350.17	-35.21
350.382	-15.59
350.594	-19.96
350.806	-27.45
351.018	-15.58
351.23	-29.67
351.442	-50.06
351.654	-35.27
351.866	-2.8
352.078	11.66
352.29	19.74
352.502	23.31
352.714	20.48
352.926	-2.73
353.138	-9.7
353.35	-15.59
353.561	-6.22
353.773	-18.16
353.985	6.01
354.197	-4.09
354.409	4.19
354.621	-19.33
354.832	-16.03
355.044	-33.05
355.256	-21.26
355.468	-14.49
355.679	-5.95
355.891	0.28
356.103	-6.63
356.314	-6.67
356.526	-21.04
356.738	-22.95
356.949	-24.3
357.161	-20.63
357.373	-15
357.584	-16.45
357.796	-0.98
358.008	-11.7
358.219	9.32
358.431	-0.69
358.642	6.42
358.854	-3.25
359.065	-10.3
359.277	-38.37
359.488	-45.27
359.7	-64.94
359.911	-76.15
360.123	-41.71
360.334	-51.51
360.546	-72.54
360.757	-63.21
360.969	-46.12
361.18	-53.56
361.391	-32.21
361.603	-30.55
361.814	-41.14
362.025	-51.84
362.237	-57.46
362.448	-40.55
362.659	-11.66
362.871	-10.72
363.082	-0.3
363.293	2.39
363.504	-13.06
363.716	-29.07
363.927	-22.37
364.138	-51.04
364.349	-56.85
364.56	-54.8
364.772	-43.36
364.983	-15.57
365.194	-11.11
365.405	7.4
365.616	26.95
365.827	20.91
366.038	-10.5
366.25	-9.61
366.461	-44.54
366.672	-28.53
366.883	-16.34
367.094	4.52
367.305	4.71
367.516	8.91
367.727	-20.4
367.938	-22.8
368.149	-31.54
368.36	-23.92
368.571	-18.33
368.781	-28.65
368.992	-42.79
369.203	-57.94
369.414	-67.13
369.625	-87.16
369.836	-56.62
370.047	-71.46
370.258	-61.47
370.468	-68.2
370.679	-59.07
370.89	-60.99
371.101	-32.22
371.312	-30.58
371.522	-21.49
371.733	-15.77
371.944	-6.44
372.155	-5.35
372.365	-16.84
372.576	-10.4
372.787	-10.14
372.997	-33.26
373.208	-33.8
373.419	-7.76
373.629	-42.61
373.84	-49.08
374.05	-51.23
374.261	-47.85
374.472	-56.2
374.682	-6.87
374.893	-4.22
375.103	26.56
375.314	26.1
375.524	21.26
375.735	23.14
375.945	22.73
376.156	1.78
376.366	-1.27
376.577	3.87
376.787	-13.95
376.997	-8.95
377.208	-7.06
377.418	-7.18
377.629	-5.8
377.839	1.85
378.049	-0.01
378.26	9.85
378.47	12.06
378.68	5.19
378.89	0.95
379.101	-1.95
379.311	-31.38
379.521	-66.52
379.732	-60.77
379.942	-56.02
380.152	-73.96
380.362	-45.54
380.572	-25.8
380.783	-13.46
380.993	-1.23
381.203	13.63
381.413	28.66
381.623	21.54
381.833	11.53
382.043	-0.53
382.253	-11.07
382.463	-11.74
382.674	-16.98
382.884	-32.21
383.094	-31.51
383.304	-21.07
383.514	-14.16
383.724	-0.61
383.934	1.14
384.144	-8.26
384.353	-10.84
384.563	-15.76
384.773	-18.55
384.983	-24.07
385.193	-1.81
385.403	-1.39
385.613	3.18
385.823	-4.64
386.033	4.63
386.242	-4.73
386.452	-10.24
386.662	-24.01
386.872	-7.24
387.082	-11.16
387.291	-18.73
387.501	-17.64
387.711	-10.39
387.921	-18.76
388.13	-19.82
388.34	-1.97
388.55	-5.37
388.759	-4.11
388.969	-4.26
389.179	-5.3
389.388	-12.2
389.598	-7.23
389.807	-14.99
390.017	-13.4
390.227	-10.54
390.436	-10.86
390.646	-9.17
390.855	-5.31
391.065	-4.92
391.274	-5.26
391.484	-7.1
391.693	-5.86
391.903	-2.78
392.112	1.41
392.322	2
392.531	4.54
392.74	5.57
392.95	-0.46
393.159	-4.39
393.369	-2.73
393.578	-4.1
393.787	-6.84
393.997	-3.2
394.206	-4.08
394.415	-5.34
394.625	-5.16
394.834	-5.41
395.043	-4.37
395.252	-1.84
395.462	0.15
395.671	1.58
395.88	2.56
396.089	2.46
396.298	1.15
396.508	0.84
396.717	0.02
396.926	0.22
397.135	-0.38
397.344	-0.24
397.553	0.21
397.762	2.02
397.971	1.96
398.181	2.17
398.39	1.88
398.599	1.63
398.808	1.19
399.017	2.55
399.226	3.74
399.435	4.99
399.644	5
399.853	3.78
400.062	3.04
400.27	1.98
400.479	1.26
400.688	0.42
400.897	0.81
401.106	0.73
401.315	1.18
401.524	1.02
401.733	1.68
401.941	1.99
402.15	1.9
402.359	1.81
402.568	2.08
402.777	2.25
402.985	2.05
403.194	2.17
403.403	1.75
403.612	1.66
403.82	1.33
404.029	1.52
404.238	1.52
404.446	1.93
404.655	1.78
404.864	1.96
405.072	1.6
405.281	1.59
405.489	1.42
405.698	1.32
405.906	1.26
406.115	1.49
406.324	1.42
406.532	1.58
406.741	1.91
406.949	1.94
407.158	1.81
407.366	1.85
407.574	1.67
407.783	1.62
407.991	1.38
408.2	1.61
408.408	1.59
408.617	1.61
408.825	1.55
409.033	1.73
409.242	1.65
409.45	1.66
409.658	1.56
409.867	1.58
410.075	1.49
410.283	1.46
410.491	1.41
410.7	1.43
410.908	1.42
411.116	1.64
411.324	1.57
411.533	1.56
411.741	1.76
411.949	1.71
412.157	1.41
412.365	1.48
412.573	1.57
412.781	1.58
412.99	1.6
413.198	1.81
413.406	1.83
413.614	1.78
413.822	1.7
414.03	1.61
414.238	1.5
414.446	1.62
414.654	1.42
414.862	1.63
415.07	1.74
415.278	1.98
415.486	1.71
415.694	1.91
415.902	1.61
416.109	1.48
416.317	1.31
416.525	1.2
416.733	1.11
416.941	1.35
417.149	1.36
417.357	1.47
417.564	1.75
417.772	2.03
417.98	1.79
418.188	1.78
418.395	1.72
418.603	1.77
418.811	1.3
419.019	1.37
419.226	1.49
419.434	1.5
419.642	1.21
419.849	1.41
420.057	1.46
420.265	1.47
420.472	1.34
420.68	1.45
420.887	1.44
421.095	1.29
421.302	1.18
421.51	1.37
421.717	1.43
421.925	1.51
422.132	1.53
422.34	1.37
422.547	1.26
422.755	1.06
422.962	0.8
423.17	0.77
423.377	0.89
423.585	0.89
423.792	0.92
423.999	1.14
424.207	1.13
424.414	1.18
424.621	1.03
424.829	1.08
425.036	1.08
425.243	1.27
425.451	1.13
425.658	1.11
425.865	1.3
426.072	1.31
426.28	1.46
426.487	1.59
426.694	1.62
426.901	1.4
427.108	1.35
427.315	1.12
427.523	1.2
427.73	1.27
427.937	1.27
428.144	1.18
428.351	1.07
428.558	1.18
428.765	1.15
428.972	1.17
429.179	1.36
429.386	1.71
429.593	1.45
429.8	1.37
430.007	1.53
430.214	1.58
430.421	1.35
430.628	1.25
430.835	1.17
431.042	1.3
431.249	1.32
431.456	1.3
431.662	1.56
431.869	1.78
432.076	1.64
432.283	1.7
432.49	1.73
432.697	1.6
432.903	1.41
433.11	1.3
433.317	1.25
433.524	1.45
433.73	1.4
433.937	1.66
434.144	1.67
434.35	1.64
434.557	1.38
434.764	1.48
434.97	1.29
435.177	1.42
435.384	1.27
435.59	1.38
435.797	1.56
436.003	1.74
436.21	1.65
436.416	1.82
436.623	1.81
436.829	1.78
437.036	1.77
437.242	1.79
437.449	1.77
437.655	1.8
437.862	1.77
438.068	1.72
438.275	1.88
438.481	1.96
438.687	1.92
438.894	1.89
439.1	1.97
439.307	2.01
439.513	1.89
439.719	1.92
439.926	2
440.132	1.88
440.338	1.73
440.544	1.93
440.751	1.9
440.957	1.97
441.163	1.93
441.369	2.07
441.575	1.8
441.782	1.79
441.988	1.63
442.194	1.69
442.4	1.65
442.606	2.01
442.812	2.07
443.018	2.13
443.224	2.23
443.431	2.27
443.637	1.95
443.843	1.91
444.049	1.87
444.255	1.82
444.461	1.82
444.667	1.89
444.873	2.06
445.079	2.12
445.284	2.21
445.49	2.01
445.696	1.9
445.902	1.74
446.108	1.7
446.314	1.65
446.52	1.78
446.726	1.98
446.931	2
447.137	2.02
447.343	2.03
447.549	1.94
447.755	1.8
447.96	1.83
448.166	1.75
448.372	1.69
448.578	1.78
448.783	1.88
448.989	2
449.195	2.23
449.4	2.26
449.606	2.18
449.812	2.09
450.017	2.08
450.223	1.86
450.428	1.81
450.634	1.98
450.84	2.1
451.045	2
451.251	2.02
451.456	2.24
451.662	2.17
451.867	2.16
452.073	2.24
452.278	2.35
452.483	2.35
452.689	2.31
452.894	2.37
453.1	2.33
453.305	2.17
453.51	2.1
453.716	2.06
453.921	2.03
454.127	1.93
454.332	2.02
454.537	1.97
454.742	2.05
454.948	2.03
455.153	2.16
455.358	2.26
455.563	2.44
455.769	2.47
455.974	2.49
456.179	2.39
456.384	2.31
456.589	2.24
456.795	2.09
457	1.99
457.205	2.24
457.41	2.25
457.615	2.21
457.82	2.32
458.025	2.33
458.23	2.18
458.435	2.16
458.64	2.1
458.845	2.21
459.05	2.26
459.255	2.23
459.46	2.25
459.665	2.24
459.87	2.28
460.075	2.25
460.28	2.37
460.485	2.52
460.69	2.59
460.895	2.35
461.099	2.34
461.304	2.37
461.509	2.29
461.714	2.22
461.919	2.38
462.123	2.31
462.328	2.33
462.533	2.25
462.738	2.34
462.942	2.25
463.147	2.31
463.352	2.3
463.556	2.34
463.761	2.32
463.966	2.37
464.17	2.44
464.375	2.42
464.58	2.48
464.784	2.44
464.989	2.43
465.193	2.43
465.398	2.34
465.602	2.37
465.807	2.33
466.011	2.36
466.216	2.31
466.42	2.37
466.625	2.41
466.829	2.55
467.034	2.63
467.238	2.8
467.443	2.77
467.647	2.66
467.851	2.7
468.056	2.69
468.26	2.58
468.464	2.7
468.669	2.86
468.873	2.92
469.077	2.97
469.282	3.1
469.486	3.08
469.69	3.09
469.894	3
470.099	2.9
470.303	3.02
470.507	2.94
470.711	2.81
470.915	2.8
471.119	2.78
471.324	2.6
471.528	2.65
471.732	2.77
471.936	2.76
472.14	2.91
472.344	3.01
472.548	3.05
472.752	3.18
472.956	3.37
473.16	3.37
473.364	3.25
473.568	3.24
473.772	3.14
473.976	3.06
474.18	2.98
474.384	3.03
474.588	3.05
474.792	2.95
474.995	2.99
475.199	3.13
475.403	3.21
475.607	3.23
475.811	3.29
476.015	3.32
476.218	3.34
476.422	3.23
476.626	3.26
476.83	3.26
477.033	3.22
477.237	3.11
477.441	3.22
477.644	3.22
477.848	3.31
478.052	3.26
478.255	3.3
478.459	3.31
478.663	3.45
478.866	3.45
479.07	3.53
479.273	3.66
479.477	3.72
479.681	3.58
479.884	3.54
480.088	3.48
480.291	3.43
480.495	3.34
480.698	3.44
480.901	3.42
481.105	3.48
481.308	3.43
481.512	3.45
481.715	3.46
481.919	3.58
482.122	3.59
482.325	3.69
482.529	3.69
482.732	3.69
482.935	3.61
483.138	3.58
483.342	3.62
483.545	3.74
483.748	3.8
483.952	3.85
484.155	3.99
484.358	3.95
484.561	3.88
484.764	3.78
484.967	3.86
485.171	3.89
485.374	3.91
485.577	3.98
485.78	4.06
485.983	4.07
486.186	3.92
486.389	3.91
486.592	3.88
486.795	3.85
486.998	3.77
487.201	3.82
487.404	3.89
487.607	3.96
487.81	4.01
488.013	4.14
488.216	4.18
488.419	4.12
488.622	4.04
488.825	3.97
489.028	3.83
489.231	3.8
489.433	3.74
489.636	3.72
489.839	3.71
490.042	3.69
490.245	3.68
490.447	3.75
490.65	3.79
490.853	3.8
491.056	3.91
491.258	3.95
491.461	3.93
491.664	3.97
491.866	3.93
492.069	4
492.272	3.91
492.474	4.01
492.677	4.03
492.879	4.13
493.082	4.1
493.285	4.32
493.487	4.28
493.69	4.25
493.892	4.22
494.095	4.2
494.297	4.11
494.5	4.11
494.702	4.14
494.905	4.19
495.107	4.23
495.309	4.22
495.512	4.3
495.714	4.29
495.917	4.3
496.119	4.27
496.321	4.31
496.524	4.29
496.726	4.31
496.928	4.39
497.13	4.38
497.333	4.38
497.535	4.45
497.737	4.47
497.939	4.43
498.142	4.51
498.344	4.48
498.546	4.32
498.748	4.38
498.95	4.49
499.152	4.45
499.355	4.54
499.557	4.6
499.759	4.64
499.961	4.55
500.163	4.6
500.365	4.58
500.567	4.75
500.769	4.64
500.971	4.72
501.173	4.66
501.375	4.7
501.577	4.61
501.779	4.64
501.981	4.59
502.183	4.65
502.385	4.62
502.587	4.55
502.788	4.65
502.99	4.6
503.192	4.63
503.394	4.63
503.596	4.71
503.798	4.69
503.999	4.8
504.201	4.78
504.403	4.83
504.605	4.83
504.806	4.8
505.008	4.76
505.21	4.85
505.411	4.83
505.613	4.83
505.815	4.86
506.016	4.92
506.218	4.93
506.42	4.91
506.621	4.93
506.823	4.92
507.024	4.82
507.226	4.75
507.427	4.74
507.629	4.77
507.83	4.82
508.032	4.86
508.233	4.94
508.435	5.05
508.636	5.09
508.838	5.03
509.039	5.08
509.24	5.03
509.442	5
509.643	4.93
509.845	4.98
510.046	4.99
510.247	4.99
510.448	4.98
510.65	5.01
510.851	5.1
511.052	5.11
511.254	5.12
511.455	5.19
511.656	5.24
511.857	5.29
512.058	5.27
512.26	5.29
512.461	5.24
512.662	5.27
512.863	5.13
513.064	5.2
513.265	5.19
513.466	5.17
513.667	5.08
513.868	5.13
514.069	5.13
514.27	5.19
514.471	5.23
514.672	5.32
514.873	5.32
515.074	5.3
515.275	5.22
515.476	5.21
515.677	5.15
515.878	5.22
516.079	5.23
516.28	5.29
516.481	5.38
516.682	5.43
516.882	5.36
517.083	5.34
517.284	5.29
517.485	5.22
517.686	5.2
517.886	5.21
518.087	5.23
518.288	5.27
518.488	5.23
518.689	5.24
518.89	5.21
519.091	5.24
519.291	5.24
519.492	5.29
519.692	5.3
519.893	5.37
520.094	5.36
520.294	5.36
520.495	5.41
520.695	5.4
520.896	5.42
521.096	5.51
521.297	5.53
521.497	5.51
521.698	5.48
521.898	5.46
522.099	5.39
522.299	5.45
522.499	5.41
522.7	5.47
522.9	5.45
523.101	5.49
523.301	5.44
523.501	5.48
523.702	5.48
523.902	5.55
524.102	5.61
524.302	5.6
524.503	5.63
524.703	5.66
524.903	5.66
525.103	5.57
525.304	5.65
525.504	5.66
525.704	5.68
525.904	5.62
526.104	5.63
526.304	5.58
526.504	5.57
526.705	5.53
526.905	5.64
527.105	5.67
527.305	5.67
527.505	5.61
527.705	5.63
527.905	5.56
528.105	5.58
528.305	5.58
528.505	5.65
528.705	5.71
528.905	5.7
529.105	5.67
529.304	5.71
529.504	5.76
529.704	5.67
529.904	5.71
530.104	5.76
530.304	5.86
530.503	5.81
530.703	5.81
530.903	5.78
531.103	5.78
531.303	5.7
531.502	5.76
531.702	5.85
531.902	5.93
532.101	5.91
532.301	5.93
532.501	5.88
532.7	5.8
532.9	5.78
533.1	5.78
533.299	5.78
533.499	5.85
533.698	5.86
533.898	5.88
534.097	5.9
534.297	5.99
534.496	5.92
534.696	5.97
534.895	6.02
535.095	6.1
535.294	6.03
535.494	6.04
535.693	6.07
535.892	6.06
536.092	5.99
536.291	6.03
536.491	6.15
536.69	6.2
536.889	6.16
537.088	6.15
537.288	6.16
537.487	6.13
537.686	6.14
537.886	6.24
538.085	6.32
538.284	6.43
538.483	6.45
538.682	6.49
538.882	6.45
539.081	6.48
539.28	6.35
539.479	6.32
539.678	6.27
539.877	6.35
540.076	6.33
540.275	6.4
540.474	6.51
540.673	6.51
540.872	6.46
541.071	6.56
541.27	6.55
541.469	6.54
541.668	6.6
541.867	6.63
542.066	6.63
542.265	6.71
542.464	6.68
542.663	6.71
542.862	6.76
543.06	6.78
543.259	6.81
543.458	6.88
543.657	6.92
543.856	6.96
544.054	6.93
544.253	6.92
544.452	6.87
544.651	6.94
544.849	6.92
545.048	6.99
545.247	6.99
545.445	7.12
545.644	7.12
545.843	7.13
546.041	7.18
546.24	7.28
546.438	7.31
546.637	7.36
546.836	7.47
547.034	7.51
547.233	7.5
547.431	7.46
547.63	7.45
547.828	7.47
548.027	7.52
548.225	7.57
548.423	7.62
548.622	7.73
548.82	7.73
549.019	7.79
549.217	7.83
549.415	7.88
549.614	7.89
549.812	7.91
550.01	7.89
550.209	7.96
550.407	8.03
550.605	8.02
550.803	8.11
551.002	8.21
551.2	8.22
551.398	8.29
551.596	8.44
551.794	8.52
551.993	8.55
552.191	8.62
552.389	8.69
552.587	8.72
552.785	8.74
552.983	8.79
553.181	8.87
553.379	8.91
553.577	8.91
553.775	8.98
553.973	9.07
554.171	9.12
554.369	9.18
554.567	9.27
554.765	9.32
554.963	9.37
555.161	9.37
555.359	9.38
555.557	9.45
555.755	9.5
555.952	9.6
556.15	9.68
556.348	9.76
556.546	9.85
556.744	9.86
556.941	9.86
557.139	9.95
557.337	10.01
557.535	10.04
557.732	10.17
557.93	10.31
558.128	10.4
558.325	10.51
558.523	10.56
558.721	10.66
558.918	10.63
559.116	10.7
559.313	10.7
559.511	10.88
559.708	10.88
559.906	10.96
560.104	11.03
560.301	11.19
560.498	11.15
560.696	11.26
560.893	11.36
561.091	11.36
561.288	11.42
561.486	11.45
561.683	11.51
561.88	11.65
562.078	11.73
562.275	11.72
562.473	11.84
562.67	11.93
562.867	11.95
563.064	12.08
563.262	12.21
563.459	12.26
563.656	12.35
563.853	12.42
564.051	12.52
564.248	12.59
564.445	12.69
564.642	12.73
564.839	12.8
565.036	12.94
565.234	13.1
565.431	13.19
565.628	13.3
565.825	13.39
566.022	13.47
566.219	13.48
566.416	13.57
566.613	13.62
566.81	13.63
567.007	13.58
567.204	13.51
567.401	13.52
567.598	13.54
567.795	13.65
567.991	13.74
568.188	13.96
568.385	14.1
568.582	14.24
568.779	14.33
568.976	14.44
569.172	14.51
569.369	14.49
569.566	14.53
569.763	14.6
569.96	14.65
570.156	14.56
570.353	14.68
570.55	14.75
570.746	14.78
570.943	14.8
571.14	14.96
571.336	15.06
571.533	15.09
571.729	15.1
571.926	15.2
572.123	15.26
572.319	15.27
572.516	15.37
572.712	15.4
572.909	15.38
573.105	15.43
573.302	15.44
573.498	15.41
573.695	15.41
573.891	15.49
574.087	15.46
574.284	15.49
574.48	15.48
574.677	15.59
574.873	15.65
575.069	15.8
575.266	15.86
575.462	15.94
575.658	16.04
575.854	16.14
576.051	16.06
576.247	16.07
576.443	16.08
576.639	16.05
576.835	15.96
577.032	16.03
577.228	16.14
577.424	16.15
577.62	16.13
577.816	16.2
578.012	16.19
578.208	16.11
578.404	16.11
578.6	16.06
578.796	15.98
578.993	15.98
579.189	16.01
579.384	15.98
579.58	15.98
579.776	16.01
579.972	16.01
580.168	15.93
580.364	16
580.56	16.01
580.756	15.95
580.952	15.94
581.148	15.92
581.343	15.9
581.539	15.95
581.735	16.01
581.931	16.01
582.127	16.11
582.322	16.09
582.518	16.11
582.714	16.11
582.909	16.1
583.105	16.04
583.301	15.99
583.496	16
583.692	15.97
583.888	15.99
584.083	16.11
584.279	16.13
584.474	16.02
584.67	16.04
584.866	15.97
585.061	15.78
585.257	15.85
585.452	15.87
585.648	15.78
585.843	15.9
586.039	15.98
586.234	15.9
586.429	15.88
586.625	15.98
586.82	15.9
587.015	15.94
587.211	15.91
587.406	15.92
587.601	15.95
587.797	15.92
587.992	15.88
588.187	15.98
588.383	15.97
588.578	15.91
588.773	15.98
588.968	16.05
589.163	16.12
589.359	16.12
589.554	16.15
589.749	16.14
589.944	16.17
590.139	16.07
590.334	16.18
590.529	16.19
590.724	16.25
590.919	16.3
591.114	16.34
591.309	16.39
591.504	16.49
591.699	16.48
591.894	16.46
592.089	16.48
592.284	16.42
592.479	16.44
592.674	16.44
592.869	16.5
593.064	16.59
593.259	16.76
593.454	16.82
593.648	16.89
593.843	16.87
594.038	16.95
594.233	16.82
594.428	16.91
594.622	16.98
594.817	17.18
595.012	17.18
595.206	17.28
595.401	17.28
595.596	17.31
595.79	17.26
595.985	17.37
596.18	17.48
596.374	17.55
596.569	17.63
596.763	17.67
596.958	17.67
597.153	17.75
597.347	17.78
597.542	17.87
597.736	17.98
597.931	18.07
598.125	18.09
598.319	18.19
598.514	18.14
598.708	18.17
598.903	18.16
599.097	18.21
599.291	18.22
599.486	18.28
599.68	18.3
599.874	18.44
600.069	18.41
600.263	18.4
600.457	18.51
600.651	18.58
600.846	18.63
601.04	18.78
601.234	18.9
601.428	18.93
601.622	18.94
601.817	18.87
602.011	18.82
602.205	18.87
602.399	18.93
602.593	18.96
602.787	19.06
602.981	19.12
603.175	19.1
603.369	18.96
603.563	18.97
603.757	19.02
603.951	19.02
604.145	18.98
604.339	19.1
604.533	18.99
604.727	18.97
604.921	19
605.115	19
605.309	18.98
605.502	19.04
605.696	18.88
605.89	18.83
606.084	18.82
606.278	18.72
606.471	18.64
606.665	18.62
606.859	18.46
607.053	18.41
607.246	18.39
607.44	18.41
607.634	18.41
607.827	18.46
608.021	18.41
608.214	18.37
608.408	18.21
608.602	18.15
608.795	18.1
608.989	18.02
609.182	18.01
609.376	17.98
609.569	17.88
609.763	17.83
609.956	17.77
610.15	17.69
610.343	17.74
610.537	17.74
610.73	17.66
610.923	17.64
611.117	17.57
611.31	17.47
611.504	17.39
611.697	17.31
611.89	17.22
612.083	17.18
612.277	17.14
612.47	17.09
612.663	17.1
612.856	17.04
613.05	17.01
613.243	16.91
613.436	16.8
613.629	16.69
613.822	16.55
614.015	16.44
614.209	16.32
614.402	16.43
614.595	16.45
614.788	16.48
614.981	16.38
615.174	16.24
615.367	16.05
615.56	15.92
615.753	15.86
615.946	15.79
616.139	15.88
616.332	15.98
616.525	16.03
616.718	16.04
616.911	16.04
617.103	16.01
617.296	15.92
617.489	15.82
617.682	15.73
617.875	15.8
618.067	15.74
618.26	15.63
618.453	15.6
618.646	15.56
618.838	15.47
619.031	15.54
619.224	15.57
619.417	15.57
619.609	15.61
619.802	15.56
619.994	15.46
620.187	15.39
620.38	15.37
620.572	15.26
620.765	15.26
620.957	15.18
621.15	15.14
621.342	15.08
621.535	15.16
621.727	15.06
621.92	15.08
622.112	15
622.305	15.06
622.497	14.96
622.69	14.97
622.882	14.98
623.074	15.09
623.267	14.98
623.459	14.87
623.651	14.82
623.844	14.79
624.036	14.73
624.228	14.72
624.42	14.81
624.613	14.93
624.805	14.84
624.997	14.82
625.189	14.8
625.381	14.79
625.574	14.68
625.766	14.65
625.958	14.63
626.15	14.72
626.342	14.73
626.534	14.68
626.726	14.68
626.918	14.66
627.11	14.52
627.302	14.47
627.494	14.5
627.686	14.5
627.878	14.45
628.07	14.47
628.262	14.35
628.454	14.3
628.646	14.31
628.838	14.32
629.029	14.22
629.221	14.29
629.413	14.19
629.605	14
629.797	13.95
629.989	13.98
630.18	13.9
630.372	13.88
630.564	13.99
630.755	14.09
630.947	14.14
631.139	14.09
631.33	14.04
631.522	14.06
631.714	13.93
631.905	13.85
632.097	13.83
632.289	13.94
632.48	13.85
632.672	13.82
632.863	13.69
633.055	13.71
633.246	13.62
633.438	13.58
633.629	13.58
633.821	13.62
634.012	13.56
634.203	13.56
634.395	13.59
634.586	13.64
634.777	13.62
634.969	13.69
635.16	13.72
635.351	13.71
635.543	13.71
635.734	13.72
635.925	13.73
636.117	13.72
636.308	13.73
636.499	13.62
636.69	13.52
636.881	13.45
637.073	13.46
637.264	13.42
637.455	13.51
637.646	13.63
637.837	13.64
638.028	13.55
638.219	13.57
638.41	13.42
638.601	13.3
638.792	13.35
638.983	13.34
639.174	13.25
639.365	13.34
639.556	13.36
639.747	13.29
639.938	13.34
640.129	13.37
640.32	13.27
640.511	13.29
640.701	13.38
640.892	13.27
641.083	13.33
641.274	13.43
641.465	13.4
641.655	13.29
641.846	13.35
642.037	13.19
642.228	13.11
642.418	13.21
642.609	13.27
642.8	13.24
642.99	13.23
643.181	13.27
643.372	13.15
643.562	13.1
643.753	13.05
643.943	13.07
644.134	12.93
644.324	12.92
644.515	12.9
644.705	12.95
644.896	12.91
645.086	12.9
645.277	12.87
645.467	12.86
645.658	12.82
645.848	12.89
646.038	12.87
646.229	12.87
646.419	12.79
646.61	12.74
646.8	12.67
646.99	12.71
647.18	12.65
647.371	12.68
647.561	12.64
647.751	12.71
647.941	12.62
648.132	12.59
648.322	12.57
648.512	12.67
648.702	12.62
648.892	12.63
649.082	12.62
649.272	12.5
649.462	12.32
649.653	12.23
649.843	12.13
650.033	12.15
650.223	12.2
650.413	12.19
650.603	12.25
650.793	12.31
650.983	12.22
651.172	12.19
651.362	12.16
651.552	12.05
651.742	11.95
651.932	11.97
652.122	11.98
652.312	11.98
652.502	12.04
652.691	12.08
652.881	12
653.071	11.93
653.261	11.73
653.45	11.48
653.64	11.42
653.83	11.32
654.019	11.18
654.209	11.12
654.399	11.21
654.588	11.12
654.778	11.07
654.968	11.04
655.157	11.11
655.347	10.95
655.536	10.81
655.726	10.62
655.915	10.43
656.105	10.29
656.294	10.21
656.484	10
656.673	9.93
656.863	9.95
657.052	9.78
657.241	9.51
657.431	9.47
657.62	9.38
657.809	9.06
657.999	8.93
658.188	8.9
658.377	8.83
658.567	8.72
658.756	8.73
658.945	8.66
659.134	8.51
659.324	8.39
659.513	8.31
659.702	8.16
659.891	8.04
660.08	7.95
660.269	7.89
660.458	7.71
660.648	7.58
660.837	7.5
661.026	7.42
661.215	7.28
661.404	7.17
661.593	7.2
661.782	6.97
661.971	6.97
662.16	6.91
662.349	6.91
662.538	6.66
662.726	6.72
662.915	6.5
663.104	6.37
663.293	6.32
663.482	6.43
663.671	6.33
663.86	6.28
664.048	6.24
664.237	6.17
664.426	5.98
664.615	5.93
664.803	5.95
664.992	5.87
665.181	5.79
665.369	5.69
665.558	5.64
665.747	5.6
665.935	5.66
666.124	5.72
666.312	5.8
666.501	5.81
666.69	5.68
666.878	5.65
667.067	5.54
667.255	5.65
667.444	5.83
667.632	5.95
667.82	6
668.009	6.04
668.197	5.83
668.386	5.7
668.574	5.78
668.762	5.65
668.951	5.61
669.139	5.7
669.327	5.6
669.516	5.55
669.704	5.59
669.892	5.71
670.08	5.67
670.269	5.63
670.457	5.62
670.645	5.45
670.833	5.48
671.021	5.53
671.21	5.6
671.398	5.77
671.586	5.93
671.774	5.85
671.962	5.88
672.15	5.91
672.338	5.7
672.526	5.79
672.714	5.75
672.902	5.8
673.09	6.01
673.278	6.25
673.466	6.31
673.654	6.44
673.842	6.44
674.03	6.44
674.218	6.34
674.405	6.39
674.593	6.34
674.781	6.48
674.969	6.53
675.157	6.64
675.344	6.67
675.532	6.91
675.72	7
675.908	7.07
676.095	7.06
676.283	7.16
676.471	7.24
676.658	7.25
676.846	7.3
677.033	7.42
677.221	7.58
677.409	7.5
677.596	7.61
677.784	7.57
677.971	7.68
678.159	7.66
678.346	7.78
678.534	7.82
678.721	8.08
678.909	8.08
679.096	8.18
679.283	8.43
679.471	8.71
679.658	8.68
679.846	8.93
680.033	9.13
680.22	9.05
680.408	8.91
680.595	9.03
680.782	8.9
680.969	8.96
681.157	9.02
681.344	9.08
681.531	9.07
681.718	9.12
681.905	9.19
682.093	9.42
682.28	9.73
682.467	10.01
682.654	10.23
682.841	10.29
683.028	10.33
683.215	10.3
683.402	10.17
683.589	10.33
683.776	10.51
683.963	10.49
684.15	10.63
684.337	11.02
684.524	11.26
684.711	11.41
684.898	11.63
685.085	11.81
685.271	11.99
685.458	11.95
685.645	12.04
685.832	12.39
686.019	12.74
686.205	12.79
686.392	13.06
686.579	13.25
686.766	13.55
686.952	13.76
687.139	14.18
687.326	14.46
687.512	14.8
687.699	15.04
687.886	15.17
688.072	15.33
688.259	15.86
688.445	16.27
688.632	16.35
688.818	16.95
689.005	17.33
689.191	17.41
689.378	17.84
689.564	18.34
689.751	18.52
689.937	18.82
690.124	19.31
690.31	19.49
690.496	20.08
690.683	20.59
690.869	21.15
691.055	21.78
691.242	22.61
691.428	23.02
691.614	23.5
691.8	24.06
691.987	24.37
692.173	24.62
692.359	25.17
692.545	25.71
692.731	26.08
692.918	26.76
693.104	27.24
693.29	27.68
693.476	28.34
693.662	29.07
693.848	29.53
694.034	29.97
694.22	30.47
694.406	30.89
694.592	31.35
694.778	31.86
694.964	32.44
695.15	32.98
695.336	33.36
695.522	34.12
695.708	34.58
695.894	35.43
696.08	36.22
696.265	36.83
696.451	37.1
696.637	37.94
696.823	38.39
697.009	38.74
697.194	39.26
697.38	39.68
697.566	39.86
697.751	40.36
697.937	40.83
698.123	41.28
698.308	42.14
698.494	42.65
698.68	43.04
698.865	43.66
699.051	44.3
699.236	44.34
699.422	44.75
699.607	45.01
699.793	45.34
699.978	45.65
700.164	46.21
700.349	46.87
700.535	47.3
700.72	47.58
700.906	48.15
701.091	48.57
701.276	48.73
701.462	49.4
701.647	49.87
701.832	50.15
702.018	50.55
702.203	50.96
702.388	51.02
702.573	51.38
702.759	51.76
702.944	52.24
703.129	52.7
703.314	53.07
703.499	53.16
703.684	53.26
703.87	53.71
704.055	54.22
704.24	54.51
704.425	55.23
704.61	55.69
704.795	55.71
704.98	55.55
705.165	55.76
705.35	55.85
705.535	56.02
705.72	56.27
705.905	56.83
706.09	57.13
706.275	57.12
706.459	57.23
706.644	57.23
706.829	57.21
707.014	57.22
707.199	57.69
707.384	57.83
707.568	58.02
707.753	58.51
707.938	58.99
708.123	59
708.307	59.24
708.492	59.42
708.677	59.18
708.861	59.04
709.046	59.3
709.231	60
709.415	60.45
709.6	60.63
709.784	60.98
709.969	61.06
710.153	60.66
710.338	60.53
710.522	60.66
710.707	60.87
710.891	60.88
711.076	60.94
711.26	60.98
711.445	61.19
711.629	61.43
711.813	61.54
711.998	61.89
712.182	61.72
712.366	62.02
712.551	62.53
712.735	62.9
712.919	62.57
713.103	63.31
713.288	63.33
713.472	62.38
713.656	62.41
713.84	62.86
714.024	62.73
714.208	62.68
714.393	63.46
714.577	63.92
714.761	64.27
714.945	64.19
715.129	64.57
715.313	64.65
715.497	64.54
715.681	64.91
715.865	65.14
716.049	65.16
716.233	65.14
716.417	65.39
716.601	65.1
716.785	65.31
716.968	65.46
717.152	66.06
717.336	66.22
717.52	66.35
717.704	66.5
717.888	66.97
718.071	66.81
718.255	66.92
718.439	67.18
718.622	67.17
718.806	67.37
718.99	67.04
719.174	67.19
719.357	67.31
719.541	68.35
719.724	68.27
719.908	68.89
720.092	69.25
720.275	69.34
720.459	68.87
720.642	68.89
720.826	68.94
721.009	68.67
721.193	68.46
721.376	68.66
721.559	68.87
721.743	69.31
721.926	69.36
722.11	69.94
722.293	69.58
722.476	69.32
722.66	69.17
722.843	69.33
723.026	68.84
723.21	69.27
723.393	70.55
723.576	70.28
723.759	70.47
723.942	70.87
724.126	70.89
724.309	70.32
724.492	71.14
724.675	71.13
724.858	71.69
725.041	72.44
725.224	72.56
725.407	72.66
725.59	73.39
725.774	73.49
725.957	72.73
726.14	72.9
726.322	73.05
726.505	73.01
726.688	73.51
726.871	74.17
727.054	74.38
727.237	74.48
727.42	74.77
727.603	74.66
727.786	75.09
727.968	75.67
728.151	75.81
728.334	75.41
728.517	75.86
728.699	76.78
728.882	76.55
729.065	77.09
729.248	77.77
729.43	77.85
729.613	77.95
729.796	78.13
729.978	77.94
730.161	78.03
730.343	77.59
730.526	77.3
730.708	76.89
730.891	77.28
731.073	77.34
731.256	77.25
731.438	77.09
731.621	77.92
731.803	77.76
731.986	78.07
732.168	78.23
732.35	78.81
732.533	78.7
732.715	79.47
732.898	79.67
733.08	80.34
733.262	80.38
733.444	80.21
733.627	80.16
733.809	80.97
733.991	81.55
734.173	81.35
734.355	81.6
734.538	81.16
734.72	80.34
734.902	80.37
735.084	80.59
735.266	80.79
735.448	80.99
735.63	81.1
735.812	80.56
735.994	80.67
736.176	80.74
736.358	80.97
736.54	82.18
736.722	81.84
736.904	81.72
737.086	81.73
737.268	82.26
737.45	81.69
737.632	82.63
737.814	82.41
737.995	82.53
738.177	82.4
738.359	81.75
738.541	82.23
738.723	83.39
738.904	84.27
739.086	84.13
739.268	84.52
739.449	83.71
739.631	82.85
739.813	83.08
739.994	83.43
740.176	83.88
740.358	84.31
740.539	85.65
740.721	85.29
740.902	86.1
741.084	85.93
741.265	86.18
741.447	85.65
741.628	85.85
741.81	85.03
741.991	85.49
742.172	85.92
742.354	85.75
742.535	85.53
742.717	85.84
742.898	86.21
743.079	85.95
743.261	86.39
743.442	85.65
743.623	85.88
743.804	85.58
743.986	85.74
744.167	84.4
744.348	84.27
744.529	84.01
744.71	82.93
744.891	82.66
745.073	83.32
745.254	84.27
745.435	84.71
745.616	84.93
745.797	85.9
745.978	86.36
746.159	86.27
746.34	84.98
746.521	86.55
746.702	84.04
746.883	83.69
747.064	83.67
747.245	84.33
747.426	83.97
747.606	85.87
747.787	86.56
747.968	86.78
748.149	87.3
748.33	87.15
748.51	86.53
748.691	85.42
748.872	85.11
749.053	83.59
749.233	82.8
749.414	82.61
749.595	81.87
749.775	80.91
749.956	82.05
750.137	81.47
750.317	81.96
750.498	83.85
750.678	85.14
750.859	85.01
751.04	85.81
751.22	85.38
751.4	85.07
751.581	83.36
751.761	83.67
751.942	83.24
752.122	83.34
752.303	82.05
752.483	82.58
752.663	82.26
752.844	82.54
753.024	83.84
753.204	85.25
753.385	85.23
753.565	85.3
753.745	84.78
753.925	83.61
754.106	83.06
754.286	83.3
754.466	83.37
754.646	84.55
754.826	84.59
755.006	84.16
755.187	86.58
755.367	86.23
755.547	85.77
755.727	86.54
755.907	86.93
756.087	86.59
756.267	86.19
756.447	85.29
756.627	83.64
756.807	84.42
756.987	83.08
757.167	83.95
757.346	84.77
757.526	84.67
757.706	84.36
757.886	84.59
758.066	85.68
758.246	87.23
758.425	87.17
758.605	86.46
758.785	85.75
758.965	84.33
759.144	82.37
759.324	83.33
759.504	84.07
759.683	84.36
759.863	83.04
760.043	81.2
760.222	80.89
760.402	78.99
760.581	78.65
760.761	81.67
760.94	82.71
761.12	84.44
761.299	86.12
761.479	85.96
761.658	83.65
761.838	83.88
762.017	83.75
762.197	83.94
762.376	85.17
762.555	86.36
762.735	87.03
762.914	84.04
763.093	83.37
763.273	81.54
763.452	80.89
763.631	80.5
763.81	81.62
763.99	80.67
764.169	81.59
764.348	79.05
764.527	77.22
764.706	79.07
764.885	80.31
765.064	79.39
765.243	81.6
765.423	84.22
765.602	82.8
765.781	81.16
765.96	81.02
766.139	80.38
766.318	79.8
766.497	79.17
766.676	79.17
766.854	81.18
767.033	80.91
767.212	79.74
767.391	80.33
767.57	81.39
767.749	79.15
767.928	81.29
768.106	79.89
768.285	78.28
768.464	78.41
768.643	77.97
768.821	76.43
769	79.82
769.179	80.12
769.357	78.82
769.536	79.54
769.715	80.01
769.893	81.03
770.072	80.38
770.25	80.5
770.429	82.39
770.607	81.84
770.786	78.87
770.964	80.87
771.143	81.39
771.321	80.87
771.5	82.4
771.678	83.38
771.857	80.46
772.035	80.01
772.213	79.02
772.392	75.77
772.57	75.79
772.748	77.8
772.927	76.91
773.105	76.59
773.283	78.4
773.461	77.06
773.64	78.44
773.818	80.25
773.996	80.69
774.174	79.59
774.352	79.69
774.531	76.47
774.709	76.85
774.887	76.66
775.065	77.29
775.243	77.2
775.421	77.31
775.599	77.84
775.777	76.32
775.955	73.38
776.133	72.06
776.311	73.94
776.489	70.62
776.667	71.53
776.844	74.9
777.022	76.23
777.2	75.41
777.378	78.52
777.556	80.05
777.734	81.44
777.911	85.05
778.089	84.03
778.267	83.1
778.445	80.31
778.622	77.39
778.8	75.08
778.978	77.46
779.155	72.83
779.333	74.09
779.511	73.99
779.688	73.81
779.866	68.33
780.043	69.54
780.221	66.76
780.398	65.51
780.576	67.97
780.753	71.79
780.931	72.26
781.108	74.84
781.286	77.35
781.463	73.33
781.64	71.6
781.818	75.12
781.995	77.26
782.172	77.06
782.35	79.62
782.527	81
782.704	77.73
782.882	76.52
783.059	76.42
783.236	75.16
783.413	78.43
783.59	80.16
783.768	75.65
783.945	77.72
784.122	76.18
784.299	73.12
784.476	72.91
784.653	74.93
784.83	70.67
785.007	69.36
785.184	69.63
785.361	68.55
785.538	72.99
785.715	76.91
785.892	78.55
786.069	79.18
786.246	83.91
786.423	83.21
786.6	81.34
786.776	83.34
786.953	80.64
787.13	78.65
787.307	75.19
787.484	76.38
787.66	74.61
787.837	77.67
788.014	74.18
788.191	72.42
788.367	70.97
788.544	70.89
788.721	69.65
788.897	74.07
789.074	76.75
789.25	76.69
789.427	78.93
789.603	77.8
789.78	75.08
789.956	73.74
790.133	70.72
790.309	68.15
790.486	72.63
790.662	73.12
790.839	73.92
791.015	75.43
791.192	74.78
791.368	74.23
791.544	69.54
791.721	70.16
791.897	71.17
792.073	71.71
792.249	66.56
792.426	72.72
792.602	74.17
792.778	74.51
792.954	73.69
793.13	74.1
793.307	66.26
793.483	59.3
793.659	59.64
793.835	62.28
794.011	58.3
794.187	62.76
794.363	62.73
794.539	63.66
794.715	58.18
794.891	63.03
795.067	62.06
795.243	68.02
795.419	64.61
795.595	67.98
795.771	68.4
795.947	68.76
796.122	63.99
796.298	69.19
796.474	69.31
796.65	67.48
796.826	69.99
797.001	73.8
797.177	68
797.353	69.52
797.529	71.2
797.704	70.01
797.88	67.25
798.056	67.81
798.231	66.8
798.407	70.7
798.582	68.93
798.758	78.19
798.934	80.98
799.109	77.94
799.285	74.42
799.46	75.98
799.636	68.56
799.811	67.32
799.986	71.04
800.162	73.01
800.337	77.24
800.513	71.69
800.688	72.49
800.863	77.42
801.039	73.61
801.214	63.89
801.389	75.23
801.565	73.1
801.74	60.49
801.915	62.41
802.09	67.7
802.265	67.85
802.441	64.32
802.616	68.87
802.791	74
802.966	71.81
803.141	66.91
803.316	69.46
803.491	72.7
803.666	73.47
803.841	71.84
804.016	70.8
804.191	76.9
804.366	72.36
804.541	64.11
804.716	66.3
804.891	62.96
805.066	59.68
805.241	56.69
805.416	54.69
805.591	50.91
805.765	53.05
805.94	55.78
806.115	61.63
806.29	60.45
806.464	64.1
806.639	64.41
806.814	53.69
806.989	45.9
807.163	52.75
807.338	56.07
807.512	50.33
807.687	44.07
807.862	58.77
808.036	57.29
808.211	60.5
808.385	71.82
808.56	85.41
808.734	80.07
808.909	75.54
809.083	63.32
809.258	66.28
809.432	67.57
809.606	57.09
809.781	61.49
809.955	67
810.13	69.03
810.304	60.31
810.478	64.89
810.652	68.6
810.827	64.57
811.001	53.87
811.175	50.28
811.349	47.96
811.524	36.5
811.698	27.8
811.872	31.28
812.046	50.88
812.22	59.11
812.394	62.6
812.568	69.4
812.742	73.9
812.916	56.97
813.09	49.43
813.264	54.81
813.438	55.67
813.612	50.65
813.786	53.37
813.96	63.27
814.134	59.55
814.308	76.05
814.482	85.2
814.656	78.99
814.83	72.57
815.003	71.7
815.177	54.26
815.351	49.64
815.525	47.3
815.698	40.29
815.872	34.17
816.046	30.13
816.219	30.67
816.393	48.49
816.567	59.43
816.74	73.72
816.914	79.67
817.088	88.77
817.261	78.14
817.435	64.27
817.608	56.86
817.782	47.22
817.955	37.2
818.129	41.93
818.302	56.99
818.475	60.93
818.649	63.16
818.822	51.78
818.996	58.72
819.169	48.78
819.342	29.64
819.516	32.8
819.689	48.08
819.862	44.9
820.035	36.69
820.209	43.54
820.382	46.27
820.555	43.86
820.728	24.95
820.901	34.76
821.075	35.79
821.248	33.85
821.421	31.2
821.594	37.14
821.767	50.08
821.94	63.74
822.113	45.98
822.286	44.27
822.459	61.33
822.632	47.08
822.805	35.46
822.978	38.72
823.151	42.29
823.324	26.79
823.496	12.59
823.669	3.41
823.842	10.76
824.015	-3.11
824.188	-14.51
824.361	-2.79
824.533	5.77
824.706	13.45
824.879	14.67
825.051	44.51
825.224	43.71
825.397	47.14
825.569	50.49
825.742	73.85
825.915	61.42
826.087	82.25
826.26	51.37
826.432	47.88
826.605	36.57
826.777	24.97
826.95	10.97
827.122	25.14
827.295	15.03
827.467	20.33
827.64	4.81
827.812	5.1
827.984	0.85
828.157	-0.22
828.329	-33.62
828.501	-19.99
828.674	-10.48
828.846	-16.21
829.018	10.06
829.19	-4.21
829.363	22.32
829.535	27.99
829.707	40.11
829.879	24.1
830.051	30.41
830.223	12.73
830.395	1.49
830.568	-13.46
830.74	-15.98
830.912	21.99
831.084	3.6
831.256	-3.04
831.428	-1.15
831.6	-11.09
831.772	-55.07
831.943	-50.39
832.115	-13.7
832.287	-11.22
832.459	1.98
832.631	31.42
832.803	59.67
832.975	74.27
833.146	69.72
833.318	67.88
833.49	78.75
833.662	31.31
833.833	-2.04
834.005	5.02
834.177	14.8
834.348	8.9
834.52	16.7
834.692	20.4
834.863	-10.93
835.035	-1.57
835.206	-87.58
835.378	-57.58
835.549	-40.67
835.721	-0.02
835.892	-14.44
836.064	15.44
836.235	25
836.407	44.89
836.578	7.21
836.749	2.56
836.921	-8.52
837.092	-50.56
837.264	-44.45
837.435	-59.18
837.606	-1.97
837.777	22.45
837.949	49.39
838.12	52.58
838.291	71.15
838.462	62.52
838.633	34.38
838.805	24.65
838.976	26.52
839.147	-40.45
839.318	-68.09
839.489	-124.49
839.66	-122.9
839.831	-57.94
840.002	-13.02
840.173	-15.58
840.344	38.52
840.515	83.26
840.686	-52.83
840.857	-92.71
841.028	-78.01
841.199	-43.52
841.369	-79.34
841.54	-52.72
841.711	-5.95
841.882	-0.02
842.053	-14.04
842.223	-10.17
842.394	9.28
842.565	-4.34
842.736	34.81
842.906	42.79
843.077	58.49
843.248	64.79
843.418	86.72
843.589	31.31
843.759	82.62
843.93	53.98
844.101	18.89
844.271	21.08
844.442	44.84
844.612	45.42
844.783	20.39
844.953	3.35
845.123	-31.61
845.294	-102.52
845.464	-330.52
845.635	-178.55
845.805	-61.81
845.975	-7.59
846.146	-15.91
846.316	-19.1
846.486	-6.8
846.656	20.68
846.827	12.09
846.997	-3.7
847.167	14.4
847.337	21.59
847.507	-16.41
847.677	-2.53
847.848	62.69
848.018	54.38
848.188	50.36
848.358	29.86
848.528	19.57
848.698	-26.89
848.868	-106.38
849.038	-199.21
849.208	-66.3
849.378	-42.39
849.548	-23.46
849.718	-13.98
849.887	0.2
850.057	-12.53
850.227	-39.69
850.397	-72.43
850.567	-137.38
850.737	-212.72
850.906	-799.06
851.076	-576.76
851.246	-176.05
851.415	8.42
851.585	-23.06
851.755	-25.95
851.924	6.84
852.094	-25.5
852.264	-93.64
852.433	-854.09
852.603	-199.81
852.772	-177.22
852.942	-63.65
853.111	-50.85
853.281	-6
853.45	18.17
853.62	-55.45
853.789	-75.48
853.959	-119.7
854.128	-96.88
854.297	-107.09
854.467	-108.34
854.636	-101.33
854.805	-15.16
854.975	-51.65
855.144	-101.16
855.313	87.94
855.482	-81.2
855.652	-137.41
855.821	-60.25
855.99	41.66
856.159	20.43
856.328	22.61
856.497	23.9
856.667	21.29
856.836	32.87
857.005	15.06
857.174	3.76
857.343	-35.18
857.512	0.47
857.681	-49.2
857.85	-72.66
858.019	-64.73
858.188	-37.27
858.356	-52.22
858.525	-78.92
858.694	-69.82
858.863	-133.46
859.032	-109.56
859.201	-164.38
859.369	-170.73
859.538	-120.69
859.707	-70.65
859.876	-116.74
860.044	-105.24
860.213	-6.96
860.382	-23.06
860.55	-13.77
860.719	28.44
860.888	21.89
861.056	-23.89
861.225	-33.85
861.393	-12.42
861.562	-24.3
861.73	-53.37
861.899	-37.83
862.067	-11.21
862.236	44.73
862.404	-107.28
862.572	-60.65
862.741	-14.44
862.909	-13.14
863.078	-98.67
863.246	-32.36
863.414	13.05
863.582	23.32
863.751	25.55
863.919	-2.78
864.087	16.92
864.255	7.77
864.424	-313.25
864.592	-71.13
864.76	-108.79
864.928	-377
865.096	-216
865.264	-97.91
865.432	-955.11
865.6	-81.12
865.768	-86.69
865.936	-105.06
866.104	-52.17
866.272	-95.7
866.44	-211.52
866.608	334.37
866.776	128.41
866.944	1744.77
867.112	-310.28
867.28	-148.74
867.448	-68.75
867.615	-46.72
867.783	-30.82
867.951	-54.25
868.119	-7.62
868.286	-23.22
868.454	-112.19
868.622	-136.81
868.789	-134.3
868.957	-2894.64
869.125	-2061.18
869.292	-64.93
869.46	-91.02
869.627	23.37
869.795	10.71
869.963	44.22
870.13	33.85
870.298	39.96
870.465	-1.28
870.632	-40.58
870.8	-45.75
870.967	-89.06
871.135	-109.13
871.302	-97.12
871.469	-146.74
871.637	-122.86
871.804	-74.91
871.971	-144.71
872.139	-544.3
872.306	-87.87
872.473	-113.51
872.64	-476.5
872.807	-278.65
872.975	-92.87
873.142	-357.91
873.309	3284.46
873.476	-76.17
873.643	1.73
873.81	11.51
873.977	46.08
874.144	71.96
874.311	-8.53
874.478	-91.57
874.645	-107.48
874.812	-91.88
874.979	-48.81
875.146	-65.34
875.313	-72.38
875.48	5.46
875.647	-1.96
875.813	-49.8
875.98	-20.56
876.147	-43.34
876.314	-118.07
876.481	1274.59
876.647	-1510.39
876.814	506.87
876.981	-70.48
877.147	-37.74
877.314	25.99
877.481	50.03
877.647	6.08
877.814	-36.12
877.98	-80.83
878.147	-19.73
878.314	18.61
878.48	25
878.647	50.24
878.813	64.19
878.979	22.29
879.146	-24.6
879.312	-38.13
879.479	-128.61
879.645	-226.01
879.811	-297.24
879.978	-533.78
880.144	-56.53
880.31	-35.14
880.477	-135.03
880.643	-189.17
880.809	-75.53
880.975	-122.25
881.142	-706.59
881.308	-63.33
881.474	-25.69
881.64	-12.28
881.806	-75.23
881.972	-32.6
882.138	-88.46
882.304	-126.3
882.47	-284.95
882.636	-1035.45
882.802	-312.5
882.968	-88.55
883.134	-40.67
883.3	-34.41
883.466	32.81
883.632	57.78
883.798	42.77
883.964	34.95
884.129	38.74
884.295	0.86
884.461	-36.17
884.627	-68.14
884.793	-87.78
884.958	-22.61
885.124	-86.48
885.29	-152.51
885.455	-189.44
885.621	-37.21
885.787	-125.77
885.952	-51.83
886.118	-78.8
886.283	-90.23
886.449	-172.42
886.614	-172.54
886.78	-264.33
886.945	1126.64
887.111	-471.82
887.276	-472.3
887.442	-875.68
887.607	-437.38
887.773	-198.81
887.938	-182.57
888.103	-155.19
888.269	-83.21
888.434	-116.89
888.599	-90.34
888.764	-14.7
888.93	-27.65
889.095	-34.17
889.26	-62.73
889.425	-19.43
889.59	-9.9
889.756	-0.58
889.921	6.35
890.086	47.75
890.251	9.87
890.416	-185.41
890.581	-1810.08
890.746	407.23
890.911	806.53
891.076	267.34
891.241	-629.29
891.406	-78.53
891.571	-93.9
891.736	-338.65
891.901	-605.53
892.065	643.13
892.23	111.41
892.395	215.51
892.56	310.48
892.725	-576.76
892.889	-1859.15
893.054	-281.15
893.219	-84.32
893.384	-29.34
893.548	-46.06
893.713	-47.02
893.878	-28.62
