Data from Ofra_1a_PS_OCX4_Reflection_2.txt Node
Date: Tue Jul 20 10:39:20 EDT 2021
User: Adam
Spectrometer: FLMT01687
Trigger mode: 0
Integration Time (sec): 1.004000E0
Scans to average: 2
Electric dark correction enabled: true
Nonlinearity correction enabled: false
Boxcar width: 2
XAxis mode: Wavelengths
Number of Pixels in Spectrum: 3648
>>>>>Begin Spectral Data<<<<<
179.494	-184.26
179.716	-96.18
179.937	141.47
180.158	-200.64
180.38	40.63
180.601	-20.59
180.823	-37.4
181.044	-112.22
181.265	-328.64
181.486	242.65
181.708	165.26
181.929	-6190.91
182.15	24.96
182.372	639.9
182.593	425.35
182.814	-357.05
183.035	-2.37
183.257	10.06
183.478	39.74
183.699	21.98
183.92	-23.02
184.141	-72.15
184.363	-56.48
184.584	-101.18
184.805	-70.94
185.026	-5.04
185.247	-0.27
185.468	-5.2
185.689	31.38
185.91	9.77
186.132	18.24
186.353	15.99
186.574	17.37
186.795	7.22
187.016	42.7
187.237	27.89
187.458	23.17
187.679	16.69
187.9	20.58
188.121	-6.89
188.342	6.48
188.563	32.54
188.784	42.67
189.005	43.76
189.226	54.82
189.447	63
189.667	44.81
189.888	35.86
190.109	7.99
190.33	-2.18
190.551	-10.42
190.772	-10.94
190.993	-22.67
191.214	6.31
191.434	-12.88
191.655	-75.92
191.876	-36.42
192.097	-27.72
192.318	-6.11
192.538	-7.78
192.759	13.2
192.98	20.96
193.201	13.6
193.421	-1.49
193.642	9.29
193.863	11.48
194.083	0.9
194.304	16.69
194.525	33.6
194.745	12.47
194.966	13.56
195.187	17.48
195.407	-3.82
195.628	9.26
195.848	28.15
196.069	15.58
196.29	4.37
196.51	29.3
196.731	20.4
196.951	-8.88
197.172	-8.19
197.392	-27.64
197.613	-6.58
197.833	-16.37
198.054	-9.89
198.274	3
198.495	23.04
198.715	13.03
198.936	18.65
199.156	27.29
199.377	27.86
199.597	22.01
199.817	19.89
200.038	39.92
200.258	26.42
200.479	23.95
200.699	35.47
200.919	27.89
201.14	-5.86
201.36	8.12
201.58	-22.48
201.801	-48.66
202.021	-61.28
202.241	-49.27
202.461	-39.66
202.682	26.35
202.902	48.79
203.122	59.12
203.342	50.26
203.563	31.12
203.783	7.12
204.003	4.84
204.223	9.95
204.443	29.36
204.663	54.48
204.884	60.7
205.104	15.27
205.324	10.85
205.544	-14.27
205.764	-12.1
205.984	-19.08
206.204	-6.57
206.424	-3.15
206.644	-25.06
206.864	-53.24
207.084	-21.99
207.304	-40.54
207.525	-45.42
207.745	-1.68
207.964	5.87
208.184	4.73
208.404	19.84
208.624	42.28
208.844	30.03
209.064	34.12
209.284	20.4
209.504	8.16
209.724	-5.76
209.944	-13.11
210.164	-15.42
210.384	-16.29
210.604	-46.57
210.823	-65.19
211.043	-12.58
211.263	-73.96
211.483	-18.72
211.703	13.74
211.922	21.91
212.142	1.52
212.362	27.38
212.582	17.76
212.801	10.97
213.021	30.38
213.241	12.2
213.461	10.69
213.68	8.71
213.9	1.82
214.12	-30.63
214.339	-34.35
214.559	-28.91
214.779	-26.29
214.998	-9.81
215.218	9.11
215.438	19.4
215.657	5.98
215.877	-8.28
216.096	4.5
216.316	13.03
216.535	6.04
216.755	13.6
216.974	0.38
217.194	-15.02
217.413	-3.09
217.633	-18.53
217.852	-14.94
218.072	-6.63
218.291	-23.02
218.511	-43.89
218.73	-39.58
218.95	-54.92
219.169	-34.69
219.389	15.93
219.608	37.62
219.827	30.28
220.047	27.5
220.266	5.78
220.485	-31.97
220.705	-34.9
220.924	-37.44
221.143	3.92
221.363	36.26
221.582	31.9
221.801	22.21
222.021	30.7
222.24	34.83
222.459	35.78
222.678	39.82
222.897	44
223.117	48.48
223.336	49.61
223.555	32.56
223.774	61.38
223.993	44.08
224.213	26.63
224.432	17.63
224.651	25.92
224.87	13.05
225.089	17.72
225.308	21.25
225.527	7.37
225.746	4.25
225.965	9.15
226.184	-19.25
226.404	-23.77
226.623	-9.68
226.842	3.56
227.061	2.42
227.28	33.86
227.499	43.76
227.718	35.92
227.936	28.23
228.155	23.07
228.374	13.54
228.593	8.78
228.812	13.7
229.031	20.15
229.25	9.2
229.469	0.69
229.688	5.53
229.907	8.27
230.125	-5.22
230.344	1.79
230.563	16.25
230.782	16.16
231.001	13.3
231.22	27.61
231.438	33.68
231.657	22.58
231.876	23.44
232.095	18.01
232.313	-0.6
232.532	1.82
232.751	-4.09
232.969	-1.02
233.188	-4.12
233.407	9
233.625	17.82
233.844	20.96
234.063	18.11
234.281	22.59
234.5	20.42
234.719	5.39
234.937	-9.16
235.156	-5.26
235.374	-9.94
235.593	8.46
235.811	12.65
236.03	29.1
236.249	26.51
236.467	34.13
236.686	2.44
236.904	15.15
237.123	8.93
237.341	13.58
237.559	2.97
237.778	35.77
237.996	20.62
238.215	-6.97
238.433	-91.59
238.652	-23.35
238.87	-21.49
239.088	6.23
239.307	23.58
239.525	34.41
239.743	24.38
239.962	-4.62
240.18	-12.66
240.398	-17.85
240.617	-40.8
240.835	-52.07
241.053	-6.43
241.271	-0.05
241.49	-2.47
241.708	15.73
241.926	16.18
242.144	13.19
242.363	9.52
242.581	-9.46
242.799	-60.6
243.017	-49.5
243.235	-27.43
243.453	-39.11
243.672	-18.32
243.89	1.13
244.108	29.29
244.326	30.85
244.544	41.92
244.762	45.28
244.98	39.56
245.198	31.96
245.416	28.64
245.634	15.05
245.852	-18.14
246.07	7.21
246.288	7.85
246.506	17.34
246.724	11.06
246.942	32.65
247.16	28.33
247.378	19
247.596	5.33
247.814	14.14
248.032	7.68
248.25	19.11
248.468	15.03
248.685	13.29
248.903	11.42
249.121	10.43
249.339	0.8
249.557	11.96
249.775	24.88
249.992	25.26
250.21	28.66
250.428	30.32
250.646	31.59
250.863	13.9
251.081	22.44
251.299	24.11
251.517	28.63
251.734	18.28
251.952	40.67
252.17	30.65
252.387	15.45
252.605	2.43
252.823	-3.19
253.04	1.34
253.258	12.56
253.475	31.94
253.693	18.15
253.911	15.73
254.128	-3.26
254.346	7.43
254.563	18.82
254.781	38.76
254.998	43.29
255.216	30.92
255.433	-0.33
255.651	9.46
255.868	0.81
256.086	14.58
256.303	30.85
256.521	44.83
256.738	26.86
256.956	43.91
257.173	30.3
257.39	17.02
257.608	12.46
257.825	11.95
258.043	5.78
258.26	-1.68
258.477	-4.07
258.695	-11.11
258.912	-21.48
259.129	-40.13
259.346	-37.4
259.564	-23.71
259.781	-32.25
259.998	7.86
260.216	26.55
260.433	25.52
260.65	21.83
260.867	30.45
261.084	26.36
261.302	13.4
261.519	24.83
261.736	21.09
261.953	34.96
262.17	32.67
262.387	29.18
262.604	19.99
262.822	25.82
263.039	23.22
263.256	21.41
263.473	25.21
263.69	18.45
263.907	24.41
264.124	14.96
264.341	31.35
264.558	24.91
264.775	38.84
264.992	34.4
265.209	23.47
265.426	-30.64
265.643	-21.15
265.86	-50.07
266.077	-46.56
266.294	-6.4
266.51	34.19
266.727	44.89
266.944	43.3
267.161	48.02
267.378	49.89
267.595	15.09
267.812	0.83
268.028	4.95
268.245	4.54
268.462	11.93
268.679	42.52
268.896	57.97
269.112	38.57
269.329	18.97
269.546	30.25
269.763	11.06
269.979	4.11
270.196	13.28
270.413	10.86
270.629	-18.96
270.846	-6.16
271.063	-6.39
271.279	11.52
271.496	17.74
271.712	31.02
271.929	24.87
272.146	9.89
272.362	15.14
272.579	14.04
272.795	5.95
273.012	16.21
273.228	38.28
273.445	14.93
273.661	1.15
273.878	10.49
274.094	24.89
274.311	12.35
274.527	-8.54
274.744	3.63
274.96	10.75
275.177	4.62
275.393	3.89
275.609	18.58
275.826	25.66
276.042	2.14
276.259	4.66
276.475	3.97
276.691	-7.23
276.908	-13.6
277.124	9.19
277.34	-4.46
277.557	-1.68
277.773	10.97
277.989	1.04
278.205	9.42
278.422	1.79
278.638	7.59
278.854	-0.83
279.07	23.13
279.286	20.05
279.503	36.86
279.719	30.57
279.935	32.78
280.151	15.09
280.367	21.89
280.583	6.3
280.799	1.78
281.016	-21.53
281.232	-5.79
281.448	-20.91
281.664	-2.36
281.88	20.56
282.096	39.65
282.312	33.84
282.528	35.59
282.744	33.93
282.96	9.02
283.176	4.3
283.392	-36.25
283.608	-30.5
283.824	-51.25
284.04	-52.75
284.256	-42.51
284.471	-9.84
284.687	-12.86
284.903	-8.09
285.119	0.86
285.335	11.3
285.551	11.22
285.767	1.26
285.982	9.5
286.198	3.59
286.414	-15.82
286.63	-29.66
286.846	-4.49
287.061	-11.6
287.277	-15.64
287.493	-21.79
287.709	0.19
287.924	20.28
288.14	30.69
288.356	48.69
288.571	46.75
288.787	26.24
289.003	27.93
289.218	15.97
289.434	2.28
289.65	28.92
289.865	36.24
290.081	29.87
290.296	28.61
290.512	17.06
290.727	7.15
290.943	10.66
291.159	13.82
291.374	6.77
291.59	27.14
291.805	18.87
292.021	18.65
292.236	7.36
292.451	6.95
292.667	-5.15
292.882	4.21
293.098	11.65
293.313	4.56
293.529	20.67
293.744	12.35
293.959	5.4
294.175	-4.19
294.39	5.36
294.605	7.37
294.821	5.67
295.036	12.53
295.251	14.12
295.467	0.91
295.682	3.69
295.897	15.54
296.112	9.51
296.328	10.36
296.543	3.89
296.758	-9.62
296.973	-17.65
297.188	-16.95
297.404	-27.7
297.619	-16.8
297.834	-34.73
298.049	-4.92
298.264	-22.81
298.479	-33.63
298.694	2.95
298.909	17.28
299.125	12.85
299.34	26.72
299.555	27.81
299.77	33.63
299.985	25.62
300.2	25.5
300.415	16.05
300.63	18.7
300.845	2.82
301.06	-0.04
301.275	-9.54
301.49	-5.14
301.704	-3.12
301.919	-4
302.134	-0.75
302.349	-3.57
302.564	-1.65
302.779	-11.8
302.994	-3.42
303.209	-5.2
303.423	18.97
303.638	26.28
303.853	23.32
304.068	24.48
304.283	32.31
304.497	14.9
304.712	17.54
304.927	23.57
305.142	26.67
305.356	32.32
305.571	33.39
305.786	24.66
306	41.87
306.215	42.13
306.43	32.74
306.644	29.6
306.859	27.38
307.074	24.26
307.288	25.64
307.503	36.55
307.717	28.46
307.932	38.1
308.147	25.23
308.361	21.28
308.576	-2.36
308.79	10.82
309.005	-10.69
309.219	14.52
309.434	21.62
309.648	18.18
309.863	15.08
310.077	27.14
310.292	14.9
310.506	-9.19
310.72	-5.77
310.935	10.83
311.149	11.16
311.364	30.79
311.578	49.52
311.792	58.77
312.007	52.59
312.221	48.64
312.435	24.8
312.649	12.26
312.864	14.94
313.078	13.78
313.292	21.75
313.507	21.84
313.721	15.39
313.935	14.61
314.149	19.78
314.363	11.42
314.578	2.85
314.792	4.12
315.006	-11.4
315.22	1.5
315.434	6.41
315.648	6.61
315.862	19.11
316.077	5.38
316.291	3.65
316.505	-8.15
316.719	-5.96
316.933	-16.99
317.147	6.05
317.361	7.65
317.575	10.45
317.789	19.64
318.003	14.47
318.217	7.73
318.431	-6.34
318.645	-5.97
318.859	-1.69
319.073	17.15
319.287	22.59
319.5	31.12
319.714	28.47
319.928	26.19
320.142	18.51
320.356	19.7
320.57	3.65
320.784	2.79
320.997	-14.61
321.211	7.81
321.425	-6.32
321.639	9.73
321.853	30.59
322.066	29.63
322.28	21.55
322.494	29.72
322.707	31.68
322.921	20.14
323.135	41.32
323.349	34.9
323.562	34.77
323.776	35.55
323.989	44.12
324.203	21.33
324.417	31.49
324.63	26.43
324.844	-2.91
325.057	-21.33
325.271	-19.69
325.485	-27.62
325.698	-11.97
325.912	21.83
326.125	13.31
326.339	24.71
326.552	7.22
326.766	4.61
326.979	-10.73
327.193	-12.43
327.406	-29.15
327.619	-13.55
327.833	-26.48
328.046	-13.99
328.26	-14.38
328.473	1.19
328.686	-3.6
328.9	22.44
329.113	12.63
329.326	15.44
329.54	18.48
329.753	21.45
329.966	7.09
330.179	4.06
330.393	10.84
330.606	2.97
330.819	-11.53
331.032	-14.41
331.246	-2.21
331.459	-4.97
331.672	-20.58
331.885	-11.55
332.098	-3.78
332.311	-9.94
332.525	-10.45
332.738	4.06
332.951	1.97
333.164	8.47
333.377	20.33
333.59	21.04
333.803	23.68
334.016	31.48
334.229	20.67
334.442	8.09
334.655	2.37
334.868	-9.52
335.081	-11.44
335.294	-8.97
335.507	7.26
335.72	22.87
335.933	37.54
336.146	32.75
336.359	23.95
336.572	18.44
336.785	15.58
336.997	4.13
337.21	13.26
337.423	11.85
337.636	6.83
337.849	-6.56
338.062	-8.67
338.274	1.1
338.487	-18.01
338.7	-33.26
338.913	-18.88
339.125	-20.12
339.338	-27.87
339.551	-13.48
339.763	-6.51
339.976	-9.5
340.189	-2.75
340.402	-2.55
340.614	11.32
340.827	13.52
341.039	14.24
341.252	2.37
341.465	-4.67
341.677	-5.32
341.89	11.29
342.102	19.02
342.315	43.04
342.527	42.68
342.74	36.47
342.952	13.71
343.165	-0.41
343.377	1.4
343.59	5.59
343.802	-2.93
344.015	11.2
344.227	15.35
344.44	1.93
344.652	4.39
344.864	5.71
345.077	15.2
345.289	25.68
345.502	30.28
345.714	23.72
345.926	31.26
346.139	7.38
346.351	-0.8
346.563	1.26
346.775	18.15
346.988	32.48
347.2	43.85
347.412	45.31
347.624	33.2
347.837	32.25
348.049	19.99
348.261	7.17
348.473	-6.33
348.685	-0.37
348.897	-4.75
349.11	9.04
349.322	20.28
349.534	30.75
349.746	20.42
349.958	1.18
350.17	-24.16
350.382	-23.09
350.594	-21.43
350.806	-0.19
351.018	11.24
351.23	23.43
351.442	31.75
351.654	25.1
351.866	18.77
352.078	30.88
352.29	22.34
352.502	19.87
352.714	34.86
352.926	22.11
353.138	19.87
353.35	17.4
353.561	14.44
353.773	3.73
353.985	7.24
354.197	7.06
354.409	13.28
354.621	-5.1
354.832	-3.07
355.044	-13.76
355.256	-18.94
355.468	-36.05
355.679	4.05
355.891	13.86
356.103	14.31
356.314	9.85
356.526	10.46
356.738	-2.01
356.949	-2.38
357.161	18.47
357.373	12.73
357.584	24.39
357.796	26.03
358.008	22.87
358.219	20.86
358.431	15.9
358.642	4.4
358.854	8.38
359.065	3.9
359.277	-4.37
359.488	5.07
359.7	9.06
359.911	-11.59
360.123	5.6
360.334	-2.39
360.546	-4.52
360.757	5.16
360.969	23.06
361.18	14.88
361.391	30.85
361.603	39.9
361.814	30.08
362.025	28.57
362.237	30.97
362.448	25.24
362.659	21.18
362.871	14.72
363.082	12.11
363.293	7.17
363.504	-11.6
363.716	-10.72
363.927	10.2
364.138	-12.62
364.349	-17.72
364.56	-5.67
364.772	-5.93
364.983	-2.97
365.194	2.88
365.405	0.28
365.616	10.72
365.827	4.51
366.038	5.71
366.25	24.56
366.461	34.47
366.672	23.28
366.883	13.87
367.094	-0.04
367.305	-21.81
367.516	-30.74
367.727	-29.4
367.938	-10.95
368.149	-14.21
368.36	-15.14
368.571	-17.82
368.781	2.51
368.992	-8.42
369.203	-4.75
369.414	-1.14
369.625	-2.44
369.836	2.52
370.047	8.13
370.258	18.87
370.468	12.53
370.679	13.89
370.89	-1.2
371.101	8.22
371.312	-0.33
371.522	8.16
371.733	10.69
371.944	-4.81
372.155	-4.47
372.365	3.45
372.576	-1.11
372.787	7.66
372.997	16.04
373.208	5.26
373.419	-3.65
373.629	-7.87
373.84	-17.59
374.05	-17.48
374.261	-17.46
374.472	-3.99
374.682	9.35
374.893	-1.14
375.103	11.19
375.314	21.28
375.524	9.6
375.735	8.54
375.945	20.02
376.156	11.69
376.366	-0.64
376.577	8.82
376.787	7.19
376.997	4.9
377.208	9.59
377.418	15.03
377.629	11.77
377.839	18.23
378.049	14.87
378.26	11.45
378.47	4.17
378.68	1.53
378.89	-6.88
379.101	-4.66
379.311	0.08
379.521	-4.86
379.732	2.09
379.942	3.89
380.152	1.94
380.362	-1.09
380.572	17.27
380.783	18.55
380.993	17.68
381.203	18.3
381.413	17.69
381.623	14.8
381.833	14.8
382.043	10.11
382.253	6.16
382.463	15.14
382.674	10.66
382.884	11.01
383.094	12.98
383.304	19.71
383.514	15.4
383.724	9.51
383.934	2.12
384.144	10.79
384.353	10.22
384.563	14.06
384.773	22.52
384.983	18.77
385.193	10.82
385.403	4.55
385.613	1.68
385.823	-5.18
386.033	-1.87
386.242	-5.87
386.452	-3.71
386.662	-3.72
386.872	-4.02
387.082	-8.62
387.291	-3.53
387.501	-0.13
387.711	-0.85
387.921	1.56
388.13	10.74
388.34	10.34
388.55	5.39
388.759	2.19
388.969	0.83
389.179	-3.63
389.388	-1.89
389.598	-2.58
389.807	-2.86
390.017	-2.03
390.227	-4.13
390.436	-0.44
390.646	2.24
390.855	4.13
391.065	3.3
391.274	3.95
391.484	0.22
391.693	-2.53
391.903	-2.89
392.112	-1.99
392.322	-1.46
392.531	-1.82
392.74	-0.99
392.95	0.35
393.159	1.78
393.369	2.25
393.578	2.01
393.787	1.53
393.997	0.68
394.206	-1.98
394.415	-0.09
394.625	0.6
394.834	0.97
395.043	1.04
395.252	4.03
395.462	2.71
395.671	2.23
395.88	3.84
396.089	3.23
396.298	1.89
396.508	1.98
396.717	1.88
396.926	0.38
397.135	0.87
397.344	0.53
397.553	0.67
397.762	1.91
397.971	2.19
398.181	2.1
398.39	2.73
398.599	2.75
398.808	2.64
399.017	3.15
399.226	3.48
399.435	3.14
399.644	3.3
399.853	3.07
400.062	2.73
400.27	2.56
400.479	2.86
400.688	2.89
400.897	2.67
401.106	2.88
401.315	2.88
401.524	2.92
401.733	2.52
401.941	3.05
402.15	2.69
402.359	2.84
402.568	2.7
402.777	3.05
402.985	2.21
403.194	2.41
403.403	2.45
403.612	2.26
403.82	1.99
404.029	2.42
404.238	2.45
404.446	2.45
404.655	2.64
404.864	2.73
405.072	2.64
405.281	2.57
405.489	2.41
405.698	2.37
405.906	2.41
406.115	2.31
406.324	2.5
406.532	2.58
406.741	2.56
406.949	2.48
407.158	2.65
407.366	2.34
407.574	2.39
407.783	2.38
407.991	2.39
408.2	2.44
408.408	2.59
408.617	2.58
408.825	2.57
409.033	2.63
409.242	2.58
409.45	2.54
409.658	2.41
409.867	2.37
410.075	2.46
410.283	2.3
410.491	2.21
410.7	2.25
410.908	2.45
411.116	2.27
411.324	2.3
411.533	2.3
411.741	2.22
411.949	1.96
412.157	1.93
412.365	2.12
412.573	2.15
412.781	2.14
412.99	2.29
413.198	2.44
413.406	2.43
413.614	2.46
413.822	2.63
414.03	2.6
414.238	2.61
414.446	2.56
414.654	2.53
414.862	2.4
415.07	2.18
415.278	2.22
415.486	1.95
415.694	2.01
415.902	2
416.109	2.15
416.317	2.12
416.525	2.22
416.733	2.25
416.941	2.29
417.149	2.28
417.357	2.29
417.564	2.35
417.772	2.37
417.98	2.35
418.188	2.26
418.395	1.86
418.603	1.75
418.811	1.69
419.019	1.66
419.226	1.78
419.434	2.14
419.642	2.1
419.849	1.99
420.057	2.08
420.265	2
420.472	1.87
420.68	1.92
420.887	1.99
421.095	2.18
421.302	2.3
421.51	2.18
421.717	2.18
421.925	2.19
422.132	2.01
422.34	1.73
422.547	1.76
422.755	1.76
422.962	1.88
423.17	1.75
423.377	1.97
423.585	2.21
423.792	2.21
423.999	2.07
424.207	2.02
424.414	1.92
424.621	1.87
424.829	2.07
425.036	2.12
425.243	2.26
425.451	2.2
425.658	2.16
425.865	2.02
426.072	1.93
426.28	1.97
426.487	2.09
426.694	2.01
426.901	2.07
427.108	2.03
427.315	1.87
427.523	1.82
427.73	1.88
427.937	1.76
428.144	1.75
428.351	1.73
428.558	1.83
428.765	1.74
428.972	1.9
429.179	1.87
429.386	2.09
429.593	1.95
429.8	2.09
430.007	2.09
430.214	2.14
430.421	2.14
430.628	2.17
430.835	2.12
431.042	1.96
431.249	2.04
431.456	1.91
431.662	1.94
431.869	1.99
432.076	2.08
432.283	2.18
432.49	2.24
432.697	2.29
432.903	2.25
433.11	2.36
433.317	2.25
433.524	2.21
433.73	2.16
433.937	2.3
434.144	2.23
434.35	2.13
434.557	2.06
434.764	2.08
434.97	1.78
435.177	1.83
435.384	2
435.59	2.16
435.797	2.24
436.003	2.48
436.21	2.33
436.416	2.22
436.623	2.19
436.829	2.02
437.036	1.93
437.242	2.09
437.449	2.12
437.655	2.15
437.862	2.25
438.068	2.21
438.275	2.24
438.481	2.39
438.687	2.31
438.894	2.43
439.1	2.4
439.307	2.44
439.513	2.38
439.719	2.48
439.926	2.4
440.132	2.47
440.338	2.46
440.544	2.41
440.751	2.33
440.957	2.31
441.163	2.29
441.369	2.25
441.575	2.16
441.782	2.21
441.988	2.24
442.194	2.25
442.4	2.2
442.606	2.41
442.812	2.47
443.018	2.46
443.224	2.62
443.431	2.6
443.637	2.45
443.843	2.46
444.049	2.56
444.255	2.52
444.461	2.55
444.667	2.6
444.873	2.56
445.079	2.49
445.284	2.46
445.49	2.43
445.696	2.36
445.902	2.36
446.108	2.38
446.314	2.43
446.52	2.53
446.726	2.66
446.931	2.57
447.137	2.52
447.343	2.57
447.549	2.57
447.755	2.5
447.96	2.6
448.166	2.64
448.372	2.54
448.578	2.47
448.783	2.55
448.989	2.55
449.195	2.51
449.4	2.62
449.606	2.61
449.812	2.51
450.017	2.52
450.223	2.56
450.428	2.5
450.634	2.5
450.84	2.57
451.045	2.57
451.251	2.59
451.456	2.59
451.662	2.7
451.867	2.67
452.073	2.72
452.278	2.67
452.483	2.68
452.689	2.49
452.894	2.48
453.1	2.43
453.305	2.53
453.51	2.54
453.716	2.6
453.921	2.67
454.127	2.61
454.332	2.54
454.537	2.41
454.742	2.45
454.948	2.41
455.153	2.57
455.358	2.6
455.563	2.74
455.769	2.76
455.974	2.74
456.179	2.6
456.384	2.56
456.589	2.39
456.795	2.43
457	2.45
457.205	2.44
457.41	2.45
457.615	2.53
457.82	2.55
458.025	2.56
458.23	2.63
458.435	2.65
458.64	2.64
458.845	2.61
459.05	2.61
459.255	2.6
459.46	2.57
459.665	2.62
459.87	2.57
460.075	2.6
460.28	2.61
460.485	2.72
460.69	2.73
460.895	2.8
461.099	2.69
461.304	2.61
461.509	2.63
461.714	2.66
461.919	2.54
462.123	2.63
462.328	2.59
462.533	2.47
462.738	2.39
462.942	2.42
463.147	2.38
463.352	2.46
463.556	2.54
463.761	2.53
463.966	2.57
464.17	2.65
464.375	2.79
464.58	2.72
464.784	2.75
464.989	2.78
465.193	2.68
465.398	2.62
465.602	2.75
465.807	2.84
466.011	2.81
466.216	2.87
466.42	2.88
466.625	2.88
466.829	2.86
467.034	2.93
467.238	2.99
467.443	2.91
467.647	2.9
467.851	2.94
468.056	2.93
468.26	3.01
468.464	3.13
468.669	3.18
468.873	3.13
469.077	3.08
469.282	3.06
469.486	2.95
469.69	2.95
469.894	3.01
470.099	3.05
470.303	2.93
470.507	3.04
470.711	2.98
470.915	2.98
471.119	3.07
471.324	3.2
471.528	3.26
471.732	3.3
471.936	3.34
472.14	3.24
472.344	3.32
472.548	3.28
472.752	3.23
472.956	3.15
473.16	3.24
473.364	3.15
473.568	3.1
473.772	3.13
473.976	3.24
474.18	3.24
474.384	3.21
474.588	3.23
474.792	3.27
474.995	3.23
475.199	3.2
475.403	3.2
475.607	3.3
475.811	3.3
476.015	3.28
476.218	3.27
476.422	3.32
476.626	3.31
476.83	3.37
477.033	3.48
477.237	3.57
477.441	3.55
477.644	3.55
477.848	3.54
478.052	3.45
478.255	3.43
478.459	3.45
478.663	3.46
478.866	3.51
479.07	3.53
479.273	3.52
479.477	3.56
479.681	3.58
479.884	3.54
480.088	3.59
480.291	3.63
480.495	3.58
480.698	3.54
480.901	3.55
481.105	3.53
481.308	3.51
481.512	3.57
481.715	3.64
481.919	3.7
482.122	3.72
482.325	3.79
482.529	3.81
482.732	3.78
482.935	3.73
483.138	3.74
483.342	3.74
483.545	3.78
483.748	3.86
483.952	3.9
484.155	3.95
484.358	3.95
484.561	3.92
484.764	3.85
484.967	3.83
485.171	3.86
485.374	3.81
485.577	3.86
485.78	3.9
485.983	3.88
486.186	3.85
486.389	3.97
486.592	3.95
486.795	4.01
486.998	4.03
487.201	4.07
487.404	4.12
487.607	4.17
487.81	4.16
488.013	4.21
488.216	4.22
488.419	4.19
488.622	4.2
488.825	4.27
489.028	4.33
489.231	4.42
489.433	4.45
489.636	4.51
489.839	4.53
490.042	4.59
490.245	4.58
490.447	4.64
490.65	4.68
490.853	4.72
491.056	4.74
491.258	4.85
491.461	4.87
491.664	4.86
491.866	4.88
492.069	5
492.272	4.92
492.474	5.03
492.677	5.19
492.879	5.28
493.082	5.28
493.285	5.47
493.487	5.53
493.69	5.54
493.892	5.52
494.095	5.63
494.297	5.63
494.5	5.69
494.702	5.79
494.905	5.91
495.107	6.02
495.309	6.15
495.512	6.26
495.714	6.34
495.917	6.53
496.119	6.54
496.321	6.57
496.524	6.59
496.726	6.62
496.928	6.58
497.13	6.65
497.333	6.69
497.535	6.79
497.737	6.9
497.939	7.03
498.142	7.09
498.344	7.2
498.546	7.23
498.748	7.32
498.95	7.41
499.152	7.49
499.355	7.5
499.557	7.51
499.759	7.65
499.961	7.7
500.163	7.73
500.365	7.87
500.567	7.99
500.769	7.94
500.971	7.98
501.173	7.99
501.375	8.07
501.577	8.07
501.779	8.02
501.981	8.04
502.183	8.06
502.385	7.99
502.587	8.09
502.788	8.2
502.99	8.21
503.192	8.31
503.394	8.32
503.596	8.26
503.798	8.16
503.999	8.2
504.201	8.15
504.403	8.21
504.605	8.25
504.806	8.35
505.008	8.33
505.21	8.34
505.411	8.27
505.613	8.28
505.815	8.21
506.016	8.24
506.218	8.22
506.42	8.21
506.621	8.13
506.823	8.12
507.024	8.03
507.226	8.08
507.427	8.06
507.629	8.07
507.83	8.02
508.032	8.01
508.233	7.96
508.435	7.94
508.636	7.97
508.838	7.97
509.039	7.95
509.24	7.92
509.442	7.91
509.643	7.83
509.845	7.84
510.046	7.83
510.247	7.83
510.448	7.83
510.65	7.83
510.851	7.75
511.052	7.73
511.254	7.72
511.455	7.7
511.656	7.64
511.857	7.67
512.058	7.65
512.26	7.52
512.461	7.52
512.662	7.55
512.863	7.45
513.064	7.47
513.265	7.54
513.466	7.56
513.667	7.53
513.868	7.54
514.069	7.49
514.27	7.44
514.471	7.34
514.672	7.35
514.873	7.33
515.074	7.39
515.275	7.35
515.476	7.36
515.677	7.32
515.878	7.39
516.079	7.32
516.28	7.4
516.481	7.48
516.682	7.5
516.882	7.5
517.083	7.46
517.284	7.43
517.485	7.32
517.686	7.31
517.886	7.33
518.087	7.34
518.288	7.37
518.488	7.42
518.689	7.38
518.89	7.32
519.091	7.36
519.291	7.29
519.492	7.29
519.692	7.33
519.893	7.34
520.094	7.29
520.294	7.37
520.495	7.34
520.695	7.38
520.896	7.41
521.096	7.45
521.297	7.43
521.497	7.47
521.698	7.37
521.898	7.33
522.099	7.37
522.299	7.33
522.499	7.31
522.7	7.39
522.9	7.4
523.101	7.31
523.301	7.3
523.501	7.33
523.702	7.26
523.902	7.24
524.102	7.32
524.302	7.38
524.503	7.38
524.703	7.41
524.903	7.41
525.103	7.37
525.304	7.36
525.504	7.43
525.704	7.46
525.904	7.44
526.104	7.47
526.304	7.49
526.504	7.47
526.705	7.45
526.905	7.53
527.105	7.52
527.305	7.51
527.505	7.43
527.705	7.43
527.905	7.45
528.105	7.43
528.305	7.45
528.505	7.49
528.705	7.56
528.905	7.57
529.105	7.61
529.304	7.65
529.504	7.71
529.704	7.69
529.904	7.72
530.104	7.75
530.304	7.72
530.503	7.71
530.703	7.67
530.903	7.7
531.103	7.73
531.303	7.74
531.502	7.83
531.702	7.88
531.902	7.93
532.101	7.94
532.301	7.98
532.501	7.97
532.7	8.01
532.9	8.02
533.1	8.07
533.299	8.08
533.499	8.01
533.698	8.04
533.898	8.07
534.097	8.04
534.297	8.06
534.496	8.15
534.696	8.19
534.895	8.2
535.095	8.25
535.294	8.3
535.494	8.31
535.693	8.31
535.892	8.3
536.092	8.29
536.291	8.29
536.491	8.32
536.69	8.38
536.889	8.43
537.088	8.46
537.288	8.5
537.487	8.53
537.686	8.55
537.886	8.53
538.085	8.55
538.284	8.58
538.483	8.6
538.682	8.61
538.882	8.65
539.081	8.64
539.28	8.71
539.479	8.72
539.678	8.7
539.877	8.73
540.076	8.79
540.275	8.77
540.474	8.78
540.673	8.86
540.872	8.9
541.071	8.92
541.27	8.98
541.469	9.02
541.668	9.06
541.867	9.08
542.066	9.13
542.265	9.22
542.464	9.26
542.663	9.29
542.862	9.37
543.06	9.4
543.259	9.37
543.458	9.4
543.657	9.4
543.856	9.46
544.054	9.47
544.253	9.53
544.452	9.64
544.651	9.68
544.849	9.64
545.048	9.71
545.247	9.79
545.445	9.77
545.644	9.79
545.843	9.89
546.041	9.89
546.24	9.91
546.438	9.96
546.637	10.06
546.836	10.1
547.034	10.16
547.233	10.21
547.431	10.21
547.63	10.22
547.828	10.23
548.027	10.31
548.225	10.32
548.423	10.44
548.622	10.53
548.82	10.59
549.019	10.62
549.217	10.72
549.415	10.73
549.614	10.83
549.812	10.84
550.01	10.89
550.209	10.97
550.407	11.05
550.605	10.98
550.803	11.1
551.002	11.28
551.2	11.31
551.398	11.46
551.596	11.57
551.794	11.66
551.993	11.63
552.191	11.68
552.389	11.72
552.587	11.82
552.785	11.86
552.983	11.99
553.181	12.16
553.379	12.23
553.577	12.28
553.775	12.43
553.973	12.55
554.171	12.54
554.369	12.59
554.567	12.76
554.765	12.75
554.963	12.74
555.161	12.85
555.359	12.98
555.557	12.98
555.755	13.2
555.952	13.36
556.15	13.49
556.348	13.53
556.546	13.71
556.744	13.69
556.941	13.69
557.139	13.68
557.337	13.85
557.535	13.9
557.732	13.99
557.93	14.2
558.128	14.31
558.325	14.37
558.523	14.46
558.721	14.62
558.918	14.62
559.116	14.79
559.313	14.93
559.511	15.08
559.708	15.15
559.906	15.3
560.104	15.33
560.301	15.4
560.498	15.5
560.696	15.61
560.893	15.76
561.091	15.9
561.288	16.01
561.486	16.06
561.683	16.17
561.88	16.24
562.078	16.34
562.275	16.48
562.473	16.64
562.67	16.7
562.867	16.78
563.064	16.87
563.262	16.92
563.459	17.05
563.656	17.22
563.853	17.27
564.051	17.4
564.248	17.55
564.445	17.56
564.642	17.63
564.839	17.84
565.036	17.92
565.234	17.97
565.431	18.12
565.628	18.26
565.825	18.31
566.022	18.5
566.219	18.6
566.416	18.7
566.613	18.83
566.81	19
567.007	19.04
567.204	19.2
567.401	19.28
567.598	19.29
567.795	19.28
567.991	19.33
568.188	19.43
568.385	19.47
568.582	19.61
568.779	19.75
568.976	19.86
569.172	20.01
569.369	20.18
569.566	20.21
569.763	20.2
569.96	20.28
570.156	20.32
570.353	20.38
570.55	20.47
570.746	20.62
570.943	20.67
571.14	20.72
571.336	20.71
571.533	20.82
571.729	20.89
571.926	21.05
572.123	21.13
572.319	21.24
572.516	21.32
572.712	21.36
572.909	21.25
573.105	21.34
573.302	21.42
573.498	21.36
573.695	21.46
573.891	21.56
574.087	21.5
574.284	21.61
574.48	21.75
574.677	21.75
574.873	21.85
575.069	21.98
575.266	21.98
575.462	22.11
575.658	22.21
575.854	22.26
576.051	22.32
576.247	22.25
576.443	22.15
576.639	22.13
576.835	22.07
577.032	22.06
577.228	22.17
577.424	22.24
577.62	22.24
577.816	22.25
578.012	22.29
578.208	22.33
578.404	22.3
578.6	22.43
578.796	22.41
578.993	22.39
579.189	22.41
579.384	22.37
579.58	22.34
579.776	22.39
579.972	22.42
580.168	22.44
580.364	22.51
580.56	22.39
580.756	22.4
580.952	22.32
581.148	22.26
581.343	22.26
581.539	22.33
581.735	22.29
581.931	22.3
582.127	22.21
582.322	22.2
582.518	22.14
582.714	22.14
582.909	22.19
583.105	22.2
583.301	22.22
583.496	22.32
583.692	22.33
583.888	22.29
584.083	22.27
584.279	22.18
584.474	22.04
584.67	22.05
584.866	21.95
585.061	21.96
585.257	22.08
585.452	22.09
585.648	22.02
585.843	22.16
586.039	22.2
586.234	22.14
586.429	22.12
586.625	22.14
586.82	22.1
587.015	22.17
587.211	22.2
587.406	22.29
587.601	22.31
587.797	22.26
587.992	22.12
588.187	22.06
588.383	22.02
588.578	22.03
588.773	22.12
588.968	22.18
589.163	22.23
589.359	22.25
589.554	22.22
589.749	22.26
589.944	22.27
590.139	22.31
590.334	22.44
590.529	22.53
590.724	22.56
590.919	22.64
591.114	22.71
591.309	22.64
591.504	22.64
591.699	22.59
591.894	22.6
592.089	22.56
592.284	22.59
592.479	22.62
592.674	22.66
592.869	22.68
593.064	22.79
593.259	22.91
593.454	22.9
593.648	23
593.843	23.14
594.038	23.11
594.233	23.15
594.428	23.31
594.622	23.39
594.817	23.49
595.012	23.61
595.206	23.62
595.401	23.71
595.596	23.74
595.79	23.69
595.985	23.78
596.18	24
596.374	24.09
596.569	24.16
596.763	24.37
596.958	24.47
597.153	24.4
597.347	24.43
597.542	24.5
597.736	24.45
597.931	24.5
598.125	24.62
598.319	24.71
598.514	24.81
598.708	24.89
598.903	24.93
599.097	25.05
599.291	25.12
599.486	25.25
599.68	25.33
599.874	25.42
600.069	25.54
600.263	25.63
600.457	25.7
600.651	25.75
600.846	25.85
601.04	25.77
601.234	25.78
601.428	25.73
601.622	25.85
601.817	25.85
602.011	25.92
602.205	25.9
602.399	25.97
602.593	26
602.787	25.9
602.981	25.93
603.175	26.02
603.369	26.02
603.563	26.01
603.757	26.08
603.951	26.13
604.145	26.08
604.339	26.12
604.533	26.01
604.727	25.99
604.921	25.91
605.115	25.87
605.309	25.8
605.502	25.81
605.696	25.85
605.89	25.85
606.084	25.86
606.278	25.86
606.471	25.85
606.665	25.7
606.859	25.61
607.053	25.54
607.246	25.43
607.44	25.35
607.634	25.4
607.827	25.33
608.021	25.26
608.214	25.16
608.408	25.1
608.602	24.94
608.795	24.96
608.989	24.91
609.182	24.9
609.376	24.81
609.569	24.77
609.763	24.6
609.956	24.62
610.15	24.54
610.343	24.48
610.537	24.4
610.73	24.29
610.923	24.15
611.117	24.15
611.31	24.09
611.504	24.1
611.697	24.15
611.89	24.05
612.083	23.87
612.277	23.84
612.47	23.71
612.663	23.59
612.856	23.53
613.05	23.44
613.243	23.23
613.436	23.12
613.629	22.94
613.822	22.95
614.015	22.89
614.209	22.85
614.402	22.8
614.595	22.82
614.788	22.66
614.981	22.56
615.174	22.34
615.367	22.21
615.56	22.1
615.753	22.08
615.946	22.04
616.139	22.16
616.332	22.14
616.525	22.13
616.718	21.97
616.911	21.93
617.103	21.89
617.296	21.77
617.489	21.62
617.682	21.7
617.875	21.7
618.067	21.61
618.26	21.58
618.453	21.55
618.646	21.47
618.838	21.38
619.031	21.34
619.224	21.31
619.417	21.4
619.609	21.32
619.802	21.26
619.994	21.24
620.187	21.19
620.38	21.1
620.572	21.04
620.765	21.08
620.957	21.05
621.15	21.1
621.342	20.95
621.535	20.95
621.727	20.93
621.92	20.86
622.112	20.82
622.305	20.84
622.497	20.81
622.69	20.72
622.882	20.71
623.074	20.73
623.267	20.66
623.459	20.63
623.651	20.61
623.844	20.68
624.036	20.66
624.228	20.67
624.42	20.55
624.613	20.54
624.805	20.44
624.997	20.38
625.189	20.49
625.381	20.51
625.574	20.44
625.766	20.4
625.958	20.37
626.15	20.22
626.342	20.15
626.534	20.18
626.726	20.14
626.918	20.11
627.11	20.04
627.302	20.11
627.494	20.05
627.686	20.05
627.878	20.04
628.07	20.12
628.262	20.09
628.454	20.04
628.646	20.05
628.838	20
629.029	19.84
629.221	19.82
629.413	19.75
629.605	19.67
629.797	19.62
629.989	19.73
630.18	19.74
630.372	19.71
630.564	19.63
630.755	19.55
630.947	19.43
631.139	19.37
631.33	19.34
631.522	19.36
631.714	19.36
631.905	19.35
632.097	19.31
632.289	19.29
632.48	19.23
632.672	19.22
632.863	19.22
633.055	19.2
633.246	19.21
633.438	19.19
633.629	19.2
633.821	19.09
634.012	19.13
634.203	19.1
634.395	19.13
634.586	19.09
634.777	19.1
634.969	18.99
635.16	18.91
635.351	18.83
635.543	18.74
635.734	18.68
635.925	18.7
636.117	18.71
636.308	18.75
636.499	18.79
636.69	18.9
636.881	18.86
637.073	18.99
637.264	18.91
637.455	18.89
637.646	18.88
637.837	18.88
638.028	18.72
638.219	18.84
638.41	18.94
638.601	18.88
638.792	18.89
638.983	18.95
639.174	18.81
639.365	18.75
639.556	18.66
639.747	18.65
639.938	18.64
640.129	18.64
640.32	18.58
640.511	18.6
640.701	18.51
640.892	18.41
641.083	18.41
641.274	18.35
641.465	18.39
641.655	18.44
641.846	18.45
642.037	18.41
642.228	18.32
642.418	18.18
642.609	18.12
642.8	18.01
642.99	17.93
643.181	17.96
643.372	17.96
643.562	17.95
643.753	18.1
643.943	18.09
644.134	18.02
644.324	18.06
644.515	18.02
644.705	17.87
644.896	17.95
645.086	17.95
645.277	17.91
645.467	17.91
645.658	17.87
645.848	17.78
646.038	17.84
646.229	17.79
646.419	17.7
646.61	17.66
646.8	17.71
646.99	17.63
647.18	17.59
647.371	17.64
647.561	17.55
647.751	17.43
647.941	17.43
648.132	17.39
648.322	17.24
648.512	17.31
648.702	17.37
648.892	17.38
649.082	17.43
649.272	17.46
649.462	17.47
649.653	17.32
649.843	17.22
650.033	17.19
650.223	17.19
650.413	17.15
650.603	17.2
650.793	17.16
650.983	17.15
651.172	17.07
651.362	16.96
651.552	16.82
651.742	16.76
651.932	16.58
652.122	16.59
652.312	16.56
652.502	16.52
652.691	16.49
652.881	16.53
653.071	16.45
653.261	16.43
653.45	16.3
653.64	16.17
653.83	16.06
654.019	15.89
654.209	15.79
654.399	15.77
654.588	15.65
654.778	15.46
654.968	15.36
655.157	15.16
655.347	14.92
655.536	14.81
655.726	14.59
655.915	14.44
656.105	14.27
656.294	14.07
656.484	13.91
656.673	13.78
656.863	13.55
657.052	13.44
657.241	13.37
657.431	13.22
657.62	13.13
657.809	12.92
657.999	12.73
658.188	12.62
658.377	12.28
658.567	12.11
658.756	12.06
658.945	11.94
659.134	11.7
659.324	11.55
659.513	11.23
659.702	10.98
659.891	10.74
660.08	10.58
660.269	10.51
660.458	10.37
660.648	10.18
660.837	10.05
661.026	9.87
661.215	9.63
661.404	9.43
661.593	9.35
661.782	9.09
661.971	8.84
662.16	8.68
662.349	8.61
662.538	8.42
662.726	8.3
662.915	8.27
663.104	8.11
663.293	8.02
663.482	7.89
663.671	7.77
663.86	7.7
664.048	7.63
664.237	7.49
664.426	7.38
664.615	7.3
664.803	7.07
664.992	6.94
665.181	6.79
665.369	6.64
665.558	6.53
665.747	6.58
665.935	6.56
666.124	6.53
666.312	6.52
666.501	6.52
666.69	6.41
666.878	6.35
667.067	6.21
667.255	6.12
667.444	6.03
667.632	5.98
667.82	5.96
668.009	6
668.197	5.93
668.386	5.83
668.574	5.73
668.762	5.6
668.951	5.54
669.139	5.43
669.327	5.44
669.516	5.4
669.704	5.42
669.892	5.33
670.08	5.39
670.269	5.41
670.457	5.48
670.645	5.41
670.833	5.46
671.021	5.54
671.21	5.44
671.398	5.42
671.586	5.37
671.774	5.5
671.962	5.4
672.15	5.44
672.338	5.45
672.526	5.54
672.714	5.43
672.902	5.47
673.09	5.55
673.278	5.58
673.466	5.69
673.654	5.7
673.842	5.82
674.03	5.85
674.218	5.8
674.405	5.77
674.593	5.83
674.781	5.89
674.969	5.95
675.157	6.06
675.344	6.08
675.532	6.01
675.72	5.98
675.908	5.92
676.095	5.89
676.283	6.05
676.471	6.22
676.658	6.3
676.846	6.43
677.033	6.39
677.221	6.27
677.409	6.27
677.596	6.26
677.784	6.34
677.971	6.42
678.159	6.58
678.346	6.65
678.534	6.74
678.721	6.89
678.909	7.06
679.096	7.05
679.283	7.09
679.471	7.22
679.658	7.23
679.846	7.4
680.033	7.7
680.22	7.91
680.408	7.85
680.595	7.92
680.782	7.98
680.969	7.97
681.157	8.1
681.344	8.29
681.531	8.44
681.718	8.52
681.905	8.57
682.093	8.69
682.28	8.91
682.467	9.11
682.654	9.31
682.841	9.55
683.028	9.58
683.215	9.7
683.402	9.74
683.589	9.93
683.776	10.14
683.963	10.58
684.15	10.9
684.337	11.2
684.524	11.45
684.711	11.71
684.898	11.88
685.085	11.95
685.271	12.36
685.458	12.58
685.645	12.81
685.832	13.17
686.019	13.64
686.205	13.92
686.392	14.39
686.579	14.83
686.766	15.13
686.952	15.57
687.139	15.89
687.326	16.29
687.512	16.65
687.699	17.1
687.886	17.47
688.072	17.92
688.259	18.47
688.445	19.2
688.632	19.81
688.818	20.44
689.005	20.96
689.191	21.63
689.378	22.04
689.564	22.61
689.751	23.28
689.937	24.08
690.124	24.65
690.31	25.05
690.496	25.59
690.683	26.26
690.869	26.59
691.055	27.09
691.242	27.88
691.428	28.55
691.614	29.29
691.8	30.16
691.987	31.07
692.173	31.85
692.359	32.84
692.545	33.57
692.731	34.39
692.918	34.9
693.104	35.61
693.29	36.21
693.476	36.99
693.662	37.63
693.848	38.44
694.034	39.31
694.22	40.08
694.406	40.67
694.592	41.63
694.778	42.3
694.964	43.04
695.15	43.63
695.336	44.27
695.522	44.91
695.708	45.9
695.894	46.75
696.08	47.85
696.265	49
696.451	49.7
696.637	50.56
696.823	51.34
697.009	51.72
697.194	52.16
697.38	52.76
697.566	53.07
697.751	53.68
697.937	54.55
698.123	55.06
698.308	55.6
698.494	56.56
698.68	57.16
698.865	57.82
699.051	58.66
699.236	59.33
699.422	59.94
699.607	60.52
699.793	61.18
699.978	61.66
700.164	62.47
700.349	62.95
700.535	63.28
700.72	63.56
700.906	63.68
701.091	64.17
701.276	64.26
701.462	65
701.647	65.51
701.832	66.57
702.018	67.15
702.203	67.96
702.388	68.12
702.573	68.44
702.759	68.85
702.944	69.11
703.129	69.57
703.314	70.06
703.499	70.44
703.684	70.63
703.87	70.68
704.055	70.99
704.24	71.43
704.425	71.51
704.61	72.09
704.795	72.87
704.98	72.94
705.165	73.23
705.35	74.2
705.535	74.63
705.72	74.73
705.905	75.51
706.09	76.21
706.275	76.18
706.459	75.94
706.644	76.31
706.829	76.26
707.014	76.15
707.199	76.69
707.384	77.17
707.568	77.65
707.753	78.22
707.938	78.57
708.123	78.73
708.307	79.11
708.492	79.14
708.677	78.89
708.861	78.99
709.046	78.93
709.231	78.76
709.415	78.86
709.6	79.24
709.784	79.38
709.969	79.71
710.153	79.84
710.338	80.13
710.522	80.4
710.707	80.67
710.891	80.6
711.076	80.98
711.26	81.29
711.445	81.12
711.629	81.09
711.813	81.84
711.998	82.2
712.182	82.19
712.366	82.92
712.551	83.28
712.735	83.05
712.919	83.28
713.103	83.51
713.288	83.38
713.472	83.49
713.656	83.37
713.84	83.48
714.024	83.5
714.208	83.51
714.393	83.74
714.577	84.23
714.761	83.79
714.945	83.79
715.129	83.87
715.313	83.96
715.497	83.74
715.681	83.83
715.865	83.77
716.049	84.11
716.233	83.63
716.417	83.81
716.601	84.04
716.785	84.39
716.968	84.24
717.152	84.79
717.336	84.99
717.52	85.15
717.704	85.28
717.888	85.7
718.071	85.66
718.255	86.18
718.439	86.06
718.622	86.11
718.806	85.48
718.99	85.54
719.174	85.36
719.357	85.82
719.541	86.24
719.724	86.85
719.908	86.88
720.092	86.59
720.275	86.68
720.459	86.2
720.642	86.42
720.826	86.26
721.009	86.63
721.193	86.28
721.376	86.61
721.559	86.11
721.743	86.5
721.926	86.47
722.11	87.14
722.293	87.68
722.476	87.81
722.66	88.25
722.843	88.2
723.026	88.23
723.21	87.44
723.393	88.5
723.576	88.29
723.759	88.57
723.942	88.27
724.126	88.25
724.309	87.35
724.492	87.48
724.675	87.63
724.858	88.06
725.041	88.4
725.224	89.13
725.407	89.31
725.59	88.74
725.774	88.42
725.957	88.86
726.14	88.39
726.322	88.72
726.505	89.21
726.688	89.59
726.871	88.95
727.054	89.79
727.237	89.02
727.42	89.22
727.603	89.02
727.786	89.49
727.968	88.42
728.151	88.94
728.334	88.62
728.517	88.51
728.699	88.31
728.882	88.75
729.065	88.47
729.248	88.59
729.43	88.49
729.613	88.82
729.796	89.34
729.978	89.32
730.161	89.87
730.343	90.52
730.526	90.28
730.708	89.94
730.891	90.45
731.073	90.49
731.256	90.42
731.438	91.1
731.621	91.18
731.803	91.28
731.986	90.88
732.168	91.52
732.35	91.21
732.533	90.76
732.715	90.83
732.898	91.01
733.08	90.78
733.262	90.72
733.444	91.51
733.627	91.63
733.809	91.44
733.991	91.02
734.173	91.05
734.355	90.53
734.538	90.35
734.72	90.79
734.902	90.59
735.084	90.83
735.266	91.8
735.448	92.09
735.63	92.05
735.812	92.6
735.994	92.23
736.176	91.56
736.358	91.5
736.54	92.11
736.722	91.44
736.904	91.22
737.086	91.19
737.268	91.93
737.45	91.9
737.632	92.82
737.814	94.04
737.995	94.45
738.177	93.74
738.359	93
738.541	92.35
738.723	92.01
738.904	91.82
739.086	91.81
739.268	92.06
739.449	92.04
739.631	91.74
739.813	91.25
739.994	90.75
740.176	91.18
740.358	91.58
740.539	91.45
740.721	91.99
740.902	92.32
741.084	92.12
741.265	92.81
741.447	93.3
741.628	93.84
741.81	94.13
741.991	94.96
742.172	93.59
742.354	94.07
742.535	93.71
742.717	92.63
742.898	91.93
743.079	93.54
743.261	92.48
743.442	91.22
743.623	92.89
743.804	92.5
743.986	91.39
744.167	92.27
744.348	92.72
744.529	91.89
744.71	91.41
744.891	91.07
745.073	90.94
745.254	91.03
745.435	91.13
745.616	91.37
745.797	92.07
745.978	92.08
746.159	91.83
746.34	92.05
746.521	93.64
746.702	94.33
746.883	93.92
747.064	95.02
747.245	94.77
747.426	93.88
747.606	93.47
747.787	93.72
747.968	92.83
748.149	92.28
748.33	91.29
748.51	90.4
748.691	90.25
748.872	91.14
749.053	91.1
749.233	91.51
749.414	92.05
749.595	92.85
749.775	92.51
749.956	92.87
750.137	93.45
750.317	92.15
750.498	91.78
750.678	92.07
750.859	93.06
751.04	92.93
751.22	93.17
751.4	92.89
751.581	93.18
751.761	92.96
751.942	93.63
752.122	93.26
752.303	93.52
752.483	92.52
752.663	92.02
752.844	90.68
753.024	92.41
753.204	91.79
753.385	92.08
753.565	92.16
753.745	91.58
753.925	90.88
754.106	90.75
754.286	90.74
754.466	90.96
754.646	91.34
754.826	92.75
755.006	92.84
755.187	93.28
755.367	91.52
755.547	92.42
755.727	92.09
755.907	91.5
756.087	90.91
756.267	90.44
756.447	90.49
756.627	89.48
756.807	91.03
756.987	90.94
757.167	92.91
757.346	92.09
757.526	92.35
757.706	91.33
757.886	91.88
758.066	91.76
758.246	90.44
758.425	89.04
758.605	89.07
758.785	88.67
758.965	88.56
759.144	89.19
759.324	90.77
759.504	91.86
759.683	92.61
759.863	94.07
760.043	95.28
760.222	95.95
760.402	94.71
760.581	94.07
760.761	92.15
760.94	91.78
761.12	89.53
761.299	90.77
761.479	90.73
761.658	89.92
761.838	90.3
762.017	91.39
762.197	89.77
762.376	89.15
762.555	91.05
762.735	90.54
762.914	89.55
763.093	89.42
763.273	89.56
763.452	88.04
763.631	88.35
763.81	88.77
763.99	88.32
764.169	88.71
764.348	89.08
764.527	88.17
764.706	88.15
764.885	89.29
765.064	89.34
765.243	90.16
765.423	90.94
765.602	90.55
765.781	88.01
765.96	87.24
766.139	86.18
766.318	86.85
766.497	87.53
766.676	89.42
766.854	89.76
767.033	91.51
767.212	93.25
767.391	93.6
767.57	95.76
767.749	95.28
767.928	94.63
768.106	92.34
768.285	91.94
768.464	90.81
768.643	90.77
768.821	88.02
769	87.13
769.179	87.05
769.357	87.02
769.536	86.86
769.715	88.07
769.893	90.52
770.072	90.78
770.25	88.65
770.429	90.13
770.607	91.48
770.786	89.16
770.964	90.35
771.143	91.14
771.321	89.4
771.5	88.59
771.678	88.49
771.857	86.53
772.035	86.07
772.213	86.04
772.392	85.67
772.57	86.34
772.748	85.86
772.927	87.64
773.105	89.26
773.283	88.73
773.461	88.18
773.64	88.84
773.818	87.8
773.996	86.55
774.174	87.28
774.352	85.79
774.531	86.55
774.709	85.95
774.887	85.01
775.065	86.98
775.243	88.83
775.421	87.97
775.599	88.31
775.777	89.83
775.955	89.24
776.133	90.6
776.311	90.11
776.489	89.99
776.667	88.46
776.844	86.52
777.022	85.19
777.2	84.48
777.378	83.43
777.556	83.53
777.734	85.89
777.911	85.4
778.089	90.26
778.267	90.35
778.445	93.09
778.622	89.63
778.8	87.06
778.978	84.91
779.155	86.5
779.333	85.83
779.511	86.92
779.688	87.59
779.866	87.49
780.043	88.05
780.221	87.2
780.398	86.42
780.576	89.66
780.753	87.31
780.931	86.72
781.108	90.7
781.286	92.33
781.463	89.29
781.64	89.62
781.818	92.15
781.995	89.21
782.172	87.78
782.35	89.24
782.527	90.11
782.704	87.97
782.882	86.33
783.059	86.78
783.236	85.07
783.413	82.53
783.59	80.4
783.768	81.34
783.945	82.02
784.122	84.83
784.299	86.7
784.476	88.81
784.653	89.04
784.83	90.03
785.007	87.78
785.184	86.25
785.361	84.25
785.538	82.15
785.715	80.5
785.892	80.55
786.069	83.47
786.246	85.96
786.423	85.34
786.6	85.83
786.776	82.67
786.953	80.86
787.13	79.03
787.307	79.84
787.484	77.09
787.66	80.79
787.837	80.38
788.014	79.88
788.191	78.87
788.367	79.71
788.544	78.31
788.721	78.18
788.897	79.24
789.074	81.36
789.25	81.52
789.427	79.39
789.603	77.7
789.78	74.83
789.956	71.78
790.133	69.65
790.309	73.32
790.486	76.97
790.662	79.07
790.839	82.28
791.015	88.91
791.192	88.19
791.368	85.74
791.544	86.61
791.721	83.71
791.897	78.64
792.073	78.2
792.249	76.49
792.426	76.2
792.602	77.49
792.778	79.69
792.954	80.1
793.13	84.36
793.307	86.8
793.483	84
793.659	79.46
793.835	82.19
794.011	82.6
794.187	82.16
794.363	83.69
794.539	89.75
794.715	87.03
794.891	83.68
795.067	82.73
795.243	84.92
795.419	82.64
795.595	89.58
795.771	87.17
795.947	87.46
796.122	84.42
796.298	85.45
796.474	85.45
796.65	86.84
796.826	84.06
797.001	85.45
797.177	77.66
797.353	69.55
797.529	71.56
797.704	74.52
797.88	73.03
798.056	79.04
798.231	77.53
798.407	77.6
798.582	76.66
798.758	76.9
798.934	74.69
799.109	76.83
799.285	79.81
799.46	78.53
799.636	79.13
799.811	77.52
799.986	78.83
800.162	70.89
800.337	74.91
800.513	73.03
800.688	78.26
800.863	81.53
801.039	90.63
801.214	86.87
801.389	87.77
801.565	85.69
801.74	82.92
801.915	76.08
802.09	74.35
802.265	76.65
802.441	77.47
802.616	72.21
802.791	74.85
802.966	77.23
803.141	78.48
803.316	81.43
803.491	85.08
803.666	85.7
803.841	82.77
804.016	78.42
804.191	75.03
804.366	69.83
804.541	73.75
804.716	74.67
804.891	77.9
805.066	77.65
805.241	81.05
805.416	81.77
805.591	87.34
805.765	96.91
805.94	94.6
806.115	91.3
806.29	87.29
806.464	77.45
806.639	69.81
806.814	69.48
806.989	78.66
807.163	79.5
807.338	80.27
807.512	81.91
807.687	82.95
807.862	78.79
808.036	81.24
808.211	84.08
808.385	85.11
808.56	78.24
808.734	71.24
808.909	69.59
809.083	74.1
809.258	71.5
809.432	83.33
809.606	87.81
809.781	90.33
809.955	87.19
810.13	82.06
810.304	73.02
810.478	74.83
810.652	66.21
810.827	67.39
811.001	68.84
811.175	70.93
811.349	74.43
811.524	80.26
811.698	76.03
811.872	78.61
812.046	74.43
812.22	68.12
812.394	62.48
812.568	61.89
812.742	56.85
812.916	72.01
813.09	70.91
813.264	73.99
813.438	69.72
813.612	73.73
813.786	61.14
813.96	70.51
814.134	66.9
814.308	77.31
814.482	76.28
814.656	76.02
814.83	71.21
815.003	79.14
815.177	71.5
815.351	83.73
815.525	90.94
815.698	89.76
815.872	78.69
816.046	87.66
816.219	78.37
816.393	75.17
816.567	65.07
816.74	75.83
816.914	67.35
817.088	69.64
817.261	67.36
817.435	85.68
817.608	77.09
817.782	75.33
817.955	69.9
818.129	74.33
818.302	65.22
818.475	70.6
818.649	70.23
818.822	67.7
818.996	68.92
819.169	74.07
819.342	70.46
819.516	77.55
819.689	72.21
819.862	67.7
820.035	61.94
820.209	61.56
820.382	55.57
820.555	65.62
820.728	65.04
820.901	52.82
821.075	50.45
821.248	61.93
821.421	56.48
821.594	56.7
821.767	79.31
821.94	69.44
822.113	70.4
822.286	76.65
822.459	74.64
822.632	62.51
822.805	66.86
822.978	56.97
823.151	44.12
823.324	44.25
823.496	43.63
823.669	55.4
823.842	51.52
824.015	61.37
824.188	61.12
824.361	58.38
824.533	47.46
824.706	50.39
824.879	45
825.051	54.26
825.224	57.98
825.397	61.21
825.569	64.43
825.742	76.72
825.915	68.54
826.087	73.08
826.26	62.78
826.432	58.28
826.605	62.09
826.777	71.85
826.95	68.15
827.122	59.35
827.295	61.69
827.467	39.46
827.64	24.3
827.812	2.45
827.984	21.6
828.157	30.14
828.329	59.27
828.501	62.91
828.674	72.76
828.846	76.58
829.018	74.22
829.19	61.3
829.363	58.97
829.535	52.65
829.707	45.23
829.879	41.42
830.051	45.73
830.223	51.02
830.395	50.03
830.568	62.07
830.74	59.53
830.912	53
831.084	58.5
831.256	60.55
831.428	57.38
831.6	64.05
831.772	57.8
831.943	36.43
832.115	37.74
832.287	52.34
832.459	58.74
832.631	63.77
832.803	73.15
832.975	72.34
833.146	63.9
833.318	57.09
833.49	55.87
833.662	63.59
833.833	65.94
834.005	54.61
834.177	61.12
834.348	55.02
834.52	45.48
834.692	39.58
834.863	35.06
835.035	31.11
835.206	33.3
835.378	39.26
835.549	49.37
835.721	60.68
835.892	59.66
836.064	65.51
836.235	73.14
836.407	63.87
836.578	65.47
836.749	60.97
836.921	58.98
837.092	38.94
837.264	52.85
837.435	41.98
837.606	44.4
837.777	46.12
837.949	60.79
838.12	54.21
838.291	52.87
838.462	59.27
838.633	59.68
838.805	52.93
838.976	58.91
839.147	81.75
839.318	84.53
839.489	82.48
839.66	87.56
839.831	74.65
840.002	64.72
840.173	62.49
840.344	57.42
840.515	44.56
840.686	47.57
840.857	45.46
841.028	42.06
841.199	55.1
841.369	53.04
841.54	66.03
841.711	92.41
841.882	109.12
842.053	71.65
842.223	80.34
842.394	75.08
842.565	58.32
842.736	48.99
842.906	57.22
843.077	52.99
843.248	65.08
843.418	55.49
843.589	57.62
843.759	72.69
843.93	84.18
844.101	72.17
844.271	122.4
844.442	107.53
844.612	79.86
844.783	70.52
844.953	68.3
845.123	57.68
845.294	66.74
845.464	73.78
845.635	72.9
845.805	83.34
845.975	48.91
846.146	39.78
846.316	42.9
846.486	35.46
846.656	43.61
846.827	64.51
846.997	71.11
847.167	60.05
847.337	63.69
847.507	48.06
847.677	34.25
847.848	34.99
848.018	52.51
848.188	52.18
848.358	52.53
848.528	63.48
848.698	59.74
848.868	56.2
849.038	51.31
849.208	59.72
849.378	65.82
849.548	56.43
849.718	12.82
849.887	9.39
850.057	2.56
850.227	-3.52
850.397	22.94
850.567	36.55
850.737	50.45
850.906	60.26
851.076	29.56
851.246	33.79
851.415	20.6
851.585	39.96
851.755	51.62
851.924	73.04
852.094	67.26
852.264	76.78
852.433	56.48
852.603	38.05
852.772	59.97
852.942	76.09
853.111	82.08
853.281	78.15
853.45	72.98
853.62	46.34
853.789	32.54
853.959	44.55
854.128	39.55
854.297	58.32
854.467	60.55
854.636	56.07
854.805	45.56
854.975	53.13
855.144	65.93
855.313	86.48
855.482	59.01
855.652	46.26
855.821	27.6
855.99	1.75
856.159	-2.72
856.328	43.57
856.497	58.5
856.667	44.26
856.836	49.54
857.005	52.7
857.174	51.61
857.343	39.01
857.512	60.08
857.681	58.26
857.85	40.48
858.019	11.05
858.188	16.55
858.356	20.16
858.525	41.49
858.694	63.56
858.863	49.63
859.032	49.55
859.201	43.82
859.369	20.86
859.538	46.18
859.707	46.36
859.876	58.54
860.044	81.85
860.213	84.76
860.382	60.7
860.55	65.94
860.719	64.73
860.888	52.34
861.056	37.87
861.225	74.47
861.393	86.82
861.562	86.74
861.73	90.82
861.899	105.67
862.067	72.66
862.236	50.51
862.404	63.15
862.572	40.19
862.741	33.49
862.909	38.22
863.078	30.4
863.246	27.12
863.414	18.54
863.582	38.9
863.751	34.41
863.919	49.4
864.087	36.42
864.255	60.43
864.424	13.96
864.592	32.94
864.76	19.28
864.928	35.02
865.096	11.17
865.264	37.13
865.432	39.14
865.6	37.34
865.768	12.44
865.936	49.26
866.104	35.15
866.272	45.95
866.44	56.34
866.608	49.31
866.776	67.95
866.944	79.27
867.112	52.48
867.28	58.54
867.448	55.73
867.615	29.06
867.783	-2.7
867.951	3.9
868.119	5.54
868.286	13.8
868.454	64.3
868.622	50.06
868.789	62.16
868.957	54.74
869.125	56.2
869.292	16.48
869.46	45.85
869.627	50.41
869.795	7.77
869.963	15.23
870.13	47.38
870.298	57.08
870.465	79.1
870.632	82.41
870.8	67.22
870.967	36.61
871.135	27.13
871.302	3.56
871.469	29.74
871.637	39.69
871.804	69.47
871.971	58.63
872.139	53.24
872.306	26.37
872.473	12.08
872.64	-43.92
872.807	-33.99
872.975	4.1
873.142	44.3
873.309	37.84
873.476	81.76
873.643	123.74
873.81	75.48
873.977	56.88
874.144	76.99
874.311	41.01
874.478	-24.17
874.645	2.15
874.812	69.66
874.979	78.34
875.146	62.39
875.313	103.9
875.48	98.41
875.647	81.02
875.813	39.27
875.98	46.77
876.147	-30.6
876.314	-38.03
876.481	5.06
876.647	42.5
876.814	25.2
876.981	48.91
877.147	65.01
877.314	58.37
877.481	31.4
877.647	66.99
877.814	92.99
877.98	98.25
878.147	98.52
878.314	121.22
878.48	128.55
878.647	86.12
878.813	94.18
878.979	62.12
879.146	59.35
879.312	60.21
879.479	13.21
879.645	-0.64
879.811	-5.95
879.978	50.06
880.144	36.1
880.31	64.26
880.477	81.86
880.643	85.43
880.809	7.08
880.975	2.33
881.142	-32.69
881.308	310.5
881.474	568.52
881.64	10.91
881.806	41.94
881.972	67.66
882.138	66.58
882.304	67.54
882.47	64.6
882.636	42.86
882.802	40.43
882.968	36.55
883.134	67.86
883.3	54.2
883.466	95.13
883.632	86.51
883.798	108.7
883.964	33.39
884.129	-499.13
884.295	-111.44
884.461	-164.8
884.627	-26.04
884.793	-39.62
884.958	14.54
885.124	24.91
885.29	65.09
885.455	73.21
885.621	103.33
885.787	104.05
885.952	78.69
886.118	58.88
886.283	27.33
886.449	9.44
886.614	-1.84
886.78	4.18
886.945	-2.48
887.111	-6.66
887.276	-19.58
887.442	-31.15
887.607	50.4
887.773	23.71
887.938	43.35
888.103	62.22
888.269	68.52
888.434	44.38
888.599	45.51
888.764	36.47
888.93	33.48
889.095	24.36
889.26	-2.84
889.425	-41.25
889.59	-73.37
889.756	-61.13
889.921	-38.25
890.086	6.79
890.251	197.78
890.416	97.54
890.581	89.09
890.746	107.28
890.911	77.51
891.076	70.08
891.241	56.77
891.406	71.37
891.571	96.04
891.736	80.09
891.901	46.38
892.065	53.35
892.23	67.24
892.395	27.03
892.56	41.07
892.725	-5.04
892.889	47.41
893.054	14.99
893.219	-62.83
893.384	-153.58
893.548	-193.52
893.713	-293.44
893.878	-478.44
