Data from Ofra_2a_PS_8HS21_Reflection_1.txt Node
Date: Tue Jul 20 09:55:45 EDT 2021
User: Adam
Spectrometer: FLMT01687
Trigger mode: 0
Integration Time (sec): 9.450000E-1
Scans to average: 3
Electric dark correction enabled: true
Nonlinearity correction enabled: false
Boxcar width: 3
XAxis mode: Wavelengths
Number of Pixels in Spectrum: 3648
>>>>>Begin Spectral Data<<<<<
179.494	1158.58
179.716	698.59
179.937	819.78
180.158	3232.81
180.38	-1812.79
180.601	-328.62
180.823	-161.64
181.044	-18.73
181.265	14.83
181.486	113.08
181.708	1569.57
181.929	167.91
182.15	-311.36
182.372	-9.03
182.593	46.92
182.814	142.51
183.035	151.65
183.257	50.47
183.478	43.89
183.699	55.33
183.92	50.65
184.141	58.53
184.363	50.14
184.584	25.63
184.805	43.03
185.026	58.49
185.247	56.43
185.468	51.16
185.689	53.3
185.91	38.01
186.132	54.93
186.353	32.54
186.574	26.05
186.795	9.45
187.016	12.02
187.237	14.17
187.458	16.49
187.679	-5.83
187.9	22.9
188.121	32.78
188.342	67.22
188.563	65.85
188.784	60.19
189.005	65.43
189.226	64.99
189.447	52.85
189.667	48.22
189.888	36.38
190.109	30.48
190.33	7.56
190.551	-2.57
190.772	-6.48
190.993	6.45
191.214	-3.41
191.434	-2.55
191.655	11.41
191.876	28.69
192.097	29.44
192.318	43.65
192.538	47.68
192.759	61.51
192.98	66.19
193.201	63.68
193.421	70.55
193.642	65.3
193.863	75.39
194.083	62.7
194.304	61.94
194.525	55.32
194.745	40.09
194.966	28.06
195.187	50.3
195.407	41.41
195.628	43.49
195.848	26.49
196.069	24.93
196.29	27.81
196.51	31.12
196.731	36.38
196.951	34.94
197.172	28.07
197.392	37.98
197.613	32.15
197.833	42.88
198.054	45.51
198.274	29.23
198.495	35.39
198.715	23.02
198.936	31.22
199.156	34.51
199.377	40.25
199.597	16.28
199.817	29.92
200.038	24.29
200.258	32.89
200.479	35.81
200.699	45.95
200.919	24.95
201.14	40.78
201.36	53.34
201.58	68.62
201.801	63.37
202.021	57.51
202.241	51.81
202.461	64.6
202.682	66.56
202.902	50
203.122	33.79
203.342	41.39
203.563	44.94
203.783	41.69
204.003	41.25
204.223	37.15
204.443	34.55
204.663	43.88
204.884	36.95
205.104	38.92
205.324	53.77
205.544	49.06
205.764	51.1
205.984	52.21
206.204	52.59
206.424	57.68
206.644	43.32
206.864	22.59
207.084	39.18
207.304	28.05
207.525	31.56
207.745	37.92
207.964	41.11
208.184	39.4
208.404	53.23
208.624	27.45
208.844	26.39
209.064	26.32
209.284	28.14
209.504	20.07
209.724	13.72
209.944	2.76
210.164	9.36
210.384	31.58
210.604	35.31
210.823	16.58
211.043	13.53
211.263	31.31
211.483	27.07
211.703	31.38
211.922	36.25
212.142	41.32
212.362	46.61
212.582	46.51
212.801	45.36
213.021	56.64
213.241	53.22
213.461	26.24
213.68	18.82
213.9	23.74
214.12	21.92
214.339	23.79
214.559	36.97
214.779	47.43
214.998	54.45
215.218	59.78
215.438	65.81
215.657	61.56
215.877	66.55
216.096	55.75
216.316	55.96
216.535	59.06
216.755	41.72
216.974	32.79
217.194	28.15
217.413	36.05
217.633	23.19
217.852	19.28
218.072	20.31
218.291	46.55
218.511	43.49
218.73	46.71
218.95	42.27
219.169	47.91
219.389	45.06
219.608	45.37
219.827	37.13
220.047	46.25
220.266	43.61
220.485	39.33
220.705	23.2
220.924	20.65
221.143	11.56
221.363	13.32
221.582	10.6
221.801	15.31
222.021	19.01
222.24	30.84
222.459	29.04
222.678	28.24
222.897	18.85
223.117	19.25
223.336	23.79
223.555	17.56
223.774	21.18
223.993	31.46
224.213	40.05
224.432	51.28
224.651	45.48
224.87	28.59
225.089	30.9
225.308	48.24
225.527	43.14
225.746	36.57
225.965	35.14
226.184	33.47
226.404	46.92
226.623	48.23
226.842	26.83
227.061	29.47
227.28	44.75
227.499	48.04
227.718	46.1
227.936	47.72
228.155	44.54
228.374	51.6
228.593	54.9
228.812	43.14
229.031	35.16
229.25	45.21
229.469	45.68
229.688	47.62
229.907	38.08
230.125	26.39
230.344	33.73
230.563	41.63
230.782	30.38
231.001	22.16
231.22	16.91
231.438	21.68
231.657	30.26
231.876	27.62
232.095	25.19
232.313	35.25
232.532	42.4
232.751	50.65
232.969	63.9
233.188	68.87
233.407	61.26
233.625	56.71
233.844	57.1
234.063	58.6
234.281	46.23
234.5	39.33
234.719	32.03
234.937	46.44
235.156	46.48
235.374	43.52
235.593	34.81
235.811	48.61
236.03	38.92
236.249	46.11
236.467	34.91
236.686	42.69
236.904	41.2
237.123	51.7
237.341	47.48
237.559	52.76
237.778	54.65
237.996	54.48
238.215	45.43
238.433	43.73
238.652	37.91
238.87	37.21
239.088	29.71
239.307	25.72
239.525	17.3
239.743	13.61
239.962	14.81
240.18	25.52
240.398	27.34
240.617	40.04
240.835	38.87
241.053	56.93
241.271	56.6
241.49	45.77
241.708	42.75
241.926	24.37
242.144	12.6
242.363	27.16
242.581	21.72
242.799	22.99
243.017	25.63
243.235	22.76
243.453	42.52
243.672	49.09
243.89	44.02
244.108	43.64
244.326	52.58
244.544	66.65
244.762	56.26
244.98	48.82
245.198	42.16
245.416	43.8
245.634	49.55
245.852	42.53
246.07	36.08
246.288	41.15
246.506	46.85
246.724	58.61
246.942	56.26
247.16	54.9
247.378	53.2
247.596	58.51
247.814	43.11
248.032	40.67
248.25	34.82
248.468	38.19
248.685	34.79
248.903	37.28
249.121	34.35
249.339	43.11
249.557	44.09
249.775	36.73
249.992	22.44
250.21	18.38
250.428	10.71
250.646	8.86
250.863	10.34
251.081	5.38
251.299	24.04
251.517	37.74
251.734	31.84
251.952	48.71
252.17	43.38
252.387	37.5
252.605	36.25
252.823	21.87
253.04	18.52
253.258	24.61
253.475	17.46
253.693	34.4
253.911	39.23
254.128	35.62
254.346	32.69
254.563	21.15
254.781	21.42
254.998	21.68
255.216	19.45
255.433	13.41
255.651	20.75
255.868	20.29
256.086	37.86
256.303	34.36
256.521	22.05
256.738	13.78
256.956	17.03
257.173	20.53
257.39	24.21
257.608	18.58
257.825	19.2
258.043	24.18
258.26	19.84
258.477	22.11
258.695	18.18
258.912	32.04
259.129	28.36
259.346	29.14
259.564	26.31
259.781	38.43
259.998	37.4
260.216	38.74
260.433	28.09
260.65	38.13
260.867	34.24
261.084	52.51
261.302	50.39
261.519	42.23
261.736	36.49
261.953	34.28
262.17	37.95
262.387	41.01
262.604	15.52
262.822	14.77
263.039	20.73
263.256	18.72
263.473	19.91
263.69	3.04
263.907	3.02
264.124	15.97
264.341	13
264.558	16.83
264.775	18.85
264.992	18.21
265.209	28.88
265.426	32.96
265.643	30.54
265.86	27.49
266.077	29.86
266.294	30.62
266.51	29.08
266.727	18.35
266.944	4.25
267.161	2.1
267.378	-4.31
267.595	-15.93
267.812	-22.62
268.028	-7.77
268.245	-3.04
268.462	-0.33
268.679	0.28
268.896	11.95
269.112	22.18
269.329	31.87
269.546	30.06
269.763	36.04
269.979	41.69
270.196	43.12
270.413	41.97
270.629	38.36
270.846	38.44
271.063	34.46
271.279	26.81
271.496	21.13
271.712	22.89
271.929	26.65
272.146	26.1
272.362	14.13
272.579	11.93
272.795	13.75
273.012	12.94
273.228	10.71
273.445	11.23
273.661	10.94
273.878	15.15
274.094	18.47
274.311	24.02
274.527	21.91
274.744	30.72
274.96	22.28
275.177	30.21
275.393	34.66
275.609	36.18
275.826	25.41
276.042	44.42
276.259	36.12
276.475	40.91
276.691	41.9
276.908	35.64
277.124	34.99
277.34	44.69
277.557	33.95
277.773	34.25
277.989	39.21
278.205	14.41
278.422	23.89
278.638	25.05
278.854	18.18
279.07	9.11
279.286	7.85
279.503	4.57
279.719	29.84
279.935	20.64
280.151	28.22
280.367	29.99
280.583	40.48
280.799	41.59
281.016	36.16
281.232	29.06
281.448	25.71
281.664	24.92
281.88	29.73
282.096	21.3
282.312	15.07
282.528	13.89
282.744	12.53
282.96	17.23
283.176	19.79
283.392	24.56
283.608	31.38
283.824	28.7
284.04	29.54
284.256	37.19
284.471	44.07
284.687	28.14
284.903	18.64
285.119	1.22
285.335	11.21
285.551	22.85
285.767	12.72
285.982	11.68
286.198	15.28
286.414	26.46
286.63	51.28
286.846	43.32
287.061	38.68
287.277	47.06
287.493	37.41
287.709	41.67
287.924	35.58
288.14	35.29
288.356	43.05
288.571	36.71
288.787	44.17
289.003	53.5
289.218	48.05
289.434	50.44
289.65	42.41
289.865	38.68
290.081	37.98
290.296	27.94
290.512	33.41
290.727	41.63
290.943	44.15
291.159	33.79
291.374	36.94
291.59	33.34
291.805	37.79
292.021	19.02
292.236	9.76
292.451	2.58
292.667	8.78
292.882	3.17
293.098	10.19
293.313	11.02
293.529	15.35
293.744	23.97
293.959	36.17
294.175	35.8
294.39	39.84
294.605	35
294.821	29.01
295.036	33.25
295.251	32.49
295.467	23
295.682	26.39
295.897	27.87
296.112	29.31
296.328	31.23
296.543	28.75
296.758	25.7
296.973	33.09
297.188	36.88
297.404	28.75
297.619	23.51
297.834	28.07
298.049	29.21
298.264	24.18
298.479	14.34
298.694	16.05
298.909	13.21
299.125	22.96
299.34	21.99
299.555	25.83
299.77	24.5
299.985	19.7
300.2	19.28
300.415	27.33
300.63	21.52
300.845	27.41
301.06	29.06
301.275	36.95
301.49	48.76
301.704	43.29
301.919	38.42
302.134	41.27
302.349	30.22
302.564	22.65
302.779	18.23
302.994	11.02
303.209	14.37
303.423	23.25
303.638	19.21
303.853	30.27
304.068	32.95
304.283	31.35
304.497	28.14
304.712	31.38
304.927	30.07
305.142	30.37
305.356	28.26
305.571	25.8
305.786	22
306	23.67
306.215	25.05
306.43	28.5
306.644	34.99
306.859	31.57
307.074	32.8
307.288	34.12
307.503	34.24
307.717	29.6
307.932	32.15
308.147	22.59
308.361	25.55
308.576	27.18
308.79	30.31
309.005	32.84
309.219	38.25
309.434	34.23
309.648	33.06
309.863	32.62
310.077	19.73
310.292	20.35
310.506	24.02
310.72	22.53
310.935	23.27
311.149	26.88
311.364	23.07
311.578	24.11
311.792	19.16
312.007	12.24
312.221	17.45
312.435	15.09
312.649	-17.74
312.864	-21.43
313.078	-0.28
313.292	8.34
313.507	19.19
313.721	13.68
313.935	40.3
314.149	57.46
314.363	60.56
314.578	77.91
314.792	68.62
315.006	64.31
315.22	63.03
315.434	45.8
315.648	54.54
315.862	45.64
316.077	22.37
316.291	33.39
316.505	29.92
316.719	10.29
316.933	9.3
317.147	0.51
317.361	8.73
317.575	21.33
317.789	17.62
318.003	22.27
318.217	30.7
318.431	37.74
318.645	34.75
318.859	25.27
319.073	18.19
319.287	18.2
319.5	12.33
319.714	11.64
319.928	7.95
320.142	10.61
320.356	26.6
320.57	25.98
320.784	20.65
320.997	29.33
321.211	34.72
321.425	24.02
321.639	25.82
321.853	14.49
322.066	17.85
322.28	25.46
322.494	20.52
322.707	16.45
322.921	16.69
323.135	25.96
323.349	26.07
323.562	19.39
323.776	20.65
323.989	19.89
324.203	15.71
324.417	15.59
324.63	1.44
324.844	-0.3
325.057	1.31
325.271	-5.85
325.485	-5.12
325.698	5.87
325.912	22.34
326.125	23.14
326.339	30.88
326.552	38.28
326.766	41.98
326.979	47.85
327.193	38.62
327.406	36.38
327.619	37.65
327.833	26.09
328.046	15.35
328.26	-0.35
328.473	-3.79
328.686	8.29
328.9	2.05
329.113	4.88
329.326	9.06
329.54	7.9
329.753	20.02
329.966	21.16
330.179	22.4
330.393	25.56
330.606	25.32
330.819	25.5
331.032	34.41
331.246	35.74
331.459	39.41
331.672	35
331.885	28.95
332.098	32.02
332.311	26.74
332.525	23.2
332.738	18.63
332.951	18.07
333.164	15.22
333.377	8.66
333.59	17.72
333.803	29.74
334.016	28.71
334.229	33.41
334.442	36.4
334.655	51.97
334.868	59.48
335.081	56.23
335.294	55.62
335.507	57.86
335.72	52.03
335.933	55.45
336.146	46.56
336.359	37.86
336.572	29.84
336.785	37.05
336.997	32.04
337.21	35.02
337.423	23.83
337.636	29.49
337.849	29.88
338.062	35.63
338.274	35.01
338.487	30.96
338.7	28.03
338.913	26.37
339.125	20.75
339.338	20.74
339.551	24.59
339.763	14.95
339.976	16.88
340.189	23.36
340.402	23.48
340.614	27.06
340.827	25.38
341.039	27.02
341.252	24.26
341.465	19.74
341.677	6.75
341.89	8.38
342.102	7.92
342.315	23.88
342.527	12.92
342.74	23.35
342.952	31.64
343.165	42.98
343.377	48.49
343.59	42.71
343.802	36.27
344.015	38.88
344.227	32.22
344.44	22.45
344.652	27.44
344.864	25.71
345.077	25.51
345.289	16.35
345.502	16.46
345.714	13.17
345.926	15.23
346.139	9.44
346.351	-6.19
346.563	3.89
346.775	10.53
346.988	8.27
347.2	12.89
347.412	20.38
347.624	22.98
347.837	27.92
348.049	32.99
348.261	28.15
348.473	23.92
348.685	29.7
348.897	28.9
349.11	23.77
349.322	22.35
349.534	9.23
349.746	25.77
349.958	34.5
350.17	37.47
350.382	27.19
350.594	37.87
350.806	49.69
351.018	52.88
351.23	40.49
351.442	39.34
351.654	37.8
351.866	44.95
352.078	38.53
352.29	31.7
352.502	29.46
352.714	26
352.926	30.01
353.138	29.81
353.35	28.96
353.561	27.78
353.773	25.68
353.985	20.62
354.197	22.82
354.409	23.04
354.621	25.9
354.832	21.39
355.044	20.05
355.256	17.31
355.468	18.16
355.679	28.2
355.891	21.42
356.103	17.28
356.314	17.4
356.526	16.18
356.738	15.96
356.949	16.02
357.161	5.83
357.373	6.74
357.584	13.75
357.796	9.68
358.008	16.72
358.219	23.35
358.431	28.11
358.642	30.14
358.854	31.78
359.065	27.75
359.277	33.18
359.488	28.65
359.7	28.48
359.911	19.53
360.123	28.68
360.334	25.15
360.546	23.12
360.757	22.47
360.969	31.39
361.18	25.89
361.391	28.37
361.603	27.77
361.814	27.6
362.025	21.31
362.237	27.75
362.448	28.05
362.659	22.72
362.871	27.46
363.082	24.75
363.293	27.94
363.504	39.08
363.716	33.95
363.927	22.65
364.138	26.37
364.349	28.66
364.56	23.92
364.772	24.79
364.983	13.53
365.194	15.49
365.405	22.5
365.616	22.47
365.827	16.71
366.038	29.72
366.25	22.77
366.461	36.27
366.672	32.24
366.883	34.23
367.094	35.5
367.305	29.93
367.516	23.5
367.727	22.64
367.938	15.93
368.149	18.5
368.36	18.22
368.571	20.56
368.781	21.13
368.992	20.92
369.203	21.76
369.414	17.54
369.625	10.73
369.836	12.05
370.047	13.77
370.258	13.94
370.468	7.04
370.679	7.09
370.89	18.62
371.101	15.67
371.312	11.02
371.522	8.86
371.733	8.52
371.944	21.31
372.155	14.12
372.365	8.89
372.576	11.3
372.787	15.25
372.997	15.8
373.208	16.37
373.419	12.9
373.629	27.75
373.84	24.51
374.05	31.82
374.261	24.14
374.472	17.71
374.682	19.46
374.893	6.13
375.103	-0.3
375.314	-0.04
375.524	-4.01
375.735	-0.55
375.945	1.35
376.156	7.02
376.366	20.91
376.577	22.41
376.787	29.3
376.997	36.58
377.208	34.16
377.418	32.93
377.629	31.68
377.839	26.47
378.049	28.72
378.26	27.01
378.47	30.24
378.68	33.82
378.89	37.61
379.101	31.69
379.311	27.71
379.521	27.34
379.732	13.96
379.942	10.37
380.152	12.62
380.362	11.53
380.572	15.95
380.783	18.13
380.993	14.67
381.203	23.66
381.413	20.6
381.623	19.85
381.833	19.28
382.043	13.5
382.253	17.4
382.463	20.63
382.674	19.91
382.884	21.36
383.094	22.25
383.304	20.15
383.514	23.4
383.724	19.77
383.934	19.53
384.144	18.65
384.353	18.81
384.563	12.23
384.773	13.45
384.983	11.66
385.193	12.59
385.403	13.81
385.613	9
385.823	6.4
386.033	9.52
386.242	10.91
386.452	13.04
386.662	15.15
386.872	9.03
387.082	10.62
387.291	10.01
387.501	14.56
387.711	12.01
387.921	9.77
388.13	5.68
388.34	8.5
388.55	9.56
388.759	10.01
388.969	4.16
389.179	8.8
389.388	9.34
389.598	8.63
389.807	7.52
390.017	9.5
390.227	8.88
390.436	9.55
390.646	6.52
390.855	6.95
391.065	7.29
391.274	6.14
391.484	5.56
391.693	5.56
391.903	5.22
392.112	4.82
392.322	5.47
392.531	5.84
392.74	4.8
392.95	4.55
393.159	5.28
393.369	5.27
393.578	4.76
393.787	4.4
393.997	4.94
394.206	5.67
394.415	5.24
394.625	3.91
394.834	2.68
395.043	3.02
395.252	2.49
395.462	1.8
395.671	2.01
395.88	2.04
396.089	2.46
396.298	3.27
396.508	2.97
396.717	2.8
396.926	2.39
397.135	1.77
397.344	1.61
397.553	1.89
397.762	1.86
397.971	1.91
398.181	1.52
398.39	2.2
398.599	2.42
398.808	2.66
399.017	2.7
399.226	2.84
399.435	2.9
399.644	3.16
399.853	2.97
400.062	3
400.27	2.85
400.479	2.57
400.688	2.57
400.897	2.77
401.106	2.91
401.315	2.65
401.524	2.63
401.733	2.67
401.941	2.66
402.15	2.36
402.359	2.28
402.568	2.31
402.777	2.41
402.985	2.35
403.194	2.37
403.403	2.25
403.612	2.26
403.82	2.17
404.029	2.01
404.238	2.07
404.446	2.08
404.655	1.92
404.864	1.93
405.072	2
405.281	1.92
405.489	1.98
405.698	1.84
405.906	1.82
406.115	1.96
406.324	1.88
406.532	1.91
406.741	1.95
406.949	1.87
407.158	1.95
407.366	1.99
407.574	1.98
407.783	1.96
407.991	1.89
408.2	1.78
408.408	1.8
408.617	1.76
408.825	1.74
409.033	1.67
409.242	1.66
409.45	1.55
409.658	1.63
409.867	1.64
410.075	1.59
410.283	1.49
410.491	1.5
410.7	1.59
410.908	1.69
411.116	1.7
411.324	1.68
411.533	1.66
411.741	1.72
411.949	1.77
412.157	1.77
412.365	1.74
412.573	1.73
412.781	1.71
412.99	1.85
413.198	1.88
413.406	1.77
413.614	1.76
413.822	1.78
414.03	1.71
414.238	1.8
414.446	1.65
414.654	1.63
414.862	1.74
415.07	1.79
415.278	1.71
415.486	1.85
415.694	1.73
415.902	1.72
416.109	1.7
416.317	1.55
416.525	1.54
416.733	1.63
416.941	1.47
417.149	1.56
417.357	1.57
417.564	1.5
417.772	1.58
417.98	1.46
418.188	1.33
418.395	1.38
418.603	1.24
418.811	1.21
419.019	1.34
419.226	1.36
419.434	1.39
419.642	1.46
419.849	1.49
420.057	1.57
420.265	1.56
420.472	1.45
420.68	1.44
420.887	1.47
421.095	1.53
421.302	1.58
421.51	1.63
421.717	1.74
421.925	1.71
422.132	1.59
422.34	1.57
422.547	1.52
422.755	1.49
422.962	1.32
423.17	1.31
423.377	1.46
423.585	1.52
423.792	1.53
423.999	1.51
424.207	1.41
424.414	1.5
424.621	1.41
424.829	1.26
425.036	1.21
425.243	1.25
425.451	1.32
425.658	1.44
425.865	1.39
426.072	1.57
426.28	1.64
426.487	1.63
426.694	1.55
426.901	1.57
427.108	1.51
427.315	1.53
427.523	1.49
427.73	1.48
427.937	1.55
428.144	1.63
428.351	1.63
428.558	1.64
428.765	1.57
428.972	1.55
429.179	1.52
429.386	1.51
429.593	1.41
429.8	1.4
430.007	1.42
430.214	1.51
430.421	1.45
430.628	1.3
430.835	1.3
431.042	1.35
431.249	1.33
431.456	1.35
431.662	1.33
431.869	1.38
432.076	1.53
432.283	1.5
432.49	1.51
432.697	1.48
432.903	1.49
433.11	1.56
433.317	1.55
433.524	1.48
433.73	1.54
433.937	1.51
434.144	1.64
434.35	1.58
434.557	1.5
434.764	1.46
434.97	1.58
435.177	1.52
435.384	1.59
435.59	1.49
435.797	1.54
436.003	1.59
436.21	1.59
436.416	1.57
436.623	1.61
436.829	1.6
437.036	1.63
437.242	1.52
437.449	1.52
437.655	1.52
437.862	1.47
438.068	1.56
438.275	1.51
438.481	1.53
438.687	1.67
438.894	1.69
439.1	1.75
439.307	1.75
439.513	1.61
439.719	1.7
439.926	1.77
440.132	1.74
440.338	1.74
440.544	1.7
440.751	1.76
440.957	1.79
441.163	1.73
441.369	1.61
441.575	1.58
441.782	1.59
441.988	1.61
442.194	1.64
442.4	1.69
442.606	1.75
442.812	1.81
443.018	1.83
443.224	1.85
443.431	1.87
443.637	1.81
443.843	1.85
444.049	1.79
444.255	1.75
444.461	1.73
444.667	1.78
444.873	1.74
445.079	1.73
445.284	1.65
445.49	1.62
445.696	1.67
445.902	1.77
446.108	1.71
446.314	1.77
446.52	1.85
446.726	1.89
446.931	1.96
447.137	1.91
447.343	1.82
447.549	1.78
447.755	1.71
447.96	1.66
448.166	1.68
448.372	1.67
448.578	1.75
448.783	1.75
448.989	1.79
449.195	1.83
449.4	1.86
449.606	1.81
449.812	1.86
450.017	1.82
450.223	1.82
450.428	1.8
450.634	1.81
450.84	1.81
451.045	1.84
451.251	1.87
451.456	1.88
451.662	1.88
451.867	1.9
452.073	1.88
452.278	1.87
452.483	1.88
452.689	1.79
452.894	1.79
453.1	1.8
453.305	1.81
453.51	1.83
453.716	1.8
453.921	1.81
454.127	1.87
454.332	1.89
454.537	1.95
454.742	1.93
454.948	1.91
455.153	1.94
455.358	2.01
455.563	1.99
455.769	1.98
455.974	1.91
456.179	1.85
456.384	1.89
456.589	1.9
456.795	1.75
457	1.78
457.205	1.75
457.41	1.79
457.615	1.82
457.82	1.91
458.025	1.92
458.23	2.05
458.435	1.98
458.64	2.08
458.845	2.1
459.05	2.15
459.255	2.06
459.46	2.06
459.665	2.09
459.87	2.14
460.075	2.08
460.28	2.09
460.485	2.13
460.69	2.07
460.895	2.07
461.099	1.98
461.304	2.01
461.509	1.94
461.714	1.97
461.919	1.89
462.123	1.99
462.328	1.98
462.533	2.03
462.738	2
462.942	2.09
463.147	2.02
463.352	2.04
463.556	2.05
463.761	2.07
463.966	2.09
464.17	2.12
464.375	2.07
464.58	2.09
464.784	2.12
464.989	2.14
465.193	2.12
465.398	2.15
465.602	2.11
465.807	2.2
466.011	2.27
466.216	2.29
466.42	2.29
466.625	2.31
466.829	2.32
467.034	2.36
467.238	2.35
467.443	2.3
467.647	2.28
467.851	2.26
468.056	2.26
468.26	2.22
468.464	2.24
468.669	2.23
468.873	2.25
469.077	2.28
469.282	2.31
469.486	2.35
469.69	2.35
469.894	2.41
470.099	2.46
470.303	2.45
470.507	2.42
470.711	2.4
470.915	2.44
471.119	2.49
471.324	2.42
471.528	2.41
471.732	2.43
471.936	2.49
472.14	2.52
472.344	2.51
472.548	2.53
472.752	2.55
472.956	2.54
473.16	2.58
473.364	2.56
473.568	2.54
473.772	2.61
473.976	2.57
474.18	2.59
474.384	2.58
474.588	2.57
474.792	2.59
474.995	2.62
475.199	2.59
475.403	2.59
475.607	2.63
475.811	2.68
476.015	2.72
476.218	2.69
476.422	2.7
476.626	2.72
476.83	2.74
477.033	2.74
477.237	2.73
477.441	2.69
477.644	2.73
477.848	2.74
478.052	2.75
478.255	2.74
478.459	2.78
478.663	2.77
478.866	2.83
479.07	2.86
479.273	2.86
479.477	2.88
479.681	2.89
479.884	2.81
480.088	2.84
480.291	2.86
480.495	2.85
480.698	2.86
480.901	2.84
481.105	2.89
481.308	2.93
481.512	2.94
481.715	2.96
481.919	2.98
482.122	3.02
482.325	3.04
482.529	3.07
482.732	3.08
482.935	3.09
483.138	3.08
483.342	3.11
483.545	3.08
483.748	3.11
483.952	3.09
484.155	3.15
484.358	3.13
484.561	3.17
484.764	3.17
484.967	3.23
485.171	3.22
485.374	3.23
485.577	3.23
485.78	3.28
485.983	3.23
486.186	3.2
486.389	3.12
486.592	3.13
486.795	3.17
486.998	3.16
487.201	3.14
487.404	3.2
487.607	3.25
487.81	3.32
488.013	3.3
488.216	3.24
488.419	3.22
488.622	3.2
488.825	3.17
489.028	3.18
489.231	3.16
489.433	3.17
489.636	3.17
489.839	3.19
490.042	3.21
490.245	3.22
490.447	3.18
490.65	3.17
490.853	3.16
491.056	3.18
491.258	3.23
491.461	3.21
491.664	3.18
491.866	3.21
492.069	3.21
492.272	3.24
492.474	3.22
492.677	3.19
492.879	3.2
493.082	3.23
493.285	3.23
493.487	3.25
493.69	3.22
493.892	3.28
494.095	3.26
494.297	3.31
494.5	3.33
494.702	3.32
494.905	3.32
495.107	3.38
495.309	3.32
495.512	3.34
495.714	3.33
495.917	3.36
496.119	3.39
496.321	3.44
496.524	3.42
496.726	3.44
496.928	3.47
497.13	3.5
497.333	3.5
497.535	3.52
497.737	3.5
497.939	3.53
498.142	3.57
498.344	3.55
498.546	3.59
498.748	3.55
498.95	3.51
499.152	3.51
499.355	3.51
499.557	3.51
499.759	3.57
499.961	3.56
500.163	3.61
500.365	3.65
500.567	3.69
500.769	3.73
500.971	3.73
501.173	3.71
501.375	3.71
501.577	3.7
501.779	3.71
501.981	3.68
502.183	3.66
502.385	3.67
502.587	3.68
502.788	3.68
502.99	3.68
503.192	3.71
503.394	3.75
503.596	3.8
503.798	3.86
503.999	3.87
504.201	3.89
504.403	3.94
504.605	3.94
504.806	3.95
505.008	3.94
505.21	3.91
505.411	3.96
505.613	4
505.815	4.02
506.016	4.05
506.218	4.07
506.42	4.13
506.621	4.15
506.823	4.17
507.024	4.14
507.226	4.13
507.427	4.11
507.629	4.13
507.83	4.08
508.032	4.15
508.233	4.17
508.435	4.18
508.636	4.19
508.838	4.24
509.039	4.24
509.24	4.28
509.442	4.22
509.643	4.2
509.845	4.25
510.046	4.26
510.247	4.31
510.448	4.36
510.65	4.39
510.851	4.46
511.052	4.48
511.254	4.49
511.455	4.48
511.656	4.44
511.857	4.4
512.058	4.43
512.26	4.41
512.461	4.44
512.662	4.43
512.863	4.44
513.064	4.45
513.265	4.54
513.466	4.56
513.667	4.58
513.868	4.57
514.069	4.6
514.27	4.64
514.471	4.68
514.672	4.72
514.873	4.7
515.074	4.71
515.275	4.72
515.476	4.73
515.677	4.77
515.878	4.78
516.079	4.75
516.28	4.78
516.481	4.76
516.682	4.8
516.882	4.81
517.083	4.78
517.284	4.77
517.485	4.79
517.686	4.8
517.886	4.83
518.087	4.85
518.288	4.83
518.488	4.86
518.689	4.89
518.89	4.9
519.091	4.92
519.291	4.95
519.492	4.93
519.692	5
519.893	5.02
520.094	5.04
520.294	5.01
520.495	5.04
520.695	5.02
520.896	5.03
521.096	5.03
521.297	5.03
521.497	5.02
521.698	5.04
521.898	5.04
522.099	5.06
522.299	5.07
522.499	5.09
522.7	5.12
522.9	5.13
523.101	5.16
523.301	5.17
523.501	5.19
523.702	5.22
523.902	5.22
524.102	5.21
524.302	5.2
524.503	5.22
524.703	5.25
524.903	5.27
525.103	5.27
525.304	5.3
525.504	5.32
525.704	5.33
525.904	5.33
526.104	5.31
526.304	5.34
526.504	5.34
526.705	5.35
526.905	5.37
527.105	5.4
527.305	5.4
527.505	5.44
527.705	5.45
527.905	5.44
528.105	5.44
528.305	5.45
528.505	5.44
528.705	5.47
528.905	5.46
529.105	5.48
529.304	5.53
529.504	5.54
529.704	5.56
529.904	5.62
530.104	5.62
530.304	5.63
530.503	5.61
530.703	5.64
530.903	5.67
531.103	5.66
531.303	5.67
531.502	5.66
531.702	5.69
531.902	5.72
532.101	5.7
532.301	5.69
532.501	5.74
532.7	5.72
532.9	5.78
533.1	5.78
533.299	5.81
533.499	5.84
533.698	5.88
533.898	5.88
534.097	5.89
534.297	5.9
534.496	5.93
534.696	5.95
534.895	6.02
535.095	6.02
535.294	6.02
535.494	6.06
535.693	6.1
535.892	6.11
536.092	6.1
536.291	6.12
536.491	6.14
536.69	6.17
536.889	6.16
537.088	6.16
537.288	6.18
537.487	6.21
537.686	6.2
537.886	6.22
538.085	6.29
538.284	6.35
538.483	6.4
538.682	6.42
538.882	6.43
539.081	6.44
539.28	6.49
539.479	6.5
539.678	6.52
539.877	6.54
540.076	6.59
540.275	6.65
540.474	6.66
540.673	6.67
540.872	6.72
541.071	6.76
541.27	6.75
541.469	6.78
541.668	6.81
541.867	6.88
542.066	6.92
542.265	6.92
542.464	6.94
542.663	7.02
542.862	7.03
543.06	7.06
543.259	7.06
543.458	7.1
543.657	7.14
543.856	7.19
544.054	7.23
544.253	7.27
544.452	7.26
544.651	7.32
544.849	7.35
545.048	7.4
545.247	7.43
545.445	7.43
545.644	7.47
545.843	7.54
546.041	7.59
546.24	7.66
546.438	7.69
546.637	7.76
546.836	7.83
547.034	7.89
547.233	7.98
547.431	8.02
547.63	8.08
547.828	8.12
548.027	8.12
548.225	8.2
548.423	8.25
548.622	8.28
548.82	8.34
549.019	8.37
549.217	8.48
549.415	8.58
549.614	8.57
549.812	8.65
550.01	8.69
550.209	8.79
550.407	8.86
550.605	8.89
550.803	8.93
551.002	9
551.2	9.1
551.398	9.15
551.596	9.2
551.794	9.26
551.993	9.31
552.191	9.42
552.389	9.58
552.587	9.61
552.785	9.72
552.983	9.81
553.181	9.89
553.379	10
553.577	10.05
553.775	10.07
553.973	10.16
554.171	10.22
554.369	10.26
554.567	10.33
554.765	10.38
554.963	10.46
555.161	10.53
555.359	10.57
555.557	10.69
555.755	10.79
555.952	10.92
556.15	11.02
556.348	11.15
556.546	11.27
556.744	11.38
556.941	11.47
557.139	11.59
557.337	11.64
557.535	11.74
557.732	11.78
557.93	11.87
558.128	11.99
558.325	12.07
558.523	12.13
558.721	12.27
558.918	12.37
559.116	12.47
559.313	12.58
559.511	12.66
559.708	12.77
559.906	12.9
560.104	12.99
560.301	13.09
560.498	13.2
560.696	13.28
560.893	13.37
561.091	13.5
561.288	13.59
561.486	13.69
561.683	13.8
561.88	13.95
562.078	14.05
562.275	14.18
562.473	14.29
562.67	14.4
562.867	14.51
563.064	14.62
563.262	14.74
563.459	14.89
563.656	15.02
563.853	15.13
564.051	15.26
564.248	15.33
564.445	15.45
564.642	15.54
564.839	15.66
565.036	15.77
565.234	15.9
565.431	16
565.628	16.14
565.825	16.25
566.022	16.35
566.219	16.44
566.416	16.53
566.613	16.63
566.81	16.71
567.007	16.78
567.204	16.9
567.401	17
567.598	17.05
567.795	17.09
567.991	17.14
568.188	17.23
568.385	17.35
568.582	17.46
568.779	17.55
568.976	17.71
569.172	17.85
569.369	17.93
569.566	17.96
569.763	18.05
569.96	18.09
570.156	18.13
570.353	18.14
570.55	18.19
570.746	18.27
570.943	18.42
571.14	18.45
571.336	18.47
571.533	18.58
571.729	18.62
571.926	18.69
572.123	18.76
572.319	18.81
572.516	18.89
572.712	19.02
572.909	19.07
573.105	19.2
573.302	19.25
573.498	19.28
573.695	19.32
573.891	19.3
574.087	19.31
574.284	19.3
574.48	19.31
574.677	19.33
574.873	19.4
575.069	19.5
575.266	19.58
575.462	19.63
575.658	19.73
575.854	19.73
576.051	19.76
576.247	19.78
576.443	19.74
576.639	19.72
576.835	19.72
577.032	19.75
577.228	19.8
577.424	19.83
577.62	19.87
577.816	19.91
578.012	19.94
578.208	19.95
578.404	19.92
578.6	19.94
578.796	19.98
578.993	19.97
579.189	19.95
579.384	19.96
579.58	20
579.776	19.98
579.972	19.96
580.168	19.98
580.364	19.98
580.56	20.01
580.756	20.02
580.952	19.99
581.148	20
581.343	20.01
581.539	19.98
581.735	19.94
581.931	19.96
582.127	19.97
582.322	19.99
582.518	20.02
582.714	20.01
582.909	19.98
583.105	20.01
583.301	19.95
583.496	19.93
583.692	19.88
583.888	19.79
584.083	19.83
584.279	19.88
584.474	19.85
584.67	19.9
584.866	19.92
585.061	19.98
585.257	20.05
585.452	19.98
585.648	19.91
585.843	19.94
586.039	19.92
586.234	19.88
586.429	19.83
586.625	19.82
586.82	19.81
587.015	19.87
587.211	19.9
587.406	19.91
587.601	19.94
587.797	19.96
587.992	19.96
588.187	19.97
588.383	20.02
588.578	19.98
588.773	20
588.968	20.09
589.163	20.13
589.359	20.16
589.554	20.25
589.749	20.24
589.944	20.3
590.139	20.32
590.334	20.29
590.529	20.38
590.724	20.41
590.919	20.47
591.114	20.5
591.309	20.52
591.504	20.61
591.699	20.68
591.894	20.68
592.089	20.79
592.284	20.76
592.479	20.79
592.674	20.85
592.869	20.87
593.064	20.95
593.259	21
593.454	21.01
593.648	21.1
593.843	21.2
594.038	21.27
594.233	21.36
594.428	21.44
594.622	21.54
594.817	21.61
595.012	21.69
595.206	21.76
595.401	21.78
595.596	21.88
595.79	21.9
595.985	21.99
596.18	22.08
596.374	22.18
596.569	22.24
596.763	22.46
596.958	22.49
597.153	22.58
597.347	22.65
597.542	22.74
597.736	22.82
597.931	22.96
598.125	22.98
598.319	23.06
598.514	23.1
598.708	23.17
598.903	23.28
599.097	23.36
599.291	23.4
599.486	23.46
599.68	23.48
599.874	23.61
600.069	23.64
600.263	23.62
600.457	23.62
600.651	23.67
600.846	23.68
601.04	23.77
601.234	23.82
601.428	23.84
601.622	23.89
601.817	24
602.011	24.02
602.205	24.1
602.399	24.13
602.593	24.15
602.787	24.2
602.981	24.28
603.175	24.23
603.369	24.24
603.563	24.26
603.757	24.22
603.951	24.17
604.145	24.13
604.339	24.09
604.533	24.07
604.727	24.07
604.921	24.04
605.115	24.05
605.309	24.1
605.502	24.09
605.696	24.04
605.89	24.12
606.084	24.06
606.278	23.98
606.471	23.94
606.665	23.89
606.859	23.91
607.053	23.92
607.246	23.81
607.44	23.78
607.634	23.78
607.827	23.69
608.021	23.57
608.214	23.49
608.408	23.38
608.602	23.31
608.795	23.22
608.989	23.14
609.182	23.13
609.376	23.08
609.569	22.97
609.763	22.96
609.956	22.86
610.15	22.79
610.343	22.71
610.537	22.6
610.73	22.55
610.923	22.5
611.117	22.35
611.31	22.29
611.504	22.28
611.697	22.24
611.89	22.14
612.083	22.07
612.277	21.94
612.47	21.9
612.663	21.84
612.856	21.7
613.05	21.62
613.243	21.56
613.436	21.46
613.629	21.44
613.822	21.38
614.015	21.23
614.209	21.22
614.402	21.13
614.595	21.03
614.788	20.99
614.981	20.91
615.174	20.82
615.367	20.77
615.56	20.62
615.753	20.51
615.946	20.52
616.139	20.47
616.332	20.4
616.525	20.41
616.718	20.39
616.911	20.36
617.103	20.36
617.296	20.3
617.489	20.24
617.682	20.14
617.875	20.01
618.067	19.92
618.26	19.86
618.453	19.79
618.646	19.72
618.838	19.7
619.031	19.71
619.224	19.67
619.417	19.65
619.609	19.64
619.802	19.64
619.994	19.63
620.187	19.59
620.38	19.51
620.572	19.52
620.765	19.5
620.957	19.43
621.15	19.37
621.342	19.34
621.535	19.25
621.727	19.27
621.92	19.2
622.112	19.14
622.305	19.09
622.497	19.03
622.69	18.96
622.882	18.95
623.074	18.88
623.267	18.87
623.459	18.86
623.651	18.87
623.844	18.92
624.036	18.91
624.228	18.93
624.42	18.96
624.613	18.91
624.805	18.89
624.997	18.88
625.189	18.82
625.381	18.79
625.574	18.73
625.766	18.71
625.958	18.77
626.15	18.76
626.342	18.73
626.534	18.65
626.726	18.65
626.918	18.61
627.11	18.59
627.302	18.49
627.494	18.46
627.686	18.38
627.878	18.33
628.07	18.28
628.262	18.21
628.454	18.14
628.646	18.11
628.838	18.05
629.029	17.99
629.221	17.94
629.413	17.87
629.605	17.84
629.797	17.8
629.989	17.79
630.18	17.7
630.372	17.73
630.564	17.76
630.755	17.75
630.947	17.73
631.139	17.68
631.33	17.67
631.522	17.68
631.714	17.65
631.905	17.58
632.097	17.57
632.289	17.58
632.48	17.55
632.672	17.44
632.863	17.41
633.055	17.39
633.246	17.4
633.438	17.33
633.629	17.34
633.821	17.38
634.012	17.42
634.203	17.5
634.395	17.49
634.586	17.44
634.777	17.46
634.969	17.43
635.16	17.38
635.351	17.32
635.543	17.25
635.734	17.22
635.925	17.27
636.117	17.29
636.308	17.26
636.499	17.22
636.69	17.33
636.881	17.39
637.073	17.39
637.264	17.35
637.455	17.37
637.646	17.39
637.837	17.39
638.028	17.34
638.219	17.23
638.41	17.2
638.601	17.21
638.792	17.15
638.983	17.06
639.174	17.08
639.365	17.03
639.556	17.08
639.747	17.1
639.938	17.12
640.129	17.09
640.32	17.11
640.511	17.11
640.701	17.09
640.892	17.08
641.083	17.04
641.274	16.97
641.465	16.97
641.655	17.03
641.846	16.94
642.037	16.9
642.228	16.88
642.418	16.83
642.609	16.77
642.8	16.74
642.99	16.7
643.181	16.73
643.372	16.76
643.562	16.72
643.753	16.74
643.943	16.74
644.134	16.73
644.324	16.68
644.515	16.63
644.705	16.62
644.896	16.57
645.086	16.49
645.277	16.5
645.467	16.44
645.658	16.4
645.848	16.37
646.038	16.32
646.229	16.36
646.419	16.4
646.61	16.33
646.8	16.39
646.99	16.37
647.18	16.4
647.371	16.37
647.561	16.31
647.751	16.24
647.941	16.22
648.132	16.19
648.322	16.2
648.512	16.14
648.702	16.14
648.892	16.14
649.082	16.14
649.272	16.1
649.462	16
649.653	15.98
649.843	16
650.033	15.9
650.223	15.83
650.413	15.85
650.603	15.82
650.793	15.79
650.983	15.77
651.172	15.68
651.362	15.62
651.552	15.54
651.742	15.42
651.932	15.41
652.122	15.38
652.312	15.21
652.502	15.13
652.691	15.15
652.881	15.15
653.071	15.07
653.261	14.94
653.45	14.86
653.64	14.85
653.83	14.73
654.019	14.55
654.209	14.43
654.399	14.32
654.588	14.21
654.778	14.09
654.968	13.96
655.157	13.86
655.347	13.76
655.536	13.57
655.726	13.44
655.915	13.28
656.105	13.15
656.294	12.99
656.484	12.83
656.673	12.76
656.863	12.64
657.052	12.49
657.241	12.32
657.431	12.14
657.62	11.93
657.809	11.77
657.999	11.51
658.188	11.33
658.377	11.18
658.567	11.01
658.756	10.82
658.945	10.71
659.134	10.53
659.324	10.39
659.513	10.21
659.702	10.01
659.891	9.86
660.08	9.71
660.269	9.53
660.458	9.39
660.648	9.22
660.837	9.11
661.026	8.95
661.215	8.79
661.404	8.63
661.593	8.47
661.782	8.36
661.971	8.19
662.16	8.06
662.349	7.92
662.538	7.82
662.726	7.71
662.915	7.59
663.104	7.42
663.293	7.35
663.482	7.23
663.671	7.12
663.86	7
664.048	6.9
664.237	6.79
664.426	6.71
664.615	6.58
664.803	6.46
664.992	6.43
665.181	6.34
665.369	6.22
665.558	6.19
665.747	6.17
665.935	6.11
666.124	6.09
666.312	5.92
666.501	5.9
666.69	5.9
666.878	5.77
667.067	5.67
667.255	5.65
667.444	5.63
667.632	5.63
667.82	5.59
668.009	5.57
668.197	5.59
668.386	5.55
668.574	5.49
668.762	5.38
668.951	5.43
669.139	5.44
669.327	5.43
669.516	5.46
669.704	5.51
669.892	5.49
670.08	5.54
670.269	5.46
670.457	5.45
670.645	5.45
670.833	5.35
671.021	5.29
671.21	5.34
671.398	5.34
671.586	5.39
671.774	5.32
671.962	5.31
672.15	5.34
672.338	5.4
672.526	5.43
672.714	5.41
672.902	5.4
673.09	5.52
673.278	5.53
673.466	5.64
673.654	5.6
673.842	5.67
674.03	5.79
674.218	5.85
674.405	5.96
674.593	5.99
674.781	6.03
674.969	6.15
675.157	6.16
675.344	6.17
675.532	6.19
675.72	6.16
675.908	6.29
676.095	6.37
676.283	6.38
676.471	6.46
676.658	6.48
676.846	6.58
677.033	6.67
677.221	6.71
677.409	6.73
677.596	6.83
677.784	6.86
677.971	6.97
678.159	7.07
678.346	7.1
678.534	7.19
678.721	7.31
678.909	7.41
679.096	7.52
679.283	7.64
679.471	7.84
679.658	7.98
679.846	8.15
680.033	8.27
680.22	8.31
680.408	8.41
680.595	8.49
680.782	8.47
680.969	8.53
681.157	8.51
681.344	8.65
681.531	8.84
681.718	8.94
681.905	9.11
682.093	9.35
682.28	9.53
682.467	9.7
682.654	9.74
682.841	9.92
683.028	10.17
683.215	10.37
683.402	10.44
683.589	10.63
683.776	10.85
683.963	11.15
684.15	11.31
684.337	11.41
684.524	11.61
684.711	11.86
684.898	12.09
685.085	12.38
685.271	12.69
685.458	12.95
685.645	13.26
685.832	13.62
686.019	13.94
686.205	14.24
686.392	14.47
686.579	14.67
686.766	15.01
686.952	15.47
687.139	15.73
687.326	16.17
687.512	16.57
687.699	17.04
687.886	17.47
688.072	17.85
688.259	18.24
688.445	18.67
688.632	19.18
688.818	19.63
689.005	20.21
689.191	20.77
689.378	21.27
689.564	21.8
689.751	22.41
689.937	22.87
690.124	23.51
690.31	24.08
690.496	24.68
690.683	25.48
690.869	26.08
691.055	26.82
691.242	27.38
691.428	28.09
691.614	28.78
691.8	29.44
691.987	30.11
692.173	30.91
692.359	31.54
692.545	32.38
692.731	33.16
692.918	33.92
693.104	34.65
693.29	35.29
693.476	35.94
693.662	36.61
693.848	37.25
694.034	37.72
694.22	38.44
694.406	39.22
694.592	39.94
694.778	40.63
694.964	41.53
695.15	42.35
695.336	43.35
695.522	44
695.708	44.86
695.894	45.66
696.08	46.36
696.265	46.92
696.451	47.75
696.637	48.29
696.823	48.97
697.009	49.51
697.194	50.3
697.38	51.08
697.566	51.71
697.751	52.25
697.937	53.02
698.123	53.79
698.308	54.39
698.494	55.01
698.68	55.72
698.865	56.48
699.051	57.15
699.236	57.85
699.422	58.44
699.607	59.03
699.793	59.54
699.978	59.99
700.164	60.66
700.349	61.23
700.535	61.7
700.72	62.22
700.906	62.76
701.091	63.27
701.276	63.87
701.462	64.27
701.647	64.67
701.832	65.28
702.018	65.82
702.203	66.38
702.388	66.71
702.573	67.4
702.759	67.76
702.944	68.19
703.129	68.38
703.314	68.74
703.499	69.15
703.684	69.73
703.87	69.96
704.055	70.46
704.24	70.87
704.425	71.29
704.61	71.6
704.795	72
704.98	72.31
705.165	72.56
705.35	72.78
705.535	73.23
705.72	73.52
705.905	73.72
706.09	73.94
706.275	74.06
706.459	74.43
706.644	74.76
706.829	75.01
707.014	75.42
707.199	75.87
707.384	76.14
707.568	76.8
707.753	77.11
707.938	77.18
708.123	77.27
708.307	77.8
708.492	78.03
708.677	78.37
708.861	78.5
709.046	78.65
709.231	79.23
709.415	79.52
709.6	79.36
709.784	79.51
709.969	79.83
710.153	80.07
710.338	80.21
710.522	80.29
710.707	80.37
710.891	80.7
711.076	80.99
711.26	81.17
711.445	81.14
711.629	81.4
711.813	81.56
711.998	81.89
712.182	81.97
712.366	82.19
712.551	82.25
712.735	82.38
712.919	82.67
713.103	82.79
713.288	83.2
713.472	83.41
713.656	83.44
713.84	83.45
714.024	83.69
714.208	83.57
714.393	83.82
714.577	83.71
714.761	83.8
714.945	83.99
715.129	84.5
715.313	84.85
715.497	85.15
715.681	85.45
715.865	85.73
716.049	86.07
716.233	86.4
716.417	86.52
716.601	86.41
716.785	86.79
716.968	86.48
717.152	86.58
717.336	86.67
717.52	86.62
717.704	86.6
717.888	86.91
718.071	86.73
718.255	87.04
718.439	86.86
718.622	86.94
718.806	86.99
718.99	87.35
719.174	87.51
719.357	87.95
719.541	88.26
719.724	88.64
719.908	88.68
720.092	88.85
720.275	88.65
720.459	88.35
720.642	88.11
720.826	88.04
721.009	87.96
721.193	87.79
721.376	87.87
721.559	87.92
721.743	88.13
721.926	88.16
722.11	88.45
722.293	88.32
722.476	88.63
722.66	88.56
722.843	88.7
723.026	88.82
723.21	89.11
723.393	89.07
723.576	89.38
723.759	89.42
723.942	89.81
724.126	89.92
724.309	90.16
724.492	90.26
724.675	90.48
724.858	90.66
725.041	90.91
725.224	90.84
725.407	90.72
725.59	90.57
725.774	90.73
725.957	90.74
726.14	90.93
726.322	90.97
726.505	91.2
726.688	91.65
726.871	91.88
727.054	92.05
727.237	91.85
727.42	91.76
727.603	91.6
727.786	91.8
727.968	91.61
728.151	91.77
728.334	91.52
728.517	92.11
728.699	92.31
728.882	93.12
729.065	92.9
729.248	93.1
729.43	92.95
729.613	93.08
729.796	92.86
729.978	93.14
730.161	93.02
730.343	93.29
730.526	93.54
730.708	94.1
730.891	94.27
731.073	94.15
731.256	94.16
731.438	94.25
731.621	94.72
731.803	94.63
731.986	94.57
732.168	94.59
732.35	94.97
732.533	95.06
732.715	94.74
732.898	94.83
733.08	95.39
733.262	95.22
733.444	95.24
733.627	95.63
733.809	95.68
733.991	95.95
734.173	95.05
734.355	94.64
734.538	94.7
734.72	95.39
734.902	95.37
735.084	95.54
735.266	95.62
735.448	96.58
735.63	96.56
735.812	97.06
735.994	96.93
736.176	96.68
736.358	96.96
736.54	96.97
736.722	96.43
736.904	96.71
737.086	96.56
737.268	96.73
737.45	96.6
737.632	95.98
737.814	95.86
737.995	96.34
738.177	96.52
738.359	96.85
738.541	96.24
738.723	96.47
738.904	96.58
739.086	97.25
739.268	97.79
739.449	97.95
739.631	98.03
739.813	98.41
739.994	98.88
740.176	98.82
740.358	98.56
740.539	97.8
740.721	97.3
740.902	97.26
741.084	97.75
741.265	97.61
741.447	97.63
741.628	97.32
741.81	97.95
741.991	98.49
742.172	98.37
742.354	98.11
742.535	97.97
742.717	97.81
742.898	98.36
743.079	97.96
743.261	98.2
743.442	98.68
743.623	98.24
743.804	98.28
743.986	98.75
744.167	98.67
744.348	98.82
744.529	97.81
744.71	97.01
744.891	97.68
745.073	97.79
745.254	97.83
745.435	97.16
745.616	96.78
745.797	97.06
745.978	98.01
746.159	97.4
746.34	97.73
746.521	98.08
746.702	97.98
746.883	98.27
747.064	98.08
747.245	98.06
747.426	98.33
747.606	97.97
747.787	98.46
747.968	99.57
748.149	99.55
748.33	100.97
748.51	100.12
748.691	99.89
748.872	100.26
749.053	99.26
749.233	99.04
749.414	98.97
749.595	97.48
749.775	97.36
749.956	97.13
750.137	96.72
750.317	96.97
750.498	96.98
750.678	97.39
750.859	97.29
751.04	97.51
751.22	96.67
751.4	96.98
751.581	96.96
751.761	97.04
751.942	96.5
752.122	96.59
752.303	96.82
752.483	98.05
752.663	98.44
752.844	97.52
753.024	97.42
753.204	97.18
753.385	97.04
753.565	96.52
753.745	96.21
753.925	94.8
754.106	95.91
754.286	95.59
754.466	95.75
754.646	96.13
754.826	96.53
755.006	96.24
755.187	97.06
755.367	96.57
755.547	96.86
755.727	96.74
755.907	96.85
756.087	97.14
756.267	96.62
756.447	96.44
756.627	96.5
756.807	96.56
756.987	97.74
757.167	98
757.346	96.94
757.526	98.58
757.706	98.56
757.886	99.23
758.066	98.91
758.246	97.79
758.425	97.81
758.605	97.97
758.785	97.51
758.965	96.27
759.144	96.26
759.324	95.94
759.504	95.99
759.683	95.31
759.863	96.07
760.043	95.87
760.222	96.53
760.402	96.33
760.581	96.17
760.761	96.04
760.94	95.57
761.12	95.24
761.299	94.53
761.479	95.9
761.658	94.61
761.838	94.79
762.017	95.57
762.197	96.31
762.376	95.41
762.555	96.09
762.735	94.22
762.914	95.31
763.093	95.18
763.273	94.35
763.452	93.52
763.631	93.02
763.81	93.67
763.99	94.4
764.169	94.15
764.348	94.57
764.527	94.08
764.706	94.75
764.885	96.77
765.064	95.6
765.243	95.69
765.423	96.65
765.602	96.04
765.781	96.63
765.96	97.6
766.139	96.19
766.318	97.36
766.497	97.41
766.676	97.36
766.854	96.93
767.033	96.61
767.212	95.5
767.391	96.27
767.57	95.3
767.749	95.44
767.928	93.63
768.106	94.45
768.285	94.58
768.464	94.68
768.643	94.97
768.821	95.78
769	96.09
769.179	95.61
769.357	95.2
769.536	96
769.715	95.93
769.893	94.96
770.072	93.91
770.25	93.05
770.429	94.63
770.607	95.26
770.786	95.15
770.964	94.86
771.143	94.47
771.321	93.87
771.5	92.72
771.678	92.59
771.857	92.45
772.035	91.7
772.213	91.79
772.392	92.4
772.57	92.93
772.748	93.21
772.927	92.67
773.105	92.8
773.283	92.24
773.461	92.19
773.64	91.27
773.818	90.94
773.996	91.26
774.174	92.77
774.352	92.18
774.531	92.03
774.709	93.29
774.887	93.47
775.065	92.74
775.243	94.59
775.421	92.69
775.599	91.58
775.777	91.76
775.955	90.37
776.133	89.89
776.311	90.75
776.489	89.61
776.667	89.74
776.844	90.11
777.022	89.79
777.2	89.24
777.378	90.94
777.556	92.13
777.734	91.89
777.911	92.89
778.089	92.69
778.267	93.52
778.445	93.76
778.622	92.59
778.8	91.79
778.978	91.51
779.155	90.01
779.333	89.46
779.511	89.28
779.688	88.18
779.866	87.37
780.043	87.54
780.221	87.45
780.398	88
780.576	88.77
780.753	88.56
780.931	90.31
781.108	91.16
781.286	89.15
781.463	88.64
781.64	88.71
781.818	88.49
781.995	89.29
782.172	88.93
782.35	88.11
782.527	89.75
782.704	89.08
782.882	89.5
783.059	88.34
783.236	87.84
783.413	87.35
783.59	86.19
783.768	86.23
783.945	87.76
784.122	85.47
784.299	87.57
784.476	87.61
784.653	86.82
784.83	88.06
785.007	87.52
785.184	87.67
785.361	88.71
785.538	88.41
785.715	87.05
785.892	85.38
786.069	86.51
786.246	86.47
786.423	88.09
786.6	89.68
786.776	90.08
786.953	90.8
787.13	95.53
787.307	95.16
787.484	94.36
787.66	90.5
787.837	89.56
788.014	88.19
788.191	88.44
788.367	86.29
788.544	86.33
788.721	88.02
788.897	91.59
789.074	90.96
789.25	93.11
789.427	93.08
789.603	94.33
789.78	95.95
789.956	92.11
790.133	90
790.309	90.45
790.486	90.87
790.662	91.48
790.839	92.16
791.015	92.03
791.192	94.25
791.368	95.23
791.544	94.75
791.721	90.09
791.897	89.17
792.073	86.72
792.249	87.1
792.426	89.01
792.602	86.22
792.778	86.18
792.954	88.69
793.13	90.67
793.307	89.3
793.483	86.92
793.659	86.74
793.835	88.33
794.011	86.63
794.187	83.5
794.363	81.81
794.539	82.94
794.715	81.27
794.891	76.81
795.067	77.01
795.243	78.34
795.419	80.7
795.595	79.56
795.771	81.55
795.947	82.85
796.122	86.99
796.298	86.52
796.474	88.4
796.65	87.55
796.826	90.24
797.001	89.01
797.177	89.04
797.353	90.73
797.529	91.45
797.704	89.61
797.88	89.85
798.056	89.29
798.231	90.86
798.407	89.71
798.582	86.39
798.758	87.49
798.934	88.7
799.109	88.2
799.285	87.93
799.46	87.14
799.636	90.35
799.811	92.34
799.986	92.96
800.162	91.71
800.337	93.64
800.513	94.14
800.688	96.85
800.863	94.08
801.039	90.34
801.214	86.99
801.389	86.04
801.565	88.79
801.74	85.62
801.915	83.92
802.09	84.72
802.265	86.57
802.441	88.03
802.616	90.25
802.791	85.79
802.966	89.12
803.141	84.61
803.316	87.4
803.491	87.6
803.666	86.22
803.841	86.39
804.016	86.48
804.191	84.16
804.366	85.94
804.541	80.12
804.716	78
804.891	80.93
805.066	81.56
805.241	80.3
805.416	79.14
805.591	80.61
805.765	81.11
805.94	80.6
806.115	77.39
806.29	74.96
806.464	74.61
806.639	75.76
806.814	71.59
806.989	70.91
807.163	72.39
807.338	71.8
807.512	67.67
807.687	65.11
807.862	64.6
808.036	67.19
808.211	71.18
808.385	72.54
808.56	75.8
808.734	77.23
808.909	81.46
809.083	76.96
809.258	83.05
809.432	80.45
809.606	79.68
809.781	76.24
809.955	81.59
810.13	83.73
810.304	87.05
810.478	83.35
810.652	84.73
810.827	83.87
811.001	82.1
811.175	74.8
811.349	75.02
811.524	74.99
811.698	75.98
811.872	76.98
812.046	75.47
812.22	75.25
812.394	77.92
812.568	79.21
812.742	80.67
812.916	77.67
813.09	72.16
813.264	74.21
813.438	80.28
813.612	79.65
813.786	78.29
813.96	75.2
814.134	75.74
814.308	74.1
814.482	76.62
814.656	82.76
814.83	85.98
815.003	88.83
815.177	91.3
815.351	93.33
815.525	95.75
815.698	90.69
815.872	79.99
816.046	78.04
816.219	72.74
816.393	66.76
816.567	59.7
816.74	65.43
816.914	70.47
817.088	69.87
817.261	69.03
817.435	64.79
817.608	69.06
817.782	76.59
817.955	71.53
818.129	69.74
818.302	74.17
818.475	78.23
818.649	82.89
818.822	84.53
818.996	83.76
819.169	85.1
819.342	82.52
819.516	84.2
819.689	83.02
819.862	79.53
820.035	76
820.209	75.71
820.382	74.82
820.555	76.99
820.728	71.53
820.901	64.9
821.075	68.22
821.248	71.74
821.421	63.79
821.594	68.58
821.767	68.21
821.94	69.83
822.113	82.67
822.286	91.11
822.459	102.49
822.632	110.19
822.805	103.79
822.978	96.03
823.151	96.3
823.324	80.92
823.496	67.04
823.669	57.94
823.842	57.21
824.015	53.52
824.188	55.57
824.361	57.69
824.533	71.07
824.706	83.59
824.879	84.07
825.051	82.19
825.224	79.53
825.397	76.27
825.569	78.93
825.742	69.83
825.915	69.55
826.087	60.73
826.26	66.5
826.432	80.2
826.605	83.92
826.777	78.93
826.95	80.04
827.122	81.01
827.295	88.35
827.467	78.98
827.64	61.96
827.812	64.19
827.984	68.69
828.157	67.84
828.329	66.01
828.501	66.79
828.674	67.32
828.846	71.65
829.018	70.02
829.19	65.02
829.363	71.76
829.535	71.99
829.707	68.87
829.879	73.24
830.051	75.45
830.223	68.87
830.395	68.94
830.568	66.66
830.74	74.68
830.912	73.66
831.084	71.22
831.256	67.69
831.428	74.91
831.6	67.16
831.772	69.46
831.943	64.89
832.115	70.75
832.287	73.45
832.459	80.53
832.631	77.57
832.803	96.61
832.975	96.35
833.146	85.63
833.318	81.27
833.49	90.58
833.662	82.05
833.833	85.25
834.005	77.96
834.177	76.7
834.348	78.92
834.52	75.18
834.692	72.86
834.863	83.21
835.035	78.09
835.206	77.28
835.378	70.67
835.549	70.34
835.721	69.38
835.892	63.54
836.064	64.08
836.235	59.68
836.407	57.77
836.578	67.35
836.749	72.53
836.921	74.33
837.092	79.41
837.264	75.22
837.435	77.24
837.606	75.53
837.777	61.89
837.949	51.41
838.12	49.03
838.291	47.96
838.462	53.61
838.633	55.22
838.805	54.93
838.976	54.44
839.147	55.14
839.318	53.26
839.489	53.03
839.66	52.9
839.831	49.14
840.002	51.59
840.173	57.47
840.344	69.96
840.515	76.45
840.686	77.65
840.857	68.88
841.028	78.35
841.199	81.7
841.369	77.61
841.54	73.61
841.711	76
841.882	74.61
842.053	73.89
842.223	64.59
842.394	61.45
842.565	75.46
842.736	71.17
842.906	63.64
843.077	58.9
843.248	67.19
843.418	69.49
843.589	72.64
843.759	63.82
843.93	70.36
844.101	71.96
844.271	81.98
844.442	86.23
844.612	87.53
844.783	69.72
844.953	77.21
845.123	85.8
845.294	90.43
845.464	89.8
845.635	84.17
845.805	80.73
845.975	79.94
846.146	63.86
846.316	70.3
846.486	75.18
846.656	73.13
846.827	70
846.997	78.66
847.167	81.65
847.337	90.39
847.507	78.24
847.677	79.85
847.848	74.93
848.018	84.89
848.188	73.76
848.358	88.15
848.528	86.85
848.698	73.52
848.868	57.94
849.038	66.89
849.208	48.81
849.378	46.6
849.548	37.73
849.718	36.39
849.887	29.36
850.057	45.7
850.227	38.89
850.397	31.74
850.567	44.82
850.737	45.26
850.906	45.3
851.076	47.82
851.246	46.68
851.415	61.84
851.585	66.27
851.755	64.73
851.924	76.28
852.094	76.39
852.264	82.2
852.433	95.33
852.603	96.3
852.772	92.66
852.942	72.92
853.111	74.3
853.281	64.47
853.45	58.38
853.62	46.25
853.789	43.16
853.959	50.74
854.128	46.41
854.297	27.65
854.467	38.03
854.636	44.61
854.805	47.47
854.975	47.57
855.144	53.84
855.313	66.92
855.482	74.31
855.652	73.65
855.821	80.13
855.99	77.35
856.159	75.36
856.328	62.39
856.497	62.48
856.667	59.09
856.836	50.7
857.005	45.89
857.174	54.23
857.343	38.28
857.512	32.72
857.681	24.44
857.85	22.98
858.019	34.07
858.188	19.91
858.356	-1.87
858.525	25.32
858.694	33.44
858.863	34.48
859.032	34.15
859.201	25.26
859.369	45.84
859.538	40.03
859.707	35.64
859.876	50.63
860.044	63.99
860.213	77.57
860.382	80
860.55	98.54
860.719	101.29
860.888	106.6
861.056	98.19
861.225	101.83
861.393	87.72
861.562	59.15
861.73	27.87
861.899	8.08
862.067	39.6
862.236	38.22
862.404	41.58
862.572	41.36
862.741	52.11
862.909	58.34
863.078	72.63
863.246	60.77
863.414	83.57
863.582	67.08
863.751	50.71
863.919	58.22
864.087	63.55
864.255	70.52
864.424	64.02
864.592	51.36
864.76	56.54
864.928	69.55
865.096	54.92
865.264	56.69
865.432	44.41
865.6	39.24
865.768	28.64
865.936	29.45
866.104	8.84
866.272	38.5
866.44	-3.55
866.608	27.26
866.776	41.29
866.944	48.15
867.112	6.91
867.28	-6.8
867.448	0.07
867.615	52.2
867.783	41.68
867.951	45.73
868.119	40.23
868.286	55.86
868.454	66.47
868.622	71.31
868.789	65.12
868.957	64.16
869.125	62.25
869.292	82.11
869.46	96.44
869.627	92.22
869.795	83.68
869.963	76.12
870.13	78.01
870.298	75.55
870.465	32.82
870.632	15.42
870.8	29.55
870.967	30.78
871.135	29.12
871.302	36.45
871.469	35.83
871.637	46.4
871.804	51.65
871.971	46.47
872.139	48.04
872.306	44.73
872.473	17.74
872.64	29.43
872.807	43.36
872.975	53.28
873.142	59.72
873.309	105.77
873.476	203.58
873.643	320.44
873.81	269.07
873.977	156.29
874.144	194.33
874.311	179.97
874.478	100.53
874.645	73.11
874.812	62.78
874.979	55.75
875.146	40.16
875.313	0.15
875.48	69.53
875.647	24.33
875.813	27.01
875.98	10.03
876.147	48.75
876.314	70.66
876.481	51.91
876.647	51.88
876.814	73.61
876.981	67.73
877.147	46.59
877.314	39.16
877.481	54.09
877.647	68.68
877.814	51.49
877.98	51.52
878.147	53.18
878.314	72.68
878.48	62.6
878.647	66.21
878.813	75.38
878.979	81.29
879.146	47.31
879.312	70.8
879.479	78.96
879.645	59.29
879.811	38.42
879.978	28.78
880.144	31.47
880.31	-2.49
880.477	-53.03
880.643	-238.69
880.809	-19.88
880.975	-38.26
881.142	-7.32
881.308	1.4
881.474	100.92
881.64	96.18
881.806	89.46
881.972	114.37
882.138	131.2
882.304	147.18
882.47	121.14
882.636	32.85
882.802	84.31
882.968	32.17
883.134	-26.38
883.3	34.68
883.466	58.99
883.632	17.22
883.798	45.03
883.964	27.44
884.129	52.35
884.295	33.04
884.461	17.94
884.627	9.84
884.793	69.42
884.958	80.62
885.124	58.27
885.29	67.68
885.455	62.39
885.621	51.38
885.787	50.21
885.952	42.86
886.118	46.91
886.283	67.04
886.449	32.09
886.614	55.55
886.78	62.88
886.945	11.66
887.111	15.25
887.276	10.57
887.442	8.88
887.607	28.83
887.773	18.19
887.938	27.07
888.103	68.65
888.269	50.25
888.434	59.95
888.599	61.61
888.764	67.16
888.93	80.36
889.095	54.48
889.26	80.28
889.425	111.25
889.59	85.91
889.756	72.71
889.921	64.37
890.086	54.08
890.251	47.17
890.416	18.68
890.581	-2.59
890.746	-7.55
890.911	10.25
891.076	13.53
891.241	7.03
891.406	75.24
891.571	68.58
891.736	65.88
891.901	100.63
892.065	80.22
892.23	58.98
892.395	42.95
892.56	25.08
892.725	12.58
892.889	-37.48
893.054	-83.2
893.219	-68.84
893.384	-55
893.548	-55
893.713	101.98
893.878	-5.43
