Data from Ofra_PS_T2_2A_2HS27_Reflection_3.txt Node
Date: Wed Jul 21 17:09:12 EDT 2021
User: Adam
Spectrometer: FLMT01687
Trigger mode: 0
Integration Time (sec): 1.100000E0
Scans to average: 2
Electric dark correction enabled: true
Nonlinearity correction enabled: false
Boxcar width: 2
XAxis mode: Wavelengths
Number of Pixels in Spectrum: 3648
>>>>>Begin Spectral Data<<<<<
179.494	634.8
179.716	690.35
179.937	634.17
180.158	616.87
180.38	910.31
180.601	198.07
180.823	18.03
181.044	-130.09
181.265	-62.87
181.486	17.29
181.708	33.6
181.929	621.43
182.15	-373.94
182.372	91.72
182.593	-13.07
182.814	-16.78
183.035	43.04
183.257	40.71
183.478	-37.98
183.699	21.02
183.92	-39.4
184.141	-32.41
184.363	-94.89
184.584	-51.98
184.805	-40.5
185.026	-5.9
185.247	18.45
185.468	2.42
185.689	-3.44
185.91	5.59
186.132	15.85
186.353	3.75
186.574	74.74
186.795	67.11
187.016	41.77
187.237	7.99
187.458	-41.32
187.679	-47.04
187.9	-35.34
188.121	-26.83
188.342	18.04
188.563	57.53
188.784	88.25
189.005	59.37
189.226	87.2
189.447	52
189.667	-155.1
189.888	-535.71
190.109	-1388.96
190.33	-839.03
190.551	-1700.44
190.772	-383.9
190.993	-285.32
191.214	-202.73
191.434	-120.5
191.655	-14.91
191.876	-34.9
192.097	-101.49
192.318	-185.35
192.538	-307.48
192.759	-206.82
192.98	-134.29
193.201	-42.39
193.421	-31.9
193.642	-2.13
193.863	0.82
194.083	-18.82
194.304	-37.99
194.525	-24.92
194.745	-43.07
194.966	-51.55
195.187	-24.54
195.407	-58.95
195.628	-129.62
195.848	-158.22
196.069	-168.54
196.29	-129.29
196.51	-114.29
196.731	-87.32
196.951	-97.38
197.172	-93.7
197.392	-140.5
197.613	-107.49
197.833	-158.62
198.054	-107.67
198.274	-67.88
198.495	-55.04
198.715	-35.38
198.936	-31.57
199.156	-16.95
199.377	-116.62
199.597	-124.38
199.817	-128.6
200.038	-62.6
200.258	-139.27
200.479	-52.88
200.699	-52.21
200.919	-16.82
201.14	-41.4
201.36	-66.11
201.58	1.3
201.801	22.91
202.021	-2.94
202.241	-5.72
202.461	-0.87
202.682	-107.75
202.902	-163.76
203.122	-97.75
203.342	-76.2
203.563	-23.36
203.783	21.06
204.003	-4.99
204.223	-12.63
204.443	37.41
204.663	15.82
204.884	3.74
205.104	36.51
205.324	53.21
205.544	16.63
205.764	28.51
205.984	31.56
206.204	45.11
206.424	32.99
206.644	7.36
206.864	3.57
207.084	-32.72
207.304	-98.91
207.525	-291.09
207.745	-183.77
207.964	-69.53
208.184	-119.28
208.404	-123.3
208.624	-101.36
208.844	-77.63
209.064	-367.4
209.284	-364.9
209.504	-188.84
209.724	-73.94
209.944	-40.92
210.164	10.47
210.384	31.59
210.604	32.03
210.823	4.83
211.043	-22.93
211.263	-30.65
211.483	-48.13
211.703	-112.28
211.922	-101.05
212.142	-27.35
212.362	-32.11
212.582	-35.35
212.801	-17.44
213.021	-36.46
213.241	-85.54
213.461	-119.88
213.68	-131.61
213.9	-97.22
214.12	-61.62
214.339	-106.03
214.559	-62.25
214.779	-11.01
214.998	-15.59
215.218	-63.12
215.438	-31.98
215.657	-60.3
215.877	-54.66
216.096	-12.45
216.316	-3.78
216.535	-5.04
216.755	17.63
216.974	-64.22
217.194	-168.3
217.413	-151.74
217.633	-154.48
217.852	-303.17
218.072	-113.65
218.291	-39.92
218.511	10.88
218.73	-10.94
218.95	2.15
219.169	-13.96
219.389	-50.85
219.608	-47.6
219.827	-35.44
220.047	-27.64
220.266	-15.64
220.485	-16.28
220.705	-11.72
220.924	-25.06
221.143	20.83
221.363	7.27
221.582	26.46
221.801	34.58
222.021	51.71
222.24	-6.91
222.459	42.08
222.678	-20.16
222.897	-53.88
223.117	-93.27
223.336	-93.75
223.555	-79.84
223.774	-14.07
223.993	-24.83
224.213	27.32
224.432	22.3
224.651	38.54
224.87	7.36
225.089	16.42
225.308	1.14
225.527	31
225.746	24.09
225.965	16.93
226.184	13.37
226.404	32.25
226.623	-7.75
226.842	1.94
227.061	30.34
227.28	21.06
227.499	9.1
227.718	25.75
227.936	23.72
228.155	23.26
228.374	36.82
228.593	33.27
228.812	30.2
229.031	16.61
229.25	-40.55
229.469	-61.11
229.688	-31.71
229.907	7.65
230.125	24.1
230.344	28.2
230.563	41.21
230.782	18.78
231.001	-84.28
231.22	-66.84
231.438	-22.79
231.657	-17.21
231.876	-8.57
232.095	47.24
232.313	47.76
232.532	34.35
232.751	-0.77
232.969	-34.41
233.188	-117.45
233.407	-39.59
233.625	-18
233.844	-8.32
234.063	15.13
234.281	40.79
234.5	28.35
234.719	12.58
234.937	23.24
235.156	15.48
235.374	8.54
235.593	0.72
235.811	4.22
236.03	-11.41
236.249	-43.76
236.467	-45.12
236.686	-21.78
236.904	-2.03
237.123	-19.73
237.341	-18.53
237.559	-10.22
237.778	-23
237.996	-54.01
238.215	1.24
238.433	19.73
238.652	10.13
238.87	-9.66
239.088	3.17
239.307	-15
239.525	-19.3
239.743	-40.05
239.962	-29.09
240.18	-56.13
240.398	-86.32
240.617	-88.61
240.835	-62.01
241.053	-35.32
241.271	19.45
241.49	20.34
241.708	-14.77
241.926	-41.4
242.144	-60.75
242.363	-109.13
242.581	-116.17
242.799	-51.26
243.017	-1.5
243.235	2.27
243.453	15.12
243.672	2.02
243.89	0.53
244.108	-9.89
244.326	4.44
244.544	4.6
244.762	-1.55
244.98	-1.6
245.198	-4.46
245.416	-39.47
245.634	-51.81
245.852	-51.48
246.07	-68.07
246.288	-89.54
246.506	-112.15
246.724	-86.88
246.942	-68.37
247.16	-51.58
247.378	-50.59
247.596	-17.62
247.814	-14
248.032	-52.5
248.25	-32.34
248.468	-22.95
248.685	-13.47
248.903	14.42
249.121	28.04
249.339	-7.02
249.557	-14.65
249.775	-11.26
249.992	-62.14
250.21	-62.57
250.428	-31.23
250.646	-55.38
250.863	-73.1
251.081	-48.6
251.299	-40.9
251.517	-30.51
251.734	-4.47
251.952	-22.94
252.17	-18.26
252.387	-2.47
252.605	-17.04
252.823	-17.69
253.04	5.47
253.258	23.11
253.475	15.46
253.693	44.06
253.911	51.63
254.128	51.04
254.346	42.77
254.563	11.11
254.781	-24.5
254.998	-41.23
255.216	-31.05
255.433	-32.85
255.651	6.01
255.868	40.3
256.086	56.84
256.303	28.64
256.521	26.29
256.738	12.55
256.956	-25.96
257.173	-65.64
257.39	-76.24
257.608	-112.37
257.825	-27.41
258.043	16.2
258.26	32.7
258.477	72.7
258.695	78.12
258.912	12.34
259.129	15.33
259.346	-14.39
259.564	-68.71
259.781	-69.95
259.998	-25.07
260.216	-16.41
260.433	32.66
260.65	39.89
260.867	37.3
261.084	22.2
261.302	-4.59
261.519	-29.26
261.736	-35.22
261.953	-47.25
262.17	-15.7
262.387	-30.83
262.604	-74.09
262.822	-81.73
263.039	-63.33
263.256	-125.76
263.473	-88.21
263.69	-37.04
263.907	-6.72
264.124	6.84
264.341	13.62
264.558	11.19
264.775	23.01
264.992	10.07
265.209	-6.51
265.426	29.02
265.643	37.64
265.86	38.41
266.077	41.16
266.294	51.36
266.51	-4.56
266.727	-30.82
266.944	-34.91
267.161	-37.94
267.378	-49
267.595	-27.97
267.812	-42.24
268.028	-45.57
268.245	-26.51
268.462	-34.62
268.679	-27.9
268.896	21.34
269.112	16.35
269.329	22.35
269.546	34.93
269.763	18.78
269.979	-8.76
270.196	-11.51
270.413	-48.56
270.629	-75.9
270.846	-78.23
271.063	-68.39
271.279	-76.75
271.496	-59.98
271.712	-27.26
271.929	6.26
272.146	-2.26
272.362	7.23
272.579	37.06
272.795	21.57
273.012	0.54
273.228	14.83
273.445	-9.77
273.661	-46.7
273.878	-45.48
274.094	-32.23
274.311	-58.61
274.527	-0.29
274.744	-14.36
274.96	-25.36
275.177	-15.11
275.393	1.92
275.609	-6.8
275.826	33.75
276.042	27.5
276.259	12.26
276.475	12.07
276.691	8.84
276.908	-21.03
277.124	-11.95
277.34	-1.55
277.557	-19.54
277.773	-32.64
277.989	-32.65
278.205	-37.44
278.422	-32.48
278.638	-12
278.854	16.36
279.07	17.85
279.286	30.68
279.503	-1.85
279.719	-5.8
279.935	-51.59
280.151	-61.79
280.367	-45.12
280.583	-43.01
280.799	-38.34
281.016	-44.46
281.232	-4.67
281.448	-13.89
281.664	-0.95
281.88	-44.93
282.096	-36.73
282.312	-38.97
282.528	-17.87
282.744	4
282.96	23.4
283.176	25.56
283.392	11.42
283.608	8.8
283.824	5.33
284.04	-2.88
284.256	0.95
284.471	-3.24
284.687	-12.82
284.903	9.76
285.119	53.11
285.335	33.32
285.551	35.23
285.767	16.4
285.982	-14.48
286.198	-79.26
286.414	-19.1
286.63	-7.57
286.846	24.32
287.061	10.36
287.277	51.2
287.493	28.95
287.709	43
287.924	17.46
288.14	54.78
288.356	45.09
288.571	56.19
288.787	42.47
289.003	40.49
289.218	13.84
289.434	-28.93
289.65	-37
289.865	-39.03
290.081	-10.42
290.296	-5.26
290.512	6.8
290.727	-19.41
290.943	-30.33
291.159	-30.23
291.374	-36.29
291.59	-41.69
291.805	-25.99
292.021	-16.96
292.236	-27.08
292.451	-8.17
292.667	-0.5
292.882	14.9
293.098	14.36
293.313	1.97
293.529	-24.14
293.744	-41.23
293.959	-55.98
294.175	-48.75
294.39	-9.15
294.605	1.96
294.821	30.07
295.036	39.15
295.251	37.92
295.467	12.06
295.682	13.83
295.897	-53.64
296.112	-69.54
296.328	-43.38
296.543	-68.03
296.758	-59.41
296.973	-0.88
297.188	34.02
297.404	-2.08
297.619	-0.29
297.834	-10.75
298.049	-34.78
298.264	-62.94
298.479	-1.58
298.694	5.05
298.909	13.35
299.125	17.15
299.34	14.13
299.555	-11.48
299.77	-7.26
299.985	-38.61
300.2	-81.38
300.415	-88.98
300.63	-57.41
300.845	-66.18
301.06	-63.37
301.275	-35.12
301.49	-5.13
301.704	-16.3
301.919	-25.14
302.134	-27.79
302.349	-22.26
302.564	-92.39
302.779	-110.94
302.994	-113.09
303.209	-70.01
303.423	-59.21
303.638	9.75
303.853	-23.62
304.068	-10.47
304.283	-7.36
304.497	-8.67
304.712	-21.28
304.927	-8.81
305.142	-19.33
305.356	-24.7
305.571	-25.01
305.786	-35.65
306	-59.05
306.215	-49.59
306.43	-60.82
306.644	-62.04
306.859	-23.18
307.074	-2.84
307.288	-38.91
307.503	-48.89
307.717	-58.01
307.932	-63.07
308.147	-58.79
308.361	-23.93
308.576	-26
308.79	-55.35
309.005	-41.75
309.219	-24.37
309.434	-44.73
309.648	-35.78
309.863	-3.38
310.077	-5.73
310.292	-15.23
310.506	-7
310.72	3.01
310.935	9.72
311.149	1.24
311.364	19.49
311.578	25.58
311.792	9
312.007	8.89
312.221	4.11
312.435	6.86
312.649	0.61
312.864	48.29
313.078	70.14
313.292	128
313.507	114.43
313.721	143.08
313.935	47.7
314.149	27.51
314.363	10.27
314.578	-0.71
314.792	-0.49
315.006	-14.47
315.22	-0.69
315.434	5.76
315.648	18.11
315.862	17.47
316.077	24.56
316.291	-6.02
316.505	-10.06
316.719	-32.02
316.933	-52.82
317.147	-35.49
317.361	-59.87
317.575	-81.18
317.789	-109.21
318.003	-147.32
318.217	-128.12
318.431	-37.69
318.645	4.95
318.859	11.68
319.073	40.87
319.287	27
319.5	-7.99
319.714	-42.38
319.928	-78.31
320.142	-111.98
320.356	-64.99
320.57	-30.29
320.784	-65.75
320.997	-51.25
321.211	-49.44
321.425	-99.68
321.639	-109.68
321.853	-44.6
322.066	-21.78
322.28	-26.65
322.494	-15.83
322.707	-4.51
322.921	-11.26
323.135	-11.72
323.349	4.69
323.562	-5.88
323.776	-13.78
323.989	-14.94
324.203	-37.95
324.417	-48
324.63	-51.29
324.844	-58.34
325.057	-56.42
325.271	-39.85
325.485	-9.68
325.698	0.08
325.912	15.61
326.125	-8.2
326.339	0.68
326.552	-24.92
326.766	-28.24
326.979	-21.58
327.193	29.12
327.406	17.74
327.619	10.7
327.833	25.63
328.046	6.41
328.26	-44.32
328.473	-31.52
328.686	-59.42
328.9	-64.02
329.113	-37.53
329.326	-47.06
329.54	-38.13
329.753	-46.63
329.966	-60.49
330.179	-59.97
330.393	-30.92
330.606	-22.76
330.819	-2.67
331.032	16.41
331.246	16.73
331.459	41.59
331.672	39.28
331.885	42.59
332.098	15.89
332.311	19.88
332.525	-31.03
332.738	-28.41
332.951	-9.27
333.164	16.06
333.377	11.51
333.59	36.4
333.803	44.49
334.016	28.55
334.229	8.73
334.442	21.28
334.655	45.01
334.868	36.06
335.081	36.62
335.294	33.14
335.507	19.45
335.72	-11.55
335.933	-19.55
336.146	-20.45
336.359	-22.92
336.572	-44.85
336.785	-74.21
336.997	-51.32
337.21	-27.2
337.423	-21.01
337.636	-14.68
337.849	4.76
338.062	-9.16
338.274	-6.57
338.487	-16.99
338.7	-15.6
338.913	-49.81
339.125	-67.83
339.338	-136.8
339.551	-103.91
339.763	-68.97
339.976	-26.56
340.189	-8.49
340.402	6.17
340.614	-9.59
340.827	-23.89
341.039	-49.47
341.252	-49.94
341.465	-24.39
341.677	-15.78
341.89	-34.93
342.102	-11.9
342.315	-39
342.527	-84.85
342.74	-85.87
342.952	-55.01
343.165	-42.85
343.377	2.56
343.59	4.89
343.802	27.65
344.015	26.94
344.227	23.03
344.44	12.64
344.652	16.05
344.864	-2.07
345.077	23.71
345.289	23.39
345.502	23.88
345.714	13.57
345.926	21.45
346.139	16.21
346.351	23.59
346.563	21.12
346.775	34.69
346.988	23.32
347.2	-8.14
347.412	-53.48
347.624	-80.32
347.837	-109.65
348.049	-99.72
348.261	-35.58
348.473	-37.92
348.685	-33.45
348.897	-28.73
349.11	-40.01
349.322	-68.6
349.534	-25.82
349.746	-14.34
349.958	0.33
350.17	-12
350.382	-5.45
350.594	-12.57
350.806	-7.65
351.018	-15.14
351.23	-7.57
351.442	-51.86
351.654	-54.48
351.866	-41.83
352.078	-25.14
352.29	-10.62
352.502	10
352.714	14.15
352.926	6.87
353.138	5.28
353.35	-3.23
353.561	-4.69
353.773	-18.88
353.985	-7.38
354.197	-24.3
354.409	-29.17
354.621	-28.47
354.832	-15.83
355.044	-28.61
355.256	-21.04
355.468	-9.27
355.679	-14.61
355.891	-7.17
356.103	-24.97
356.314	-21.57
356.526	-25.83
356.738	-21.4
356.949	-47.63
357.161	-21.77
357.373	-10.39
357.584	-18.24
357.796	4.35
358.008	4.85
358.219	17.78
358.431	7.08
358.642	13.34
358.854	-5.28
359.065	-19.71
359.277	-53.1
359.488	-55.39
359.7	-87.94
359.911	-100.53
360.123	-64.65
360.334	-62.37
360.546	-88.22
360.757	-72.13
360.969	-47.38
361.18	-37.29
361.391	-30.17
361.603	-23.62
361.814	-1.56
362.025	-6.95
362.237	-12.19
362.448	10.86
362.659	24.8
362.871	10.36
363.082	6.91
363.293	7.14
363.504	-17.62
363.716	-33.6
363.927	-31.85
364.138	-52.94
364.349	-75.51
364.56	-56.3
364.772	-52.45
364.983	-20.85
365.194	-16.84
365.405	4.66
365.616	20.28
365.827	28
366.038	-3.37
366.25	3.17
366.461	-30.53
366.672	-33.21
366.883	-18.05
367.094	-6.29
367.305	-20.99
367.516	-8.05
367.727	-28.95
367.938	-40.03
368.149	-43.54
368.36	-17.11
368.571	-11.76
368.781	-11.57
368.992	-30.74
369.203	-38.55
369.414	-70.18
369.625	-78.81
369.836	-80.34
370.047	-99.78
370.258	-81.09
370.468	-69.45
370.679	-89.32
370.89	-75.14
371.101	-52.07
371.312	-62.48
371.522	-43.96
371.733	-23.23
371.944	-14.4
372.155	-3.67
372.365	-7.44
372.576	-22.28
372.787	-20.59
372.997	-49.41
373.208	-46.76
373.419	-17.12
373.629	-40.25
373.84	-46.1
374.05	-33.32
374.261	-20.7
374.472	-35.98
374.682	4.91
374.893	14.43
375.103	36.29
375.314	24.74
375.524	18.61
375.735	17.68
375.945	16.67
376.156	-9.59
376.366	-1.43
376.577	8.17
376.787	0.76
376.997	3.21
377.208	0.87
377.418	-13.28
377.629	-3.37
377.839	-1.57
378.049	-4.88
378.26	9.05
378.47	21.71
378.68	1.28
378.89	-6.29
379.101	-9.77
379.311	-37.24
379.521	-65.72
379.732	-56.1
379.942	-55.09
380.152	-67.43
380.362	-42.6
380.572	-38.51
380.783	-29.68
380.993	-12.78
381.203	-6.47
381.413	0.31
381.623	2.5
381.833	9.1
382.043	-3.18
382.253	-5.68
382.463	-6.79
382.674	-14.51
382.884	-31.93
383.094	-30.46
383.304	-27.19
383.514	-21.19
383.724	-10.93
383.934	-14.64
384.144	-21.89
384.353	-26.35
384.563	-29.58
384.773	-25.9
384.983	-31.29
385.193	-14.52
385.403	-9.41
385.613	-8.39
385.823	-14.18
386.033	-1.2
386.242	-8.28
386.452	-8.71
386.662	-15.53
386.872	-6.45
387.082	-11.69
387.291	-20.7
387.501	-29.84
387.711	-18.24
387.921	-24.99
388.13	-24.38
388.34	-7.94
388.55	-6.46
388.759	-8.95
388.969	-1.95
389.179	-3.79
389.388	-7.72
389.598	-3.04
389.807	-9.42
390.017	-16.05
390.227	-12.6
390.436	-12.68
390.646	-12.27
390.855	-6.59
391.065	-4.9
391.274	-7.34
391.484	-9.71
391.693	-7.94
391.903	-7.36
392.112	-1.81
392.322	2.05
392.531	8.28
392.74	6.97
392.95	3.01
393.159	0.28
393.369	-0.12
393.578	-3.35
393.787	-2.56
393.997	-0.42
394.206	-1.44
394.415	-1.85
394.625	-2
394.834	-3.8
395.043	-2.97
395.252	-1.31
395.462	1.07
395.671	1.96
395.88	2.36
396.089	2.65
396.298	1.26
396.508	-0.2
396.717	-0.7
396.926	0.71
397.135	0.34
397.344	0.56
397.553	1.22
397.762	2.53
397.971	2.2
398.181	2.45
398.39	2.25
398.599	1.9
398.808	1.65
399.017	2.58
399.226	3.13
399.435	4.43
399.644	4.52
399.853	3.49
400.062	2.74
400.27	2.45
400.479	1.86
400.688	1.27
400.897	1.93
401.106	2.01
401.315	1.74
401.524	1.51
401.733	2.19
401.941	2.3
402.15	2.57
402.359	2.45
402.568	2.95
402.777	2.99
402.985	2.91
403.194	2.73
403.403	3.07
403.612	2.52
403.82	2.2
404.029	2.31
404.238	2.26
404.446	2.36
404.655	2.06
404.864	2.14
405.072	1.96
405.281	1.99
405.489	1.62
405.698	1.9
405.906	1.95
406.115	1.95
406.324	1.84
406.532	1.97
406.741	2.34
406.949	2.32
407.158	2.33
407.366	2.5
407.574	2.61
407.783	2.44
407.991	2.22
408.2	2.39
408.408	2.37
408.617	2.34
408.825	2.16
409.033	2.44
409.242	2.48
409.45	2.53
409.658	2.39
409.867	2.58
410.075	2.35
410.283	2.2
410.491	2.05
410.7	2
410.908	1.99
411.116	2.51
411.324	2.45
411.533	2.44
411.741	2.68
411.949	2.64
412.157	2.15
412.365	2.18
412.573	2.33
412.781	2.45
412.99	2.44
413.198	2.55
413.406	2.52
413.614	2.47
413.822	2.17
414.03	2.16
414.238	2.08
414.446	2.08
414.654	1.83
414.862	1.92
415.07	1.91
415.278	2.07
415.486	1.93
415.694	2.09
415.902	1.91
416.109	1.86
416.317	1.77
416.525	1.67
416.733	1.59
416.941	1.84
417.149	1.88
417.357	1.96
417.564	2.21
417.772	2.46
417.98	2.29
418.188	2.1
418.395	2.08
418.603	2.24
418.811	1.86
419.019	1.81
419.226	1.98
419.434	1.99
419.642	1.68
419.849	1.93
420.057	1.93
420.265	2.01
420.472	1.78
420.68	1.78
420.887	1.66
421.095	1.82
421.302	1.8
421.51	1.98
421.717	2.21
421.925	2.37
422.132	2.1
422.34	1.76
422.547	1.84
422.755	1.8
422.962	1.52
423.17	1.59
423.377	1.85
423.585	1.74
423.792	1.48
423.999	1.67
424.207	1.76
424.414	1.76
424.621	1.81
424.829	1.84
425.036	1.82
425.243	1.83
425.451	1.81
425.658	1.61
425.865	1.85
426.072	1.91
426.28	2.08
426.487	1.89
426.694	2.07
426.901	1.81
427.108	1.72
427.315	1.45
427.523	1.79
427.73	1.73
427.937	1.68
428.144	1.57
428.351	1.69
428.558	1.79
428.765	1.77
428.972	1.83
429.179	2.05
429.386	2.26
429.593	1.98
429.8	1.84
430.007	2.04
430.214	2
430.421	1.74
430.628	1.63
430.835	1.61
431.042	1.82
431.249	1.9
431.456	1.94
431.662	2.1
431.869	2.23
432.076	2.05
432.283	2.12
432.49	2.08
432.697	2.15
432.903	2.01
433.11	1.9
433.317	1.96
433.524	2.28
433.73	2.19
433.937	2.5
434.144	2.56
434.35	2.51
434.557	2.19
434.764	2.22
434.97	2.08
435.177	2.18
435.384	1.97
435.59	2.01
435.797	2.21
436.003	2.33
436.21	2.28
436.416	2.52
436.623	2.55
436.829	2.58
437.036	2.56
437.242	2.56
437.449	2.46
437.655	2.56
437.862	2.52
438.068	2.42
438.275	2.6
438.481	2.75
438.687	2.68
438.894	2.65
439.1	2.76
439.307	2.85
439.513	2.71
439.719	2.75
439.926	2.84
440.132	2.83
440.338	2.61
440.544	2.8
440.751	2.82
440.957	2.8
441.163	2.72
441.369	2.79
441.575	2.54
441.782	2.53
441.988	2.38
442.194	2.36
442.4	2.43
442.606	2.78
442.812	2.82
443.018	2.93
443.224	3.01
443.431	3.06
443.637	2.81
443.843	2.77
444.049	2.75
444.255	2.69
444.461	2.7
444.667	2.63
444.873	2.83
445.079	2.89
445.284	3.11
445.49	2.9
445.696	2.83
445.902	2.69
446.108	2.54
446.314	2.36
446.52	2.44
446.726	2.68
446.931	2.68
447.137	2.9
447.343	3.02
447.549	2.93
447.755	2.86
447.96	2.89
448.166	2.73
448.372	2.65
448.578	2.85
448.783	2.8
448.989	2.83
449.195	3.02
449.4	3.03
449.606	2.89
449.812	2.84
450.017	2.85
450.223	2.75
450.428	2.72
450.634	2.92
450.84	3.14
451.045	3.16
451.251	3.04
451.456	3.33
451.662	3.37
451.867	3.38
452.073	3.38
452.278	3.53
452.483	3.5
452.689	3.44
452.894	3.48
453.1	3.41
453.305	3.45
453.51	3.3
453.716	3.14
453.921	3.09
454.127	3.06
454.332	2.98
454.537	2.95
454.742	3.06
454.948	3.01
455.153	3.08
455.358	3.14
455.563	3.35
455.769	3.45
455.974	3.43
456.179	3.33
456.384	3.3
456.589	3.16
456.795	2.95
457	2.91
457.205	3.17
457.41	3.12
457.615	3.13
457.82	3.3
458.025	3.37
458.23	3.22
458.435	3.29
458.64	3.14
458.845	3.2
459.05	3.11
459.255	3.11
459.46	3.07
459.665	3.22
459.87	3.22
460.075	3.3
460.28	3.34
460.485	3.43
460.69	3.4
460.895	3.23
461.099	3.23
461.304	3.36
461.509	3.36
461.714	3.31
461.919	3.49
462.123	3.37
462.328	3.41
462.533	3.33
462.738	3.5
462.942	3.44
463.147	3.59
463.352	3.54
463.556	3.61
463.761	3.55
463.966	3.54
464.17	3.5
464.375	3.35
464.58	3.32
464.784	3.32
464.989	3.23
465.193	3.19
465.398	3.27
465.602	3.41
465.807	3.35
466.011	3.51
466.216	3.6
466.42	3.73
466.625	3.72
466.829	3.81
467.034	3.9
467.238	4.13
467.443	4.08
467.647	3.96
467.851	4
468.056	3.99
468.26	3.83
468.464	3.83
468.669	4
468.873	4.09
469.077	4.09
469.282	4.14
469.486	4.13
469.69	4.09
469.894	4.01
470.099	4.07
470.303	4.09
470.507	4.04
470.711	3.94
470.915	3.9
471.119	3.73
471.324	3.7
471.528	3.78
471.732	3.89
471.936	3.93
472.14	4.03
472.344	4.11
472.548	4.14
472.752	4.27
472.956	4.5
473.16	4.49
473.364	4.39
473.568	4.38
473.772	4.4
473.976	4.29
474.18	4.35
474.384	4.41
474.588	4.44
474.792	4.32
474.995	4.38
475.199	4.49
475.403	4.55
475.607	4.63
475.811	4.6
476.015	4.67
476.218	4.64
476.422	4.51
476.626	4.49
476.83	4.59
477.033	4.46
477.237	4.38
477.441	4.55
477.644	4.44
477.848	4.41
478.052	4.41
478.255	4.46
478.459	4.39
478.663	4.63
478.866	4.71
479.07	4.77
479.273	4.97
479.477	5.01
479.681	4.87
479.884	4.83
480.088	4.83
480.291	4.63
480.495	4.66
480.698	4.71
480.901	4.76
481.105	4.85
481.308	4.86
481.512	4.81
481.715	4.89
481.919	4.97
482.122	4.98
482.325	4.97
482.529	5
482.732	4.99
482.935	4.87
483.138	4.83
483.342	4.98
483.545	5.04
483.748	5.06
483.952	5.15
484.155	5.2
484.358	5.18
484.561	5.13
484.764	5.09
484.967	5.19
485.171	5.25
485.374	5.17
485.577	5.31
485.78	5.34
485.983	5.25
486.186	5.09
486.389	5.09
486.592	5.04
486.795	5.11
486.998	5.08
487.201	5.19
487.404	5.23
487.607	5.29
487.81	5.24
488.013	5.29
488.216	5.28
488.419	5.27
488.622	5.25
488.825	5.21
489.028	5.15
489.231	5.08
489.433	5.07
489.636	4.95
489.839	4.94
490.042	4.86
490.245	4.92
490.447	4.97
490.65	5.02
490.853	5.03
491.056	5.22
491.258	5.23
491.461	5.26
491.664	5.32
491.866	5.28
492.069	5.26
492.272	5.2
492.474	5.23
492.677	5.29
492.879	5.43
493.082	5.46
493.285	5.62
493.487	5.52
493.69	5.4
493.892	5.28
494.095	5.27
494.297	5.19
494.5	5.26
494.702	5.33
494.905	5.35
495.107	5.29
495.309	5.33
495.512	5.34
495.714	5.36
495.917	5.4
496.119	5.4
496.321	5.43
496.524	5.51
496.726	5.51
496.928	5.58
497.13	5.62
497.333	5.64
497.535	5.62
497.737	5.58
497.939	5.52
498.142	5.51
498.344	5.47
498.546	5.41
498.748	5.46
498.95	5.58
499.152	5.54
499.355	5.56
499.557	5.66
499.759	5.71
499.961	5.61
500.163	5.7
500.365	5.76
500.567	5.77
500.769	5.7
500.971	5.72
501.173	5.65
501.375	5.64
501.577	5.54
501.779	5.58
501.981	5.59
502.183	5.64
502.385	5.64
502.587	5.65
502.788	5.69
502.99	5.74
503.192	5.78
503.394	5.74
503.596	5.79
503.798	5.79
503.999	5.82
504.201	5.81
504.403	5.89
504.605	5.89
504.806	5.87
505.008	5.85
505.21	5.87
505.411	5.85
505.613	5.88
505.815	5.87
506.016	5.9
506.218	5.99
506.42	6.02
506.621	5.99
506.823	6.07
507.024	6.03
507.226	6
507.427	5.96
507.629	6.06
507.83	6.09
508.032	6.09
508.233	6.16
508.435	6.2
508.636	6.2
508.838	6.17
509.039	6.18
509.24	6.15
509.442	6.19
509.643	6.11
509.845	6.14
510.046	6.26
510.247	6.22
510.448	6.27
510.65	6.34
510.851	6.43
511.052	6.38
511.254	6.44
511.455	6.51
511.656	6.54
511.857	6.54
512.058	6.52
512.26	6.48
512.461	6.38
512.662	6.41
512.863	6.34
513.064	6.38
513.265	6.38
513.466	6.45
513.667	6.44
513.868	6.5
514.069	6.51
514.27	6.6
514.471	6.6
514.672	6.6
514.873	6.55
515.074	6.6
515.275	6.49
515.476	6.46
515.677	6.46
515.878	6.6
516.079	6.58
516.28	6.63
516.481	6.72
516.682	6.74
516.882	6.58
517.083	6.58
517.284	6.54
517.485	6.48
517.686	6.47
517.886	6.53
518.087	6.57
518.288	6.61
518.488	6.52
518.689	6.56
518.89	6.52
519.091	6.54
519.291	6.55
519.492	6.69
519.692	6.68
519.893	6.8
520.094	6.79
520.294	6.79
520.495	6.72
520.695	6.77
520.896	6.73
521.096	6.8
521.297	6.86
521.497	6.89
521.698	6.85
521.898	6.85
522.099	6.82
522.299	6.84
522.499	6.9
522.7	6.95
522.9	6.93
523.101	7
523.301	6.97
523.501	6.94
523.702	6.94
523.902	7.03
524.102	7.03
524.302	7.05
524.503	7.12
524.703	7.11
524.903	7.12
525.103	7.04
525.304	7.11
525.504	7.16
525.704	7.21
525.904	7.17
526.104	7.19
526.304	7.15
526.504	7.13
526.705	7.16
526.905	7.24
527.105	7.32
527.305	7.3
527.505	7.23
527.705	7.2
527.905	7.19
528.105	7.19
528.305	7.15
528.505	7.2
528.705	7.26
528.905	7.22
529.105	7.16
529.304	7.26
529.504	7.35
529.704	7.28
529.904	7.32
530.104	7.36
530.304	7.39
530.503	7.35
530.703	7.34
530.903	7.33
531.103	7.36
531.303	7.33
531.502	7.33
531.702	7.45
531.902	7.46
532.101	7.47
532.301	7.46
532.501	7.46
532.7	7.4
532.9	7.43
533.1	7.43
533.299	7.44
533.499	7.46
533.698	7.42
533.898	7.4
534.097	7.45
534.297	7.52
534.496	7.53
534.696	7.62
534.895	7.73
535.095	7.84
535.294	7.81
535.494	7.78
535.693	7.78
535.892	7.76
536.092	7.6
536.291	7.56
536.491	7.67
536.69	7.75
536.889	7.68
537.088	7.72
537.288	7.83
537.487	7.81
537.686	7.73
537.886	7.79
538.085	7.84
538.284	7.89
538.483	7.87
538.682	7.96
538.882	8.06
539.081	8.11
539.28	8.05
539.479	8.08
539.678	8.06
539.877	8.14
540.076	8.12
540.275	8.16
540.474	8.27
540.673	8.32
540.872	8.24
541.071	8.3
541.27	8.36
541.469	8.41
541.668	8.4
541.867	8.43
542.066	8.48
542.265	8.52
542.464	8.41
542.663	8.5
542.862	8.64
543.06	8.76
543.259	8.76
543.458	8.86
543.657	8.88
543.856	8.87
544.054	8.76
544.253	8.77
544.452	8.79
544.651	8.87
544.849	8.85
545.048	8.87
545.247	8.89
545.445	8.98
545.644	8.95
545.843	8.97
546.041	9.04
546.24	9.14
546.438	9.22
546.637	9.26
546.836	9.38
547.034	9.5
547.233	9.52
547.431	9.46
547.63	9.5
547.828	9.47
548.027	9.5
548.225	9.48
548.423	9.58
548.622	9.71
548.82	9.74
549.019	9.74
549.217	9.88
549.415	9.91
549.614	9.93
549.812	10
550.01	9.98
550.209	10.01
550.407	10.07
550.605	10.04
550.803	10.13
551.002	10.27
551.2	10.33
551.398	10.38
551.596	10.54
551.794	10.55
551.993	10.63
552.191	10.69
552.389	10.77
552.587	10.77
552.785	10.87
552.983	10.91
553.181	10.96
553.379	11.05
553.577	11.13
553.775	11.19
553.973	11.3
554.171	11.36
554.369	11.32
554.567	11.38
554.765	11.44
554.963	11.52
555.161	11.51
555.359	11.65
555.557	11.78
555.755	11.85
555.952	11.96
556.15	12.1
556.348	12.2
556.546	12.32
556.744	12.41
556.941	12.42
557.139	12.53
557.337	12.61
557.535	12.56
557.732	12.67
557.93	12.84
558.128	12.91
558.325	12.98
558.523	13.08
558.721	13.14
558.918	13.15
559.116	13.25
559.313	13.3
559.511	13.48
559.708	13.51
559.906	13.56
560.104	13.62
560.301	13.78
560.498	13.8
560.696	13.88
560.893	14.05
561.091	14.13
561.288	14.17
561.486	14.3
561.683	14.39
561.88	14.44
562.078	14.55
562.275	14.56
562.473	14.64
562.67	14.82
562.867	15
563.064	15.12
563.262	15.21
563.459	15.29
563.656	15.44
563.853	15.42
564.051	15.5
564.248	15.64
564.445	15.74
564.642	15.71
564.839	15.84
565.036	16.06
565.234	16.28
565.431	16.38
565.628	16.54
565.825	16.64
566.022	16.73
566.219	16.74
566.416	16.83
566.613	16.93
566.81	17.05
567.007	17.01
567.204	17.07
567.401	17.18
567.598	17.2
567.795	17.19
567.991	17.3
568.188	17.38
568.385	17.41
568.582	17.54
568.779	17.7
568.976	17.87
569.172	18.05
569.369	18.1
569.566	18.21
569.763	18.33
569.96	18.33
570.156	18.32
570.353	18.4
570.55	18.38
570.746	18.34
570.943	18.4
571.14	18.37
571.336	18.47
571.533	18.59
571.729	18.66
571.926	18.7
572.123	18.87
572.319	18.9
572.516	18.88
572.712	19.01
572.909	19.05
573.105	19.14
573.302	19.2
573.498	19.31
573.695	19.17
573.891	19.19
574.087	19.21
574.284	19.24
574.48	19.19
574.677	19.36
574.873	19.42
575.069	19.45
575.266	19.52
575.462	19.53
575.658	19.57
575.854	19.67
576.051	19.62
576.247	19.55
576.443	19.55
576.639	19.51
576.835	19.35
577.032	19.28
577.228	19.39
577.424	19.44
577.62	19.34
577.816	19.46
578.012	19.58
578.208	19.56
578.404	19.58
578.6	19.67
578.796	19.72
578.993	19.78
579.189	19.74
579.384	19.59
579.58	19.59
579.776	19.49
579.972	19.36
580.168	19.39
580.364	19.51
580.56	19.46
580.756	19.46
580.952	19.51
581.148	19.51
581.343	19.5
581.539	19.56
581.735	19.53
581.931	19.56
582.127	19.53
582.322	19.49
582.518	19.51
582.714	19.55
582.909	19.53
583.105	19.52
583.301	19.54
583.496	19.51
583.692	19.42
583.888	19.39
584.083	19.39
584.279	19.48
584.474	19.47
584.67	19.55
584.866	19.59
585.061	19.52
585.257	19.55
585.452	19.59
585.648	19.59
585.843	19.63
586.039	19.68
586.234	19.62
586.429	19.52
586.625	19.57
586.82	19.55
587.015	19.58
587.211	19.5
587.406	19.64
587.601	19.63
587.797	19.55
587.992	19.52
588.187	19.73
588.383	19.67
588.578	19.66
588.773	19.82
588.968	19.78
589.163	19.72
589.359	19.67
589.554	19.67
589.749	19.66
589.944	19.75
590.139	19.7
590.334	19.79
590.529	19.78
590.724	19.8
590.919	19.92
591.114	20.01
591.309	20.16
591.504	20.31
591.699	20.28
591.894	20.39
592.089	20.38
592.284	20.34
592.479	20.37
592.674	20.42
592.869	20.41
593.064	20.49
593.259	20.68
593.454	20.76
593.648	20.81
593.843	20.85
594.038	20.88
594.233	20.71
594.428	20.65
594.622	20.78
594.817	20.94
595.012	21.06
595.206	21.21
595.401	21.32
595.596	21.35
595.79	21.37
595.985	21.48
596.18	21.52
596.374	21.59
596.569	21.66
596.763	21.67
596.958	21.66
597.153	21.74
597.347	21.77
597.542	21.89
597.736	21.9
597.931	21.96
598.125	22.05
598.319	22.28
598.514	22.3
598.708	22.42
598.903	22.49
599.097	22.58
599.291	22.49
599.486	22.5
599.68	22.56
599.874	22.71
600.069	22.67
600.263	22.7
600.457	22.92
600.651	23.01
600.846	23.01
601.04	23.07
601.234	23.07
601.428	23.04
601.622	23.07
601.817	23.03
602.011	23.13
602.205	23.25
602.399	23.19
602.593	23.17
602.787	23.3
602.981	23.25
603.175	23.3
603.369	23.28
603.563	23.29
603.757	23.34
603.951	23.37
604.145	23.37
604.339	23.53
604.533	23.5
604.727	23.45
604.921	23.49
605.115	23.41
605.309	23.35
605.502	23.4
605.696	23.26
605.89	23.2
606.084	23.23
606.278	23.2
606.471	23.12
606.665	23.1
606.859	23.01
607.053	22.88
607.246	22.85
607.44	22.84
607.634	22.8
607.827	22.8
608.021	22.81
608.214	22.79
608.408	22.66
608.602	22.67
608.795	22.52
608.989	22.37
609.182	22.31
609.376	22.3
609.569	22.15
609.763	22.16
609.956	22.13
610.15	22
610.343	21.91
610.537	21.91
610.73	21.88
610.923	21.86
611.117	21.84
611.31	21.75
611.504	21.76
611.697	21.59
611.89	21.53
612.083	21.42
612.277	21.4
612.47	21.34
612.663	21.3
612.856	21.21
613.05	21.13
613.243	21.15
613.436	21.02
613.629	20.99
613.822	20.91
614.015	20.87
614.209	20.65
614.402	20.59
614.595	20.49
614.788	20.47
614.981	20.23
615.174	20.15
615.367	20.08
615.56	19.99
615.753	19.9
615.946	19.94
616.139	20.04
616.332	20.1
616.525	20.12
616.718	20.12
616.911	20.11
617.103	20.1
617.296	19.97
617.489	19.9
617.682	19.81
617.875	19.84
618.067	19.72
618.26	19.62
618.453	19.67
618.646	19.53
618.838	19.48
619.031	19.56
619.224	19.53
619.417	19.41
619.609	19.6
619.802	19.54
619.994	19.4
620.187	19.39
620.38	19.37
620.572	19.19
620.765	19.24
620.957	19.09
621.15	19.1
621.342	19.08
621.535	19.12
621.727	18.95
621.92	18.96
622.112	18.87
622.305	18.89
622.497	18.79
622.69	18.85
622.882	18.88
623.074	18.94
623.267	18.83
623.459	18.78
623.651	18.67
623.844	18.7
624.036	18.67
624.228	18.63
624.42	18.66
624.613	18.75
624.805	18.7
624.997	18.62
625.189	18.6
625.381	18.63
625.574	18.54
625.766	18.45
625.958	18.48
626.15	18.47
626.342	18.37
626.534	18.37
626.726	18.35
626.918	18.27
627.11	18.24
627.302	18.19
627.494	18.05
627.686	18.07
627.878	18.03
628.07	17.99
628.262	17.99
628.454	18.11
628.646	18.06
628.838	18.03
629.029	17.99
629.221	18.03
629.413	17.82
629.605	17.69
629.797	17.6
629.989	17.52
630.18	17.41
630.372	17.45
630.564	17.44
630.755	17.53
630.947	17.63
631.139	17.5
631.33	17.44
631.522	17.56
631.714	17.52
631.905	17.42
632.097	17.45
632.289	17.49
632.48	17.41
632.672	17.35
632.863	17.28
633.055	17.28
633.246	17.18
633.438	17.11
633.629	17.06
633.821	17.13
634.012	17.14
634.203	17.14
634.395	17.19
634.586	17.16
634.777	17.06
634.969	17.01
635.16	17.05
635.351	16.97
635.543	17.06
635.734	17.15
635.925	17.13
636.117	17.18
636.308	17.16
636.499	17.1
636.69	16.96
636.881	16.97
637.073	16.93
637.264	16.95
637.455	16.98
637.646	17.1
637.837	17.2
638.028	17.17
638.219	17.22
638.41	17.17
638.601	17.1
638.792	17.05
638.983	17.02
639.174	16.93
639.365	16.93
639.556	16.88
639.747	16.77
639.938	16.88
640.129	16.85
640.32	16.74
640.511	16.84
640.701	16.93
640.892	16.82
641.083	16.92
641.274	17.03
641.465	16.98
641.655	16.92
641.846	16.93
642.037	16.82
642.228	16.75
642.418	16.83
642.609	16.9
642.8	16.85
642.99	16.76
643.181	16.79
643.372	16.67
643.562	16.66
643.753	16.59
643.943	16.62
644.134	16.51
644.324	16.47
644.515	16.46
644.705	16.62
644.896	16.61
645.086	16.7
645.277	16.75
645.467	16.7
645.658	16.63
645.848	16.71
646.038	16.75
646.229	16.66
646.419	16.57
646.61	16.55
646.8	16.38
646.99	16.26
647.18	16.26
647.371	16.26
647.561	16.21
647.751	16.3
647.941	16.2
648.132	16.18
648.322	16.16
648.512	16.2
648.702	16.19
648.892	16.2
649.082	16.19
649.272	16.18
649.462	16
649.653	15.85
649.843	15.79
650.033	15.79
650.223	15.8
650.413	15.81
650.603	15.86
650.793	15.97
650.983	15.91
651.172	15.87
651.362	15.88
651.552	15.79
651.742	15.58
651.932	15.53
652.122	15.51
652.312	15.5
652.502	15.48
652.691	15.54
652.881	15.48
653.071	15.38
653.261	15.24
653.45	15.12
653.64	15.11
653.83	14.95
654.019	14.83
654.209	14.73
654.399	14.76
654.588	14.53
654.778	14.55
654.968	14.42
655.157	14.38
655.347	14.15
655.536	14.09
655.726	13.89
655.915	13.74
656.105	13.58
656.294	13.54
656.484	13.33
656.673	13.24
656.863	13.24
657.052	13.06
657.241	12.86
657.431	12.68
657.62	12.49
657.809	12.15
657.999	12.06
658.188	11.91
658.377	11.79
658.567	11.69
658.756	11.58
658.945	11.38
659.134	11.2
659.324	11.03
659.513	10.92
659.702	10.83
659.891	10.73
660.08	10.62
660.269	10.62
660.458	10.42
660.648	10.33
660.837	10.15
661.026	10.02
661.215	9.8
661.404	9.66
661.593	9.52
661.782	9.28
661.971	9.21
662.16	9.19
662.349	9.13
662.538	9.03
662.726	9.11
662.915	8.93
663.104	8.72
663.293	8.67
663.482	8.54
663.671	8.39
663.86	8.33
664.048	8.33
664.237	8.29
664.426	8.19
664.615	8.18
664.803	8.11
664.992	8.03
665.181	7.87
665.369	7.85
665.558	7.74
665.747	7.66
665.935	7.64
666.124	7.62
666.312	7.57
666.501	7.47
666.69	7.35
666.878	7.29
667.067	7.12
667.255	7.15
667.444	7.4
667.632	7.44
667.82	7.48
668.009	7.56
668.197	7.52
668.386	7.35
668.574	7.49
668.762	7.46
668.951	7.43
669.139	7.39
669.327	7.27
669.516	7.31
669.704	7.23
669.892	7.42
670.08	7.43
670.269	7.39
670.457	7.3
670.645	7.21
670.833	7.21
671.021	7.26
671.21	7.4
671.398	7.52
671.586	7.57
671.774	7.34
671.962	7.35
672.15	7.41
672.338	7.26
672.526	7.27
672.714	7.34
672.902	7.33
673.09	7.44
673.278	7.6
673.466	7.73
673.654	7.93
673.842	7.92
674.03	7.94
674.218	7.93
674.405	7.94
674.593	7.78
674.781	7.92
674.969	7.93
675.157	8.11
675.344	8.21
675.532	8.34
675.72	8.52
675.908	8.62
676.095	8.48
676.283	8.56
676.471	8.79
676.658	8.69
676.846	8.67
677.033	8.8
677.221	8.96
677.409	8.83
677.596	9.03
677.784	9.2
677.971	9.27
678.159	9.29
678.346	9.5
678.534	9.57
678.721	9.7
678.909	9.78
679.096	9.81
679.283	9.98
679.471	10.1
679.658	10.17
679.846	10.42
680.033	10.62
680.22	10.69
680.408	10.71
680.595	10.9
680.782	10.82
680.969	10.92
681.157	10.96
681.344	11.05
681.531	11.07
681.718	11.33
681.905	11.57
682.093	11.82
682.28	12.1
682.467	12.4
682.654	12.61
682.841	12.64
683.028	12.81
683.215	13.04
683.402	12.97
683.589	13.12
683.776	13.37
683.963	13.37
684.15	13.52
684.337	13.8
684.524	13.93
684.711	14.24
684.898	14.39
685.085	14.61
685.271	14.95
685.458	15.25
685.645	15.39
685.832	15.88
686.019	16.3
686.205	16.53
686.392	16.82
686.579	17.12
686.766	17.42
686.952	17.6
687.139	18.15
687.326	18.47
687.512	18.78
687.699	19.23
687.886	19.55
688.072	19.69
688.259	20.16
688.445	20.73
688.632	20.99
688.818	21.66
689.005	22.13
689.191	22.59
689.378	23.05
689.564	23.73
689.751	24.19
689.937	24.75
690.124	25.22
690.31	25.7
690.496	26.12
690.683	26.65
690.869	27.24
691.055	27.82
691.242	28.5
691.428	29.12
691.614	29.64
691.8	30.37
691.987	30.93
692.173	31.52
692.359	32.23
692.545	33.04
692.731	33.52
692.918	34.21
693.104	34.72
693.29	35.33
693.476	35.83
693.662	36.44
693.848	36.93
694.034	37.34
694.22	37.64
694.406	38.29
694.592	39.02
694.778	39.8
694.964	40.52
695.15	41.4
695.336	41.75
695.522	42.44
695.708	43.09
695.894	43.65
696.08	44.26
696.265	44.87
696.451	45.33
696.637	45.96
696.823	46.65
697.009	47.1
697.194	47.66
697.38	47.85
697.566	48.22
697.751	48.89
697.937	49.69
698.123	50.32
698.308	50.81
698.494	51.29
698.68	51.7
698.865	51.88
699.051	52.49
699.236	52.88
699.422	53.38
699.607	53.62
699.793	54
699.978	54.03
700.164	54.64
700.349	55.16
700.535	55.7
700.72	56.15
700.906	56.86
701.091	57.15
701.276	57.48
701.462	58.04
701.647	58.58
701.832	59
702.018	59.43
702.203	59.5
702.388	59.37
702.573	59.53
702.759	60.01
702.944	60.39
703.129	60.56
703.314	61.1
703.499	61.27
703.684	61.21
703.87	62.02
704.055	62.69
704.24	62.97
704.425	63.51
704.61	63.7
704.795	63.59
704.98	63.78
705.165	63.77
705.35	64.05
705.535	64.3
705.72	64.32
705.905	64.47
706.09	65.12
706.275	65.06
706.459	65.22
706.644	65.39
706.829	65.78
707.014	65.44
707.199	65.96
707.384	66.28
707.568	66.33
707.753	66.81
707.938	67.27
708.123	67.08
708.307	67.11
708.492	67.48
708.677	67.23
708.861	67.3
709.046	67.26
709.231	67.82
709.415	68.14
709.6	68.03
709.784	68.01
709.969	68.46
710.153	68.35
710.338	68
710.522	68.7
710.707	69.23
710.891	69.13
711.076	69.28
711.26	69.56
711.445	69.27
711.629	69.2
711.813	69.55
711.998	69.54
712.182	69.41
712.366	69.84
712.551	70.26
712.735	70.18
712.919	70.13
713.103	70.64
713.288	70.28
713.472	69.86
713.656	70.4
713.84	70.64
714.024	70.64
714.208	70.45
714.393	70.93
714.577	70.85
714.761	70.89
714.945	70.94
715.129	71.5
715.313	71.52
715.497	71.37
715.681	71.93
715.865	72.26
716.049	72.47
716.233	72.07
716.417	72.37
716.601	72.02
716.785	71.65
716.968	71.7
717.152	72.33
717.336	72.5
717.52	72.44
717.704	72.68
717.888	73.11
718.071	73.24
718.255	73.21
718.439	73.36
718.622	73.34
718.806	73.13
718.99	72.8
719.174	72.55
719.357	73.07
719.541	73.06
719.724	72.74
719.908	74.1
720.092	74.59
720.275	74.36
720.459	74.8
720.642	74.93
720.826	73.97
721.009	73.39
721.193	72.99
721.376	72.94
721.559	73.4
721.743	73.54
721.926	74.21
722.11	74.67
722.293	74.41
722.476	74.17
722.66	73.8
722.843	73.36
723.026	73.06
723.21	73.47
723.393	74.22
723.576	74.41
723.759	74.05
723.942	74.27
724.126	74.03
724.309	73.37
724.492	73.55
724.675	74.34
724.858	75.08
725.041	75.67
725.224	76.36
725.407	76.21
725.59	76.42
725.774	75.79
725.957	74.94
726.14	74.5
726.322	74.97
726.505	74.71
726.688	75.67
726.871	76.16
727.054	76.09
727.237	75.97
727.42	76.53
727.603	76.08
727.786	76.33
727.968	76.37
728.151	75.95
728.334	75.07
728.517	74.92
728.699	75.64
728.882	75.28
729.065	75.65
729.248	76.45
729.43	76.78
729.613	77.17
729.796	78.26
729.978	78.14
730.161	78.11
730.343	77.67
730.526	77.64
730.708	77.69
730.891	78.15
731.073	78.35
731.256	77.91
731.438	77.37
731.621	77.32
731.803	77.6
731.986	77.14
732.168	77.11
732.35	77.11
732.533	76.72
732.715	76.66
732.898	77.51
733.08	78.3
733.262	78.67
733.444	78.57
733.627	78.46
733.809	78.75
733.991	79.71
734.173	79.38
734.355	79.58
734.538	80.24
734.72	79.27
734.902	78.43
735.084	78.57
735.266	78.67
735.448	78.63
735.63	79.13
735.812	79.97
735.994	80.67
736.176	80.7
736.358	80.32
736.54	80.88
736.722	79.61
736.904	79.03
737.086	78.96
737.268	80.06
737.45	80.34
737.632	80.52
737.814	80
737.995	80.81
738.177	80.2
738.359	78.81
738.541	79.47
738.723	80.15
738.904	80.09
739.086	79.87
739.268	80.3
739.449	80.99
739.631	81.02
739.813	80.75
739.994	81.06
740.176	81.8
740.358	80.95
740.539	81.92
740.721	81.96
740.902	82.71
741.084	82.35
741.265	82.17
741.447	82.49
741.628	83.36
741.81	81.6
741.991	81.86
742.172	82.53
742.354	81.32
742.535	80.53
742.717	81.75
742.898	82.85
743.079	82.51
743.261	82.72
743.442	81.92
743.623	82.6
743.804	81.94
743.986	82.81
744.167	81.94
744.348	82.56
744.529	81.76
744.71	80.37
744.891	79.07
745.073	79.46
745.254	79.29
745.435	79.54
745.616	80.19
745.797	80.22
745.978	79.49
746.159	79.32
746.34	77.83
746.521	78.95
746.702	78.19
746.883	79.26
747.064	79.33
747.245	80.99
747.426	80.14
747.606	81.66
747.787	81.87
747.968	81.82
748.149	81.47
748.33	81.77
748.51	80.9
748.691	79.95
748.872	80.74
749.053	80.15
749.233	79.31
749.414	78.87
749.595	78.78
749.775	78.39
749.956	77.58
750.137	77.96
750.317	79.13
750.498	79.6
750.678	78.62
750.859	79.81
751.04	79.51
751.22	78.71
751.4	78.06
751.581	77.9
751.761	77.66
751.942	78.63
752.122	78.85
752.303	78.96
752.483	79
752.663	78.88
752.844	76.18
753.024	77.19
753.204	78.06
753.385	78.28
753.565	77.75
753.745	80.1
753.925	78.99
754.106	77.34
754.286	77.19
754.466	77.05
754.646	76.18
754.826	75.79
755.006	75.9
755.187	77.48
755.367	77.96
755.547	79.26
755.727	80.35
755.907	81.05
756.087	81.29
756.267	81.15
756.447	80.06
756.627	78.95
756.807	78.96
756.987	77.55
757.167	77.96
757.346	78.96
757.526	78.17
757.706	78.48
757.886	79.31
758.066	79.23
758.246	79.63
758.425	81.11
758.605	80.58
758.785	80.17
758.965	80.6
759.144	77.51
759.324	77.6
759.504	77.44
759.683	77.61
759.863	75.01
760.043	75.69
760.222	75.02
760.402	75.4
760.581	74.55
760.761	76.83
760.94	76.41
761.12	78.51
761.299	78.32
761.479	77.78
761.658	76.34
761.838	76.75
762.017	74.47
762.197	73.76
762.376	74.4
762.555	77.19
762.735	77.92
762.914	76.86
763.093	77.3
763.273	76.31
763.452	74.79
763.631	74.77
763.81	75.19
763.99	75.25
764.169	75.93
764.348	73.4
764.527	72.09
764.706	72.88
764.885	74.17
765.064	73.38
765.243	74.95
765.423	75.63
765.602	75.53
765.781	72.08
765.96	70.31
766.139	69.99
766.318	70.32
766.497	69.72
766.676	71.07
766.854	74.28
767.033	74.63
767.212	73.82
767.391	73.62
767.57	74.56
767.749	74.64
767.928	75.34
768.106	74.39
768.285	73.43
768.464	73.42
768.643	71.71
768.821	71.2
769	73.74
769.179	73.88
769.357	72.02
769.536	71.35
769.715	71.15
769.893	71.58
770.072	71.96
770.25	73.44
770.429	75.05
770.607	75.68
770.786	74.41
770.964	74.92
771.143	74.53
771.321	75.16
771.5	74.12
771.678	73.02
771.857	70.98
772.035	70.89
772.213	69.23
772.392	67.32
772.57	69.37
772.748	72.04
772.927	69.96
773.105	70.14
773.283	71.44
773.461	70.08
773.64	70.69
773.818	72.1
773.996	74
774.174	73.5
774.352	70.28
774.531	66.7
774.709	68.83
774.887	67.14
775.065	67.25
775.243	68.97
775.421	69.5
775.599	70.72
775.777	68.06
775.955	66.94
776.133	65.97
776.311	66.16
776.489	61.65
776.667	62.96
776.844	63.09
777.022	63.34
777.2	63.36
777.378	64.82
777.556	65.94
777.734	68.77
777.911	70.85
778.089	71.12
778.267	71.09
778.445	70.31
778.622	68.76
778.8	67.87
778.978	70.6
779.155	69.21
779.333	68.96
779.511	67.45
779.688	70.74
779.866	62.49
780.043	59.39
780.221	58.49
780.398	58.71
780.576	57.73
780.753	64.44
780.931	66.49
781.108	66.78
781.286	69.55
781.463	65.69
781.64	61.6
781.818	65.89
781.995	66.44
782.172	63.55
782.35	62.82
782.527	67.74
782.704	62.67
782.882	63.71
783.059	64.21
783.236	68.11
783.413	66.57
783.59	65.68
783.768	62.14
783.945	66.01
784.122	65.82
784.299	66.18
784.476	65.44
784.653	64.65
784.83	59.96
785.007	54.61
785.184	54.09
785.361	56.45
785.538	61.92
785.715	67.52
785.892	70.67
786.069	71.53
786.246	73.92
786.423	71.75
786.6	66.5
786.776	71.01
786.953	69.84
787.13	71.09
787.307	68.72
787.484	68.71
787.66	64.24
787.837	65.04
788.014	60.61
788.191	62.71
788.367	60.57
788.544	63.33
788.721	62.62
788.897	65.92
789.074	66.15
789.25	67.98
789.427	66.53
789.603	63.83
789.78	64
789.956	60.44
790.133	57.15
790.309	55.8
790.486	60.98
790.662	59.21
790.839	62.58
791.015	66.13
791.192	67.23
791.368	66.11
791.544	63
791.721	59.83
791.897	57.66
792.073	54.37
792.249	45.91
792.426	50.68
792.602	55.51
792.778	55.39
792.954	55.31
793.13	60.72
793.307	51.14
793.483	43.43
793.659	43.93
793.835	47.98
794.011	47.71
794.187	51.48
794.363	54.6
794.539	57.76
794.715	51.05
794.891	53.5
795.067	53.87
795.243	57.66
795.419	56.74
795.595	58.04
795.771	56.18
795.947	58.25
796.122	54.3
796.298	58.31
796.474	56.74
796.65	55.99
796.826	54.59
797.001	57.09
797.177	46.69
797.353	49.19
797.529	54.3
797.704	54.1
797.88	50.08
798.056	50.58
798.231	48.5
798.407	45.91
798.582	45.53
798.758	57.63
798.934	69.66
799.109	71.87
799.285	64.18
799.46	66.4
799.636	58.02
799.811	51.34
799.986	52.52
800.162	57.25
800.337	59.87
800.513	61.64
800.688	57.33
800.863	67.46
801.039	63.15
801.214	57.62
801.389	59.41
801.565	62.85
801.74	50.07
801.915	60.06
802.09	62.96
802.265	63.83
802.441	58.93
802.616	61.46
802.791	57.16
802.966	58.33
803.141	57.47
803.316	55.53
803.491	62.46
803.666	60.02
803.841	55.69
804.016	50.59
804.191	56.09
804.366	47.54
804.541	52.94
804.716	52.96
804.891	47.85
805.066	50.07
805.241	46.94
805.416	41.74
805.591	37.44
805.765	44.98
805.94	44.33
806.115	44.18
806.29	44.94
806.464	45.06
806.639	37.25
806.814	34.43
806.989	28.62
807.163	34.16
807.338	39.97
807.512	38.9
807.687	25.98
807.862	37.09
808.036	37.36
808.211	39.1
808.385	48.52
808.56	70.21
808.734	82.85
808.909	78.67
809.083	67.39
809.258	67.36
809.432	63.31
809.606	44.28
809.781	42.67
809.955	53.89
810.13	50.66
810.304	44.74
810.478	42.02
810.652	53.95
810.827	52.59
811.001	52.63
811.175	49.71
811.349	55.52
811.524	41.92
811.698	30.18
811.872	32.92
812.046	44.22
812.22	46.6
812.394	52.11
812.568	59.4
812.742	63.12
812.916	49.07
813.09	39.19
813.264	36.59
813.438	39.17
813.612	30.88
813.786	32.18
813.96	41.46
814.134	48.03
814.308	54.99
814.482	65.79
814.656	62.43
814.83	68.46
815.003	61.94
815.177	50.45
815.351	44.4
815.525	46.54
815.698	32.25
815.872	26.38
816.046	15.65
816.219	21.72
816.393	35.35
816.567	46.01
816.74	48.45
816.914	60.37
817.088	60.86
817.261	51.71
817.435	33.59
817.608	35.4
817.782	35.1
817.955	30.32
818.129	22.63
818.302	43.08
818.475	52.05
818.649	44.06
818.822	42.17
818.996	66.32
819.169	58.54
819.342	40.31
819.516	53.18
819.689	54.76
819.862	40.88
820.035	26.69
820.209	30.19
820.382	27.99
820.555	31.23
820.728	18.35
820.901	27.45
821.075	31.82
821.248	35.01
821.421	23.9
821.594	35.36
821.767	60.33
821.94	87.64
822.113	70.7
822.286	69.81
822.459	72.83
822.632	61.27
822.805	21.97
822.978	22.94
823.151	16.91
823.324	0.86
823.496	-20.42
823.669	-24.19
823.842	-14.09
824.015	-37.04
824.188	-52.06
824.361	-34.94
824.533	-27.29
824.706	-20.9
824.879	-3.91
825.051	18.71
825.224	18.05
825.397	18
825.569	6.31
825.742	28.73
825.915	34.67
826.087	40.01
826.26	27.62
826.432	30.63
826.605	24.27
826.777	12.36
826.95	2.78
827.122	-16.05
827.295	-16.11
827.467	-12.42
827.64	-43.33
827.812	-39.29
827.984	-18.09
828.157	-37.15
828.329	-85.84
828.501	-48
828.674	-13.43
828.846	-21.49
829.018	24.21
829.19	34.66
829.363	56.08
829.535	48.34
829.707	50.46
829.879	15.99
830.051	0.84
830.223	-23.68
830.395	-56.95
830.568	-59.03
830.74	-60.88
830.912	-28.95
831.084	-35.86
831.256	-23.42
831.428	-23.32
831.6	-27.79
831.772	-53.02
831.943	-52.69
832.115	-21.99
832.287	-0.65
832.459	16.34
832.631	44.27
832.803	67.04
832.975	96.08
833.146	95.43
833.318	84.21
833.49	66.46
833.662	30.09
833.833	-2.67
834.005	-1.49
834.177	10.93
834.348	8.82
834.52	11.26
834.692	36.38
834.863	25.37
835.035	2.46
835.206	-55.34
835.378	-46.57
835.549	-54.93
835.721	-29.41
835.892	-30.99
836.064	-11.79
836.235	-6.37
836.407	-7.07
836.578	-35.73
836.749	-18.36
836.921	-48.59
837.092	-95.5
837.264	-92.11
837.435	-102.38
837.606	-55.99
837.777	-10.59
837.949	14.33
838.12	25.12
838.291	39.16
838.462	19.99
838.633	-12.77
838.805	-18.01
838.976	-38.6
839.147	-117.37
839.318	-101.1
839.489	-141.43
839.66	-122
839.831	-37.25
840.002	-16.25
840.173	-27.38
840.344	39.29
840.515	12.01
840.686	-174.5
840.857	-137.55
841.028	-90.62
841.199	-85.17
841.369	-44.3
841.54	-23.28
841.711	8.09
841.882	21.14
842.053	10.76
842.223	-20.65
842.394	0.11
842.565	3
842.736	9.09
842.906	17.07
843.077	37.56
843.248	70.95
843.418	67.7
843.589	62.1
843.759	113.59
843.93	94.14
844.101	26.6
844.271	19.12
844.442	26.17
844.612	33.54
844.783	-1.86
844.953	-41.1
845.123	-66.05
845.294	-93.4
845.464	-323.73
845.635	-103.32
845.805	-3.37
845.975	14.06
846.146	-20.23
846.316	-31.62
846.486	-20.63
846.656	12.2
846.827	9.97
846.997	12.31
847.167	26.05
847.337	19.22
847.507	-44.24
847.677	-44.75
847.848	18.01
848.018	29.8
848.188	36.76
848.358	28.09
848.528	11.23
848.698	-41.29
848.868	-145.86
849.038	-295.9
849.208	-122.99
849.378	-90.69
849.548	-52.81
849.718	-30.57
849.887	-4.68
850.057	-12.4
850.227	-48.05
850.397	-97.52
850.567	-230.75
850.737	-622.83
850.906	-1993.13
851.076	-1196.48
851.246	-503.4
851.415	-36.44
851.585	-23.77
851.755	-72.6
851.924	-42.18
852.094	-104.68
852.264	-231.97
852.433	-1374.52
852.603	-250.62
852.772	-227.82
852.942	-66.09
853.111	-82.62
853.281	-57.44
853.45	-7.1
853.62	-69.75
853.789	-85.79
853.959	-78.15
854.128	-21.12
854.297	-82.99
854.467	-98.77
854.636	-96.06
854.805	-27.52
854.975	-67.72
855.144	-105.62
855.313	154.2
855.482	-154.38
855.652	-99.82
855.821	-108.58
855.99	29.96
856.159	22.04
856.328	31.18
856.497	4.29
856.667	6.35
856.836	-25.09
857.005	-79.35
857.174	-117.49
857.343	-145.61
857.512	-49.06
857.681	-74.2
857.85	-102.03
858.019	-62.49
858.188	-52.75
858.356	-99.45
858.525	-179.89
858.694	-133.19
858.863	-243.32
859.032	-175.17
859.201	-237.81
859.369	-116.71
859.538	-94.79
859.707	-49.62
859.876	-56.97
860.044	-33.12
860.213	24.65
860.382	19.73
860.55	3.99
860.719	32.94
860.888	32.75
861.056	-24.82
861.225	-18.84
861.393	42.88
861.562	24.93
861.73	-16.7
861.899	-10.21
862.067	-2363.79
862.236	-177.37
862.404	-343.66
862.572	-185.1
862.741	-58.16
862.909	-8.16
863.078	-104.02
863.246	-73.92
863.414	-93.16
863.582	-59.96
863.751	-98.6
863.919	-93.26
864.087	-11.24
864.255	-6.66
864.424	-282.67
864.592	-19.9
864.76	-57.97
864.928	-298.8
865.096	-225
865.264	-145.96
865.432	-1626.14
865.6	50.25
865.768	-61.46
865.936	-39.63
866.104	-30.4
866.272	-19.22
866.44	-241.54
866.608	375.82
866.776	190.05
866.944	2529.07
867.112	-594.28
867.28	-239.74
867.448	-93.29
867.615	-45.38
867.783	-4.42
867.951	-10.12
868.119	30.54
868.286	-20.63
868.454	-71.66
868.622	-116.35
868.789	-150.56
868.957	-3396.43
869.125	-2909.21
869.292	-239.93
869.46	-338.91
869.627	-48.34
869.795	-58.58
869.963	-3.18
870.13	15.92
870.298	37.16
870.465	-38.43
870.632	-70.51
870.8	-55.23
870.967	-124.03
871.135	-198.51
871.302	-174.78
871.469	-207.41
871.637	-242.88
871.804	-135.37
871.971	-152.67
872.139	-507.21
872.306	-52.06
872.473	-97.97
872.64	-417.81
872.807	-230.36
872.975	-20.35
873.142	-184.91
873.309	1698.65
873.476	27.71
873.643	134.88
873.81	70.18
873.977	83.24
874.144	94.59
874.311	61.06
874.478	-67.37
874.645	-126.38
874.812	-143.88
874.979	-90.43
875.146	-120.12
875.313	-106.88
875.48	2.42
875.647	2.26
875.813	-44.96
875.98	-6.52
876.147	-29.73
876.314	-103.5
876.481	881.4
876.647	-881.46
876.814	322.54
876.981	85.96
877.147	26.59
877.314	38.72
877.481	52.93
877.647	40.22
877.814	-10.05
877.98	-56.46
878.147	-25.35
878.314	15.02
878.48	-47.87
878.647	1.02
878.813	49.58
878.979	28.05
879.146	-16.63
879.312	-8.01
879.479	-70.51
879.645	-163.09
879.811	-311.83
879.978	-608.02
880.144	-135.25
880.31	-79.33
880.477	-301.37
880.643	-374.47
880.809	-136.68
880.975	-126.54
881.142	-923.18
881.308	-98.73
881.474	-13.79
881.64	-73.69
881.806	-146.52
881.972	-35.62
882.138	-36.84
882.304	-82.56
882.47	-167.51
882.636	-606.15
882.802	-275.64
882.968	-99.92
883.134	-56.57
883.3	-63.54
883.466	0.11
883.632	57.46
883.798	27.2
883.964	21.02
884.129	38.58
884.295	40.01
884.461	-40.84
884.627	-32.27
884.793	-78.21
884.958	-26.8
885.124	-94.37
885.29	-206.86
885.455	-417.23
885.621	-73.95
885.787	-170.05
885.952	-94.75
886.118	-52.82
886.283	-33.87
886.449	-135
886.614	-135.27
886.78	-346.73
886.945	1556.56
887.111	-692.77
887.276	-519.03
887.442	-947.73
887.607	-347.41
887.773	-280.41
887.938	-264.36
888.103	-384.98
888.269	-203.77
888.434	-390
888.599	-148.93
888.764	-20.21
888.93	31.27
889.095	-3.15
889.26	-24.08
889.425	10.09
889.59	18.89
889.756	4.02
889.921	-22.54
890.086	8.93
890.251	-5.14
890.416	-166.48
890.581	-1565.32
890.746	245.89
890.911	406.05
891.076	142.95
891.241	-135.45
891.406	53.71
891.571	50.83
891.736	-202.98
891.901	-537.61
892.065	789.56
892.23	198.41
892.395	322.6
892.56	435.69
892.725	-540.23
892.889	-1942.68
893.054	-254.1
893.219	-78.71
893.384	-19.34
893.548	-90.24
893.713	-92.52
893.878	-58.18
