Data from Ofra_PS_T2_1A_2HS27_Reflection_1.txt Node
Date: Wed Jul 21 18:02:39 EDT 2021
User: Adam
Spectrometer: FLMT01687
Trigger mode: 0
Integration Time (sec): 1.100000E0
Scans to average: 2
Electric dark correction enabled: true
Nonlinearity correction enabled: false
Boxcar width: 2
XAxis mode: Wavelengths
Number of Pixels in Spectrum: 3648
>>>>>Begin Spectral Data<<<<<
179.494	573.6
179.716	669.88
179.937	621.17
180.158	641.25
180.38	1059.37
180.601	512.15
180.823	103.58
181.044	-68.25
181.265	-132.35
181.486	-20.91
181.708	23.56
181.929	293.88
182.15	-228.17
182.372	101.35
182.593	-10.45
182.814	29.43
183.035	66.78
183.257	66.62
183.478	-25.53
183.699	57.61
183.92	20.46
184.141	31.82
184.363	-33.84
184.584	44.5
184.805	50.21
185.026	81.17
185.247	68.49
185.468	53.51
185.689	22.92
185.91	27.81
186.132	16.54
186.353	17.24
186.574	86.15
186.795	102.67
187.016	37.38
187.237	7.57
187.458	-11.8
187.679	-41.18
187.9	-30.38
188.121	-8.34
188.342	30
188.563	65.43
188.784	80.76
189.005	48.01
189.226	92.5
189.447	45.05
189.667	-235.92
189.888	-471.43
190.109	-1274.03
190.33	-797.42
190.551	-1154.87
190.772	-240.44
190.993	-191.17
191.214	-191.92
191.434	-122.56
191.655	-31.66
191.876	-57.55
192.097	-91.78
192.318	-159.22
192.538	-272.73
192.759	-221.99
192.98	-105.24
193.201	-33.74
193.421	-7.11
193.642	30.39
193.863	48.93
194.083	37.65
194.304	17.49
194.525	27.25
194.745	20.15
194.966	-13.83
195.187	-40.86
195.407	-42.44
195.628	-109.45
195.848	-128.52
196.069	-80.54
196.29	-8.85
196.51	-63.4
196.731	-27.66
196.951	-0.73
197.172	-74.08
197.392	-159.68
197.613	-127.33
197.833	-183.37
198.054	-153.86
198.274	-83.8
198.495	-84.21
198.715	-42.14
198.936	-43.57
199.156	-39.23
199.377	-131.61
199.597	-92.31
199.817	-115.65
200.038	-36.5
200.258	-73.91
200.479	12.87
200.699	27.56
200.919	76.16
201.14	11.78
201.36	-11.39
201.58	25.12
201.801	46.14
202.021	1.71
202.241	8.82
202.461	15.04
202.682	-76.33
202.902	-158.78
203.122	-81.59
203.342	-70.34
203.563	-32.49
203.783	0.21
204.003	-30.54
204.223	-30.06
204.443	32.66
204.663	28.37
204.884	41.59
205.104	88.82
205.324	113.68
205.544	100.42
205.764	98.52
205.984	91.84
206.204	80.89
206.424	69.79
206.644	54.59
206.864	40.4
207.084	4.9
207.304	-7.01
207.525	-141.56
207.745	-94
207.964	-38.94
208.184	-66.74
208.404	-110.31
208.624	-95.03
208.844	-97.56
209.064	-388.48
209.284	-414.25
209.504	-189.68
209.724	-44.53
209.944	-23.76
210.164	13.23
210.384	32.27
210.604	38.82
210.823	-15.68
211.043	-30.91
211.263	-35.31
211.483	-31.86
211.703	-87.77
211.922	-56.65
212.142	-3.49
212.362	5.13
212.582	-2.28
212.801	17.32
213.021	-8.98
213.241	-9.07
213.461	-41.33
213.68	-77.85
213.9	-79.58
214.12	-44.77
214.339	-105.88
214.559	-79.85
214.779	-18.46
214.998	-15.71
215.218	-58.81
215.438	-10.54
215.657	-9.15
215.877	-1.4
216.096	22.04
216.316	41.71
216.535	22.27
216.755	29.57
216.974	-37.45
217.194	-64.53
217.413	-94.33
217.633	-103.39
217.852	-213.05
218.072	-98.91
218.291	-66.64
218.511	-14.5
218.73	-16.15
218.95	-24.66
219.169	-30
219.389	-68.48
219.608	-61.1
219.827	-63.63
220.047	-31.25
220.266	-6.22
220.485	4.74
220.705	-3.5
220.924	-20.32
221.143	12.68
221.363	-17.54
221.582	-3.23
221.801	18.8
222.021	43.45
222.24	-38.97
222.459	-0.52
222.678	-44.76
222.897	-135.28
223.117	-188.07
223.336	-126.74
223.555	-75.72
223.774	-13.9
223.993	7.55
224.213	64.45
224.432	50.35
224.651	71.32
224.87	42.67
225.089	57.59
225.308	50.12
225.527	60.65
225.746	62.03
225.965	49.56
226.184	19.13
226.404	15.74
226.623	-9.95
226.842	-10.48
227.061	27.88
227.28	37.53
227.499	29.83
227.718	40.29
227.936	34.16
228.155	52.15
228.374	33.87
228.593	41.65
228.812	40.33
229.031	22.77
229.25	-54.67
229.469	-50.72
229.688	-42.69
229.907	8.23
230.125	42.2
230.344	45.32
230.563	41.5
230.782	43.07
231.001	-48.34
231.22	-44.32
231.438	-14.01
231.657	3.2
231.876	-17.59
232.095	37.01
232.313	40.67
232.532	33.36
232.751	13.95
232.969	-2.98
233.188	-72.62
233.407	-29.65
233.625	-13.81
233.844	-23.5
234.063	-18.82
234.281	13.07
234.5	1.21
234.719	-3.59
234.937	16.24
235.156	37.29
235.374	30.83
235.593	19.48
235.811	16.16
236.03	-10.28
236.249	-68.78
236.467	-53.09
236.686	-13.79
236.904	7.71
237.123	-5.4
237.341	9.52
237.559	12.69
237.778	-2.51
237.996	-16.14
238.215	13.94
238.433	8.77
238.652	-2.72
238.87	-19.31
239.088	-13.05
239.307	-27.2
239.525	-35.36
239.743	-60.56
239.962	-35.95
240.18	-52.84
240.398	-77.18
240.617	-67.07
240.835	-34.14
241.053	-11.73
241.271	14.17
241.49	14.36
241.708	-30.78
241.926	-85.88
242.144	-81.41
242.363	-117.3
242.581	-131.88
242.799	-60.32
243.017	-3.01
243.235	-23.88
243.453	-5.14
243.672	-11.78
243.89	-18.45
244.108	-41.88
244.326	-13.07
244.544	-14.06
244.762	4
244.98	23.31
245.198	39.86
245.416	2.25
245.634	-8.55
245.852	-19.2
246.07	-39.32
246.288	-49.59
246.506	-74.77
246.724	-34.11
246.942	-27.71
247.16	6.41
247.378	31.58
247.596	60.88
247.814	51.36
248.032	33.58
248.25	16
248.468	11.86
248.685	20.68
248.903	41.06
249.121	34.43
249.339	18.73
249.557	-6.18
249.775	5.33
249.992	-73.27
250.21	-66.38
250.428	-48.16
250.646	-78.7
250.863	-119.53
251.081	-73.56
251.299	-83.1
251.517	-80.41
251.734	-44.89
251.952	-29.66
252.17	-27.02
252.387	-10.17
252.605	-22.31
252.823	-21.41
253.04	-2.1
253.258	13.75
253.475	-2.22
253.693	24.71
253.911	31.46
254.128	19.87
254.346	19.37
254.563	5.69
254.781	-10.42
254.998	-27.65
255.216	-36.94
255.433	-21.11
255.651	23.21
255.868	17.78
256.086	43.35
256.303	40.95
256.521	29.29
256.738	5.73
256.956	-13.78
257.173	-42.12
257.39	-56.29
257.608	-89.48
257.825	-14.33
258.043	26.64
258.26	27.24
258.477	74.29
258.695	61.05
258.912	-2.08
259.129	-1.26
259.346	-33.55
259.564	-84.7
259.781	-95.19
259.998	-20.54
260.216	6.43
260.433	40.95
260.65	18.37
260.867	29.49
261.084	-6.37
261.302	-37.16
261.519	-52.16
261.736	-46.5
261.953	-55.5
262.17	-21.66
262.387	-44.84
262.604	-49.91
262.822	-55.23
263.039	-51.33
263.256	-90.35
263.473	-56.2
263.69	-38.79
263.907	10.04
264.124	23.28
264.341	17.63
264.558	12.18
264.775	22.11
264.992	13.02
265.209	17.92
265.426	41.56
265.643	43.31
265.86	45.38
266.077	26.91
266.294	16.28
266.51	-35.19
266.727	-37.71
266.944	-32.41
267.161	-34.94
267.378	-36.83
267.595	8.02
267.812	-26.97
268.028	-46.94
268.245	-8.02
268.462	-19.73
268.679	-36.99
268.896	13.31
269.112	9.34
269.329	-5.26
269.546	-3.87
269.763	-6.55
269.979	-8.48
270.196	-1.7
270.413	-13
270.629	-29.77
270.846	-33.63
271.063	-40.6
271.279	-51.84
271.496	-52.17
271.712	-22.67
271.929	-11.04
272.146	-17.04
272.362	-1.36
272.579	35.94
272.795	35.47
273.012	41.59
273.228	46.42
273.445	12.95
273.661	-16
273.878	-47.28
274.094	-53.44
274.311	-87.98
274.527	-4.82
274.744	-17.12
274.96	3.58
275.177	5.12
275.393	20.99
275.609	0.19
275.826	43.99
276.042	23.99
276.259	11.58
276.475	30.37
276.691	38.56
276.908	2.34
277.124	17.82
277.34	23.75
277.557	14.49
277.773	4.11
277.989	9.45
278.205	10.7
278.422	21.8
278.638	17.6
278.854	26.04
279.07	18.92
279.286	2.52
279.503	-38.42
279.719	-48.22
279.935	-72.56
280.151	-92.5
280.367	-59.46
280.583	-58.38
280.799	-53.84
281.016	-62.79
281.232	-12.66
281.448	-16.37
281.664	8.08
281.88	-10.71
282.096	3.89
282.312	11.75
282.528	13.8
282.744	17.8
282.96	21.64
283.176	5.53
283.392	0
283.608	0.58
283.824	-6.37
284.04	-1.63
284.256	12.83
284.471	-3.98
284.687	-16.68
284.903	3.41
285.119	33.29
285.335	11.43
285.551	36.95
285.767	22.7
285.982	0.81
286.198	-46.27
286.414	3.03
286.63	3.5
286.846	32.38
287.061	14.99
287.277	38.68
287.493	14.58
287.709	13.43
287.924	-8.35
288.14	18.34
288.356	25.94
288.571	41.47
288.787	24.06
289.003	23.48
289.218	7.55
289.434	-33.66
289.65	-48.67
289.865	-46.47
290.081	-22.21
290.296	-11.6
290.512	8.53
290.727	-13.65
290.943	-11.06
291.159	-15.08
291.374	-5.62
291.59	-15.76
291.805	2.28
292.021	21.3
292.236	15.3
292.451	24.27
292.667	32.88
292.882	39.51
293.098	17.08
293.313	-3.02
293.529	-45.02
293.744	-62.73
293.959	-53.24
294.175	-35.86
294.39	-0.13
294.605	18.04
294.821	41.99
295.036	44.05
295.251	36.53
295.467	-3.55
295.682	-13.18
295.897	-67.24
296.112	-77.81
296.328	-68.86
296.543	-49.8
296.758	-45
296.973	-6.25
297.188	10.16
297.404	-7.67
297.619	-27.47
297.834	-32.51
298.049	-46.38
298.264	-63.47
298.479	-6.77
298.694	14.67
298.909	26.83
299.125	26.82
299.34	49.79
299.555	9.46
299.77	8.52
299.985	-28.18
300.2	-67.63
300.415	-79.66
300.63	-33.1
300.845	-39.37
301.06	-36.79
301.275	-4.13
301.49	-1.68
301.704	-22.38
301.919	-32.09
302.134	-25.94
302.349	-34.59
302.564	-81.86
302.779	-70.78
302.994	-65.36
303.209	-31.77
303.423	39.01
303.638	81.64
303.853	42.61
304.068	34.47
304.283	21
304.497	1.75
304.712	-22.05
304.927	-3.06
305.142	-4.54
305.356	9.6
305.571	6.31
305.786	10.97
306	-12.61
306.215	1.55
306.43	-19.22
306.644	-28.13
306.859	-15.97
307.074	-5.44
307.288	-40.12
307.503	-59.49
307.717	-60.95
307.932	-59.43
308.147	-66.76
308.361	-24.74
308.576	-29.06
308.79	-53.37
309.005	-43.34
309.219	-11.49
309.434	-38.23
309.648	-28.88
309.863	-1.89
310.077	-6.52
310.292	-12.8
310.506	-6.91
310.72	1.76
310.935	13.97
311.149	5.97
311.364	24.08
311.578	39.78
311.792	36.42
312.007	40.12
312.221	28.47
312.435	31.87
312.649	10.87
312.864	-21.15
313.078	-23.27
313.292	33
313.507	-25.75
313.721	1.22
313.935	57.31
314.149	37.19
314.363	18.98
314.578	27.76
314.792	17.37
315.006	-3.89
315.22	11.89
315.434	12.22
315.648	13.79
315.862	14.5
316.077	16.52
316.291	-5.72
316.505	7.03
316.719	10.4
316.933	-24.12
317.147	-9.79
317.361	-44.8
317.575	-83.53
317.789	-116.64
318.003	-143.31
318.217	-108.07
318.431	-30.5
318.645	15.13
318.859	20.26
319.073	35.86
319.287	22.22
319.5	-4.84
319.714	-39.19
319.928	-59.5
320.142	-72.12
320.356	-14.15
320.57	35.36
320.784	36.37
320.997	38.14
321.211	26.77
321.425	-38.68
321.639	-80.39
321.853	-25.91
322.066	-17.14
322.28	-26.57
322.494	-7.42
322.707	15.03
322.921	-7.86
323.135	-6.29
323.349	14.48
323.562	-4.58
323.776	-24.01
323.989	-3.63
324.203	-12.29
324.417	-16.85
324.63	-25.28
324.844	-21.81
325.057	-38.31
325.271	-18.23
325.485	7.17
325.698	25.35
325.912	34.63
326.125	13.54
326.339	13.47
326.552	-11.32
326.766	-28.14
326.979	-0.97
327.193	39.53
327.406	28.39
327.619	22.14
327.833	37.46
328.046	9.88
328.26	-38.27
328.473	-16.91
328.686	-41.19
328.9	-39.01
329.113	-39.43
329.326	-54.64
329.54	-29.31
329.753	-33.36
329.966	-53.38
330.179	-24.48
330.393	8.97
330.606	0.35
330.819	18.45
331.032	29.55
331.246	27.21
331.459	42.45
331.672	39.99
331.885	28.35
332.098	2.58
332.311	-7.23
332.525	-62.52
332.738	-86.75
332.951	-63.01
333.164	-30.72
333.377	-17.47
333.59	18.72
333.803	24.53
334.016	8.95
334.229	22.15
334.442	15.74
334.655	17.75
334.868	16.23
335.081	18.26
335.294	-11.08
335.507	-13.88
335.72	-32.4
335.933	-32.44
336.146	-29.49
336.359	-38.43
336.572	-73.22
336.785	-86.25
336.997	-74.36
337.21	-47.52
337.423	-29.46
337.636	-9.85
337.849	12.19
338.062	1.89
338.274	2.1
338.487	-9.01
338.7	-7.85
338.913	-51.72
339.125	-71.6
339.338	-133.46
339.551	-105.18
339.763	-72.87
339.976	-25.82
340.189	-11.78
340.402	4.56
340.614	-9.33
340.827	-6.55
341.039	-27.89
341.252	-15.55
341.465	4.7
341.677	4.31
341.89	-44.69
342.102	-21.54
342.315	-36.1
342.527	-80.25
342.74	-64.94
342.952	-6.12
343.165	-13.18
343.377	13.03
343.59	18.42
343.802	40.21
344.015	51.95
344.227	63.78
344.44	57.96
344.652	56.65
344.864	33.09
345.077	28.63
345.289	31.86
345.502	33.84
345.714	23.54
345.926	34.41
346.139	17.33
346.351	22.97
346.563	24.98
346.775	33.99
346.988	13.7
347.2	16.75
347.412	-33.04
347.624	-62.01
347.837	-86.33
348.049	-40.65
348.261	-15.99
348.473	3.73
348.685	10.22
348.897	-1.57
349.11	-14.22
349.322	-50.04
349.534	-36.04
349.746	-24.74
349.958	-15.79
350.17	-44.78
350.382	-0.17
350.594	-9.54
350.806	-4.57
351.018	15.74
351.23	8.07
351.442	-52.96
351.654	-47.35
351.866	-38.42
352.078	-33.6
352.29	-2.03
352.502	25.11
352.714	31.38
352.926	8.98
353.138	12.68
353.35	1.34
353.561	-10.57
353.773	-29.15
353.985	-1.06
354.197	-13.75
354.409	-5.74
354.621	-3.32
354.832	3.94
355.044	-11.5
355.256	-10.9
355.468	-1.1
355.679	-2.78
355.891	3.19
356.103	-4.25
356.314	4.39
356.526	-1.27
356.738	-14.09
356.949	-19.68
357.161	-14.4
357.373	-21.11
357.584	-36.95
357.796	-12.02
358.008	-13.95
358.219	-2.3
358.431	-13.08
358.642	-5.34
358.854	-10.99
359.065	-19.95
359.277	-49.6
359.488	-42.57
359.7	-55.95
359.911	-66.14
360.123	-37.66
360.334	-41.53
360.546	-58.74
360.757	-50.22
360.969	-39.24
361.18	-70.54
361.391	-38.56
361.603	-44.91
361.814	-35.8
362.025	-26.77
362.237	-12.78
362.448	-3.25
362.659	25.16
362.871	16.47
363.082	16.96
363.293	16.82
363.504	-2.32
363.716	-40.29
363.927	-45.95
364.138	-72.09
364.349	-83.14
364.56	-68.13
364.772	-40.99
364.983	-11.41
365.194	-6.66
365.405	4.94
365.616	13.6
365.827	8.67
366.038	-25.37
366.25	-36.28
366.461	-75.56
366.672	-46.61
366.883	-29.66
367.094	-7.39
367.305	-12.82
367.516	4.17
367.727	-25.32
367.938	-34.78
368.149	-43.17
368.36	-14.29
368.571	-17.28
368.781	-23.02
368.992	-38.04
369.203	-60.97
369.414	-90.6
369.625	-100.96
369.836	-83.06
370.047	-98.75
370.258	-67.26
370.468	-63.13
370.679	-71.48
370.89	-71.3
371.101	-39.31
371.312	-43.3
371.522	-38.59
371.733	-25.77
371.944	-9.11
372.155	-7.87
372.365	-12.04
372.576	-15.78
372.787	-8.37
372.997	-35.26
373.208	-36.1
373.419	-5.07
373.629	-33.05
373.84	-51.15
374.05	-47.15
374.261	-35.32
374.472	-58.96
374.682	-7.53
374.893	15.37
375.103	46.65
375.314	35.06
375.524	36.6
375.735	35.86
375.945	28.28
376.156	-1.19
376.366	4.01
376.577	4.91
376.787	-2.56
376.997	-1.01
377.208	-9.13
377.418	-22.9
377.629	-8.51
377.839	-2.56
378.049	-2.16
378.26	18.49
378.47	20.87
378.68	14.53
378.89	10.37
379.101	7.19
379.311	-20.47
379.521	-39.85
379.732	-53.34
379.942	-51.08
380.152	-65.25
380.362	-36.55
380.572	-25.9
380.783	-17.38
380.993	-7.86
381.203	6.42
381.413	22.91
381.623	22.83
381.833	17.37
382.043	5.74
382.253	-5.74
382.463	-13.85
382.674	-12.25
382.884	-26.06
383.094	-26.66
383.304	-15.07
383.514	-6.9
383.724	0.51
383.934	4.35
384.144	-0.44
384.353	-11.38
384.563	-15.04
384.773	-17.98
384.983	-26.76
385.193	-13.66
385.403	-9.3
385.613	-8.58
385.823	-19.17
386.033	-9.78
386.242	-13.81
386.452	-13.65
386.662	-22.91
386.872	-6.01
387.082	-8.44
387.291	-17.69
387.501	-21.58
387.711	-13.23
387.921	-21.57
388.13	-17.17
388.34	0.06
388.55	-2.3
388.759	-5.64
388.969	-1.52
389.179	-6.78
389.388	-11.23
389.598	-3.92
389.807	-9.97
390.017	-15.16
390.227	-11.98
390.436	-14.11
390.646	-16.64
390.855	-8.02
391.065	-6.51
391.274	-8.16
391.484	-9.42
391.693	-7.07
391.903	-8.19
392.112	-1.76
392.322	2.92
392.531	6.23
392.74	7.36
392.95	2.39
393.159	-1.11
393.369	-3.47
393.578	-4.67
393.787	-7.67
393.997	-3.68
394.206	-4.3
394.415	-4.24
394.625	-4.21
394.834	-3.69
395.043	-3
395.252	-1.77
395.462	0.07
395.671	1.26
395.88	1.77
396.089	1.66
396.298	0.08
396.508	-1
396.717	-1.42
396.926	-1.34
397.135	-1.9
397.344	-1.02
397.553	0.26
397.762	1.75
397.971	1.69
398.181	1.96
398.39	1.05
398.599	0.43
398.808	-0.51
399.017	0.23
399.226	1.34
399.435	2.95
399.644	2.63
399.853	1.97
400.062	1.84
400.27	0.96
400.479	0.37
400.688	0.01
400.897	0.45
401.106	0.07
401.315	0.22
401.524	0.11
401.733	0.68
401.941	0.77
402.15	1.06
402.359	0.88
402.568	1.39
402.777	1.48
402.985	1.33
403.194	1.16
403.403	1.37
403.612	0.67
403.82	0.57
404.029	0.86
404.238	0.81
404.446	1.18
404.655	1.09
404.864	1.09
405.072	0.68
405.281	0.82
405.489	0.43
405.698	0.59
405.906	0.55
406.115	0.73
406.324	0.72
406.532	0.9
406.741	1.28
406.949	1.35
407.158	1.31
407.366	1.34
407.574	1.21
407.783	1.11
407.991	0.88
408.2	1.15
408.408	1.14
408.617	1.16
408.825	1.02
409.033	1.16
409.242	1.05
409.45	1.04
409.658	0.96
409.867	1.05
410.075	0.9
410.283	0.77
410.491	0.67
410.7	0.67
410.908	0.69
411.116	1.06
411.324	1.15
411.533	1.16
411.741	1.45
411.949	1.46
412.157	1.07
412.365	1.14
412.573	1.27
412.781	1.13
412.99	0.94
413.198	1.24
413.406	1.19
413.614	1.08
413.822	0.83
414.03	0.94
414.238	0.75
414.446	0.86
414.654	0.73
414.862	1
415.07	1
415.278	1.13
415.486	0.9
415.694	1.07
415.902	0.97
416.109	0.96
416.317	1
416.525	0.97
416.733	0.88
416.941	0.92
417.149	0.83
417.357	0.7
417.564	0.94
417.772	1.27
417.98	1.2
418.188	1.23
418.395	1.33
418.603	1.33
418.811	0.83
419.019	0.77
419.226	0.98
419.434	1.07
419.642	0.75
419.849	0.94
420.057	0.98
420.265	0.87
420.472	0.56
420.68	0.77
420.887	0.71
421.095	0.77
421.302	0.64
421.51	0.96
421.717	1.02
421.925	1.28
422.132	1.24
422.34	1.09
422.547	1.08
422.755	0.95
422.962	0.76
423.17	0.61
423.377	0.8
423.585	0.65
423.792	0.73
423.999	0.73
424.207	0.82
424.414	0.93
424.621	1.01
424.829	1.02
425.036	1.12
425.243	1.22
425.451	1.03
425.658	0.9
425.865	0.88
426.072	0.88
426.28	0.97
426.487	1.01
426.694	1.13
426.901	1.09
427.108	0.99
427.315	0.83
427.523	1.05
427.73	1.09
427.937	1.08
428.144	0.89
428.351	0.85
428.558	1.02
428.765	0.81
428.972	0.72
429.179	1.08
429.386	1.42
429.593	1.1
429.8	0.95
430.007	1.08
430.214	1.03
430.421	0.74
430.628	0.67
430.835	0.73
431.042	0.92
431.249	0.88
431.456	0.81
431.662	0.89
431.869	1.16
432.076	1.11
432.283	1.23
432.49	1.28
432.697	1.28
432.903	0.98
433.11	0.79
433.317	0.78
433.524	1.1
433.73	1.02
433.937	1.25
434.144	1.2
434.35	1.1
434.557	0.79
434.764	0.89
434.97	0.78
435.177	0.97
435.384	0.9
435.59	1.03
435.797	1.14
436.003	1.25
436.21	1.15
436.416	1.27
436.623	1.2
436.829	1.19
437.036	1.26
437.242	1.38
437.449	1.26
437.655	1.28
437.862	1.22
438.068	1.02
438.275	1.06
438.481	1.34
438.687	1.33
438.894	1.27
439.1	1.42
439.307	1.52
439.513	1.25
439.719	1.31
439.926	1.47
440.132	1.47
440.338	1.27
440.544	1.55
440.751	1.53
440.957	1.56
441.163	1.43
441.369	1.52
441.575	1.24
441.782	1.18
441.988	1.01
442.194	1.01
442.4	0.97
442.606	1.27
442.812	1.34
443.018	1.53
443.224	1.64
443.431	1.73
443.637	1.48
443.843	1.41
444.049	1.32
444.255	1.27
444.461	1.24
444.667	1.24
444.873	1.41
445.079	1.43
445.284	1.55
445.49	1.36
445.696	1.24
445.902	1.08
446.108	0.99
446.314	0.85
446.52	0.96
446.726	1.24
446.931	1.24
447.137	1.3
447.343	1.38
447.549	1.24
447.755	1.1
447.96	1.16
448.166	1.14
448.372	1.11
448.578	1.28
448.783	1.29
448.989	1.34
449.195	1.51
449.4	1.56
449.606	1.49
449.812	1.47
450.017	1.53
450.223	1.37
450.428	1.29
450.634	1.38
450.84	1.55
451.045	1.41
451.251	1.33
451.456	1.56
451.662	1.61
451.867	1.56
452.073	1.62
452.278	1.78
452.483	1.75
452.689	1.6
452.894	1.65
453.1	1.63
453.305	1.59
453.51	1.56
453.716	1.53
453.921	1.55
454.127	1.47
454.332	1.42
454.537	1.34
454.742	1.42
454.948	1.33
455.153	1.43
455.358	1.52
455.563	1.61
455.769	1.68
455.974	1.7
456.179	1.59
456.384	1.55
456.589	1.52
456.795	1.34
457	1.34
457.205	1.51
457.41	1.48
457.615	1.38
457.82	1.51
458.025	1.58
458.23	1.5
458.435	1.53
458.64	1.53
458.845	1.65
459.05	1.62
459.255	1.58
459.46	1.58
459.665	1.68
459.87	1.65
460.075	1.57
460.28	1.67
460.485	1.78
460.69	1.75
460.895	1.54
461.099	1.55
461.304	1.65
461.509	1.6
461.714	1.54
461.919	1.71
462.123	1.66
462.328	1.6
462.533	1.52
462.738	1.61
462.942	1.54
463.147	1.57
463.352	1.62
463.556	1.69
463.761	1.7
463.966	1.76
464.17	1.85
464.375	1.64
464.58	1.57
464.784	1.51
464.989	1.42
465.193	1.31
465.398	1.48
465.602	1.63
465.807	1.6
466.011	1.68
466.216	1.83
466.42	1.76
466.625	1.77
466.829	1.92
467.034	1.91
467.238	1.99
467.443	1.99
467.647	1.87
467.851	1.89
468.056	1.9
468.26	1.79
468.464	1.85
468.669	2.03
468.873	2.12
469.077	2.12
469.282	2.24
469.486	2.25
469.69	2.19
469.894	1.93
470.099	1.96
470.303	1.98
470.507	1.9
470.711	1.79
470.915	1.89
471.119	1.89
471.324	1.83
471.528	1.86
471.732	1.96
471.936	1.97
472.14	2.01
472.344	2
472.548	1.99
472.752	2.09
472.956	2.24
473.16	2.22
473.364	2.15
473.568	2.16
473.772	2.14
473.976	2.02
474.18	1.97
474.384	2.06
474.588	2.04
474.792	1.93
474.995	2.07
475.199	2.23
475.403	2.34
475.607	2.36
475.811	2.4
476.015	2.34
476.218	2.35
476.422	2.15
476.626	2.25
476.83	2.32
477.033	2.28
477.237	2.1
477.441	2.21
477.644	2.18
477.848	2.19
478.052	2.18
478.255	2.29
478.459	2.28
478.663	2.41
478.866	2.42
479.07	2.49
479.273	2.63
479.477	2.74
479.681	2.7
479.884	2.61
480.088	2.54
480.291	2.41
480.495	2.35
480.698	2.27
480.901	2.37
481.105	2.49
481.308	2.53
481.512	2.49
481.715	2.57
481.919	2.64
482.122	2.61
482.325	2.59
482.529	2.59
482.732	2.56
482.935	2.42
483.138	2.36
483.342	2.42
483.545	2.52
483.748	2.56
483.952	2.67
484.155	2.84
484.358	2.87
484.561	2.83
484.764	2.76
484.967	2.84
485.171	2.87
485.374	2.82
485.577	2.89
485.78	2.99
485.983	2.97
486.186	2.84
486.389	2.78
486.592	2.76
486.795	2.72
486.998	2.62
487.201	2.7
487.404	2.8
487.607	2.85
487.81	2.91
488.013	2.99
488.216	2.94
488.419	2.89
488.622	2.83
488.825	2.77
489.028	2.77
489.231	2.78
489.433	2.77
489.636	2.73
489.839	2.71
490.042	2.61
490.245	2.63
490.447	2.69
490.65	2.68
490.853	2.73
491.056	2.79
491.258	2.82
491.461	2.8
491.664	2.9
491.866	2.82
492.069	2.93
492.272	2.86
492.474	2.93
492.677	2.95
492.879	3.07
493.082	3.1
493.285	3.24
493.487	3.18
493.69	3.09
493.892	3
494.095	2.89
494.297	2.82
494.5	2.85
494.702	2.91
494.905	3
495.107	3.01
495.309	3.03
495.512	3.08
495.714	3.12
495.917	3.11
496.119	3.16
496.321	3.19
496.524	3.18
496.726	3.18
496.928	3.18
497.13	3.17
497.333	3.14
497.535	3.15
497.737	3.1
497.939	3.1
498.142	3.16
498.344	3.13
498.546	3.02
498.748	3.12
498.95	3.21
499.152	3.15
499.355	3.18
499.557	3.33
499.759	3.42
499.961	3.35
500.163	3.44
500.365	3.49
500.567	3.54
500.769	3.41
500.971	3.42
501.173	3.32
501.375	3.4
501.577	3.23
501.779	3.26
501.981	3.31
502.183	3.39
502.385	3.28
502.587	3.29
502.788	3.37
502.99	3.4
503.192	3.48
503.394	3.44
503.596	3.52
503.798	3.53
503.999	3.52
504.201	3.48
504.403	3.61
504.605	3.63
504.806	3.59
505.008	3.58
505.21	3.62
505.411	3.64
505.613	3.67
505.815	3.66
506.016	3.74
506.218	3.83
506.42	3.76
506.621	3.8
506.823	3.84
507.024	3.79
507.226	3.71
507.427	3.73
507.629	3.73
507.83	3.75
508.032	3.75
508.233	3.79
508.435	3.83
508.636	3.88
508.838	3.79
509.039	3.82
509.24	3.79
509.442	3.82
509.643	3.69
509.845	3.7
510.046	3.78
510.247	3.81
510.448	3.81
510.65	3.9
510.851	4.06
511.052	4.01
511.254	4.01
511.455	4.11
511.656	4.16
511.857	4.21
512.058	4.24
512.26	4.28
512.461	4.22
512.662	4.28
512.863	4.19
513.064	4.16
513.265	4.13
513.466	4.15
513.667	4.07
513.868	4.09
514.069	4.23
514.27	4.3
514.471	4.24
514.672	4.26
514.873	4.23
515.074	4.2
515.275	4.11
515.476	4.14
515.677	4.13
515.878	4.28
516.079	4.26
516.28	4.36
516.481	4.46
516.682	4.55
516.882	4.4
517.083	4.36
517.284	4.24
517.485	4.22
517.686	4.12
517.886	4.17
518.087	4.2
518.288	4.33
518.488	4.29
518.689	4.33
518.89	4.29
519.091	4.34
519.291	4.31
519.492	4.39
519.692	4.44
519.893	4.56
520.094	4.53
520.294	4.53
520.495	4.5
520.695	4.52
520.896	4.5
521.096	4.55
521.297	4.63
521.497	4.62
521.698	4.56
521.898	4.54
522.099	4.5
522.299	4.51
522.499	4.54
522.7	4.57
522.9	4.59
523.101	4.67
523.301	4.67
523.501	4.68
523.702	4.73
523.902	4.81
524.102	4.85
524.302	4.81
524.503	4.85
524.703	4.86
524.903	4.84
525.103	4.74
525.304	4.87
525.504	4.89
525.704	4.95
525.904	4.92
526.104	4.96
526.304	4.88
526.504	4.87
526.705	4.87
526.905	4.99
527.105	5.01
527.305	5.02
527.505	4.95
527.705	4.93
527.905	4.88
528.105	4.91
528.305	4.88
528.505	5.02
528.705	5.09
528.905	5.07
529.105	5.07
529.304	5.16
529.504	5.18
529.704	5.12
529.904	5.12
530.104	5.17
530.304	5.21
530.503	5.2
530.703	5.19
530.903	5.2
531.103	5.2
531.303	5.09
531.502	5.11
531.702	5.22
531.902	5.28
532.101	5.24
532.301	5.27
532.501	5.24
532.7	5.23
532.9	5.23
533.1	5.3
533.299	5.35
533.499	5.39
533.698	5.35
533.898	5.37
534.097	5.37
534.297	5.49
534.496	5.5
534.696	5.57
534.895	5.6
535.095	5.67
535.294	5.6
535.494	5.57
535.693	5.57
535.892	5.59
536.092	5.52
536.291	5.5
536.491	5.57
536.69	5.62
536.889	5.54
537.088	5.54
537.288	5.62
537.487	5.69
537.686	5.66
537.886	5.75
538.085	5.79
538.284	5.86
538.483	5.83
538.682	5.93
538.882	5.95
539.081	5.99
539.28	5.89
539.479	5.86
539.678	5.81
539.877	5.87
540.076	5.88
540.275	5.91
540.474	6.05
540.673	6.09
540.872	6.07
541.071	6.12
541.27	6.16
541.469	6.18
541.668	6.22
541.867	6.25
542.066	6.3
542.265	6.38
542.464	6.3
542.663	6.31
542.862	6.43
543.06	6.47
543.259	6.45
543.458	6.55
543.657	6.63
543.856	6.64
544.054	6.66
544.253	6.68
544.452	6.65
544.651	6.67
544.849	6.62
545.048	6.7
545.247	6.78
545.445	6.88
545.644	6.92
545.843	6.95
546.041	6.95
546.24	7.08
546.438	7.14
546.637	7.2
546.836	7.35
547.034	7.44
547.233	7.38
547.431	7.37
547.63	7.4
547.828	7.4
548.027	7.41
548.225	7.43
548.423	7.5
548.622	7.58
548.82	7.58
549.019	7.62
549.217	7.76
549.415	7.78
549.614	7.85
549.812	7.84
550.01	7.87
550.209	7.92
550.407	8.03
550.605	8.01
550.803	8.19
551.002	8.26
551.2	8.25
551.398	8.36
551.596	8.46
551.794	8.54
551.993	8.62
552.191	8.69
552.389	8.76
552.587	8.85
552.785	8.89
552.983	8.97
553.181	9.1
553.379	9.1
553.577	9.14
553.775	9.28
553.973	9.36
554.171	9.37
554.369	9.43
554.567	9.43
554.765	9.4
554.963	9.43
555.161	9.48
555.359	9.56
555.557	9.74
555.755	9.85
555.952	9.96
556.15	10.04
556.348	10.14
556.546	10.22
556.744	10.25
556.941	10.26
557.139	10.41
557.337	10.5
557.535	10.54
557.732	10.7
557.93	10.93
558.128	10.97
558.325	11.11
558.523	11.21
558.721	11.32
558.918	11.31
559.116	11.46
559.313	11.51
559.511	11.62
559.708	11.64
559.906	11.7
560.104	11.75
560.301	11.76
560.498	11.81
560.696	11.9
560.893	12.04
561.091	12.12
561.288	12.31
561.486	12.4
561.683	12.46
561.88	12.55
562.078	12.69
562.275	12.66
562.473	12.8
562.67	13.05
562.867	13.18
563.064	13.25
563.262	13.37
563.459	13.43
563.656	13.48
563.853	13.47
564.051	13.53
564.248	13.72
564.445	13.83
564.642	13.84
564.839	14.09
565.036	14.35
565.234	14.5
565.431	14.59
565.628	14.74
565.825	14.86
566.022	14.92
566.219	15.03
566.416	15.15
566.613	15.29
566.81	15.33
567.007	15.28
567.204	15.21
567.401	15.24
567.598	15.28
567.795	15.33
567.991	15.46
568.188	15.6
568.385	15.73
568.582	15.8
568.779	15.87
568.976	15.95
569.172	16.09
569.369	16.09
569.566	16.15
569.763	16.19
569.96	16.18
570.156	16.23
570.353	16.25
570.55	16.31
570.746	16.41
570.943	16.5
571.14	16.44
571.336	16.63
571.533	16.73
571.729	16.71
571.926	16.8
572.123	16.98
572.319	16.94
572.516	16.93
572.712	17.06
572.909	17.04
573.105	17.12
573.302	17.16
573.498	17.27
573.695	17.25
573.891	17.4
574.087	17.34
574.284	17.34
574.48	17.29
574.677	17.34
574.873	17.32
575.069	17.39
575.266	17.45
575.462	17.43
575.658	17.61
575.854	17.68
576.051	17.69
576.247	17.68
576.443	17.74
576.639	17.58
576.835	17.48
577.032	17.5
577.228	17.6
577.424	17.68
577.62	17.59
577.816	17.77
578.012	17.8
578.208	17.77
578.404	17.79
578.6	17.99
578.796	17.88
578.993	17.87
579.189	17.9
579.384	17.8
579.58	17.66
579.776	17.63
579.972	17.58
580.168	17.46
580.364	17.5
580.56	17.56
580.756	17.65
580.952	17.62
581.148	17.67
581.343	17.71
581.539	17.69
581.735	17.66
581.931	17.71
582.127	17.73
582.322	17.68
582.518	17.78
582.714	17.78
582.909	17.72
583.105	17.72
583.301	17.7
583.496	17.61
583.692	17.51
583.888	17.51
584.083	17.59
584.279	17.6
584.474	17.61
584.67	17.66
584.866	17.73
585.061	17.59
585.257	17.69
585.452	17.73
585.648	17.65
585.843	17.65
586.039	17.77
586.234	17.69
586.429	17.56
586.625	17.72
586.82	17.71
587.015	17.6
587.211	17.47
587.406	17.56
587.601	17.58
587.797	17.53
587.992	17.52
588.187	17.69
588.383	17.64
588.578	17.59
588.773	17.64
588.968	17.72
589.163	17.76
589.359	17.76
589.554	17.78
589.749	17.82
589.944	17.93
590.139	17.86
590.334	17.92
590.529	17.91
590.724	18.01
590.919	18.02
591.114	18.05
591.309	18.13
591.504	18.23
591.699	18.14
591.894	18.12
592.089	18.11
592.284	18.1
592.479	18.18
592.674	18.12
592.869	18.27
593.064	18.46
593.259	18.61
593.454	18.69
593.648	18.91
593.843	18.87
594.038	18.92
594.233	18.9
594.428	18.89
594.622	18.97
594.817	19.09
595.012	19.16
595.206	19.24
595.401	19.28
595.596	19.35
595.79	19.42
595.985	19.5
596.18	19.66
596.374	19.79
596.569	19.82
596.763	19.83
596.958	19.9
597.153	19.89
597.347	19.92
597.542	20.09
597.736	20.15
597.931	20.17
598.125	20.27
598.319	20.45
598.514	20.37
598.708	20.47
598.903	20.6
599.097	20.65
599.291	20.69
599.486	20.76
599.68	20.78
599.874	20.88
600.069	20.93
600.263	20.96
600.457	21.02
600.651	21.18
600.846	21.14
601.04	21.2
601.234	21.18
601.428	21.31
601.622	21.28
601.817	21.33
602.011	21.4
602.205	21.46
602.399	21.37
602.593	21.38
602.787	21.42
602.981	21.37
603.175	21.44
603.369	21.43
603.563	21.54
603.757	21.64
603.951	21.67
604.145	21.62
604.339	21.68
604.533	21.57
604.727	21.42
604.921	21.44
605.115	21.42
605.309	21.52
605.502	21.49
605.696	21.51
605.89	21.5
606.084	21.48
606.278	21.28
606.471	21.26
606.665	21.16
606.859	21.06
607.053	21
607.246	21.02
607.44	20.92
607.634	20.9
607.827	20.88
608.021	20.8
608.214	20.79
608.408	20.79
608.602	20.72
608.795	20.62
608.989	20.55
609.182	20.43
609.376	20.4
609.569	20.35
609.763	20.31
609.956	20.3
610.15	20.2
610.343	20.03
610.537	20.04
610.73	20
610.923	19.93
611.117	19.96
611.31	20.05
611.504	19.96
611.697	19.79
611.89	19.77
612.083	19.69
612.277	19.61
612.47	19.53
612.663	19.56
612.856	19.5
613.05	19.4
613.243	19.27
613.436	19.13
613.629	18.94
613.822	18.78
614.015	18.74
614.209	18.7
614.402	18.7
614.595	18.74
614.788	18.74
614.981	18.6
615.174	18.46
615.367	18.35
615.56	18.34
615.753	18.24
615.946	18.2
616.139	18.21
616.332	18.25
616.525	18.15
616.718	18.17
616.911	18.18
617.103	18.14
617.296	18.09
617.489	18.03
617.682	17.93
617.875	17.84
618.067	17.74
618.26	17.63
618.453	17.63
618.646	17.68
618.838	17.69
619.031	17.78
619.224	17.79
619.417	17.76
619.609	17.79
619.802	17.72
619.994	17.67
620.187	17.68
620.38	17.59
620.572	17.41
620.765	17.49
620.957	17.33
621.15	17.2
621.342	17.22
621.535	17.33
621.727	17.24
621.92	17.22
622.112	17.13
622.305	17.16
622.497	16.98
622.69	16.95
622.882	16.95
623.074	17.06
623.267	16.89
623.459	16.89
623.651	16.85
623.844	16.91
624.036	16.92
624.228	16.92
624.42	16.89
624.613	16.92
624.805	16.88
624.997	16.82
625.189	16.87
625.381	16.9
625.574	16.82
625.766	16.72
625.958	16.68
626.15	16.69
626.342	16.69
626.534	16.68
626.726	16.7
626.918	16.67
627.11	16.61
627.302	16.52
627.494	16.49
627.686	16.51
627.878	16.43
628.07	16.43
628.262	16.43
628.454	16.44
628.646	16.4
628.838	16.49
629.029	16.38
629.221	16.38
629.413	16.26
629.605	16.17
629.797	16.07
629.989	15.99
630.18	15.91
630.372	15.9
630.564	15.88
630.755	15.87
630.947	16.01
631.139	15.96
631.33	15.82
631.522	15.9
631.714	15.88
631.905	15.73
632.097	15.71
632.289	15.86
632.48	15.81
632.672	15.73
632.863	15.6
633.055	15.6
633.246	15.51
633.438	15.38
633.629	15.4
633.821	15.5
634.012	15.44
634.203	15.31
634.395	15.31
634.586	15.27
634.777	15.18
634.969	15.22
635.16	15.33
635.351	15.28
635.543	15.31
635.734	15.31
635.925	15.24
636.117	15.23
636.308	15.22
636.499	15.11
636.69	15.1
636.881	15.2
637.073	15.26
637.264	15.24
637.455	15.34
637.646	15.44
637.837	15.36
638.028	15.26
638.219	15.36
638.41	15.28
638.601	15.11
638.792	15.16
638.983	15.13
639.174	15.03
639.365	15.05
639.556	15.07
639.747	14.99
639.938	15.07
640.129	15.07
640.32	15.04
640.511	15.08
640.701	15.21
640.892	15.14
641.083	15.2
641.274	15.24
641.465	15.18
641.655	14.99
641.846	14.94
642.037	14.86
642.228	14.77
642.418	14.94
642.609	15
642.8	15.02
642.99	14.94
643.181	14.99
643.372	14.82
643.562	14.78
643.753	14.7
643.943	14.72
644.134	14.6
644.324	14.62
644.515	14.55
644.705	14.68
644.896	14.69
645.086	14.73
645.277	14.65
645.467	14.66
645.658	14.53
645.848	14.51
646.038	14.48
646.229	14.52
646.419	14.43
646.61	14.4
646.8	14.35
646.99	14.33
647.18	14.29
647.371	14.33
647.561	14.29
647.751	14.31
647.941	14.22
648.132	14.21
648.322	14.15
648.512	14.2
648.702	14.2
648.892	14.27
649.082	14.18
649.272	14.12
649.462	13.98
649.653	13.9
649.843	13.77
650.033	13.76
650.223	13.79
650.413	13.78
650.603	13.8
650.793	13.86
650.983	13.81
651.172	13.76
651.362	13.77
651.552	13.65
651.742	13.54
651.932	13.52
652.122	13.47
652.312	13.44
652.502	13.44
652.691	13.47
652.881	13.4
653.071	13.36
653.261	13.15
653.45	12.91
653.64	12.85
653.83	12.77
654.019	12.68
654.209	12.73
654.399	12.78
654.588	12.63
654.778	12.48
654.968	12.35
655.157	12.28
655.347	12.1
655.536	11.96
655.726	11.86
655.915	11.72
656.105	11.52
656.294	11.49
656.484	11.35
656.673	11.23
656.863	11.15
657.052	10.98
657.241	10.77
657.431	10.56
657.62	10.45
657.809	10.1
657.999	9.98
658.188	9.85
658.377	9.67
658.567	9.49
658.756	9.45
658.945	9.33
659.134	9.1
659.324	9.1
659.513	9.03
659.702	8.91
659.891	8.75
660.08	8.67
660.269	8.49
660.458	8.25
660.648	8.07
660.837	7.91
661.026	7.83
661.215	7.7
661.404	7.54
661.593	7.55
661.782	7.4
661.971	7.29
662.16	7.15
662.349	7.12
662.538	6.91
662.726	6.9
662.915	6.68
663.104	6.58
663.293	6.54
663.482	6.57
663.671	6.45
663.86	6.35
664.048	6.28
664.237	6.18
664.426	5.94
664.615	5.9
664.803	5.85
664.992	5.67
665.181	5.5
665.369	5.36
665.558	5.23
665.747	5.19
665.935	5.28
666.124	5.28
666.312	5.33
666.501	5.29
666.69	5.23
666.878	5.14
667.067	5.05
667.255	5.12
667.444	5.32
667.632	5.35
667.82	5.41
668.009	5.4
668.197	5.35
668.386	5.24
668.574	5.27
668.762	5.17
668.951	5.14
669.139	5.1
669.327	5.02
669.516	5.05
669.704	5.05
669.892	5.22
670.08	5.2
670.269	5.04
670.457	4.92
670.645	4.82
670.833	4.89
671.021	4.91
671.21	5.14
671.398	5.36
671.586	5.39
671.774	5.24
671.962	5.31
672.15	5.33
672.338	5.16
672.526	5.24
672.714	5.15
672.902	5.16
673.09	5.21
673.278	5.49
673.466	5.56
673.654	5.81
673.842	5.83
674.03	5.82
674.218	5.62
674.405	5.56
674.593	5.45
674.781	5.54
674.969	5.66
675.157	5.85
675.344	6.03
675.532	6.16
675.72	6.3
675.908	6.31
676.095	6.21
676.283	6.18
676.471	6.4
676.658	6.38
676.846	6.39
677.033	6.6
677.221	6.73
677.409	6.47
677.596	6.58
677.784	6.66
677.971	6.66
678.159	6.73
678.346	6.91
678.534	6.94
678.721	7.17
678.909	7.23
679.096	7.29
679.283	7.55
679.471	7.66
679.658	7.67
679.846	7.84
680.033	8.04
680.22	8.06
680.408	8.04
680.595	8.1
680.782	7.97
680.969	8.11
681.157	8.17
681.344	8.34
681.531	8.41
681.718	8.5
681.905	8.52
682.093	8.7
682.28	8.93
682.467	9.15
682.654	9.39
682.841	9.53
683.028	9.78
683.215	9.86
683.402	9.94
683.589	10.23
683.776	10.35
683.963	10.27
684.15	10.55
684.337	10.7
684.524	10.8
684.711	11.14
684.898	11.34
685.085	11.57
685.271	11.86
685.458	12.04
685.645	12.18
685.832	12.6
686.019	12.84
686.205	13.06
686.392	13.44
686.579	13.8
686.766	14.13
686.952	14.36
687.139	14.98
687.326	15.17
687.512	15.49
687.699	15.82
687.886	16.1
688.072	16.11
688.259	16.73
688.445	17.24
688.632	17.54
688.818	18.38
689.005	18.91
689.191	19.22
689.378	19.88
689.564	20.32
689.751	20.49
689.937	21.01
690.124	21.63
690.31	21.77
690.496	22.48
690.683	23.09
690.869	23.57
691.055	23.99
691.242	24.74
691.428	25.36
691.614	25.89
691.8	26.57
691.987	27.35
692.173	28.02
692.359	28.49
692.545	29.24
692.731	29.84
692.918	30.47
693.104	30.87
693.29	31.66
693.476	32.19
693.662	32.91
693.848	33.49
694.034	34.14
694.22	34.44
694.406	35.14
694.592	35.63
694.778	36.3
694.964	36.99
695.15	37.7
695.336	38.35
695.522	39.13
695.708	39.55
695.894	40.2
696.08	40.87
696.265	41.42
696.451	42.17
696.637	42.96
696.823	43.53
697.009	43.9
697.194	44.28
697.38	44.78
697.566	45.33
697.751	45.8
697.937	46.89
698.123	47.58
698.308	48.07
698.494	48.65
698.68	49.31
698.865	49.68
699.051	50.26
699.236	50.76
699.422	51.07
699.607	51.49
699.793	51.97
699.978	52.47
700.164	52.73
700.349	53.63
700.535	54
700.72	54.13
700.906	54.62
701.091	55.07
701.276	55.13
701.462	55.84
701.647	56.57
701.832	56.89
702.018	57.29
702.203	57.96
702.388	58.03
702.573	58.3
702.759	58.84
702.944	59.44
703.129	59.44
703.314	59.97
703.499	60.28
703.684	60.29
703.87	61.03
704.055	61.75
704.24	62.03
704.425	62.75
704.61	63.57
704.795	63.42
704.98	63.53
705.165	63.89
705.35	63.82
705.535	63.65
705.72	64.14
705.905	64.43
706.09	64.55
706.275	64.88
706.459	65
706.644	64.82
706.829	65.16
707.014	65.42
707.199	65.81
707.384	66.31
707.568	66.86
707.753	67.31
707.938	67.79
708.123	67.57
708.307	67.69
708.492	67.66
708.677	67.7
708.861	67.5
709.046	67.74
709.231	68.51
709.415	69.03
709.6	68.82
709.784	69.17
709.969	69.51
710.153	69.23
710.338	69.07
710.522	69.32
710.707	69.69
710.891	69.91
711.076	70.32
711.26	70.37
711.445	70.65
711.629	70.73
711.813	70.8
711.998	70.66
712.182	70.55
712.366	70.86
712.551	71.52
712.735	71.87
712.919	71.84
713.103	72.6
713.288	72.41
713.472	71.73
713.656	72.21
713.84	72.27
714.024	72.32
714.208	72.21
714.393	72.63
714.577	72.53
714.761	72.88
714.945	72.97
715.129	73.3
715.313	73.21
715.497	72.94
715.681	73.63
715.865	73.58
716.049	73.95
716.233	74.05
716.417	74.3
716.601	73.91
716.785	74.04
716.968	74.41
717.152	74.68
717.336	74.91
717.52	74.73
717.704	74.8
717.888	74.49
718.071	74.61
718.255	74.43
718.439	74.59
718.622	74.83
718.806	75.05
718.99	74.63
719.174	74.79
719.357	75.1
719.541	74.95
719.724	74.92
719.908	76.1
720.092	76.67
720.275	76.61
720.459	76.8
720.642	76.72
720.826	75.82
721.009	75.2
721.193	74.71
721.376	74.67
721.559	74.72
721.743	75.4
721.926	75.77
722.11	76.29
722.293	76.1
722.476	76.31
722.66	75.91
722.843	75.84
723.026	75.33
723.21	75.55
723.393	75.97
723.576	76.21
723.759	75.85
723.942	76.34
724.126	76.15
724.309	75.62
724.492	75.62
724.675	75.99
724.858	76.84
725.041	77.6
725.224	78.31
725.407	78.58
725.59	79.09
725.774	78.02
725.957	77.15
726.14	76.75
726.322	76.76
726.505	76.5
726.688	77.57
726.871	77.97
727.054	78.24
727.237	77.83
727.42	77.97
727.603	77.31
727.786	78.04
727.968	77.83
728.151	78.1
728.334	77.91
728.517	78.57
728.699	78.61
728.882	79.11
729.065	79.61
729.248	80.3
729.43	80.44
729.613	80.86
729.796	80.96
729.978	79.79
730.161	79.34
730.343	78.6
730.526	78.69
730.708	77.62
730.891	78.57
731.073	78.64
731.256	78.64
731.438	78.47
731.621	79.88
731.803	79.98
731.986	79.76
732.168	79.81
732.35	79.53
732.533	79.17
732.715	79.19
732.898	79.89
733.08	80.01
733.262	80.39
733.444	79.74
733.627	79.89
733.809	79.88
733.991	80.96
734.173	80.93
734.355	81.55
734.538	82.32
734.72	82.17
734.902	81.86
735.084	81.55
735.266	81.5
735.448	81.05
735.63	80.98
735.812	80.52
735.994	81.4
736.176	81.86
736.358	81.87
736.54	82.73
736.722	83
736.904	82.35
737.086	81.8
737.268	81.68
737.45	81.49
737.632	81.59
737.814	80.99
737.995	81.47
738.177	81.36
738.359	80.45
738.541	80.89
738.723	81.6
738.904	82.32
739.086	82.23
739.268	83.16
739.449	82.69
739.631	82.18
739.813	82.26
739.994	82.94
740.176	82.86
740.358	82.93
740.539	84.62
740.721	84.02
740.902	84.68
741.084	84.4
741.265	84.53
741.447	84.09
741.628	85.11
741.81	83.82
741.991	84.48
742.172	84.59
742.354	84.21
742.535	82.96
742.717	83.39
742.898	83.56
743.079	84.24
743.261	84.43
743.442	84.95
743.623	85.06
743.804	84.06
743.986	84.49
744.167	82.5
744.348	82.09
744.529	81.91
744.71	82.69
744.891	82.12
745.073	83.19
745.254	83.02
745.435	82.83
745.616	81.46
745.797	81.47
745.978	81.42
746.159	81.75
746.34	82.1
746.521	83.87
746.702	82.29
746.883	82.59
747.064	82.73
747.245	82.42
747.426	81.27
747.606	82.88
747.787	82.67
747.968	81.86
748.149	82.24
748.33	82.91
748.51	82.65
748.691	83.76
748.872	85.33
749.053	85.22
749.233	85.03
749.414	84.21
749.595	82.32
749.775	79.49
749.956	78.82
750.137	78.3
750.317	79.88
750.498	81.68
750.678	83.33
750.859	84.69
751.04	84.47
751.22	82.03
751.4	80.38
751.581	78.37
751.761	77.58
751.942	78.73
752.122	79.2
752.303	79.52
752.483	81.78
752.663	81.42
752.844	78.89
753.024	80.97
753.204	81.19
753.385	79.92
753.565	80.35
753.745	82.04
753.925	80.28
754.106	79.52
754.286	80.19
754.466	80.15
754.646	80.45
754.826	80.65
755.006	80.06
755.187	80.43
755.367	80.7
755.547	81.1
755.727	81.48
755.907	82.86
756.087	83.39
756.267	81.97
756.447	80.71
756.627	78.31
756.807	79.34
756.987	78.01
757.167	79.95
757.346	80.83
757.526	81.46
757.706	80.81
757.886	81.81
758.066	82.2
758.246	83.8
758.425	83.68
758.605	82.84
758.785	83
758.965	82.81
759.144	79.56
759.324	80.83
759.504	81.72
759.683	81.84
759.863	79.32
760.043	79.13
760.222	78.78
760.402	77.73
760.581	77.38
760.761	78.97
760.94	78.54
761.12	80.52
761.299	81.47
761.479	80.48
761.658	79.58
761.838	80.83
762.017	79.41
762.197	79.57
762.376	80.46
762.555	80.74
762.735	80.96
762.914	80.75
763.093	80.24
763.273	78.53
763.452	78.75
763.631	77.72
763.81	76.24
763.99	77.17
764.169	78.92
764.348	77.29
764.527	77.88
764.706	80.24
764.885	79.79
765.064	79.42
765.243	80.11
765.423	81.3
765.602	80.05
765.781	77.91
765.96	76.17
766.139	75.57
766.318	75.79
766.497	74.66
766.676	76.44
766.854	77.76
767.033	77.97
767.212	77.52
767.391	79.14
767.57	78.67
767.749	78.89
767.928	81.13
768.106	78.57
768.285	76.34
768.464	75.7
768.643	74.32
768.821	72.26
769	75.49
769.179	76.41
769.357	74.83
769.536	74.69
769.715	74.43
769.893	74.61
770.072	74.3
770.25	75.68
770.429	78.62
770.607	78.56
770.786	77.39
770.964	78.14
771.143	77.98
771.321	76.21
771.5	78.83
771.678	75.76
771.857	74.1
772.035	74.05
772.213	74.22
772.392	70.68
772.57	74.82
772.748	75.17
772.927	73.98
773.105	72.24
773.283	75.12
773.461	74.39
773.64	74.27
773.818	75.15
773.996	77.58
774.174	75.8
774.352	73.6
774.531	73.36
774.709	76.74
774.887	74.1
775.065	73.07
775.243	73.91
775.421	76.53
775.599	75.18
775.777	74.18
775.955	71.82
776.133	70.31
776.311	68.49
776.489	65.57
776.667	66.87
776.844	69.46
777.022	69.63
777.2	68.91
777.378	70.06
777.556	70.26
777.734	71.17
777.911	72.57
778.089	71.75
778.267	72.07
778.445	71.07
778.622	70.43
778.8	70.67
778.978	71.45
779.155	68.98
779.333	70.7
779.511	71.08
779.688	72.49
779.866	70.16
780.043	70.1
780.221	69.17
780.398	67.52
780.576	66.59
780.753	69.84
780.931	68.89
781.108	69.43
781.286	70.77
781.463	68.15
781.64	66.98
781.818	70.8
781.995	70.95
782.172	71.15
782.35	70.89
782.527	72.86
782.704	69.97
782.882	70.08
783.059	68.66
783.236	71.07
783.413	71.56
783.59	73.84
783.768	70.63
783.945	74.11
784.122	75.23
784.299	74.07
784.476	70.33
784.653	72.73
784.83	69.68
785.007	64.45
785.184	64.73
785.361	66.56
785.538	70.11
785.715	72.76
785.892	73.53
786.069	76.47
786.246	76.54
786.423	73.1
786.6	67.57
786.776	72.44
786.953	68.04
787.13	71.11
787.307	73.04
787.484	75.21
787.66	71.27
787.837	71.3
788.014	68.77
788.191	64.47
788.367	64.23
788.544	66.35
788.721	67.03
788.897	69.37
789.074	73.48
789.25	71.22
789.427	72.72
789.603	71.07
789.78	67.49
789.956	65.68
790.133	67.75
790.309	67.32
790.486	71.17
790.662	71.97
790.839	71.72
791.015	72.89
791.192	69.97
791.368	69.42
791.544	69.69
791.721	68.56
791.897	67.89
792.073	64.98
792.249	58.6
792.426	59.72
792.602	60.43
792.778	61.66
792.954	64.65
793.13	68.16
793.307	65.77
793.483	59.48
793.659	55.94
793.835	60.37
794.011	58.71
794.187	58.81
794.363	64.47
794.539	70.83
794.715	64.46
794.891	65.03
795.067	64.21
795.243	68.52
795.419	64.4
795.595	60.74
795.771	61.6
795.947	65.25
796.122	58.85
796.298	59.42
796.474	65.52
796.65	65.9
796.826	62.45
797.001	62.72
797.177	57.57
797.353	61.08
797.529	62.72
797.704	61.68
797.88	62.82
798.056	65.09
798.231	60.45
798.407	61.14
798.582	66.12
798.758	73.65
798.934	78.09
799.109	74.82
799.285	74.64
799.46	74.57
799.636	68.3
799.811	68.84
799.986	73.98
800.162	76.82
800.337	76.3
800.513	76.43
800.688	77.13
800.863	79.17
801.039	70.91
801.214	69.5
801.389	70.2
801.565	60.53
801.74	47.59
801.915	49.73
802.09	47.9
802.265	55.53
802.441	54.63
802.616	64.29
802.791	66.62
802.966	68.41
803.141	62.69
803.316	60.32
803.491	65.06
803.666	64.8
803.841	55.6
804.016	52.35
804.191	61.32
804.366	46.2
804.541	42.89
804.716	50.39
804.891	52.59
805.066	50.54
805.241	54.69
805.416	56.29
805.591	51.16
805.765	49.33
805.94	52.21
806.115	54.79
806.29	45.38
806.464	46.82
806.639	40.09
806.814	34.68
806.989	25.92
807.163	43.98
807.338	42.85
807.512	48.05
807.687	38.79
807.862	55.61
808.036	53.39
808.211	61.89
808.385	69.14
808.56	83.46
808.734	90.45
808.909	81.62
809.083	71.17
809.258	69.46
809.432	73.92
809.606	56.69
809.781	61.89
809.955	69
810.13	68.35
810.304	53.5
810.478	48.2
810.652	51.88
810.827	49.32
811.001	45.34
811.175	48.06
811.349	54.82
811.524	44.9
811.698	33.09
811.872	39.74
812.046	46.91
812.22	51.8
812.394	52.84
812.568	66.71
812.742	61.65
812.916	49.8
813.09	47.13
813.264	49.41
813.438	55.15
813.612	51.94
813.786	55.47
813.96	60.19
814.134	61.93
814.308	59.79
814.482	68.29
814.656	66.08
814.83	64.18
815.003	64.77
815.177	53.06
815.351	42.46
815.525	47.47
815.698	38.26
815.872	28.41
816.046	23.49
816.219	30.31
816.393	27.43
816.567	29.86
816.74	31.22
816.914	45.31
817.088	43.46
817.261	48.02
817.435	41.84
817.608	53.07
817.782	41.52
817.955	42.62
818.129	34.38
818.302	44.48
818.475	47.63
818.649	44.32
818.822	42.31
818.996	62.02
819.169	59.18
819.342	44.3
819.516	55.84
819.689	49.08
819.862	29.81
820.035	21.01
820.209	20.92
820.382	22.16
820.555	25.56
820.728	20.49
820.901	24.91
821.075	26.62
821.248	25.83
821.421	17.14
821.594	29.46
821.767	49.43
821.94	67.02
822.113	38.05
822.286	38.7
822.459	37.54
822.632	23.61
822.805	7.49
822.978	29.47
823.151	29.36
823.324	19.37
823.496	5.12
823.669	3.42
823.842	3.98
824.015	-3.4
824.188	-7.42
824.361	8.32
824.533	10.04
824.706	21.82
824.879	18.25
825.051	32.86
825.224	29.67
825.397	24.85
825.569	2.83
825.742	38.07
825.915	41.78
826.087	42.72
826.26	30.83
826.432	45.33
826.605	34.05
826.777	23.57
826.95	21.34
827.122	23.62
827.295	34.06
827.467	40.27
827.64	26.09
827.812	18.75
827.984	18
828.157	-12.08
828.329	-49.92
828.501	-21.26
828.674	5.33
828.846	7.06
829.018	28.97
829.19	8.21
829.363	23.11
829.535	17.38
829.707	18.76
829.879	-5.13
830.051	5.04
830.223	-12.56
830.395	-41.71
830.568	-49
830.74	-43.59
830.912	-5.73
831.084	-33.67
831.256	-16.96
831.428	-10.76
831.6	-23.17
831.772	-60.17
831.943	-43.52
832.115	-24.23
832.287	-5.97
832.459	15.1
832.631	26.14
832.803	46.07
832.975	51.57
833.146	30.54
833.318	29.07
833.49	42.16
833.662	27.05
833.833	7.56
834.005	8.97
834.177	14.81
834.348	0.97
834.52	-14.71
834.692	3.83
834.863	8.51
835.035	-28.71
835.206	-65.09
835.378	-25.86
835.549	-35.51
835.721	-37.73
835.892	-23.89
836.064	-14.07
836.235	-29.88
836.407	-14.14
836.578	-16.37
836.749	0
836.921	-19.94
837.092	-54.98
837.264	-66.64
837.435	-66.2
837.606	-27.24
837.777	10.34
837.949	33.61
838.12	30.62
838.291	40.55
838.462	17.44
838.633	-15.11
838.805	-17.03
838.976	1.7
839.147	-93.82
839.318	-85.8
839.489	-93.6
839.66	-79.11
839.831	-50.05
840.002	0.26
840.173	-6.48
840.344	26.29
840.515	22.49
840.686	-55.03
840.857	-45.17
841.028	17.56
841.199	40.29
841.369	-0.32
841.54	1.12
841.711	11.63
841.882	25.36
842.053	-7.49
842.223	-5.19
842.394	13.62
842.565	12.72
842.736	10.19
842.906	8.85
843.077	26.63
843.248	44.69
843.418	40.04
843.589	15.67
843.759	103.47
843.93	55.07
844.101	-5.29
844.271	6.27
844.442	30.67
844.612	31.98
844.783	0.59
844.953	-28.78
845.123	-45.44
845.294	-76.86
845.464	-394.93
845.635	-144.85
845.805	0
845.975	14.52
846.146	-35.66
846.316	-9.54
846.486	-2.83
846.656	14.06
846.827	-0.85
846.997	-8.14
847.167	-1.77
847.337	-15.24
847.507	-80.14
847.677	-52.42
847.848	27.26
848.018	22.83
848.188	31.33
848.358	26.92
848.528	14.01
848.698	-27.12
848.868	-108.41
849.038	-214.92
849.208	-55.82
849.378	-4.62
849.548	10.01
849.718	31.31
849.887	58.09
850.057	40.03
850.227	12.24
850.397	-11.43
850.567	-81.93
850.737	-177.39
850.906	-975
851.076	-878.91
851.246	-364.4
851.415	-8.93
851.585	-9.74
851.755	8.52
851.924	58.63
852.094	55.68
852.264	-29.87
852.433	-677.88
852.603	-155.94
852.772	-133.11
852.942	-78.5
853.111	-61.36
853.281	0.7
853.45	17.48
853.62	-61.91
853.789	-69.29
853.959	-34.92
854.128	-66.93
854.297	-103.21
854.467	-98.57
854.636	-103.49
854.805	-45.39
854.975	-71.03
855.144	-75.62
855.313	-148.95
855.482	-339.42
855.652	-212.32
855.821	-143.9
855.99	11.91
856.159	61.12
856.328	53.25
856.497	28.6
856.667	35.29
856.836	38
857.005	-21.76
857.174	-32
857.343	-24.6
857.512	-26.71
857.681	-82.7
857.85	-119.79
858.019	-40.86
858.188	-54.31
858.356	-50.68
858.525	-102.59
858.694	-62.48
858.863	-147.18
859.032	-67.99
859.201	-110.8
859.369	0
859.538	-22.34
859.707	-43.38
859.876	-86.42
860.044	-139.15
860.213	-48.31
860.382	-54.02
860.55	-31.07
860.719	18.36
860.888	35.22
861.056	26.31
861.225	20.35
861.393	22.17
861.562	12.79
861.73	-0.59
861.899	-15.71
862.067	-900
862.236	12.09
862.404	-168.59
862.572	-116.4
862.741	-54.74
862.909	-37.42
863.078	-150
863.246	-83.18
863.414	-82.11
863.582	-36.41
863.751	-67.94
863.919	-58.12
864.087	-29.17
864.255	-11.03
864.424	-377.69
864.592	-41.58
864.76	-84.5
864.928	-285.6
865.096	-293.31
865.264	-193.26
865.432	-2440.91
865.6	-364.5
865.768	-178.16
865.936	-127.88
866.104	-94.88
866.272	-120
866.44	-314.17
866.608	657.07
866.776	326.16
866.944	3572.09
867.112	-615.25
867.28	-223.83
867.448	-72.41
867.615	-29.47
867.783	-10.55
867.951	-33.72
868.119	-13.37
868.286	-54.71
868.454	-139.6
868.622	-108.83
868.789	-39.47
868.957	-321.43
869.125	-1373.68
869.292	-102.46
869.46	-194.06
869.627	-49.42
869.795	-73.89
869.963	-35.39
870.13	-10.7
870.298	13.95
870.465	-74.79
870.632	-69.26
870.8	-40.04
870.967	-118.24
871.135	-193.53
871.302	-159.04
871.469	-132.08
871.637	-179.36
871.804	-54.6
871.971	-93.68
872.139	-329.3
872.306	-41.45
872.473	-70.68
872.64	-283.26
872.807	-166.56
872.975	1.37
873.142	-291.27
873.309	2100
873.476	20.15
873.643	190.91
873.81	106.24
873.977	144.51
874.144	132.92
874.311	31.06
874.478	-138.81
874.645	-169.2
874.812	-136.36
874.979	-92.81
875.146	-73.22
875.313	-63.76
875.48	36.17
875.647	7.76
875.813	-22.68
875.98	-9.72
876.147	-33.09
876.314	-110.43
876.481	823.14
876.647	-1011.24
876.814	401.04
876.981	58.85
877.147	-44.41
877.314	-17.76
877.481	3.04
877.647	6.9
877.814	-42.91
877.98	-11.34
878.147	43.99
878.314	82.85
878.48	49.1
878.647	65.8
878.813	93.18
878.979	63.84
879.146	16.18
879.312	30.85
879.479	-22.92
879.645	-134.68
879.811	-246.06
879.978	-583.97
880.144	-177.81
880.31	-73.01
880.477	-277.2
880.643	-378.17
880.809	-110.99
880.975	-99.03
881.142	-848.18
881.308	-123.63
881.474	-84.68
881.64	-151.46
881.806	-243.62
881.972	-96.47
882.138	-91.36
882.304	-97.69
882.47	-241.11
882.636	-612.3
882.802	-164.33
882.968	-55.43
883.134	-31.24
883.3	-32.36
883.466	10.57
883.632	34.63
883.798	30.22
883.964	37.54
884.129	74.53
884.295	84.95
884.461	-9.79
884.627	-49.85
884.793	-67.36
884.958	-52.92
885.124	-151.93
885.29	-254.51
885.455	-425.24
885.621	-115.65
885.787	-148.07
885.952	-53.53
886.118	-46.01
886.283	-40.64
886.449	-130.17
886.614	-170.89
886.78	-349.62
886.945	1155.74
887.111	-632.95
887.276	-542.05
887.442	-769.09
887.607	-326.89
887.773	-201.59
887.938	-206.79
888.103	-226.63
888.269	-159.94
888.434	-257.84
888.599	-130.81
888.764	19.92
888.93	11.89
889.095	-0.66
889.26	-30.14
889.425	28.89
889.59	34.49
889.756	23.04
889.921	22.34
890.086	70.22
890.251	47.59
890.416	-69.34
890.581	-629.03
890.746	86.79
890.911	263.69
891.076	160.15
891.241	-333.58
891.406	-50.09
891.571	-113.03
891.736	-382.57
891.901	-926.55
892.065	903.3
892.23	179.1
892.395	266.54
892.56	450
892.725	-536.72
892.889	-1800
893.054	-237.54
893.219	-57.24
893.384	28.9
893.548	-10.5
893.713	-28.85
893.878	7.01
