Data from Ofra_PS_T2_2A_8CX24_Reflection_2.txt Node
Date: Wed Jul 21 17:18:44 EDT 2021
User: Adam
Spectrometer: FLMT01687
Trigger mode: 0
Integration Time (sec): 1.100000E0
Scans to average: 2
Electric dark correction enabled: true
Nonlinearity correction enabled: false
Boxcar width: 2
XAxis mode: Wavelengths
Number of Pixels in Spectrum: 3648
>>>>>Begin Spectral Data<<<<<
179.494	604.4
179.716	653.18
179.937	614.62
180.158	584.37
180.38	885.31
180.601	381.49
180.823	97.57
181.044	-102.13
181.265	11.4
181.486	41.96
181.708	36.84
181.929	594.9
182.15	-300.7
182.372	46.45
182.593	12.37
182.814	19.02
183.035	88.61
183.257	63.06
183.478	21.6
183.699	48.18
183.92	10.38
184.141	-0.45
184.363	-47.18
184.584	0.32
184.805	4.57
185.026	39.17
185.247	47.47
185.468	19.56
185.689	22.62
185.91	22.56
186.132	1.61
186.353	1.62
186.574	72.81
186.795	55.04
187.016	16.85
187.237	19.02
187.458	-21.23
187.679	-52.96
187.9	-24.04
188.121	-9.5
188.342	14.53
188.563	64.28
188.784	98.6
189.005	95.97
189.226	127.65
189.447	98.64
189.667	-86.17
189.888	-297.29
190.109	-1313.64
190.33	-699.03
190.551	-1250.88
190.772	-272.52
190.993	-275.06
191.214	-231.99
191.434	-150.99
191.655	-40.55
191.876	-85.88
192.097	-83.48
192.318	-96
192.538	-195.45
192.759	-179.21
192.98	-61.08
193.201	-21.6
193.421	-12.85
193.642	20.63
193.863	38.86
194.083	16.74
194.304	4.83
194.525	8.1
194.745	-21.83
194.966	-65.58
195.187	-57.91
195.407	-87.48
195.628	-164.48
195.848	-142.78
196.069	-100.64
196.29	-53.95
196.51	-63.13
196.731	-27.71
196.951	-46.1
197.172	-95.05
197.392	-155.72
197.613	-152.71
197.833	-188.57
198.054	-135.2
198.274	-86.47
198.495	-99.39
198.715	-44.47
198.936	-74.77
199.156	-77.71
199.377	-168.46
199.597	-139.88
199.817	-142.29
200.038	-46.25
200.258	-103.77
200.479	-33.04
200.699	-53.09
200.919	-13.98
201.14	-39.55
201.36	-37.34
201.58	23.29
201.801	53.09
202.021	11.55
202.241	1.77
202.461	5.94
202.682	-100.89
202.902	-148.47
203.122	-67.21
203.342	-52.96
203.563	-10
203.783	21.54
204.003	-21.52
204.223	-19.56
204.443	25.91
204.663	-4.62
204.884	17.98
205.104	59.16
205.324	75.42
205.544	75.66
205.764	78.51
205.984	57.6
206.204	56.42
206.424	37.02
206.644	2.1
206.864	10.52
207.084	-25.45
207.304	10.43
207.525	-101.41
207.745	-27.11
207.964	-10.44
208.184	-35.91
208.404	-93.73
208.624	-101.27
208.844	-103.35
209.064	-413.48
209.284	-450.91
209.504	-210.6
209.724	-33.53
209.944	-25.72
210.164	14.95
210.384	27.82
210.604	12.69
210.823	-35.84
211.043	-50.97
211.263	-40.54
211.483	-41.32
211.703	-79.6
211.922	-58.89
212.142	23.24
212.362	58.74
212.582	44.55
212.801	31.72
213.021	6.81
213.241	-33.14
213.461	-100.37
213.68	-127.23
213.9	-77.16
214.12	-51.24
214.339	-104.48
214.559	-62.71
214.779	8.41
214.998	-2.06
215.218	-22.33
215.438	-0.79
215.657	7.16
215.877	-30.52
216.096	-11.72
216.316	-0.04
216.535	2.77
216.755	-5.95
216.974	-71.92
217.194	-125.28
217.413	-136.53
217.633	-133.99
217.852	-247.7
218.072	-107
218.291	-33.7
218.511	1.83
218.73	-31.69
218.95	-18.32
219.169	-19.81
219.389	-77.68
219.608	-59.19
219.827	-45.17
220.047	-33.69
220.266	-24.13
220.485	-16.22
220.705	-4.2
220.924	-26.94
221.143	13.77
221.363	-5.04
221.582	4.4
221.801	17.93
222.021	41.96
222.24	-26.05
222.459	34.51
222.678	11.89
222.897	-71.76
223.117	-113.54
223.336	-61.79
223.555	-65.01
223.774	-9.32
223.993	3.11
224.213	57.2
224.432	22.4
224.651	42.75
224.87	7.65
225.089	10.46
225.308	3.48
225.527	31.79
225.746	40.22
225.965	45.37
226.184	42.15
226.404	39.93
226.623	19.1
226.842	9.1
227.061	28.45
227.28	38.26
227.499	31.01
227.718	34.8
227.936	28.95
228.155	30.17
228.374	-16.86
228.593	-7.65
228.812	-20.75
229.031	-20.72
229.25	-78.88
229.469	-49.42
229.688	-33.72
229.907	10.47
230.125	29.71
230.344	53.08
230.563	56.21
230.782	59.9
231.001	-10.76
231.22	-7.27
231.438	23.31
231.657	25.36
231.876	17.78
232.095	58.28
232.313	63.52
232.532	31.36
232.751	5.22
232.969	-16.73
233.188	-89.23
233.407	-55.87
233.625	-0.94
233.844	-37.28
234.063	-28.87
234.281	-0.59
234.5	1.18
234.719	-8.73
234.937	27.1
235.156	43.76
235.374	44.89
235.593	40.36
235.811	44.57
236.03	35.08
236.249	-6.19
236.467	-25.29
236.686	-7.09
236.904	-4.93
237.123	-25.9
237.341	-22.44
237.559	-7.64
237.778	-17.03
237.996	-43.5
238.215	9.13
238.433	22.23
238.652	28.38
238.87	0.36
239.088	18.46
239.307	9.66
239.525	4.12
239.743	-47.14
239.962	-25.65
240.18	-44.36
240.398	-76.93
240.617	-83.62
240.835	-46.16
241.053	-43.23
241.271	16.53
241.49	21.94
241.708	8.34
241.926	10.72
242.144	12.61
242.363	-45.08
242.581	-58.75
242.799	-0.32
243.017	13.2
243.235	-12.86
243.453	-4.98
243.672	-7.59
243.89	-24.12
244.108	-33.43
244.326	6.91
244.544	9.34
244.762	8.34
244.98	19
245.198	27.99
245.416	-5.88
245.634	-11.92
245.852	-27.64
246.07	-24.48
246.288	-64.34
246.506	-89.83
246.724	-42.77
246.942	-26.86
247.16	1.51
247.378	38.88
247.596	63.76
247.814	43.61
248.032	23.25
248.25	23.4
248.468	11.32
248.685	10.41
248.903	39.08
249.121	45.39
249.339	6.73
249.557	-18.37
249.775	-8.8
249.992	-87.36
250.21	-78.17
250.428	-47.16
250.646	-49.55
250.863	-66.26
251.081	-34.14
251.299	-24.87
251.517	-21.13
251.734	-4.85
251.952	-18.6
252.17	-4.03
252.387	-2.14
252.605	-14.53
252.823	-24.78
253.04	4.02
253.258	22.67
253.475	21.09
253.693	47.97
253.911	54
254.128	40.8
254.346	22.33
254.563	7.5
254.781	-15.05
254.998	-26.96
255.216	-14.98
255.433	8.02
255.651	53.36
255.868	108.94
256.086	124.71
256.303	100.96
256.521	69.47
256.738	34.84
256.956	-15.51
257.173	-57.32
257.39	-58.27
257.608	-85.65
257.825	10.2
258.043	58.04
258.26	69.7
258.477	88.93
258.695	77.6
258.912	7.34
259.129	-5.59
259.346	-40.14
259.564	-93.04
259.781	-94.66
259.998	-34.72
260.216	8.91
260.433	35.52
260.65	42.06
260.867	52.63
261.084	37.15
261.302	1.53
261.519	-1.9
261.736	-26.48
261.953	-45.09
262.17	-16.93
262.387	-51.29
262.604	-86.16
262.822	-82.76
263.039	-67.63
263.256	-130.69
263.473	-66.31
263.69	-35.32
263.907	15.88
264.124	24.32
264.341	34.87
264.558	15.51
264.775	26.5
264.992	-0.24
265.209	-1.89
265.426	20.76
265.643	27.78
265.86	42
266.077	48.6
266.294	50.24
266.51	-4.74
266.727	-29.05
266.944	-24.82
267.161	-48.21
267.378	-45.91
267.595	-5.65
267.812	-16.26
268.028	-45.49
268.245	6.94
268.462	-31.68
268.679	-35.32
268.896	12.59
269.112	21.24
269.329	3.99
269.546	13.6
269.763	3.09
269.979	-3.42
270.196	-3.95
270.413	-24.85
270.629	-30.86
270.846	-34.28
271.063	-43.71
271.279	-76.9
271.496	-77.23
271.712	-42.72
271.929	-34.38
272.146	-25.33
272.362	5.14
272.579	32.15
272.795	45.14
273.012	53.25
273.228	45.25
273.445	10.56
273.661	-11.98
273.878	-68.34
274.094	-59.57
274.311	-85.76
274.527	-15.65
274.744	-0.6
274.96	5.94
275.177	10.37
275.393	28.01
275.609	28.11
275.826	48.25
276.042	48.97
276.259	20.57
276.475	27.62
276.691	21.32
276.908	-13.31
277.124	-5.66
277.34	-5.23
277.557	-23.67
277.773	-26.9
277.989	-27.36
278.205	-38.54
278.422	-0.92
278.638	13.06
278.854	45.2
279.07	55.36
279.286	67.13
279.503	18.2
279.719	-7.09
279.935	-47.74
280.151	-57.06
280.367	-27.67
280.583	-11.48
280.799	-10.43
281.016	-20.39
281.232	9.79
281.448	-2.05
281.664	18.37
281.88	-6.62
282.096	19.41
282.312	26.17
282.528	37.43
282.744	43.55
282.96	63.83
283.176	31.31
283.392	30.07
283.608	30.08
283.824	25.85
284.04	25.1
284.256	48.7
284.471	28.18
284.687	17.01
284.903	26.88
285.119	57.75
285.335	27.4
285.551	51.84
285.767	44.53
285.982	16.78
286.198	-34.13
286.414	22
286.63	15.62
286.846	39.91
287.061	18.19
287.277	39.24
287.493	17.73
287.709	30.85
287.924	4.32
288.14	48.61
288.356	47.09
288.571	45.36
288.787	16.99
289.003	19.19
289.218	-12.46
289.434	-41.29
289.65	-36.58
289.865	-29.59
290.081	-4.62
290.296	15.64
290.512	22.5
290.727	-20.71
290.943	-35.46
291.159	-48.45
291.374	-44.67
291.59	-68.2
291.805	-35.88
292.021	-21.96
292.236	-23.58
292.451	-14.19
292.667	8.05
292.882	16.38
293.098	32.26
293.313	35.26
293.529	3.23
293.744	-25.65
293.959	-29.48
294.175	-41.17
294.39	-11.02
294.605	8.76
294.821	36.86
295.036	36.5
295.251	50.88
295.467	35.94
295.682	27.26
295.897	-23.88
296.112	-29.35
296.328	-36.23
296.543	-60.33
296.758	-45.98
296.973	-2.38
297.188	36.43
297.404	16.15
297.619	6.05
297.834	-14.12
298.049	-27.19
298.264	-80.01
298.479	-23.19
298.694	-5.97
298.909	10.92
299.125	11.7
299.34	19.17
299.555	6.8
299.77	7.9
299.985	-36.41
300.2	-87.24
300.415	-94.6
300.63	-59.05
300.845	-53.99
301.06	-44.03
301.275	-7.57
301.49	10.06
301.704	-18.68
301.919	-35.38
302.134	-36.74
302.349	-35.87
302.564	-98.23
302.779	-88.81
302.994	-50.86
303.209	-10.78
303.423	11.68
303.638	49.04
303.853	1.32
304.068	-22.45
304.283	-17.89
304.497	-30.9
304.712	-33.95
304.927	-6.58
305.142	-1.12
305.356	7.87
305.571	12.44
305.786	-1.86
306	-31.64
306.215	-10.69
306.43	-47.38
306.644	-40.03
306.859	-5.27
307.074	14.29
307.288	-19.43
307.503	-16.64
307.717	-26.8
307.932	-20.79
308.147	-33.5
308.361	-7.98
308.576	-9.44
308.79	-37.98
309.005	-41.32
309.219	-16.34
309.434	-34.86
309.648	-35.71
309.863	-0.81
310.077	-12.01
310.292	-3.09
310.506	-8.67
310.72	8.63
310.935	4.15
311.149	5.22
311.364	11.29
311.578	30.65
311.792	19.67
312.007	31.81
312.221	20.22
312.435	26.86
312.649	5.96
312.864	16.75
313.078	18.49
313.292	71.17
313.507	42.44
313.721	95.59
313.935	61.57
314.149	35.05
314.363	13.62
314.578	13.15
314.792	12.07
315.006	-6.65
315.22	18.76
315.434	27.26
315.648	26.79
315.862	20.13
316.077	26.26
316.291	-4.32
316.505	8.2
316.719	1.9
316.933	-16.68
317.147	-22.89
317.361	-60.57
317.575	-85.79
317.789	-98.46
318.003	-155.22
318.217	-124.03
318.431	-25.76
318.645	22.85
318.859	6.47
319.073	28.45
319.287	15.13
319.5	-17.29
319.714	-73.66
319.928	-98.29
320.142	-129.56
320.356	-63.83
320.57	-13.04
320.784	-33.63
320.997	-31.38
321.211	-7.35
321.425	-51.98
321.639	-94.09
321.853	-32.83
322.066	-15.77
322.28	-19.05
322.494	-15.23
322.707	13.41
322.921	11.15
323.135	11.3
323.349	25.15
323.562	-11.18
323.776	-27.74
323.989	-30.74
324.203	-49.57
324.417	-69.86
324.63	-76.71
324.844	-75.68
325.057	-77.08
325.271	-48.51
325.485	-10.77
325.698	10.24
325.912	22.92
326.125	4.91
326.339	4.67
326.552	-17.11
326.766	-18.6
326.979	-7.97
327.193	25.82
327.406	-0.89
327.619	-9.2
327.833	18.71
328.046	-12.69
328.26	-39
328.473	-11.99
328.686	-12.54
328.9	-11.88
329.113	19.78
329.326	6.42
329.54	45.99
329.753	26.5
329.966	-13.97
330.179	-27.79
330.393	-9.2
330.606	-32.23
330.819	-12.28
331.032	15
331.246	20.13
331.459	46.21
331.672	39.2
331.885	38.28
332.098	0.73
332.311	-4.41
332.525	-62.79
332.738	-44
332.951	-12.25
333.164	34.55
333.377	39.2
333.59	52.38
333.803	53.07
334.016	46.65
334.229	36.76
334.442	43.69
334.655	66.46
334.868	66.95
335.081	47.34
335.294	34.65
335.507	21.07
335.72	11.43
335.933	3.22
336.146	-2.12
336.359	1.17
336.572	-15.08
336.785	-50.49
336.997	-39.39
337.21	-6.34
337.423	-3.52
337.636	1.03
337.849	23.02
338.062	13.18
338.274	18.55
338.487	10.67
338.7	15.87
338.913	-7.2
339.125	-24.84
339.338	-83.9
339.551	-75.54
339.763	-44.76
339.976	-28.41
340.189	-17.01
340.402	1.87
340.614	4.29
340.827	-2.26
341.039	-11.9
341.252	3.34
341.465	3.58
341.677	13.77
341.89	-13.25
342.102	15.95
342.315	10.82
342.527	-14.44
342.74	-34.55
342.952	-4.4
343.165	-10.51
343.377	-3.13
343.59	8.05
343.802	36.34
344.015	41.69
344.227	36.08
344.44	31.23
344.652	36.59
344.864	19.43
345.077	28.27
345.289	38.84
345.502	37.09
345.714	22.51
345.926	19.39
346.139	-2.65
346.351	-0.85
346.563	11.22
346.775	22.3
346.988	17.55
347.2	11.51
347.412	-32.51
347.624	-53.24
347.837	-52.33
348.049	-38.55
348.261	-3.11
348.473	8.54
348.685	-1.96
348.897	-23.08
349.11	-36.86
349.322	-52.84
349.534	-41.81
349.746	-21.06
349.958	-4.26
350.17	-6.89
350.382	0.84
350.594	-10.43
350.806	-10.4
351.018	-4.99
351.23	-11.53
351.442	-67.33
351.654	-59.24
351.866	-57.16
352.078	-50.79
352.29	-11.85
352.502	18.47
352.714	14.71
352.926	1.61
353.138	2.34
353.35	-22.29
353.561	-29.89
353.773	-42.95
353.985	-22.7
354.197	-30.38
354.409	-24.37
354.621	-30.73
354.832	-14.44
355.044	-23.81
355.256	-22.65
355.468	-11.07
355.679	-13.3
355.891	-1.47
356.103	-11.53
356.314	-0.63
356.526	11.21
356.738	47.83
356.949	26.55
357.161	43.16
357.373	30.1
357.584	18.61
357.796	16.56
358.008	21.9
358.219	30.13
358.431	23.98
358.642	21.05
358.854	12.09
359.065	-1.77
359.277	-35.82
359.488	-49.13
359.7	-59.8
359.911	-84.45
360.123	-53.24
360.334	-55.29
360.546	-53.31
360.757	-52.32
360.969	-38.49
361.18	-37.22
361.391	-17.96
361.603	-35.24
361.814	-26.84
362.025	-20.45
362.237	-32.24
362.448	-18.16
362.659	15.36
362.871	7.53
363.082	1.83
363.293	11
363.504	-2.34
363.716	-20.83
363.927	-17.59
364.138	-28.72
364.349	-42.89
364.56	-36.71
364.772	-36.43
364.983	-8.57
365.194	-9.4
365.405	7.28
365.616	24.69
365.827	32.32
366.038	6.55
366.25	17.38
366.461	-8.61
366.672	-0.2
366.883	4.77
367.094	18.25
367.305	5.42
367.516	17
367.727	-14.53
367.938	-24
368.149	-34.5
368.36	-15.69
368.571	-11.97
368.781	-8
368.992	-16.87
369.203	-30.28
369.414	-59.78
369.625	-70.68
369.836	-68.02
370.047	-96.54
370.258	-76.23
370.468	-60.47
370.679	-61.59
370.89	-61.56
371.101	-24.32
371.312	-29.17
371.522	-27.72
371.733	-26.34
371.944	-4.17
372.155	-6.43
372.365	-13.22
372.576	-20.79
372.787	-27.57
372.997	-62.96
373.208	-52.95
373.419	-11.86
373.629	-24.73
373.84	-20.55
374.05	-24.96
374.261	-20.48
374.472	-57.25
374.682	-3.52
374.893	0.7
375.103	27.82
375.314	17.98
375.524	13.83
375.735	-0.9
375.945	9.52
376.156	-13.36
376.366	-7.47
376.577	3.18
376.787	-6.41
376.997	-12.98
377.208	-4.18
377.418	-20.28
377.629	-16.1
377.839	-10.27
378.049	-7.93
378.26	3.87
378.47	13.02
378.68	4.74
378.89	1.81
379.101	-1.09
379.311	-31.75
379.521	-54.92
379.732	-47.05
379.942	-51.52
380.152	-74.43
380.362	-37.57
380.572	-34.36
380.783	-23.74
380.993	-4.56
381.203	11.67
381.413	21.52
381.623	38.33
381.833	27.95
382.043	2.59
382.253	-8.15
382.463	-7.13
382.674	-25.43
382.884	-39.64
383.094	-27.37
383.304	-19.05
383.514	-23.4
383.724	-5.16
383.934	-5.02
384.144	-19.23
384.353	-26.23
384.563	-26.22
384.773	-27.07
384.983	-36.29
385.193	-15.72
385.403	-10.46
385.613	-9.65
385.823	-18.24
386.033	-7.55
386.242	-12.48
386.452	-15.51
386.662	-24.02
386.872	-12.85
387.082	-19.67
387.291	-28.18
387.501	-24.74
387.711	-14.42
387.921	-21.44
388.13	-19.64
388.34	1.38
388.55	-4.09
388.759	1.07
388.969	7.84
389.179	9.05
389.388	-1.53
389.598	6.93
389.807	-5.31
390.017	-11.95
390.227	-9.44
390.436	-10.47
390.646	-12.14
390.855	-4.94
391.065	-4.34
391.274	-5.93
391.484	-8.16
391.693	-5.6
391.903	-4.67
392.112	2.08
392.322	5.81
392.531	11.18
392.74	9.45
392.95	2.82
393.159	0.17
393.369	-0.41
393.578	-2.58
393.787	-2.67
393.997	0.86
394.206	-1.88
394.415	-2.65
394.625	-1.88
394.834	-4.04
395.043	-3.43
395.252	0.46
395.462	2.87
395.671	3.38
395.88	5.23
396.089	5.47
396.298	3.07
396.508	1.3
396.717	0.88
396.926	1.34
397.135	1.03
397.344	1.12
397.553	2.1
397.762	3.25
397.971	2.98
398.181	2.69
398.39	2.1
398.599	1.74
398.808	1.56
399.017	2.63
399.226	4.11
399.435	5.59
399.644	5.78
399.853	4.72
400.062	3.88
400.27	3.49
400.479	2.57
400.688	1.41
400.897	2.03
401.106	2.05
401.315	1.31
401.524	1.58
401.733	2.44
401.941	2.81
402.15	2.96
402.359	3.08
402.568	3.55
402.777	3.71
402.985	3.25
403.194	3.2
403.403	3.32
403.612	2.78
403.82	2.61
404.029	3
404.238	2.78
404.446	3.06
404.655	2.97
404.864	2.99
405.072	2.71
405.281	2.95
405.489	2.62
405.698	2.77
405.906	2.68
406.115	2.64
406.324	2.62
406.532	2.92
406.741	3.1
406.949	3.12
407.158	3.16
407.366	2.97
407.574	2.75
407.783	2.73
407.991	2.46
408.2	2.6
408.408	2.65
408.617	2.67
408.825	2.4
409.033	2.59
409.242	2.57
409.45	2.68
409.658	2.45
409.867	2.64
410.075	2.54
410.283	2.4
410.491	2.27
410.7	2.28
410.908	2.31
411.116	2.69
411.324	2.61
411.533	2.58
411.741	2.89
411.949	2.86
412.157	2.45
412.365	2.54
412.573	2.64
412.781	2.57
412.99	2.45
413.198	2.72
413.406	2.68
413.614	2.57
413.822	2.45
414.03	2.37
414.238	2.16
414.446	2.3
414.654	2.18
414.862	2.14
415.07	2.28
415.278	2.44
415.486	2.13
415.694	2.29
415.902	2.19
416.109	2.04
416.317	1.94
416.525	1.91
416.733	1.89
416.941	2.14
417.149	2.21
417.357	2.16
417.564	2.3
417.772	2.49
417.98	2.41
418.188	2.38
418.395	2.55
418.603	2.7
418.811	2.34
419.019	2.27
419.226	2.62
419.434	2.59
419.642	2.35
419.849	2.55
420.057	2.51
420.265	2.22
420.472	1.88
420.68	2.04
420.887	1.92
421.095	1.93
421.302	1.87
421.51	2.29
421.717	2.34
421.925	2.39
422.132	2.32
422.34	2.23
422.547	2.25
422.755	2.14
422.962	2.13
423.17	2.07
423.377	2.23
423.585	2.11
423.792	1.91
423.999	1.86
424.207	1.86
424.414	1.87
424.621	1.73
424.829	1.79
425.036	1.79
425.243	1.92
425.451	1.76
425.658	1.63
425.865	1.87
426.072	1.97
426.28	2.12
426.487	2.23
426.694	2.42
426.901	2.15
427.108	2.11
427.315	1.99
427.523	2.15
427.73	2.13
427.937	2.09
428.144	1.96
428.351	1.95
428.558	1.91
428.765	1.73
428.972	1.72
429.179	1.92
429.386	2.14
429.593	1.92
429.8	1.97
430.007	2.24
430.214	2.18
430.421	1.9
430.628	1.79
430.835	1.76
431.042	1.8
431.249	1.83
431.456	1.93
431.662	2.14
431.869	2.35
432.076	2.26
432.283	2.42
432.49	2.37
432.697	2.43
432.903	2.21
433.11	2.17
433.317	2.13
433.524	2.38
433.73	2.25
433.937	2.56
434.144	2.49
434.35	2.5
434.557	2.23
434.764	2.3
434.97	2.12
435.177	2.34
435.384	2.17
435.59	2.39
435.797	2.64
436.003	2.85
436.21	2.78
436.416	2.94
436.623	2.84
436.829	2.71
437.036	2.63
437.242	2.65
437.449	2.59
437.655	2.69
437.862	2.66
438.068	2.65
438.275	2.72
438.481	3
438.687	2.86
438.894	2.86
439.1	2.85
439.307	3
439.513	2.78
439.719	2.86
439.926	2.98
440.132	2.97
440.338	2.94
440.544	3.11
440.751	3.08
440.957	3.1
441.163	3
441.369	2.97
441.575	2.69
441.782	2.71
441.988	2.54
442.194	2.57
442.4	2.49
442.606	2.72
442.812	2.82
443.018	3.01
443.224	3.08
443.431	3.17
443.637	3.05
443.843	2.8
444.049	2.78
444.255	2.76
444.461	2.78
444.667	2.68
444.873	2.91
445.079	2.97
445.284	3.07
445.49	2.78
445.696	2.68
445.902	2.54
446.108	2.4
446.314	2.27
446.52	2.45
446.726	2.77
446.931	2.86
447.137	2.89
447.343	3.05
447.549	2.94
447.755	2.76
447.96	2.8
448.166	2.75
448.372	2.63
448.578	2.72
448.783	2.81
448.989	2.92
449.195	3.08
449.4	3.15
449.606	3.09
449.812	2.93
450.017	2.87
450.223	2.71
450.428	2.6
450.634	2.8
450.84	3.01
451.045	2.94
451.251	2.95
451.456	3.24
451.662	3.22
451.867	3.25
452.073	3.23
452.278	3.29
452.483	3.31
452.689	3.19
452.894	3.2
453.1	3.17
453.305	3.12
453.51	3.01
453.716	3.06
453.921	2.97
454.127	3.02
454.332	3
454.537	2.84
454.742	2.81
454.948	2.85
455.153	2.89
455.358	2.98
455.563	3.21
455.769	3.29
455.974	3.26
456.179	3.16
456.384	3.11
456.589	3.02
456.795	2.83
457	2.84
457.205	3.04
457.41	3.07
457.615	3.04
457.82	3.13
458.025	3.16
458.23	2.97
458.435	3.03
458.64	2.91
458.845	3.05
459.05	3.03
459.255	3.09
459.46	3.09
459.665	3.25
459.87	3.16
460.075	3.13
460.28	3.14
460.485	3.12
460.69	3.07
460.895	2.94
461.099	2.98
461.304	3.09
461.509	3.13
461.714	3.04
461.919	3.21
462.123	3.18
462.328	3.11
462.533	3.02
462.738	3.12
462.942	2.97
463.147	3.04
463.352	3.1
463.556	3.15
463.761	3.2
463.966	3.28
464.17	3.2
464.375	3.06
464.58	3.02
464.784	2.92
464.989	2.86
465.193	2.94
465.398	3
465.602	3.14
465.807	3.1
466.011	3.26
466.216	3.28
466.42	3.31
466.625	3.3
466.829	3.43
467.034	3.4
467.238	3.5
467.443	3.47
467.647	3.38
467.851	3.47
468.056	3.56
468.26	3.42
468.464	3.41
468.669	3.51
468.873	3.58
469.077	3.55
469.282	3.64
469.486	3.66
469.69	3.68
469.894	3.48
470.099	3.55
470.303	3.64
470.507	3.66
470.711	3.51
470.915	3.53
471.119	3.4
471.324	3.33
471.528	3.34
471.732	3.45
471.936	3.47
472.14	3.53
472.344	3.57
472.548	3.62
472.752	3.79
472.956	4.03
473.16	3.97
473.364	3.84
473.568	3.79
473.772	3.73
473.976	3.57
474.18	3.57
474.384	3.64
474.588	3.59
474.792	3.53
474.995	3.62
475.199	3.66
475.403	3.72
475.607	3.78
475.811	3.72
476.015	3.73
476.218	3.83
476.422	3.68
476.626	3.79
476.83	3.93
477.033	3.85
477.237	3.7
477.441	3.75
477.644	3.69
477.848	3.61
478.052	3.55
478.255	3.67
478.459	3.75
478.663	3.9
478.866	4.01
479.07	4.05
479.273	4.13
479.477	4.14
479.681	4.05
479.884	3.95
480.088	3.96
480.291	3.88
480.495	3.9
480.698	3.89
480.901	3.98
481.105	4.11
481.308	4.12
481.512	4.02
481.715	4.05
481.919	4.03
482.122	3.94
482.325	3.92
482.529	3.98
482.732	4.04
482.935	3.96
483.138	3.9
483.342	4.01
483.545	4.1
483.748	4.08
483.952	4.14
484.155	4.31
484.358	4.26
484.561	4.21
484.764	4.16
484.967	4.21
485.171	4.27
485.374	4.21
485.577	4.28
485.78	4.35
485.983	4.36
486.186	4.18
486.389	4.22
486.592	4.17
486.795	4.18
486.998	4.11
487.201	4.19
487.404	4.27
487.607	4.32
487.81	4.35
488.013	4.46
488.216	4.46
488.419	4.46
488.622	4.4
488.825	4.33
489.028	4.22
489.231	4.14
489.433	4.09
489.636	4.04
489.839	4.05
490.042	4.04
490.245	4.06
490.447	4.14
490.65	4.19
490.853	4.17
491.056	4.23
491.258	4.31
491.461	4.29
491.664	4.35
491.866	4.31
492.069	4.38
492.272	4.26
492.474	4.3
492.677	4.3
492.879	4.37
493.082	4.47
493.285	4.68
493.487	4.61
493.69	4.54
493.892	4.47
494.095	4.38
494.297	4.28
494.5	4.29
494.702	4.35
494.905	4.47
495.107	4.42
495.309	4.45
495.512	4.55
495.714	4.54
495.917	4.52
496.119	4.52
496.321	4.56
496.524	4.52
496.726	4.54
496.928	4.55
497.13	4.55
497.333	4.51
497.535	4.57
497.737	4.58
497.939	4.6
498.142	4.64
498.344	4.63
498.546	4.5
498.748	4.54
498.95	4.64
499.152	4.66
499.355	4.71
499.557	4.84
499.759	4.92
499.961	4.84
500.163	4.91
500.365	4.94
500.567	4.96
500.769	4.87
500.971	4.88
501.173	4.75
501.375	4.73
501.577	4.63
501.779	4.63
501.981	4.68
502.183	4.75
502.385	4.75
502.587	4.72
502.788	4.79
502.99	4.77
503.192	4.81
503.394	4.82
503.596	4.88
503.798	4.91
503.999	4.96
504.201	4.98
504.403	5.01
504.605	5.04
504.806	5
505.008	4.97
505.21	5.05
505.411	5.02
505.613	5.02
505.815	5.04
506.016	5.1
506.218	5.13
506.42	5.15
506.621	5.15
506.823	5.19
507.024	5.16
507.226	5.06
507.427	5.06
507.629	5.15
507.83	5.14
508.032	5.2
508.233	5.31
508.435	5.38
508.636	5.41
508.838	5.39
509.039	5.38
509.24	5.33
509.442	5.33
509.643	5.25
509.845	5.28
510.046	5.36
510.247	5.37
510.448	5.38
510.65	5.46
510.851	5.58
511.052	5.52
511.254	5.56
511.455	5.67
511.656	5.75
511.857	5.77
512.058	5.8
512.26	5.78
512.461	5.68
512.662	5.68
512.863	5.53
513.064	5.52
513.265	5.58
513.466	5.66
513.667	5.63
513.868	5.73
514.069	5.86
514.27	5.89
514.471	5.79
514.672	5.77
514.873	5.73
515.074	5.7
515.275	5.58
515.476	5.66
515.677	5.72
515.878	5.86
516.079	5.83
516.28	5.92
516.481	6.03
516.682	6.06
516.882	5.9
517.083	5.94
517.284	5.88
517.485	5.81
517.686	5.72
517.886	5.77
518.087	5.77
518.288	5.86
518.488	5.81
518.689	5.85
518.89	5.86
519.091	5.88
519.291	5.86
519.492	5.96
519.692	6.06
519.893	6.15
520.094	6.15
520.294	6.14
520.495	6.09
520.695	6.07
520.896	6.05
521.096	6.08
521.297	6.13
521.497	6.14
521.698	6.09
521.898	6.05
522.099	6.07
522.299	6.11
522.499	6.16
522.7	6.23
522.9	6.24
523.101	6.24
523.301	6.23
523.501	6.2
523.702	6.22
523.902	6.3
524.102	6.37
524.302	6.36
524.503	6.39
524.703	6.35
524.903	6.35
525.103	6.27
525.304	6.36
525.504	6.44
525.704	6.56
525.904	6.55
526.104	6.58
526.304	6.54
526.504	6.52
526.705	6.48
526.905	6.56
527.105	6.57
527.305	6.57
527.505	6.5
527.705	6.5
527.905	6.48
528.105	6.51
528.305	6.48
528.505	6.59
528.705	6.64
528.905	6.61
529.105	6.6
529.304	6.7
529.504	6.77
529.704	6.71
529.904	6.71
530.104	6.77
530.304	6.81
530.503	6.71
530.703	6.67
530.903	6.71
531.103	6.71
531.303	6.68
531.502	6.74
531.702	6.84
531.902	6.88
532.101	6.87
532.301	6.85
532.501	6.93
532.7	6.95
532.9	6.97
533.1	6.98
533.299	7.04
533.499	6.99
533.698	6.95
533.898	6.91
534.097	6.96
534.297	7
534.496	7.01
534.696	7.04
534.895	7.16
535.095	7.26
535.294	7.22
535.494	7.17
535.693	7.24
535.892	7.24
536.092	7.11
536.291	7.12
536.491	7.24
536.69	7.27
536.889	7.19
537.088	7.23
537.288	7.31
537.487	7.35
537.686	7.34
537.886	7.43
538.085	7.5
538.284	7.59
538.483	7.55
538.682	7.6
538.882	7.64
539.081	7.71
539.28	7.61
539.479	7.64
539.678	7.63
539.877	7.72
540.076	7.75
540.275	7.79
540.474	7.9
540.673	7.92
540.872	7.87
541.071	7.84
541.27	7.9
541.469	7.92
541.668	7.95
541.867	7.98
542.066	8.07
542.265	8.13
542.464	8.06
542.663	8.09
542.862	8.21
543.06	8.23
543.259	8.25
543.458	8.35
543.657	8.42
543.856	8.4
544.054	8.41
544.253	8.39
544.452	8.39
544.651	8.44
544.849	8.43
545.048	8.54
545.247	8.64
545.445	8.75
545.644	8.75
545.843	8.74
546.041	8.73
546.24	8.78
546.438	8.88
546.637	8.94
546.836	9.15
547.034	9.21
547.233	9.26
547.431	9.2
547.63	9.25
547.828	9.24
548.027	9.31
548.225	9.29
548.423	9.35
548.622	9.43
548.82	9.43
549.019	9.47
549.217	9.63
549.415	9.72
549.614	9.78
549.812	9.85
550.01	9.87
550.209	9.86
550.407	9.95
550.605	9.93
550.803	10.06
551.002	10.18
551.2	10.29
551.398	10.36
551.596	10.53
551.794	10.52
551.993	10.56
552.191	10.59
552.389	10.68
552.587	10.7
552.785	10.81
552.983	10.9
553.181	11.04
553.379	11.08
553.577	11.1
553.775	11.21
553.973	11.3
554.171	11.39
554.369	11.4
554.567	11.48
554.765	11.49
554.963	11.52
555.161	11.48
555.359	11.61
555.557	11.85
555.755	11.92
555.952	12.07
556.15	12.15
556.348	12.26
556.546	12.28
556.744	12.33
556.941	12.37
557.139	12.52
557.337	12.52
557.535	12.47
557.732	12.62
557.93	12.8
558.128	12.85
558.325	12.99
558.523	13.09
558.721	13.21
558.918	13.22
559.116	13.31
559.313	13.33
559.511	13.5
559.708	13.5
559.906	13.53
560.104	13.58
560.301	13.71
560.498	13.73
560.696	13.77
560.893	13.85
561.091	14
561.288	14.08
561.486	14.19
561.683	14.35
561.88	14.44
562.078	14.51
562.275	14.5
562.473	14.57
562.67	14.75
562.867	14.9
563.064	15
563.262	15.19
563.459	15.34
563.656	15.48
563.853	15.58
564.051	15.67
564.248	15.78
564.445	15.88
564.642	15.9
564.839	16.06
565.036	16.24
565.234	16.54
565.431	16.57
565.628	16.63
565.825	16.74
566.022	16.81
566.219	16.77
566.416	16.94
566.613	17.07
566.81	17.09
567.007	17.12
567.204	17.18
567.401	17.23
567.598	17.24
567.795	17.3
567.991	17.37
568.188	17.45
568.385	17.56
568.582	17.75
568.779	17.89
568.976	17.98
569.172	18.14
569.369	18.18
569.566	18.21
569.763	18.23
569.96	18.26
570.156	18.24
570.353	18.28
570.55	18.34
570.746	18.48
570.943	18.53
571.14	18.54
571.336	18.6
571.533	18.7
571.729	18.63
571.926	18.75
572.123	18.88
572.319	19.02
572.516	19.02
572.712	19.14
572.909	19.09
573.105	19.18
573.302	19.14
573.498	19.25
573.695	19.17
573.891	19.31
574.087	19.26
574.284	19.3
574.48	19.22
574.677	19.29
574.873	19.3
575.069	19.39
575.266	19.51
575.462	19.46
575.658	19.6
575.854	19.7
576.051	19.68
576.247	19.6
576.443	19.73
576.639	19.62
576.835	19.46
577.032	19.55
577.228	19.69
577.424	19.71
577.62	19.7
577.816	19.74
578.012	19.71
578.208	19.68
578.404	19.63
578.6	19.68
578.796	19.69
578.993	19.7
579.189	19.65
579.384	19.63
579.58	19.64
579.776	19.67
579.972	19.59
580.168	19.52
580.364	19.54
580.56	19.59
580.756	19.56
580.952	19.59
581.148	19.63
581.343	19.68
581.539	19.64
581.735	19.68
581.931	19.74
582.127	19.81
582.322	19.73
582.518	19.75
582.714	19.73
582.909	19.73
583.105	19.6
583.301	19.62
583.496	19.64
583.692	19.59
583.888	19.53
584.083	19.68
584.279	19.72
584.474	19.69
584.67	19.72
584.866	19.63
585.061	19.44
585.257	19.48
585.452	19.48
585.648	19.39
585.843	19.54
586.039	19.65
586.234	19.6
586.429	19.54
586.625	19.7
586.82	19.64
587.015	19.62
587.211	19.48
587.406	19.55
587.601	19.48
587.797	19.5
587.992	19.52
588.187	19.73
588.383	19.68
588.578	19.68
588.773	19.72
588.968	19.77
589.163	19.8
589.359	19.84
589.554	19.89
589.749	19.86
589.944	19.94
590.139	19.85
590.334	19.89
590.529	19.89
590.724	19.96
590.919	19.97
591.114	20.01
591.309	20.12
591.504	20.15
591.699	20.14
591.894	20.23
592.089	20.24
592.284	20.22
592.479	20.28
592.674	20.32
592.869	20.4
593.064	20.54
593.259	20.71
593.454	20.9
593.648	20.99
593.843	20.83
594.038	20.92
594.233	20.83
594.428	20.8
594.622	20.88
594.817	21.27
595.012	21.23
595.206	21.3
595.401	21.31
595.596	21.37
595.79	21.31
595.985	21.48
596.18	21.64
596.374	21.71
596.569	21.79
596.763	21.83
596.958	21.82
597.153	21.88
597.347	21.93
597.542	22.1
597.736	22.03
597.931	22.16
598.125	22.23
598.319	22.42
598.514	22.32
598.708	22.56
598.903	22.63
599.097	22.67
599.291	22.69
599.486	22.7
599.68	22.65
599.874	22.65
600.069	22.7
600.263	22.64
600.457	22.71
600.651	22.75
600.846	22.82
601.04	22.88
601.234	22.93
601.428	23.06
601.622	23.19
601.817	23.23
602.011	23.25
602.205	23.31
602.399	23.25
602.593	23.21
602.787	23.28
602.981	23.18
603.175	23.26
603.369	23.3
603.563	23.28
603.757	23.23
603.951	23.24
604.145	23.2
604.339	23.22
604.533	23.11
604.727	23.1
604.921	23.11
605.115	23.09
605.309	23.15
605.502	23.17
605.696	23.09
605.89	23.08
606.084	22.96
606.278	22.85
606.471	22.81
606.665	22.73
606.859	22.73
607.053	22.76
607.246	22.73
607.44	22.66
607.634	22.66
607.827	22.58
608.021	22.47
608.214	22.37
608.408	22.37
608.602	22.26
608.795	22.18
608.989	22.16
609.182	22.09
609.376	22.06
609.569	21.99
609.763	21.88
609.956	21.78
610.15	21.58
610.343	21.43
610.537	21.36
610.73	21.37
610.923	21.33
611.117	21.37
611.31	21.37
611.504	21.25
611.697	21.09
611.89	21.03
612.083	20.98
612.277	20.86
612.47	20.89
612.663	20.87
612.856	20.75
613.05	20.71
613.243	20.67
613.436	20.57
613.629	20.57
613.822	20.52
614.015	20.42
614.209	20.32
614.402	20.29
614.595	20.3
614.788	20.3
614.981	20.17
615.174	20.06
615.367	19.9
615.56	19.7
615.753	19.57
615.946	19.52
616.139	19.52
616.332	19.68
616.525	19.61
616.718	19.63
616.911	19.67
617.103	19.68
617.296	19.52
617.489	19.46
617.682	19.31
617.875	19.26
618.067	19.17
618.26	19.07
618.453	19.1
618.646	19.16
618.838	19.1
619.031	19.14
619.224	19.17
619.417	19.13
619.609	19.07
619.802	19.05
619.994	19.01
620.187	18.96
620.38	18.94
620.572	18.79
620.765	18.8
620.957	18.68
621.15	18.57
621.342	18.5
621.535	18.61
621.727	18.5
621.92	18.52
622.112	18.49
622.305	18.57
622.497	18.53
622.69	18.49
622.882	18.44
623.074	18.55
623.267	18.43
623.459	18.36
623.651	18.34
623.844	18.42
624.036	18.43
624.228	18.45
624.42	18.44
624.613	18.57
624.805	18.49
624.997	18.43
625.189	18.4
625.381	18.39
625.574	18.21
625.766	18.15
625.958	18.11
626.15	18.13
626.342	18.13
626.534	18.17
626.726	18.11
626.918	18.07
627.11	18
627.302	17.9
627.494	17.86
627.686	17.88
627.878	17.8
628.07	17.86
628.262	17.78
628.454	17.8
628.646	17.79
628.838	17.85
629.029	17.73
629.221	17.85
629.413	17.67
629.605	17.61
629.797	17.57
629.989	17.57
630.18	17.49
630.372	17.54
630.564	17.57
630.755	17.54
630.947	17.56
631.139	17.43
631.33	17.39
631.522	17.4
631.714	17.4
631.905	17.33
632.097	17.31
632.289	17.34
632.48	17.33
632.672	17.23
632.863	17.11
633.055	17.08
633.246	17.04
633.438	16.87
633.629	16.82
633.821	16.94
634.012	17.04
634.203	16.94
634.395	17.01
634.586	17.16
634.777	17.04
634.969	17.02
635.16	17.12
635.351	17.07
635.543	16.95
635.734	17.01
635.925	17
636.117	17.02
636.308	17.02
636.499	16.95
636.69	16.83
636.881	16.74
637.073	16.79
637.264	16.74
637.455	16.85
637.646	17.05
637.837	17.12
638.028	16.99
638.219	17.06
638.41	16.99
638.601	16.82
638.792	16.82
638.983	16.79
639.174	16.77
639.365	16.85
639.556	16.84
639.747	16.78
639.938	16.83
640.129	16.79
640.32	16.67
640.511	16.7
640.701	16.78
640.892	16.79
641.083	16.87
641.274	16.86
641.465	16.83
641.655	16.64
641.846	16.57
642.037	16.5
642.228	16.48
642.418	16.54
642.609	16.63
642.8	16.72
642.99	16.54
643.181	16.51
643.372	16.47
643.562	16.39
643.753	16.16
643.943	16.21
644.134	16.14
644.324	16.08
644.515	16.11
644.705	16.19
644.896	16.27
645.086	16.29
645.277	16.24
645.467	16.18
645.658	16.16
645.848	16.07
646.038	16.04
646.229	15.99
646.419	15.9
646.61	15.84
646.8	15.79
646.99	15.81
647.18	15.86
647.371	15.91
647.561	15.92
647.751	15.86
647.941	15.76
648.132	15.74
648.322	15.69
648.512	15.7
648.702	15.74
648.892	15.84
649.082	15.83
649.272	15.72
649.462	15.53
649.653	15.42
649.843	15.28
650.033	15.15
650.223	15.19
650.413	15.21
650.603	15.15
650.793	15.12
650.983	15.07
651.172	14.98
651.362	15
651.552	14.93
651.742	14.78
651.932	14.73
652.122	14.68
652.312	14.65
652.502	14.68
652.691	14.65
652.881	14.57
653.071	14.44
653.261	14.17
653.45	13.99
653.64	14.07
653.83	13.92
654.019	13.87
654.209	13.87
654.399	13.8
654.588	13.61
654.778	13.51
654.968	13.37
655.157	13.28
655.347	13.19
655.536	12.98
655.726	12.88
655.915	12.74
656.105	12.56
656.294	12.4
656.484	12.34
656.673	12.25
656.863	12.22
657.052	12.05
657.241	11.82
657.431	11.55
657.62	11.36
657.809	11.01
657.999	10.9
658.188	10.82
658.377	10.72
658.567	10.58
658.756	10.52
658.945	10.31
659.134	10.14
659.324	9.99
659.513	9.8
659.702	9.57
659.891	9.48
660.08	9.37
660.269	9.27
660.458	9.12
660.648	9.03
660.837	8.89
661.026	8.86
661.215	8.75
661.404	8.64
661.593	8.54
661.782	8.34
661.971	8.17
662.16	8.04
662.349	7.95
662.538	7.84
662.726	7.9
662.915	7.7
663.104	7.52
663.293	7.47
663.482	7.51
663.671	7.34
663.86	7.28
664.048	7.26
664.237	7.21
664.426	6.96
664.615	6.97
664.803	6.91
664.992	6.84
665.181	6.75
665.369	6.68
665.558	6.56
665.747	6.55
665.935	6.58
666.124	6.64
666.312	6.75
666.501	6.71
666.69	6.58
666.878	6.45
667.067	6.28
667.255	6.25
667.444	6.53
667.632	6.65
667.82	6.84
668.009	6.83
668.197	6.74
668.386	6.48
668.574	6.51
668.762	6.36
668.951	6.32
669.139	6.41
669.327	6.32
669.516	6.38
669.704	6.34
669.892	6.58
670.08	6.62
670.269	6.57
670.457	6.44
670.645	6.28
670.833	6.31
671.021	6.21
671.21	6.23
671.398	6.38
671.586	6.47
671.774	6.25
671.962	6.22
672.15	6.42
672.338	6.19
672.526	6.27
672.714	6.24
672.902	6.38
673.09	6.41
673.278	6.69
673.466	6.7
673.654	6.92
673.842	6.97
674.03	7.03
674.218	6.93
674.405	7.03
674.593	6.96
674.781	6.99
674.969	7.01
675.157	7.16
675.344	7.34
675.532	7.45
675.72	7.52
675.908	7.54
676.095	7.48
676.283	7.43
676.471	7.62
676.658	7.61
676.846	7.65
677.033	7.74
677.221	7.81
677.409	7.68
677.596	7.78
677.784	7.87
677.971	7.94
678.159	7.98
678.346	8.09
678.534	8.18
678.721	8.32
678.909	8.32
679.096	8.41
679.283	8.61
679.471	8.72
679.658	8.8
679.846	9.04
680.033	9.3
680.22	9.25
680.408	9.28
680.595	9.29
680.782	9.28
680.969	9.29
681.157	9.39
681.344	9.46
681.531	9.51
681.718	9.61
681.905	9.7
682.093	9.9
682.28	10.22
682.467	10.56
682.654	10.68
682.841	10.8
683.028	10.95
683.215	11.03
683.402	10.92
683.589	11.17
683.776	11.4
683.963	11.46
684.15	11.6
684.337	11.95
684.524	12.11
684.711	12.46
684.898	12.72
685.085	13
685.271	13.43
685.458	13.63
685.645	13.66
685.832	14.09
686.019	14.33
686.205	14.45
686.392	14.93
686.579	15.27
686.766	15.75
686.952	16.1
687.139	16.72
687.326	16.88
687.512	17.28
687.699	17.46
687.886	17.74
688.072	17.75
688.259	18.28
688.445	18.89
688.632	19.25
688.818	19.97
689.005	20.47
689.191	21.04
689.378	21.54
689.564	22.04
689.751	22.54
689.937	23.06
690.124	23.53
690.31	23.94
690.496	24.74
690.683	25.17
690.869	25.85
691.055	26.43
691.242	27.29
691.428	27.89
691.614	28.44
691.8	29.29
691.987	30
692.173	30.41
692.359	30.93
692.545	31.7
692.731	32.23
692.918	32.95
693.104	33.66
693.29	34.38
693.476	35.26
693.662	35.94
693.848	36.62
694.034	37.33
694.22	37.94
694.406	38.66
694.592	39.57
694.778	40.27
694.964	40.84
695.15	41.65
695.336	42.08
695.522	42.94
695.708	43.75
695.894	44.56
696.08	45.27
696.265	46.11
696.451	46.75
696.637	47.47
696.823	48.1
697.009	48.57
697.194	49.36
697.38	49.85
697.566	50.39
697.751	51.2
697.937	52.28
698.123	52.85
698.308	53.59
698.494	54.42
698.68	55.15
698.865	55.74
699.051	56.51
699.236	57.03
699.422	57.55
699.607	57.73
699.793	58.16
699.978	58.54
700.164	59.18
700.349	59.88
700.535	60.72
700.72	61.28
700.906	62.17
701.091	62.55
701.276	63.12
701.462	63.9
701.647	64.74
701.832	65.01
702.018	65.53
702.203	65.7
702.388	65.95
702.573	66.14
702.759	66.99
702.944	67.57
703.129	68.28
703.314	68.61
703.499	68.75
703.684	69.16
703.87	70.01
704.055	70.57
704.24	71.17
704.425	72.01
704.61	72.16
704.795	72.17
704.98	72.19
705.165	72.22
705.35	72.4
705.535	73.02
705.72	73.37
705.905	74.16
706.09	75
706.275	75.28
706.459	74.91
706.644	75.12
706.829	75.25
707.014	75.18
707.199	75.83
707.384	76.94
707.568	77.04
707.753	77.73
707.938	78.04
708.123	77.74
708.307	77.51
708.492	77.75
708.677	77.49
708.861	77.66
709.046	78.04
709.231	78.68
709.415	79.29
709.6	79.61
709.784	79.94
709.969	80.15
710.153	79.78
710.338	80
710.522	80.26
710.707	80.57
710.891	81.09
711.076	81.3
711.26	81.11
711.445	81.2
711.629	81.38
711.813	81.45
711.998	81.98
712.182	82.09
712.366	82.42
712.551	83.17
712.735	83.67
712.919	83.83
713.103	84.23
713.288	83.88
713.472	83.37
713.656	83.5
713.84	83.52
714.024	83.75
714.208	83.94
714.393	84.57
714.577	84.61
714.761	84.86
714.945	85.17
715.129	85.71
715.313	85.63
715.497	85.58
715.681	86
715.865	85.66
716.049	85.86
716.233	86.09
716.417	86.67
716.601	86.33
716.785	86.53
716.968	87.01
717.152	86.92
717.336	86.4
717.52	86.91
717.704	87.26
717.888	87.31
718.071	87.33
718.255	88.04
718.439	87.81
718.622	88.29
718.806	88.31
718.99	88.29
719.174	87.98
719.357	88.39
719.541	87.95
719.724	88.05
719.908	88.98
720.092	89.44
720.275	89.53
720.459	89.86
720.642	89.35
720.826	88.85
721.009	88.52
721.193	88.06
721.376	88.25
721.559	88.75
721.743	88.8
721.926	89.15
722.11	89.56
722.293	88.89
722.476	88.61
722.66	88.53
722.843	88.46
723.026	88.2
723.21	88.7
723.393	89.66
723.576	89.69
723.759	89.37
723.942	89.68
724.126	89.89
724.309	89.2
724.492	89.57
724.675	89.64
724.858	90.15
725.041	90.68
725.224	91.18
725.407	91.01
725.59	91.61
725.774	91.04
725.957	90.22
726.14	89.84
726.322	90
726.505	89.78
726.688	90.97
726.871	91.32
727.054	91.97
727.237	92.38
727.42	92.62
727.603	92.1
727.786	92.38
727.968	92.23
728.151	91.91
728.334	91.77
728.517	91.63
728.699	92.02
728.882	91.59
729.065	92.51
729.248	93.55
729.43	93.98
729.613	94.82
729.796	95.76
729.978	94.97
730.161	94.02
730.343	93.74
730.526	93.58
730.708	92.82
730.891	93.44
731.073	93.81
731.256	93.54
731.438	93.12
731.621	94.16
731.803	93.56
731.986	93.46
732.168	93.52
732.35	93.71
732.533	93.75
732.715	94.09
732.898	94.94
733.08	94.93
733.262	94.86
733.444	93.98
733.627	94.11
733.809	93.58
733.991	94.72
734.173	93.66
734.355	93.89
734.538	94.88
734.72	94.8
734.902	94.21
735.084	95.18
735.266	95.4
735.448	94.99
735.63	95.13
735.812	95
735.994	96.07
736.176	96.3
736.358	95.49
736.54	96.11
736.722	95.77
736.904	94.56
737.086	94.1
737.268	95.68
737.45	95.6
737.632	95.9
737.814	95.86
737.995	96.28
738.177	95.73
738.359	94.59
738.541	94.99
738.723	95.58
738.904	95.35
739.086	95.13
739.268	95.49
739.449	95.69
739.631	95.44
739.813	95.95
739.994	95.87
740.176	96.76
740.358	96.46
740.539	97.2
740.721	97.42
740.902	98.7
741.084	98.19
741.265	97.93
741.447	97.67
741.628	97.52
741.81	95.71
741.991	95.86
742.172	96.84
742.354	97.58
742.535	97.55
742.717	98.06
742.898	98.24
743.079	98.4
743.261	97.76
743.442	97.68
743.623	98.88
743.804	99.19
743.986	100.02
744.167	98.67
744.348	98
744.529	97.63
744.71	96.36
744.891	94.92
745.073	94.7
745.254	94.58
745.435	93.94
745.616	93.51
745.797	93.31
745.978	93.98
746.159	94.04
746.34	93.36
746.521	95.8
746.702	95.26
746.883	94.89
747.064	94.71
747.245	95.39
747.426	94.38
747.606	94.9
747.787	95.97
747.968	96.56
748.149	96.64
748.33	97.09
748.51	97.38
748.691	96.88
748.872	98
749.053	97.09
749.233	95.76
749.414	94.43
749.595	93.96
749.775	92.33
749.956	91.83
750.137	92.12
750.317	94.09
750.498	96.65
750.678	98.17
750.859	99.45
751.04	99.08
751.22	97.08
751.4	94.3
751.581	92.79
751.761	91.86
751.942	92.31
752.122	93.4
752.303	93.29
752.483	93.31
752.663	94.37
752.844	93.53
753.024	94.68
753.204	95.92
753.385	96.04
753.565	94.9
753.745	95.64
753.925	94.19
754.106	93.28
754.286	91.83
754.466	92.73
754.646	92.88
754.826	92.65
755.006	92.04
755.187	94.1
755.367	94.16
755.547	94.9
755.727	96.03
755.907	96.75
756.087	96.57
756.267	95.64
756.447	95.52
756.627	93.37
756.807	93.59
756.987	92.68
757.167	93.11
757.346	93.08
757.526	93.39
757.706	93.53
757.886	94.84
758.066	95.45
758.246	95.22
758.425	94.87
758.605	93.31
758.785	92.14
758.965	91.84
759.144	89.92
759.324	91.06
759.504	92.19
759.683	93.22
759.863	92.47
760.043	92.54
760.222	91.26
760.402	91.2
760.581	90.41
760.761	91.62
760.94	91.35
761.12	94.45
761.299	95.33
761.479	94.73
761.658	92.68
761.838	92.39
762.017	90.79
762.197	89.59
762.376	90.66
762.555	92.51
762.735	93.48
762.914	91.69
763.093	91.82
763.273	90.59
763.452	90.15
763.631	90.39
763.81	90.62
763.99	90.58
764.169	91.91
764.348	90.82
764.527	89.94
764.706	91.49
764.885	92.87
765.064	90.88
765.243	91.75
765.423	93.62
765.602	92.27
765.781	89.36
765.96	88.32
766.139	86.94
766.318	87.11
766.497	87.17
766.676	89.06
766.854	91.72
767.033	92.64
767.212	91.69
767.391	92.4
767.57	93.39
767.749	94.2
767.928	94.7
768.106	93.44
768.285	91.11
768.464	88.83
768.643	86.45
768.821	86.53
769	88.42
769.179	89.85
769.357	89.22
769.536	89.81
769.715	89.15
769.893	90.32
770.072	89.86
770.25	90.16
770.429	91.62
770.607	90.95
770.786	88.08
770.964	90.62
771.143	89.9
771.321	89.38
771.5	90.63
771.678	90.37
771.857	87.85
772.035	88.54
772.213	88.92
772.392	86.89
772.57	91.11
772.748	90.57
772.927	90.41
773.105	88.34
773.283	90.64
773.461	87.21
773.64	87.96
773.818	88.78
773.996	91.55
774.174	89.01
774.352	87.83
774.531	86.79
774.709	87.28
774.887	84.81
775.065	84.28
775.243	83.94
775.421	83.99
775.599	84.6
775.777	83.23
775.955	80.87
776.133	81.05
776.311	82.28
776.489	78.14
776.667	78.26
776.844	83.35
777.022	82.02
777.2	81.31
777.378	83.43
777.556	85.59
777.734	87.04
777.911	90.89
778.089	89.12
778.267	90.27
778.445	86.52
778.622	82.55
778.8	81.2
778.978	83.7
779.155	82.6
779.333	83.46
779.511	84.04
779.688	85.6
779.866	80.71
780.043	79.65
780.221	80.33
780.398	80.92
780.576	80.92
780.753	86.74
780.931	85.94
781.108	85.35
781.286	85.55
781.463	83.57
781.64	76.98
781.818	79.44
781.995	80.45
782.172	80.69
782.35	80.81
782.527	87.71
782.704	82.67
782.882	83.14
783.059	78.47
783.236	78.57
783.413	77.23
783.59	79.89
783.768	77.87
783.945	83.4
784.122	83.62
784.299	81.93
784.476	80.76
784.653	78.35
784.83	74.43
785.007	70.46
785.184	70.83
785.361	72.13
785.538	78.78
785.715	82.71
785.892	87.4
786.069	89.55
786.246	92.37
786.423	90.2
786.6	88.28
786.776	88.88
786.953	87.18
787.13	85.07
787.307	84.91
787.484	86.37
787.66	80.87
787.837	80.47
788.014	78.74
788.191	76.78
788.367	71.52
788.544	77.03
788.721	75.84
788.897	77.63
789.074	79.23
789.25	78.28
789.427	78.41
789.603	78.04
789.78	77.52
789.956	75.27
790.133	74.05
790.309	72.82
790.486	76.63
790.662	76.27
790.839	76.73
791.015	80.44
791.192	76.42
791.368	74.19
791.544	71.44
791.721	72.29
791.897	73.72
792.073	73.47
792.249	70.31
792.426	73.73
792.602	73.86
792.778	74.87
792.954	72.78
793.13	76.62
793.307	72.5
793.483	67.79
793.659	65.65
793.835	74.11
794.011	71.34
794.187	70.85
794.363	72.72
794.539	78.77
794.715	71.1
794.891	68.97
795.067	68.66
795.243	72.83
795.419	67.08
795.595	65.72
795.771	70.65
795.947	72.56
796.122	71.3
796.298	74.68
796.474	78.15
796.65	73.88
796.826	72.49
797.001	73.11
797.177	66.24
797.353	70.67
797.529	74.3
797.704	73.83
797.88	73.06
798.056	70.94
798.231	64.29
798.407	69.8
798.582	76.04
798.758	82.63
798.934	91.45
799.109	90.25
799.285	83.2
799.46	84.42
799.636	76.22
799.811	71.65
799.986	74.7
800.162	78.98
800.337	75.35
800.513	75.82
800.688	77.39
800.863	88.8
801.039	81.74
801.214	80.75
801.389	81.83
801.565	84.7
801.74	66.33
801.915	72.63
802.09	69.52
802.265	71.72
802.441	63.57
802.616	67.03
802.791	65.26
802.966	71.8
803.141	69.93
803.316	69.79
803.491	74.28
803.666	78.5
803.841	77.3
804.016	74.38
804.191	79.49
804.366	76.84
804.541	69.59
804.716	58.93
804.891	52.39
805.066	57
805.241	56.56
805.416	54.44
805.591	57.81
805.765	68.51
805.94	62.68
806.115	61.37
806.29	54.56
806.464	57.98
806.639	52.49
806.814	51.97
806.989	50.38
807.163	66.91
807.338	69.77
807.512	66.07
807.687	57.56
807.862	66.13
808.036	64.27
808.211	69.34
808.385	77.78
808.56	87.98
808.734	83.4
808.909	79.43
809.083	60.88
809.258	70.65
809.432	73.66
809.606	65.61
809.781	67.82
809.955	78.22
810.13	74.01
810.304	62.29
810.478	60.4
810.652	64.53
810.827	63.33
811.001	54.75
811.175	60.32
811.349	64.43
811.524	47.17
811.698	33.15
811.872	34.62
812.046	37.96
812.22	50.04
812.394	59.16
812.568	71.68
812.742	83.14
812.916	77.98
813.09	69.48
813.264	69.06
813.438	68.68
813.612	58.73
813.786	55.61
813.96	64.53
814.134	71.12
814.308	82.28
814.482	82.46
814.656	81.15
814.83	82.73
815.003	83.86
815.177	58.51
815.351	53.68
815.525	55.78
815.698	39.86
815.872	27.79
816.046	30.79
816.219	42.35
816.393	51.42
816.567	58.44
816.74	66.44
816.914	75.96
817.088	75.14
817.261	69.9
817.435	55.81
817.608	52.71
817.782	36.83
817.955	37.58
818.129	37.06
818.302	57.85
818.475	73.6
818.649	78.48
818.822	61.44
818.996	77.61
819.169	65.7
819.342	38.69
819.516	52.97
819.689	67.26
819.862	53.16
820.035	49.51
820.209	55.52
820.382	49.64
820.555	50.24
820.728	36.27
820.901	29.67
821.075	29.23
821.248	40
821.421	25.2
821.594	42.57
821.767	76.15
821.94	90.34
822.113	65.17
822.286	62.85
822.459	70.33
822.632	51.4
822.805	34.46
822.978	34.78
823.151	51.18
823.324	38.72
823.496	12.58
823.669	7.87
823.842	11.34
824.015	-5.13
824.188	-21.24
824.361	2.05
824.533	4.23
824.706	12.87
824.879	19.19
825.051	30.82
825.224	34.9
825.397	36.82
825.569	32.57
825.742	48.34
825.915	60.36
826.087	63.3
826.26	48.93
826.432	41.62
826.605	38.25
826.777	30.21
826.95	36.86
827.122	31.24
827.295	39.85
827.467	35.62
827.64	3.19
827.812	-11.62
827.984	-7.65
828.157	-19.77
828.329	-59.46
828.501	-16.79
828.674	2.63
828.846	7.65
829.018	25.16
829.19	24.59
829.363	44.65
829.535	56.66
829.707	52.95
829.879	30.42
830.051	31.52
830.223	7.58
830.395	-36.56
830.568	-36.01
830.74	-35.85
830.912	-5.95
831.084	-6.88
831.256	1.32
831.428	-3.05
831.6	-5.78
831.772	-42.92
831.943	-55.04
832.115	-11.56
832.287	6.88
832.459	23.53
832.631	47.59
832.803	69.47
832.975	81.62
833.146	88.27
833.318	83.62
833.49	78.29
833.662	55.63
833.833	26.5
834.005	15.71
834.177	24.89
834.348	16.26
834.52	-4.05
834.692	-11.79
834.863	-34.45
835.035	-53.32
835.206	-116.02
835.378	-47.03
835.549	-40.69
835.721	-11.29
835.892	-2.29
836.064	12.05
836.235	-7.92
836.407	22.69
836.578	-16.11
836.749	-4.51
836.921	-36.14
837.092	-50.58
837.264	-76.55
837.435	-73.06
837.606	-25.31
837.777	10.64
837.949	28.47
838.12	30.59
838.291	42.25
838.462	38.65
838.633	8.66
838.805	10.08
838.976	23.34
839.147	-24.91
839.318	-77.55
839.489	-98.8
839.66	-80.57
839.831	-45.03
840.002	-25.26
840.173	-5.56
840.344	46.86
840.515	30.07
840.686	-87.56
840.857	-91.02
841.028	-96.13
841.199	-101.4
841.369	-65.94
841.54	-37.41
841.711	-9.38
841.882	15.23
842.053	8.66
842.223	-26.95
842.394	-8.25
842.565	-0.28
842.736	2.69
842.906	17.67
843.077	31.01
843.248	40.46
843.418	21.64
843.589	-3.12
843.759	37.14
843.93	73.34
844.101	28.7
844.271	37.36
844.442	44.44
844.612	49.34
844.783	18.02
844.953	-22.6
845.123	-12.39
845.294	-34.08
845.464	-310
845.635	-169.68
845.805	-56.66
845.975	-17.59
846.146	-33.92
846.316	-23.11
846.486	2.42
846.656	48.95
846.827	37.64
846.997	36.04
847.167	76.79
847.337	31.35
847.507	-34.61
847.677	-28.76
847.848	25.32
848.018	32.1
848.188	39.63
848.358	31.72
848.528	15.06
848.698	-10.39
848.868	-96.9
849.038	-150.11
849.208	-29.59
849.378	22.27
849.548	-2.41
849.718	20.49
849.887	37.16
850.057	19.98
850.227	5.28
850.397	11.37
850.567	-87.33
850.737	-297.61
850.906	-1069.38
851.076	-1041.02
851.246	-551.57
851.415	-74.84
851.585	-42.57
851.755	-82.78
851.924	-19.21
852.094	-39.78
852.264	-133.52
852.433	-981.25
852.603	-138.99
852.772	-74.91
852.942	-47.44
853.111	-28.29
853.281	20.32
853.45	54.55
853.62	-13.06
853.789	-29.81
853.959	54.87
854.128	27.93
854.297	-46.66
854.467	-66.69
854.636	-12.75
854.805	-2.31
854.975	-7.13
855.144	18.77
855.313	484.27
855.482	120.07
855.652	-41.37
855.821	2.47
855.99	51.67
856.159	53.04
856.328	53.22
856.497	50.65
856.667	27.94
856.836	41.64
857.005	-20.36
857.174	-45.47
857.343	-69.47
857.512	-28.34
857.681	-98.85
857.85	-130.48
858.019	-87.23
858.188	-85.36
858.356	-104.69
858.525	-144.75
858.694	-117.72
858.863	-189.87
859.032	-140.74
859.201	-167.46
859.369	-83.55
859.538	-36.49
859.707	-46.69
859.876	-44.13
860.044	-50.19
860.213	4.67
860.382	-28.91
860.55	-20.39
860.719	6.39
860.888	26.81
861.056	-27.71
861.225	-26.99
861.393	-3.32
861.562	-3.16
861.73	-99.71
861.899	-210.73
862.067	-1905.17
862.236	-119.55
862.404	-348.56
862.572	-244.3
862.741	-96.22
862.909	-68.82
863.078	-152.65
863.246	-93.5
863.414	-19.02
863.582	-37.27
863.751	-56.54
863.919	-65.64
864.087	-7.16
864.255	-44.64
864.424	-315.74
864.592	-56.86
864.76	-96.4
864.928	-228.4
865.096	-204.62
865.264	-121.43
865.432	-1507.95
865.6	31.25
865.768	-82.4
865.936	-58.91
866.104	-45.55
866.272	-52.66
866.44	-356.89
866.608	657.34
866.776	288.69
866.944	3091.86
867.112	-521.4
867.28	-232.78
867.448	-79.13
867.615	-42.66
867.783	-7.75
867.951	-30.8
868.119	18.73
868.286	-0.08
868.454	-101.86
868.622	-108.95
868.789	-146.8
868.957	-2317.86
869.125	-2125
869.292	-115.11
869.46	-224.22
869.627	-35.19
869.795	-43.63
869.963	-19.68
870.13	-19.4
870.298	-2.73
870.465	-68.21
870.632	-83.31
870.8	-39.43
870.967	-46.45
871.135	-104.98
871.302	-108
871.469	-156.75
871.637	-197.69
871.804	-145.87
871.971	-192.19
872.139	-541.63
872.306	-26.23
872.473	-53.08
872.64	-185.62
872.807	11.53
872.975	97.33
873.142	-118
873.309	1663.51
873.476	49.72
873.643	108.4
873.81	30.73
873.977	92.61
874.144	76.28
874.311	-60.12
874.478	-139.92
874.645	-186.42
874.812	-159.83
874.979	-76.04
875.146	-78.83
875.313	-54.84
875.48	39.02
875.647	9.24
875.813	-33.41
875.98	-13.95
876.147	-52.24
876.314	-115.87
876.481	1130.99
876.647	-1311.8
876.814	480.57
876.981	6.73
877.147	1.46
877.314	61.17
877.481	64.21
877.647	53.32
877.814	-3.46
877.98	-68.11
878.147	-57.47
878.314	28.94
878.48	-52.62
878.647	-9.06
878.813	38.04
878.979	34.04
879.146	-22.23
879.312	-0.35
879.479	-64.37
879.645	-165.43
879.811	-329.5
879.978	-888.93
880.144	-237.78
880.31	-108.66
880.477	-327.51
880.643	-421.65
880.809	-133.93
880.975	-118.24
881.142	-968.64
881.308	-119.04
881.474	-52.82
881.64	-79.9
881.806	-174.83
881.972	-48.51
882.138	-90.86
882.304	-110.81
882.47	-267.51
882.636	-964.34
882.802	-308.76
882.968	-84.39
883.134	-72.85
883.3	-72.87
883.466	-0.94
883.632	9.86
883.798	-21.8
883.964	-29.89
884.129	-20.39
884.295	14.23
884.461	-9.85
884.627	-4.53
884.793	-35.97
884.958	-13.2
885.124	-119.04
885.29	-246.62
885.455	-391.99
885.621	-38.67
885.787	-54.11
885.952	-51.01
886.118	-26.56
886.283	-34.75
886.449	-170.93
886.614	-188.66
886.78	-269.04
886.945	1043.44
887.111	-704.34
887.276	-455.4
887.442	-974.09
887.607	-492.69
887.773	-297.29
887.938	-185.77
888.103	-271.36
888.269	-151.05
888.434	-292.16
888.599	-138.03
888.764	-72.17
888.93	-1.21
889.095	-41.49
889.26	-94.98
889.425	-69.72
889.59	-40.6
889.756	-92.23
889.921	-41.56
890.086	6.99
890.251	-6.54
890.416	-213.62
890.581	-1825
890.746	187.68
890.911	101.59
891.076	98.21
891.241	-163.81
891.406	93.97
891.571	20.5
891.736	-246.56
891.901	-422.57
892.065	204.95
892.23	150.08
892.395	221.43
892.56	286.27
892.725	-483.2
892.889	-1201.22
893.054	-181.86
893.219	-85.95
893.384	-61.53
893.548	-102.62
893.713	-141.22
893.878	-88.08
