Data from Ofra_2a_PS_9CX5_Reflection_3.txt Node
Date: Tue Jul 20 09:58:41 EDT 2021
User: Adam
Spectrometer: FLMT01687
Trigger mode: 0
Integration Time (sec): 9.450000E-1
Scans to average: 3
Electric dark correction enabled: true
Nonlinearity correction enabled: false
Boxcar width: 3
XAxis mode: Wavelengths
Number of Pixels in Spectrum: 3648
>>>>>Begin Spectral Data<<<<<
179.494	1526.04
179.716	930.72
179.937	977.47
180.158	4358.98
180.38	-2274.13
180.601	-485.04
180.823	-225.14
181.044	-240.14
181.265	-258.25
181.486	-30.08
181.708	-351.09
181.929	47.56
182.15	436.93
182.372	-133.3
182.593	-143.92
182.814	445.66
183.035	133.99
183.257	58.82
183.478	45.35
183.699	17.77
183.92	19.19
184.141	23.09
184.363	25.56
184.584	28.65
184.805	42.18
185.026	45.91
185.247	46.28
185.468	32
185.689	25.39
185.91	15.3
186.132	21.09
186.353	-1.27
186.574	-5.3
186.795	-26.19
187.016	-17.72
187.237	-28.23
187.458	-52.7
187.679	-63.68
187.9	-51.41
188.121	-49.82
188.342	10.35
188.563	7.52
188.784	16.38
189.005	29.39
189.226	22.47
189.447	17.23
189.667	31.1
189.888	36.13
190.109	36.02
190.33	34.35
190.551	29.09
190.772	24.21
190.993	34.93
191.214	34.71
191.434	20.75
191.655	35.45
191.876	36.3
192.097	29.68
192.318	22.77
192.538	14.94
192.759	6.13
192.98	-5.03
193.201	-7.25
193.421	-0.67
193.642	1.4
193.863	3.22
194.083	-2.17
194.304	3.8
194.525	23.8
194.745	6.89
194.966	-0.11
195.187	3.08
195.407	5.31
195.628	12.76
195.848	6.52
196.069	4.91
196.29	-4.41
196.51	-2.41
196.731	-3.24
196.951	-10.72
197.172	-27.49
197.392	0.55
197.613	-8.81
197.833	-3.81
198.054	-6.95
198.274	-32.42
198.495	-29.07
198.715	-25.53
198.936	-61.67
199.156	-36.93
199.377	-31.77
199.597	-45.45
199.817	-20.14
200.038	-26.19
200.258	-25.72
200.479	-8.49
200.699	-18.7
200.919	-44.5
201.14	-23.32
201.36	-10.22
201.58	10.23
201.801	9.88
202.021	5.35
202.241	4.45
202.461	30.52
202.682	34.71
202.902	31.38
203.122	18.24
203.342	27.81
203.563	22.17
203.783	25.68
204.003	21.24
204.223	19.77
204.443	16.36
204.663	20.97
204.884	5.46
205.104	7.01
205.324	22.38
205.544	25.28
205.764	18.59
205.984	18.68
206.204	20.14
206.424	28.65
206.644	23.78
206.864	7.24
207.084	18.95
207.304	12.92
207.525	10.26
207.745	18.12
207.964	18.1
208.184	21.1
208.404	23.6
208.624	-4.48
208.844	-9.08
209.064	-10.64
209.284	-10.95
209.504	-18.6
209.724	-53.68
209.944	-54
210.164	-27.93
210.384	-16.95
210.604	-17.96
210.823	-44.83
211.043	-31.92
211.263	-10.74
211.483	-10.12
211.703	-5.18
211.922	-4.03
212.142	-5.75
212.362	4.77
212.582	-3.57
212.801	-5.01
213.021	-2.49
213.241	-18.71
213.461	-23.14
213.68	-7.99
213.9	-0.67
214.12	8.09
214.339	5.92
214.559	6.96
214.779	16.1
214.998	25.37
215.218	26.51
215.438	36.02
215.657	25.58
215.877	29.04
216.096	26.46
216.316	19.34
216.535	4.36
216.755	-26.76
216.974	-35.7
217.194	-41.63
217.413	-14.58
217.633	-21.55
217.852	-26.54
218.072	-33.9
218.291	12.49
218.511	7.11
218.73	7.69
218.95	-6.6
219.169	-12.02
219.389	-15.15
219.608	1.1
219.827	-17.75
220.047	-11.09
220.266	-1.53
220.485	-6.04
220.705	-8.36
220.924	-7.35
221.143	-18.57
221.363	-16.93
221.582	-26.98
221.801	-21.59
222.021	-15.41
222.24	-17.08
222.459	-14.87
222.678	-22.83
222.897	-27.44
223.117	-23.56
223.336	-32.08
223.555	-37.52
223.774	-20.23
223.993	13
224.213	19.81
224.432	41.1
224.651	48.59
224.87	50.6
225.089	49.97
225.308	47.79
225.527	29.39
225.746	25.52
225.965	4.79
226.184	-2.41
226.404	-25.31
226.623	-12.95
226.842	-2.82
227.061	-2.32
227.28	6.88
227.499	19.73
227.718	20.83
227.936	29.79
228.155	24.83
228.374	12.1
228.593	11.68
228.812	6.5
229.031	-2.18
229.25	10.03
229.469	16.46
229.688	24.93
229.907	29.7
230.125	33.02
230.344	36.5
230.563	47.19
230.782	35.04
231.001	29.89
231.22	18.03
231.438	20.38
231.657	14.76
231.876	23.53
232.095	20.64
232.313	27.38
232.532	33.38
232.751	37.49
232.969	42.51
233.188	41.92
233.407	24.63
233.625	16.44
233.844	22.47
234.063	14.17
234.281	12.75
234.5	15.32
234.719	6.44
234.937	18.67
235.156	14.32
235.374	4.52
235.593	13.77
235.811	5.67
236.03	-21.28
236.249	-2.58
236.467	-9.6
236.686	6.19
236.904	9.02
237.123	6.79
237.341	16.32
237.559	25.23
237.778	34.53
237.996	35.02
238.215	23.7
238.433	30.09
238.652	25.24
238.87	20.19
239.088	12.29
239.307	8.21
239.525	2.3
239.743	-5.13
239.962	-16.02
240.18	-5.82
240.398	-1.88
240.617	9.26
240.835	2.68
241.053	8.05
241.271	20.83
241.49	14.84
241.708	5
241.926	-13.27
242.144	-17.01
242.363	-17.84
242.581	-14.58
242.799	-21.41
243.017	-13.98
243.235	-18.5
243.453	-6.5
243.672	0.01
243.89	3.71
244.108	13.61
244.326	5.77
244.544	14.45
244.762	23.77
244.98	28.92
245.198	20.24
245.416	23.17
245.634	26.41
245.852	33.47
246.07	34.78
246.288	30.7
246.506	45.79
246.724	50.36
246.942	52.83
247.16	35.37
247.378	30.86
247.596	26.9
247.814	7.96
248.032	-6.31
248.25	-11.42
248.468	-10.88
248.685	-8.04
248.903	-12.97
249.121	-11.71
249.339	14.66
249.557	13.53
249.775	-4.04
249.992	-9.01
250.21	-8
250.428	-8.62
250.646	-9.81
250.863	-20.15
251.081	-16.44
251.299	2.79
251.517	13.2
251.734	10.65
251.952	20.53
252.17	6.11
252.387	10.53
252.605	4.47
252.823	-13.34
253.04	-13.75
253.258	-10.7
253.475	-8.21
253.693	15.99
253.911	16.94
254.128	13.42
254.346	17.67
254.563	11.34
254.781	8.07
254.998	18.4
255.216	6.53
255.433	10.36
255.651	9.28
255.868	13.29
256.086	9.08
256.303	20.05
256.521	-5.07
256.738	-0.4
256.956	-15.66
257.173	-2.22
257.39	-0.32
257.608	9.28
257.825	-5.77
258.043	8.32
258.26	3.32
258.477	9.88
258.695	3.66
258.912	9.9
259.129	-1.64
259.346	13.19
259.564	1.33
259.781	14.98
259.998	15.79
260.216	23.43
260.433	16.12
260.65	19.15
260.867	-6.83
261.084	3.18
261.302	-5.3
261.519	-25.64
261.736	-34.53
261.953	-32.22
262.17	-20.51
262.387	-4.27
262.604	-16.04
262.822	-9.95
263.039	-0.6
263.256	-3.2
263.473	-1.84
263.69	-0.19
263.907	5.79
264.124	4.8
264.341	6.2
264.558	10.15
264.775	15.35
264.992	8.29
265.209	13.89
265.426	9.84
265.643	14.13
265.86	5.97
266.077	6.39
266.294	6.07
266.51	7.63
266.727	-11.34
266.944	-22.59
267.161	-29.18
267.378	-26.33
267.595	-37.86
267.812	-33.3
268.028	-25.29
268.245	-6.97
268.462	0.92
268.679	-1.36
268.896	-7.88
269.112	3.4
269.329	1.98
269.546	0.73
269.763	-2.75
269.979	1.59
270.196	8.54
270.413	12.45
270.629	14.12
270.846	12.04
271.063	14.3
271.279	8.12
271.496	-7.21
271.712	-3.86
271.929	-2.46
272.146	2.39
272.362	-8.41
272.579	-15.8
272.795	-9.3
273.012	1.3
273.228	-6.3
273.445	-1.06
273.661	-11.06
273.878	0.08
274.094	8.55
274.311	13.81
274.527	10.17
274.744	3.51
274.96	-0.07
275.177	8.12
275.393	12.19
275.609	15.32
275.826	8.94
276.042	17.15
276.259	20.47
276.475	18.19
276.691	18.52
276.908	10.92
277.124	2.69
277.34	-1
277.557	1.38
277.773	0.76
277.989	2.15
278.205	-1.33
278.422	10.74
278.638	22.15
278.854	22.23
279.07	6.28
279.286	10.69
279.503	11.41
279.719	17.11
279.935	-1.28
280.151	-2.24
280.367	-2.47
280.583	10.87
280.799	13.18
281.016	8.93
281.232	-0.97
281.448	2.36
281.664	-4.33
281.88	7.84
282.096	7.9
282.312	-4.51
282.528	-1.46
282.744	-4.61
282.96	0.74
283.176	5.01
283.392	2.39
283.608	-0.94
283.824	1.31
284.04	7.12
284.256	9.81
284.471	13.82
284.687	8.53
284.903	5.37
285.119	-14.05
285.335	-8.01
285.551	-8.55
285.767	-1.66
285.982	-0.17
286.198	1.19
286.414	18.22
286.63	26.88
286.846	24.3
287.061	36.32
287.277	28.06
287.493	28.99
287.709	27.99
287.924	22.3
288.14	23.6
288.356	31.72
288.571	7.33
288.787	19.94
289.003	14.87
289.218	15.6
289.434	9.27
289.65	25.76
289.865	26.28
290.081	27.44
290.296	17.43
290.512	23.52
290.727	23.21
290.943	11.41
291.159	-1
291.374	3.71
291.59	4.62
291.805	14.23
292.021	4.46
292.236	1.79
292.451	13.22
292.667	12.46
292.882	-3.06
293.098	-3.35
293.313	-15.73
293.529	-10.97
293.744	-5.94
293.959	-4.52
294.175	-10.6
294.39	-9.16
294.605	-6.67
294.821	-0.18
295.036	-3.34
295.251	-2.93
295.467	-12.58
295.682	-0.99
295.897	-1.8
296.112	-2.33
296.328	-2.16
296.543	-16.87
296.758	-17.38
296.973	-10.61
297.188	-22.14
297.404	-19.11
297.619	-19.69
297.834	-8.8
298.049	2.14
298.264	6.37
298.479	-3.53
298.694	12.23
298.909	13.67
299.125	16.16
299.34	9.53
299.555	18.93
299.77	7.71
299.985	4.58
300.2	-3.65
300.415	3
300.63	-6.98
300.845	0.13
301.06	-8.03
301.275	2.38
301.49	13.77
301.704	11.26
301.919	4.94
302.134	0.21
302.349	-6.56
302.564	-5.11
302.779	-8.59
302.994	-18.27
303.209	-22.19
303.423	-14.64
303.638	9.76
303.853	16.58
304.068	18.4
304.283	11.85
304.497	15.93
304.712	20.37
304.927	16.59
305.142	15.68
305.356	12.03
305.571	11.52
305.786	12.75
306	12.67
306.215	17.64
306.43	19.1
306.644	13.19
306.859	13.72
307.074	10.62
307.288	7.98
307.503	12.13
307.717	1.36
307.932	0.28
308.147	0.58
308.361	1.87
308.576	2.94
308.79	6.26
309.005	7.02
309.219	16.57
309.434	12.57
309.648	-3.83
309.863	-9.56
310.077	-17
310.292	-14.52
310.506	-5.65
310.72	-9.78
310.935	-5.91
311.149	4.26
311.364	15.97
311.578	17.8
311.792	15.31
312.007	-0.35
312.221	3.68
312.435	5.03
312.649	18.52
312.864	14.86
313.078	24.23
313.292	21.61
313.507	40.71
313.721	33.66
313.935	42.49
314.149	31.2
314.363	30.35
314.578	39.78
314.792	39.29
315.006	36.61
315.22	43.12
315.434	33.82
315.648	30.85
315.862	21.48
316.077	7.5
316.291	10.14
316.505	9.11
316.719	-11.81
316.933	-6.15
317.147	-11.05
317.361	-1.61
317.575	11.26
317.789	9.09
318.003	16.61
318.217	27.03
318.431	30.75
318.645	40.18
318.859	23.48
319.073	8.19
319.287	12.77
319.5	5.2
319.714	6.02
319.928	7.24
320.142	-1.05
320.356	18.75
320.57	21.21
320.784	19.28
320.997	20.84
321.211	19.68
321.425	11.06
321.639	22.46
321.853	19.01
322.066	18.17
322.28	18
322.494	16.7
322.707	9.06
322.921	11.1
323.135	1.22
323.349	-1.41
323.562	1.42
323.776	0.01
323.989	-0.47
324.203	10.67
324.417	6
324.63	-5.72
324.844	-12.63
325.057	-3.04
325.271	-8.99
325.485	-5.31
325.698	-16.29
325.912	-7.27
326.125	16.39
326.339	23.69
326.552	16.91
326.766	29.54
326.979	25.82
327.193	31.96
327.406	33.1
327.619	4.79
327.833	-6.29
328.046	-5.47
328.26	-15.51
328.473	-9.97
328.686	-7.26
328.9	-14.57
329.113	-6.63
329.326	2.48
329.54	2.86
329.753	-0.31
329.966	-1.51
330.179	3.34
330.393	5.33
330.606	6.33
330.819	9.5
331.032	8.36
331.246	4.96
331.459	4.33
331.672	0.59
331.885	0.43
332.098	7.15
332.311	-4.33
332.525	10.68
332.738	18.96
332.951	21.77
333.164	12.7
333.377	5.5
333.59	14.89
333.803	23.04
334.016	8.44
334.229	5.55
334.442	15.74
334.655	31.3
334.868	47.23
335.081	40.22
335.294	33.04
335.507	35
335.72	28.55
335.933	26.5
336.146	17.3
336.359	10.74
336.572	10.38
336.785	14.69
336.997	14.8
337.21	17.36
337.423	6.9
337.636	7.79
337.849	2.71
338.062	0.01
338.274	-2.42
338.487	-3.81
338.7	-1.3
338.913	-1.9
339.125	1.67
339.338	10.68
339.551	10.08
339.763	7.86
339.976	13.43
340.189	10.7
340.402	9.96
340.614	10.8
340.827	-3.62
341.039	-0.67
341.252	2.96
341.465	-7.92
341.677	-13.92
341.89	-12.57
342.102	-12.92
342.315	5.82
342.527	0.95
342.74	4.32
342.952	15.14
343.165	34.48
343.377	39.77
343.59	41.09
343.802	26.44
344.015	33.64
344.227	23.17
344.44	12.42
344.652	10.59
344.864	13.4
345.077	11.8
345.289	15.42
345.502	9.1
345.714	8.07
345.926	16.87
346.139	0.64
346.351	-21.96
346.563	-22.48
346.775	-24.67
346.988	-17.06
347.2	-2.31
347.412	1.22
347.624	12.69
347.837	16.97
348.049	21.43
348.261	25.4
348.473	19.36
348.685	24.43
348.897	21.4
349.11	17.24
349.322	18.12
349.534	-2.63
349.746	-0.77
349.958	10.88
350.17	1.77
350.382	-7.35
350.594	-6.37
350.806	1.02
351.018	19.11
351.23	23.16
351.442	14.59
351.654	14.27
351.866	25.58
352.078	19.72
352.29	19.66
352.502	11.84
352.714	6.66
352.926	5
353.138	3.84
353.35	-3.32
353.561	-9.38
353.773	-6.78
353.985	-0.41
354.197	-11.24
354.409	-11.64
354.621	-6.83
354.832	-13.18
355.044	4.8
355.256	-4.64
355.468	-7.44
355.679	11.67
355.891	13.12
356.103	8.63
356.314	17.83
356.526	6.22
356.738	8.96
356.949	6.8
357.161	-3.96
357.373	-4.47
357.584	6.02
357.796	-5.68
358.008	-0.6
358.219	3.7
358.431	6.1
358.642	3
358.854	5.09
359.065	1.01
359.277	5.51
359.488	4.36
359.7	6.95
359.911	6.07
360.123	15.19
360.334	11.16
360.546	-5.42
360.757	2.51
360.969	10.82
361.18	3.32
361.391	4.84
361.603	5.35
361.814	7.35
362.025	13.89
362.237	11.1
362.448	8.76
362.659	0.19
362.871	-1.11
363.082	5.31
363.293	7.96
363.504	12.81
363.716	10.63
363.927	9.4
364.138	20.61
364.349	20.21
364.56	9.31
364.772	3.2
364.983	-5.09
365.194	-3.28
365.405	-5.96
365.616	-14.93
365.827	-18.14
366.038	-9.15
366.25	-1.74
366.461	8.99
366.672	5.52
366.883	10.65
367.094	8.06
367.305	8.45
367.516	0.35
367.727	-1.38
367.938	-7.88
368.149	-6.63
368.36	-9.07
368.571	-8.99
368.781	-7.16
368.992	1.31
369.203	-5.8
369.414	-3.89
369.625	-2.48
369.836	-2.57
370.047	5.16
370.258	6.64
370.468	3.12
370.679	9.99
370.89	13.9
371.101	8.21
371.312	4.8
371.522	5.34
371.733	-5.01
371.944	-2.08
372.155	-13.91
372.365	-17.08
372.576	-12.78
372.787	-5.07
372.997	-10.39
373.208	-1.88
373.419	-3.92
373.629	5.93
373.84	2.07
374.05	3.98
374.261	-5.22
374.472	-4.79
374.682	-5.4
374.893	-8.46
375.103	-1.13
375.314	4.41
375.524	1.76
375.735	5.75
375.945	6.89
376.156	10.43
376.366	13.32
376.577	13.8
376.787	17.72
376.997	21.36
377.208	16.24
377.418	14.95
377.629	11.45
377.839	17.04
378.049	19.72
378.26	15.75
378.47	20.15
378.68	21.33
378.89	14.67
379.101	5.74
379.311	-6.37
379.521	-6.77
379.732	-18.03
379.942	-22.21
380.152	-18.9
380.362	-4.63
380.572	5.18
380.783	7.69
380.993	-0.41
381.203	9.68
381.413	11.71
381.623	11.82
381.833	4.34
382.043	0.1
382.253	1.64
382.463	4.63
382.674	3.46
382.884	-1.89
383.094	-3.01
383.304	2.21
383.514	5.73
383.724	0.52
383.934	0.44
384.144	1.8
384.353	7.04
384.563	6.19
384.773	6.09
384.983	5.9
385.193	14.5
385.403	16.51
385.613	11.85
385.823	8.32
386.033	8.48
386.242	7.42
386.452	6.5
386.662	1.4
386.872	-2.52
387.082	-1.74
387.291	-3.03
387.501	-5.22
387.711	-5.4
387.921	-6.79
388.13	-5.31
388.34	-3.42
388.55	0.19
388.759	2.47
388.969	1.85
389.179	4.67
389.388	7.01
389.598	3.89
389.807	1.89
390.017	0.5
390.227	0.26
390.436	2.38
390.646	0.12
390.855	-0.46
391.065	1.76
391.274	1.68
391.484	2.84
391.693	1.64
391.903	1.66
392.112	1.65
392.322	2.7
392.531	2.93
392.74	1.99
392.95	1.6
393.159	2.49
393.369	2.1
393.578	1.96
393.787	1.31
393.997	2.21
394.206	3.5
394.415	3.59
394.625	1.65
394.834	1.12
395.043	1.61
395.252	2.42
395.462	1.61
395.671	2.16
395.88	1.78
396.089	3.29
396.298	3.54
396.508	3.34
396.717	2.54
396.926	2.39
397.135	1.94
397.344	1.82
397.553	1.82
397.762	1.95
397.971	1.5
398.181	1.32
398.39	1.63
398.599	1.91
398.808	2.06
399.017	2.06
399.226	2.28
399.435	2.42
399.644	2.73
399.853	2.46
400.062	2.27
400.27	2.24
400.479	2.06
400.688	2.22
400.897	2.45
401.106	2.41
401.315	2.46
401.524	2.62
401.733	2.82
401.941	2.89
402.15	2.6
402.359	2.59
402.568	2.63
402.777	2.5
402.985	2.33
403.194	2.18
403.403	1.97
403.612	2.02
403.82	1.93
404.029	1.79
404.238	1.92
404.446	1.96
404.655	1.92
404.864	1.94
405.072	1.93
405.281	1.86
405.489	1.96
405.698	1.89
405.906	1.8
406.115	1.76
406.324	1.76
406.532	1.84
406.741	1.96
406.949	1.9
407.158	1.97
407.366	2.13
407.574	2.21
407.783	2.13
407.991	1.99
408.2	1.89
408.408	1.93
408.617	1.89
408.825	1.87
409.033	1.81
409.242	1.89
409.45	1.93
409.658	1.97
409.867	1.92
410.075	1.85
410.283	1.72
410.491	1.7
410.7	1.71
410.908	1.71
411.116	1.63
411.324	1.65
411.533	1.64
411.741	1.62
411.949	1.67
412.157	1.82
412.365	1.82
412.573	1.85
412.781	1.88
412.99	1.99
413.198	2.07
413.406	1.98
413.614	1.89
413.822	1.85
414.03	1.77
414.238	1.74
414.446	1.63
414.654	1.59
414.862	1.54
415.07	1.54
415.278	1.48
415.486	1.62
415.694	1.54
415.902	1.47
416.109	1.53
416.317	1.55
416.525	1.56
416.733	1.66
416.941	1.63
417.149	1.77
417.357	1.79
417.564	1.7
417.772	1.79
417.98	1.67
418.188	1.59
418.395	1.58
418.603	1.42
418.811	1.37
419.019	1.42
419.226	1.46
419.434	1.44
419.642	1.4
419.849	1.43
420.057	1.45
420.265	1.51
420.472	1.49
420.68	1.42
420.887	1.5
421.095	1.67
421.302	1.67
421.51	1.78
421.717	1.88
421.925	1.81
422.132	1.76
422.34	1.69
422.547	1.58
422.755	1.52
422.962	1.38
423.17	1.33
423.377	1.46
423.585	1.47
423.792	1.58
423.999	1.61
424.207	1.47
424.414	1.59
424.621	1.59
424.829	1.44
425.036	1.39
425.243	1.36
425.451	1.38
425.658	1.53
425.865	1.39
426.072	1.45
426.28	1.47
426.487	1.49
426.694	1.46
426.901	1.36
427.108	1.31
427.315	1.43
427.523	1.39
427.73	1.46
427.937	1.47
428.144	1.48
428.351	1.57
428.558	1.46
428.765	1.28
428.972	1.3
429.179	1.22
429.386	1.26
429.593	1.26
429.8	1.25
430.007	1.38
430.214	1.45
430.421	1.41
430.628	1.27
430.835	1.18
431.042	1.22
431.249	1.22
431.456	1.24
431.662	1.32
431.869	1.34
432.076	1.54
432.283	1.49
432.49	1.44
432.697	1.44
432.903	1.42
433.11	1.4
433.317	1.42
433.524	1.31
433.73	1.39
433.937	1.35
434.144	1.49
434.35	1.5
434.557	1.48
434.764	1.47
434.97	1.57
435.177	1.59
435.384	1.68
435.59	1.55
435.797	1.59
436.003	1.6
436.21	1.55
436.416	1.52
436.623	1.57
436.829	1.53
437.036	1.56
437.242	1.55
437.449	1.6
437.655	1.62
437.862	1.61
438.068	1.64
438.275	1.68
438.481	1.73
438.687	1.79
438.894	1.7
439.1	1.71
439.307	1.77
439.513	1.7
439.719	1.72
439.926	1.72
440.132	1.68
440.338	1.76
440.544	1.75
440.751	1.76
440.957	1.72
441.163	1.74
441.369	1.68
441.575	1.67
441.782	1.59
441.988	1.62
442.194	1.63
442.4	1.72
442.606	1.68
442.812	1.73
443.018	1.71
443.224	1.8
443.431	1.85
443.637	1.79
443.843	1.84
444.049	1.81
444.255	1.72
444.461	1.74
444.667	1.72
444.873	1.72
445.079	1.78
445.284	1.72
445.49	1.68
445.696	1.75
445.902	1.74
446.108	1.76
446.314	1.78
446.52	1.75
446.726	1.75
446.931	1.81
447.137	1.84
447.343	1.86
447.549	1.86
447.755	1.84
447.96	1.86
448.166	1.92
448.372	1.94
448.578	1.94
448.783	1.89
448.989	1.92
449.195	1.9
449.4	1.9
449.606	1.83
449.812	1.83
450.017	1.8
450.223	1.8
450.428	1.78
450.634	1.82
450.84	1.83
451.045	1.85
451.251	1.88
451.456	1.9
451.662	1.92
451.867	1.94
452.073	1.87
452.278	1.86
452.483	1.86
452.689	1.83
452.894	1.83
453.1	1.8
453.305	1.81
453.51	1.82
453.716	1.83
453.921	1.79
454.127	1.78
454.332	1.76
454.537	1.83
454.742	1.79
454.948	1.77
455.153	1.78
455.358	1.87
455.563	1.86
455.769	1.88
455.974	1.82
456.179	1.81
456.384	1.9
456.589	1.9
456.795	1.82
457	1.88
457.205	1.88
457.41	1.96
457.615	1.99
457.82	2.01
458.025	1.98
458.23	2.02
458.435	1.96
458.64	2
458.845	1.95
459.05	1.95
459.255	1.89
459.46	1.91
459.665	1.95
459.87	1.95
460.075	1.93
460.28	1.95
460.485	2
460.69	1.98
460.895	2
461.099	1.93
461.304	1.93
461.509	1.83
461.714	1.84
461.919	1.8
462.123	1.86
462.328	1.87
462.533	1.9
462.738	1.89
462.942	2.01
463.147	2.01
463.352	2.01
463.556	2.01
463.761	1.98
463.966	2.01
464.17	2.03
464.375	1.98
464.58	1.95
464.784	1.94
464.989	1.91
465.193	1.92
465.398	1.95
465.602	1.94
465.807	1.99
466.011	2.07
466.216	2.13
466.42	2.16
466.625	2.18
466.829	2.2
467.034	2.26
467.238	2.27
467.443	2.24
467.647	2.25
467.851	2.24
468.056	2.26
468.26	2.21
468.464	2.2
468.669	2.23
468.873	2.23
469.077	2.25
469.282	2.32
469.486	2.32
469.69	2.31
469.894	2.34
470.099	2.35
470.303	2.32
470.507	2.29
470.711	2.22
470.915	2.28
471.119	2.32
471.324	2.28
471.528	2.26
471.732	2.31
471.936	2.34
472.14	2.37
472.344	2.32
472.548	2.33
472.752	2.41
472.956	2.45
473.16	2.47
473.364	2.46
473.568	2.5
473.772	2.56
473.976	2.58
474.18	2.56
474.384	2.5
474.588	2.45
474.792	2.46
474.995	2.45
475.199	2.43
475.403	2.41
475.607	2.41
475.811	2.47
476.015	2.55
476.218	2.54
476.422	2.57
476.626	2.55
476.83	2.57
477.033	2.61
477.237	2.59
477.441	2.57
477.644	2.58
477.848	2.54
478.052	2.57
478.255	2.59
478.459	2.64
478.663	2.65
478.866	2.67
479.07	2.72
479.273	2.75
479.477	2.8
479.681	2.79
479.884	2.73
480.088	2.75
480.291	2.75
480.495	2.73
480.698	2.75
480.901	2.69
481.105	2.72
481.308	2.76
481.512	2.79
481.715	2.8
481.919	2.82
482.122	2.84
482.325	2.89
482.529	2.93
482.732	2.95
482.935	2.98
483.138	2.99
483.342	3.02
483.545	3.01
483.748	3.02
483.952	3.01
484.155	3.04
484.358	2.98
484.561	3.02
484.764	3
484.967	3.04
485.171	3.03
485.374	3.01
485.577	2.99
485.78	3.02
485.983	2.99
486.186	3
486.389	2.96
486.592	2.98
486.795	3
486.998	3.01
487.201	3.05
487.404	3.1
487.607	3.1
487.81	3.15
488.013	3.13
488.216	3.13
488.419	3.1
488.622	3.05
488.825	3.01
489.028	3.02
489.231	2.99
489.433	2.98
489.636	2.96
489.839	2.97
490.042	3
490.245	3
490.447	2.98
490.65	3
490.853	3.05
491.056	3.05
491.258	3.06
491.461	3.04
491.664	3.03
491.866	3.07
492.069	3.08
492.272	3.05
492.474	3.08
492.677	3.06
492.879	3.08
493.082	3.12
493.285	3.13
493.487	3.1
493.69	3.08
493.892	3.12
494.095	3.15
494.297	3.15
494.5	3.18
494.702	3.17
494.905	3.19
495.107	3.23
495.309	3.16
495.512	3.22
495.714	3.27
495.917	3.25
496.119	3.33
496.321	3.39
496.524	3.42
496.726	3.45
496.928	3.44
497.13	3.44
497.333	3.47
497.535	3.46
497.737	3.45
497.939	3.48
498.142	3.48
498.344	3.49
498.546	3.5
498.748	3.47
498.95	3.48
499.152	3.45
499.355	3.43
499.557	3.51
499.759	3.54
499.961	3.53
500.163	3.6
500.365	3.6
500.567	3.62
500.769	3.68
500.971	3.62
501.173	3.62
501.375	3.62
501.577	3.64
501.779	3.66
501.981	3.65
502.183	3.6
502.385	3.62
502.587	3.63
502.788	3.64
502.99	3.62
503.192	3.63
503.394	3.7
503.596	3.74
503.798	3.81
503.999	3.85
504.201	3.84
504.403	3.86
504.605	3.91
504.806	3.89
505.008	3.9
505.21	3.88
505.411	3.9
505.613	3.93
505.815	3.94
506.016	3.96
506.218	3.97
506.42	3.99
506.621	4
506.823	4
507.024	3.98
507.226	4.02
507.427	3.99
507.629	4.05
507.83	4.03
508.032	4.08
508.233	4.1
508.435	4.14
508.636	4.12
508.838	4.17
509.039	4.18
509.24	4.2
509.442	4.19
509.643	4.17
509.845	4.15
510.046	4.18
510.247	4.19
510.448	4.2
510.65	4.24
510.851	4.27
511.052	4.31
511.254	4.36
511.455	4.37
511.656	4.38
511.857	4.38
512.058	4.39
512.26	4.38
512.461	4.41
512.662	4.41
512.863	4.43
513.064	4.42
513.265	4.47
513.466	4.5
513.667	4.51
513.868	4.53
514.069	4.55
514.27	4.52
514.471	4.56
514.672	4.55
514.873	4.59
515.074	4.59
515.275	4.59
515.476	4.6
515.677	4.64
515.878	4.67
516.079	4.67
516.28	4.6
516.481	4.61
516.682	4.64
516.882	4.66
517.083	4.67
517.284	4.65
517.485	4.68
517.686	4.69
517.886	4.72
518.087	4.71
518.288	4.7
518.488	4.7
518.689	4.71
518.89	4.73
519.091	4.76
519.291	4.79
519.492	4.82
519.692	4.86
519.893	4.9
520.094	4.91
520.294	4.89
520.495	4.91
520.695	4.92
520.896	4.9
521.096	4.9
521.297	4.91
521.497	4.9
521.698	4.92
521.898	4.93
522.099	4.95
522.299	4.97
522.499	4.99
522.7	5.01
522.9	5.05
523.101	5.08
523.301	5.09
523.501	5.11
523.702	5.12
523.902	5.13
524.102	5.14
524.302	5.16
524.503	5.19
524.703	5.2
524.903	5.2
525.103	5.24
525.304	5.26
525.504	5.28
525.704	5.28
525.904	5.26
526.104	5.3
526.304	5.29
526.504	5.26
526.705	5.27
526.905	5.29
527.105	5.3
527.305	5.3
527.505	5.32
527.705	5.35
527.905	5.37
528.105	5.35
528.305	5.34
528.505	5.35
528.705	5.39
528.905	5.4
529.105	5.43
529.304	5.46
529.504	5.5
529.704	5.5
529.904	5.53
530.104	5.54
530.304	5.54
530.503	5.49
530.703	5.53
530.903	5.56
531.103	5.56
531.303	5.58
531.502	5.6
531.702	5.61
531.902	5.66
532.101	5.67
532.301	5.64
532.501	5.68
532.7	5.67
532.9	5.71
533.1	5.7
533.299	5.73
533.499	5.73
533.698	5.81
533.898	5.81
534.097	5.86
534.297	5.87
534.496	5.91
534.696	5.94
534.895	5.99
535.095	5.95
535.294	5.98
535.494	5.96
535.693	5.96
535.892	5.98
536.092	5.97
536.291	5.98
536.491	6.02
536.69	6.02
536.889	6.03
537.088	6.07
537.288	6.11
537.487	6.14
537.686	6.15
537.886	6.15
538.085	6.22
538.284	6.28
538.483	6.33
538.682	6.36
538.882	6.37
539.081	6.39
539.28	6.45
539.479	6.46
539.678	6.48
539.877	6.46
540.076	6.48
540.275	6.53
540.474	6.54
540.673	6.58
540.872	6.6
541.071	6.63
541.27	6.67
541.469	6.73
541.668	6.77
541.867	6.85
542.066	6.88
542.265	6.92
542.464	6.98
542.663	7.05
542.862	7.05
543.06	7.07
543.259	7.08
543.458	7.09
543.657	7.13
543.856	7.12
544.054	7.16
544.253	7.21
544.452	7.21
544.651	7.22
544.849	7.26
545.048	7.28
545.247	7.32
545.445	7.31
545.644	7.33
545.843	7.41
546.041	7.48
546.24	7.56
546.438	7.6
546.637	7.66
546.836	7.75
547.034	7.8
547.233	7.83
547.431	7.88
547.63	7.91
547.828	7.98
548.027	8.02
548.225	8.07
548.423	8.14
548.622	8.2
548.82	8.26
549.019	8.28
549.217	8.36
549.415	8.44
549.614	8.46
549.812	8.49
550.01	8.53
550.209	8.58
550.407	8.65
550.605	8.68
550.803	8.73
551.002	8.79
551.2	8.92
551.398	8.97
551.596	9.03
551.794	9.12
551.993	9.16
552.191	9.24
552.389	9.34
552.587	9.36
552.785	9.44
552.983	9.5
553.181	9.53
553.379	9.61
553.577	9.7
553.775	9.74
553.973	9.83
554.171	9.93
554.369	10.01
554.567	10.09
554.765	10.14
554.963	10.16
555.161	10.24
555.359	10.25
555.557	10.34
555.755	10.45
555.952	10.52
556.15	10.6
556.348	10.74
556.546	10.86
556.744	10.97
556.941	11.07
557.139	11.16
557.337	11.25
557.535	11.35
557.732	11.43
557.93	11.48
558.128	11.61
558.325	11.68
558.523	11.76
558.721	11.84
558.918	11.92
559.116	11.98
559.313	12.11
559.511	12.14
559.708	12.19
559.906	12.31
560.104	12.41
560.301	12.49
560.498	12.56
560.696	12.59
560.893	12.72
561.091	12.85
561.288	12.89
561.486	12.96
561.683	13.07
561.88	13.18
562.078	13.29
562.275	13.34
562.473	13.43
562.67	13.55
562.867	13.66
563.064	13.76
563.262	13.88
563.459	14.01
563.656	14.14
563.853	14.2
564.051	14.25
564.248	14.34
564.445	14.41
564.642	14.5
564.839	14.63
565.036	14.71
565.234	14.83
565.431	14.92
565.628	15.05
565.825	15.17
566.022	15.25
566.219	15.28
566.416	15.35
566.613	15.45
566.81	15.52
567.007	15.55
567.204	15.63
567.401	15.74
567.598	15.8
567.795	15.86
567.991	15.92
568.188	16.05
568.385	16.15
568.582	16.16
568.779	16.22
568.976	16.29
569.172	16.4
569.369	16.47
569.566	16.55
569.763	16.67
569.96	16.78
570.156	16.79
570.353	16.83
570.55	16.88
570.746	16.92
570.943	16.98
571.14	16.94
571.336	16.99
571.533	17.05
571.729	17.14
571.926	17.18
572.123	17.23
572.319	17.22
572.516	17.31
572.712	17.32
572.909	17.42
573.105	17.46
573.302	17.49
573.498	17.52
573.695	17.56
573.891	17.56
574.087	17.61
574.284	17.58
574.48	17.54
574.677	17.56
574.873	17.62
575.069	17.67
575.266	17.7
575.462	17.68
575.658	17.74
575.854	17.78
576.051	17.81
576.247	17.79
576.443	17.79
576.639	17.82
576.835	17.9
577.032	17.94
577.228	17.97
577.424	18.02
577.62	18.08
577.816	18.11
578.012	18.11
578.208	18.11
578.404	18.08
578.6	18.11
578.796	18.11
578.993	18.09
579.189	18.08
579.384	18.09
579.58	18.1
579.776	18.08
579.972	18.05
580.168	18.03
580.364	18.04
580.56	18.04
580.756	17.99
580.952	17.95
581.148	18
581.343	17.99
581.539	17.97
581.735	17.93
581.931	17.93
582.127	17.98
582.322	18
582.518	17.95
582.714	17.92
582.909	17.91
583.105	17.89
583.301	17.84
583.496	17.78
583.692	17.78
583.888	17.77
584.083	17.83
584.279	17.86
584.474	17.86
584.67	17.94
584.866	17.93
585.061	17.9
585.257	17.87
585.452	17.81
585.648	17.8
585.843	17.81
586.039	17.75
586.234	17.77
586.429	17.74
586.625	17.77
586.82	17.75
587.015	17.72
587.211	17.74
587.406	17.8
587.601	17.82
587.797	17.78
587.992	17.78
588.187	17.87
588.383	17.88
588.578	17.86
588.773	17.82
588.968	17.86
589.163	17.92
589.359	17.93
589.554	17.89
589.749	17.91
589.944	17.91
590.139	17.99
590.334	17.96
590.529	18.04
590.724	18.11
590.919	18.18
591.114	18.23
591.309	18.29
591.504	18.27
591.699	18.32
591.894	18.35
592.089	18.36
592.284	18.39
592.479	18.37
592.674	18.4
592.869	18.46
593.064	18.57
593.259	18.6
593.454	18.61
593.648	18.63
593.843	18.72
594.038	18.8
594.233	18.88
594.428	18.9
594.622	18.94
594.817	19.05
595.012	19.11
595.206	19.16
595.401	19.2
595.596	19.3
595.79	19.37
595.985	19.45
596.18	19.55
596.374	19.62
596.569	19.67
596.763	19.79
596.958	19.8
597.153	19.88
597.347	19.96
597.542	19.98
597.736	20.08
597.931	20.18
598.125	20.26
598.319	20.27
598.514	20.33
598.708	20.35
598.903	20.46
599.097	20.52
599.291	20.56
599.486	20.6
599.68	20.7
599.874	20.76
600.069	20.84
600.263	20.85
600.457	20.92
600.651	20.95
600.846	20.98
601.04	21.01
601.234	21.11
601.428	21.1
601.622	21.14
601.817	21.14
602.011	21.21
602.205	21.25
602.399	21.29
602.593	21.23
602.787	21.28
602.981	21.32
603.175	21.32
603.369	21.32
603.563	21.34
603.757	21.32
603.951	21.31
604.145	21.3
604.339	21.25
604.533	21.24
604.727	21.21
604.921	21.16
605.115	21.11
605.309	21.12
605.502	21.06
605.696	21.05
605.89	21.04
606.084	21
606.278	20.96
606.471	20.93
606.665	20.86
606.859	20.88
607.053	20.79
607.246	20.75
607.44	20.7
607.634	20.66
607.827	20.62
608.021	20.58
608.214	20.5
608.408	20.4
608.602	20.29
608.795	20.21
608.989	20.17
609.182	20.16
609.376	20.09
609.569	20
609.763	20.03
609.956	19.97
610.15	19.94
610.343	19.84
610.537	19.77
610.73	19.75
610.923	19.73
611.117	19.61
611.31	19.57
611.504	19.49
611.697	19.43
611.89	19.3
612.083	19.22
612.277	19.08
612.47	19.03
612.663	18.94
612.856	18.84
613.05	18.74
613.243	18.73
613.436	18.61
613.629	18.62
613.822	18.49
614.015	18.45
614.209	18.47
614.402	18.44
614.595	18.32
614.788	18.25
614.981	18.13
615.174	18.09
615.367	17.99
615.56	17.88
615.753	17.76
615.946	17.74
616.139	17.74
616.332	17.71
616.525	17.7
616.718	17.64
616.911	17.58
617.103	17.53
617.296	17.44
617.489	17.36
617.682	17.33
617.875	17.21
618.067	17.2
618.26	17.19
618.453	17.16
618.646	17.18
618.838	17.1
619.031	17.05
619.224	17.1
619.417	17.06
619.609	17
619.802	16.93
619.994	16.84
620.187	16.88
620.38	16.79
620.572	16.76
620.765	16.71
620.957	16.63
621.15	16.62
621.342	16.61
621.535	16.57
621.727	16.55
621.92	16.48
622.112	16.49
622.305	16.48
622.497	16.49
622.69	16.47
622.882	16.43
623.074	16.41
623.267	16.34
623.459	16.3
623.651	16.3
623.844	16.27
624.036	16.25
624.228	16.23
624.42	16.2
624.613	16.22
624.805	16.21
624.997	16.19
625.189	16.18
625.381	16.1
625.574	16.05
625.766	16.04
625.958	15.98
626.15	15.99
626.342	15.98
626.534	15.93
626.726	15.96
626.918	15.93
627.11	15.94
627.302	15.96
627.494	15.88
627.686	15.83
627.878	15.78
628.07	15.74
628.262	15.7
628.454	15.68
628.646	15.61
628.838	15.57
629.029	15.53
629.221	15.5
629.413	15.47
629.605	15.47
629.797	15.42
629.989	15.42
630.18	15.39
630.372	15.36
630.564	15.35
630.755	15.28
630.947	15.22
631.139	15.16
631.33	15.11
631.522	15.03
631.714	15.06
631.905	15.04
632.097	15.04
632.289	15.01
632.48	14.98
632.672	14.9
632.863	14.93
633.055	14.85
633.246	14.83
633.438	14.8
633.629	14.86
633.821	14.89
634.012	14.91
634.203	14.95
634.395	14.96
634.586	14.91
634.777	14.91
634.969	14.84
635.16	14.81
635.351	14.76
635.543	14.7
635.734	14.67
635.925	14.7
636.117	14.72
636.308	14.71
636.499	14.68
636.69	14.79
636.881	14.8
637.073	14.78
637.264	14.74
637.455	14.73
637.646	14.74
637.837	14.73
638.028	14.69
638.219	14.64
638.41	14.63
638.601	14.62
638.792	14.55
638.983	14.46
639.174	14.43
639.365	14.33
639.556	14.29
639.747	14.28
639.938	14.23
640.129	14.2
640.32	14.18
640.511	14.22
640.701	14.23
640.892	14.24
641.083	14.23
641.274	14.18
641.465	14.18
641.655	14.18
641.846	14.08
642.037	14.03
642.228	13.98
642.418	13.88
642.609	13.88
642.8	13.87
642.99	13.89
643.181	13.91
643.372	13.91
643.562	13.87
643.753	13.91
643.943	13.88
644.134	13.88
644.324	13.82
644.515	13.76
644.705	13.78
644.896	13.75
645.086	13.69
645.277	13.7
645.467	13.63
645.658	13.62
645.848	13.66
646.038	13.62
646.229	13.66
646.419	13.71
646.61	13.7
646.8	13.7
646.99	13.67
647.18	13.64
647.371	13.56
647.561	13.49
647.751	13.4
647.941	13.33
648.132	13.31
648.322	13.31
648.512	13.27
648.702	13.28
648.892	13.3
649.082	13.24
649.272	13.2
649.462	13.17
649.653	13.09
649.843	13.01
650.033	13
650.223	12.93
650.413	12.97
650.603	13
650.793	12.92
650.983	12.92
651.172	12.93
651.362	12.86
651.552	12.79
651.742	12.7
651.932	12.63
652.122	12.64
652.312	12.49
652.502	12.44
652.691	12.44
652.881	12.38
653.071	12.27
653.261	12.23
653.45	12.11
653.64	12.12
653.83	12
654.019	11.85
654.209	11.82
654.399	11.78
654.588	11.65
654.778	11.56
654.968	11.46
655.157	11.34
655.347	11.2
655.536	11.02
655.726	10.95
655.915	10.82
656.105	10.75
656.294	10.62
656.484	10.52
656.673	10.42
656.863	10.34
657.052	10.11
657.241	9.99
657.431	9.8
657.62	9.6
657.809	9.47
657.999	9.34
658.188	9.22
658.377	9.17
658.567	9.06
658.756	8.95
658.945	8.82
659.134	8.68
659.324	8.57
659.513	8.37
659.702	8.21
659.891	8.04
660.08	7.95
660.269	7.9
660.458	7.79
660.648	7.66
660.837	7.54
661.026	7.42
661.215	7.33
661.404	7.22
661.593	7.03
661.782	6.89
661.971	6.75
662.16	6.65
662.349	6.52
662.538	6.44
662.726	6.27
662.915	6.2
663.104	6.05
663.293	5.96
663.482	5.85
663.671	5.76
663.86	5.63
664.048	5.6
664.237	5.54
664.426	5.55
664.615	5.48
664.803	5.43
664.992	5.42
665.181	5.42
665.369	5.29
665.558	5.24
665.747	5.22
665.935	5.23
666.124	5.25
666.312	5.14
666.501	5.08
666.69	5.08
666.878	5.01
667.067	4.95
667.255	4.93
667.444	4.89
667.632	4.87
667.82	4.84
668.009	4.82
668.197	4.85
668.386	4.79
668.574	4.74
668.762	4.67
668.951	4.65
669.139	4.66
669.327	4.62
669.516	4.63
669.704	4.63
669.892	4.63
670.08	4.65
670.269	4.7
670.457	4.67
670.645	4.72
670.833	4.69
671.021	4.68
671.21	4.73
671.398	4.77
671.586	4.79
671.774	4.84
671.962	4.8
672.15	4.78
672.338	4.85
672.526	4.81
672.714	4.8
672.902	4.81
673.09	4.81
673.278	4.87
673.466	5
673.654	5.03
673.842	5.13
674.03	5.18
674.218	5.21
674.405	5.29
674.593	5.32
674.781	5.27
674.969	5.32
675.157	5.3
675.344	5.33
675.532	5.44
675.72	5.46
675.908	5.54
676.095	5.67
676.283	5.71
676.471	5.83
676.658	5.89
676.846	5.94
677.033	6
677.221	6.06
677.409	6.1
677.596	6.24
677.784	6.31
677.971	6.41
678.159	6.47
678.346	6.55
678.534	6.63
678.721	6.72
678.909	6.71
679.096	6.71
679.283	6.76
679.471	6.86
679.658	6.96
679.846	7.03
680.033	7.15
680.22	7.21
680.408	7.33
680.595	7.37
680.782	7.44
680.969	7.49
681.157	7.55
681.344	7.64
681.531	7.75
681.718	7.91
681.905	8.11
682.093	8.26
682.28	8.5
682.467	8.59
682.654	8.67
682.841	8.8
683.028	8.96
683.215	9.08
683.402	9.09
683.589	9.22
683.776	9.42
683.963	9.59
684.15	9.79
684.337	9.91
684.524	10.13
684.711	10.42
684.898	10.6
685.085	10.82
685.271	11.09
685.458	11.34
685.645	11.58
685.832	11.82
686.019	12.08
686.205	12.3
686.392	12.52
686.579	12.76
686.766	13.03
686.952	13.35
687.139	13.59
687.326	13.95
687.512	14.25
687.699	14.71
687.886	15.01
688.072	15.33
688.259	15.67
688.445	16.05
688.632	16.54
688.818	16.92
689.005	17.42
689.191	17.89
689.378	18.32
689.564	18.89
689.751	19.52
689.937	19.85
690.124	20.46
690.31	20.94
690.496	21.57
690.683	22.22
690.869	22.7
691.055	23.28
691.242	23.87
691.428	24.48
691.614	24.98
691.8	25.54
691.987	26.22
692.173	27.04
692.359	27.6
692.545	28.35
692.731	29
692.918	29.77
693.104	30.46
693.29	31.15
693.476	31.76
693.662	32.6
693.848	33.15
694.034	33.82
694.22	34.53
694.406	35.27
694.592	35.99
694.778	36.65
694.964	37.25
695.15	38.06
695.336	38.89
695.522	39.63
695.708	40.33
695.894	41.06
696.08	41.69
696.265	42.35
696.451	43.15
696.637	43.83
696.823	44.42
697.009	45.13
697.194	45.93
697.38	46.57
697.566	47.35
697.751	48.04
697.937	48.74
698.123	49.53
698.308	50.25
698.494	50.81
698.68	51.6
698.865	52.4
699.051	53.01
699.236	53.53
699.422	54.11
699.607	54.45
699.793	55.07
699.978	55.74
700.164	56.27
700.349	56.94
700.535	57.51
700.72	58.15
700.906	59
701.091	59.45
701.276	59.91
701.462	60.49
701.647	60.84
701.832	61.56
702.018	61.96
702.203	62.27
702.388	62.79
702.573	63.42
702.759	63.7
702.944	64.31
703.129	64.66
703.314	65.42
703.499	66.13
703.684	66.69
703.87	67.19
704.055	67.71
704.24	68.25
704.425	69.01
704.61	69.13
704.795	69.53
704.98	69.98
705.165	70.31
705.35	70.96
705.535	71.28
705.72	71.39
705.905	71.66
706.09	71.96
706.275	72.05
706.459	72.48
706.644	72.58
706.829	73.04
707.014	73.38
707.199	73.93
707.384	74.47
707.568	74.99
707.753	75.26
707.938	75.61
708.123	75.69
708.307	76.37
708.492	76.48
708.677	76.64
708.861	76.98
709.046	77.17
709.231	77.51
709.415	78.19
709.6	78.07
709.784	78.62
709.969	78.97
710.153	79.26
710.338	79.55
710.522	79.75
710.707	79.29
710.891	79.68
711.076	79.76
711.26	79.86
711.445	80.1
711.629	80.44
711.813	80.43
711.998	80.85
712.182	81.13
712.366	81.43
712.551	81.73
712.735	81.76
712.919	81.83
713.103	82.23
713.288	82.79
713.472	82.97
713.656	82.83
713.84	82.93
714.024	83.27
714.208	83.4
714.393	83.63
714.577	83.7
714.761	83.6
714.945	83.86
715.129	84.06
715.313	84.19
715.497	84.59
715.681	84.73
715.865	84.9
716.049	85.22
716.233	85.62
716.417	85.91
716.601	85.94
716.785	86
716.968	86.04
717.152	86.11
717.336	86.13
717.52	86.16
717.704	86.42
717.888	86.58
718.071	86.46
718.255	86.8
718.439	86.79
718.622	86.96
718.806	86.74
718.99	86.72
719.174	86.76
719.357	87.04
719.541	87.15
719.724	87.33
719.908	87.53
720.092	88.18
720.275	88.25
720.459	88.43
720.642	88.71
720.826	88.73
721.009	88.81
721.193	88.9
721.376	88.6
721.559	88.8
721.743	89.17
721.926	88.97
722.11	89.06
722.293	88.79
722.476	88.44
722.66	88.94
722.843	88.75
723.026	88.7
723.21	88.91
723.393	89.16
723.576	89.5
723.759	90.03
723.942	89.84
724.126	90.17
724.309	90.03
724.492	90.19
724.675	90.25
724.858	90.65
725.041	90.74
725.224	90.84
725.407	90.34
725.59	90.65
725.774	90.91
725.957	91.06
726.14	91.02
726.322	90.81
726.505	91.07
726.688	91.88
726.871	92.12
727.054	92.2
727.237	91.88
727.42	92.36
727.603	92.77
727.786	93.12
727.968	93.2
728.151	93.48
728.334	93.48
728.517	93.79
728.699	93.7
728.882	94.13
729.065	93.9
729.248	93.63
729.43	93.34
729.613	93.39
729.796	93.3
729.978	93.41
730.161	93.16
730.343	93.41
730.526	93.59
730.708	93.64
730.891	93.5
731.073	94.01
731.256	94.11
731.438	94.49
731.621	94.83
731.803	94.98
731.986	95.24
732.168	95.1
732.35	95.07
732.533	95.04
732.715	95.19
732.898	94.77
733.08	95.12
733.262	94.9
733.444	95.16
733.627	95.15
733.809	95.11
733.991	95.34
734.173	95.31
734.355	95.33
734.538	95.21
734.72	95.86
734.902	95.5
735.084	95.66
735.266	95.35
735.448	95.94
735.63	95.62
735.812	96.17
735.994	95.64
736.176	96
736.358	96.17
736.54	95.84
736.722	95.49
736.904	95.72
737.086	96.01
737.268	96.56
737.45	96.52
737.632	95.9
737.814	95.98
737.995	96.23
738.177	96.3
738.359	96.03
738.541	95.86
738.723	95.88
738.904	96.35
739.086	96.82
739.268	96.92
739.449	97.02
739.631	97.5
739.813	97.31
739.994	97.82
740.176	97.96
740.358	97.83
740.539	98.02
740.721	98.01
740.902	97.54
741.084	98.07
741.265	98.11
741.447	97.53
741.628	97.3
741.81	97.07
741.991	97.4
742.172	97.04
742.354	97.12
742.535	96.78
742.717	97.04
742.898	97.7
743.079	97.89
743.261	97.5
743.442	98.2
743.623	97.9
743.804	98.18
743.986	97.9
744.167	96.85
744.348	96.58
744.529	96.85
744.71	96.01
744.891	96.01
745.073	95.65
745.254	96.63
745.435	96.69
745.616	97.22
745.797	96.26
745.978	97.56
746.159	97.06
746.34	97.45
746.521	97.2
746.702	97.33
746.883	96.95
747.064	97.23
747.245	97.34
747.426	98
747.606	97.97
747.787	98.12
747.968	99.25
748.149	99.17
748.33	100.25
748.51	99.27
748.691	99.75
748.872	99.47
749.053	98.23
749.233	97.34
749.414	97.25
749.595	96.13
749.775	96.11
749.956	94.39
750.137	94.59
750.317	95.33
750.498	95.43
750.678	95.77
750.859	96.2
751.04	96.11
751.22	96.49
751.4	96.53
751.581	96.42
751.761	96.67
751.942	96.88
752.122	96.14
752.303	96.52
752.483	97.51
752.663	98.26
752.844	97.88
753.024	97.38
753.204	96.44
753.385	96.94
753.565	96.04
753.745	95.34
753.925	93.83
754.106	94.34
754.286	95
754.466	95.59
754.646	95.59
754.826	95.79
755.006	95.43
755.187	95.89
755.367	96.02
755.547	95.84
755.727	95.31
755.907	95.8
756.087	96.18
756.267	96.77
756.447	96.87
756.627	96.94
756.807	96.81
756.987	97.26
757.167	96.58
757.346	95.97
757.526	95.98
757.706	95.93
757.886	95.59
758.066	95.24
758.246	94.96
758.425	94.94
758.605	95.7
758.785	96.03
758.965	95.55
759.144	95.82
759.324	96.66
759.504	96.5
759.683	96.59
759.863	96
760.043	94.61
760.222	94.37
760.402	94.63
760.581	93.43
760.761	92.49
760.94	92.2
761.12	92.09
761.299	92.51
761.479	93.82
761.658	92.5
761.838	92.87
762.017	94.01
762.197	95.12
762.376	95.41
762.555	95.65
762.735	94.17
762.914	94.81
763.093	94.62
763.273	94.21
763.452	93.48
763.631	92.73
763.81	93.61
763.99	94.63
764.169	94.64
764.348	95.1
764.527	95.4
764.706	95.48
764.885	96.46
765.064	95.25
765.243	93.67
765.423	94.21
765.602	93.54
765.781	93.08
765.96	92.9
766.139	92.2
766.318	93.26
766.497	94.35
766.676	94.82
766.854	94.43
767.033	94.91
767.212	94.97
767.391	94.13
767.57	93.2
767.749	93.4
767.928	91.81
768.106	92.33
768.285	92.5
768.464	92.6
768.643	93.72
768.821	94.43
769	94.32
769.179	93.9
769.357	94.17
769.536	93.36
769.715	93.33
769.893	93.41
770.072	92.11
770.25	91.61
770.429	92.58
770.607	93.25
770.786	93.57
770.964	93.44
771.143	93.14
771.321	93.41
771.5	92.1
771.678	91.39
771.857	90
772.035	89.78
772.213	89.1
772.392	89.28
772.57	89.33
772.748	90.8
772.927	91.03
773.105	92.16
773.283	91.43
773.461	90.87
773.64	90.04
773.818	89.2
773.996	88.25
774.174	88.35
774.352	87.02
774.531	86.75
774.709	87.67
774.887	87.82
775.065	88.08
775.243	89.9
775.421	89.26
775.599	89.22
775.777	90.05
775.955	90.3
776.133	89.59
776.311	89.56
776.489	88.57
776.667	88.82
776.844	88.46
777.022	87.5
777.2	86.75
777.378	87.88
777.556	88.81
777.734	88.75
777.911	89.86
778.089	89.41
778.267	89.46
778.445	88.43
778.622	86.5
778.8	85.76
778.978	85.79
779.155	83.72
779.333	83.11
779.511	84.33
779.688	84.28
779.866	85.72
780.043	85.98
780.221	85.87
780.398	86.87
780.576	86.4
780.753	84.76
780.931	86.39
781.108	86.98
781.286	86.24
781.463	86.26
781.64	86.1
781.818	86.47
781.995	87.97
782.172	86.26
782.35	85.15
782.527	86.78
782.704	84.9
782.882	85.92
783.059	86.45
783.236	85.63
783.413	87.48
783.59	87.4
783.768	86.55
783.945	88.3
784.122	86.9
784.299	87.61
784.476	87.59
784.653	84.83
784.83	83.61
785.007	83.31
785.184	83.97
785.361	84.54
785.538	84.33
785.715	83.72
785.892	85.15
786.069	87.66
786.246	86.49
786.423	87.04
786.6	86.46
786.776	86.83
786.953	85.84
787.13	87.41
787.307	86.22
787.484	85.92
787.66	83.39
787.837	83.65
788.014	82.74
788.191	83.6
788.367	80.77
788.544	81.21
788.721	82.2
788.897	83.76
789.074	83.4
789.25	85.68
789.427	85.54
789.603	88.46
789.78	88.05
789.956	86.67
790.133	85.29
790.309	83.92
790.486	82.88
790.662	81.8
790.839	81.55
791.015	82.36
791.192	84.77
791.368	87.71
791.544	89.16
791.721	87.18
791.897	88.87
792.073	86.87
792.249	87.78
792.426	87.37
792.602	85.26
792.778	83.91
792.954	84.84
793.13	85.23
793.307	82.29
793.483	80.34
793.659	81.18
793.835	80.46
794.011	79.85
794.187	77.72
794.363	77.73
794.539	80.42
794.715	78.68
794.891	75.3
795.067	74.94
795.243	76.72
795.419	80.26
795.595	78.62
795.771	80.25
795.947	79.27
796.122	80.31
796.298	80.03
796.474	80.18
796.65	78.62
796.826	81.07
797.001	79.78
797.177	83.27
797.353	84.27
797.529	83.01
797.704	81.39
797.88	80.2
798.056	77.21
798.231	76.82
798.407	76.54
798.582	76.06
798.758	79.69
798.934	80.1
799.109	77.11
799.285	78.03
799.46	78.52
799.636	78
799.811	79.19
799.986	78.17
800.162	78.17
800.337	79.55
800.513	80.17
800.688	81.11
800.863	82.01
801.039	77.42
801.214	75.55
801.389	77.71
801.565	83.05
801.74	78.83
801.915	78.26
802.09	77.62
802.265	83.03
802.441	85.2
802.616	83.37
802.791	80.35
802.966	83.36
803.141	78.46
803.316	79.71
803.491	73.19
803.666	72.09
803.841	69.74
804.016	65.27
804.191	65.04
804.366	69.73
804.541	64.12
804.716	64.47
804.891	66.64
805.066	68.99
805.241	69.94
805.416	69.72
805.591	73.23
805.765	78.07
805.94	82.53
806.115	76.11
806.29	78.21
806.464	78.08
806.639	79.14
806.814	73.94
806.989	70.9
807.163	67.8
807.338	70.23
807.512	66.57
807.687	67.21
807.862	65.79
808.036	64.45
808.211	67.17
808.385	63.88
808.56	70.53
808.734	69.74
808.909	72.52
809.083	72.85
809.258	81.04
809.432	78.16
809.606	84.01
809.781	78.28
809.955	81.61
810.13	84.1
810.304	84.32
810.478	78.47
810.652	84.38
810.827	77.55
811.001	75.55
811.175	71.12
811.349	69.47
811.524	66.24
811.698	65.78
811.872	62.19
812.046	66.68
812.22	64.83
812.394	67.21
812.568	68.74
812.742	70.17
812.916	71.7
813.09	66.86
813.264	66.99
813.438	81.21
813.612	74.95
813.786	75.04
813.96	78.57
814.134	79.39
814.308	79.4
814.482	78.93
814.656	72.27
814.83	79.84
815.003	80.07
815.177	77.67
815.351	76.01
815.525	75.46
815.698	73.94
815.872	70.3
816.046	68.08
816.219	65.68
816.393	60.36
816.567	58.56
816.74	64.69
816.914	72.04
817.088	73.05
817.261	74.32
817.435	71.16
817.608	78.39
817.782	85.22
817.955	78.87
818.129	75.27
818.302	80.96
818.475	77.76
818.649	75.4
818.822	73.74
818.996	69.18
819.169	71.01
819.342	68.97
819.516	60.97
819.689	60.94
819.862	57.88
820.035	53.08
820.209	48.03
820.382	49.68
820.555	47.82
820.728	45.85
820.901	49.2
821.075	61.83
821.248	66.43
821.421	68.86
821.594	69.6
821.767	69.51
821.94	71.89
822.113	72.38
822.286	67.91
822.459	74.87
822.632	78
822.805	75.27
822.978	76.17
823.151	79.41
823.324	70.46
823.496	61.35
823.669	55.01
823.842	53.61
824.015	52.08
824.188	50.71
824.361	43.37
824.533	51.95
824.706	68.88
824.879	74.03
825.051	76.04
825.224	79.83
825.397	70.42
825.569	77.34
825.742	75.44
825.915	68.39
826.087	58.92
826.26	56.11
826.432	61
826.605	63.3
826.777	60.6
826.95	49.83
827.122	53.03
827.295	60.54
827.467	50.67
827.64	39.42
827.812	41.14
827.984	44.41
828.157	53.86
828.329	52.88
828.501	50.47
828.674	56.71
828.846	59.17
829.018	54.9
829.19	50.88
829.363	49.82
829.535	44.72
829.707	41.95
829.879	40.97
830.051	41.05
830.223	38.99
830.395	35.08
830.568	37.81
830.74	46.94
830.912	46.56
831.084	44.99
831.256	42.7
831.428	43.27
831.6	40.46
831.772	33.91
831.943	30.86
832.115	39.21
832.287	38.33
832.459	39.8
832.631	47.9
832.803	58.97
832.975	63.99
833.146	56.36
833.318	46.89
833.49	63.2
833.662	64.62
833.833	66.18
834.005	66.4
834.177	62.97
834.348	60.87
834.52	64.19
834.692	60.25
834.863	64.03
835.035	58.16
835.206	50.6
835.378	53.36
835.549	62.23
835.721	64.92
835.892	58.43
836.064	63.61
836.235	67.93
836.407	66.86
836.578	71.1
836.749	75.75
836.921	74.39
837.092	85.29
837.264	68.5
837.435	62.33
837.606	64.81
837.777	58.3
837.949	46.37
838.12	47.31
838.291	45.9
838.462	49.67
838.633	54.87
838.805	54.27
838.976	53.94
839.147	52.11
839.318	45.72
839.489	41.07
839.66	47.78
839.831	37.57
840.002	38.47
840.173	36.1
840.344	44.41
840.515	40.02
840.686	37.77
840.857	24.8
841.028	35.71
841.199	26.14
841.369	16.48
841.54	9.51
841.711	26.9
841.882	30.35
842.053	21.73
842.223	26.42
842.394	43
842.565	68.06
842.736	73.9
842.906	72.51
843.077	60.19
843.248	66.7
843.418	56.81
843.589	58.94
843.759	51.16
843.93	56.8
844.101	55.22
844.271	61.49
844.442	65.05
844.612	53.16
844.783	31.13
844.953	38.01
845.123	29.74
845.294	23.7
845.464	32.83
845.635	31.03
845.805	60.85
845.975	68.08
846.146	60.01
846.316	83.22
846.486	81.49
846.656	72.12
846.827	70.28
846.997	71.18
847.167	73.26
847.337	79.56
847.507	68.85
847.677	76.56
847.848	78.78
848.018	81.77
848.188	59.37
848.358	56.5
848.528	54.54
848.698	40.28
848.868	8.87
849.038	15.4
849.208	26.38
849.378	28.29
849.548	47.78
849.718	38.78
849.887	36.35
850.057	50.03
850.227	39.36
850.397	25.92
850.567	49.55
850.737	35.35
850.906	39.86
851.076	45.66
851.246	42.23
851.415	54.86
851.585	50.4
851.755	37.17
851.924	46.89
852.094	47.57
852.264	42.14
852.433	45.88
852.603	36.09
852.772	34.59
852.942	27.77
853.111	16.77
853.281	16.17
853.45	25.7
853.62	7.81
853.789	7.18
853.959	6.53
854.128	-4.34
854.297	-4.1
854.467	-4.39
854.636	-2.62
854.805	23.84
854.975	38.74
855.144	49.39
855.313	68.37
855.482	61.34
855.652	58.61
855.821	58.72
855.99	57.05
856.159	40.06
856.328	37.35
856.497	24.53
856.667	41.84
856.836	36.45
857.005	35.96
857.174	49.06
857.343	52.44
857.512	39.13
857.681	49.97
857.85	40.11
858.019	47.42
858.188	30.72
858.356	-4.8
858.525	4.45
858.694	9.38
858.863	11.41
859.032	16.03
859.201	9.35
859.369	35.2
859.538	20.86
859.707	13.99
859.876	34.73
860.044	37.73
860.213	28.68
860.382	37.42
860.55	35.16
860.719	69.53
860.888	71.27
861.056	60.27
861.225	69.64
861.393	89.11
861.562	68.49
861.73	53.75
861.899	27.45
862.067	43.52
862.236	40.7
862.404	28.53
862.572	15.94
862.741	20.15
862.909	18.02
863.078	18.05
863.246	5.05
863.414	11.63
863.582	7.14
863.751	12.57
863.919	25.44
864.087	42.47
864.255	39.05
864.424	34.73
864.592	48.34
864.76	63.44
864.928	62.58
865.096	50.34
865.264	57.96
865.432	63.34
865.6	57.77
865.768	19.85
865.936	15.87
866.104	21.61
866.272	11.98
866.44	-65.75
866.608	-56.75
866.776	-12.29
866.944	-10.15
867.112	-52.22
867.28	-97.31
867.448	-35.1
867.615	0.82
867.783	-31.49
867.951	-61.63
868.119	-14.31
868.286	-7.01
868.454	9.18
868.622	-17.75
868.789	-0.9
868.957	24.16
869.125	21.59
869.292	25.93
869.46	22.88
869.627	14.47
869.795	4.42
869.963	3.46
870.13	1.36
870.298	11.85
870.465	-22.88
870.632	-6.77
870.8	-9.5
870.967	9.85
871.135	11.48
871.302	22.39
871.469	17.65
871.637	11.18
871.804	6.4
871.971	11.64
872.139	22.28
872.306	23.89
872.473	-5.79
872.64	1.28
872.807	30.02
872.975	69.86
873.142	70.83
873.309	61.87
873.476	68.64
873.643	145.12
873.81	119.2
873.977	51.96
874.144	22.24
874.311	-51.67
874.478	-67.35
874.645	-66.6
874.812	-38.54
874.979	-45.71
875.146	-98.68
875.313	-113.32
875.48	37.85
875.647	3.06
875.813	-16.35
875.98	-43.9
876.147	-1.11
876.314	-1.06
876.481	-14.54
876.647	-7.08
876.814	19.75
876.981	22.43
877.147	12.47
877.314	0.51
877.481	25.48
877.647	36.23
877.814	15.13
877.98	14.13
878.147	16.76
878.314	28.9
878.48	27.61
878.647	28.47
878.813	23.32
878.979	51.75
879.146	48.56
879.312	60.4
879.479	52.27
879.645	24.47
879.811	12.74
879.978	7.71
880.144	-18.02
880.31	-45.42
880.477	-81.29
880.643	-208.73
880.809	-13
880.975	-61.31
881.142	-48.17
881.308	-51.48
881.474	7.28
881.64	-19.55
881.806	5.25
881.972	28.95
882.138	28.08
882.304	-16.02
882.47	-32.16
882.636	-107.25
882.802	-103.29
882.968	-232.94
883.134	-529.06
883.3	-181.81
883.466	-29.11
883.632	-37.23
883.798	-29.53
883.964	-42.94
884.129	-1.32
884.295	-7.25
884.461	-21.51
884.627	-72
884.793	20.35
884.958	17.89
885.124	-32.42
885.29	-30.58
885.455	-15
885.621	-22.58
885.787	-19.5
885.952	-57.88
886.118	-48.7
886.283	0.75
886.449	-28.6
886.614	-5.66
886.78	37.63
886.945	12.4
887.111	26.96
887.276	4.75
887.442	-1.75
887.607	5.68
887.773	-36.95
887.938	-65.66
888.103	-17.13
888.269	0.67
888.434	4.35
888.599	30.44
888.764	32.8
888.93	69.63
889.095	47.91
889.26	89.58
889.425	73.66
889.59	57.06
889.756	19.95
889.921	21.95
890.086	34.1
890.251	28.32
890.416	-59.32
890.581	-21.98
890.746	-13.67
890.911	-28.11
891.076	-69.89
891.241	-193.98
891.406	-67.38
891.571	-32.83
891.736	-58.93
891.901	-54.18
892.065	-38.74
892.23	-45.09
892.395	-33.03
892.56	-38.99
892.725	-45.85
892.889	-103.29
893.054	-162.4
893.219	-213.61
893.384	-264.55
893.548	-615.83
893.713	1054.7
893.878	557.07
