Data from Ofra_PS_T2_2A_8HS24_Reflection_1.txt Node
Date: Wed Jul 21 17:21:24 EDT 2021
User: Adam
Spectrometer: FLMT01687
Trigger mode: 0
Integration Time (sec): 1.100000E0
Scans to average: 2
Electric dark correction enabled: true
Nonlinearity correction enabled: false
Boxcar width: 2
XAxis mode: Wavelengths
Number of Pixels in Spectrum: 3648
>>>>>Begin Spectral Data<<<<<
179.494	531
179.716	595.76
179.937	549.34
180.158	494.44
180.38	799.22
180.601	383.29
180.823	136
181.044	131.16
181.265	560.85
181.486	185.99
181.708	165.07
181.929	1201.53
182.15	-250.35
182.372	241.98
182.593	200.44
182.814	131.54
183.035	214.3
183.257	138.79
183.478	61.76
183.699	91.22
183.92	53.88
184.141	-14.84
184.363	-52.25
184.584	-33.09
184.805	3.31
185.026	41.34
185.247	61.68
185.468	37.66
185.689	77.87
185.91	56.06
186.132	59.21
186.353	54.43
186.574	135.44
186.795	63.56
187.016	20.07
187.237	-16.05
187.458	-36.74
187.679	-53.34
187.9	-24.39
188.121	-9.8
188.342	2.33
188.563	28.49
188.784	36.81
189.005	38.99
189.226	79.67
189.447	63.14
189.667	4
189.888	-211.7
190.109	-772.4
190.33	-557.9
190.551	-1086.5
190.772	-210.84
190.993	-141.95
191.214	-115.45
191.434	-44.93
191.655	51.81
191.876	21.18
192.097	-30.03
192.318	-56.71
192.538	-125.15
192.759	-135.43
192.98	-65.5
193.201	-12.55
193.421	-5.99
193.642	22.5
193.863	24.97
194.083	4.83
194.304	-8.79
194.525	-19.17
194.745	-76.46
194.966	-78.83
195.187	-52.99
195.407	-74.82
195.628	-95.83
195.848	-62.86
196.069	-31.21
196.29	5.53
196.51	-33.12
196.731	-46.97
196.951	-65.5
197.172	-124.42
197.392	-179.14
197.613	-136.87
197.833	-132.49
198.054	-106.41
198.274	-19.69
198.495	-34.97
198.715	-7.61
198.936	-6.69
199.156	-12.08
199.377	-119.56
199.597	-72.71
199.817	-81.9
200.038	-10.05
200.258	-26.72
200.479	34.48
200.699	20.54
200.919	63.69
201.14	11
201.36	-12.86
201.58	29.25
201.801	63.23
202.021	19.32
202.241	30.43
202.461	36.01
202.682	-22.81
202.902	-120.58
203.122	-42.13
203.342	-50.58
203.563	-14.05
203.783	-0.46
204.003	-24.87
204.223	-39.1
204.443	24.96
204.663	10.35
204.884	16.01
205.104	49.84
205.324	64.66
205.544	52.51
205.764	52.76
205.984	51.46
206.204	61.86
206.424	45.93
206.644	2.88
206.864	-2.44
207.084	-21.03
207.304	-29.17
207.525	-86.48
207.745	-0.14
207.964	43.29
208.184	-1.95
208.404	-63.4
208.624	-67.55
208.844	-74.68
209.064	-352.02
209.284	-345.27
209.504	-144.23
209.724	-9.18
209.944	10.74
210.164	40.28
210.384	47.97
210.604	45.45
210.823	-7.12
211.043	-29.96
211.263	-9.58
211.483	-23.62
211.703	-78.34
211.922	-34.99
212.142	24.84
212.362	18.32
212.582	7.28
212.801	23.28
213.021	-14.59
213.241	-39.3
213.461	-76.49
213.68	-103.3
213.9	-65.7
214.12	-40.72
214.339	-95.54
214.559	-53.58
214.779	17.96
214.998	8.69
215.218	-42.25
215.438	-16.12
215.657	-22.8
215.877	-25.23
216.096	1.05
216.316	27.18
216.535	20.8
216.755	15.18
216.974	-47.13
217.194	-98.35
217.413	-77.42
217.633	-66.04
217.852	-153.89
218.072	-101.37
218.291	-46
218.511	-18.28
218.73	-46.16
218.95	-31.38
219.169	-19.19
219.389	-64.66
219.608	-46.11
219.827	-18.35
220.047	1.47
220.266	13.75
220.485	23.83
220.705	30.16
220.924	1.31
221.143	37.87
221.363	18.5
221.582	35.35
221.801	48
222.021	57.4
222.24	-11.42
222.459	43.24
222.678	-3.21
222.897	-84.61
223.117	-113.59
223.336	-48.06
223.555	-20.54
223.774	33.05
223.993	63.48
224.213	103.95
224.432	65.44
224.651	71.95
224.87	39.21
225.089	53.25
225.308	44.47
225.527	54.22
225.746	56.45
225.965	39.11
226.184	20.3
226.404	30.6
226.623	13.73
226.842	8.75
227.061	33.81
227.28	32.28
227.499	6.89
227.718	25.79
227.936	12.38
228.155	46.26
228.374	42.55
228.593	46.18
228.812	43.33
229.031	41.1
229.25	-44.56
229.469	-56.45
229.688	-30.74
229.907	2.23
230.125	22.77
230.344	45.68
230.563	46.49
230.782	50.72
231.001	-23.58
231.22	-17.09
231.438	17.96
231.657	20.45
231.876	-0.06
232.095	58.1
232.313	41.57
232.532	-2.87
232.751	-35.41
232.969	-54.29
233.188	-196.45
233.407	-74.39
233.625	-46.92
233.844	-63.97
234.063	-21.51
234.281	6.3
234.5	-1.06
234.719	20.95
234.937	53.18
235.156	43.23
235.374	45.76
235.593	35.22
235.811	34.43
236.03	16.74
236.249	-16.87
236.467	-47.36
236.686	-16.02
236.904	-7.46
237.123	-34.59
237.341	-28.75
237.559	-6.44
237.778	-26.54
237.996	-54.2
238.215	-18.95
238.433	-0.2
238.652	-6.32
238.87	-21.31
239.088	-10.02
239.307	2.75
239.525	-6.76
239.743	-38.26
239.962	-23.86
240.18	-45.6
240.398	-118.45
240.617	-108.92
240.835	-99
241.053	-80.15
241.271	-23.59
241.49	19.09
241.708	-0.39
241.926	23.78
242.144	7.46
242.363	-44.53
242.581	-77.76
242.799	-36.86
243.017	-27.92
243.235	-28.27
243.453	-9.94
243.672	-0.75
243.89	-2.78
244.108	-7.52
244.326	15.45
244.544	10.23
244.762	4.5
244.98	13.2
245.198	21.12
245.416	-22.1
245.634	-10.48
245.852	-24.06
246.07	-42.38
246.288	-60.99
246.506	-71.09
246.724	-43.44
246.942	-11.69
247.16	30.87
247.378	50.87
247.596	75.63
247.814	49.76
248.032	13.38
248.25	-21.24
248.468	-14.31
248.685	-21.15
248.903	20.33
249.121	36.17
249.339	26.84
249.557	27.86
249.775	29.53
249.992	-40.9
250.21	-49.59
250.428	-28.97
250.646	-58.82
250.863	-71.99
251.081	-24.09
251.299	0.2
251.517	6.68
251.734	7.27
251.952	1.87
252.17	-7.88
252.387	-5.69
252.605	-28.5
252.823	-12.12
253.04	5.5
253.258	20.67
253.475	17.07
253.693	67
253.911	50.61
254.128	50.72
254.346	60.13
254.563	37.41
254.781	0.36
254.998	-11.56
255.216	-12.64
255.433	-18.79
255.651	42.15
255.868	69.62
256.086	79.04
256.303	68.04
256.521	58.72
256.738	17.81
256.956	-21.38
257.173	-41.07
257.39	-62.81
257.608	-107.13
257.825	5.17
258.043	80.82
258.26	77.11
258.477	111.68
258.695	132.2
258.912	46.29
259.129	34.38
259.346	0.55
259.564	-29.84
259.781	-64.69
259.998	-23.91
260.216	-24.62
260.433	27.51
260.65	39.17
260.867	70.87
261.084	61.77
261.302	54.57
261.519	55.27
261.736	-5.76
261.953	-39.3
262.17	0.16
262.387	-37.17
262.604	-74.81
262.822	-71.85
263.039	-59.39
263.256	-83.5
263.473	-34.46
263.69	-21.3
263.907	12.31
264.124	17.91
264.341	-0.93
264.558	-6.43
264.775	17.48
264.992	19.27
265.209	23.62
265.426	63.64
265.643	66.61
265.86	65.98
266.077	70.32
266.294	53.81
266.51	-3.71
266.727	-23.99
266.944	-25.32
267.161	-43.47
267.378	-20.44
267.595	9.37
267.812	-6.58
268.028	-31.85
268.245	0.71
268.462	-28.61
268.679	-49.45
268.896	24.15
269.112	32.51
269.329	31.82
269.546	50.14
269.763	62.3
269.979	41.41
270.196	29.62
270.413	-3.2
270.629	-31.93
270.846	-46.8
271.063	-43.93
271.279	-57.08
271.496	-47.52
271.712	-15.37
271.929	20.54
272.146	-4.06
272.362	35.66
272.579	55.1
272.795	65.46
273.012	41.1
273.228	50.66
273.445	23.72
273.661	21.17
273.878	-28
274.094	-19.98
274.311	-33.84
274.527	32.73
274.744	35.72
274.96	41.33
275.177	42.23
275.393	49.14
275.609	32
275.826	43.16
276.042	42.79
276.259	21.14
276.475	34
276.691	38.36
276.908	18.25
277.124	21.89
277.34	28.43
277.557	22.25
277.773	-8.42
277.989	-10.67
278.205	-17.32
278.422	-0.19
278.638	-1.35
278.854	23.26
279.07	14.19
279.286	11.37
279.503	-17.64
279.719	-21.89
279.935	-31.56
280.151	-34.07
280.367	-13.87
280.583	-39.61
280.799	-31.42
281.016	-74.63
281.232	-21.41
281.448	-26.35
281.664	5.63
281.88	-11.02
282.096	32.69
282.312	42.87
282.528	80.05
282.744	92.28
282.96	74.84
283.176	42.86
283.392	26.12
283.608	7.09
283.824	-2.25
284.04	6.76
284.256	15.04
284.471	-3.53
284.687	-6.68
284.903	25.35
285.119	47.52
285.335	30.2
285.551	65.13
285.767	50.29
285.982	5.42
286.198	-41.94
286.414	7.83
286.63	18.6
286.846	36.12
287.061	29.2
287.277	52.64
287.493	23.35
287.709	26.52
287.924	11.48
288.14	30.42
288.356	41.78
288.571	66.37
288.787	39.57
289.003	38.96
289.218	35.34
289.434	-16.02
289.65	-13.98
289.865	-3.92
290.081	19.87
290.296	17.98
290.512	31.21
290.727	-8.05
290.943	-15.25
291.159	-23.38
291.374	-12.99
291.59	-36.88
291.805	-17.97
292.021	-6.04
292.236	-3.31
292.451	-2.68
292.667	17.68
292.882	28.64
293.098	21.54
293.313	15.03
293.529	-17.79
293.744	-25.2
293.959	-42.53
294.175	-32.54
294.39	6.75
294.605	27.5
294.821	51.39
295.036	57.04
295.251	59.38
295.467	27.79
295.682	17.78
295.897	-48.41
296.112	-44.14
296.328	-40.62
296.543	-66.54
296.758	-56.54
296.973	-0.05
297.188	27.1
297.404	1.79
297.619	-4.95
297.834	-28.58
298.049	-50.61
298.264	-73.68
298.479	-7.26
298.694	4.12
298.909	27.19
299.125	34.9
299.34	43.2
299.555	6.09
299.77	29.76
299.985	-19.84
300.2	-68.47
300.415	-82.26
300.63	-35.99
300.845	-64.01
301.06	-49.69
301.275	-29.51
301.49	-12.32
301.704	-21.93
301.919	-39.86
302.134	-41.34
302.349	-26.83
302.564	-97.3
302.779	-123.69
302.994	-67.36
303.209	-33.34
303.423	-56.01
303.638	25.02
303.853	-2.36
304.068	0.88
304.283	4.26
304.497	6.66
304.712	-9.2
304.927	4.19
305.142	-5.13
305.356	-8.25
305.571	-1.98
305.786	-9.35
306	-36.89
306.215	-42.88
306.43	-53.5
306.644	-48.64
306.859	-4.07
307.074	24.65
307.288	-10.86
307.503	-0.32
307.717	-17.52
307.932	-23.99
308.147	-38.07
308.361	6.46
308.576	-22.83
308.79	-55.72
309.005	-47.85
309.219	-30.06
309.434	-49.88
309.648	-24.51
309.863	15.85
310.077	13.52
310.292	3.74
310.506	6.35
310.72	13.61
310.935	13.29
311.149	18.31
311.364	38.28
311.578	52.93
311.792	42.76
312.007	39.42
312.221	19.82
312.435	25.46
312.649	5.68
312.864	43.99
313.078	41.51
313.292	99.75
313.507	38.55
313.721	47.52
313.935	16.75
314.149	10.69
314.363	3.72
314.578	22.7
314.792	25.25
315.006	9.46
315.22	23.26
315.434	25.83
315.648	30.14
315.862	36.94
316.077	42.48
316.291	23.03
316.505	42.1
316.719	33.4
316.933	15.46
317.147	26.59
317.361	-18.14
317.575	-60.85
317.789	-112.78
318.003	-207.61
318.217	-175.11
318.431	-79.47
318.645	-6.45
318.859	10.79
319.073	48.76
319.287	29.24
319.5	3.51
319.714	-64.2
319.928	-85.54
320.142	-122.71
320.356	-58.25
320.57	0.19
320.784	-12.82
320.997	-10.64
321.211	-14.38
321.425	-61.74
321.639	-105.41
321.853	-20.94
322.066	-3.19
322.28	-5.95
322.494	-1.85
322.707	18.69
322.921	7.64
323.135	4.52
323.349	15.76
323.562	1.79
323.776	-11
323.989	-13.58
324.203	-40.47
324.417	-52.62
324.63	-79.02
324.844	-76.9
325.057	-80.02
325.271	-40
325.485	-16.81
325.698	11.58
325.912	28.47
326.125	4.26
326.339	-5.79
326.552	-20.9
326.766	-6.69
326.979	-7.6
327.193	44.06
327.406	31.46
327.619	32
327.833	34.09
328.046	16.33
328.26	-30.94
328.473	-6.26
328.686	-33.7
328.9	-38.04
329.113	-21.06
329.326	-25.89
329.54	-9.22
329.753	-5.17
329.966	-39.53
330.179	-29.17
330.393	-15.46
330.606	-9.39
330.819	-0.9
331.032	22.86
331.246	23.94
331.459	59.51
331.672	45.62
331.885	40.99
332.098	20.64
332.311	12.32
332.525	-66.7
332.738	-55.71
332.951	-17.5
333.164	12.6
333.377	28.55
333.59	49.43
333.803	58.89
334.016	45.29
334.229	31.49
334.442	32.98
334.655	59.39
334.868	45.36
335.081	31.15
335.294	16.66
335.507	3.66
335.72	-16.15
335.933	-24.8
336.146	-27.63
336.359	-18.86
336.572	-39.92
336.785	-71.02
336.997	-45.93
337.21	-14.16
337.423	-10.15
337.636	-4.44
337.849	13.49
338.062	-0.05
338.274	-0.39
338.487	-31.59
338.7	-34.28
338.913	-73.04
339.125	-91.5
339.338	-172.99
339.551	-126.46
339.763	-70.56
339.976	-37.61
340.189	-20.42
340.402	1.47
340.614	0.82
340.827	-9.31
341.039	-11.35
341.252	-0.23
341.465	9.68
341.677	12.38
341.89	-32.78
342.102	-9.94
342.315	-23.8
342.527	-54.58
342.74	-38.04
342.952	16.22
343.165	6.55
343.377	27.57
343.59	34.54
343.802	46.08
344.015	43.6
344.227	53.78
344.44	45.82
344.652	45.47
344.864	20.65
345.077	31.66
345.289	33.35
345.502	30.33
345.714	20.25
345.926	31.3
346.139	20.71
346.351	32.9
346.563	42.99
346.775	53.2
346.988	44.38
347.2	28.25
347.412	-27.12
347.624	-58.58
347.837	-83.9
348.049	-63.29
348.261	-12.97
348.473	14.3
348.685	16.15
348.897	22.48
349.11	2.7
349.322	-20.81
349.534	-23.93
349.746	-10.57
349.958	-18.96
350.17	-19.48
350.382	-2.81
350.594	1.52
350.806	1.01
351.018	9.54
351.23	-0.25
351.442	-42.09
351.654	-53.61
351.866	-51.12
352.078	-53.44
352.29	-25.34
352.502	13.07
352.714	25.2
352.926	22.43
353.138	23.21
353.35	11.9
353.561	-2.15
353.773	-21.1
353.985	-11.13
354.197	-13.51
354.409	-8.15
354.621	-15.46
354.832	-8.29
355.044	-25.41
355.256	-30.39
355.468	-19.3
355.679	-12.93
355.891	-4.67
356.103	-8.39
356.314	3.44
356.526	8.47
356.738	8.8
356.949	6.65
357.161	21.46
357.373	20.42
357.584	6.54
357.796	15.44
358.008	9.93
358.219	20.65
358.431	14.53
358.642	18.58
358.854	15.89
359.065	6.77
359.277	-19.3
359.488	-33.56
359.7	-50.84
359.911	-75.61
360.123	-56.37
360.334	-64.46
360.546	-95.66
360.757	-78.29
360.969	-46.94
361.18	-22.36
361.391	-1.21
361.603	6.96
361.814	9.87
362.025	-4.85
362.237	-5.5
362.448	6.63
362.659	30.15
362.871	24.81
363.082	22.2
363.293	5.48
363.504	-4.1
363.716	-33.23
363.927	-35.7
364.138	-56.52
364.349	-62.03
364.56	-55.94
364.772	-38.94
364.983	-10.25
365.194	-5.34
365.405	11.2
365.616	23.27
365.827	25.97
366.038	-3.8
366.25	-2.97
366.461	-38.24
366.672	-19.51
366.883	1.91
367.094	11.24
367.305	3.84
367.516	14.68
367.727	-13.04
367.938	-35.41
368.149	-32.6
368.36	-13.64
368.571	-6.27
368.781	-13.24
368.992	-25.04
369.203	-42.16
369.414	-57.35
369.625	-73.74
369.836	-72.06
370.047	-101.42
370.258	-81.71
370.468	-86.99
370.679	-102.45
370.89	-81.94
371.101	-37.43
371.312	-34.56
371.522	-22.29
371.733	-9.35
371.944	0.77
372.155	-4.04
372.365	-16.08
372.576	-19.62
372.787	-25.42
372.997	-42.41
373.208	-32.08
373.419	-6.8
373.629	-25.96
373.84	-18.16
374.05	-44.14
374.261	-46.18
374.472	-62.12
374.682	-12
374.893	-9.61
375.103	36.96
375.314	31.69
375.524	30.14
375.735	21.36
375.945	21.18
376.156	-9.32
376.366	-1.17
376.577	1.8
376.787	-1.07
376.997	13.56
377.208	13.02
377.418	0.47
377.629	1.63
377.839	3.93
378.049	-4.55
378.26	15.81
378.47	19.53
378.68	14.77
378.89	10.34
379.101	2.79
379.311	-30.91
379.521	-63.53
379.732	-62.38
379.942	-55.05
380.152	-58.54
380.362	-21.11
380.572	-10.25
380.783	1.07
380.993	7.72
381.203	16.93
381.413	28.39
381.623	27.16
381.833	22.12
382.043	4.46
382.253	-11.08
382.463	-17.85
382.674	-21.72
382.884	-44.5
383.094	-36.96
383.304	-21.17
383.514	-17.89
383.724	-4.91
383.934	0.23
384.144	-2.74
384.353	-14.22
384.563	-20.37
384.773	-18.24
384.983	-19.24
385.193	-2.56
385.403	3.51
385.613	2.03
385.823	-9.45
386.033	-6.32
386.242	-14.11
386.452	-14.31
386.662	-21.55
386.872	-7.25
387.082	-6.02
387.291	-16
387.501	-18.3
387.711	-2.72
387.921	-9.89
388.13	-13.23
388.34	2.01
388.55	-4.45
388.759	-9.96
388.969	-3.1
389.179	-0.56
389.388	-4.36
389.598	3.43
389.807	-0.64
390.017	-6.96
390.227	-8.98
390.436	-11.18
390.646	-9.69
390.855	-4.2
391.065	-3.9
391.274	-4.11
391.484	-3.71
391.693	-1.88
391.903	-4.07
392.112	3.6
392.322	3.97
392.531	7.94
392.74	6.82
392.95	2.46
393.159	-1.48
393.369	-0.64
393.578	-3.06
393.787	-4.01
393.997	0.52
394.206	-0.69
394.415	0.57
394.625	0.18
394.834	-0.89
395.043	-1.1
395.252	0.42
395.462	1.83
395.671	4.26
395.88	5.74
396.089	6.76
396.298	5.24
396.508	5.51
396.717	4.1
396.926	4.31
397.135	3.63
397.344	4.08
397.553	3.75
397.762	5.39
397.971	5.11
398.181	5.23
398.39	4.07
398.599	3.41
398.808	2.97
399.017	3.43
399.226	4.65
399.435	6.01
399.644	6.01
399.853	4.83
400.062	4.2
400.27	3.25
400.479	3.01
400.688	2.32
400.897	2.63
401.106	2.66
401.315	2.41
401.524	2.43
401.733	3.51
401.941	3.93
402.15	4.16
402.359	4.08
402.568	4.55
402.777	4.47
402.985	4.31
403.194	4.36
403.403	4.68
403.612	3.96
403.82	3.76
404.029	3.86
404.238	3.58
404.446	3.77
404.655	3.69
404.864	3.59
405.072	3.34
405.281	3.65
405.489	3.2
405.698	3.33
405.906	3.35
406.115	3.27
406.324	3.14
406.532	3.41
406.741	3.63
406.949	3.48
407.158	3.62
407.366	3.62
407.574	3.53
407.783	3.41
407.991	3.22
408.2	3.31
408.408	3.22
408.617	3.06
408.825	2.95
409.033	3.23
409.242	3.3
409.45	3.43
409.658	3.34
409.867	3.45
410.075	3.3
410.283	2.99
410.491	2.81
410.7	2.81
410.908	2.85
411.116	3.08
411.324	3.14
411.533	3.18
411.741	3.58
411.949	3.49
412.157	3.14
412.365	3.15
412.573	3.18
412.781	3.05
412.99	2.84
413.198	3.09
413.406	3.1
413.614	3.06
413.822	2.85
414.03	2.94
414.238	2.72
414.446	2.87
414.654	2.66
414.862	2.81
415.07	2.84
415.278	3.1
415.486	2.82
415.694	2.93
415.902	2.77
416.109	2.7
416.317	2.69
416.525	2.59
416.733	2.65
416.941	2.7
417.149	2.73
417.357	2.64
417.564	2.82
417.772	3.09
417.98	3.14
418.188	3.11
418.395	3.17
418.603	3.4
418.811	2.99
419.019	2.78
419.226	3.02
419.434	2.97
419.642	2.58
419.849	2.77
420.057	2.9
420.265	2.78
420.472	2.52
420.68	2.65
420.887	2.52
421.095	2.54
421.302	2.38
421.51	2.72
421.717	2.82
421.925	2.94
422.132	2.82
422.34	2.66
422.547	2.61
422.755	2.48
422.962	2.26
423.17	2.11
423.377	2.29
423.585	2.23
423.792	2.22
423.999	2.33
424.207	2.52
424.414	2.68
424.621	2.6
424.829	2.54
425.036	2.54
425.243	2.66
425.451	2.49
425.658	2.39
425.865	2.69
426.072	2.78
426.28	2.94
426.487	3.02
426.694	3.23
426.901	2.9
427.108	2.86
427.315	2.61
427.523	2.78
427.73	2.61
427.937	2.58
428.144	2.44
428.351	2.31
428.558	2.37
428.765	2.36
428.972	2.33
429.179	2.58
429.386	3.1
429.593	2.74
429.8	2.72
430.007	2.95
430.214	3
430.421	2.58
430.628	2.58
430.835	2.45
431.042	2.48
431.249	2.46
431.456	2.51
431.662	2.65
431.869	2.85
432.076	2.81
432.283	2.8
432.49	2.81
432.697	2.8
432.903	2.58
433.11	2.54
433.317	2.65
433.524	2.8
433.73	2.75
433.937	3.2
434.144	3.11
434.35	3
434.557	2.85
434.764	2.86
434.97	2.64
435.177	2.8
435.384	2.68
435.59	2.75
435.797	2.97
436.003	2.97
436.21	2.89
436.416	3.1
436.623	2.96
436.829	3
437.036	3.12
437.242	3.19
437.449	3.07
437.655	3.15
437.862	2.93
438.068	2.84
438.275	2.95
438.481	3.09
438.687	2.98
438.894	3.03
439.1	3.02
439.307	3.17
439.513	3.12
439.719	3.2
439.926	3.33
440.132	3.28
440.338	2.99
440.544	3.07
440.751	3.04
440.957	3.06
441.163	2.99
441.369	3.14
441.575	2.88
441.782	2.89
441.988	2.79
442.194	2.82
442.4	2.75
442.606	3.12
442.812	3.32
443.018	3.41
443.224	3.51
443.431	3.65
443.637	3.3
443.843	3.1
444.049	3.03
444.255	2.93
444.461	2.94
444.667	2.94
444.873	3.13
445.079	3.19
445.284	3.42
445.49	3.13
445.696	3.06
445.902	2.9
446.108	2.81
446.314	2.65
446.52	2.85
446.726	3.1
446.931	3.15
447.137	3.21
447.343	3.19
447.549	3.08
447.755	2.92
447.96	2.9
448.166	2.78
448.372	2.79
448.578	2.85
448.783	2.89
448.989	3.02
449.195	3.24
449.4	3.27
449.606	3.26
449.812	3.27
450.017	3.35
450.223	3.17
450.428	3.04
450.634	3.11
450.84	3.25
451.045	3.01
451.251	2.99
451.456	3.26
451.662	3.32
451.867	3.3
452.073	3.35
452.278	3.5
452.483	3.6
452.689	3.45
452.894	3.46
453.1	3.52
453.305	3.46
453.51	3.3
453.716	3.26
453.921	3.23
454.127	3.17
454.332	3.06
454.537	2.96
454.742	3.03
454.948	2.98
455.153	3.04
455.358	3.17
455.563	3.38
455.769	3.53
455.974	3.49
456.179	3.34
456.384	3.34
456.589	3.28
456.795	3.09
457	3.13
457.205	3.41
457.41	3.35
457.615	3.28
457.82	3.33
458.025	3.38
458.23	3.22
458.435	3.27
458.64	3.16
458.845	3.32
459.05	3.22
459.255	3.24
459.46	3.19
459.665	3.22
459.87	3.16
460.075	3.11
460.28	3.1
460.485	3.14
460.69	3.23
460.895	3.12
461.099	3.2
461.304	3.27
461.509	3.31
461.714	3.27
461.919	3.34
462.123	3.29
462.328	3.33
462.533	3.22
462.738	3.3
462.942	3.28
463.147	3.3
463.352	3.3
463.556	3.33
463.761	3.33
463.966	3.32
464.17	3.37
464.375	3.15
464.58	3.19
464.784	3.06
464.989	3.05
465.193	3.05
465.398	3.22
465.602	3.33
465.807	3.37
466.011	3.43
466.216	3.41
466.42	3.43
466.625	3.45
466.829	3.57
467.034	3.56
467.238	3.8
467.443	3.75
467.647	3.62
467.851	3.63
468.056	3.66
468.26	3.47
468.464	3.53
468.669	3.68
468.873	3.8
469.077	3.81
469.282	3.9
469.486	3.99
469.69	3.99
469.894	3.8
470.099	3.86
470.303	3.94
470.507	3.78
470.711	3.57
470.915	3.57
471.119	3.44
471.324	3.34
471.528	3.45
471.732	3.57
471.936	3.57
472.14	3.71
472.344	3.8
472.548	3.83
472.752	3.98
472.956	4.2
473.16	4.06
473.364	3.93
473.568	3.87
473.772	3.85
473.976	3.72
474.18	3.8
474.384	3.85
474.588	3.86
474.792	3.72
474.995	3.77
475.199	3.88
475.403	3.98
475.607	3.98
475.811	3.96
476.015	4.01
476.218	3.95
476.422	3.85
476.626	3.97
476.83	4.15
477.033	4.07
477.237	3.99
477.441	4.08
477.644	4.03
477.848	3.99
478.052	3.98
478.255	4.06
478.459	4.05
478.663	4.21
478.866	4.21
479.07	4.26
479.273	4.38
479.477	4.38
479.681	4.29
479.884	4.28
480.088	4.23
480.291	4.15
480.495	4.1
480.698	4.06
480.901	4.08
481.105	4.22
481.308	4.18
481.512	4.2
481.715	4.27
481.919	4.32
482.122	4.25
482.325	4.29
482.529	4.31
482.732	4.3
482.935	4.19
483.138	4.16
483.342	4.23
483.545	4.34
483.748	4.35
483.952	4.49
484.155	4.63
484.358	4.61
484.561	4.51
484.764	4.47
484.967	4.51
485.171	4.53
485.374	4.46
485.577	4.51
485.78	4.6
485.983	4.56
486.186	4.44
486.389	4.51
486.592	4.5
486.795	4.49
486.998	4.44
487.201	4.51
487.404	4.57
487.607	4.66
487.81	4.66
488.013	4.7
488.216	4.68
488.419	4.63
488.622	4.54
488.825	4.51
489.028	4.44
489.231	4.42
489.433	4.43
489.636	4.37
489.839	4.34
490.042	4.33
490.245	4.3
490.447	4.29
490.65	4.32
490.853	4.34
491.056	4.37
491.258	4.42
491.461	4.46
491.664	4.53
491.866	4.46
492.069	4.65
492.272	4.58
492.474	4.6
492.677	4.58
492.879	4.71
493.082	4.65
493.285	4.79
493.487	4.72
493.69	4.65
493.892	4.57
494.095	4.56
494.297	4.54
494.5	4.59
494.702	4.64
494.905	4.71
495.107	4.64
495.309	4.67
495.512	4.74
495.714	4.8
495.917	4.83
496.119	4.86
496.321	4.87
496.524	4.87
496.726	4.88
496.928	4.86
497.13	4.86
497.333	4.82
497.535	4.79
497.737	4.79
497.939	4.81
498.142	4.84
498.344	4.82
498.546	4.74
498.748	4.73
498.95	4.84
499.152	4.83
499.355	4.85
499.557	4.99
499.759	5.09
499.961	4.98
500.163	5.02
500.365	5.08
500.567	5.12
500.769	5.01
500.971	5
501.173	4.93
501.375	4.97
501.577	4.81
501.779	4.86
501.981	4.92
502.183	4.97
502.385	4.91
502.587	4.87
502.788	4.94
502.99	4.97
503.192	5.03
503.394	5.07
503.596	5.21
503.798	5.25
503.999	5.26
504.201	5.19
504.403	5.23
504.605	5.27
504.806	5.21
505.008	5.21
505.21	5.39
505.411	5.41
505.613	5.43
505.815	5.47
506.016	5.61
506.218	5.65
506.42	5.69
506.621	5.68
506.823	5.76
507.024	5.64
507.226	5.51
507.427	5.49
507.629	5.52
507.83	5.5
508.032	5.53
508.233	5.65
508.435	5.68
508.636	5.75
508.838	5.73
509.039	5.78
509.24	5.79
509.442	5.82
509.643	5.79
509.845	5.8
510.046	5.84
510.247	5.86
510.448	5.87
510.65	5.84
510.851	6
511.052	5.97
511.254	5.89
511.455	6.06
511.656	6.16
511.857	6.18
512.058	6.19
512.26	6.27
512.461	6.12
512.662	6.11
512.863	6.02
513.064	6.04
513.265	6.04
513.466	6.1
513.667	6.09
513.868	6.11
514.069	6.17
514.27	6.22
514.471	6.25
514.672	6.27
514.873	6.24
515.074	6.3
515.275	6.21
515.476	6.2
515.677	6.21
515.878	6.38
516.079	6.31
516.28	6.4
516.481	6.48
516.682	6.53
516.882	6.35
517.083	6.34
517.284	6.28
517.485	6.24
517.686	6.19
517.886	6.24
518.087	6.34
518.288	6.42
518.488	6.39
518.689	6.42
518.89	6.42
519.091	6.35
519.291	6.35
519.492	6.32
519.692	6.34
519.893	6.42
520.094	6.41
520.294	6.37
520.495	6.44
520.695	6.43
520.896	6.39
521.096	6.47
521.297	6.49
521.497	6.44
521.698	6.45
521.898	6.44
522.099	6.38
522.299	6.49
522.499	6.49
522.7	6.5
522.9	6.48
523.101	6.55
523.301	6.52
523.501	6.51
523.702	6.51
523.902	6.6
524.102	6.65
524.302	6.6
524.503	6.71
524.703	6.73
524.903	6.71
525.103	6.64
525.304	6.7
525.504	6.69
525.704	6.77
525.904	6.78
526.104	6.79
526.304	6.82
526.504	6.85
526.705	6.85
526.905	6.9
527.105	6.92
527.305	6.88
527.505	6.82
527.705	6.75
527.905	6.74
528.105	6.76
528.305	6.71
528.505	6.75
528.705	6.84
528.905	6.81
529.105	6.85
529.304	6.95
529.504	7.02
529.704	6.97
529.904	7.03
530.104	7
530.304	7.07
530.503	6.99
530.703	6.97
530.903	6.9
531.103	6.93
531.303	6.93
531.502	6.99
531.702	7.12
531.902	7.19
532.101	7.12
532.301	7.06
532.501	7.1
532.7	7.03
532.9	7.05
533.1	7.12
533.299	7.12
533.499	7.12
533.698	7.12
533.898	7.17
534.097	7.18
534.297	7.26
534.496	7.25
534.696	7.3
534.895	7.35
535.095	7.45
535.294	7.4
535.494	7.37
535.693	7.39
535.892	7.41
536.092	7.26
536.291	7.24
536.491	7.34
536.69	7.35
536.889	7.25
537.088	7.29
537.288	7.4
537.487	7.45
537.686	7.48
537.886	7.55
538.085	7.63
538.284	7.68
538.483	7.61
538.682	7.66
538.882	7.68
539.081	7.74
539.28	7.65
539.479	7.67
539.678	7.65
539.877	7.77
540.076	7.72
540.275	7.78
540.474	7.87
540.673	7.95
540.872	7.87
541.071	7.93
541.27	7.96
541.469	7.97
541.668	7.94
541.867	7.96
542.066	8.02
542.265	8.08
542.464	8.11
542.663	8.13
542.862	8.27
543.06	8.32
543.259	8.33
543.458	8.42
543.657	8.51
543.856	8.51
544.054	8.51
544.253	8.53
544.452	8.47
544.651	8.5
544.849	8.46
545.048	8.5
545.247	8.51
545.445	8.61
545.644	8.54
545.843	8.55
546.041	8.55
546.24	8.65
546.438	8.7
546.637	8.8
546.836	8.96
547.034	9.08
547.233	9.06
547.431	9.01
547.63	9.02
547.828	8.99
548.027	8.97
548.225	9.02
548.423	9.07
548.622	9.2
548.82	9.24
549.019	9.26
549.217	9.36
549.415	9.43
549.614	9.49
549.812	9.54
550.01	9.53
550.209	9.54
550.407	9.6
550.605	9.58
550.803	9.65
551.002	9.8
551.2	9.87
551.398	9.97
551.596	10.08
551.794	10.11
551.993	10.18
552.191	10.25
552.389	10.34
552.587	10.4
552.785	10.43
552.983	10.47
553.181	10.58
553.379	10.55
553.577	10.61
553.775	10.74
553.973	10.8
554.171	10.85
554.369	10.87
554.567	10.87
554.765	10.93
554.963	11
555.161	11.04
555.359	11.17
555.557	11.35
555.755	11.4
555.952	11.52
556.15	11.54
556.348	11.62
556.546	11.67
556.744	11.71
556.941	11.68
557.139	11.87
557.337	11.9
557.535	11.92
557.732	12.04
557.93	12.27
558.128	12.26
558.325	12.35
558.523	12.41
558.721	12.5
558.918	12.44
559.116	12.49
559.313	12.54
559.511	12.71
559.708	12.7
559.906	12.77
560.104	12.84
560.301	12.89
560.498	12.94
560.696	12.99
560.893	13.1
561.091	13.25
561.288	13.38
561.486	13.4
561.683	13.52
561.88	13.61
562.078	13.69
562.275	13.72
562.473	13.84
562.67	14.01
562.867	14.16
563.064	14.27
563.262	14.36
563.459	14.4
563.656	14.5
563.853	14.45
564.051	14.46
564.248	14.57
564.445	14.63
564.642	14.63
564.839	14.84
565.036	15.01
565.234	15.19
565.431	15.3
565.628	15.35
565.825	15.41
566.022	15.45
566.219	15.48
566.416	15.59
566.613	15.72
566.81	15.81
567.007	15.78
567.204	15.73
567.401	15.72
567.598	15.73
567.795	15.66
567.991	15.75
568.188	15.85
568.385	15.95
568.582	16.06
568.779	16.16
568.976	16.25
569.172	16.37
569.369	16.4
569.566	16.48
569.763	16.51
569.96	16.5
570.156	16.46
570.353	16.45
570.55	16.42
570.746	16.56
570.943	16.68
571.14	16.68
571.336	16.77
571.533	16.85
571.729	16.8
571.926	16.86
572.123	16.95
572.319	16.95
572.516	16.99
572.712	17.07
572.909	17.04
573.105	17.11
573.302	17.17
573.498	17.26
573.695	17.24
573.891	17.3
574.087	17.37
574.284	17.38
574.48	17.28
574.677	17.36
574.873	17.33
575.069	17.34
575.266	17.36
575.462	17.39
575.658	17.49
575.854	17.53
576.051	17.62
576.247	17.64
576.443	17.67
576.639	17.55
576.835	17.52
577.032	17.43
577.228	17.5
577.424	17.44
577.62	17.44
577.816	17.46
578.012	17.45
578.208	17.4
578.404	17.48
578.6	17.47
578.796	17.43
578.993	17.45
579.189	17.44
579.384	17.3
579.58	17.34
579.776	17.36
579.972	17.23
580.168	17.19
580.364	17.29
580.56	17.25
580.756	17.19
580.952	17.22
581.148	17.18
581.343	17.15
581.539	17.15
581.735	17.25
581.931	17.38
582.127	17.36
582.322	17.32
582.518	17.4
582.714	17.34
582.909	17.26
583.105	17.33
583.301	17.33
583.496	17.29
583.692	17.19
583.888	17.14
584.083	17.21
584.279	17.21
584.474	17.12
584.67	17.17
584.866	17.2
585.061	16.95
585.257	17
585.452	17.01
585.648	16.98
585.843	16.97
586.039	17.09
586.234	17.04
586.429	17.03
586.625	17.11
586.82	17.03
587.015	17.01
587.211	16.97
587.406	16.95
587.601	16.88
587.797	16.86
587.992	16.86
588.187	16.93
588.383	16.9
588.578	16.97
588.773	17.03
588.968	17.04
589.163	17.1
589.359	17.12
589.554	17.05
589.749	17.04
589.944	17.04
590.139	17.02
590.334	17.01
590.529	17.06
590.724	17.14
590.919	17.25
591.114	17.2
591.309	17.36
591.504	17.45
591.699	17.42
591.894	17.46
592.089	17.52
592.284	17.5
592.479	17.51
592.674	17.55
592.869	17.5
593.064	17.62
593.259	17.69
593.454	17.72
593.648	17.77
593.843	17.81
594.038	17.81
594.233	17.77
594.428	17.83
594.622	17.85
594.817	18
595.012	18.06
595.206	18.11
595.401	18.08
595.596	18.2
595.79	18.23
595.985	18.34
596.18	18.43
596.374	18.56
596.569	18.59
596.763	18.54
596.958	18.53
597.153	18.58
597.347	18.59
597.542	18.66
597.736	18.67
597.931	18.71
598.125	18.7
598.319	18.81
598.514	18.81
598.708	18.95
598.903	18.89
599.097	19.04
599.291	19.02
599.486	18.99
599.68	18.96
599.874	19.16
600.069	19.16
600.263	19.18
600.457	19.33
600.651	19.47
600.846	19.42
601.04	19.46
601.234	19.49
601.428	19.59
601.622	19.53
601.817	19.54
602.011	19.61
602.205	19.71
602.399	19.59
602.593	19.68
602.787	19.78
602.981	19.69
603.175	19.62
603.369	19.52
603.563	19.52
603.757	19.56
603.951	19.63
604.145	19.64
604.339	19.78
604.533	19.67
604.727	19.59
604.921	19.48
605.115	19.48
605.309	19.56
605.502	19.61
605.696	19.59
605.89	19.54
606.084	19.44
606.278	19.27
606.471	19.18
606.665	19.06
606.859	19.02
607.053	18.98
607.246	18.98
607.44	18.96
607.634	18.92
607.827	18.97
608.021	18.85
608.214	18.82
608.408	18.71
608.602	18.67
608.795	18.57
608.989	18.62
609.182	18.54
609.376	18.63
609.569	18.68
609.763	18.55
609.956	18.43
610.15	18.34
610.343	18.21
610.537	18.09
610.73	18.18
610.923	18.13
611.117	18.14
611.31	18.08
611.504	18
611.697	17.83
611.89	17.8
612.083	17.66
612.277	17.68
612.47	17.62
612.663	17.57
612.856	17.51
613.05	17.52
613.243	17.39
613.436	17.28
613.629	17.18
613.822	17.08
614.015	16.95
614.209	16.81
614.402	16.92
614.595	16.97
614.788	16.93
614.981	16.79
615.174	16.69
615.367	16.48
615.56	16.34
615.753	16.27
615.946	16.3
616.139	16.39
616.332	16.44
616.525	16.47
616.718	16.5
616.911	16.44
617.103	16.42
617.296	16.33
617.489	16.26
617.682	16.25
617.875	16.25
618.067	16.11
618.26	16.06
618.453	16.09
618.646	15.99
618.838	16.01
619.031	16.1
619.224	16.07
619.417	15.96
619.609	15.93
619.802	15.82
619.994	15.71
620.187	15.78
620.38	15.72
620.572	15.69
620.765	15.71
620.957	15.64
621.15	15.52
621.342	15.48
621.535	15.5
621.727	15.48
621.92	15.54
622.112	15.42
622.305	15.52
622.497	15.36
622.69	15.35
622.882	15.3
623.074	15.34
623.267	15.28
623.459	15.33
623.651	15.22
623.844	15.23
624.036	15.25
624.228	15.18
624.42	15.16
624.613	15.27
624.805	15.19
624.997	15.18
625.189	15.18
625.381	15.19
625.574	15.06
625.766	15.04
625.958	14.98
626.15	15.04
626.342	15.02
626.534	15.02
626.726	15.01
626.918	15.05
627.11	14.91
627.302	14.89
627.494	14.82
627.686	14.79
627.878	14.65
628.07	14.61
628.262	14.53
628.454	14.61
628.646	14.6
628.838	14.64
629.029	14.57
629.221	14.7
629.413	14.55
629.605	14.45
629.797	14.37
629.989	14.42
630.18	14.29
630.372	14.33
630.564	14.33
630.755	14.44
630.947	14.45
631.139	14.31
631.33	14.18
631.522	14.29
631.714	14.21
631.905	14.17
632.097	14.2
632.289	14.24
632.48	14.13
632.672	13.97
632.863	13.85
633.055	13.92
633.246	13.94
633.438	13.86
633.629	13.92
633.821	13.97
634.012	13.87
634.203	13.83
634.395	13.87
634.586	13.9
634.777	13.8
634.969	13.83
635.16	13.84
635.351	13.83
635.543	13.91
635.734	13.97
635.925	13.93
636.117	13.94
636.308	13.89
636.499	13.7
636.69	13.58
636.881	13.54
637.073	13.56
637.264	13.56
637.455	13.64
637.646	13.77
637.837	13.87
638.028	13.77
638.219	13.81
638.41	13.77
638.601	13.75
638.792	13.72
638.983	13.63
639.174	13.55
639.365	13.61
639.556	13.57
639.747	13.5
639.938	13.66
640.129	13.66
640.32	13.55
640.511	13.57
640.701	13.67
640.892	13.54
641.083	13.56
641.274	13.69
641.465	13.66
641.655	13.5
641.846	13.53
642.037	13.46
642.228	13.35
642.418	13.37
642.609	13.43
642.8	13.42
642.99	13.43
643.181	13.48
643.372	13.52
643.562	13.45
643.753	13.4
643.943	13.36
644.134	13.28
644.324	13.19
644.515	13.13
644.705	13.16
644.896	13.13
645.086	13.17
645.277	13.15
645.467	13.25
645.658	13.26
645.848	13.29
646.038	13.26
646.229	13.23
646.419	13.09
646.61	12.96
646.8	12.9
646.99	12.81
647.18	12.77
647.371	12.78
647.561	12.75
647.751	12.79
647.941	12.69
648.132	12.66
648.322	12.69
648.512	12.77
648.702	12.75
648.892	12.79
649.082	12.81
649.272	12.62
649.462	12.53
649.653	12.41
649.843	12.38
650.033	12.43
650.223	12.57
650.413	12.46
650.603	12.55
650.793	12.56
650.983	12.4
651.172	12.36
651.362	12.43
651.552	12.31
651.742	12.2
651.932	12.23
652.122	12.22
652.312	12.26
652.502	12.3
652.691	12.4
652.881	12.36
653.071	12.29
653.261	12.1
653.45	12.03
653.64	11.96
653.83	11.81
654.019	11.7
654.209	11.69
654.399	11.55
654.588	11.46
654.778	11.51
654.968	11.43
655.157	11.41
655.347	11.4
655.536	11.31
655.726	11.19
655.915	11.09
656.105	11
656.294	10.91
656.484	10.74
656.673	10.61
656.863	10.58
657.052	10.41
657.241	10.22
657.431	10.07
657.62	9.9
657.809	9.65
657.999	9.51
658.188	9.42
658.377	9.28
658.567	9.16
658.756	9.12
658.945	9.02
659.134	8.93
659.324	8.86
659.513	8.9
659.702	8.71
659.891	8.6
660.08	8.48
660.269	8.44
660.458	8.26
660.648	8.17
660.837	8.03
661.026	8.01
661.215	7.86
661.404	7.66
661.593	7.64
661.782	7.48
661.971	7.32
662.16	7.18
662.349	7.18
662.538	6.99
662.726	7.01
662.915	6.83
663.104	6.76
663.293	6.69
663.482	6.77
663.671	6.66
663.86	6.62
664.048	6.57
664.237	6.57
664.426	6.34
664.615	6.38
664.803	6.4
664.992	6.34
665.181	6.11
665.369	6.05
665.558	5.89
665.747	5.75
665.935	5.79
666.124	5.92
666.312	5.95
666.501	5.9
666.69	5.89
666.878	5.87
667.067	5.7
667.255	5.75
667.444	6.07
667.632	6.1
667.82	6.11
668.009	6.16
668.197	6.03
668.386	5.81
668.574	5.9
668.762	5.75
668.951	5.67
669.139	5.65
669.327	5.52
669.516	5.56
669.704	5.59
669.892	5.74
670.08	5.9
670.269	5.86
670.457	5.71
670.645	5.56
670.833	5.63
671.021	5.56
671.21	5.65
671.398	5.92
671.586	6.02
671.774	5.82
671.962	5.81
672.15	5.87
672.338	5.67
672.526	5.77
672.714	5.78
672.902	5.87
673.09	5.95
673.278	6.27
673.466	6.27
673.654	6.46
673.842	6.56
674.03	6.61
674.218	6.34
674.405	6.37
674.593	6.27
674.781	6.32
674.969	6.34
675.157	6.52
675.344	6.66
675.532	6.77
675.72	6.87
675.908	6.87
676.095	6.75
676.283	6.78
676.471	7.06
676.658	7.03
676.846	7.09
677.033	7.24
677.221	7.32
677.409	7.12
677.596	7.12
677.784	7.21
677.971	7.31
678.159	7.32
678.346	7.49
678.534	7.61
678.721	7.84
678.909	7.89
679.096	7.98
679.283	8.21
679.471	8.36
679.658	8.26
679.846	8.42
680.033	8.69
680.22	8.52
680.408	8.47
680.595	8.54
680.782	8.47
680.969	8.42
681.157	8.64
681.344	8.68
681.531	8.77
681.718	8.97
681.905	9.1
682.093	9.31
682.28	9.59
682.467	9.92
682.654	10
682.841	10.12
683.028	10.22
683.215	10.39
683.402	10.24
683.589	10.41
683.776	10.62
683.963	10.52
684.15	10.7
684.337	11.04
684.524	11.34
684.711	11.56
684.898	11.73
685.085	11.81
685.271	12.01
685.458	12.02
685.645	12.06
685.832	12.34
686.019	12.47
686.205	12.53
686.392	12.71
686.579	13.02
686.766	13.47
686.952	13.66
687.139	14.07
687.326	14.34
687.512	14.63
687.699	14.79
687.886	15.17
688.072	15.26
688.259	15.57
688.445	15.9
688.632	16.04
688.818	16.61
689.005	16.97
689.191	17.35
689.378	17.89
689.564	18.32
689.751	18.56
689.937	18.95
690.124	19.28
690.31	19.25
690.496	19.61
690.683	20
690.869	20.45
691.055	20.88
691.242	21.62
691.428	22.25
691.614	22.71
691.8	23.36
691.987	23.99
692.173	24.48
692.359	25.06
692.545	25.67
692.731	26.05
692.918	26.45
693.104	26.57
693.29	27
693.476	27.35
693.662	27.9
693.848	28.42
694.034	29.08
694.22	29.47
694.406	30.03
694.592	30.73
694.778	31.19
694.964	31.59
695.15	32.24
695.336	32.73
695.522	33.27
695.708	33.92
695.894	34.69
696.08	35.33
696.265	35.96
696.451	36.29
696.637	36.87
696.823	37.24
697.009	37.61
697.194	37.89
697.38	38.44
697.566	38.85
697.751	39.57
697.937	40.32
698.123	41.03
698.308	41.42
698.494	42.11
698.68	42.7
698.865	43.14
699.051	43.68
699.236	44.27
699.422	44.5
699.607	44.69
699.793	44.92
699.978	45.27
700.164	45.61
700.349	46.44
700.535	47
700.72	47.39
700.906	47.85
701.091	48.29
701.276	48.45
701.462	49.21
701.647	50.07
701.832	50.53
702.018	51.07
702.203	51.78
702.388	51.85
702.573	52.17
702.759	52.79
702.944	53.05
703.129	52.99
703.314	53.3
703.499	53.31
703.684	53.29
703.87	54.14
704.055	54.84
704.24	55.22
704.425	56.09
704.61	56.6
704.795	56.48
704.98	56.54
705.165	56.81
705.35	56.75
705.535	57.05
705.72	57.54
705.905	58.21
706.09	58.71
706.275	59.03
706.459	59.01
706.644	59.33
706.829	59.52
707.014	59.28
707.199	59.83
707.384	60.45
707.568	60.34
707.753	60.59
707.938	61.25
708.123	61.38
708.307	61.46
708.492	62.15
708.677	62.38
708.861	62.36
709.046	62.15
709.231	62.77
709.415	62.83
709.6	62.76
709.784	63.18
709.969	63.54
710.153	63.4
710.338	63.75
710.522	63.82
710.707	64.02
710.891	64.18
711.076	64.13
711.26	63.9
711.445	64.38
711.629	64.54
711.813	65.06
711.998	65.73
712.182	65.64
712.366	65.97
712.551	66.6
712.735	66.36
712.919	66.15
713.103	66.9
713.288	66.84
713.472	66.37
713.656	67.16
713.84	67.54
714.024	67.8
714.208	67.78
714.393	68.22
714.577	68.11
714.761	68.14
714.945	67.98
715.129	68.3
715.313	68.68
715.497	68.42
715.681	69.08
715.865	69.16
716.049	69.14
716.233	69.14
716.417	69.4
716.601	68.96
716.785	68.76
716.968	68.99
717.152	68.86
717.336	69.13
717.52	69.07
717.704	69.55
717.888	70.15
718.071	70.37
718.255	70.39
718.439	70.63
718.622	70.97
718.806	70.84
718.99	70.57
719.174	70.63
719.357	70.8
719.541	71
719.724	70.9
719.908	71.93
720.092	72.6
720.275	73.24
720.459	73.09
720.642	72.72
720.826	72.51
721.009	71.75
721.193	71.15
721.376	71.12
721.559	71.88
721.743	72.35
721.926	72.91
722.11	73.29
722.293	72.95
722.476	72.21
722.66	71.84
722.843	71.74
723.026	71.13
723.21	71.92
723.393	73.04
723.576	73.08
723.759	72.69
723.942	73.2
724.126	72.8
724.309	72.95
724.492	73.05
724.675	73.43
724.858	73.92
725.041	74.6
725.224	74.32
725.407	74.65
725.59	75.29
725.774	75.16
725.957	74.2
726.14	74.15
726.322	73.93
726.505	73.5
726.688	74.13
726.871	74.92
727.054	75.33
727.237	74.83
727.42	75.47
727.603	75.26
727.786	75.03
727.968	75.18
728.151	75.9
728.334	75.73
728.517	75.84
728.699	76.7
728.882	76.69
729.065	77.21
729.248	77.58
729.43	78.17
729.613	78.59
729.796	78.96
729.978	78
730.161	77.63
730.343	76.66
730.526	76.87
730.708	75.8
730.891	75.88
731.073	76.23
731.256	76.22
731.438	75.74
731.621	77.24
731.803	78.16
731.986	77.6
732.168	77.61
732.35	78.38
732.533	77.58
732.715	77.03
732.898	78.3
733.08	78.78
733.262	79.25
733.444	79.87
733.627	80.62
733.809	80.49
733.991	81.38
734.173	80.6
734.355	79.9
734.538	80.28
734.72	79.91
734.902	79.96
735.084	80.04
735.266	80.55
735.448	80.51
735.63	80.4
735.812	80.02
735.994	80.85
736.176	81.23
736.358	81.7
736.54	82.81
736.722	82.76
736.904	81.7
737.086	81.32
737.268	81.29
737.45	80.64
737.632	80.35
737.814	79.73
737.995	80.05
738.177	79.49
738.359	79.48
738.541	80.07
738.723	81.15
738.904	81.57
739.086	82.32
739.268	81.88
739.449	82.53
739.631	82.03
739.813	81.72
739.994	80.68
740.176	81.68
740.358	80.7
740.539	81.32
740.721	82.23
740.902	83.55
741.084	82.95
741.265	83.01
741.447	83.2
741.628	83.3
741.81	82.13
741.991	83.05
742.172	83.95
742.354	84.46
742.535	84.31
742.717	85.21
742.898	84.93
743.079	85.65
743.261	85.56
743.442	84.97
743.623	85.88
743.804	86.15
743.986	85.91
744.167	84.17
744.348	84.07
744.529	82.78
744.71	81.38
744.891	81.1
745.073	81.22
745.254	81.53
745.435	80.95
745.616	80.71
745.797	80.1
745.978	80.14
746.159	79.92
746.34	79.56
746.521	82.2
746.702	81.13
746.883	82.34
747.064	82.22
747.245	82.27
747.426	81.29
747.606	82.81
747.787	82.81
747.968	83.32
748.149	85.02
748.33	84.57
748.51	83.4
748.691	82.83
748.872	82.85
749.053	82.17
749.233	81.8
749.414	81.99
749.595	81.12
749.775	79.42
749.956	79.08
750.137	79.08
750.317	80.02
750.498	82.92
750.678	83.21
750.859	83.15
751.04	83.28
751.22	81.91
751.4	79.99
751.581	79.59
751.761	80.31
751.942	80.68
752.122	81.9
752.303	81.07
752.483	82.07
752.663	80.87
752.844	80.55
753.024	80.85
753.204	81.88
753.385	81.27
753.565	82.18
753.745	82.36
753.925	81.14
754.106	80.37
754.286	80.5
754.466	81.12
754.646	82.54
754.826	82.9
755.006	82.61
755.187	83.78
755.367	82.93
755.547	81.53
755.727	83.02
755.907	83.18
756.087	84.55
756.267	83.43
756.447	82.45
756.627	79.9
756.807	80.66
756.987	79.32
757.167	80.31
757.346	80.89
757.526	79.71
757.706	80.44
757.886	80.94
758.066	81.83
758.246	84.39
758.425	86.55
758.605	85.23
758.785	83.58
758.965	83.01
759.144	79.34
759.324	79.98
759.504	80.54
759.683	80.83
759.863	79.38
760.043	79.51
760.222	78
760.402	76.86
760.581	76.84
760.761	78.64
760.94	78
761.12	80.62
761.299	82.08
761.479	82.33
761.658	80.71
761.838	81.94
762.017	80.72
762.197	81.59
762.376	82.18
762.555	83.91
762.735	85.32
762.914	84.23
763.093	83.51
763.273	81.48
763.452	80.78
763.631	80.24
763.81	78.85
763.99	77.06
764.169	78.91
764.348	77.19
764.527	75.27
764.706	77.47
764.885	80.41
765.064	78.23
765.243	79.4
765.423	81.22
765.602	81.15
765.781	76.88
765.96	76.52
766.139	76.18
766.318	76.77
766.497	75.39
766.676	77.69
766.854	80.57
767.033	81.09
767.212	79.65
767.391	80.58
767.57	81.14
767.749	79.26
767.928	78.69
768.106	78.5
768.285	75.99
768.464	75.49
768.643	76.22
768.821	76.86
769	78.73
769.179	80.16
769.357	79.06
769.536	78.43
769.715	77.29
769.893	75.96
770.072	75.26
770.25	76.68
770.429	77.19
770.607	77.28
770.786	77.59
770.964	79.42
771.143	77.4
771.321	78.67
771.5	79.6
771.678	77.14
771.857	74.86
772.035	75.21
772.213	73.02
772.392	70.25
772.57	73.5
772.748	75.99
772.927	76.71
773.105	76.47
773.283	79.3
773.461	78
773.64	76.91
773.818	75.66
773.996	77.04
774.174	75.68
774.352	74.19
774.531	71.85
774.709	74.78
774.887	74.42
775.065	74.34
775.243	74.68
775.421	76.75
775.599	76.46
775.777	73.56
775.955	70.08
776.133	69.58
776.311	68.74
776.489	65.91
776.667	66.89
776.844	71.37
777.022	69.86
777.2	70.75
777.378	71.73
777.556	74.01
777.734	76.17
777.911	80.08
778.089	78.69
778.267	79.6
778.445	78.68
778.622	75.26
778.8	73.24
778.978	75.06
779.155	71.54
779.333	71.79
779.511	71.9
779.688	75.03
779.866	71.71
780.043	73.06
780.221	71.57
780.398	70.75
780.576	70.45
780.753	74.13
780.931	73.54
781.108	72.8
781.286	75.77
781.463	71.39
781.64	67.41
781.818	68.21
781.995	70.92
782.172	68.02
782.35	69.85
782.527	73.67
782.704	73.95
782.882	73.42
783.059	73.59
783.236	75
783.413	76.78
783.59	77.2
783.768	72.59
783.945	73.3
784.122	72.87
784.299	70.93
784.476	68.54
784.653	71.46
784.83	69.08
785.007	63.36
785.184	61.38
785.361	60.72
785.538	64.72
785.715	68.88
785.892	73.89
786.069	78.88
786.246	80.75
786.423	77.12
786.6	74.62
786.776	76.44
786.953	71.5
787.13	74.87
787.307	75.43
787.484	75.46
787.66	71.91
787.837	72.61
788.014	68.12
788.191	65.55
788.367	65.13
788.544	69.41
788.721	71.02
788.897	74.41
789.074	77.11
789.25	74.83
789.427	71.54
789.603	67.21
789.78	66.89
789.956	62.5
790.133	62.34
790.309	63.9
790.486	68.84
790.662	65.34
790.839	68.6
791.015	70.06
791.192	66.52
791.368	65.35
791.544	65.73
791.721	66.06
791.897	65.04
792.073	64.94
792.249	58.06
792.426	59.67
792.602	60.9
792.778	64.14
792.954	61.96
793.13	64.6
793.307	59.84
793.483	53.54
793.659	50.82
793.835	56.18
794.011	55.44
794.187	55.55
794.363	54.75
794.539	58.25
794.715	51.01
794.891	53.6
795.067	56.02
795.243	67.48
795.419	64.34
795.595	65.43
795.771	61.86
795.947	60.19
796.122	53.66
796.298	56.62
796.474	64.63
796.65	69.68
796.826	71.28
797.001	70.85
797.177	65.95
797.353	65.96
797.529	66.19
797.704	65.1
797.88	63.79
798.056	64.14
798.231	56.69
798.407	63.58
798.582	67.57
798.758	72.78
798.934	79.99
799.109	81.74
799.285	70.13
799.46	70.44
799.636	69.64
799.811	63.42
799.986	61.71
800.162	67.25
800.337	65.98
800.513	59.86
800.688	57.72
800.863	74.22
801.039	67.55
801.214	64.47
801.389	69.37
801.565	66.25
801.74	47
801.915	52.54
802.09	55.5
802.265	61.73
802.441	67.56
802.616	73.27
802.791	71
802.966	69.75
803.141	65.01
803.316	57.2
803.491	58.71
803.666	61.19
803.841	59.91
804.016	60.02
804.191	64.91
804.366	54.19
804.541	53.58
804.716	54.74
804.891	49.96
805.066	57.68
805.241	64.21
805.416	60.48
805.591	51.15
805.765	54.47
805.94	55.2
806.115	53.38
806.29	49.35
806.464	63.36
806.639	59.84
806.814	51.6
806.989	44.98
807.163	56.68
807.338	54.01
807.512	51.06
807.687	43.49
807.862	63.33
808.036	67.12
808.211	65.79
808.385	73.08
808.56	81.1
808.734	77.86
808.909	64.91
809.083	62.93
809.258	71.59
809.432	78.13
809.606	66.58
809.781	65.73
809.955	69.35
810.13	66.1
810.304	54.43
810.478	48.89
810.652	56
810.827	57.39
811.001	55.07
811.175	56.33
811.349	61.73
811.524	55.55
811.698	40.47
811.872	38.27
812.046	47.72
812.22	59.18
812.394	57.55
812.568	68.24
812.742	73.53
812.916	69.51
813.09	55.36
813.264	56.94
813.438	62.74
813.612	55.55
813.786	47.53
813.96	56.92
814.134	59.79
814.308	61.93
814.482	69.27
814.656	67.15
814.83	71.76
815.003	76.75
815.177	64.2
815.351	54.08
815.525	53.67
815.698	40.54
815.872	27.87
816.046	21.93
816.219	29.21
816.393	46.01
816.567	54.43
816.74	59.07
816.914	67.99
817.088	71.1
817.261	56.46
817.435	35.47
817.608	46.36
817.782	41.75
817.955	50.31
818.129	49.47
818.302	63.42
818.475	73.6
818.649	74.43
818.822	57.99
818.996	81.53
819.169	82.62
819.342	54.28
819.516	65.09
819.689	69.57
819.862	58.36
820.035	48.61
820.209	57.12
820.382	52.13
820.555	60.91
820.728	41.46
820.901	42.32
821.075	43.44
821.248	42.96
821.421	23.65
821.594	36.99
821.767	64.14
821.94	81.86
822.113	56.51
822.286	55.62
822.459	54.15
822.632	26.65
822.805	0.25
822.978	16.94
823.151	21.12
823.324	15.36
823.496	12.96
823.669	12.17
823.842	6.9
824.015	-8.7
824.188	9.15
824.361	27.01
824.533	24.9
824.706	43.19
824.879	56.23
825.051	57.9
825.224	47.36
825.397	40.86
825.569	19.74
825.742	32.26
825.915	29.8
826.087	38.74
826.26	27.65
826.432	33.5
826.605	18.12
826.777	16.36
826.95	13.91
827.122	24.7
827.295	22.39
827.467	31.68
827.64	-0.22
827.812	-9.42
827.984	-11.12
828.157	-23.61
828.329	-48.28
828.501	-34.2
828.674	3.23
828.846	3.27
829.018	30.19
829.19	8.69
829.363	44.17
829.535	28.98
829.707	26.71
829.879	-0.73
830.051	-2.47
830.223	-13.74
830.395	-35.07
830.568	-31.89
830.74	-37.5
830.912	10.87
831.084	-4.61
831.256	-5.25
831.428	-19.87
831.6	-20.76
831.772	-65.34
831.943	-73.84
832.115	-32.69
832.287	7.23
832.459	20.37
832.631	41.35
832.803	64.39
832.975	69.94
833.146	50.5
833.318	54.97
833.49	57.64
833.662	50.21
833.833	26.67
834.005	25.76
834.177	29.58
834.348	15.27
834.52	-13.65
834.692	-3.89
834.863	-5.53
835.035	-22.31
835.206	-74.09
835.378	-33.71
835.549	-29.65
835.721	-28.89
835.892	-27.1
836.064	-6.98
836.235	-14.19
836.407	-7.56
836.578	-44.78
836.749	-24.94
836.921	-68.42
837.092	-88.11
837.264	-79.94
837.435	-60.32
837.606	-13.04
837.777	25.82
837.949	44.72
838.12	45.37
838.291	38.53
838.462	11.97
838.633	-17.59
838.805	-26.12
838.976	-32.93
839.147	-74.63
839.318	-70.71
839.489	-99.86
839.66	-79.55
839.831	-38.31
840.002	-35.42
840.173	-45.76
840.344	10.98
840.515	18.27
840.686	-146.42
840.857	-120.03
841.028	-96.69
841.199	-78.69
841.369	-106.26
841.54	-67.54
841.711	-17.61
841.882	12.75
842.053	7.92
842.223	14.1
842.394	37.34
842.565	42.18
842.736	22.72
842.906	18.02
843.077	37.61
843.248	42.27
843.418	37.19
843.589	7.17
843.759	84.72
843.93	32.39
844.101	21.87
844.271	10.39
844.442	21.23
844.612	18.66
844.783	-7.7
844.953	-65.15
845.123	-76.73
845.294	-76.98
845.464	-288.58
845.635	-149.14
845.805	0.39
845.975	14.14
846.146	-16.26
846.316	-22.02
846.486	18.04
846.656	53.14
846.827	29.62
846.997	25.94
847.167	78.24
847.337	32.01
847.507	-37.91
847.677	-0.07
847.848	56.37
848.018	43.22
848.188	47.24
848.358	25.64
848.528	20.25
848.698	-24.71
848.868	-76.66
849.038	-175.37
849.208	-35.02
849.378	7.61
849.548	6.26
849.718	4.39
849.887	29.75
850.057	5.4
850.227	-51.97
850.397	-96.05
850.567	-249.46
850.737	-592.5
850.906	-1624.69
851.076	-1020.12
851.246	-353.8
851.415	-23.63
851.585	0.22
851.755	-23.52
851.924	26.53
852.094	-30.76
852.264	-102.38
852.433	-938.22
852.603	-199.2
852.772	-154.86
852.942	-40.26
853.111	-62.95
853.281	-11.33
853.45	13.74
853.62	-79.97
853.789	-92.96
853.959	-73.43
854.128	-107.4
854.297	-106.77
854.467	-101.01
854.636	-80.5
854.805	-20.04
854.975	-53.49
855.144	-79.93
855.313	133.74
855.482	-81.57
855.652	-119.63
855.821	-33.36
855.99	57.23
856.159	33.06
856.328	33.01
856.497	29.31
856.667	30.51
856.836	13.26
857.005	-13.71
857.174	-51.35
857.343	-46.67
857.512	-23.76
857.681	-106.7
857.85	-177.69
858.019	-86.92
858.188	-70.88
858.356	-98.88
858.525	-102.33
858.694	-60.02
858.863	-167.38
859.032	-152.72
859.201	-200.69
859.369	-191.52
859.538	-155.9
859.707	-123.35
859.876	-165.83
860.044	-114.24
860.213	-7.74
860.382	-33.96
860.55	-20.97
860.719	33.91
860.888	49.55
861.056	11.05
861.225	38.7
861.393	91.55
861.562	78.86
861.73	-6.59
861.899	-93.06
862.067	-1523.28
862.236	-42.83
862.404	-144.6
862.572	-73.95
862.741	1.71
862.909	3.76
863.078	-98.24
863.246	-50.56
863.414	-24.92
863.582	-17.12
863.751	-53.49
863.919	-57.43
864.087	2.66
864.255	36.18
864.424	-226.2
864.592	-13.97
864.76	-55.84
864.928	-391.8
865.096	-326.99
865.264	-166.78
865.432	-1978.98
865.6	-117.38
865.768	-109.52
865.936	-64.79
866.104	-49.61
866.272	5.39
866.44	-190.45
866.608	452.04
866.776	274.86
866.944	2925
867.112	-576.17
867.28	-262.04
867.448	-80.26
867.615	-21.38
867.783	13.62
867.951	-21.65
868.119	0.99
868.286	-73.38
868.454	-248.21
868.622	-256.5
868.789	-258.55
868.957	-2469.64
869.125	-2062.5
869.292	-85.69
869.46	-125.86
869.627	15.93
869.795	-32.29
869.963	17.07
870.13	38.14
870.298	40.45
870.465	-18.39
870.632	-40.28
870.8	-37.46
870.967	-142
871.135	-188.94
871.302	-163.3
871.469	-132.91
871.637	-131.58
871.804	-46.29
871.971	-81.97
872.139	-340.81
872.306	6.29
872.473	-27.19
872.64	-166.42
872.807	-94.72
872.975	14.98
873.142	-250.09
873.309	1575
873.476	26.73
873.643	151.63
873.81	87.39
873.977	72.36
874.144	34.74
874.311	-86.29
874.478	-132.84
874.645	-172.45
874.812	-72.5
874.979	-32.91
875.146	-57.09
875.313	-69.18
875.48	10.9
875.647	-19.03
875.813	-47.76
875.98	-24.13
876.147	-52.53
876.314	-95.34
876.481	987.4
876.647	-1241.29
876.814	448.06
876.981	-33.75
877.147	-42.99
877.314	15.54
877.481	47.6
877.647	37.37
877.814	12.85
877.98	7.91
878.147	34.25
878.314	57.22
878.48	29.34
878.647	23.19
878.813	42.1
878.979	39.9
879.146	-14.46
879.312	-18.22
879.479	-61.92
879.645	-137.39
879.811	-351.34
879.978	-742.56
880.144	-255.55
880.31	-161.58
880.477	-433.36
880.643	-440.76
880.809	-207.56
880.975	-107.29
881.142	-617.05
881.308	-63.43
881.474	-26.73
881.64	2.18
881.806	-48.2
881.972	46.3
882.138	104.17
882.304	230.62
882.47	69.83
882.636	-3.07
882.802	-64.25
882.968	29.7
883.134	23.89
883.3	12.39
883.466	52.79
883.632	81.35
883.798	35.72
883.964	13.4
884.129	29.64
884.295	41.92
884.461	-17.41
884.627	-19.7
884.793	-40.44
884.958	-7.16
885.124	-120.79
885.29	-237.45
885.455	-392.11
885.621	-121.44
885.787	-199.94
885.952	-57.95
886.118	-36.17
886.283	-25.85
886.449	-99.79
886.614	-96.56
886.78	-191.83
886.945	788.11
887.111	-550.14
887.276	-407.81
887.442	-816.14
887.607	-364.03
887.773	-310.75
887.938	-277.48
888.103	-371.75
888.269	-255.95
888.434	-459.32
888.599	-131.69
888.764	19.78
888.93	42.49
889.095	19.81
889.26	-33.69
889.425	2.67
889.59	-28.06
889.756	-59.6
889.921	-32.41
890.086	37.29
890.251	31.12
890.416	-97.65
890.581	-910.89
890.746	35.63
890.911	101.75
891.076	113.49
891.241	-148.32
891.406	126.76
891.571	57.41
891.736	-109.06
891.901	-218.36
892.065	83.24
892.23	130.06
892.395	241.44
892.56	378.25
892.725	-659.18
892.889	-1838.41
893.054	-314.43
893.219	-125.75
893.384	-57.9
893.548	-104.27
893.713	-136.49
893.878	-92.87
