Data from Ofra_2a_PS_1GT42_Reflection_1.txt Node
Date: Tue Jul 20 09:34:58 EDT 2021
User: Adam
Spectrometer: FLMT01687
Trigger mode: 0
Integration Time (sec): 9.450000E-1
Scans to average: 3
Electric dark correction enabled: true
Nonlinearity correction enabled: false
Boxcar width: 3
XAxis mode: Wavelengths
Number of Pixels in Spectrum: 3648
>>>>>Begin Spectral Data<<<<<
179.494	699.41
179.716	468.75
179.937	490.66
180.158	990.23
180.38	-143.9
180.601	-13.66
180.823	-22.4
181.044	64.24
181.265	12.56
181.486	56.6
181.708	-1933.7
181.929	-156.63
182.15	-758.52
182.372	117.24
182.593	43.41
182.814	321.11
183.035	267.46
183.257	163.05
183.478	69.72
183.699	84.93
183.92	72.62
184.141	61.6
184.363	39.7
184.584	21.61
184.805	0.67
185.026	-24.71
185.247	-49.25
185.468	-31.49
185.689	-1.94
185.91	11.04
186.132	9.2
186.353	11.46
186.574	15.8
186.795	17.36
187.016	12.77
187.237	-8.88
187.458	-25.91
187.679	-19.51
187.9	-11
188.121	-11.98
188.342	12.88
188.563	3.87
188.784	14.61
189.005	8.77
189.226	9.41
189.447	12.51
189.667	13.86
189.888	17.4
190.109	20.22
190.33	2.17
190.551	16.12
190.772	19.63
190.993	22.57
191.214	33.11
191.434	32.02
191.655	37.41
191.876	51.43
192.097	38.72
192.318	39.89
192.538	39.4
192.759	35.7
192.98	21.31
193.201	29.59
193.421	27.83
193.642	40.74
193.863	31.38
194.083	13.21
194.304	-2.66
194.525	27.28
194.745	6.44
194.966	7.01
195.187	4.35
195.407	8.27
195.628	20.12
195.848	25.29
196.069	11.98
196.29	2.53
196.51	-3.31
196.731	-2.61
196.951	-8.39
197.172	-28.05
197.392	-7.9
197.613	-11.89
197.833	-3.16
198.054	-4.73
198.274	-15
198.495	-2.65
198.715	9.48
198.936	20.17
199.156	38.39
199.377	45.36
199.597	45.59
199.817	49.69
200.038	46.62
200.258	37.31
200.479	34.61
200.699	30.09
200.919	10.45
201.14	15.7
201.36	6.93
201.58	7.5
201.801	18.44
202.021	20.74
202.241	23.43
202.461	41.97
202.682	40.82
202.902	47.58
203.122	42.42
203.342	52.11
203.563	54.63
203.783	49.58
204.003	42.18
204.223	47.06
204.443	42.68
204.663	47.27
204.884	41.67
205.104	45.13
205.324	62.69
205.544	61.92
205.764	61.68
205.984	69.45
206.204	61.08
206.424	46.6
206.644	42.79
206.864	31.58
207.084	44.52
207.304	36.13
207.525	25.93
207.745	20.57
207.964	17.3
208.184	9.28
208.404	4.85
208.624	-36.01
208.844	-28.39
209.064	-18.99
209.284	-6.43
209.504	2.93
209.724	-30.41
209.944	-27.44
210.164	-1.31
210.384	3.15
210.604	-7.65
210.823	-13.35
211.043	-18.06
211.263	23.91
211.483	22.96
211.703	30.1
211.922	23.72
212.142	30.79
212.362	37.32
212.582	32.66
212.801	24.96
213.021	23.38
213.241	3.79
213.461	6.06
213.68	14.81
213.9	10.52
214.12	12.69
214.339	16.41
214.559	23.39
214.779	39.72
214.998	39.92
215.218	35.5
215.438	44.38
215.657	48.1
215.877	51.77
216.096	43.14
216.316	37.61
216.535	45.94
216.755	39.46
216.974	32.96
217.194	37.23
217.413	36.91
217.633	40.81
217.852	36.91
218.072	22.06
218.291	28.75
218.511	28.95
218.73	24.31
218.95	23.38
219.169	10.56
219.389	5.73
219.608	14.02
219.827	10.48
220.047	17.66
220.266	19.39
220.485	14.73
220.705	20.3
220.924	25.79
221.143	22.27
221.363	20.37
221.582	6.77
221.801	8.23
222.021	11.05
222.24	9.19
222.459	14.96
222.678	1.99
222.897	1.97
223.117	13.4
223.336	5.11
223.555	-1.15
223.774	15.98
223.993	17.69
224.213	30.99
224.432	26.94
224.651	21.18
224.87	23.04
225.089	33.06
225.308	24.4
225.527	14.61
225.746	12.6
225.965	17.88
226.184	15.35
226.404	21.79
226.623	25.63
226.842	16.44
227.061	29.87
227.28	33.44
227.499	39.52
227.718	39.46
227.936	26.93
228.155	26.64
228.374	34.9
228.593	20.89
228.812	13.41
229.031	-4.21
229.25	-2.26
229.469	8.72
229.688	7.98
229.907	2.2
230.125	14.7
230.344	22.09
230.563	27.8
230.782	22.33
231.001	24.84
231.22	18.95
231.438	19.23
231.657	23.75
231.876	24.4
232.095	29.05
232.313	38.67
232.532	37.05
232.751	40.06
232.969	45.07
233.188	42.64
233.407	40.41
233.625	32.94
233.844	33.29
234.063	33.99
234.281	31.92
234.5	28.17
234.719	23.46
234.937	23.06
235.156	20.02
235.374	13.13
235.593	1.61
235.811	6.48
236.03	-19.04
236.249	-2.75
236.467	-5.28
236.686	10.66
236.904	2.47
237.123	8.99
237.341	3.1
237.559	21.18
237.778	23.61
237.996	35.26
238.215	24.01
238.433	33.93
238.652	35.04
238.87	28.53
239.088	17.6
239.307	15.32
239.525	4.1
239.743	1.45
239.962	-3.86
240.18	5.89
240.398	21.52
240.617	32.46
240.835	38.82
241.053	53.12
241.271	54.98
241.49	46.73
241.708	35.79
241.926	17.22
242.144	14.52
242.363	5.16
242.581	-6.94
242.799	-14.27
243.017	0.51
243.235	-3.78
243.453	-1.05
243.672	-0.73
243.89	4.35
244.108	12.88
244.326	15.23
244.544	17.65
244.762	20.2
244.98	28.3
245.198	21.7
245.416	22.14
245.634	27.47
245.852	34.55
246.07	31.65
246.288	33.47
246.506	41.86
246.724	56.44
246.942	52.68
247.16	40.29
247.378	37.91
247.596	42.9
247.814	37.6
248.032	28.36
248.25	17.98
248.468	25.42
248.685	33.14
248.903	25.62
249.121	17.49
249.339	22.78
249.557	31.77
249.775	24.88
249.992	13.54
250.21	12.42
250.428	11.6
250.646	15.5
250.863	12.4
251.081	10.03
251.299	28.2
251.517	34.06
251.734	39.84
251.952	40.57
252.17	49.54
252.387	50.21
252.605	42.71
252.823	17.68
253.04	24.82
253.258	15.59
253.475	12.46
253.693	9.17
253.911	13.23
254.128	12.75
254.346	22.06
254.563	14.04
254.781	16.73
254.998	22.96
255.216	30.86
255.433	30.49
255.651	44.52
255.868	45.79
256.086	47.89
256.303	42.04
256.521	38.19
256.738	28.8
256.956	21.17
257.173	20.39
257.39	16.54
257.608	17.41
257.825	18.91
258.043	25.48
258.26	23.11
258.477	22.57
258.695	13.81
258.912	22.19
259.129	13.27
259.346	20.67
259.564	9.61
259.781	15.14
259.998	17.09
260.216	23.49
260.433	19.36
260.65	38.64
260.867	18.43
261.084	24.32
261.302	23.29
261.519	12.96
261.736	-2.94
261.953	-0.14
262.17	0.92
262.387	13
262.604	-5.04
262.822	-3.04
263.039	2.11
263.256	11.55
263.473	8.6
263.69	2.89
263.907	-11.31
264.124	4.37
264.341	-0.87
264.558	7.61
264.775	11.22
264.992	10.05
265.209	22.65
265.426	35.12
265.643	30.24
265.86	28.49
266.077	24.44
266.294	26.69
266.51	25.5
266.727	12.17
266.944	-37.59
267.161	-30.19
267.378	-31.2
267.595	-29.46
267.812	-45.22
268.028	-35.31
268.245	-28.68
268.462	17.27
268.679	4.58
268.896	6.31
269.112	13.46
269.329	21.97
269.546	16.13
269.763	22.55
269.979	18.4
270.196	27.72
270.413	33.11
270.629	30.79
270.846	30.96
271.063	32.29
271.279	29.36
271.496	21.71
271.712	17.38
271.929	19.03
272.146	20.05
272.362	-1.63
272.579	-4.3
272.795	-2.77
273.012	3.51
273.228	2
273.445	-7.05
273.661	-9.74
273.878	7.77
274.094	12.08
274.311	6.05
274.527	11.49
274.744	8
274.96	4.94
275.177	15.37
275.393	22.95
275.609	28.39
275.826	36.3
276.042	44.02
276.259	43.88
276.475	46.65
276.691	32.78
276.908	21.31
277.124	22.39
277.34	17.74
277.557	11.67
277.773	16.72
277.989	11.48
278.205	8.09
278.422	19.58
278.638	21.4
278.854	24.17
279.07	13.1
279.286	2.5
279.503	3.54
279.719	21.7
279.935	4.49
280.151	6.71
280.367	0.54
280.583	15.27
280.799	25.22
281.016	30.07
281.232	27.75
281.448	28.86
281.664	28.28
281.88	34.76
282.096	28.37
282.312	28.57
282.528	19.01
282.744	5.75
282.96	17.54
283.176	11.54
283.392	14.58
283.608	16.84
283.824	12.6
284.04	18.95
284.256	25.28
284.471	24.24
284.687	20.02
284.903	17.89
285.119	0.06
285.335	8.79
285.551	15.4
285.767	12.39
285.982	7.95
286.198	7.25
286.414	10.14
286.63	33.12
286.846	26.91
287.061	25.42
287.277	30.17
287.493	23.19
287.709	25.61
287.924	25.84
288.14	21.43
288.356	23.05
288.571	18.94
288.787	10.3
289.003	24.92
289.218	22.21
289.434	15.88
289.65	16.86
289.865	28.3
290.081	25.82
290.296	31.61
290.512	35.49
290.727	49.67
290.943	50.03
291.159	43.9
291.374	34.61
291.59	31.76
291.805	27.83
292.021	8.46
292.236	3.99
292.451	12.09
292.667	15.97
292.882	10.83
293.098	9.26
293.313	8.42
293.529	18.88
293.744	5.75
293.959	4.51
294.175	-4.07
294.39	7.37
294.605	18.03
294.821	15.77
295.036	17.84
295.251	13.31
295.467	6.61
295.682	9.82
295.897	2.15
296.112	-7.04
296.328	2.07
296.543	-5.23
296.758	2.63
296.973	5.63
297.188	15.95
297.404	22.15
297.619	33.45
297.834	31.18
298.049	33.84
298.264	32.09
298.479	18.6
298.694	12.21
298.909	2.86
299.125	3.86
299.34	7.7
299.555	5.65
299.77	6.58
299.985	11.39
300.2	16.32
300.415	21.37
300.63	19.52
300.845	11.18
301.06	17.28
301.275	17.45
301.49	23.26
301.704	16.18
301.919	12.49
302.134	9.37
302.349	5.3
302.564	-6.96
302.779	-10.8
302.994	-11.96
303.209	-16.17
303.423	-11.98
303.638	-8.9
303.853	-5.1
304.068	8.34
304.283	10.07
304.497	8.67
304.712	18.8
304.927	14.53
305.142	14.99
305.356	18.23
305.571	18.46
305.786	22.18
306	26.46
306.215	19.97
306.43	23.49
306.644	29.19
306.859	28.94
307.074	25.23
307.288	23.62
307.503	24.97
307.717	25.44
307.932	27.71
308.147	23.76
308.361	27.66
308.576	23.1
308.79	21.51
309.005	19.42
309.219	25.04
309.434	29.23
309.648	19.11
309.863	22.26
310.077	30.04
310.292	31.1
310.506	39
310.72	31.18
310.935	31.6
311.149	32.96
311.364	31.97
311.578	21.51
311.792	21.35
312.007	16.51
312.221	25.18
312.435	20.57
312.649	29.85
312.864	12.3
313.078	33.67
313.292	29.13
313.507	26.52
313.721	22.48
313.935	41.93
314.149	36.98
314.363	51.07
314.578	48.61
314.792	53.18
315.006	56.76
315.22	60.95
315.434	44.49
315.648	42.37
315.862	34
316.077	37.18
316.291	37.08
316.505	29.87
316.719	8.59
316.933	10.38
317.147	10
317.361	15.93
317.575	11.13
317.789	5.48
318.003	11.33
318.217	21.6
318.431	24.24
318.645	27.99
318.859	17.18
319.073	18.84
319.287	27.93
319.5	24.38
319.714	22.65
319.928	27.95
320.142	19.11
320.356	27.01
320.57	17.17
320.784	5.62
320.997	13.52
321.211	14.43
321.425	2.95
321.639	10.85
321.853	5.82
322.066	11.01
322.28	22.73
322.494	12.31
322.707	6.27
322.921	17.27
323.135	23.49
323.349	25.56
323.562	25.48
323.776	28.2
323.989	21.62
324.203	32.26
324.417	28.55
324.63	14.48
324.844	8.13
325.057	11.68
325.271	-10.59
325.485	4.95
325.698	-6.47
325.912	8.56
326.125	19.15
326.339	20.37
326.552	21.03
326.766	29.18
326.979	30.16
327.193	39.42
327.406	18.2
327.619	1.6
327.833	8.09
328.046	-0.44
328.26	-7.03
328.473	-3.66
328.686	-12.16
328.9	-7.84
329.113	-5.2
329.326	-8.74
329.54	-4.86
329.753	9.58
329.966	9.9
330.179	17.02
330.393	16.51
330.606	32.58
330.819	35.49
331.032	37.17
331.246	27.46
331.459	32.05
331.672	26.25
331.885	34.58
332.098	27.32
332.311	15.81
332.525	16.07
332.738	25.94
332.951	16.65
333.164	15.61
333.377	-5.34
333.59	-2.17
333.803	12.89
334.016	9.36
334.229	1.99
334.442	5.99
334.655	13.47
334.868	35.05
335.081	38.12
335.294	35.48
335.507	35.3
335.72	25.55
335.933	27.51
336.146	21.31
336.359	15.8
336.572	13.43
336.785	16.28
336.997	10.55
337.21	22.29
337.423	19.48
337.636	24.13
337.849	19.08
338.062	22.59
338.274	20.42
338.487	32.05
338.7	25.99
338.913	25.97
339.125	23.18
339.338	29.46
339.551	26.5
339.763	21.33
339.976	12.69
340.189	13.76
340.402	16.99
340.614	23.99
340.827	13.19
341.039	12.48
341.252	9.53
341.465	7.5
341.677	7.37
341.89	7.01
342.102	2.99
342.315	11.36
342.527	8.43
342.74	15.58
342.952	16.76
343.165	24.66
343.377	26.68
343.59	26.56
343.802	31.54
344.015	32.34
344.227	24.8
344.44	21.5
344.652	11.86
344.864	9.01
345.077	4.1
345.289	-1.19
345.502	-2.44
345.714	4.55
345.926	4.96
346.139	10.43
346.351	-5.88
346.563	3.75
346.775	1.64
346.988	2.81
347.2	4
347.412	6.29
347.624	12.67
347.837	26.45
348.049	19.24
348.261	22.52
348.473	20.87
348.685	29.13
348.897	30.63
349.11	30.54
349.322	18.17
349.534	25.11
349.746	25.8
349.958	29.6
350.17	14.39
350.382	10.84
350.594	4.68
350.806	14.78
351.018	17.35
351.23	17.74
351.442	12.51
351.654	22.19
351.866	28.37
352.078	22.5
352.29	27.07
352.502	28.1
352.714	24.23
352.926	26.78
353.138	20.03
353.35	11.02
353.561	19.87
353.773	13.67
353.985	17.86
354.197	14.81
354.409	16.26
354.621	18.91
354.832	20.77
355.044	22.38
355.256	17.68
355.468	-0.47
355.679	10.63
355.891	12.91
356.103	14.32
356.314	20.31
356.526	2.85
356.738	2.97
356.949	9.26
357.161	7.58
357.373	4.67
357.584	10.96
357.796	4.47
358.008	14.8
358.219	24.59
358.431	25.13
358.642	16.68
358.854	15.3
359.065	5.66
359.277	2.8
359.488	1.05
359.7	0.39
359.911	-0.02
360.123	4.22
360.334	0.05
360.546	5.41
360.757	10.97
360.969	18.48
361.18	19.22
361.391	17.75
361.603	23.07
361.814	29.66
362.025	24.6
362.237	23.34
362.448	24.28
362.659	13.96
362.871	21.74
363.082	17.72
363.293	19.84
363.504	21.6
363.716	24.33
363.927	23.42
364.138	29.99
364.349	31.45
364.56	29.61
364.772	26.96
364.983	22.7
365.194	20.97
365.405	19.82
365.616	11.32
365.827	-1.07
366.038	11.52
366.25	13.54
366.461	22.56
366.672	21.83
366.883	26.09
367.094	31.93
367.305	38.47
367.516	32.17
367.727	27.61
367.938	20.28
368.149	23.01
368.36	14.79
368.571	17.45
368.781	13.43
368.992	20.61
369.203	27.54
369.414	32.91
369.625	26.31
369.836	32.16
370.047	24.28
370.258	21.18
370.468	13.05
370.679	5.07
370.89	7.74
371.101	8.49
371.312	4.37
371.522	5.08
371.733	2.13
371.944	10.75
372.155	2.82
372.365	-2.07
372.576	2.99
372.787	6.16
372.997	10.75
373.208	18.76
373.419	10.42
373.629	27.36
373.84	27.42
374.05	21.21
374.261	13.34
374.472	5.49
374.682	1.21
374.893	-5.62
375.103	-11.03
375.314	-9.95
375.524	-5.06
375.735	-1.15
375.945	2.19
376.156	8.5
376.366	15.25
376.577	18.71
376.787	21.74
376.997	19.29
377.208	11.41
377.418	12.39
377.629	7.79
377.839	12.43
378.049	14.78
378.26	11.02
378.47	16.8
378.68	22.65
378.89	15.89
379.101	13.01
379.311	1.23
379.521	1.04
379.732	-2.14
379.942	-6.7
380.152	-0.01
380.362	11.66
380.572	17.58
380.783	21.63
380.993	19.24
381.203	21.98
381.413	25.79
381.623	20.46
381.833	10.84
382.043	1.41
382.253	-0.22
382.463	2.88
382.674	6.67
382.884	1.65
383.094	4.5
383.304	8.48
383.514	17.96
383.724	18.39
383.934	15.44
384.144	16.76
384.353	18.39
384.563	13.82
384.773	13.75
384.983	11.57
385.193	13.69
385.403	15.02
385.613	10.09
385.823	6.35
386.033	8.19
386.242	6.38
386.452	4.8
386.662	3.72
386.872	2.68
387.082	6.04
387.291	7.61
387.501	8.29
387.711	10.14
387.921	10.35
388.13	9.11
388.34	5.11
388.55	5.7
388.759	5.98
388.969	3.34
389.179	4.28
389.388	4.92
389.598	4.86
389.807	7.37
390.017	6.44
390.227	4.84
390.436	6.24
390.646	5.6
390.855	5.58
391.065	5.75
391.274	5.1
391.484	5.44
391.693	8.09
391.903	6.77
392.112	6.53
392.322	6.62
392.531	6.87
392.74	5.65
392.95	4.96
393.159	3.63
393.369	4.23
393.578	4.63
393.787	4.68
393.997	5.66
394.206	5.9
394.415	6.6
394.625	5.9
394.834	5.61
395.043	5.54
395.252	6.27
395.462	5.31
395.671	5.91
395.88	5.44
396.089	5.9
396.298	6.62
396.508	6.35
396.717	5.62
396.926	4.83
397.135	4.62
397.344	4.68
397.553	4.53
397.762	3.81
397.971	3.85
398.181	3.51
398.39	4.44
398.599	4.72
398.808	4.77
399.017	5.35
399.226	5.46
399.435	5.23
399.644	5.27
399.853	4.99
400.062	4.78
400.27	4.68
400.479	4.31
400.688	4.32
400.897	4.48
401.106	4.7
401.315	4.54
401.524	4.62
401.733	4.72
401.941	4.65
402.15	4.52
402.359	4.53
402.568	4.46
402.777	4.37
402.985	4.27
403.194	4.19
403.403	3.97
403.612	4.04
403.82	4.09
404.029	4.09
404.238	4.23
404.446	4.31
404.655	4.16
404.864	4.29
405.072	4.21
405.281	4.06
405.489	4.17
405.698	4.04
405.906	3.93
406.115	4.05
406.324	4.05
406.532	4.16
406.741	4.2
406.949	3.98
407.158	4.05
407.366	4.15
407.574	4.14
407.783	4.08
407.991	3.99
408.2	3.85
408.408	3.92
408.617	3.88
408.825	3.77
409.033	3.65
409.242	3.68
409.45	3.63
409.658	3.74
409.867	3.69
410.075	3.62
410.283	3.54
410.491	3.55
410.7	3.55
410.908	3.58
411.116	3.52
411.324	3.58
411.533	3.53
411.741	3.56
411.949	3.59
412.157	3.61
412.365	3.59
412.573	3.63
412.781	3.6
412.99	3.79
413.198	3.82
413.406	3.79
413.614	3.76
413.822	3.73
414.03	3.65
414.238	3.65
414.446	3.5
414.654	3.53
414.862	3.53
415.07	3.53
415.278	3.53
415.486	3.63
415.694	3.56
415.902	3.52
416.109	3.46
416.317	3.43
416.525	3.56
416.733	3.56
416.941	3.49
417.149	3.61
417.357	3.67
417.564	3.62
417.772	3.7
417.98	3.55
418.188	3.46
418.395	3.44
418.603	3.23
418.811	3.14
419.019	3.2
419.226	3.22
419.434	3.14
419.642	3.2
419.849	3.24
420.057	3.34
420.265	3.41
420.472	3.36
420.68	3.19
420.887	3.22
421.095	3.28
421.302	3.22
421.51	3.29
421.717	3.32
421.925	3.3
422.132	3.29
422.34	3.35
422.547	3.29
422.755	3.25
422.962	3.09
423.17	2.89
423.377	3.01
423.585	3.05
423.792	2.96
423.999	2.91
424.207	2.82
424.414	2.92
424.621	3.18
424.829	3.08
425.036	3.1
425.243	3.17
425.451	3.2
425.658	3.31
425.865	3.21
426.072	3.04
426.28	3.02
426.487	3
426.694	2.92
426.901	2.88
427.108	2.97
427.315	3.02
427.523	3.09
427.73	3.14
427.937	3.14
428.144	3.25
428.351	3.43
428.558	3.34
428.765	3.3
428.972	3.35
429.179	3.3
429.386	3.36
429.593	3.32
429.8	3.28
430.007	3.31
430.214	3.39
430.421	3.32
430.628	3.26
430.835	3.2
431.042	3.21
431.249	3.16
431.456	3.19
431.662	3.12
431.869	3.15
432.076	3.22
432.283	3.22
432.49	3.21
432.697	3.18
432.903	3.18
433.11	3.26
433.317	3.29
433.524	3.26
433.73	3.33
433.937	3.32
434.144	3.45
434.35	3.42
434.557	3.36
434.764	3.32
434.97	3.44
435.177	3.4
435.384	3.51
435.59	3.45
435.797	3.47
436.003	3.52
436.21	3.54
436.416	3.5
436.623	3.57
436.829	3.51
437.036	3.5
437.242	3.56
437.449	3.57
437.655	3.57
437.862	3.58
438.068	3.57
438.275	3.53
438.481	3.62
438.687	3.6
438.894	3.62
439.1	3.66
439.307	3.7
439.513	3.67
439.719	3.75
439.926	3.76
440.132	3.8
440.338	3.85
440.544	3.83
440.751	3.75
440.957	3.75
441.163	3.79
441.369	3.78
441.575	3.78
441.782	3.77
441.988	3.83
442.194	3.94
442.4	4.02
442.606	4.06
442.812	4.09
443.018	4.05
443.224	4.02
443.431	4.05
443.637	4.01
443.843	3.98
444.049	3.94
444.255	3.91
444.461	3.97
444.667	4.02
444.873	3.96
445.079	4.03
445.284	4.06
445.49	4.02
445.696	4.03
445.902	4.03
446.108	4.06
446.314	4.15
446.52	4.18
446.726	4.18
446.931	4.23
447.137	4.25
447.343	4.28
447.549	4.24
447.755	4.17
447.96	4.06
448.166	4.12
448.372	4.11
448.578	4.11
448.783	4.08
448.989	4.09
449.195	4.17
449.4	4.21
449.606	4.15
449.812	4.23
450.017	4.25
450.223	4.24
450.428	4.25
450.634	4.26
450.84	4.26
451.045	4.28
451.251	4.26
451.456	4.26
451.662	4.28
451.867	4.3
452.073	4.27
452.278	4.3
452.483	4.25
452.689	4.25
452.894	4.25
453.1	4.24
453.305	4.27
453.51	4.26
453.716	4.29
453.921	4.36
454.127	4.31
454.332	4.32
454.537	4.39
454.742	4.35
454.948	4.37
455.153	4.38
455.358	4.41
455.563	4.48
455.769	4.47
455.974	4.44
456.179	4.44
456.384	4.45
456.589	4.51
456.795	4.48
457	4.47
457.205	4.47
457.41	4.48
457.615	4.57
457.82	4.62
458.025	4.58
458.23	4.57
458.435	4.55
458.64	4.63
458.845	4.61
459.05	4.58
459.255	4.56
459.46	4.53
459.665	4.61
459.87	4.63
460.075	4.57
460.28	4.58
460.485	4.62
460.69	4.56
460.895	4.64
461.099	4.59
461.304	4.61
461.509	4.59
461.714	4.62
461.919	4.56
462.123	4.65
462.328	4.64
462.533	4.68
462.738	4.69
462.942	4.74
463.147	4.76
463.352	4.85
463.556	4.86
463.761	4.87
463.966	4.91
464.17	4.91
464.375	4.91
464.58	4.87
464.784	4.87
464.989	4.88
465.193	4.91
465.398	4.87
465.602	4.9
465.807	4.9
466.011	4.95
466.216	4.96
466.42	5.02
466.625	4.97
466.829	4.99
467.034	5
467.238	5.04
467.443	5.08
467.647	5.1
467.851	5.07
468.056	5.09
468.26	5.11
468.464	5.11
468.669	5.18
468.873	5.17
469.077	5.19
469.282	5.18
469.486	5.26
469.69	5.3
469.894	5.33
470.099	5.28
470.303	5.28
470.507	5.26
470.711	5.3
470.915	5.32
471.119	5.32
471.324	5.34
471.528	5.4
471.732	5.4
471.936	5.47
472.14	5.48
472.344	5.42
472.548	5.45
472.752	5.42
472.956	5.42
473.16	5.46
473.364	5.41
473.568	5.45
473.772	5.5
473.976	5.48
474.18	5.51
474.384	5.53
474.588	5.52
474.792	5.55
474.995	5.54
475.199	5.55
475.403	5.59
475.607	5.63
475.811	5.67
476.015	5.76
476.218	5.76
476.422	5.79
476.626	5.79
476.83	5.81
477.033	5.82
477.237	5.8
477.441	5.75
477.644	5.74
477.848	5.7
478.052	5.72
478.255	5.7
478.459	5.71
478.663	5.72
478.866	5.73
479.07	5.75
479.273	5.77
479.477	5.81
479.681	5.82
479.884	5.77
480.088	5.75
480.291	5.8
480.495	5.83
480.698	5.83
480.901	5.77
481.105	5.8
481.308	5.84
481.512	5.9
481.715	5.88
481.919	5.89
482.122	5.92
482.325	6
482.529	6.04
482.732	6.06
482.935	6.05
483.138	6.03
483.342	6.03
483.545	6.02
483.748	6
483.952	5.99
484.155	6
484.358	5.95
484.561	6
484.764	6
484.967	6.03
485.171	6
485.374	5.99
485.577	5.99
485.78	6.04
485.983	6.04
486.186	6.04
486.389	6.03
486.592	6.07
486.795	6.06
486.998	6.06
487.201	6.12
487.404	6.16
487.607	6.12
487.81	6.16
488.013	6.14
488.216	6.14
488.419	6.16
488.622	6.12
488.825	6.08
489.028	6.11
489.231	6.07
489.433	6.06
489.636	6.05
489.839	6.03
490.042	6.02
490.245	6.04
490.447	6.04
490.65	6.08
490.853	6.11
491.056	6.12
491.258	6.14
491.461	6.13
491.664	6.09
491.866	6.08
492.069	6.1
492.272	6.06
492.474	6.07
492.677	6.03
492.879	6.07
493.082	6.09
493.285	6.1
493.487	6.08
493.69	6.1
493.892	6.15
494.095	6.12
494.297	6.15
494.5	6.18
494.702	6.18
494.905	6.18
495.107	6.15
495.309	6.07
495.512	6.13
495.714	6.11
495.917	6.1
496.119	6.16
496.321	6.19
496.524	6.24
496.726	6.26
496.928	6.29
497.13	6.3
497.333	6.32
497.535	6.31
497.737	6.27
497.939	6.27
498.142	6.29
498.344	6.26
498.546	6.31
498.748	6.28
498.95	6.26
499.152	6.26
499.355	6.28
499.557	6.32
499.759	6.36
499.961	6.34
500.163	6.37
500.365	6.43
500.567	6.44
500.769	6.46
500.971	6.44
501.173	6.45
501.375	6.38
501.577	6.39
501.779	6.38
501.981	6.39
502.183	6.37
502.385	6.38
502.587	6.38
502.788	6.39
502.99	6.37
503.192	6.38
503.394	6.44
503.596	6.48
503.798	6.56
503.999	6.57
504.201	6.63
504.403	6.68
504.605	6.7
504.806	6.69
505.008	6.7
505.21	6.65
505.411	6.7
505.613	6.7
505.815	6.74
506.016	6.75
506.218	6.76
506.42	6.79
506.621	6.81
506.823	6.82
507.024	6.82
507.226	6.79
507.427	6.78
507.629	6.8
507.83	6.77
508.032	6.83
508.233	6.83
508.435	6.87
508.636	6.9
508.838	6.93
509.039	6.97
509.24	6.98
509.442	6.94
509.643	6.92
509.845	6.92
510.046	6.92
510.247	6.94
510.448	6.92
510.65	6.95
510.851	6.98
511.052	7.05
511.254	7.08
511.455	7.1
511.656	7.14
511.857	7.15
512.058	7.19
512.26	7.18
512.461	7.15
512.662	7.14
512.863	7.15
513.064	7.08
513.265	7.1
513.466	7.12
513.667	7.15
513.868	7.15
514.069	7.17
514.27	7.19
514.471	7.25
514.672	7.29
514.873	7.26
515.074	7.29
515.275	7.3
515.476	7.32
515.677	7.33
515.878	7.35
516.079	7.36
516.28	7.36
516.481	7.35
516.682	7.36
516.882	7.36
517.083	7.35
517.284	7.34
517.485	7.33
517.686	7.38
517.886	7.38
518.087	7.42
518.288	7.44
518.488	7.49
518.689	7.49
518.89	7.52
519.091	7.51
519.291	7.53
519.492	7.51
519.692	7.53
519.893	7.5
520.094	7.54
520.294	7.56
520.495	7.54
520.695	7.57
520.896	7.59
521.096	7.61
521.297	7.64
521.497	7.64
521.698	7.61
521.898	7.67
522.099	7.67
522.299	7.67
522.499	7.67
522.7	7.68
522.9	7.68
523.101	7.69
523.301	7.66
523.501	7.69
523.702	7.7
523.902	7.68
524.102	7.66
524.302	7.68
524.503	7.69
524.703	7.71
524.903	7.73
525.103	7.77
525.304	7.85
525.504	7.88
525.704	7.85
525.904	7.87
526.104	7.88
526.304	7.88
526.504	7.85
526.705	7.8
526.905	7.8
527.105	7.85
527.305	7.85
527.505	7.85
527.705	7.82
527.905	7.85
528.105	7.87
528.305	7.9
528.505	7.89
528.705	7.9
528.905	7.91
529.105	7.96
529.304	7.98
529.504	8
529.704	8
529.904	8.06
530.104	8.05
530.304	8.06
530.503	8.04
530.703	8.04
530.903	8.04
531.103	8.04
531.303	8.02
531.502	8.04
531.702	8.02
531.902	8.06
532.101	8.08
532.301	8.11
532.501	8.13
532.7	8.13
532.9	8.17
533.1	8.19
533.299	8.21
533.499	8.25
533.698	8.27
533.898	8.26
534.097	8.3
534.297	8.28
534.496	8.3
534.696	8.28
534.895	8.28
535.095	8.27
535.294	8.27
535.494	8.27
535.693	8.34
535.892	8.36
536.092	8.4
536.291	8.42
536.491	8.44
536.69	8.49
536.889	8.49
537.088	8.48
537.288	8.51
537.487	8.55
537.686	8.58
537.886	8.6
538.085	8.66
538.284	8.69
538.483	8.73
538.682	8.74
538.882	8.76
539.081	8.78
539.28	8.78
539.479	8.78
539.678	8.81
539.877	8.84
540.076	8.86
540.275	8.89
540.474	8.89
540.673	8.95
540.872	8.96
541.071	8.99
541.27	8.98
541.469	9
541.668	9.02
541.867	9.1
542.066	9.1
542.265	9.13
542.464	9.15
542.663	9.21
542.862	9.21
543.06	9.24
543.259	9.21
543.458	9.22
543.657	9.28
543.856	9.28
544.054	9.3
544.253	9.38
544.452	9.36
544.651	9.39
544.849	9.43
545.048	9.47
545.247	9.49
545.445	9.52
545.644	9.54
545.843	9.61
546.041	9.64
546.24	9.69
546.438	9.73
546.637	9.83
546.836	9.89
547.034	9.93
547.233	9.97
547.431	10.04
547.63	10.1
547.828	10.12
548.027	10.12
548.225	10.17
548.423	10.23
548.622	10.3
548.82	10.35
549.019	10.41
549.217	10.5
549.415	10.59
549.614	10.63
549.812	10.68
550.01	10.7
550.209	10.78
550.407	10.81
550.605	10.86
550.803	10.89
551.002	10.93
551.2	10.99
551.398	11.08
551.596	11.14
551.794	11.21
551.993	11.25
552.191	11.39
552.389	11.49
552.587	11.54
552.785	11.59
552.983	11.65
553.181	11.67
553.379	11.71
553.577	11.74
553.775	11.79
553.973	11.83
554.171	11.9
554.369	11.93
554.567	12
554.765	12.04
554.963	12.11
555.161	12.14
555.359	12.21
555.557	12.27
555.755	12.42
555.952	12.5
556.15	12.63
556.348	12.69
556.546	12.83
556.744	12.91
556.941	12.99
557.139	13.04
557.337	13.13
557.535	13.21
557.732	13.27
557.93	13.28
558.128	13.35
558.325	13.43
558.523	13.52
558.721	13.6
558.918	13.69
559.116	13.77
559.313	13.92
559.511	14
559.708	14.07
559.906	14.15
560.104	14.25
560.301	14.32
560.498	14.43
560.696	14.47
560.893	14.55
561.091	14.69
561.288	14.79
561.486	14.87
561.683	14.95
561.88	14.99
562.078	15.1
562.275	15.21
562.473	15.24
562.67	15.3
562.867	15.35
563.064	15.47
563.262	15.6
563.459	15.71
563.656	15.83
563.853	15.91
564.051	16.01
564.248	16.13
564.445	16.17
564.642	16.24
564.839	16.33
565.036	16.43
565.234	16.53
565.431	16.61
565.628	16.69
565.825	16.77
566.022	16.87
566.219	16.9
566.416	16.96
566.613	17.04
566.81	17.08
567.007	17.18
567.204	17.27
567.401	17.39
567.598	17.45
567.795	17.52
567.991	17.59
568.188	17.71
568.385	17.78
568.582	17.82
568.779	17.86
568.976	17.98
569.172	18.1
569.369	18.19
569.566	18.22
569.763	18.26
569.96	18.35
570.156	18.4
570.353	18.42
570.55	18.44
570.746	18.5
570.943	18.61
571.14	18.65
571.336	18.71
571.533	18.76
571.729	18.85
571.926	18.93
572.123	18.92
572.319	18.9
572.516	18.94
572.712	19
572.909	19.08
573.105	19.08
573.302	19.08
573.498	19.17
573.695	19.2
573.891	19.25
574.087	19.23
574.284	19.22
574.48	19.24
574.677	19.26
574.873	19.26
575.069	19.37
575.266	19.4
575.462	19.46
575.658	19.53
575.854	19.55
576.051	19.55
576.247	19.57
576.443	19.58
576.639	19.56
576.835	19.53
577.032	19.52
577.228	19.55
577.424	19.63
577.62	19.64
577.816	19.62
578.012	19.61
578.208	19.66
578.404	19.66
578.6	19.65
578.796	19.64
578.993	19.66
579.189	19.67
579.384	19.68
579.58	19.69
579.776	19.66
579.972	19.63
580.168	19.63
580.364	19.6
580.56	19.59
580.756	19.61
580.952	19.6
581.148	19.61
581.343	19.65
581.539	19.59
581.735	19.56
581.931	19.56
582.127	19.5
582.322	19.47
582.518	19.42
582.714	19.39
582.909	19.38
583.105	19.36
583.301	19.32
583.496	19.37
583.692	19.36
583.888	19.39
584.083	19.39
584.279	19.44
584.474	19.46
584.67	19.47
584.866	19.44
585.061	19.39
585.257	19.43
585.452	19.38
585.648	19.33
585.843	19.33
586.039	19.33
586.234	19.34
586.429	19.37
586.625	19.31
586.82	19.3
587.015	19.32
587.211	19.33
587.406	19.36
587.601	19.36
587.797	19.4
587.992	19.45
588.187	19.53
588.383	19.56
588.578	19.54
588.773	19.55
588.968	19.58
589.163	19.58
589.359	19.61
589.554	19.6
589.749	19.62
589.944	19.66
590.139	19.7
590.334	19.69
590.529	19.76
590.724	19.77
590.919	19.84
591.114	19.8
591.309	19.86
591.504	19.85
591.699	19.86
591.894	19.86
592.089	19.92
592.284	19.9
592.479	19.96
592.674	19.97
592.869	20.03
593.064	20.17
593.259	20.21
593.454	20.24
593.648	20.28
593.843	20.36
594.038	20.45
594.233	20.49
594.428	20.52
594.622	20.56
594.817	20.63
595.012	20.73
595.206	20.77
595.401	20.82
595.596	20.9
595.79	20.99
595.985	21.06
596.18	21.12
596.374	21.2
596.569	21.31
596.763	21.42
596.958	21.48
597.153	21.5
597.347	21.57
597.542	21.64
597.736	21.68
597.931	21.74
598.125	21.82
598.319	21.91
598.514	22.02
598.708	22.1
598.903	22.18
599.097	22.25
599.291	22.31
599.486	22.36
599.68	22.4
599.874	22.44
600.069	22.43
600.263	22.46
600.457	22.51
600.651	22.58
600.846	22.56
601.04	22.61
601.234	22.68
601.428	22.72
601.622	22.78
601.817	22.78
602.011	22.81
602.205	22.84
602.399	22.84
602.593	22.81
602.787	22.87
602.981	22.87
603.175	22.9
603.369	22.88
603.563	22.9
603.757	22.87
603.951	22.86
604.145	22.83
604.339	22.79
604.533	22.76
604.727	22.78
604.921	22.77
605.115	22.73
605.309	22.74
605.502	22.77
605.696	22.79
605.89	22.78
606.084	22.72
606.278	22.69
606.471	22.71
606.665	22.65
606.859	22.57
607.053	22.49
607.246	22.47
607.44	22.46
607.634	22.43
607.827	22.33
608.021	22.29
608.214	22.25
608.408	22.2
608.602	22.13
608.795	22
608.989	21.96
609.182	21.95
609.376	21.88
609.569	21.85
609.763	21.86
609.956	21.8
610.15	21.81
610.343	21.73
610.537	21.69
610.73	21.65
610.923	21.51
611.117	21.36
611.31	21.29
611.504	21.21
611.697	21.1
611.89	21
612.083	20.9
612.277	20.88
612.47	20.86
612.663	20.79
612.856	20.7
613.05	20.68
613.243	20.62
613.436	20.55
613.629	20.47
613.822	20.36
614.015	20.3
614.209	20.28
614.402	20.17
614.595	20.06
614.788	20.03
614.981	19.94
615.174	19.92
615.367	19.83
615.56	19.72
615.753	19.66
615.946	19.7
616.139	19.62
616.332	19.55
616.525	19.53
616.718	19.49
616.911	19.47
617.103	19.44
617.296	19.35
617.489	19.31
617.682	19.34
617.875	19.28
618.067	19.18
618.26	19.08
618.453	18.98
618.646	18.93
618.838	18.9
619.031	18.8
619.224	18.78
619.417	18.82
619.609	18.86
619.802	18.88
619.994	18.84
620.187	18.79
620.38	18.76
620.572	18.76
620.765	18.65
620.957	18.59
621.15	18.51
621.342	18.51
621.535	18.5
621.727	18.5
621.92	18.42
622.112	18.46
622.305	18.38
622.497	18.35
622.69	18.32
622.882	18.3
623.074	18.27
623.267	18.26
623.459	18.22
623.651	18.24
623.844	18.27
624.036	18.26
624.228	18.23
624.42	18.18
624.613	18.16
624.805	18.17
624.997	18.15
625.189	18.13
625.381	18.1
625.574	18.1
625.766	18.11
625.958	18.1
626.15	18.12
626.342	18.14
626.534	18.1
626.726	18.08
626.918	18.02
627.11	18
627.302	17.94
627.494	17.89
627.686	17.83
627.878	17.82
628.07	17.8
628.262	17.75
628.454	17.73
628.646	17.71
628.838	17.63
629.029	17.53
629.221	17.48
629.413	17.43
629.605	17.4
629.797	17.33
629.989	17.29
630.18	17.24
630.372	17.3
630.564	17.3
630.755	17.23
630.947	17.19
631.139	17.14
631.33	17.1
631.522	17.08
631.714	16.99
631.905	16.93
632.097	16.99
632.289	17.01
632.48	17
632.672	16.96
632.863	16.96
633.055	16.96
633.246	16.98
633.438	16.93
633.629	16.94
633.821	16.96
634.012	16.95
634.203	16.94
634.395	16.92
634.586	16.83
634.777	16.8
634.969	16.78
635.16	16.74
635.351	16.72
635.543	16.67
635.734	16.68
635.925	16.72
636.117	16.75
636.308	16.66
636.499	16.69
636.69	16.73
636.881	16.77
637.073	16.76
637.264	16.76
637.455	16.75
637.646	16.79
637.837	16.79
638.028	16.81
638.219	16.81
638.41	16.82
638.601	16.8
638.792	16.76
638.983	16.7
639.174	16.68
639.365	16.62
639.556	16.62
639.747	16.65
639.938	16.69
640.129	16.69
640.32	16.68
640.511	16.64
640.701	16.61
640.892	16.55
641.083	16.44
641.274	16.39
641.465	16.38
641.655	16.39
641.846	16.37
642.037	16.36
642.228	16.33
642.418	16.34
642.609	16.32
642.8	16.31
642.99	16.29
643.181	16.3
643.372	16.29
643.562	16.3
643.753	16.29
643.943	16.27
644.134	16.24
644.324	16.18
644.515	16.15
644.705	16.13
644.896	16.07
645.086	16.02
645.277	16.04
645.467	16.03
645.658	16.07
645.848	16.05
646.038	15.99
646.229	16.02
646.419	16.06
646.61	15.98
646.8	15.94
646.99	15.87
647.18	15.82
647.371	15.81
647.561	15.77
647.751	15.7
647.941	15.66
648.132	15.68
648.322	15.72
648.512	15.72
648.702	15.69
648.892	15.72
649.082	15.74
649.272	15.74
649.462	15.72
649.653	15.66
649.843	15.59
650.033	15.6
650.223	15.58
650.413	15.6
650.603	15.6
650.793	15.49
650.983	15.47
651.172	15.5
651.362	15.42
651.552	15.35
651.742	15.21
651.932	15.21
652.122	15.2
652.312	15.11
652.502	15.05
652.691	15.04
652.881	15
653.071	14.94
653.261	14.84
653.45	14.78
653.64	14.77
653.83	14.66
654.019	14.5
654.209	14.35
654.399	14.29
654.588	14.17
654.778	14.06
654.968	13.92
655.157	13.79
655.347	13.73
655.536	13.64
655.726	13.51
655.915	13.36
656.105	13.26
656.294	13.14
656.484	13.08
656.673	12.96
656.863	12.84
657.052	12.7
657.241	12.57
657.431	12.4
657.62	12.25
657.809	12.08
657.999	11.93
658.188	11.78
658.377	11.73
658.567	11.58
658.756	11.46
658.945	11.34
659.134	11.18
659.324	11
659.513	10.93
659.702	10.73
659.891	10.65
660.08	10.55
660.269	10.47
660.458	10.41
660.648	10.29
660.837	10.13
661.026	10.01
661.215	9.88
661.404	9.75
661.593	9.6
661.782	9.47
661.971	9.34
662.16	9.23
662.349	9.07
662.538	8.99
662.726	8.86
662.915	8.8
663.104	8.61
663.293	8.57
663.482	8.48
663.671	8.43
663.86	8.3
664.048	8.21
664.237	8.11
664.426	8.17
664.615	8.06
664.803	7.96
664.992	7.92
665.181	7.89
665.369	7.8
665.558	7.72
665.747	7.6
665.935	7.61
666.124	7.54
666.312	7.42
666.501	7.33
666.69	7.31
666.878	7.25
667.067	7.27
667.255	7.21
667.444	7.22
667.632	7.27
667.82	7.25
668.009	7.29
668.197	7.28
668.386	7.19
668.574	7.16
668.762	7.09
668.951	7.01
669.139	7.02
669.327	7
669.516	7.01
669.704	7.1
669.892	7.07
670.08	7.1
670.269	7.14
670.457	7.11
670.645	7.08
670.833	7.05
671.021	6.98
671.21	7.04
671.398	7.08
671.586	7.12
671.774	7.14
671.962	7.16
672.15	7.17
672.338	7.19
672.526	7.25
672.714	7.28
672.902	7.26
673.09	7.27
673.278	7.3
673.466	7.39
673.654	7.44
673.842	7.43
674.03	7.45
674.218	7.49
674.405	7.6
674.593	7.67
674.781	7.68
674.969	7.7
675.157	7.73
675.344	7.81
675.532	7.89
675.72	7.94
675.908	7.97
676.095	8.08
676.283	8.17
676.471	8.24
676.658	8.31
676.846	8.39
677.033	8.47
677.221	8.56
677.409	8.61
677.596	8.67
677.784	8.73
677.971	8.8
678.159	8.86
678.346	8.92
678.534	8.95
678.721	9.02
678.909	9.11
679.096	9.18
679.283	9.26
679.471	9.34
679.658	9.46
679.846	9.62
680.033	9.67
680.22	9.74
680.408	9.83
680.595	9.86
680.782	9.93
680.969	10
681.157	10
681.344	10.17
681.531	10.25
681.718	10.38
681.905	10.5
682.093	10.68
682.28	10.81
682.467	10.93
682.654	10.96
682.841	11.17
683.028	11.36
683.215	11.55
683.402	11.66
683.589	11.81
683.776	12.06
683.963	12.27
684.15	12.34
684.337	12.46
684.524	12.68
684.711	12.84
684.898	13.01
685.085	13.18
685.271	13.45
685.458	13.82
685.645	14.02
685.832	14.34
686.019	14.63
686.205	14.91
686.392	15.14
686.579	15.35
686.766	15.52
686.952	15.92
687.139	16.09
687.326	16.38
687.512	16.68
687.699	17.07
687.886	17.39
688.072	17.87
688.259	18.24
688.445	18.6
688.632	19.08
688.818	19.56
689.005	20.05
689.191	20.53
689.378	20.9
689.564	21.33
689.751	21.89
689.937	22.24
690.124	22.73
690.31	23.15
690.496	23.68
690.683	24.22
690.869	24.82
691.055	25.37
691.242	25.96
691.428	26.5
691.614	27.18
691.8	27.8
691.987	28.5
692.173	29.13
692.359	29.78
692.545	30.46
692.731	31.13
692.918	31.82
693.104	32.44
693.29	33.1
693.476	33.68
693.662	34.28
693.848	34.91
694.034	35.49
694.22	36.03
694.406	36.69
694.592	37.25
694.778	37.95
694.964	38.7
695.15	39.34
695.336	40.14
695.522	40.9
695.708	41.56
695.894	42.28
696.08	42.92
696.265	43.46
696.451	44.26
696.637	44.8
696.823	45.42
697.009	46.17
697.194	46.83
697.38	47.36
697.566	48.1
697.751	48.64
697.937	49.26
698.123	49.8
698.308	50.18
698.494	50.64
698.68	51.39
698.865	52.05
699.051	52.63
699.236	53.19
699.422	53.85
699.607	54.49
699.793	55.01
699.978	55.42
700.164	55.85
700.349	56.3
700.535	56.84
700.72	57.41
700.906	57.92
701.091	58.36
701.276	58.82
701.462	59.23
701.647	59.64
701.832	60.07
702.018	60.3
702.203	60.71
702.388	61.05
702.573	61.55
702.759	61.99
702.944	62.44
703.129	62.89
703.314	63.37
703.499	63.66
703.684	64.23
703.87	64.6
704.055	64.85
704.24	65.29
704.425	65.73
704.61	65.94
704.795	66.47
704.98	66.81
705.165	67.14
705.35	67.59
705.535	67.97
705.72	67.93
705.905	68.25
706.09	68.39
706.275	68.61
706.459	68.87
706.644	69.18
706.829	69.41
707.014	69.8
707.199	70.18
707.384	70.47
707.568	70.7
707.753	70.89
707.938	71.15
708.123	71.28
708.307	71.93
708.492	72.25
708.677	72.57
708.861	72.86
709.046	72.9
709.231	72.93
709.415	73.09
709.6	72.91
709.784	73.1
709.969	73.16
710.153	73.55
710.338	73.99
710.522	74.29
710.707	74.2
710.891	74.45
711.076	74.44
711.26	74.76
711.445	74.76
711.629	74.88
711.813	74.74
711.998	75.21
712.182	75.38
712.366	75.56
712.551	75.74
712.735	75.73
712.919	75.86
713.103	76.17
713.288	76.31
713.472	76.45
713.656	76.14
713.84	76.2
714.024	76.45
714.208	76.51
714.393	76.64
714.577	76.83
714.761	76.96
714.945	77.48
715.129	77.65
715.313	77.83
715.497	77.96
715.681	78.32
715.865	78.47
716.049	78.64
716.233	78.93
716.417	79.03
716.601	79.04
716.785	79.21
716.968	78.89
717.152	78.82
717.336	78.72
717.52	78.82
717.704	78.91
717.888	78.82
718.071	78.85
718.255	79.07
718.439	78.87
718.622	78.97
718.806	78.74
718.99	78.8
719.174	79.07
719.357	79.23
719.541	79.61
719.724	79.84
719.908	79.85
720.092	80.34
720.275	80.41
720.459	80.22
720.642	80.44
720.826	80.42
721.009	80.64
721.193	80.67
721.376	80.48
721.559	80.31
721.743	80.51
721.926	80.3
722.11	80.19
722.293	80.08
722.476	79.98
722.66	79.96
722.843	80.15
723.026	80.37
723.21	80.5
723.393	80.46
723.576	80.67
723.759	81.23
723.942	81.3
724.126	81.33
724.309	81.36
724.492	81.61
724.675	81.82
724.858	82.23
725.041	82.1
725.224	82.3
725.407	82.37
725.59	82.43
725.774	82.16
725.957	82.42
726.14	82.12
726.322	82.06
726.505	82.11
726.688	82.2
726.871	82.44
727.054	82.72
727.237	82.09
727.42	82.54
727.603	82.75
727.786	83
727.968	83.21
728.151	83.47
728.334	83.39
728.517	84.21
728.699	84.17
728.882	84.76
729.065	84.66
729.248	84.28
729.43	84.03
729.613	84.35
729.796	84.04
729.978	83.79
730.161	83.72
730.343	83.85
730.526	84.46
730.708	84.72
730.891	84.9
731.073	85.09
731.256	85.44
731.438	85.46
731.621	85.83
731.803	86.01
731.986	85.86
732.168	85.84
732.35	86.23
732.533	86.06
732.715	85.87
732.898	85.9
733.08	85.98
733.262	86.17
733.444	86.48
733.627	86.36
733.809	86.62
733.991	86.83
734.173	86.07
734.355	85.99
734.538	85.84
734.72	86.07
734.902	86.15
735.084	86.42
735.266	86.53
735.448	87.22
735.63	86.94
735.812	86.91
735.994	86.42
736.176	86.41
736.358	86.25
736.54	86.17
736.722	85.96
736.904	86.62
737.086	86.7
737.268	86.65
737.45	86.65
737.632	86.55
737.814	86.49
737.995	86.78
738.177	86.64
738.359	86.67
738.541	86.44
738.723	86.54
738.904	86.12
739.086	86.15
739.268	86.49
739.449	86.23
739.631	86.71
739.813	86.79
739.994	86.92
740.176	87.24
740.358	87.26
740.539	86.57
740.721	86.52
740.902	86.18
741.084	86.54
741.265	86.64
741.447	86.43
741.628	86.31
741.81	86.67
741.991	87.19
742.172	87.03
742.354	87.37
742.535	87.37
742.717	87.7
742.898	88.24
743.079	88.39
743.261	88.16
743.442	88.66
743.623	88.44
743.804	88.77
743.986	88.85
744.167	88.49
744.348	88.25
744.529	87.98
744.71	87.35
744.891	87.51
745.073	86.83
745.254	86.76
745.435	86.89
745.616	86.74
745.797	86.64
745.978	87.54
746.159	87.21
746.34	87.62
746.521	87.85
746.702	87.45
746.883	87.55
747.064	87.84
747.245	87.99
747.426	88.12
747.606	87.83
747.787	87.86
747.968	88.2
748.149	88.34
748.33	88.59
748.51	87.54
748.691	87.47
748.872	87.55
749.053	87.38
749.233	87.73
749.414	87.83
749.595	86.98
749.775	88.17
749.956	87.72
750.137	87.32
750.317	87.09
750.498	87.01
750.678	87.43
750.859	87.78
751.04	86.96
751.22	87.17
751.4	87.76
751.581	88.49
751.761	88.46
751.942	88.13
752.122	88.5
752.303	88.26
752.483	88.51
752.663	88.34
752.844	87.51
753.024	87.84
753.204	88.05
753.385	87.23
753.565	86.86
753.745	86.73
753.925	86.14
754.106	86.64
754.286	86.42
754.466	85.7
754.646	85.73
754.826	86.73
755.006	86.52
755.187	87.08
755.367	87.24
755.547	86.76
755.727	87.07
755.907	88.14
756.087	87.64
756.267	87.81
756.447	87.91
756.627	87.32
756.807	87.73
756.987	87.86
757.167	87.86
757.346	87.99
757.526	88.35
757.706	89
757.886	89.37
758.066	88.86
758.246	88.88
758.425	88.44
758.605	88.8
758.785	88.56
758.965	87.28
759.144	87.83
759.324	88.69
759.504	88.68
759.683	89.05
759.863	88.77
760.043	88.58
760.222	88.6
760.402	87.93
760.581	86.55
760.761	86.38
760.94	85.29
761.12	85.13
761.299	85.07
761.479	86.82
761.658	86.69
761.838	87.71
762.017	87.44
762.197	88.39
762.376	88.31
762.555	89.24
762.735	87.75
762.914	88.44
763.093	87.95
763.273	88.2
763.452	87.77
763.631	87
763.81	86.21
763.99	86.32
764.169	85.92
764.348	86.4
764.527	85.76
764.706	85.78
764.885	87.28
765.064	87.35
765.243	87.12
765.423	87.96
765.602	87.38
765.781	88.01
765.96	88.73
766.139	87.53
766.318	87.27
766.497	87.58
766.676	86.65
766.854	85.87
767.033	85.41
767.212	84.25
767.391	84.64
767.57	84.74
767.749	84.08
767.928	83.65
768.106	84.26
768.285	84.84
768.464	86.01
768.643	86.47
768.821	86.98
769	88.07
769.179	87.66
769.357	87.51
769.536	87.61
769.715	87.01
769.893	87.01
770.072	86.52
770.25	86.52
770.429	86.85
770.607	87.07
770.786	87.01
770.964	86.43
771.143	86.12
771.321	85.55
771.5	84.75
771.678	84.79
771.857	84.47
772.035	85.32
772.213	86.15
772.392	85.36
772.57	85.91
772.748	85.85
772.927	85.98
773.105	85.94
773.283	84.44
773.461	83.64
773.64	83.98
773.818	82.5
773.996	82.34
774.174	82.85
774.352	83.61
774.531	82.71
774.709	82.54
774.887	82.28
775.065	82.56
775.243	83.62
775.421	83.78
775.599	82.1
775.777	83.9
775.955	83.85
776.133	83.27
776.311	83.14
776.489	81.13
776.667	80.43
776.844	81.48
777.022	80.85
777.2	81.35
777.378	83.71
777.556	86.12
777.734	88.09
777.911	89.13
778.089	88.08
778.267	87.82
778.445	86.28
778.622	84.42
778.8	83.63
778.978	82.88
779.155	81.15
779.333	81.39
779.511	81.65
779.688	81.54
779.866	81.24
780.043	81.38
780.221	81.64
780.398	82.51
780.576	82.54
780.753	81.31
780.931	84.15
781.108	85.68
781.286	84.96
781.463	85.35
781.64	85.51
781.818	86.8
781.995	88.14
782.172	87.32
782.35	85.04
782.527	86.44
782.704	85.73
782.882	86.01
783.059	84.67
783.236	84.48
783.413	84.03
783.59	84.78
783.768	83.51
783.945	84.21
784.122	82.81
784.299	84.03
784.476	84.62
784.653	83.35
784.83	83.23
785.007	82.06
785.184	81.53
785.361	81.83
785.538	81.47
785.715	80.93
785.892	81.95
786.069	81.65
786.246	81.68
786.423	81.79
786.6	81.51
786.776	80.75
786.953	80.09
787.13	81.15
787.307	81.72
787.484	83.48
787.66	82.06
787.837	82.1
788.014	82.68
788.191	81.74
788.367	79.08
788.544	80.61
788.721	79.81
788.897	80.99
789.074	80.71
789.25	81.02
789.427	82.16
789.603	85.15
789.78	84
789.956	82.28
790.133	83.23
790.309	83.26
790.486	82.8
790.662	84.74
790.839	85.09
791.015	84.86
791.192	86.26
791.368	86.6
791.544	87.25
791.721	85.66
791.897	83.51
792.073	79.82
792.249	80.98
792.426	82.7
792.602	82.53
792.778	81.91
792.954	82.02
793.13	83.25
793.307	83.42
793.483	82.7
793.659	82.58
793.835	79.94
794.011	79.07
794.187	78.85
794.363	76.98
794.539	77.7
794.715	74.48
794.891	71.18
795.067	74.71
795.243	76.02
795.419	77.84
795.595	76.48
795.771	77.52
795.947	78.72
796.122	78.16
796.298	74.11
796.474	75.72
796.65	74.41
796.826	78.92
797.001	79.42
797.177	79.96
797.353	84.56
797.529	86.84
797.704	82.55
797.88	83.21
798.056	82.68
798.231	81.88
798.407	82.37
798.582	80.43
798.758	82.58
798.934	84.47
799.109	82.16
799.285	79.81
799.46	77.35
799.636	77.25
799.811	79.35
799.986	79.18
800.162	79.55
800.337	81.79
800.513	84.12
800.688	86.33
800.863	87.04
801.039	82.13
801.214	80.02
801.389	78.99
801.565	81.92
801.74	80.61
801.915	82.13
802.09	80.73
802.265	83.99
802.441	85.66
802.616	88.48
802.791	86.09
802.966	82.62
803.141	79.91
803.316	83.91
803.491	80.16
803.666	78.36
803.841	76.61
804.016	75.23
804.191	79.05
804.366	77.88
804.541	74.39
804.716	73.3
804.891	74.33
805.066	72.89
805.241	71.14
805.416	69.66
805.591	73.46
805.765	73.22
805.94	77.03
806.115	71.93
806.29	74.5
806.464	76.87
806.639	75.22
806.814	73.17
806.989	73.33
807.163	71.27
807.338	76.57
807.512	69.9
807.687	68.02
807.862	67.66
808.036	64.82
808.211	66.8
808.385	64.73
808.56	68.93
808.734	72.25
808.909	74.47
809.083	76.2
809.258	81.13
809.432	80.43
809.606	86.66
809.781	79.75
809.955	85.58
810.13	84.7
810.304	83.82
810.478	85.87
810.652	85.99
810.827	80.61
811.001	81.26
811.175	74.47
811.349	73.31
811.524	73.27
811.698	68.14
811.872	66.07
812.046	67.58
812.22	66.36
812.394	66.36
812.568	66.06
812.742	66.04
812.916	68.59
813.09	68.53
813.264	70.33
813.438	74.52
813.612	74.67
813.786	82.18
813.96	86.07
814.134	86.31
814.308	83.58
814.482	79.88
814.656	81.14
814.83	76.79
815.003	71.64
815.177	70.71
815.351	73.2
815.525	72.6
815.698	73.7
815.872	69.58
816.046	76.84
816.219	79.49
816.393	74.29
816.567	66.59
816.74	68.99
816.914	69.24
817.088	65.71
817.261	66.27
817.435	63.28
817.608	63.99
817.782	71.39
817.955	73.11
818.129	75.04
818.302	83.46
818.475	83.11
818.649	80.99
818.822	83.75
818.996	77.53
819.169	75.86
819.342	70.98
819.516	62.34
819.689	57.86
819.862	58
820.035	57.07
820.209	56.59
820.382	56.35
820.555	58.58
820.728	54.16
820.901	55.18
821.075	59.43
821.248	57.19
821.421	56.71
821.594	57.92
821.767	57.48
821.94	62.07
822.113	66.77
822.286	66.58
822.459	77.42
822.632	89.68
822.805	85.44
822.978	84.43
823.151	88.05
823.324	79.11
823.496	67.94
823.669	62.62
823.842	59.03
824.015	58.92
824.188	57.52
824.361	57.71
824.533	62.11
824.706	75.31
824.879	73.4
825.051	76.09
825.224	79.24
825.397	77.18
825.569	76.85
825.742	73.49
825.915	75.32
826.087	70.52
826.26	69.6
826.432	73.9
826.605	74.64
826.777	79.5
826.95	82.11
827.122	81.22
827.295	83.14
827.467	74.14
827.64	61.99
827.812	61.84
827.984	65.06
828.157	68.63
828.329	66.79
828.501	70.75
828.674	69.31
828.846	76.92
829.018	73.71
829.19	68.88
829.363	64.1
829.535	64.25
829.707	56.38
829.879	60.85
830.051	55.46
830.223	50.56
830.395	43.4
830.568	42.68
830.74	43.31
830.912	45.06
831.084	41.97
831.256	38.34
831.428	43.84
831.6	50.27
831.772	50.09
831.943	48.56
832.115	54.61
832.287	58.08
832.459	59.8
832.631	71.21
832.803	74.51
832.975	73.1
833.146	70.67
833.318	72.72
833.49	73.31
833.662	74.14
833.833	66
834.005	65.94
834.177	68.97
834.348	69.21
834.52	66.77
834.692	72.43
834.863	73.45
835.035	63.43
835.206	56.62
835.378	47.49
835.549	55.08
835.721	52.11
835.892	44.42
836.064	51.35
836.235	56.52
836.407	57.41
836.578	68.61
836.749	70.8
836.921	79.91
837.092	90.57
837.264	86
837.435	84.67
837.606	87.92
837.777	76.05
837.949	65.75
838.12	53.83
838.291	53.41
838.462	55.6
838.633	56.1
838.805	48.29
838.976	56.45
839.147	48.76
839.318	50.79
839.489	43.22
839.66	43.99
839.831	45.55
840.002	44.28
840.173	36.94
840.344	45.7
840.515	41.61
840.686	50.33
840.857	46.26
841.028	53.54
841.199	62.17
841.369	64.3
841.54	66.94
841.711	81.04
841.882	75.93
842.053	87.49
842.223	64.35
842.394	57.41
842.565	63.49
842.736	58.15
842.906	50.61
843.077	51.72
843.248	53.55
843.418	63.99
843.589	66.89
843.759	62.98
843.93	65.66
844.101	62.84
844.271	66.52
844.442	59.87
844.612	63.03
844.783	44.35
844.953	38.4
845.123	39.9
845.294	39.37
845.464	52
845.635	54.45
845.805	53.27
845.975	61.92
846.146	62.84
846.316	74.53
846.486	85.37
846.656	84.41
846.827	83.68
846.997	86.05
847.167	87.36
847.337	85.63
847.507	87.48
847.677	84.87
847.848	81.15
848.018	68.69
848.188	59.45
848.358	69.52
848.528	81.13
848.698	60.3
848.868	54.04
849.038	59.54
849.208	67.55
849.378	62.26
849.548	51.71
849.718	43.86
849.887	43.78
850.057	57.94
850.227	51.98
850.397	42.28
850.567	62.79
850.737	60.62
850.906	61.92
851.076	52.35
851.246	43.52
851.415	46.1
851.585	57.97
851.755	59.61
851.924	70.65
852.094	75.53
852.264	77.25
852.433	83.64
852.603	92.82
852.772	85.77
852.942	71.53
853.111	60.73
853.281	45.9
853.45	53.9
853.62	48.93
853.789	47.26
853.959	54.23
854.128	45.7
854.297	48.77
854.467	55.01
854.636	56.89
854.805	59.6
854.975	68.06
855.144	76.42
855.313	96.94
855.482	88.19
855.652	91.54
855.821	92.99
855.99	97.67
856.159	87.65
856.328	69.01
856.497	55.72
856.667	64.24
856.836	61.61
857.005	61.68
857.174	70.74
857.343	63.58
857.512	56.77
857.681	61.44
857.85	54.01
858.019	69.81
858.188	68.24
858.356	32.83
858.525	39.9
858.694	55.35
858.863	50.05
859.032	39.96
859.201	20.81
859.369	20.22
859.538	33.01
859.707	38.49
859.876	36.52
860.044	34.04
860.213	45.75
860.382	47.3
860.55	59.2
860.719	51.32
860.888	39.18
861.056	27.13
861.225	23.51
861.393	40.93
861.562	20.6
861.73	5.65
861.899	11.18
862.067	29.96
862.236	34.23
862.404	38.2
862.572	32.46
862.741	42.95
862.909	48.65
863.078	39.29
863.246	34.39
863.414	29.74
863.582	11.13
863.751	15.52
863.919	34
864.087	34.45
864.255	35.77
864.424	38.33
864.592	37.16
864.76	62.08
864.928	67.75
865.096	50.94
865.264	52.93
865.432	59.78
865.6	51.67
865.768	54.98
865.936	39.83
866.104	18.12
866.272	38.59
866.44	20.21
866.608	16.08
866.776	35.22
866.944	18.43
867.112	13.61
867.28	-3.1
867.448	7.41
867.615	28.31
867.783	27.1
867.951	39.7
868.119	71.58
868.286	79.15
868.454	70.41
868.622	63.61
868.789	66.1
868.957	73.71
869.125	55.39
869.292	47.26
869.46	50.49
869.627	65.02
869.795	61.24
869.963	55.33
870.13	78.59
870.298	98.58
870.465	100.94
870.632	89.21
870.8	70.53
870.967	62.32
871.135	44.87
871.302	23.32
871.469	15.97
871.637	13.42
871.804	26.03
871.971	25.32
872.139	33.55
872.306	39.64
872.473	35.64
872.64	40.78
872.807	54.92
872.975	66.97
873.142	37.73
873.309	38.19
873.476	73.81
873.643	110.45
873.81	126.93
873.977	126.93
874.144	143.03
874.311	148.02
874.478	67.3
874.645	83.45
874.812	58.38
874.979	50.37
875.146	25.2
875.313	-18.32
875.48	73.44
875.647	111.62
875.813	87.29
875.98	75.1
876.147	65.38
876.314	58.7
876.481	63.99
876.647	49.85
876.814	52.01
876.981	47.48
877.147	57.79
877.314	63.54
877.481	54.8
877.647	54.3
877.814	43.98
877.98	62.46
878.147	66.34
878.314	69.1
878.48	62.49
878.647	81.74
878.813	84.62
878.979	100.8
879.146	66.48
879.312	82.96
879.479	63.54
879.645	44.11
879.811	29.95
879.978	32.82
880.144	38.74
880.31	21.5
880.477	-0.66
880.643	-117.02
880.809	-14.56
880.975	-19.1
881.142	-6.06
881.308	4.78
881.474	51.01
881.64	-17.46
881.806	32.4
881.972	54.09
882.138	86.44
882.304	95.39
882.47	45.63
882.636	-12.86
882.802	-4.89
882.968	-19.21
883.134	-206.37
883.3	-112.93
883.466	-26.11
883.632	-52.71
883.798	-12.98
883.964	5.22
884.129	-1.62
884.295	3.27
884.461	-9.6
884.627	-66.72
884.793	11.66
884.958	-15.55
885.124	-37.12
885.29	-4.81
885.455	25.3
885.621	11.64
885.787	11.65
885.952	-4.91
886.118	15.69
886.283	18.7
886.449	-9.06
886.614	-0.61
886.78	25.9
886.945	15.87
887.111	9.91
887.276	-6.02
887.442	-11.99
887.607	-0.74
887.773	-29.55
887.938	-68.37
888.103	-24.09
888.269	-5.45
888.434	15.91
888.599	64.49
888.764	50.98
888.93	65.21
889.095	80.45
889.26	120.13
889.425	124.8
889.59	72.32
889.756	53.73
889.921	36.78
890.086	58.5
890.251	45
890.416	-24.65
890.581	-25.56
890.746	-12.45
890.911	-69.44
891.076	-44.57
891.241	-109.8
891.406	-4.09
891.571	20.16
891.736	14.11
891.901	62.7
892.065	68.7
892.23	54.25
892.395	49.15
892.56	24.57
892.725	7.66
892.889	-15.09
893.054	-80.25
893.219	-79.78
893.384	-66.15
893.548	-170.83
893.713	162.62
893.878	-24.46
