Data from Ofra_1a_PS_2GT38_Reflection_3.txt Node
Date: Tue Jul 20 10:50:18 EDT 2021
User: Adam
Spectrometer: FLMT01687
Trigger mode: 0
Integration Time (sec): 1.004000E0
Scans to average: 2
Electric dark correction enabled: true
Nonlinearity correction enabled: false
Boxcar width: 2
XAxis mode: Wavelengths
Number of Pixels in Spectrum: 3648
>>>>>Begin Spectral Data<<<<<
179.494	-77.16
179.716	-154.96
179.937	214.05
180.158	104.46
180.38	68.25
180.601	33.35
180.823	44.48
181.044	9.54
181.265	152.74
181.486	63.72
181.708	36
181.929	-4545.45
182.15	-64.88
182.372	-169.46
182.593	17.83
182.814	-76.06
183.035	-19.73
183.257	12.57
183.478	-21.35
183.699	-38.03
183.92	-62.77
184.141	-62.29
184.363	-28.75
184.584	-16.91
184.805	0.72
185.026	48.78
185.247	66.44
185.468	59.36
185.689	56.91
185.91	71.26
186.132	48.06
186.353	47.82
186.574	43.98
186.795	42.12
187.016	42.24
187.237	31.54
187.458	15.59
187.679	10.65
187.9	23.05
188.121	31.85
188.342	68.55
188.563	75.71
188.784	71.71
189.005	55.02
189.226	45.41
189.447	12.25
189.667	1.84
189.888	1.97
190.109	-15.67
190.33	-6.19
190.551	2.69
190.772	8.46
190.993	-18.06
191.214	-27.51
191.434	-43.52
191.655	-24.4
191.876	-28.34
192.097	4.6
192.318	40.35
192.538	18.76
192.759	1.78
192.98	6.6
193.201	-5.93
193.421	-14.65
193.642	8.05
193.863	17.04
194.083	12.42
194.304	35.04
194.525	13.84
194.745	-8.66
194.966	-1.88
195.187	-3.53
195.407	-22.45
195.628	-2.56
195.848	1.33
196.069	-21.59
196.29	-14.61
196.51	-24.59
196.731	-20.56
196.951	-30.66
197.172	-4.51
197.392	-2.4
197.613	19.9
197.833	8.09
198.054	12.63
198.274	2.11
198.495	6.24
198.715	2.18
198.936	25.3
199.156	24.01
199.377	28.75
199.597	34.92
199.817	28.26
200.038	-23.8
200.258	3.21
200.479	14.87
200.699	4.42
200.919	23.08
201.14	55.83
201.36	56.22
201.58	38.31
201.801	60.38
202.021	31.94
202.241	2.45
202.461	12.04
202.682	20.63
202.902	23.2
203.122	32.19
203.342	54.95
203.563	30.9
203.783	17.63
204.003	5.05
204.223	15.62
204.443	9.25
204.663	-10.96
204.884	16.5
205.104	7.08
205.324	32.69
205.544	10.21
205.764	59.26
205.984	62.63
206.204	67.92
206.424	16.15
206.644	-5.71
206.864	-57.14
207.084	-16.84
207.304	-8.67
207.525	5.04
207.745	39.11
207.964	55.02
208.184	44.17
208.404	30.14
208.624	44.64
208.844	26.9
209.064	16.8
209.284	-3.28
209.504	-13.93
209.724	-9.58
209.944	-12.9
210.164	-14
210.384	-10.19
210.604	-47.38
210.823	-72.97
211.043	-41.22
211.263	-107.16
211.483	-62.11
211.703	-15.94
211.922	-31.77
212.142	-19.59
212.362	18.05
212.582	16.71
212.801	-3.38
213.021	-10.33
213.241	-11.57
213.461	-2.88
213.68	17.27
213.9	23.63
214.12	27.96
214.339	30.16
214.559	15.19
214.779	2.39
214.998	-7.08
215.218	2.49
215.438	2.16
215.657	-2.44
215.877	4.46
216.096	30.36
216.316	30.84
216.535	34.9
216.755	47.15
216.974	38.23
217.194	11.56
217.413	14.89
217.633	14.49
217.852	9.06
218.072	10.07
218.291	-6.52
218.511	-7.37
218.73	-27.63
218.95	-56.08
219.169	-62.17
219.389	-19.33
219.608	-19.98
219.827	-0.28
220.047	26.91
220.266	23.58
220.485	24.43
220.705	35.63
220.924	44.83
221.143	39.78
221.363	50.03
221.582	44.89
221.801	44.89
222.021	45.59
222.24	25.48
222.459	44.71
222.678	42.3
222.897	42.81
223.117	45.33
223.336	56.69
223.555	44.04
223.774	56.46
223.993	38.36
224.213	59.83
224.432	69.95
224.651	53.94
224.87	40.71
225.089	58.17
225.308	55.17
225.527	33.75
225.746	43.79
225.965	49.21
226.184	12.37
226.404	1.57
226.623	1.58
226.842	-1.85
227.061	0.82
227.28	24.63
227.499	33.56
227.718	38.68
227.936	39.33
228.155	31.9
228.374	31.06
228.593	15.3
228.812	20.65
229.031	38.68
229.25	40.95
229.469	27.88
229.688	42.97
229.907	47.47
230.125	29.49
230.344	24.84
230.563	36.99
230.782	28.22
231.001	19.86
231.22	24.29
231.438	13.47
231.657	10.59
231.876	8.35
232.095	16.2
232.313	22.59
232.532	36.49
232.751	35.89
232.969	41.45
233.188	16.99
233.407	12.51
233.625	17.63
233.844	29.86
234.063	34.9
234.281	42.3
234.5	52.56
234.719	43.97
234.937	50.03
235.156	52.2
235.374	46.97
235.593	51.83
235.811	66.66
236.03	37.43
236.249	36.14
236.467	41.69
236.686	30.35
236.904	25.91
237.123	31.67
237.341	22.26
237.559	32.55
237.778	42.64
237.996	15.93
238.215	-37.47
238.433	-40.24
238.652	-11.32
238.87	-32.66
239.088	-31.62
239.307	13.87
239.525	12.95
239.743	-4.28
239.962	-11.71
240.18	9.41
240.398	3.65
240.617	-12.02
240.835	-0.1
241.053	14.95
241.271	13.51
241.49	29.1
241.708	28.3
241.926	27.36
242.144	32.68
242.363	41.27
242.581	20.4
242.799	30.32
243.017	19.56
243.235	10.92
243.453	-14.26
243.672	15.96
243.89	15.51
244.108	14.14
244.326	20.33
244.544	33.2
244.762	12.11
244.98	18.22
245.198	23.77
245.416	18.13
245.634	21.33
245.852	25.77
246.07	30.97
246.288	26.09
246.506	36.71
246.724	34.75
246.942	43.14
247.16	41.13
247.378	48.36
247.596	57.85
247.814	51.82
248.032	31.64
248.25	44.66
248.468	35.71
248.685	36.84
248.903	37.01
249.121	34.13
249.339	33.89
249.557	51.27
249.775	45.25
249.992	41.11
250.21	50.57
250.428	47.86
250.646	40.8
250.863	32.87
251.081	42.71
251.299	42.39
251.517	40.27
251.734	30.13
251.952	31.61
252.17	25.73
252.387	24.98
252.605	18.64
252.823	24.13
253.04	53.98
253.258	45.36
253.475	46.61
253.693	34.9
253.911	31.32
254.128	3.87
254.346	29.47
254.563	26.61
254.781	33.57
254.998	31.38
255.216	31.42
255.433	11.92
255.651	-2.84
255.868	-8.08
256.086	-9.01
256.303	11.4
256.521	1.29
256.738	19.39
256.956	34.35
257.173	34.77
257.39	36.94
257.608	33.22
257.825	23.78
258.043	30.84
258.26	32.32
258.477	14.44
258.695	2.79
258.912	-3.57
259.129	-30.54
259.346	-68.61
259.564	-62.47
259.781	-20.49
259.998	-7.1
260.216	8.27
260.433	27.88
260.65	38.85
260.867	50.71
261.084	60.22
261.302	76.01
261.519	73.9
261.736	58.03
261.953	40.71
262.17	28.99
262.387	9.49
262.604	10.48
262.822	23.53
263.039	21.54
263.256	24.54
263.473	39.96
263.69	33.05
263.907	34.85
264.124	51.11
264.341	49.29
264.558	33.99
264.775	49.57
264.992	45.45
265.209	30.52
265.426	29.1
265.643	41.35
265.86	18.89
266.077	16.61
266.294	28.93
266.51	42.14
266.727	36.51
266.944	49.29
267.161	52.93
267.378	59.28
267.595	40.55
267.812	28.36
268.028	21.8
268.245	12.1
268.462	-5.37
268.679	18.94
268.896	49.67
269.112	32.35
269.329	10.46
269.546	36.01
269.763	28.53
269.979	5.43
270.196	17.92
270.413	31.56
270.629	11.2
270.846	13.83
271.063	24.56
271.279	31.28
271.496	20.58
271.712	21.63
271.929	22.58
272.146	18.42
272.362	12.04
272.579	14.51
272.795	22.37
273.012	23.88
273.228	40.09
273.445	49.13
273.661	61.12
273.878	43.44
274.094	30.81
274.311	14.11
274.527	-4.57
274.744	9.14
274.96	21.87
275.177	36.05
275.393	41.6
275.609	38.37
275.826	28.31
276.042	23.46
276.259	19.44
276.475	8.14
276.691	-0.74
276.908	6.21
277.124	19.16
277.34	19.25
277.557	3.59
277.773	32.51
277.989	26.95
278.205	25.88
278.422	10.92
278.638	38.65
278.854	37.92
279.07	46.13
279.286	42.5
279.503	40.47
279.719	28.62
279.935	5.82
280.151	-12.09
280.367	-6.98
280.583	-8.29
280.799	-11.56
281.016	-28.98
281.232	-20.15
281.448	-35.03
281.664	-23.44
281.88	-2.74
282.096	6.53
282.312	14.6
282.528	12.96
282.744	18.95
282.96	6.11
283.176	-5.23
283.392	-44.13
283.608	-1.35
283.824	-5.5
284.04	-51.64
284.256	-20.26
284.471	-7.66
284.687	-20.18
284.903	-22.5
285.119	0.08
285.335	9.57
285.551	9.28
285.767	12.97
285.982	-3.57
286.198	-35.02
286.414	-36.16
286.63	-48.75
286.846	-49.25
287.061	2.21
287.277	10.22
287.493	-7.98
287.709	8.71
287.924	18.39
288.14	11.6
288.356	39.02
288.571	49.78
288.787	37.46
289.003	41.39
289.218	33.19
289.434	12.34
289.65	17.06
289.865	21.57
290.081	17.51
290.296	32.15
290.512	29
290.727	19.24
290.943	18.49
291.159	22
291.374	-4.23
291.59	-3.35
291.805	-13.05
292.021	-11.89
292.236	-30.8
292.451	-9.37
292.667	-7.63
292.882	6.4
293.098	-5.16
293.313	-3.07
293.529	-10.24
293.744	-15.33
293.959	-24.38
294.175	-7.66
294.39	3.02
294.605	17.23
294.821	18.84
295.036	28.02
295.251	28.26
295.467	15.57
295.682	7.68
295.897	-0.38
296.112	-4.1
296.328	-5.24
296.543	-20.22
296.758	-10.93
296.973	0.78
297.188	-14.55
297.404	-27.72
297.619	19.18
297.834	-21.23
298.049	-13.33
298.264	14.19
298.479	14.03
298.694	17.29
298.909	38.35
299.125	32.3
299.34	35.97
299.555	36.85
299.77	47.92
299.985	32.87
300.2	37.37
300.415	34.06
300.63	37.53
300.845	27.62
301.06	36.26
301.275	36.61
301.49	32.64
301.704	28.04
301.919	15.79
302.134	14.2
302.349	22.07
302.564	17.47
302.779	10.15
302.994	26.83
303.209	30.35
303.423	6.39
303.638	13.67
303.853	13.75
304.068	-6.44
304.283	-0.9
304.497	12.88
304.712	1.23
304.927	8.7
305.142	14.51
305.356	15.65
305.571	13.01
305.786	17.98
306	16.27
306.215	5.4
306.43	-5.89
306.644	-14.98
306.859	-24.18
307.074	-1.34
307.288	22.32
307.503	28.94
307.717	28.91
307.932	26.71
308.147	13.39
308.361	13.98
308.576	-19.29
308.79	-10.26
309.005	-18.74
309.219	8.5
309.434	12.48
309.648	33.38
309.863	54.33
310.077	50.84
310.292	56.13
310.506	32.33
310.72	19.26
310.935	18.06
311.149	22.66
311.364	1.03
311.578	22.5
311.792	33.21
312.007	36.14
312.221	32.47
312.435	21.32
312.649	20.45
312.864	24.77
313.078	18.22
313.292	34.87
313.507	49.56
313.721	41.29
313.935	46.31
314.149	34.47
314.363	30.76
314.578	17.66
314.792	-1.66
315.006	-13.79
315.22	8.87
315.434	17.39
315.648	12.17
315.862	20.28
316.077	22.11
316.291	23.35
316.505	-11.01
316.719	-1.55
316.933	-3.04
317.147	-0.9
317.361	-9.18
317.575	-10.86
317.789	7.09
318.003	14.77
318.217	8.22
318.431	-7.7
318.645	-2.86
318.859	-11.04
319.073	1.16
319.287	2.7
319.5	15.81
319.714	14.21
319.928	9.1
320.142	-8.39
320.356	10.55
320.57	-13.33
320.784	-13.39
320.997	-22.01
321.211	8.14
321.425	-8.8
321.639	17.78
321.853	22.77
322.066	17.5
322.28	3.1
322.494	4.94
322.707	-7.11
322.921	-1.9
323.135	3.85
323.349	-5.3
323.562	-11.99
323.776	-6.98
323.989	12.71
324.203	10.45
324.417	16.2
324.63	24.29
324.844	23.43
325.057	-6.06
325.271	-3.87
325.485	6.49
325.698	19.02
325.912	28.23
326.125	35.76
326.339	37.14
326.552	37.1
326.766	20.11
326.979	25.72
327.193	19.24
327.406	11.47
327.619	15.1
327.833	13.5
328.046	10.85
328.26	12.33
328.473	18.32
328.686	15.25
328.9	24.86
329.113	22.27
329.326	19.83
329.54	25.06
329.753	34.39
329.966	35.06
330.179	28.21
330.393	32.57
330.606	20.16
330.819	-0.5
331.032	-6.78
331.246	3.04
331.459	4.6
331.672	5.33
331.885	15.92
332.098	24.42
332.311	14.2
332.525	16.18
332.738	19.26
332.951	20.09
333.164	24.21
333.377	36.09
333.59	39.02
333.803	43.67
334.016	36.74
334.229	20.35
334.442	12.63
334.655	2.81
334.868	3.48
335.081	-1.34
335.294	1.04
335.507	14.2
335.72	16.49
335.933	17.69
336.146	19.55
336.359	32.34
336.572	28.16
336.785	34.49
336.997	42.24
337.21	38.13
337.423	4.32
337.636	4.59
337.849	11.43
338.062	2.36
338.274	21.18
338.487	11.88
338.7	2.05
338.913	0.54
339.125	2.8
339.338	-15.42
339.551	-8.25
339.763	-3.36
339.976	1.46
340.189	5.53
340.402	21.8
340.614	35.6
340.827	42.14
341.039	40.98
341.252	36.82
341.465	15.87
341.677	11.82
341.89	-3.67
342.102	-1.61
342.315	3.48
342.527	21.78
342.74	15.57
342.952	32.88
343.165	32.05
343.377	28.35
343.59	30.33
343.802	43.63
344.015	37.68
344.227	43.85
344.44	49.87
344.652	41.52
344.864	29.59
345.077	39.27
345.289	46.19
345.502	55
345.714	67.31
345.926	82.22
346.139	69.45
346.351	50.4
346.563	35.38
346.775	24.47
346.988	27.26
347.2	15.88
347.412	29.11
347.624	19.05
347.837	31.69
348.049	25.19
348.261	31.2
348.473	10.74
348.685	19.45
348.897	5.19
349.11	24.31
349.322	33.08
349.534	37.87
349.746	38.7
349.958	29.61
350.17	-4.38
350.382	-5.08
350.594	3.85
350.806	5.5
351.018	13.4
351.23	36.18
351.442	39.87
351.654	41.64
351.866	42.39
352.078	42.63
352.29	39.31
352.502	28.4
352.714	24.98
352.926	28.61
353.138	17.14
353.35	-1.58
353.561	11.84
353.773	12.42
353.985	16.29
354.197	22.91
354.409	25.92
354.621	8.05
354.832	3.14
355.044	-29.46
355.256	-33.45
355.468	-37.92
355.679	-18.09
355.891	-1.94
356.103	13.23
356.314	6.72
356.526	-6.17
356.738	-1.26
356.949	-12.53
357.161	5.01
357.373	16.44
357.584	30.51
357.796	31.8
358.008	32.84
358.219	18.44
358.431	12.78
358.642	8.96
358.854	21.64
359.065	5.51
359.277	14.22
359.488	16.95
359.7	19.26
359.911	-1.58
360.123	12.76
360.334	7.31
360.546	-4.01
360.757	3.63
360.969	17.62
361.18	15.68
361.391	27.33
361.603	37.6
361.814	50.7
362.025	43.96
362.237	49.22
362.448	50.82
362.659	42.27
362.871	18.29
363.082	14.1
363.293	8.6
363.504	-19.65
363.716	-9.9
363.927	16.86
364.138	-8.69
364.349	-16.75
364.56	-24.09
364.772	-7.37
364.983	-13.73
365.194	2.58
365.405	10.37
365.616	20.75
365.827	6.78
366.038	3.84
366.25	19.31
366.461	22.88
366.672	18.11
366.883	20.06
367.094	22.94
367.305	1.04
367.516	-9.43
367.727	-15.29
367.938	-14.21
368.149	-27.2
368.36	-16.61
368.571	-25.8
368.781	-23.05
368.992	-17.32
369.203	-4.76
369.414	-7.57
369.625	-0.65
369.836	25.37
370.047	21.08
370.258	27.42
370.468	21.77
370.679	18.06
370.89	-5.34
371.101	6.95
371.312	-1.66
371.522	-1.87
371.733	2.46
371.944	5.88
372.155	9.12
372.365	19.94
372.576	11.89
372.787	22.6
372.997	26.64
373.208	16.28
373.419	16.59
373.629	13.98
373.84	-5.85
374.05	-6.56
374.261	-23.28
374.472	-21.2
374.682	-5.35
374.893	-3.05
375.103	-2.48
375.314	12.96
375.524	4.77
375.735	2.57
375.945	14
376.156	7.43
376.366	5.44
376.577	6.93
376.787	11.17
376.997	1.14
377.208	5.21
377.418	10
377.629	17.41
377.839	28.58
378.049	38.89
378.26	37.81
378.47	41.93
378.68	32.55
378.89	9.8
379.101	8.68
379.311	8.81
379.521	5.81
379.732	8.87
379.942	8.93
380.152	4.22
380.362	4.23
380.572	23.35
380.783	23.99
380.993	32.35
381.203	29.92
381.413	34.03
381.623	17.36
381.833	15.52
382.043	7.74
382.253	8.69
382.463	16.45
382.674	21.51
382.884	24.91
383.094	21.09
383.304	26.1
383.514	25.52
383.724	21.42
383.934	10.61
384.144	18.17
384.353	17.71
384.563	9.6
384.773	17.09
384.983	18.1
385.193	18.46
385.403	14.95
385.613	18.56
385.823	10.52
386.033	13.69
386.242	11.89
386.452	8.16
386.662	5.82
386.872	11.16
387.082	10.5
387.291	5.31
387.501	7.38
387.711	7.23
387.921	3.47
388.13	1.93
388.34	3.74
388.55	-0.27
388.759	-6.47
388.969	-6.71
389.179	-7.71
389.388	-8.57
389.598	-9.28
389.807	-8.71
390.017	-8.54
390.227	-6.9
390.436	-2.3
390.646	0.41
390.855	2.51
391.065	2.56
391.274	3.39
391.484	0.63
391.693	0.57
391.903	0.92
392.112	1.41
392.322	1.06
392.531	3.67
392.74	5.61
392.95	6.97
393.159	7.05
393.369	7.77
393.578	6.39
393.787	5.1
393.997	4.91
394.206	4.09
394.415	4.69
394.625	3.8
394.834	3.02
395.043	1.97
395.252	4.74
395.462	3.81
395.671	4.05
395.88	5.68
396.089	5.97
396.298	3.87
396.508	4.41
396.717	4.36
396.926	3.64
397.135	4.04
397.344	4.35
397.553	3.21
397.762	4.13
397.971	3.7
398.181	3.53
398.39	2.96
398.599	3.63
398.808	3.34
399.017	4.29
399.226	4.44
399.435	4.74
399.644	5.37
399.853	5.65
400.062	5.23
400.27	4.73
400.479	4.91
400.688	4.35
400.897	3.9
401.106	3.77
401.315	3.9
401.524	3.9
401.733	3.8
401.941	4.14
402.15	3.88
402.359	3.99
402.568	3.99
402.777	4.39
402.985	4.05
403.194	4.17
403.403	4.26
403.612	4.17
403.82	3.59
404.029	3.72
404.238	3.83
404.446	3.85
404.655	3.97
404.864	4.34
405.072	4.24
405.281	4.21
405.489	4.11
405.698	4.17
405.906	4.09
406.115	4.15
406.324	4.28
406.532	4.38
406.741	4.29
406.949	4.31
407.158	4.34
407.366	4.16
407.574	4.14
407.783	4.13
407.991	4.07
408.2	4.08
408.408	4.17
408.617	4.08
408.825	3.92
409.033	3.93
409.242	3.92
409.45	3.89
409.658	3.75
409.867	3.86
410.075	3.79
410.283	3.78
410.491	3.6
410.7	3.66
410.908	3.67
411.116	3.84
411.324	3.71
411.533	3.69
411.741	3.64
411.949	3.57
412.157	3.44
412.365	3.59
412.573	3.66
412.781	3.73
412.99	3.75
413.198	3.81
413.406	3.8
413.614	3.8
413.822	3.86
414.03	3.8
414.238	3.78
414.446	3.87
414.654	3.84
414.862	3.78
415.07	3.74
415.278	3.82
415.486	3.58
415.694	3.65
415.902	3.61
416.109	3.64
416.317	3.48
416.525	3.41
416.733	3.28
416.941	3.26
417.149	3.16
417.357	3.1
417.564	3.21
417.772	3.44
417.98	3.54
418.188	3.57
418.395	3.44
418.603	3.35
418.811	3.09
419.019	3
419.226	3.02
419.434	3.34
419.642	3.28
419.849	3.46
420.057	3.39
420.265	3.4
420.472	3.34
420.68	3.42
420.887	3.24
421.095	3.34
421.302	3.45
421.51	3.34
421.717	3.39
421.925	3.48
422.132	3.47
422.34	3.26
422.547	3.26
422.755	3.32
422.962	3.31
423.17	3.17
423.377	3.19
423.585	3.25
423.792	3.05
423.999	3.17
424.207	3.21
424.414	3.27
424.621	3.34
424.829	3.53
425.036	3.46
425.243	3.64
425.451	3.64
425.658	3.5
425.865	3.34
426.072	3.27
426.28	3.19
426.487	3.16
426.694	3.07
426.901	3.21
427.108	3.13
427.315	2.94
427.523	2.82
427.73	2.97
427.937	2.73
428.144	2.81
428.351	2.98
428.558	3.1
428.765	3
428.972	3.25
429.179	3.19
429.386	3.23
429.593	3.18
429.8	3.15
430.007	3.04
430.214	3.12
430.421	3.17
430.628	3.24
430.835	3.28
431.042	3.27
431.249	3.29
431.456	3.2
431.662	3.28
431.869	3.36
432.076	3.49
432.283	3.49
432.49	3.47
432.697	3.42
432.903	3.4
433.11	3.33
433.317	3.42
433.524	3.47
433.73	3.38
433.937	3.5
434.144	3.39
434.35	3.25
434.557	3.3
434.764	3.52
434.97	3.28
435.177	3.49
435.384	3.64
435.59	3.63
435.797	3.51
436.003	3.59
436.21	3.49
436.416	3.45
436.623	3.5
436.829	3.51
437.036	3.5
437.242	3.49
437.449	3.51
437.655	3.62
437.862	3.69
438.068	3.76
438.275	3.88
438.481	3.91
438.687	3.73
438.894	3.89
439.1	3.91
439.307	3.9
439.513	3.88
439.719	3.95
439.926	3.88
440.132	3.87
440.338	3.99
440.544	3.99
440.751	3.95
440.957	4.02
441.163	4
441.369	3.93
441.575	3.88
441.782	3.96
441.988	3.91
442.194	3.93
442.4	3.88
442.606	3.96
442.812	3.96
443.018	3.92
443.224	3.99
443.431	4.02
443.637	4.04
443.843	3.99
444.049	4
444.255	4.08
444.461	4.01
444.667	4.03
444.873	4.11
445.079	4.11
445.284	4.04
445.49	4.04
445.696	3.96
445.902	3.85
446.108	3.89
446.314	3.84
446.52	3.95
446.726	4.06
446.931	4.12
447.137	4.13
447.343	4.24
447.549	4.16
447.755	4.07
447.96	4.07
448.166	4.03
448.372	3.94
448.578	3.83
448.783	3.87
448.989	3.9
449.195	3.95
449.4	4.09
449.606	4.22
449.812	4.24
450.017	4.24
450.223	4.2
450.428	4.07
450.634	4.08
450.84	4.04
451.045	4.13
451.251	4.16
451.456	4.21
451.662	4.22
451.867	4.32
452.073	4.26
452.278	4.23
452.483	4.3
452.689	4.28
452.894	4.34
453.1	4.26
453.305	4.28
453.51	4.25
453.716	4.24
453.921	4.15
454.127	4.27
454.332	4.26
454.537	4.2
454.742	4.23
454.948	4.25
455.153	4.19
455.358	4.22
455.563	4.41
455.769	4.52
455.974	4.49
456.179	4.46
456.384	4.45
456.589	4.3
456.795	4.21
457	4.31
457.205	4.32
457.41	4.31
457.615	4.35
457.82	4.41
458.025	4.39
458.23	4.3
458.435	4.34
458.64	4.3
458.845	4.37
459.05	4.36
459.255	4.49
459.46	4.46
459.665	4.51
459.87	4.37
460.075	4.38
460.28	4.43
460.485	4.51
460.69	4.57
460.895	4.66
461.099	4.51
461.304	4.45
461.509	4.47
461.714	4.48
461.919	4.48
462.123	4.66
462.328	4.57
462.533	4.44
462.738	4.35
462.942	4.3
463.147	4.24
463.352	4.42
463.556	4.55
463.761	4.54
463.966	4.53
464.17	4.64
464.375	4.67
464.58	4.61
464.784	4.65
464.989	4.76
465.193	4.66
465.398	4.59
465.602	4.65
465.807	4.68
466.011	4.69
466.216	4.69
466.42	4.74
466.625	4.79
466.829	4.76
467.034	4.83
467.238	4.91
467.443	4.88
467.647	4.77
467.851	4.77
468.056	4.73
468.26	4.7
468.464	4.76
468.669	4.91
468.873	4.94
469.077	4.95
469.282	5.03
469.486	4.99
469.69	4.95
469.894	4.99
470.099	4.94
470.303	4.92
470.507	5
470.711	5
470.915	5.08
471.119	5.11
471.324	5.14
471.528	5.12
471.732	5.15
471.936	5.11
472.14	5.15
472.344	5.25
472.548	5.24
472.752	5.23
472.956	5.26
473.16	5.25
473.364	5.17
473.568	5.13
473.772	5.1
473.976	5.2
474.18	5.24
474.384	5.23
474.588	5.26
474.792	5.35
474.995	5.29
475.199	5.25
475.403	5.21
475.607	5.24
475.811	5.26
476.015	5.13
476.218	5.15
476.422	5.22
476.626	5.21
476.83	5.26
477.033	5.4
477.237	5.44
477.441	5.37
477.644	5.42
477.848	5.33
478.052	5.28
478.255	5.3
478.459	5.38
478.663	5.51
478.866	5.6
479.07	5.6
479.273	5.58
479.477	5.6
479.681	5.49
479.884	5.47
480.088	5.52
480.291	5.54
480.495	5.51
480.698	5.55
480.901	5.57
481.105	5.55
481.308	5.56
481.512	5.55
481.715	5.58
481.919	5.63
482.122	5.65
482.325	5.73
482.529	5.82
482.732	5.75
482.935	5.69
483.138	5.75
483.342	5.7
483.545	5.74
483.748	5.83
483.952	5.88
484.155	5.95
484.358	6
484.561	5.91
484.764	5.8
484.967	5.78
485.171	5.72
485.374	5.65
485.577	5.7
485.78	5.73
485.983	5.68
486.186	5.64
486.389	5.67
486.592	5.69
486.795	5.74
486.998	5.71
487.201	5.71
487.404	5.8
487.607	5.82
487.81	5.76
488.013	5.83
488.216	5.84
488.419	5.72
488.622	5.63
488.825	5.62
489.028	5.66
489.231	5.68
489.433	5.68
489.636	5.7
489.839	5.81
490.042	5.8
490.245	5.78
490.447	5.84
490.65	5.89
490.853	5.87
491.056	5.9
491.258	5.95
491.461	5.95
491.664	5.91
491.866	5.86
492.069	5.85
492.272	5.74
492.474	5.67
492.677	5.67
492.879	5.67
493.082	5.7
493.285	5.73
493.487	5.8
493.69	5.78
493.892	5.77
494.095	5.71
494.297	5.79
494.5	5.76
494.702	5.78
494.905	5.75
495.107	5.73
495.309	5.74
495.512	5.76
495.714	5.78
495.917	5.91
496.119	5.97
496.321	5.94
496.524	5.87
496.726	5.92
496.928	5.88
497.13	5.85
497.333	5.78
497.535	5.85
497.737	5.79
497.939	5.82
498.142	5.82
498.344	5.97
498.546	5.99
498.748	6.04
498.95	6.04
499.152	6.05
499.355	5.95
499.557	5.99
499.759	6.03
499.961	6.02
500.163	6.02
500.365	6.12
500.567	6.1
500.769	6.11
500.971	6.12
501.173	6.04
501.375	6.09
501.577	6.09
501.779	5.99
501.981	5.98
502.183	6.13
502.385	6.07
502.587	6.09
502.788	6.2
502.99	6.21
503.192	6.18
503.394	6.21
503.596	6.22
503.798	6.15
503.999	6.14
504.201	6.11
504.403	6.12
504.605	6.18
504.806	6.25
505.008	6.31
505.21	6.34
505.411	6.32
505.613	6.26
505.815	6.28
506.016	6.34
506.218	6.4
506.42	6.42
506.621	6.52
506.823	6.54
507.024	6.47
507.226	6.46
507.427	6.49
507.629	6.5
507.83	6.54
508.032	6.56
508.233	6.58
508.435	6.57
508.636	6.57
508.838	6.54
509.039	6.56
509.24	6.58
509.442	6.63
509.643	6.64
509.845	6.65
510.046	6.68
510.247	6.72
510.448	6.73
510.65	6.78
510.851	6.84
511.052	6.83
511.254	6.86
511.455	6.84
511.656	6.82
511.857	6.78
512.058	6.86
512.26	6.78
512.461	6.83
512.662	6.81
512.863	6.73
513.064	6.66
513.265	6.68
513.466	6.71
513.667	6.77
513.868	6.9
514.069	6.95
514.27	7.01
514.471	6.94
514.672	6.96
514.873	6.99
515.074	7.02
515.275	6.95
515.476	7.02
515.677	7
515.878	6.96
516.079	6.93
516.28	6.99
516.481	7.03
516.682	7.02
516.882	7.01
517.083	7.04
517.284	7.07
517.485	7.03
517.686	7.06
517.886	7.09
518.087	7.12
518.288	7.12
518.488	7.11
518.689	7.09
518.89	7.11
519.091	7.2
519.291	7.15
519.492	7.15
519.692	7.17
519.893	7.14
520.094	7.04
520.294	7.12
520.495	7.14
520.695	7.18
520.896	7.22
521.096	7.24
521.297	7.26
521.497	7.28
521.698	7.3
521.898	7.3
522.099	7.31
522.299	7.25
522.499	7.29
522.7	7.25
522.9	7.27
523.101	7.3
523.301	7.37
523.501	7.34
523.702	7.39
523.902	7.43
524.102	7.49
524.302	7.48
524.503	7.52
524.703	7.54
524.903	7.46
525.103	7.44
525.304	7.49
525.504	7.52
525.704	7.5
525.904	7.55
526.104	7.5
526.304	7.52
526.504	7.48
526.705	7.54
526.905	7.56
527.105	7.62
527.305	7.57
527.505	7.59
527.705	7.55
527.905	7.65
528.105	7.64
528.305	7.71
528.505	7.72
528.705	7.82
528.905	7.78
529.105	7.84
529.304	7.81
529.504	7.85
529.704	7.77
529.904	7.73
530.104	7.7
530.304	7.71
530.503	7.74
530.703	7.72
530.903	7.76
531.103	7.84
531.303	7.9
531.502	7.9
531.702	8.02
531.902	8.11
532.101	8.1
532.301	8.04
532.501	8.1
532.7	8.1
532.9	8.1
533.1	8.16
533.299	8.24
533.499	8.18
533.698	8.14
533.898	8.11
534.097	8.05
534.297	8.06
534.496	8.12
534.696	8.16
534.895	8.17
535.095	8.19
535.294	8.28
535.494	8.28
535.693	8.33
535.892	8.4
536.092	8.38
536.291	8.36
536.491	8.42
536.69	8.46
536.889	8.4
537.088	8.43
537.288	8.42
537.487	8.4
537.686	8.38
537.886	8.46
538.085	8.51
538.284	8.61
538.483	8.66
538.682	8.72
538.882	8.7
539.081	8.77
539.28	8.71
539.479	8.69
539.678	8.68
539.877	8.74
540.076	8.72
540.275	8.75
540.474	8.83
540.673	8.93
540.872	8.92
541.071	8.99
541.27	9.07
541.469	9.08
541.668	9.06
541.867	9.15
542.066	9.15
542.265	9.18
542.464	9.26
542.663	9.32
542.862	9.39
543.06	9.49
543.259	9.59
543.458	9.6
543.657	9.66
543.856	9.69
544.054	9.69
544.253	9.64
544.452	9.69
544.651	9.67
544.849	9.65
545.048	9.71
545.247	9.78
545.445	9.79
545.644	9.84
545.843	9.83
546.041	9.86
546.24	9.9
546.438	9.97
546.637	10.01
546.836	10.2
547.034	10.28
547.233	10.39
547.431	10.46
547.63	10.5
547.828	10.49
548.027	10.51
548.225	10.47
548.423	10.53
548.622	10.62
548.82	10.7
549.019	10.78
549.217	10.89
549.415	10.89
549.614	11.02
549.812	11.06
550.01	11.08
550.209	11.17
550.407	11.24
550.605	11.2
550.803	11.21
551.002	11.3
551.2	11.34
551.398	11.46
551.596	11.59
551.794	11.67
551.993	11.74
552.191	11.78
552.389	11.82
552.587	11.88
552.785	11.93
552.983	12.03
553.181	12.11
553.379	12.15
553.577	12.23
553.775	12.43
553.973	12.5
554.171	12.59
554.369	12.73
554.567	12.83
554.765	12.84
554.963	12.91
555.161	12.95
555.359	13.01
555.557	13.08
555.755	13.2
555.952	13.34
556.15	13.42
556.348	13.5
556.546	13.62
556.744	13.63
556.941	13.64
557.139	13.74
557.337	13.89
557.535	13.92
557.732	14.06
557.93	14.21
558.128	14.36
558.325	14.45
558.523	14.59
558.721	14.68
558.918	14.81
559.116	14.9
559.313	14.98
559.511	15.14
559.708	15.22
559.906	15.27
560.104	15.33
560.301	15.42
560.498	15.49
560.696	15.6
560.893	15.72
561.091	15.91
561.288	16.11
561.486	16.15
561.683	16.3
561.88	16.46
562.078	16.47
562.275	16.51
562.473	16.68
562.67	16.74
562.867	16.79
563.064	16.9
563.262	16.99
563.459	17.05
563.656	17.14
563.853	17.19
564.051	17.38
564.248	17.48
564.445	17.54
564.642	17.67
564.839	17.79
565.036	17.93
565.234	18.07
565.431	18.22
565.628	18.35
565.825	18.45
566.022	18.51
566.219	18.56
566.416	18.63
566.613	18.73
566.81	18.91
567.007	18.96
567.204	18.99
567.401	19.12
567.598	19.14
567.795	19.15
567.991	19.24
568.188	19.34
568.385	19.4
568.582	19.52
568.779	19.63
568.976	19.73
569.172	19.89
569.369	19.97
569.566	20.12
569.763	20.1
569.96	20.12
570.156	20.2
570.353	20.27
570.55	20.24
570.746	20.36
570.943	20.42
571.14	20.5
571.336	20.57
571.533	20.62
571.729	20.74
571.926	20.81
572.123	20.84
572.319	20.9
572.516	20.99
572.712	20.94
572.909	20.89
573.105	20.9
573.302	20.88
573.498	20.89
573.695	21.02
573.891	21.12
574.087	21.04
574.284	21.09
574.48	21.15
574.677	21.08
574.873	21.19
575.069	21.35
575.266	21.46
575.462	21.41
575.658	21.52
575.854	21.48
576.051	21.54
576.247	21.45
576.443	21.47
576.639	21.45
576.835	21.41
577.032	21.32
577.228	21.38
577.424	21.46
577.62	21.38
577.816	21.37
578.012	21.41
578.208	21.44
578.404	21.42
578.6	21.55
578.796	21.62
578.993	21.63
579.189	21.64
579.384	21.66
579.58	21.66
579.776	21.71
579.972	21.66
580.168	21.68
580.364	21.69
580.56	21.62
580.756	21.54
580.952	21.56
581.148	21.52
581.343	21.49
581.539	21.48
581.735	21.49
581.931	21.41
582.127	21.35
582.322	21.36
582.518	21.36
582.714	21.34
582.909	21.37
583.105	21.32
583.301	21.38
583.496	21.33
583.692	21.27
583.888	21.28
584.083	21.37
584.279	21.2
584.474	21.19
584.67	21.25
584.866	21.2
585.061	21.16
585.257	21.23
585.452	21.3
585.648	21.26
585.843	21.27
586.039	21.25
586.234	21.21
586.429	21.12
586.625	21.16
586.82	21.16
587.015	21.12
587.211	21.15
587.406	21.22
587.601	21.23
587.797	21.22
587.992	21.24
588.187	21.13
588.383	21.13
588.578	21.15
588.773	21.18
588.968	21.26
589.163	21.4
589.359	21.39
589.554	21.32
589.749	21.35
589.944	21.34
590.139	21.29
590.334	21.42
590.529	21.47
590.724	21.59
590.919	21.58
591.114	21.65
591.309	21.6
591.504	21.65
591.699	21.59
591.894	21.56
592.089	21.58
592.284	21.59
592.479	21.59
592.674	21.61
592.869	21.72
593.064	21.69
593.259	21.8
593.454	21.91
593.648	21.92
593.843	22
594.038	22.15
594.233	22.18
594.428	22.25
594.622	22.36
594.817	22.48
595.012	22.48
595.206	22.57
595.401	22.57
595.596	22.69
595.79	22.7
595.985	22.74
596.18	22.83
596.374	23.1
596.569	23.08
596.763	23.18
596.958	23.41
597.153	23.46
597.347	23.41
597.542	23.54
597.736	23.61
597.931	23.61
598.125	23.77
598.319	23.86
598.514	23.9
598.708	23.92
598.903	23.99
599.097	23.96
599.291	23.98
599.486	24.11
599.68	24.24
599.874	24.3
600.069	24.47
600.263	24.56
600.457	24.58
600.651	24.49
600.846	24.5
601.04	24.47
601.234	24.42
601.428	24.47
601.622	24.63
601.817	24.68
602.011	24.67
602.205	24.79
602.399	24.69
602.593	24.81
602.787	24.9
602.981	24.92
603.175	25.01
603.369	25.04
603.563	25.04
603.757	25.04
603.951	25.08
604.145	24.98
604.339	25.09
604.533	25.02
604.727	25.02
604.921	24.96
605.115	24.91
605.309	24.79
605.502	24.83
605.696	24.84
605.89	24.88
606.084	24.86
606.278	24.92
606.471	24.75
606.665	24.57
606.859	24.39
607.053	24.34
607.246	24.33
607.44	24.25
607.634	24.29
607.827	24.24
608.021	24.19
608.214	24.05
608.408	24.03
608.602	23.86
608.795	23.88
608.989	23.79
609.182	23.83
609.376	23.87
609.569	23.86
609.763	23.75
609.956	23.7
610.15	23.51
610.343	23.34
610.537	23.2
610.73	23.03
610.923	23.04
611.117	23.07
611.31	22.97
611.504	23.04
611.697	23.01
611.89	22.9
612.083	22.75
612.277	22.75
612.47	22.57
612.663	22.62
612.856	22.51
613.05	22.48
613.243	22.26
613.436	22.19
613.629	21.99
613.822	21.93
614.015	21.81
614.209	21.84
614.402	21.76
614.595	21.71
614.788	21.63
614.981	21.52
615.174	21.36
615.367	21.29
615.56	21.25
615.753	21.18
615.946	21.15
616.139	21.13
616.332	21.12
616.525	21.01
616.718	20.91
616.911	20.81
617.103	20.72
617.296	20.57
617.489	20.51
617.682	20.47
617.875	20.44
618.067	20.41
618.26	20.39
618.453	20.36
618.646	20.3
618.838	20.35
619.031	20.33
619.224	20.24
619.417	20.28
619.609	20.31
619.802	20.15
619.994	20.14
620.187	20.11
620.38	20.02
620.572	19.9
620.765	19.97
620.957	19.92
621.15	19.9
621.342	19.9
621.535	19.86
621.727	19.82
621.92	19.76
622.112	19.88
622.305	19.84
622.497	19.84
622.69	19.76
622.882	19.76
623.074	19.65
623.267	19.6
623.459	19.5
623.651	19.47
623.844	19.41
624.036	19.43
624.228	19.36
624.42	19.36
624.613	19.3
624.805	19.23
624.997	19.19
625.189	19.28
625.381	19.26
625.574	19.24
625.766	19.25
625.958	19.21
626.15	19.15
626.342	19.09
626.534	19.05
626.726	19.09
626.918	19.01
627.11	18.85
627.302	18.91
627.494	18.87
627.686	18.8
627.878	18.76
628.07	18.82
628.262	18.75
628.454	18.7
628.646	18.64
628.838	18.67
629.029	18.59
629.221	18.57
629.413	18.61
629.605	18.61
629.797	18.54
629.989	18.51
630.18	18.54
630.372	18.47
630.564	18.39
630.755	18.35
630.947	18.29
631.139	18.18
631.33	18.15
631.522	18.13
631.714	18.09
631.905	18.16
632.097	18.05
632.289	18.03
632.48	18
632.672	17.99
632.863	17.86
633.055	17.92
633.246	17.97
633.438	17.98
633.629	17.92
633.821	17.93
634.012	17.95
634.203	17.87
634.395	17.85
634.586	17.89
634.777	17.94
634.969	17.9
635.16	17.76
635.351	17.7
635.543	17.58
635.734	17.52
635.925	17.53
636.117	17.67
636.308	17.73
636.499	17.8
636.69	17.85
636.881	17.77
637.073	17.77
637.264	17.68
637.455	17.62
637.646	17.56
637.837	17.58
638.028	17.45
638.219	17.54
638.41	17.6
638.601	17.63
638.792	17.68
638.983	17.71
639.174	17.63
639.365	17.55
639.556	17.42
639.747	17.3
639.938	17.32
640.129	17.31
640.32	17.22
640.511	17.28
640.701	17.32
640.892	17.24
641.083	17.21
641.274	17.26
641.465	17.23
641.655	17.27
641.846	17.21
642.037	17.18
642.228	17.14
642.418	17.07
642.609	16.98
642.8	16.98
642.99	16.97
643.181	16.94
643.372	16.99
643.562	16.96
643.753	16.87
643.943	16.85
644.134	16.71
644.324	16.63
644.515	16.6
644.705	16.67
644.896	16.74
645.086	16.86
645.277	16.88
645.467	16.88
645.658	16.76
645.848	16.72
646.038	16.69
646.229	16.62
646.419	16.5
646.61	16.57
646.8	16.49
646.99	16.46
647.18	16.43
647.371	16.52
647.561	16.42
647.751	16.33
647.941	16.29
648.132	16.29
648.322	16.15
648.512	16.16
648.702	16.22
648.892	16.2
649.082	16.27
649.272	16.28
649.462	16.34
649.653	16.29
649.843	16.22
650.033	16.19
650.223	16.16
650.413	16.11
650.603	16.09
650.793	16.1
650.983	16.02
651.172	16.02
651.362	15.83
651.552	15.76
651.742	15.69
651.932	15.62
652.122	15.54
652.312	15.58
652.502	15.45
652.691	15.47
652.881	15.36
653.071	15.28
653.261	15.24
653.45	15.18
653.64	14.97
653.83	14.95
654.019	14.82
654.209	14.75
654.399	14.71
654.588	14.67
654.778	14.5
654.968	14.52
655.157	14.38
655.347	14.07
655.536	13.97
655.726	13.74
655.915	13.52
656.105	13.39
656.294	13.29
656.484	13.07
656.673	13.04
656.863	12.93
657.052	12.73
657.241	12.65
657.431	12.52
657.62	12.36
657.809	12.08
657.999	11.97
658.188	11.94
658.377	11.82
658.567	11.7
658.756	11.68
658.945	11.61
659.134	11.36
659.324	11.21
659.513	11.01
659.702	10.79
659.891	10.58
660.08	10.44
660.269	10.29
660.458	10.17
660.648	10.14
660.837	9.96
661.026	9.74
661.215	9.64
661.404	9.47
661.593	9.25
661.782	9.14
661.971	9.03
662.16	8.86
662.349	8.68
662.538	8.61
662.726	8.48
662.915	8.5
663.104	8.43
663.293	8.5
663.482	8.35
663.671	8.21
663.86	8.12
664.048	8.05
664.237	7.96
664.426	7.88
664.615	7.8
664.803	7.61
664.992	7.41
665.181	7.38
665.369	7.27
665.558	7.32
665.747	7.38
665.935	7.45
666.124	7.32
666.312	7.32
666.501	7.27
666.69	7.15
666.878	7.12
667.067	7.09
667.255	7.05
667.444	6.99
667.632	7.08
667.82	7.03
668.009	6.95
668.197	6.91
668.386	6.89
668.574	6.77
668.762	6.66
668.951	6.64
669.139	6.68
669.327	6.62
669.516	6.7
669.704	6.89
669.892	6.9
670.08	6.82
670.269	6.94
670.457	6.85
670.645	6.67
670.833	6.77
671.021	6.79
671.21	6.72
671.398	6.82
671.586	6.85
671.774	6.93
671.962	6.97
672.15	7.02
672.338	6.96
672.526	7.11
672.714	7.03
672.902	7.13
673.09	7.25
673.278	7.38
673.466	7.47
673.654	7.64
673.842	7.71
674.03	7.69
674.218	7.74
674.405	7.63
674.593	7.57
674.781	7.62
674.969	7.72
675.157	7.78
675.344	7.94
675.532	8.02
675.72	8
675.908	8.06
676.095	8.03
676.283	8.04
676.471	8.11
676.658	8.22
676.846	8.22
677.033	8.3
677.221	8.34
677.409	8.28
677.596	8.35
677.784	8.5
677.971	8.55
678.159	8.69
678.346	8.82
678.534	8.92
678.721	9.02
678.909	9.16
679.096	9.15
679.283	9.28
679.471	9.36
679.658	9.43
679.846	9.54
680.033	9.83
680.22	9.96
680.408	10.05
680.595	10.04
680.782	10.19
680.969	10.36
681.157	10.45
681.344	10.47
681.531	10.72
681.718	10.81
681.905	10.8
682.093	11.01
682.28	11.2
682.467	11.35
682.654	11.51
682.841	11.67
683.028	11.7
683.215	12.02
683.402	12.02
683.589	12.25
683.776	12.33
683.963	12.52
684.15	12.7
684.337	13.03
684.524	13.16
684.711	13.46
684.898	13.65
685.085	13.79
685.271	14.09
685.458	14.39
685.645	14.62
685.832	15.04
686.019	15.33
686.205	15.58
686.392	15.91
686.579	16.35
686.766	16.64
686.952	16.92
687.139	17.32
687.326	17.73
687.512	17.96
687.699	18.36
687.886	18.86
688.072	19.24
688.259	19.59
688.445	20.16
688.632	20.7
688.818	21.17
689.005	21.67
689.191	22.21
689.378	22.83
689.564	23.4
689.751	23.98
689.937	24.65
690.124	25.2
690.31	25.54
690.496	26.07
690.683	26.54
690.869	26.9
691.055	27.41
691.242	28.08
691.428	28.62
691.614	29.6
691.8	30.53
691.987	31.46
692.173	32.28
692.359	33.21
692.545	33.83
692.731	34.54
692.918	34.91
693.104	35.73
693.29	36.38
693.476	37.15
693.662	37.57
693.848	38.47
694.034	38.94
694.22	39.64
694.406	40.09
694.592	41.04
694.778	41.75
694.964	42.52
695.15	43.19
695.336	43.9
695.522	44.74
695.708	45.8
695.894	46.56
696.08	47.46
696.265	48.44
696.451	48.98
696.637	49.61
696.823	50.18
697.009	50.77
697.194	51.34
697.38	52.33
697.566	52.68
697.751	53.45
697.937	54.15
698.123	54.79
698.308	55.15
698.494	56.12
698.68	56.91
698.865	57.46
699.051	57.96
699.236	58.55
699.422	58.98
699.607	59.56
699.793	60.55
699.978	61.14
700.164	61.64
700.349	62.11
700.535	62.5
700.72	62.7
700.906	63.23
701.091	63.95
701.276	64.32
701.462	64.96
701.647	65.41
701.832	66.22
702.018	66.99
702.203	67.86
702.388	68.06
702.573	68.27
702.759	68.69
702.944	68.74
703.129	68.94
703.314	69.39
703.499	70.07
703.684	70.16
703.87	70.73
704.055	71.05
704.24	71.62
704.425	71.91
704.61	72.38
704.795	72.61
704.98	72.9
705.165	73.21
705.35	73.85
705.535	74.2
705.72	74.2
705.905	74.67
706.09	75.01
706.275	74.81
706.459	75.27
706.644	75.78
706.829	76.49
707.014	76.69
707.199	77.37
707.384	77.44
707.568	77.61
707.753	77.84
707.938	78
708.123	78.1
708.307	78.53
708.492	79.12
708.677	78.85
708.861	79.26
709.046	79.22
709.231	78.96
709.415	79
709.6	79.18
709.784	79.43
709.969	80.18
710.153	80.69
710.338	81.12
710.522	81.57
710.707	81.63
710.891	81.51
711.076	81.65
711.26	81.66
711.445	82.01
711.629	82.25
711.813	82.46
711.998	82.59
712.182	82.51
712.366	82.66
712.551	82.97
712.735	82.72
712.919	82.84
713.103	83.37
713.288	83.39
713.472	83.42
713.656	83.78
713.84	84.23
714.024	84.26
714.208	83.94
714.393	83.85
714.577	84.2
714.761	84.16
714.945	84.29
715.129	84.66
715.313	84.82
715.497	84.34
715.681	84.38
715.865	84.26
716.049	84.58
716.233	84.59
716.417	84.8
716.601	85.17
716.785	85.33
716.968	85.29
717.152	85.65
717.336	86.03
717.52	86.16
717.704	86.83
717.888	87.03
718.071	86.94
718.255	87.14
718.439	87.26
718.622	86.89
718.806	86.99
718.99	87.01
719.174	87.05
719.357	87
719.541	86.91
719.724	86.77
719.908	86.7
720.092	86.54
720.275	86.68
720.459	87.01
720.642	86.94
720.826	87.12
721.009	86.82
721.193	86.38
721.376	86.19
721.559	86.72
721.743	87.13
721.926	87.7
722.11	88.36
722.293	88.4
722.476	87.65
722.66	88.46
722.843	88.6
723.026	88.49
723.21	88.53
723.393	88.84
723.576	88.32
723.759	88.84
723.942	88.68
724.126	88.79
724.309	89.27
724.492	88.9
724.675	88.36
724.858	88.67
725.041	89.14
725.224	89.44
725.407	89.79
725.59	89.97
725.774	89.57
725.957	89.74
726.14	89.58
726.322	89.85
726.505	89.59
726.688	90.15
726.871	90.1
727.054	90.36
727.237	90.17
727.42	90.53
727.603	90.08
727.786	89.82
727.968	89.32
728.151	89.53
728.334	89.67
728.517	90.37
728.699	90.27
728.882	90.44
729.065	89.93
729.248	90.31
729.43	89.89
729.613	90.41
729.796	91.1
729.978	92.05
730.161	92.05
730.343	92.37
730.526	92.09
730.708	91.56
730.891	91.06
731.073	90.9
731.256	91.31
731.438	92.22
731.621	92.96
731.803	93.21
731.986	93.79
732.168	93.79
732.35	93.56
732.533	93.34
732.715	93.69
732.898	93.11
733.08	92.91
733.262	92.38
733.444	93.18
733.627	92.77
733.809	93.4
733.991	93.71
734.173	93.62
734.355	92.67
734.538	92.52
734.72	92.14
734.902	91.78
735.084	92.26
735.266	92.91
735.448	93.34
735.63	93.54
735.812	94.27
735.994	93.72
736.176	93.82
736.358	94.29
736.54	95.13
736.722	94.44
736.904	95.25
737.086	94.35
737.268	94.71
737.45	94.3
737.632	94.77
737.814	94.96
737.995	95.61
738.177	95
738.359	94.83
738.541	94.71
738.723	94.39
738.904	94.44
739.086	94.53
739.268	95.05
739.449	94.31
739.631	94.38
739.813	93.48
739.994	92.8
740.176	92.16
740.358	92.81
740.539	93.46
740.721	94.48
740.902	95.43
741.084	95.67
741.265	96.15
741.447	95.68
741.628	95.36
741.81	95.64
741.991	95.76
742.172	95.82
742.354	96.35
742.535	95.93
742.717	95.84
742.898	95.2
743.079	95.09
743.261	94.36
743.442	94.14
743.623	93.34
743.804	93.62
743.986	92.49
744.167	91.96
744.348	92.26
744.529	93.33
744.71	93.02
744.891	94.17
745.073	94.75
745.254	95.53
745.435	94.96
745.616	95.23
745.797	94.71
745.978	94.36
746.159	93.38
746.34	93.62
746.521	93.77
746.702	94.22
746.883	95.52
747.064	95.98
747.245	95.86
747.426	95.29
747.606	95.62
747.787	94.94
747.968	94.29
748.149	93.09
748.33	93.26
748.51	92.34
748.691	92.17
748.872	94.04
749.053	94.2
749.233	95.01
749.414	95.18
749.595	95.28
749.775	93.8
749.956	94.85
750.137	94.67
750.317	93.08
750.498	92.54
750.678	91.99
750.859	91.51
751.04	91.53
751.22	92.56
751.4	92.6
751.581	92.89
751.761	93.74
751.942	93.24
752.122	93.83
752.303	93.26
752.483	93.36
752.663	92.43
752.844	92.5
753.024	92.91
753.204	94.8
753.385	95.47
753.565	95.74
753.745	95.22
753.925	94.38
754.106	93.52
754.286	92.61
754.466	92.28
754.646	93.24
754.826	93.51
755.006	93.56
755.187	95.13
755.367	95.66
755.547	95.56
755.727	94.46
755.907	93.88
756.087	92.92
756.267	91.17
756.447	91.5
756.627	92.49
756.807	93.45
756.987	93.43
757.167	94.49
757.346	93.68
757.526	94.33
757.706	93.12
757.886	92.79
758.066	93.76
758.246	92.86
758.425	91.46
758.605	91.59
758.785	91.42
758.965	90.41
759.144	90.24
759.324	91
759.504	91.57
759.683	90.18
759.863	91.16
760.043	91.55
760.222	91.51
760.402	90.95
760.581	92.75
760.761	90.8
760.94	91.04
761.12	91.05
761.299	91.91
761.479	91
761.658	91.83
761.838	91.54
762.017	91.94
762.197	89.92
762.376	89.99
762.555	90.11
762.735	90.08
762.914	89.55
763.093	89.89
763.273	89.95
763.452	89.58
763.631	89.82
763.81	89.82
763.99	88.92
764.169	89.19
764.348	88.53
764.527	88.53
764.706	87.55
764.885	90.55
765.064	91.73
765.243	93.09
765.423	92.9
765.602	94.56
765.781	90.83
765.96	89.28
766.139	88.58
766.318	89.36
766.497	87.77
766.676	88.26
766.854	89.34
767.033	90.7
767.212	90.91
767.391	92.4
767.57	95.11
767.749	94.67
767.928	93.56
768.106	92.16
768.285	91.11
768.464	89.31
768.643	89.06
768.821	86.98
769	86.84
769.179	87.28
769.357	88.14
769.536	86.76
769.715	89.19
769.893	90.69
770.072	89.31
770.25	88.84
770.429	90.25
770.607	89.55
770.786	88.58
770.964	89.2
771.143	88.9
771.321	86.67
771.5	87.45
771.678	86.43
771.857	85.19
772.035	85.58
772.213	86.6
772.392	84.05
772.57	83.52
772.748	83.26
772.927	82.66
773.105	82.52
773.283	85.05
773.461	87.75
773.64	89.1
773.818	91.22
773.996	92.42
774.174	91.26
774.352	88.56
774.531	88.97
774.709	88.07
774.887	85.82
775.065	86.78
775.243	88.11
775.421	86.98
775.599	86.75
775.777	86.97
775.955	85.49
776.133	86.34
776.311	86.51
776.489	86.07
776.667	87.62
776.844	88.27
777.022	87.08
777.2	86.29
777.378	85.74
777.556	86.55
777.734	88.18
777.911	88.61
778.089	90.8
778.267	90.24
778.445	90
778.622	88.75
778.8	86.26
778.978	85.94
779.155	88.89
779.333	89.57
779.511	89.17
779.688	92.22
779.866	92.11
780.043	90.46
780.221	90.15
780.398	89.08
780.576	88.97
780.753	88.5
780.931	87.93
781.108	88.99
781.286	88.53
781.463	87.1
781.64	88.23
781.818	91.38
781.995	87.27
782.172	87.9
782.35	88.81
782.527	86.74
782.704	82.14
782.882	81.55
783.059	80.59
783.236	79.1
783.413	79.69
783.59	78.8
783.768	80.6
783.945	81.51
784.122	82.42
784.299	83.98
784.476	84.24
784.653	83.28
784.83	83.09
785.007	84.2
785.184	82.33
785.361	83.49
785.538	82.73
785.715	84.21
785.892	80.41
786.069	84.42
786.246	83.27
786.423	83.8
786.6	83.58
786.776	86.77
786.953	80.31
787.13	83.12
787.307	83.38
787.484	78.1
787.66	77.95
787.837	79.43
788.014	79.96
788.191	79.5
788.367	80.66
788.544	81.4
788.721	80.32
788.897	79.11
789.074	78.95
789.25	80.49
789.427	78.41
789.603	74.58
789.78	74.86
789.956	74.91
790.133	72.1
790.309	72.47
790.486	75.61
790.662	73.38
790.839	74.43
791.015	80.25
791.192	78.96
791.368	81.22
791.544	85.8
791.721	84.63
791.897	83.03
792.073	81.48
792.249	81.51
792.426	78.25
792.602	83.49
792.778	85.28
792.954	88.08
793.13	84.24
793.307	85.52
793.483	82.86
793.659	80.23
793.835	83.05
794.011	91.07
794.187	89.14
794.363	88.17
794.539	92.38
794.715	89.64
794.891	88.11
795.067	88.15
795.243	89.42
795.419	84.53
795.595	90.39
795.771	87.43
795.947	88.42
796.122	83.6
796.298	84.36
796.474	84.24
796.65	86.51
796.826	80.4
797.001	85.08
797.177	77.84
797.353	71.89
797.529	68.65
797.704	74.66
797.88	69.46
798.056	76.45
798.231	78.46
798.407	81.05
798.582	79.21
798.758	82.55
798.934	85.12
799.109	81
799.285	82.26
799.46	81.19
799.636	82.78
799.811	78.45
799.986	78.36
800.162	73.59
800.337	75.89
800.513	71.6
800.688	72.22
800.863	80.88
801.039	81.8
801.214	78.05
801.389	81.04
801.565	80.59
801.74	78.2
801.915	81.27
802.09	81.93
802.265	80.57
802.441	81.25
802.616	79.01
802.791	78.09
802.966	83.05
803.141	81.59
803.316	80.62
803.491	84.25
803.666	87.3
803.841	85.71
804.016	90.8
804.191	92.96
804.366	88.51
804.541	85.44
804.716	78.2
804.891	76.48
805.066	74.9
805.241	73.15
805.416	78.98
805.591	88.56
805.765	90.7
805.94	90.58
806.115	88.45
806.29	83.06
806.464	82.63
806.639	84.12
806.814	85.12
806.989	86.93
807.163	92.28
807.338	85.41
807.512	84.58
807.687	84.48
807.862	88.28
808.036	85.32
808.211	87.8
808.385	87.62
808.56	88.22
808.734	80.44
808.909	79.28
809.083	81.84
809.258	82.27
809.432	83.41
809.606	91.95
809.781	87.78
809.955	90.51
810.13	81.98
810.304	80.56
810.478	75.02
810.652	75.86
810.827	73.58
811.001	76.66
811.175	79.14
811.349	84.86
811.524	88.1
811.698	82.05
811.872	84.26
812.046	81.23
812.22	76.02
812.394	69.68
812.568	77.47
812.742	67.97
812.916	68.12
813.09	70.13
813.264	71.54
813.438	63.9
813.612	68.95
813.786	66.94
813.96	70.22
814.134	70.09
814.308	76.08
814.482	79.27
814.656	75.85
814.83	83.69
815.003	89.5
815.177	87.54
815.351	87.45
815.525	100.71
815.698	83.95
815.872	71.29
816.046	66.4
816.219	64.86
816.393	59.32
816.567	63.05
816.74	73.38
816.914	82.63
817.088	80.91
817.261	77.84
817.435	81.47
817.608	67.95
817.782	63.01
817.955	67.07
818.129	71.07
818.302	66.99
818.475	83.38
818.649	78.66
818.822	75.11
818.996	86.97
819.169	89.24
819.342	80.38
819.516	89.62
819.689	93.09
819.862	84.87
820.035	85.01
820.209	75.5
820.382	68.14
820.555	58.74
820.728	46.28
820.901	34.84
821.075	45.28
821.248	55.9
821.421	66.24
821.594	78.27
821.767	93.53
821.94	83.36
822.113	75.01
822.286	81.45
822.459	68.92
822.632	71.2
822.805	75.49
822.978	79
823.151	65.11
823.324	62.63
823.496	41.34
823.669	49.43
823.842	53.98
824.015	59.63
824.188	52.24
824.361	70.73
824.533	62.32
824.706	60.49
824.879	63.85
825.051	82.4
825.224	85.68
825.397	87.64
825.569	79.27
825.742	78.93
825.915	66.93
826.087	62.7
826.26	61.5
826.432	69.45
826.605	71.68
826.777	85.76
826.95	81.69
827.122	73.93
827.295	78.02
827.467	76.14
827.64	51.22
827.812	46.26
827.984	66.34
828.157	64.24
828.329	67.49
828.501	67.61
828.674	62.22
828.846	68.38
829.018	59.45
829.19	49.02
829.363	64.96
829.535	84.7
829.707	72.19
829.879	75.39
830.051	74.93
830.223	76.62
830.395	66.66
830.568	63.41
830.74	72.74
830.912	86.89
831.084	84.99
831.256	82.55
831.428	85.09
831.6	73.17
831.772	56.42
831.943	44.61
832.115	47.73
832.287	40.89
832.459	48.16
832.631	56.68
832.803	62.95
832.975	68.18
833.146	62.07
833.318	63.7
833.49	64.4
833.662	81.91
833.833	80.57
834.005	83.79
834.177	82.88
834.348	74.24
834.52	63.8
834.692	54.27
834.863	64.45
835.035	70.64
835.206	77.95
835.378	74.27
835.549	79.71
835.721	67.03
835.892	60.09
836.064	64.83
836.235	58.63
836.407	51.1
836.578	60.6
836.749	55.83
836.921	42.5
837.092	33.33
837.264	43.87
837.435	34.1
837.606	37.67
837.777	42.92
837.949	63.86
838.12	58.16
838.291	61.84
838.462	71.66
838.633	69.9
838.805	49.77
838.976	67.36
839.147	66.24
839.318	57.46
839.489	48.61
839.66	67.28
839.831	56.82
840.002	57.77
840.173	59.82
840.344	56.25
840.515	36.07
840.686	40.31
840.857	41.35
841.028	43.27
841.199	52.4
841.369	66.84
841.54	71.24
841.711	102.92
841.882	107.37
842.053	86.1
842.223	111.75
842.394	107.18
842.565	71.78
842.736	65.37
842.906	76.66
843.077	56.39
843.248	62.5
843.418	80.47
843.589	83.1
843.759	84.51
843.93	98.02
844.101	85.6
844.271	96.09
844.442	99.16
844.612	97.51
844.783	73.94
844.953	64.62
845.123	54.61
845.294	52.58
845.464	26.84
845.635	34.31
845.805	11.56
845.975	19.71
846.146	15.9
846.316	37.69
846.486	59.67
846.656	69.8
846.827	63.65
846.997	86.61
847.167	70.85
847.337	51
847.507	62.29
847.677	56.29
847.848	55.63
848.018	74.65
848.188	86.87
848.358	60.79
848.528	76.09
848.698	52.65
848.868	36.51
849.038	39.1
849.208	68.62
849.378	71.91
849.548	80.78
849.718	77.61
849.887	78.55
850.057	30.92
850.227	48.13
850.397	45.94
850.567	52.44
850.737	93.28
850.906	104.37
851.076	57.07
851.246	34.75
851.415	31.11
851.585	-10.69
851.755	23.48
851.924	33.69
852.094	67.82
852.264	75.16
852.433	60
852.603	78.21
852.772	115.96
852.942	101.77
853.111	89.3
853.281	95.12
853.45	64.95
853.62	55.41
853.789	41.52
853.959	59.88
854.128	56.84
854.297	82.37
854.467	68.31
854.636	78.16
854.805	69.9
854.975	72.03
855.144	52.02
855.313	57.71
855.482	27.17
855.652	40.2
855.821	24.6
855.99	61.77
856.159	67.01
856.328	91.86
856.497	81.85
856.667	77
856.836	59.36
857.005	47.63
857.174	42.2
857.343	12.93
857.512	30.99
857.681	18.9
857.85	26.01
858.019	14.73
858.188	23.09
858.356	17.75
858.525	19.48
858.694	20.76
858.863	22.63
859.032	24.33
859.201	19.14
859.369	38.1
859.538	55.36
859.707	67.34
859.876	73.35
860.044	69.43
860.213	73.63
860.382	58.55
860.55	55.4
860.719	75.63
860.888	52.03
861.056	25.98
861.225	8.7
861.393	35.83
861.562	-2.54
861.73	24.42
861.899	28.72
862.067	42.51
862.236	19.96
862.404	37.54
862.572	68.72
862.741	86.56
862.909	74.31
863.078	66.76
863.246	48.9
863.414	36.19
863.582	32.8
863.751	44.53
863.919	35.43
864.087	35.2
864.255	31.11
864.424	15.1
864.592	41.42
864.76	42.41
864.928	57.25
865.096	74.65
865.264	80.41
865.432	70.7
865.6	99.04
865.768	75.63
865.936	58.69
866.104	72.45
866.272	62.67
866.44	24.84
866.608	27.74
866.776	43.27
866.944	58.98
867.112	43.53
867.28	61.14
867.448	70.3
867.615	48.52
867.783	15.26
867.951	21.13
868.119	-0.5
868.286	-7.63
868.454	17.23
868.622	47.23
868.789	35.63
868.957	54.28
869.125	37.72
869.292	24.73
869.46	22.38
869.627	71.92
869.795	17.58
869.963	58.25
870.13	73.21
870.298	86.66
870.465	31.41
870.632	27.75
870.8	52.49
870.967	44.84
871.135	5.71
871.302	35.04
871.469	65.55
871.637	47.79
871.804	76.09
871.971	83.6
872.139	74.53
872.306	47.68
872.473	25.9
872.64	-39.3
872.807	-31.11
872.975	-13.91
873.142	32.65
873.309	37.81
873.476	77.79
873.643	95.29
873.81	74.04
873.977	56.39
874.144	80.99
874.311	15.09
874.478	2.55
874.645	-3.64
874.812	79.33
874.979	57.81
875.146	99.13
875.313	87.2
875.48	67.14
875.647	29.77
875.813	22.79
875.98	13.14
876.147	-15.45
876.314	8.05
876.481	19.38
876.647	65.66
876.814	44.46
876.981	47.86
877.147	47.86
877.314	67.57
877.481	46.49
877.647	48.16
877.814	73.66
877.98	80.79
878.147	95.72
878.314	94.41
878.48	113.08
878.647	70.27
878.813	66.23
878.979	47.35
879.146	44.67
879.312	57.22
879.479	61.45
879.645	57.68
879.811	45.73
879.978	56.54
880.144	43.78
880.31	44.53
880.477	50.18
880.643	40.84
880.809	-2.96
880.975	-36.83
881.142	-96.88
881.308	383.31
881.474	686.94
881.64	-51.02
881.806	19.86
881.972	38.97
882.138	50.19
882.304	85.35
882.47	44.48
882.636	36.53
882.802	62.01
882.968	68.94
883.134	59.29
883.3	53.42
883.466	64.1
883.632	20.03
883.798	12.3
883.964	26.99
884.129	459.39
884.295	195.22
884.461	164.31
884.627	91.88
884.793	65.18
884.958	52.23
885.124	7.17
885.29	14.2
885.455	45.89
885.621	107.4
885.787	105.41
885.952	99.36
886.118	89.24
886.283	84.71
886.449	74.02
886.614	61.05
886.78	64.02
886.945	69.16
887.111	26.5
887.276	8.51
887.442	-0.21
887.607	17.22
887.773	17.82
887.938	29.53
888.103	17.82
888.269	31.56
888.434	43.9
888.599	55.7
888.764	81.36
888.93	97.61
889.095	83.28
889.26	69.35
889.425	53.47
889.59	-34.59
889.756	-15.55
889.921	-10.67
890.086	-28.34
890.251	67.53
890.416	75.85
890.581	67.63
890.746	107.25
890.911	50.72
891.076	50.97
891.241	66.65
891.406	77.05
891.571	110.36
891.736	280.9
891.901	103.53
892.065	69.18
892.23	78.49
892.395	12.51
892.56	-2.87
892.725	44.06
892.889	193.49
893.054	93.27
893.219	134.74
893.384	167.85
893.548	97.77
893.713	50
893.878	63.94
