Data from Ofra_PS_T2_2A_2GT38_Reflection_1.txt Node
Date: Wed Jul 21 17:03:57 EDT 2021
User: Adam
Spectrometer: FLMT01687
Trigger mode: 0
Integration Time (sec): 1.100000E0
Scans to average: 2
Electric dark correction enabled: true
Nonlinearity correction enabled: false
Boxcar width: 2
XAxis mode: Wavelengths
Number of Pixels in Spectrum: 3648
>>>>>Begin Spectral Data<<<<<
179.494	505.6
179.716	570.12
179.937	535.48
180.158	513.25
180.38	936.25
180.601	300.55
180.823	61.64
181.044	-10.9
181.265	190.44
181.486	10.72
181.708	100.69
181.929	883.67
182.15	-402.82
182.372	77.7
182.593	50.87
182.814	35.97
183.035	80.17
183.257	81.28
183.478	29.15
183.699	16.96
183.92	-5.37
184.141	-4.79
184.363	-39.94
184.584	31.71
184.805	53.8
185.026	66
185.247	62.86
185.468	42.28
185.689	37.35
185.91	23.51
186.132	25
186.353	31.33
186.574	84
186.795	55.26
187.016	40.85
187.237	33.55
187.458	19
187.679	14.44
187.9	46.27
188.121	45.51
188.342	105.27
188.563	88.35
188.784	83.56
189.005	71.34
189.226	116.97
189.447	67.41
189.667	41.75
189.888	-15.27
190.109	-515.58
190.33	-469.03
190.551	-940.71
190.772	-199.27
190.993	-174.94
191.214	-124.67
191.434	-93.45
191.655	-1.96
191.876	-11.37
192.097	-53.15
192.318	-104.1
192.538	-108.5
192.759	-102.73
192.98	-39.95
193.201	11.53
193.421	16.52
193.642	20.94
193.863	28.79
194.083	1.69
194.304	-19.49
194.525	-14.1
194.745	-26.76
194.966	-52.71
195.187	-25.59
195.407	-45.1
195.628	-86.12
195.848	-91.28
196.069	-69.18
196.29	-70.11
196.51	-73.86
196.731	-60.52
196.951	-58.95
197.172	-53.67
197.392	-71.01
197.613	-43.95
197.833	-85.94
198.054	-71.39
198.274	-39.58
198.495	-42.55
198.715	-16.34
198.936	-15.81
199.156	-18.51
199.377	-74.84
199.597	-75.79
199.817	-90.22
200.038	-34.89
200.258	-97.09
200.479	-29.49
200.699	-20.85
200.919	31.57
201.14	14.43
201.36	16.11
201.58	12.89
201.801	38.48
202.021	-8.61
202.241	-19.52
202.461	-6.81
202.682	-87.46
202.902	-148.54
203.122	-45.61
203.342	-30.16
203.563	-18.81
203.783	20.07
204.003	-17.34
204.223	-57.04
204.443	5.48
204.663	-11.2
204.884	-8.69
205.104	33.46
205.324	68.11
205.544	77.51
205.764	91.35
205.984	81.21
206.204	69.23
206.424	55.02
206.644	22.66
206.864	9.95
207.084	-33.98
207.304	-7.18
207.525	-74.38
207.745	-33.4
207.964	8.78
208.184	-18.81
208.404	-70.43
208.624	-95.97
208.844	-97.34
209.064	-379.72
209.284	-426.17
209.504	-220.26
209.724	-56.99
209.944	-20
210.164	12.27
210.384	36.04
210.604	39.83
210.823	14.29
211.043	-20.61
211.263	-14.58
211.483	-11.29
211.703	-53.98
211.922	-22.91
212.142	42.98
212.362	66.53
212.582	47.3
212.801	43.7
213.021	30.51
213.241	6.32
213.461	-26.22
213.68	-63.12
213.9	-51.5
214.12	-57.46
214.339	-114.66
214.559	-90.48
214.779	-16.75
214.998	19
215.218	13.86
215.438	37.04
215.657	20.7
215.877	-4.85
216.096	-8.89
216.316	-7.2
216.535	-16.72
216.755	-16
216.974	-96.37
217.194	-141.25
217.413	-123.84
217.633	-138.13
217.852	-243.19
218.072	-105.86
218.291	-53.07
218.511	-13.74
218.73	-16.64
218.95	-0.69
219.169	0.43
219.389	-44.09
219.608	-21.07
219.827	-4.23
220.047	8.89
220.266	22.67
220.485	46.12
220.705	27.96
220.924	0.71
221.143	22.25
221.363	1.28
221.582	6.41
221.801	12.05
222.021	26.67
222.24	-23.6
222.459	3.96
222.678	-37.81
222.897	-55.7
223.117	-83.99
223.336	-16.3
223.555	17.46
223.774	92.87
223.993	104.37
224.213	141.22
224.432	115.77
224.651	110.81
224.87	53.49
225.089	61.32
225.308	40.42
225.527	52.73
225.746	32.25
225.965	49.87
226.184	25.43
226.404	25.68
226.623	-8.86
226.842	9.07
227.061	19.93
227.28	30.78
227.499	32.02
227.718	42.3
227.936	24.78
228.155	29.93
228.374	9.98
228.593	14.67
228.812	10.17
229.031	21.45
229.25	-22.89
229.469	-20.86
229.688	-23.25
229.907	15.23
230.125	27.36
230.344	38.89
230.563	33.68
230.782	38.61
231.001	-47.91
231.22	-54.43
231.438	-30.32
231.657	-16.24
231.876	-15.16
232.095	46.25
232.313	51.58
232.532	32.15
232.751	13.53
232.969	-17.38
233.188	-99.83
233.407	-26.28
233.625	6.26
233.844	3.35
234.063	16.12
234.281	21.22
234.5	6.39
234.719	4.1
234.937	21.03
235.156	21.32
235.374	20.55
235.593	19.21
235.811	13.67
236.03	-1.84
236.249	-28.2
236.467	-10.83
236.686	8.52
236.904	18.73
237.123	4.37
237.341	13.57
237.559	10.11
237.778	-12.41
237.996	-32.37
238.215	9.29
238.433	17.81
238.652	17.48
238.87	2.08
239.088	11.54
239.307	0.5
239.525	-6.55
239.743	-15.27
239.962	12.59
240.18	-12.01
240.398	-38.97
240.617	-54.77
240.835	-41.54
241.053	-20.97
241.271	27.64
241.49	50.83
241.708	74.82
241.926	43.77
242.144	48.14
242.363	-4.11
242.581	-38.09
242.799	-37.69
243.017	6.15
243.235	-31.84
243.453	-18.71
243.672	-7.44
243.89	-7.37
244.108	-29.81
244.326	-7.96
244.544	-9.07
244.762	-13.89
244.98	2.28
245.198	17.37
245.416	2.85
245.634	-11.54
245.852	-11.84
246.07	-6.65
246.288	-11.12
246.506	-47.03
246.724	-2.66
246.942	-14.4
247.16	-7.81
247.378	2.15
247.596	32.66
247.814	20.43
248.032	-3.88
248.25	-3.46
248.468	12.49
248.685	16.85
248.903	41.83
249.121	52.48
249.339	35.66
249.557	24.05
249.775	22.29
249.992	-38.98
250.21	-29.24
250.428	-19.12
250.646	-65.62
250.863	-75.6
251.081	-30.27
251.299	-25.44
251.517	-23.71
251.734	9.08
251.952	2.28
252.17	-10.39
252.387	-1.88
252.605	-6.07
252.823	-4.56
253.04	17.02
253.258	42.68
253.475	48.85
253.693	79.34
253.911	77.78
254.128	84.37
254.346	74.63
254.563	41.98
254.781	5.77
254.998	-16.23
255.216	-39.91
255.433	-11.7
255.651	31.22
255.868	53.54
256.086	99.54
256.303	87.12
256.521	56.16
256.738	37.34
256.956	5.22
257.173	-23.03
257.39	-38.68
257.608	-62.93
257.825	-15.77
258.043	17.68
258.26	26.13
258.477	64.64
258.695	73.28
258.912	11.22
259.129	7.83
259.346	-35.21
259.564	-63.79
259.781	-78.56
259.998	6.77
260.216	45.6
260.433	83.42
260.65	70.54
260.867	72.44
261.084	32.44
261.302	-0.97
261.519	-15.45
261.736	-34.95
261.953	-46.05
262.17	-23.68
262.387	-32.92
262.604	-77.67
262.822	-77.2
263.039	-63.03
263.256	-91.08
263.473	-47.62
263.69	-12.45
263.907	16.01
264.124	6.87
264.341	9.91
264.558	-1.27
264.775	14.68
264.992	-1.29
265.209	10.42
265.426	33.2
265.643	37.35
265.86	38.07
266.077	46.38
266.294	48.52
266.51	8.77
266.727	-6.85
266.944	-6.51
267.161	-24.47
267.378	-15.37
267.595	2.34
267.812	-7.02
268.028	-30.13
268.245	2.76
268.462	-15.27
268.679	-17.82
268.896	25.69
269.112	40.23
269.329	30.57
269.546	41.3
269.763	43.58
269.979	18.03
270.196	0.63
270.413	-13.46
270.629	-40.39
270.846	-38.82
271.063	-23.24
271.279	-32.76
271.496	-38.77
271.712	-2.93
271.929	-14.31
272.146	-24.05
272.362	-6.91
272.579	27.62
272.795	17.77
273.012	40.87
273.228	52.23
273.445	13.11
273.661	13.87
273.878	-16.68
274.094	-42.97
274.311	-59.58
274.527	13.43
274.744	-6.15
274.96	2.12
275.177	11.17
275.393	11.13
275.609	4.97
275.826	19.16
276.042	14.33
276.259	5.04
276.475	35.27
276.691	41.85
276.908	27.62
277.124	47.92
277.34	46.31
277.557	35.2
277.773	14.17
277.989	18.5
278.205	-14.04
278.422	16.23
278.638	13.18
278.854	30.61
279.07	28.8
279.286	53.35
279.503	18.81
279.719	-3.94
279.935	-19.6
280.151	-17.94
280.367	-10.12
280.583	-29.86
280.799	-16.58
281.016	-46.57
281.232	-26.97
281.448	-31.15
281.664	-5.04
281.88	-28.81
282.096	4.43
282.312	35.62
282.528	46.01
282.744	37.32
282.96	46.95
283.176	18.21
283.392	19.01
283.608	6.64
283.824	15.59
284.04	16.65
284.256	32.54
284.471	11.39
284.687	11.42
284.903	35.19
285.119	62.83
285.335	32.47
285.551	63.27
285.767	60.8
285.982	34.57
286.198	-14.69
286.414	40.36
286.63	36.9
286.846	40.17
287.061	19.49
287.277	51.57
287.493	27.82
287.709	35.15
287.924	27.67
288.14	56.93
288.356	41.59
288.571	63.75
288.787	38.68
289.003	44.35
289.218	38.14
289.434	18.72
289.65	20.21
289.865	17.87
290.081	37.25
290.296	23.98
290.512	18.61
290.727	-3.97
290.943	-4.55
291.159	-17.01
291.374	-8.01
291.59	-10.14
291.805	-10.97
292.021	-12.2
292.236	-15.53
292.451	-0.52
292.667	6.9
292.882	21.77
293.098	33.35
293.313	17.11
293.529	-8.94
293.744	-23.1
293.959	-24.61
294.175	-13.02
294.39	18.64
294.605	26.78
294.821	36.25
295.036	36.48
295.251	39.56
295.467	23.48
295.682	20.36
295.897	-14.24
296.112	-25.86
296.328	-31.48
296.543	-60.6
296.758	-60.55
296.973	-5.34
297.188	26.39
297.404	1.95
297.619	8.37
297.834	5.9
298.049	-5.29
298.264	-29.48
298.479	5.67
298.694	16.84
298.909	21.71
299.125	23.91
299.34	22.42
299.555	6.07
299.77	2.65
299.985	-19.32
300.2	-56.03
300.415	-63.64
300.63	-25.98
300.845	-40.4
301.06	-34.13
301.275	-4.19
301.49	12.56
301.704	-10.43
301.919	-13.79
302.134	-27.94
302.349	-45.12
302.564	-90.69
302.779	-98.78
302.994	-64.11
303.209	-10.84
303.423	21.63
303.638	58.64
303.853	32.33
304.068	10.69
304.283	13.51
304.497	15.97
304.712	10.46
304.927	14.51
305.142	14.54
305.356	7.85
305.571	3.67
305.786	-20.5
306	-25.27
306.215	-19.82
306.43	-28.91
306.644	-18.16
306.859	40.74
307.074	43.41
307.288	25.28
307.503	6.3
307.717	-16.77
307.932	-36.61
308.147	-43.17
308.361	-14.15
308.576	-1.21
308.79	-26.96
309.005	-26.1
309.219	-10.81
309.434	-27.69
309.648	-18.82
309.863	9.07
310.077	20.9
310.292	16.71
310.506	14.63
310.72	26.8
310.935	39.45
311.149	29.37
311.364	46.39
311.578	54.35
311.792	37.79
312.007	31.79
312.221	22.42
312.435	13.26
312.649	-6.16
312.864	-21.66
313.078	-10.92
313.292	37.03
313.507	26.61
313.721	100
313.935	77.41
314.149	71.82
314.363	46.99
314.578	36.96
314.792	24.83
315.006	13.34
315.22	14.86
315.434	16.72
315.648	32.83
315.862	30.26
316.077	32.7
316.291	32.61
316.505	48.14
316.719	43.77
316.933	28.19
317.147	25.2
317.361	-15.55
317.575	-54.2
317.789	-68.5
318.003	-114.78
318.217	-67.07
318.431	-4.62
318.645	36.78
318.859	25.31
319.073	43.05
319.287	21.58
319.5	-12
319.714	-48.36
319.928	-68.69
320.142	-95.01
320.356	-31.05
320.57	18.11
320.784	22.9
320.997	10.44
321.211	20.59
321.425	-40.4
321.639	-75.22
321.853	-20.13
322.066	2.04
322.28	-0.55
322.494	23.28
322.707	51.03
322.921	22.82
323.135	14.42
323.349	26.28
323.562	-1.27
323.776	-26.15
323.989	-5.83
324.203	-19.09
324.417	-28.28
324.63	-43.52
324.844	-33.89
325.057	-44.66
325.271	-16.16
325.485	3.25
325.698	30.28
325.912	34.73
326.125	24
326.339	19.17
326.552	-2.85
326.766	5.6
326.979	15.61
327.193	36.9
327.406	17.77
327.619	30.83
327.833	33.79
328.046	17.09
328.26	-15.68
328.473	13.99
328.686	-17.54
328.9	-22.12
329.113	8.14
329.326	2.15
329.54	13.44
329.753	20.37
329.966	17.02
330.179	8.07
330.393	28.41
330.606	20.89
330.819	29.36
331.032	35.57
331.246	33.54
331.459	44.02
331.672	31.59
331.885	21.9
332.098	5.73
332.311	-7.1
332.525	-50.92
332.738	-29.54
332.951	6.69
333.164	33.82
333.377	50.45
333.59	73.31
333.803	75.77
334.016	55.12
334.229	53.07
334.442	37.05
334.655	46.54
334.868	44.52
335.081	55.87
335.294	33.72
335.507	37.46
335.72	16.77
335.933	3.19
336.146	-14.9
336.359	3.14
336.572	-16.14
336.785	-31.89
336.997	-20.04
337.21	16.83
337.423	-7.38
337.636	-2.17
337.849	11.8
338.062	7.11
338.274	-5.67
338.487	-5.32
338.7	-3.69
338.913	-33.21
339.125	-53.99
339.338	-101.06
339.551	-60.04
339.763	-34.38
339.976	-14.58
340.189	4.13
340.402	22.34
340.614	0.12
340.827	-4.21
341.039	-23.43
341.252	-18.8
341.465	-8.83
341.677	4.26
341.89	-28.18
342.102	9.67
342.315	2
342.527	-9.05
342.74	-20.9
342.952	19.88
343.165	16
343.377	33.14
343.59	30.56
343.802	39.48
344.015	29.64
344.227	37.06
344.44	27.43
344.652	34.61
344.864	17.88
345.077	39
345.289	33.55
345.502	35.49
345.714	18.44
345.926	35.37
346.139	35.93
346.351	52.68
346.563	53.31
346.775	59.73
346.988	48.11
347.2	24.92
347.412	-36.65
347.624	-60.44
347.837	-72.88
348.049	-57.13
348.261	-18.11
348.473	8.7
348.685	22.3
348.897	29.63
349.11	13.48
349.322	3.15
349.534	12.55
349.746	10
349.958	6.38
350.17	5.86
350.382	10.85
350.594	10
350.806	19.81
351.018	21.66
351.23	8.2
351.442	-24.86
351.654	-35.34
351.866	-41.03
352.078	-32.01
352.29	0.86
352.502	21.07
352.714	19.94
352.926	3.9
353.138	-4.52
353.35	-10.26
353.561	-11.67
353.773	-18.33
353.985	9.17
354.197	13.43
354.409	8.21
354.621	1.83
354.832	15.85
355.044	1.67
355.256	-3.22
355.468	11.62
355.679	11.09
355.891	15.44
356.103	7.35
356.314	22.05
356.526	16.44
356.738	21.61
356.949	6.63
357.161	28.55
357.373	17.02
357.584	9.66
357.796	22.2
358.008	24.4
358.219	29.83
358.431	28.81
358.642	41.01
358.854	25.74
359.065	27.34
359.277	-1.25
359.488	-7.43
359.7	-30.62
359.911	-45.67
360.123	-39.57
360.334	-44.69
360.546	-52.73
360.757	-50.47
360.969	-33.81
361.18	-37.89
361.391	-10.28
361.603	-15.87
361.814	-6.67
362.025	-2.46
362.237	-3.47
362.448	-3.82
362.659	5.7
362.871	5.86
363.082	-1.05
363.293	2.78
363.504	-7.3
363.716	-22.01
363.927	-34.65
364.138	-50.36
364.349	-49.17
364.56	-41.5
364.772	-22
364.983	2.46
365.194	5.63
365.405	16.35
365.616	24.44
365.827	20.6
366.038	5.11
366.25	11.33
366.461	-28.66
366.672	-5.69
366.883	4.44
367.094	11.88
367.305	-5.12
367.516	6.33
367.727	-13.59
367.938	-27.87
368.149	-31.73
368.36	-7.19
368.571	2.43
368.781	-10.9
368.992	-23.21
369.203	-33.81
369.414	-44.04
369.625	-59.23
369.836	-53.86
370.047	-70.01
370.258	-59.69
370.468	-62.58
370.679	-57.92
370.89	-47.35
371.101	-11.78
371.312	-15.9
371.522	-2.85
371.733	-6.62
371.944	3.57
372.155	-1.51
372.365	-4.83
372.576	-3.72
372.787	-4.64
372.997	-41.34
373.208	-32.09
373.419	-1.46
373.629	-32.19
373.84	-42.54
374.05	-31.26
374.261	-31.49
374.472	-50.87
374.682	-8.25
374.893	4.01
375.103	34.15
375.314	22.97
375.524	27.29
375.735	24.62
375.945	22.7
376.156	-4.68
376.366	5.92
376.577	-0.84
376.787	1.7
376.997	5.12
377.208	13.71
377.418	9.9
377.629	25.98
377.839	21.27
378.049	23.61
378.26	36.28
378.47	39.77
378.68	23.92
378.89	20.13
379.101	10.86
379.311	-15.91
379.521	-41.9
379.732	-38.87
379.942	-37.76
380.152	-50.3
380.362	-21.12
380.572	-15.15
380.783	-3.32
380.993	2.18
381.203	18.53
381.413	12.23
381.623	17.27
381.833	17.64
382.043	17.51
382.253	6.75
382.463	11.79
382.674	9.31
382.884	-6.6
383.094	-7.24
383.304	0.32
383.514	0.06
383.724	8.37
383.934	12.03
384.144	-4.24
384.353	-15.5
384.563	-13.45
384.773	-13
384.983	-22.21
385.193	4.72
385.403	14.03
385.613	17.05
385.823	4.37
386.033	13.46
386.242	7.37
386.452	2.25
386.662	-6.13
386.872	9.54
387.082	3.69
387.291	-2.33
387.501	4.16
387.711	11.02
387.921	2.58
388.13	3.5
388.34	12.05
388.55	4.22
388.759	0.34
388.969	2.41
389.179	-2.79
389.388	-4.01
389.598	0.8
389.807	-5.46
390.017	-1.74
390.227	2.96
390.436	-2.91
390.646	-3.77
390.855	1.99
391.065	-0.38
391.274	0.41
391.484	2.08
391.693	4.86
391.903	5.51
392.112	8.54
392.322	8.89
392.531	11.71
392.74	10.52
392.95	4.78
393.159	2.85
393.369	2.09
393.578	1.5
393.787	1.47
393.997	4.29
394.206	2.62
394.415	3.2
394.625	2.86
394.834	0.66
395.043	2.58
395.252	5.77
395.462	6.77
395.671	7
395.88	8.91
396.089	9.17
396.298	6.38
396.508	5.85
396.717	5.33
396.926	5.5
397.135	4.89
397.344	5.19
397.553	5.93
397.762	7.09
397.971	7.47
398.181	7.03
398.39	6.9
398.599	6.31
398.808	6.25
399.017	6.21
399.226	7.73
399.435	8.75
399.644	8.61
399.853	7.37
400.062	7.16
400.27	6.04
400.479	5.54
400.688	5.17
400.897	5.76
401.106	5.83
401.315	5.8
401.524	5.76
401.733	6.3
401.941	6.71
402.15	6.65
402.359	6.61
402.568	6.93
402.777	6.93
402.985	6.68
403.194	6.51
403.403	6.54
403.612	6.16
403.82	6.01
404.029	6.07
404.238	5.99
404.446	6.29
404.655	5.96
404.864	5.88
405.072	5.57
405.281	5.99
405.489	5.54
405.698	5.72
405.906	5.73
406.115	5.78
406.324	5.44
406.532	5.57
406.741	5.85
406.949	5.78
407.158	5.77
407.366	5.85
407.574	5.86
407.783	5.7
407.991	5.66
408.2	5.7
408.408	5.59
408.617	5.55
408.825	5.26
409.033	5.39
409.242	5.45
409.45	5.56
409.658	5.44
409.867	5.69
410.075	5.39
410.283	5.28
410.491	5.12
410.7	5.11
410.908	5.13
411.116	5.49
411.324	5.36
411.533	5.39
411.741	5.49
411.949	5.3
412.157	4.99
412.365	5.18
412.573	5.15
412.781	5.27
412.99	5.29
413.198	5.53
413.406	5.48
413.614	5.51
413.822	5.16
414.03	5.06
414.238	4.9
414.446	4.98
414.654	4.75
414.862	4.84
415.07	4.98
415.278	5.2
415.486	4.97
415.694	5.12
415.902	5.18
416.109	5.07
416.317	4.89
416.525	4.81
416.733	4.95
416.941	5.01
417.149	5.09
417.357	5.12
417.564	5.24
417.772	5.34
417.98	5.33
418.188	5.2
418.395	5.12
418.603	5.24
418.811	4.78
419.019	4.63
419.226	4.91
419.434	5.04
419.642	4.83
419.849	5.02
420.057	5.2
420.265	5.04
420.472	4.8
420.68	4.77
420.887	4.55
421.095	4.5
421.302	4.42
421.51	4.55
421.717	4.71
421.925	4.81
422.132	4.76
422.34	4.65
422.547	4.69
422.755	4.55
422.962	4.55
423.17	4.41
423.377	4.57
423.585	4.54
423.792	4.5
423.999	4.62
424.207	4.7
424.414	4.72
424.621	4.64
424.829	4.6
425.036	4.55
425.243	4.63
425.451	4.44
425.658	4.3
425.865	4.44
426.072	4.4
426.28	4.48
426.487	4.57
426.694	4.71
426.901	4.54
427.108	4.64
427.315	4.48
427.523	4.61
427.73	4.6
427.937	4.68
428.144	4.42
428.351	4.41
428.558	4.4
428.765	4.24
428.972	4.19
429.179	4.48
429.386	4.77
429.593	4.57
429.8	4.51
430.007	4.65
430.214	4.67
430.421	4.31
430.628	4.17
430.835	4.21
431.042	4.25
431.249	4.36
431.456	4.41
431.662	4.58
431.869	4.85
432.076	4.9
432.283	4.84
432.49	4.91
432.697	5.04
432.903	4.75
433.11	4.68
433.317	4.69
433.524	4.95
433.73	4.92
433.937	5.15
434.144	5.1
434.35	5.08
434.557	4.8
434.764	4.8
434.97	4.78
435.177	4.85
435.384	4.74
435.59	4.8
435.797	5.1
436.003	5.13
436.21	5.19
436.416	5.29
436.623	5.35
436.829	5.24
437.036	5.33
437.242	5.25
437.449	5.21
437.655	5.29
437.862	5.21
438.068	5.1
438.275	5.3
438.481	5.46
438.687	5.37
438.894	5.34
439.1	5.43
439.307	5.47
439.513	5.39
439.719	5.47
439.926	5.57
440.132	5.51
440.338	5.42
440.544	5.54
440.751	5.51
440.957	5.62
441.163	5.62
441.369	5.66
441.575	5.44
441.782	5.41
441.988	5.22
442.194	5.27
442.4	5.27
442.606	5.62
442.812	5.7
443.018	5.86
443.224	5.95
443.431	6.07
443.637	5.81
443.843	5.68
444.049	5.58
444.255	5.5
444.461	5.55
444.667	5.52
444.873	5.78
445.079	5.83
445.284	5.92
445.49	5.64
445.696	5.55
445.902	5.41
446.108	5.38
446.314	5.28
446.52	5.41
446.726	5.6
446.931	5.65
447.137	5.69
447.343	5.74
447.549	5.73
447.755	5.73
447.96	5.74
448.166	5.71
448.372	5.73
448.578	5.81
448.783	5.87
448.989	5.86
449.195	6.07
449.4	6.05
449.606	5.94
449.812	5.74
450.017	5.83
450.223	5.65
450.428	5.55
450.634	5.69
450.84	6.01
451.045	5.9
451.251	5.86
451.456	6.11
451.662	6.15
451.867	6.08
452.073	6.1
452.278	6.2
452.483	6.21
452.689	6.02
452.894	6.07
453.1	6.06
453.305	5.98
453.51	5.92
453.716	5.97
453.921	5.94
454.127	5.92
454.332	5.91
454.537	5.82
454.742	5.86
454.948	5.71
455.153	5.68
455.358	5.85
455.563	6.02
455.769	6.11
455.974	6.21
456.179	6.26
456.384	6.16
456.589	6.07
456.795	5.85
457	5.83
457.205	5.99
457.41	6
457.615	6
457.82	6.15
458.025	6.14
458.23	6.03
458.435	6.02
458.64	5.96
458.845	6.07
459.05	6.09
459.255	6.04
459.46	6.07
459.665	6.15
459.87	6.11
460.075	6.12
460.28	6.24
460.485	6.33
460.69	6.34
460.895	6.18
461.099	6.19
461.304	6.27
461.509	6.27
461.714	6.16
461.919	6.35
462.123	6.23
462.328	6.19
462.533	6.14
462.738	6.25
462.942	6.2
463.147	6.3
463.352	6.34
463.556	6.29
463.761	6.29
463.966	6.3
464.17	6.35
464.375	6.26
464.58	6.31
464.784	6.28
464.989	6.24
465.193	6.23
465.398	6.25
465.602	6.34
465.807	6.34
466.011	6.42
466.216	6.49
466.42	6.64
466.625	6.75
466.829	6.88
467.034	6.96
467.238	7.1
467.443	6.96
467.647	6.76
467.851	6.73
468.056	6.75
468.26	6.62
468.464	6.65
468.669	6.83
468.873	7.05
469.077	7.01
469.282	7.14
469.486	7.15
469.69	7.18
469.894	6.94
470.099	7.02
470.303	7.04
470.507	7.03
470.711	6.94
470.915	7.01
471.119	6.97
471.324	6.95
471.528	7.05
471.732	7.11
471.936	7.08
472.14	7.19
472.344	7.23
472.548	7.25
472.752	7.48
472.956	7.79
473.16	7.75
473.364	7.64
473.568	7.54
473.772	7.48
473.976	7.36
474.18	7.3
474.384	7.39
474.588	7.49
474.792	7.33
474.995	7.33
475.199	7.46
475.403	7.5
475.607	7.55
475.811	7.57
476.015	7.62
476.218	7.65
476.422	7.68
476.626	7.74
476.83	7.97
477.033	7.95
477.237	7.84
477.441	8.01
477.644	8.07
477.848	7.93
478.052	7.9
478.255	7.94
478.459	7.83
478.663	7.86
478.866	7.96
479.07	8.07
479.273	8.26
479.477	8.32
479.681	8.33
479.884	8.3
480.088	8.25
480.291	8.16
480.495	8.22
480.698	8.22
480.901	8.26
481.105	8.4
481.308	8.4
481.512	8.4
481.715	8.47
481.919	8.55
482.122	8.49
482.325	8.51
482.529	8.52
482.732	8.55
482.935	8.41
483.138	8.37
483.342	8.51
483.545	8.58
483.748	8.63
483.952	8.71
484.155	8.93
484.358	8.93
484.561	8.87
484.764	8.75
484.967	8.85
485.171	8.9
485.374	8.77
485.577	8.86
485.78	9.05
485.983	9.01
486.186	8.78
486.389	8.81
486.592	8.77
486.795	8.7
486.998	8.62
487.201	8.73
487.404	8.75
487.607	8.85
487.81	8.84
488.013	9.03
488.216	8.98
488.419	9.08
488.622	8.98
488.825	8.98
489.028	8.87
489.231	8.8
489.433	8.69
489.636	8.62
489.839	8.61
490.042	8.62
490.245	8.71
490.447	8.84
490.65	8.86
490.853	8.86
491.056	8.91
491.258	8.91
491.461	8.85
491.664	8.91
491.866	8.9
492.069	8.98
492.272	8.95
492.474	9.06
492.677	9.08
492.879	9.16
493.082	9.21
493.285	9.4
493.487	9.31
493.69	9.27
493.892	9.19
494.095	9.15
494.297	9.12
494.5	9.21
494.702	9.26
494.905	9.36
495.107	9.35
495.309	9.31
495.512	9.34
495.714	9.39
495.917	9.41
496.119	9.38
496.321	9.52
496.524	9.5
496.726	9.55
496.928	9.6
497.13	9.57
497.333	9.51
497.535	9.59
497.737	9.61
497.939	9.59
498.142	9.69
498.344	9.67
498.546	9.56
498.748	9.55
498.95	9.7
499.152	9.65
499.355	9.71
499.557	9.79
499.759	9.86
499.961	9.76
500.163	9.9
500.365	10.01
500.567	10.17
500.769	10.18
500.971	10.27
501.173	10.23
501.375	10.25
501.577	10.14
501.779	10.1
501.981	10.07
502.183	10.07
502.385	10.03
502.587	10
502.788	10.14
502.99	10.19
503.192	10.31
503.394	10.33
503.596	10.44
503.798	10.41
503.999	10.5
504.201	10.47
504.403	10.54
504.605	10.53
504.806	10.6
505.008	10.61
505.21	10.69
505.411	10.71
505.613	10.82
505.815	10.85
506.016	10.93
506.218	10.96
506.42	10.96
506.621	11.02
506.823	11.08
507.024	11.08
507.226	11.06
507.427	11.16
507.629	11.21
507.83	11.24
508.032	11.21
508.233	11.35
508.435	11.39
508.636	11.44
508.838	11.42
509.039	11.42
509.24	11.43
509.442	11.51
509.643	11.46
509.845	11.54
510.046	11.67
510.247	11.7
510.448	11.72
510.65	11.83
510.851	11.92
511.052	11.97
511.254	11.95
511.455	12.05
511.656	12.15
511.857	12.19
512.058	12.17
512.26	12.24
512.461	12.14
512.662	12.16
512.863	12.11
513.064	12.16
513.265	12.2
513.466	12.29
513.667	12.28
513.868	12.37
514.069	12.44
514.27	12.55
514.471	12.58
514.672	12.58
514.873	12.53
515.074	12.61
515.275	12.48
515.476	12.56
515.677	12.55
515.878	12.72
516.079	12.69
516.28	12.82
516.481	12.9
516.682	12.93
516.882	12.88
517.083	12.92
517.284	12.9
517.485	12.88
517.686	12.95
517.886	12.97
518.087	13.03
518.288	13.05
518.488	12.99
518.689	12.99
518.89	13.01
519.091	12.99
519.291	13.01
519.492	13.15
519.692	13.23
519.893	13.32
520.094	13.36
520.294	13.34
520.495	13.25
520.695	13.31
520.896	13.35
521.096	13.38
521.297	13.46
521.497	13.53
521.698	13.51
521.898	13.47
522.099	13.53
522.299	13.63
522.499	13.69
522.7	13.73
522.9	13.78
523.101	13.82
523.301	13.86
523.501	13.85
523.702	13.83
523.902	13.89
524.102	13.93
524.302	13.88
524.503	13.99
524.703	14.01
524.903	13.95
525.103	13.91
525.304	14.07
525.504	14.15
525.704	14.3
525.904	14.35
526.104	14.41
526.304	14.39
526.504	14.35
526.705	14.32
526.905	14.46
527.105	14.5
527.305	14.49
527.505	14.44
527.705	14.47
527.905	14.45
528.105	14.43
528.305	14.4
528.505	14.48
528.705	14.54
528.905	14.52
529.105	14.57
529.304	14.72
529.504	14.84
529.704	14.82
529.904	14.88
530.104	14.94
530.304	14.99
530.503	14.96
530.703	14.95
530.903	14.94
531.103	14.98
531.303	14.9
531.502	14.96
531.702	15.15
531.902	15.25
532.101	15.23
532.301	15.31
532.501	15.33
532.7	15.22
532.9	15.21
533.1	15.28
533.299	15.36
533.499	15.41
533.698	15.45
533.898	15.45
534.097	15.47
534.297	15.51
534.496	15.52
534.696	15.57
534.895	15.72
535.095	15.83
535.294	15.76
535.494	15.73
535.693	15.77
535.892	15.79
536.092	15.77
536.291	15.86
536.491	15.95
536.69	16.02
536.889	15.98
537.088	16
537.288	16.07
537.487	16.16
537.686	16.19
537.886	16.26
538.085	16.33
538.284	16.47
538.483	16.44
538.682	16.57
538.882	16.67
539.081	16.76
539.28	16.64
539.479	16.69
539.678	16.7
539.877	16.78
540.076	16.81
540.275	16.93
540.474	17.1
540.673	17.14
540.872	17.15
541.071	17.19
541.27	17.2
541.469	17.15
541.668	17.27
541.867	17.28
542.066	17.39
542.265	17.52
542.464	17.64
542.663	17.64
542.862	17.86
543.06	17.9
543.259	17.95
543.458	18.02
543.657	18.13
543.856	18.07
544.054	18.12
544.253	18.08
544.452	18.06
544.651	18.11
544.849	18.22
545.048	18.31
545.247	18.5
545.445	18.67
545.644	18.71
545.843	18.75
546.041	18.86
546.24	18.97
546.438	19.07
546.637	19.17
546.836	19.29
547.034	19.39
547.233	19.43
547.431	19.45
547.63	19.5
547.828	19.57
548.027	19.61
548.225	19.65
548.423	19.71
548.622	19.87
548.82	19.95
549.019	20.03
549.217	20.19
549.415	20.26
549.614	20.35
549.812	20.41
550.01	20.51
550.209	20.62
550.407	20.76
550.605	20.78
550.803	20.96
551.002	21.07
551.2	21.09
551.398	21.16
551.596	21.38
551.794	21.45
551.993	21.61
552.191	21.81
552.389	21.97
552.587	22.05
552.785	22.13
552.983	22.25
553.181	22.38
553.379	22.53
553.577	22.61
553.775	22.69
553.973	22.71
554.171	22.78
554.369	22.82
554.567	22.92
554.765	23.06
554.963	23.17
555.161	23.26
555.359	23.38
555.557	23.62
555.755	23.77
555.952	23.96
556.15	24.04
556.348	24.23
556.546	24.32
556.744	24.31
556.941	24.39
557.139	24.59
557.337	24.65
557.535	24.66
557.732	24.84
557.93	25.05
558.128	25.14
558.325	25.26
558.523	25.43
558.721	25.62
558.918	25.64
559.116	25.8
559.313	25.95
559.511	26.14
559.708	26.21
559.906	26.37
560.104	26.47
560.301	26.69
560.498	26.77
560.696	26.91
560.893	27.09
561.091	27.25
561.288	27.33
561.486	27.4
561.683	27.61
561.88	27.77
562.078	27.94
562.275	27.97
562.473	28.18
562.67	28.31
562.867	28.36
563.064	28.45
563.262	28.59
563.459	28.74
563.656	28.87
563.853	29.06
564.051	29.27
564.248	29.46
564.445	29.57
564.642	29.73
564.839	29.93
565.036	30.05
565.234	30.24
565.431	30.4
565.628	30.48
565.825	30.57
566.022	30.76
566.219	30.84
566.416	31.04
566.613	31.24
566.81	31.38
567.007	31.36
567.204	31.42
567.401	31.44
567.598	31.47
567.795	31.57
567.991	31.69
568.188	31.84
568.385	31.97
568.582	32.12
568.779	32.17
568.976	32.36
569.172	32.58
569.369	32.58
569.566	32.63
569.763	32.75
569.96	32.7
570.156	32.66
570.353	32.73
570.55	32.86
570.746	32.96
570.943	33.03
571.14	33.04
571.336	33.23
571.533	33.32
571.729	33.29
571.926	33.45
572.123	33.61
572.319	33.7
572.516	33.61
572.712	33.79
572.909	33.74
573.105	33.75
573.302	33.76
573.498	33.89
573.695	33.81
573.891	33.99
574.087	34.11
574.284	34.17
574.48	34.09
574.677	34.2
574.873	34.13
575.069	34.12
575.266	34.18
575.462	34.18
575.658	34.24
575.854	34.43
576.051	34.41
576.247	34.31
576.443	34.42
576.639	34.37
576.835	34.31
577.032	34.32
577.228	34.38
577.424	34.38
577.62	34.35
577.816	34.36
578.012	34.38
578.208	34.29
578.404	34.45
578.6	34.51
578.796	34.52
578.993	34.5
579.189	34.54
579.384	34.31
579.58	34.16
579.776	34.03
579.972	33.97
580.168	33.88
580.364	33.98
580.56	34
580.756	34.04
580.952	34.06
581.148	34.06
581.343	34.04
581.539	34.2
581.735	34.12
581.931	34.14
582.127	34.19
582.322	34.15
582.518	34.03
582.714	34.18
582.909	34.17
583.105	34.15
583.301	34.02
583.496	33.99
583.692	33.86
583.888	33.77
584.083	33.82
584.279	33.94
584.474	33.98
584.67	33.94
584.866	34.02
585.061	33.84
585.257	33.82
585.452	33.84
585.648	33.88
585.843	33.94
586.039	34
586.234	33.98
586.429	33.82
586.625	33.89
586.82	33.77
587.015	33.74
587.211	33.6
587.406	33.72
587.601	33.7
587.797	33.72
587.992	33.75
588.187	33.95
588.383	33.86
588.578	33.78
588.773	33.84
588.968	33.86
589.163	33.81
589.359	33.74
589.554	33.74
589.749	33.67
589.944	33.71
590.139	33.79
590.334	33.95
590.529	33.97
590.724	34
590.919	34.02
591.114	33.95
591.309	34
591.504	34.06
591.699	34.18
591.894	34.25
592.089	34.26
592.284	34.23
592.479	34.39
592.674	34.39
592.869	34.41
593.064	34.53
593.259	34.76
593.454	34.77
593.648	34.89
593.843	34.91
594.038	34.97
594.233	34.88
594.428	34.84
594.622	34.84
594.817	35.04
595.012	35.12
595.206	35.25
595.401	35.2
595.596	35.28
595.79	35.33
595.985	35.47
596.18	35.51
596.374	35.87
596.569	36
596.763	35.97
596.958	35.96
597.153	36.08
597.347	35.88
597.542	35.88
597.736	35.87
597.931	35.92
598.125	36
598.319	36.19
598.514	36.25
598.708	36.51
598.903	36.55
599.097	36.65
599.291	36.74
599.486	36.84
599.68	36.81
599.874	36.94
600.069	36.86
600.263	36.87
600.457	36.96
600.651	37.01
600.846	37.06
601.04	37.18
601.234	37.22
601.428	37.24
601.622	37.28
601.817	37.24
602.011	37.22
602.205	37.24
602.399	37.2
602.593	37.17
602.787	37.16
602.981	37.11
603.175	37.22
603.369	37.12
603.563	37.27
603.757	37.38
603.951	37.44
604.145	37.29
604.339	37.4
604.533	37.18
604.727	37.05
604.921	36.96
605.115	36.95
605.309	37.01
605.502	37
605.696	37.07
605.89	37.09
606.084	37.03
606.278	36.88
606.471	36.89
606.665	36.72
606.859	36.66
607.053	36.63
607.246	36.55
607.44	36.49
607.634	36.38
607.827	36.39
608.021	36.24
608.214	36.26
608.408	36.1
608.602	36.09
608.795	35.98
608.989	35.98
609.182	35.82
609.376	35.81
609.569	35.7
609.763	35.5
609.956	35.21
610.15	35.14
610.343	35.09
610.537	34.99
610.73	35.06
610.923	35.22
611.117	35.15
611.31	35.02
611.504	34.94
611.697	34.7
611.89	34.52
612.083	34.38
612.277	34.27
612.47	34.13
612.663	34.14
612.856	34.02
613.05	33.86
613.243	33.81
613.436	33.69
613.629	33.54
613.822	33.38
614.015	33.25
614.209	33.01
614.402	32.99
614.595	32.89
614.788	32.86
614.981	32.81
615.174	32.72
615.367	32.56
615.56	32.5
615.753	32.45
615.946	32.36
616.139	32.37
616.332	32.52
616.525	32.46
616.718	32.46
616.911	32.37
617.103	32.32
617.296	32.16
617.489	32.03
617.682	31.87
617.875	31.79
618.067	31.62
618.26	31.39
618.453	31.42
618.646	31.45
618.838	31.45
619.031	31.47
619.224	31.55
619.417	31.42
619.609	31.35
619.802	31.26
619.994	31.18
620.187	31.03
620.38	30.96
620.572	30.87
620.765	30.96
620.957	30.79
621.15	30.72
621.342	30.65
621.535	30.54
621.727	30.41
621.92	30.41
622.112	30.37
622.305	30.39
622.497	30.41
622.69	30.32
622.882	30.3
623.074	30.28
623.267	30.2
623.459	29.99
623.651	29.88
623.844	29.86
624.036	29.83
624.228	29.69
624.42	29.68
624.613	29.65
624.805	29.51
624.997	29.48
625.189	29.52
625.381	29.52
625.574	29.46
625.766	29.42
625.958	29.41
626.15	29.41
626.342	29.35
626.534	29.4
626.726	29.36
626.918	29.21
627.11	29.03
627.302	28.93
627.494	28.84
627.686	28.81
627.878	28.74
628.07	28.72
628.262	28.66
628.454	28.56
628.646	28.58
628.838	28.62
629.029	28.66
629.221	28.83
629.413	28.78
629.605	28.59
629.797	28.49
629.989	28.4
630.18	28.19
630.372	28.18
630.564	28.18
630.755	28.21
630.947	28.18
631.139	28.06
631.33	27.87
631.522	27.97
631.714	27.99
631.905	27.92
632.097	27.98
632.289	28.1
632.48	27.93
632.672	27.73
632.863	27.68
633.055	27.49
633.246	27.51
633.438	27.46
633.629	27.58
633.821	27.68
634.012	27.75
634.203	27.62
634.395	27.73
634.586	27.84
634.777	27.69
634.969	27.86
635.16	27.97
635.351	27.78
635.543	27.59
635.734	27.66
635.925	27.56
636.117	27.58
636.308	27.75
636.499	27.8
636.69	27.76
636.881	27.78
637.073	27.83
637.264	27.74
637.455	27.77
637.646	27.88
637.837	27.87
638.028	27.74
638.219	27.8
638.41	27.66
638.601	27.54
638.792	27.55
638.983	27.58
639.174	27.5
639.365	27.56
639.556	27.5
639.747	27.39
639.938	27.47
640.129	27.41
640.32	27.37
640.511	27.42
640.701	27.58
640.892	27.39
641.083	27.57
641.274	27.63
641.465	27.66
641.655	27.51
641.846	27.56
642.037	27.37
642.228	27.33
642.418	27.41
642.609	27.43
642.8	27.51
642.99	27.5
643.181	27.53
643.372	27.37
643.562	27.32
643.753	27.18
643.943	27.18
644.134	27.02
644.324	27.1
644.515	27.1
644.705	27.18
644.896	27.15
645.086	27.21
645.277	27.04
645.467	26.95
645.658	26.86
645.848	26.9
646.038	26.83
646.229	26.77
646.419	26.69
646.61	26.6
646.8	26.37
646.99	26.36
647.18	26.36
647.371	26.4
647.561	26.45
647.751	26.61
647.941	26.49
648.132	26.55
648.322	26.5
648.512	26.39
648.702	26.4
648.892	26.46
649.082	26.42
649.272	26.36
649.462	26.21
649.653	26.01
649.843	25.84
650.033	25.77
650.223	25.72
650.413	25.74
650.603	25.73
650.793	25.69
650.983	25.59
651.172	25.52
651.362	25.53
651.552	25.41
651.742	25.31
651.932	25.26
652.122	25.32
652.312	25.25
652.502	25.15
652.691	25.2
652.881	25.16
653.071	25.04
653.261	24.92
653.45	24.82
653.64	24.66
653.83	24.4
654.019	24.26
654.209	24.1
654.399	23.99
654.588	23.92
654.778	23.84
654.968	23.62
655.157	23.63
655.347	23.5
655.536	23.31
655.726	23.09
655.915	22.93
656.105	22.66
656.294	22.5
656.484	22.28
656.673	22.21
656.863	22.14
657.052	21.98
657.241	21.76
657.431	21.6
657.62	21.37
657.809	20.98
657.999	20.8
658.188	20.64
658.377	20.46
658.567	20.32
658.756	20.15
658.945	19.89
659.134	19.64
659.324	19.37
659.513	19.09
659.702	18.95
659.891	18.76
660.08	18.54
660.269	18.51
660.458	18.27
660.648	17.97
660.837	17.74
661.026	17.53
661.215	17.18
661.404	17.03
661.593	16.9
661.782	16.55
661.971	16.41
662.16	16.3
662.349	16.15
662.538	15.96
662.726	15.91
662.915	15.73
663.104	15.51
663.293	15.33
663.482	15.24
663.671	15.16
663.86	14.9
664.048	14.83
664.237	14.76
664.426	14.47
664.615	14.4
664.803	14.33
664.992	14.21
665.181	13.97
665.369	13.87
665.558	13.7
665.747	13.68
665.935	13.49
666.124	13.49
666.312	13.45
666.501	13.29
666.69	13.08
666.878	13.02
667.067	12.84
667.255	12.93
667.444	13.15
667.632	13.16
667.82	13.26
668.009	13.31
668.197	13.2
668.386	13.05
668.574	13.16
668.762	13.05
668.951	12.9
669.139	12.87
669.327	12.67
669.516	12.52
669.704	12.39
669.892	12.55
670.08	12.54
670.269	12.49
670.457	12.44
670.645	12.38
670.833	12.45
671.021	12.39
671.21	12.52
671.398	12.79
671.586	12.8
671.774	12.66
671.962	12.67
672.15	12.79
672.338	12.58
672.526	12.77
672.714	12.73
672.902	12.84
673.09	12.9
673.278	13.11
673.466	13.16
673.654	13.45
673.842	13.52
674.03	13.6
674.218	13.43
674.405	13.51
674.593	13.32
674.781	13.41
674.969	13.5
675.157	13.79
675.344	13.94
675.532	14.17
675.72	14.35
675.908	14.49
676.095	14.49
676.283	14.64
676.471	15
676.658	15
676.846	15.05
677.033	15.36
677.221	15.54
677.409	15.35
677.596	15.47
677.784	15.57
677.971	15.54
678.159	15.62
678.346	15.88
678.534	16.2
678.721	16.55
678.909	16.75
679.096	16.82
679.283	17.06
679.471	17.12
679.658	17.13
679.846	17.5
680.033	17.88
680.22	18.01
680.408	18.18
680.595	18.34
680.782	18.29
680.969	18.4
681.157	18.61
681.344	18.76
681.531	18.98
681.718	19.39
681.905	19.61
682.093	19.85
682.28	20.32
682.467	20.67
682.654	20.78
682.841	21.02
683.028	21.43
683.215	21.61
683.402	21.78
683.589	22.15
683.776	22.58
683.963	22.58
684.15	22.98
684.337	23.49
684.524	23.83
684.711	24.1
684.898	24.51
685.085	24.8
685.271	25.19
685.458	25.65
685.645	25.97
685.832	26.64
686.019	27.2
686.205	27.38
686.392	27.79
686.579	28.25
686.766	28.75
686.952	29.16
687.139	30.01
687.326	30.35
687.512	30.96
687.699	31.28
687.886	31.84
688.072	32.13
688.259	32.78
688.445	33.58
688.632	34.07
688.818	34.76
689.005	35.34
689.191	35.93
689.378	36.54
689.564	37.33
689.751	37.97
689.937	38.74
690.124	39.35
690.31	39.56
690.496	40.24
690.683	40.75
690.869	41.47
691.055	42.27
691.242	43.54
691.428	44.2
691.614	45.01
691.8	45.76
691.987	46.48
692.173	46.84
692.359	47.57
692.545	48.26
692.731	48.86
692.918	49.91
693.104	50.67
693.29	51.6
693.476	52.39
693.662	52.92
693.848	53.3
694.034	53.89
694.22	54.15
694.406	54.85
694.592	55.9
694.778	56.43
694.964	57.07
695.15	57.75
695.336	58.33
695.522	58.97
695.708	59.69
695.894	60.53
696.08	61.52
696.265	62.25
696.451	62.75
696.637	63.27
696.823	63.82
697.009	64.11
697.194	64.72
697.38	65.25
697.566	66.04
697.751	66.7
697.937	67.37
698.123	67.68
698.308	68.39
698.494	69.03
698.68	69.42
698.865	70.15
699.051	70.78
699.236	71
699.422	71.28
699.607	71.5
699.793	71.77
699.978	71.95
700.164	72.58
700.349	73.21
700.535	73.84
700.72	74.17
700.906	74.98
701.091	75.14
701.276	75.48
701.462	76.06
701.647	76.74
701.832	77.03
702.018	77.66
702.203	77.71
702.388	77.94
702.573	78.06
702.759	78.7
702.944	79.13
703.129	79.53
703.314	79.99
703.499	80.38
703.684	80.32
703.87	81.03
704.055	82.08
704.24	82.38
704.425	82.81
704.61	83.39
704.795	82.97
704.98	82.6
705.165	82.37
705.35	82.53
705.535	82.48
705.72	82.89
705.905	83.06
706.09	83.5
706.275	83.51
706.459	83.36
706.644	83.44
706.829	83.53
707.014	83.72
707.199	84.21
707.384	84.99
707.568	85.11
707.753	85.84
707.938	86
708.123	85.97
708.307	85.91
708.492	86.13
708.677	85.94
708.861	86
709.046	85.73
709.231	86.41
709.415	87.08
709.6	87.21
709.784	87.3
709.969	87.74
710.153	87.19
710.338	86.99
710.522	86.99
710.707	87.68
710.891	87.87
711.076	88.12
711.26	87.94
711.445	88.4
711.629	88.39
711.813	88.74
711.998	88.82
712.182	89.07
712.366	89.38
712.551	89.75
712.735	89.71
712.919	89.73
713.103	90.18
713.288	89.83
713.472	89.27
713.656	90.02
713.84	90.35
714.024	90.42
714.208	90.53
714.393	91.09
714.577	90.91
714.761	90.77
714.945	90.8
715.129	91.02
715.313	90.75
715.497	90.66
715.681	91.51
715.865	91.3
716.049	91.22
716.233	91.28
716.417	91.3
716.601	91.27
716.785	91.06
716.968	91.35
717.152	91.78
717.336	92.13
717.52	91.7
717.704	92.34
717.888	92.79
718.071	92.95
718.255	92.99
718.439	92.91
718.622	92.84
718.806	93.03
718.99	92.55
719.174	92.17
719.357	92.22
719.541	92.7
719.724	92.43
719.908	93.11
720.092	93.65
720.275	94.12
720.459	93.38
720.642	93.08
720.826	93
721.009	92.64
721.193	92.24
721.376	92.74
721.559	92.92
721.743	92.64
721.926	92.84
722.11	93.44
722.293	93.09
722.476	92.84
722.66	92.7
722.843	92.73
723.026	92.02
723.21	92.36
723.393	93.47
723.576	93.42
723.759	92.88
723.942	93.5
724.126	93.54
724.309	92.48
724.492	93.14
724.675	93.69
724.858	94.07
725.041	94.3
725.224	94.63
725.407	94.69
725.59	94.8
725.774	94.23
725.957	93.58
726.14	93.76
726.322	93.82
726.505	93.62
726.688	94.34
726.871	94.5
727.054	94.85
727.237	94.83
727.42	95.13
727.603	95.12
727.786	95.5
727.968	95.3
728.151	95.55
728.334	95.6
728.517	95.67
728.699	95.97
728.882	96.32
729.065	96.5
729.248	96.73
729.43	96.71
729.613	97.38
729.796	98
729.978	97.47
730.161	96.97
730.343	96.43
730.526	96.86
730.708	95.57
730.891	95.8
731.073	96.52
731.256	96.3
731.438	95.67
731.621	96.72
731.803	97.12
731.986	96.95
732.168	96.77
732.35	96.99
732.533	96.75
732.715	96.94
732.898	97.4
733.08	98.12
733.262	98.19
733.444	97.56
733.627	97.12
733.809	97.19
733.991	97.49
734.173	97.05
734.355	97.39
734.538	98.25
734.72	97.97
734.902	98.95
735.084	98.76
735.266	99.22
735.448	99.27
735.63	98.82
735.812	98.01
735.994	99.01
736.176	99.06
736.358	98.6
736.54	99.73
736.722	99.56
736.904	99.15
737.086	99.21
737.268	99.93
737.45	99.84
737.632	99.56
737.814	98.89
737.995	99.17
738.177	98.21
738.359	96.99
738.541	98.2
738.723	99.6
738.904	98.93
739.086	99.22
739.268	99.93
739.449	99.72
739.631	98.82
739.813	99.97
739.994	100.68
740.176	101.35
740.358	100.63
740.539	101.29
740.721	101
740.902	101.59
741.084	100.85
741.265	100.87
741.447	100.87
741.628	100.43
741.81	99.23
741.991	99.67
742.172	100.87
742.354	100.35
742.535	101.01
742.717	100.84
742.898	100.42
743.079	99.76
743.261	99.7
743.442	99.06
743.623	101.46
743.804	102.44
743.986	101.93
744.167	101.2
744.348	100.16
744.529	98.23
744.71	97.13
744.891	96.46
745.073	96.71
745.254	97.68
745.435	97.18
745.616	97.1
745.797	97.83
745.978	98.12
746.159	98.59
746.34	97.99
746.521	100.51
746.702	99.46
746.883	98.26
747.064	98.07
747.245	98.95
747.426	96.82
747.606	97.89
747.787	99.3
747.968	99.38
748.149	99.07
748.33	99.28
748.51	99.5
748.691	98.97
748.872	99.07
749.053	99.27
749.233	99.41
749.414	98.44
749.595	97.59
749.775	96.65
749.956	95.44
750.137	95.35
750.317	96.73
750.498	99.42
750.678	100.08
750.859	100.86
751.04	100.75
751.22	99.98
751.4	98.63
751.581	97.45
751.761	97.83
751.942	98.03
752.122	97.84
752.303	96.37
752.483	97.17
752.663	96.64
752.844	95.5
753.024	96.47
753.204	98.66
753.385	98.38
753.565	98.7
753.745	98.67
753.925	97.47
754.106	96.03
754.286	95.33
754.466	95.01
754.646	95.83
754.826	96.02
755.006	94.45
755.187	95.9
755.367	96.49
755.547	96.75
755.727	97.87
755.907	99.63
756.087	99.33
756.267	98.6
756.447	98.68
756.627	96.87
756.807	96.64
756.987	96.51
757.167	98.4
757.346	97.13
757.526	96.49
757.706	97.15
757.886	97.25
758.066	97.07
758.246	98.71
758.425	99.01
758.605	99.36
758.785	99.28
758.965	97.5
759.144	96.13
759.324	97.32
759.504	96.26
759.683	95.15
759.863	95.42
760.043	94.53
760.222	93.72
760.402	92.98
760.581	93.32
760.761	94.5
760.94	94.37
761.12	97.2
761.299	98.95
761.479	99.14
761.658	97.32
761.838	96.73
762.017	94.5
762.197	93.9
762.376	93.57
762.555	93.76
762.735	95
762.914	93.82
763.093	93.52
763.273	93.28
763.452	92.46
763.631	92.32
763.81	92.32
763.99	91.68
764.169	91.47
764.348	91.58
764.527	90.77
764.706	92.69
764.885	94.64
765.064	92.92
765.243	94.23
765.423	95.13
765.602	94.1
765.781	90.82
765.96	91.57
766.139	89.28
766.318	89.61
766.497	88.06
766.676	89.95
766.854	91.42
767.033	93.5
767.212	92.1
767.391	93.92
767.57	94.76
767.749	95.88
767.928	96.33
768.106	97.22
768.285	94.33
768.464	92.07
768.643	90.01
768.821	90
769	92.36
769.179	92.56
769.357	91.95
769.536	92.09
769.715	91.2
769.893	90.71
770.072	90.65
770.25	93.73
770.429	94.32
770.607	92.87
770.786	91.69
770.964	93.35
771.143	91.82
771.321	93.08
771.5	94.52
771.678	91.97
771.857	91.37
772.035	90.52
772.213	89.11
772.392	87.95
772.57	91.85
772.748	92.63
772.927	92.29
773.105	91.31
773.283	91.51
773.461	89.08
773.64	89.16
773.818	88.19
773.996	89.57
774.174	89.74
774.352	86.19
774.531	83.01
774.709	86.55
774.887	85.58
775.065	84.03
775.243	86.45
775.421	87.59
775.599	88.03
775.777	86.03
775.955	85.29
776.133	83.79
776.311	84.79
776.489	80.01
776.667	82.33
776.844	83.97
777.022	85.17
777.2	83.53
777.378	85.8
777.556	84.25
777.734	86.11
777.911	90.16
778.089	91.3
778.267	91.46
778.445	91.13
778.622	87.57
778.8	84.58
778.978	87.96
779.155	86.27
779.333	86.74
779.511	91.27
779.688	93.84
779.866	89.66
780.043	88.75
780.221	88.5
780.398	84.71
780.576	85.46
780.753	87.95
780.931	87.06
781.108	87.38
781.286	87.95
781.463	83.54
781.64	79.83
781.818	82.93
781.995	84.01
782.172	84.61
782.35	86.23
782.527	89.21
782.704	88.65
782.882	87.98
783.059	86.94
783.236	87.75
783.413	89.61
783.59	89.37
783.768	87.39
783.945	87.61
784.122	87.41
784.299	86.67
784.476	82.51
784.653	81.64
784.83	80.95
785.007	77.11
785.184	76.28
785.361	78.13
785.538	84.24
785.715	86.58
785.892	87.26
786.069	86.92
786.246	93.06
786.423	89.38
786.6	89
786.776	90.32
786.953	88.64
787.13	87.89
787.307	87.08
787.484	88.89
787.66	86.81
787.837	91.21
788.014	85.87
788.191	84.6
788.367	80
788.544	85.65
788.721	80.75
788.897	84.52
789.074	83.99
789.25	83.55
789.427	83.82
789.603	85.04
789.78	83.39
789.956	85.88
790.133	84.52
790.309	81.48
790.486	86.12
790.662	83.39
790.839	83.14
791.015	83.19
791.192	79.21
791.368	78.78
791.544	78.72
791.721	75.49
791.897	78.09
792.073	79.1
792.249	71.37
792.426	77.04
792.602	85.32
792.778	87.31
792.954	87.95
793.13	89.94
793.307	80.15
793.483	70.87
793.659	67.34
793.835	73.08
794.011	74.46
794.187	76.3
794.363	74.55
794.539	81.7
794.715	73.54
794.891	70.82
795.067	73.39
795.243	83.62
795.419	79.87
795.595	82.65
795.771	83.92
795.947	83
796.122	77
796.298	79.38
796.474	73.51
796.65	69.19
796.826	70.17
797.001	68.45
797.177	64.01
797.353	72.87
797.529	76.63
797.704	74.36
797.88	76.79
798.056	76.73
798.231	72.09
798.407	74.81
798.582	78.68
798.758	82.08
798.934	82.98
799.109	84.82
799.285	83.19
799.46	84.51
799.636	79.74
799.811	79.7
799.986	81.35
800.162	80.98
800.337	79.05
800.513	73.74
800.688	70.86
800.863	77.17
801.039	69.27
801.214	64.35
801.389	70.56
801.565	69.64
801.74	57.95
801.915	69.3
802.09	70.77
802.265	77.87
802.441	79.13
802.616	80.02
802.791	81.95
802.966	81.84
803.141	76.36
803.316	75.94
803.491	83.18
803.666	72.74
803.841	67.75
804.016	66.87
804.191	71.05
804.366	65.77
804.541	73.86
804.716	77.19
804.891	73.45
805.066	74.73
805.241	71.14
805.416	71.38
805.591	73.92
805.765	81.7
805.94	79.36
806.115	77.26
806.29	69.09
806.464	66.61
806.639	59.56
806.814	56.53
806.989	55.31
807.163	68.29
807.338	73.69
807.512	70.48
807.687	56.74
807.862	66.78
808.036	68.76
808.211	63.86
808.385	69.42
808.56	91.72
808.734	98.68
808.909	94.65
809.083	93.65
809.258	106.87
809.432	102.2
809.606	85.75
809.781	80.73
809.955	85.08
810.13	76.07
810.304	63.46
810.478	65.5
810.652	74.59
810.827	72.26
811.001	63.52
811.175	68.83
811.349	66.17
811.524	56.43
811.698	42.81
811.872	50.22
812.046	54
812.22	60.17
812.394	62.13
812.568	73.95
812.742	72.02
812.916	63.95
813.09	59.97
813.264	59.35
813.438	61.76
813.612	65.37
813.786	68.38
813.96	80.2
814.134	83.02
814.308	88.4
814.482	80.63
814.656	74.81
814.83	78.15
815.003	81.82
815.177	71.9
815.351	76.79
815.525	76.63
815.698	64.9
815.872	58.68
816.046	54.56
816.219	51.96
816.393	68.02
816.567	67.01
816.74	68.39
816.914	77.03
817.088	84.82
817.261	80.65
817.435	78.75
817.608	81.24
817.782	74.57
817.955	62.02
818.129	46.88
818.302	49.84
818.475	52.17
818.649	54.75
818.822	53.1
818.996	79.08
819.169	82.02
819.342	73.08
819.516	83.66
819.689	93.49
819.862	73.97
820.035	67.05
820.209	64.34
820.382	55.86
820.555	55.56
820.728	53.52
820.901	49.09
821.075	49.78
821.248	70.43
821.421	68.51
821.594	62.05
821.767	95.57
821.94	107.74
822.113	73.57
822.286	57.91
822.459	68.81
822.632	48.16
822.805	28.07
822.978	35.59
823.151	41.56
823.324	30.34
823.496	14.79
823.669	17.67
823.842	9.99
824.015	-2.99
824.188	-10.14
824.361	6.36
824.533	8.16
824.706	34.1
824.879	38.24
825.051	47.97
825.224	50.24
825.397	42.54
825.569	11.62
825.742	44.12
825.915	63.66
826.087	72.83
826.26	58.9
826.432	66.46
826.605	64.26
826.777	56.83
826.95	63.36
827.122	64.71
827.295	83.25
827.467	79.37
827.64	56.58
827.812	34.38
827.984	52.91
828.157	28.72
828.329	-12.5
828.501	14.1
828.674	43.4
828.846	19.45
829.018	42.05
829.19	57.39
829.363	67.27
829.535	54.27
829.707	63.35
829.879	34.66
830.051	29.06
830.223	13.82
830.395	-14.34
830.568	-23.43
830.74	-20.53
830.912	4.19
831.084	-10.91
831.256	9.01
831.428	16.36
831.6	17.36
831.772	-20.98
831.943	-17.3
832.115	19.67
832.287	32.42
832.459	47.23
832.631	69.5
832.803	88.92
832.975	93.04
833.146	90.72
833.318	77.14
833.49	88.24
833.662	70.47
833.833	37.53
834.005	31.41
834.177	31.91
834.348	14.09
834.52	5.05
834.692	14.98
834.863	-3.52
835.035	5.6
835.206	-32.49
835.378	-22.34
835.549	-18.61
835.721	4.84
835.892	4.43
836.064	16.97
836.235	35.37
836.407	39.28
836.578	13.12
836.749	19.16
836.921	15.56
837.092	-38.88
837.264	-30.37
837.435	-42.96
837.606	-12.17
837.777	25.16
837.949	41.15
838.12	29.39
838.291	43.55
838.462	42.4
838.633	1.85
838.805	3.67
838.976	12.82
839.147	-20.15
839.318	-40.71
839.489	-78.63
839.66	-74.33
839.831	-20.9
840.002	1.47
840.173	-11.12
840.344	69.22
840.515	139.35
840.686	51.76
840.857	-22.2
841.028	-29.6
841.199	-48.8
841.369	-97.33
841.54	-52.23
841.711	-9.42
841.882	27.45
842.053	16.12
842.223	26.36
842.394	29.76
842.565	30.64
842.736	23.9
842.906	25.05
843.077	48.28
843.248	56.36
843.418	58.29
843.589	21.27
843.759	58.39
843.93	47.03
844.101	51.85
844.271	45.68
844.442	72.59
844.612	84.25
844.783	64.29
844.953	14.69
845.123	16.82
845.294	-15.06
845.464	-205.37
845.635	-129.98
845.805	-13.67
845.975	5.04
846.146	-39.36
846.316	-50.89
846.486	-17.21
846.656	-2.16
846.827	-8.07
846.997	-2.59
847.167	19.04
847.337	-2.12
847.507	-27.21
847.677	1.58
847.848	46.82
848.018	48.71
848.188	47.22
848.358	43.21
848.528	16.29
848.698	-6.49
848.868	-72.97
849.038	-90.97
849.208	-7.32
849.378	64.18
849.548	39.42
849.718	40.97
849.887	43.44
850.057	0.61
850.227	-47.47
850.397	-86.03
850.567	-206.48
850.737	-470
850.906	-1058.75
851.076	-642.97
851.246	-220.42
851.415	12.54
851.585	0.2
851.755	-28.88
851.924	5.34
852.094	-15.68
852.264	-97.79
852.433	-465.38
852.603	-77.48
852.772	-48.46
852.942	-38.05
853.111	-43.41
853.281	-27.52
853.45	23.91
853.62	-30.32
853.789	-33.13
853.959	16.98
854.128	-1.11
854.297	-59.05
854.467	-51.56
854.636	11.93
854.805	32.73
854.975	29.85
855.144	109.04
855.313	324.48
855.482	-72.99
855.652	-55.28
855.821	-4.65
855.99	48.26
856.159	46.67
856.328	57.17
856.497	40.99
856.667	31.13
856.836	15.5
857.005	-0.39
857.174	-13.19
857.343	-51.98
857.512	-27.4
857.681	-51.61
857.85	-81.27
858.019	-64.81
858.188	-31.37
858.356	-53.29
858.525	-100.94
858.694	-84.9
858.863	-164.93
859.032	-150.17
859.201	-196.98
859.369	-91.33
859.538	-38.51
859.707	-0.62
859.876	17.43
860.044	14.84
860.213	26.18
860.382	0.18
860.55	15.58
860.719	34.58
860.888	36.65
861.056	15.91
861.225	14.21
861.393	27.28
861.562	54.12
861.73	37.89
861.899	15.18
862.067	-737.93
862.236	-20.85
862.404	-183.57
862.572	-110
862.741	-11.64
862.909	-1.71
863.078	-96.75
863.246	-41.52
863.414	-46.17
863.582	-33.77
863.751	-47.35
863.919	-20.94
864.087	-2.1
864.255	14.55
864.424	-238.25
864.592	24.89
864.76	-17.25
864.928	-104
865.096	-110.19
865.264	-27.76
865.432	-1209.09
865.6	-66.5
865.768	-99.82
865.936	-103.24
866.104	-139.2
866.272	-204.69
866.44	-337.01
866.608	514.13
866.776	233.24
866.944	2200
867.112	-405.93
867.28	-186.43
867.448	-67.36
867.615	-11.48
867.783	6.75
867.951	-7.91
868.119	43.25
868.286	64.3
868.454	-34.41
868.622	-28.88
868.789	70.68
868.957	292.86
869.125	-1076.32
869.292	7.86
869.46	-30.31
869.627	30.64
869.795	-10.84
869.963	11.52
870.13	3.23
870.298	32.92
870.465	-42.11
870.632	-31.7
870.8	-19.47
870.967	-14.06
871.135	-70.98
871.302	-39.41
871.469	-12.83
871.637	4.98
871.804	-25.52
871.971	-64.82
872.139	-213.95
872.306	1.81
872.473	-50.39
872.64	-252.79
872.807	-68.51
872.975	18.14
873.142	-144.36
873.309	724.32
873.476	47.39
873.643	126.68
873.81	72.48
873.977	72.33
874.144	74.55
874.311	49.88
874.478	-85.08
874.645	-101.38
874.812	-50.83
874.979	-26.04
875.146	-13.98
875.313	-27.93
875.48	62.22
875.647	30.12
875.813	2
875.98	3.24
876.147	-5.2
876.314	-72.13
876.481	685.12
876.647	-870.79
876.814	348.7
876.981	141.54
877.147	30.29
877.314	34.18
877.481	52.31
877.647	47.7
877.814	-12.03
877.98	-25.2
878.147	11.59
878.314	79.98
878.48	62.68
878.647	37.06
878.813	79.85
878.979	75.83
879.146	1.4
879.312	11.09
879.479	20.76
879.645	-85.74
879.811	-264.35
879.978	-639.69
880.144	-135.96
880.31	-78.32
880.477	-311.25
880.643	-322.54
880.809	-59.2
880.975	-38.42
881.142	-344.55
881.308	42.58
881.474	80.65
881.64	55.73
881.806	-39.21
881.972	19.81
882.138	31.04
882.304	61.1
882.47	-57.56
882.636	-234.43
882.802	-82.48
882.968	17.08
883.134	14.16
883.3	4.94
883.466	43.55
883.632	66.72
883.798	37.39
883.964	10.8
884.129	61.61
884.295	100
884.461	61.61
884.627	63.5
884.793	49.04
884.958	32.25
885.124	-63.05
885.29	-136.68
885.455	-147.57
885.621	9.58
885.787	-25.71
885.952	-10.94
886.118	-36.56
886.283	-50.33
886.449	-131.86
886.614	-158.21
886.78	-358.08
886.945	1580.33
887.111	-689.02
887.276	-491.48
887.442	-884.55
887.607	-351.42
887.773	-215.29
887.938	-157.7
888.103	-236.22
888.269	-116.87
888.434	-122.16
888.599	-44.31
888.764	22.07
888.93	14.07
889.095	-14.36
889.26	-51.04
889.425	-0.53
889.59	16.24
889.756	-3.93
889.921	36.97
890.086	89.61
890.251	38.71
890.416	-92.22
890.581	-727.42
890.746	152.5
890.911	470.7
891.076	165.41
891.241	-338.81
891.406	49.35
891.571	37.44
891.736	82.11
891.901	121.24
892.065	-223.08
892.23	5.18
892.395	104.11
892.56	234.39
892.725	-307.81
892.889	-946.34
893.054	-227.44
893.219	-85.51
893.384	-40.43
893.548	-80.48
893.713	-98.78
893.878	-86.45
