Data from Ofra_PS_T2_2A_2CX10_Reflection_1.txt Node
Date: Wed Jul 21 16:57:12 EDT 2021
User: Adam
Spectrometer: FLMT01687
Trigger mode: 0
Integration Time (sec): 1.100000E0
Scans to average: 2
Electric dark correction enabled: true
Nonlinearity correction enabled: false
Boxcar width: 2
XAxis mode: Wavelengths
Number of Pixels in Spectrum: 3648
>>>>>Begin Spectral Data<<<<<
179.494	521
179.716	572.71
179.937	552.47
180.158	534.31
180.38	855.78
180.601	388.54
180.823	118.48
181.044	-20.73
181.265	181.8
181.486	83.18
181.708	111.14
181.929	822.96
182.15	-310.21
182.372	131.33
182.593	84.23
182.814	111.32
183.035	128.65
183.257	54.25
183.478	-16.22
183.699	23.66
183.92	-20.21
184.141	-22.28
184.363	-41.35
184.584	-5.53
184.805	-5.98
185.026	4.82
185.247	19.19
185.468	16.98
185.689	19.76
185.91	15.29
186.132	23.32
186.353	38.25
186.574	82.95
186.795	82.91
187.016	102.25
187.237	62.97
187.458	41.35
187.679	42.46
187.9	19.7
188.121	8.5
188.342	24.97
188.563	58.66
188.784	68.54
189.005	66.47
189.226	107.18
189.447	102.84
189.667	27.06
189.888	-194.21
190.109	-917.21
190.33	-625.97
190.551	-932.96
190.772	-236.38
190.993	-191.47
191.214	-135.86
191.434	-81.14
191.655	-2.73
191.876	-16.21
192.097	-42.18
192.318	-64.19
192.538	-76.03
192.759	-115.77
192.98	-22.08
193.201	26.82
193.421	44.25
193.642	37.83
193.863	58.35
194.083	35.81
194.304	10.8
194.525	6.22
194.745	-14.76
194.966	-37.7
195.187	-40.97
195.407	-46.95
195.628	-71.53
195.848	-61.8
196.069	-56.85
196.29	14.71
196.51	8.2
196.731	4.08
196.951	26.16
197.172	1.31
197.392	-37.06
197.613	-44.36
197.833	-82.67
198.054	-70.22
198.274	-8.72
198.495	-20.85
198.715	12.27
198.936	17.53
199.156	10.83
199.377	-65.39
199.597	-61.91
199.817	-65.74
200.038	-22.08
200.258	-74.47
200.479	-3.79
200.699	-6.05
200.919	9.5
201.14	5.05
201.36	12.63
201.58	31.01
201.801	66.21
202.021	43.21
202.241	27.59
202.461	30.38
202.682	-57.66
202.902	-146.18
203.122	-93.02
203.342	-46.72
203.563	-31.64
203.783	12.04
204.003	-26.44
204.223	-25.4
204.443	14.5
204.663	14.21
204.884	31.49
205.104	68.12
205.324	84.5
205.544	71.78
205.764	56.49
205.984	49.52
206.204	65.52
206.424	54.18
206.644	42.17
206.864	57.46
207.084	26.08
207.304	28.34
207.525	36.17
207.745	39.73
207.964	63.26
208.184	38.54
208.404	-17.63
208.624	-15.3
208.844	-9.38
209.064	-180.7
209.284	-133.23
209.504	-39.63
209.724	13.52
209.944	21.98
210.164	51.71
210.384	39.48
210.604	42.18
210.823	10.34
211.043	-14.55
211.263	-12.65
211.483	-22.08
211.703	-57.08
211.922	-41.36
212.142	8.28
212.362	-1.33
212.582	21.94
212.801	29.97
213.021	8.89
213.241	6.83
213.461	-30.98
213.68	-66.28
213.9	-84.89
214.12	-70.6
214.339	-123.36
214.559	-49.47
214.779	3.91
214.998	22.79
215.218	25.12
215.438	35.26
215.657	-5.66
215.877	-7.39
216.096	13.8
216.316	16.12
216.535	10.68
216.755	5.59
216.974	-46.77
217.194	-94.1
217.413	-104.54
217.633	-112.52
217.852	-162.04
218.072	-71.62
218.291	-24.66
218.511	6.34
218.73	-13.05
218.95	-7.54
219.169	-13.95
219.389	-53.28
219.608	-36.11
219.827	-33.61
220.047	-30.68
220.266	-17.57
220.485	-3.44
220.705	10.86
220.924	-0.66
221.143	28.37
221.363	10.45
221.582	17.46
221.801	6.39
222.021	30
222.24	-27.83
222.459	18.37
222.678	-10.38
222.897	-40.55
223.117	-91.7
223.336	-88.01
223.555	-74.79
223.774	10.54
223.993	31.23
224.213	73.47
224.432	67.52
224.651	72.83
224.87	24.24
225.089	35.34
225.308	23.58
225.527	34.87
225.746	30.94
225.965	28.67
226.184	-0.1
226.404	25.83
226.623	12.93
226.842	19.2
227.061	33.64
227.28	35.74
227.499	31.14
227.718	35.94
227.936	33.05
228.155	40.39
228.374	49.73
228.593	31.42
228.812	37.63
229.031	21.22
229.25	-13.65
229.469	-4.16
229.688	8.89
229.907	26.41
230.125	53.17
230.344	72.92
230.563	61.01
230.782	61.5
231.001	11.91
231.22	-8.03
231.438	-2.09
231.657	3.12
231.876	-8.78
232.095	28.83
232.313	45.13
232.532	41.1
232.751	22.49
232.969	28.48
233.188	34.35
233.407	50.44
233.625	23.68
233.844	-6.18
234.063	-7.49
234.281	-1.01
234.5	-8.36
234.719	13.73
234.937	41.58
235.156	42.52
235.374	47.84
235.593	36.41
235.811	29.56
236.03	15.45
236.249	-1.43
236.467	-5.92
236.686	13.21
236.904	20.26
237.123	12.54
237.341	17.52
237.559	27.86
237.778	27.85
237.996	13.56
238.215	40.21
238.433	32.09
238.652	27.28
238.87	5.58
239.088	20.05
239.307	6.82
239.525	-4.03
239.743	-27.23
239.962	-5.54
240.18	-22.5
240.398	-57.57
240.617	-31.84
240.835	3.09
241.053	27.62
241.271	62.59
241.49	74.31
241.708	70.75
241.926	63.77
242.144	29.42
242.363	-18.76
242.581	-36.05
242.799	-6.61
243.017	10.14
243.235	-14.1
243.453	-1.79
243.672	-15.02
243.89	-21.11
244.108	-30.82
244.326	-2.17
244.544	2.63
244.762	21.21
244.98	43.96
245.198	50.57
245.416	35.21
245.634	7.84
245.852	7.1
246.07	-11.44
246.288	-24.01
246.506	-48.31
246.724	2.74
246.942	-16.51
247.16	27.74
247.378	21.92
247.596	30.14
247.814	18.2
248.032	21.85
248.25	1.71
248.468	21.76
248.685	30
248.903	52.57
249.121	44.06
249.339	26.63
249.557	4.9
249.775	22.97
249.992	-35.97
250.21	-32.78
250.428	-28.83
250.646	-39.74
250.863	-61.87
251.081	-18.78
251.299	-15
251.517	19
251.734	-1.93
251.952	-13.1
252.17	-14.91
252.387	-1.9
252.605	-15.39
252.823	11.3
253.04	39.18
253.258	53.44
253.475	61.06
253.693	66.36
253.911	59.46
254.128	39.47
254.346	38.41
254.563	4.33
254.781	-2.8
254.998	-27.75
255.216	-38.89
255.433	-29.51
255.651	13.3
255.868	14.51
256.086	25.04
256.303	16.24
256.521	5.38
256.738	2.12
256.956	-25
257.173	-32.19
257.39	-22.95
257.608	-43.04
257.825	-36.03
258.043	5.66
258.26	8.17
258.477	41.11
258.695	36.78
258.912	17.2
259.129	28.26
259.346	8.65
259.564	-23.29
259.781	-16.56
259.998	28.41
260.216	37.09
260.433	62.23
260.65	54.64
260.867	60.31
261.084	36.46
261.302	7.52
261.519	4.92
261.736	-20.61
261.953	-33.3
262.17	2.08
262.387	-16.93
262.604	-48.47
262.822	-45.82
263.039	-19.97
263.256	-75.05
263.473	-29.19
263.69	1.98
263.907	28.96
264.124	30.14
264.341	43.55
264.558	15.47
264.775	0.59
264.992	-19.61
265.209	-16.63
265.426	3.2
265.643	19.27
265.86	47.72
266.077	39.58
266.294	33.9
266.51	7.45
266.727	-11.7
266.944	-15.35
267.161	-4.22
267.378	11.72
267.595	30.4
267.812	13.61
268.028	-19.97
268.245	9.2
268.462	-11.59
268.679	-26.82
268.896	25.33
269.112	30.22
269.329	17.41
269.546	23.63
269.763	24.56
269.979	5.01
270.196	14.76
270.413	-2.05
270.629	-20.78
270.846	-34.13
271.063	-29.2
271.279	-57.57
271.496	-48.41
271.712	-19.49
271.929	0.88
272.146	1.49
272.362	23.07
272.579	52.31
272.795	46.44
273.012	55.58
273.228	58.32
273.445	38.52
273.661	21.41
273.878	1.82
274.094	-12.52
274.311	-22.04
274.527	18.24
274.744	10.76
274.96	5.29
275.177	-1.22
275.393	9.13
275.609	6.26
275.826	30.58
276.042	22.54
276.259	27.58
276.475	34.78
276.691	44.86
276.908	20.1
277.124	43.34
277.34	45
277.557	35.56
277.773	13.05
277.989	17.31
278.205	5.03
278.422	7.7
278.638	15.64
278.854	23.57
279.07	26.84
279.286	59.34
279.503	66.12
279.719	56.99
279.935	47.61
280.151	44.92
280.367	6.61
280.583	-14.63
280.799	-15.49
281.016	-35.23
281.232	-12.41
281.448	-17.55
281.664	7.32
281.88	-13.74
282.096	8.1
282.312	24.08
282.528	44.02
282.744	44.52
282.96	40.48
283.176	23.06
283.392	21.05
283.608	13.9
283.824	8.38
284.04	18.85
284.256	20.39
284.471	9.22
284.687	4.77
284.903	23.04
285.119	52.77
285.335	42.66
285.551	56.83
285.767	50.05
285.982	36.38
286.198	-10.09
286.414	39.13
286.63	30.06
286.846	51.34
287.061	35.05
287.277	59.2
287.493	32.86
287.709	48.57
287.924	21.65
288.14	53.97
288.356	38.75
288.571	51.27
288.787	35.88
289.003	43.06
289.218	16.22
289.434	-5.03
289.65	3
289.865	-8.03
290.081	1.51
290.296	10.43
290.512	6
290.727	-26.61
290.943	-12.51
291.159	-16.59
291.374	-15.36
291.59	-26.47
291.805	-9.19
292.021	1.2
292.236	-0.93
292.451	17.52
292.667	24.74
292.882	41.52
293.098	35.22
293.313	39.14
293.529	-4.76
293.744	-12.78
293.959	-24.06
294.175	-28.88
294.39	-3.25
294.605	15.62
294.821	28.8
295.036	36.34
295.251	37.2
295.467	27.17
295.682	24.06
295.897	10.48
296.112	-21.91
296.328	-6.95
296.543	-27.5
296.758	-25.18
296.973	2.26
297.188	29.44
297.404	7.93
297.619	-7.73
297.834	-15.61
298.049	-28.71
298.264	-49.17
298.479	4.6
298.694	15.86
298.909	30.82
299.125	38.87
299.34	51.44
299.555	28.49
299.77	30.31
299.985	-1.32
300.2	-55.26
300.415	-70.72
300.63	-44.34
300.845	-46.65
301.06	-49.14
301.275	-18.22
301.49	7.5
301.704	-2.34
301.919	-12.43
302.134	-11.72
302.349	-3.62
302.564	-61.85
302.779	-46.36
302.994	-19.95
303.209	19.06
303.423	20.91
303.638	67.63
303.853	15.34
304.068	17.71
304.283	11.34
304.497	15.67
304.712	8.75
304.927	22.22
305.142	11.78
305.356	12.02
305.571	-17.23
305.786	-27.49
306	-32.66
306.215	-24.94
306.43	-39.24
306.644	19.42
306.859	66.81
307.074	54.02
307.288	35.18
307.503	23.13
307.717	-2.55
307.932	-22.07
308.147	-20.4
308.361	-0.62
308.576	1.42
308.79	-20.1
309.005	-16.07
309.219	-14.72
309.434	-27.1
309.648	-12.03
309.863	6.38
310.077	2.22
310.292	5.33
310.506	6.49
310.72	13.29
310.935	-7.94
311.149	-3.99
311.364	3.54
311.578	15.41
311.792	-1.9
312.007	18.8
312.221	7.52
312.435	9.78
312.649	7.42
312.864	-23.64
313.078	-0.77
313.292	25.73
313.507	-8.83
313.721	-47.39
313.935	32.22
314.149	11.04
314.363	10.6
314.578	15.15
314.792	25.37
315.006	12.9
315.22	22.23
315.434	23.11
315.648	25.73
315.862	19.95
316.077	25.63
316.291	11.15
316.505	6.44
316.719	7.34
316.933	-2.33
317.147	-4.19
317.361	-48.06
317.575	-55.21
317.789	-68.25
318.003	-118.63
318.217	-102.9
318.431	-6.16
318.645	37.93
318.859	23.13
319.073	45.65
319.287	40.69
319.5	16.07
319.714	-23.22
319.928	-42.95
320.142	-69.03
320.356	-30.27
320.57	-14.41
320.784	-17.23
320.997	8.71
321.211	8.39
321.425	-42.58
321.639	-41.62
321.853	-11.16
322.066	-6.9
322.28	-0.07
322.494	9.51
322.707	16.19
322.921	20.88
323.135	12.83
323.349	27.41
323.562	12.92
323.776	8.31
323.989	3.89
324.203	9.63
324.417	-16.12
324.63	-15.13
324.844	-18.5
325.057	-17.88
325.271	-0.86
325.485	21.01
325.698	42.79
325.912	51.82
326.125	33.55
326.339	30.36
326.552	19.77
326.766	8.32
326.979	22.56
327.193	49.05
327.406	42.17
327.619	30.38
327.833	43.21
328.046	18.77
328.26	-14.82
328.473	3.6
328.686	-12.17
328.9	-20.3
329.113	-9.29
329.326	5.61
329.54	16.39
329.753	17.67
329.966	7.13
330.179	27.63
330.393	14.35
330.606	2.87
330.819	24.59
331.032	37.74
331.246	30.4
331.459	54.67
331.672	57.17
331.885	48.47
332.098	23.05
332.311	25.6
332.525	-15.21
332.738	-24.65
332.951	-4.89
333.164	29.77
333.377	38.53
333.59	46.05
333.803	58.56
334.016	47.35
334.229	41.22
334.442	41.11
334.655	63.85
334.868	71.63
335.081	68.02
335.294	62.58
335.507	53.47
335.72	25.52
335.933	-7.75
336.146	-2.17
336.359	-11.29
336.572	-35.88
336.785	-40.28
336.997	-18.47
337.21	-3.6
337.423	-12.97
337.636	-5
337.849	5.11
338.062	-9.71
338.274	-26.53
338.487	-22.04
338.7	-11.36
338.913	-34.35
339.125	-46.46
339.338	-85.42
339.551	-71.37
339.763	-49.07
339.976	-39.99
340.189	-2.08
340.402	29.92
340.614	38.12
340.827	37.97
341.039	36.48
341.252	28.03
341.465	16.24
341.677	0.96
341.89	-36.17
342.102	-5.8
342.315	-20.28
342.527	-42.35
342.74	-22.96
342.952	-1.12
343.165	-0.92
343.377	13.59
343.59	21.06
343.802	31.1
344.015	40.17
344.227	38.74
344.44	31.51
344.652	26.46
344.864	13.27
345.077	14.66
345.289	19.74
345.502	24.73
345.714	22.6
345.926	23.56
346.139	25.81
346.351	29.14
346.563	22.57
346.775	27.39
346.988	22.22
347.2	12.58
347.412	-29.2
347.624	-25.26
347.837	-25.11
348.049	-13.65
348.261	7.71
348.473	20.98
348.685	14.19
348.897	4.12
349.11	-11.89
349.322	-37.91
349.534	-31.31
349.746	-16.3
349.958	-0.09
350.17	6.07
350.382	22.09
350.594	30.79
350.806	32.46
351.018	26.78
351.23	21.3
351.442	-2.53
351.654	2.31
351.866	-6.17
352.078	-18.45
352.29	0.48
352.502	15.12
352.714	9.17
352.926	-0.6
353.138	-0.18
353.35	-4.43
353.561	-8.12
353.773	-12.38
353.985	-1.35
354.197	-4.55
354.409	-17.13
354.621	-17.5
354.832	-11.14
355.044	-9.97
355.256	-11.24
355.468	16.27
355.679	18.92
355.891	31.65
356.103	11.91
356.314	35.2
356.526	28.02
356.738	26.66
356.949	19.38
357.161	36.72
357.373	7.02
357.584	0.25
357.796	16.25
358.008	13.1
358.219	23.47
358.431	33.25
358.642	41.82
358.854	22.91
359.065	14.82
359.277	-11.49
359.488	-20.18
359.7	-33.69
359.911	-31.93
360.123	-19.05
360.334	-19.69
360.546	-33.91
360.757	-39.2
360.969	-40.11
361.18	-43.64
361.391	-22.25
361.603	-9.96
361.814	-3.93
362.025	-1.96
362.237	0.27
362.448	15.66
362.659	22.94
362.871	27.8
363.082	27.87
363.293	25.94
363.504	-2.09
363.716	-27.81
363.927	-36.98
364.138	-57.46
364.349	-70.52
364.56	-53.59
364.772	-37.16
364.983	-18.7
365.194	-11.77
365.405	9.27
365.616	29.16
365.827	29.81
366.038	13.4
366.25	3.51
366.461	-21.53
366.672	-15.27
366.883	8.92
367.094	18.35
367.305	19.3
367.516	15.7
367.727	-16.07
367.938	-34.55
368.149	-41.61
368.36	-31.53
368.571	-22.27
368.781	-23.99
368.992	-26.65
369.203	-32.3
369.414	-43.88
369.625	-44.73
369.836	-32.49
370.047	-45.15
370.258	-33.7
370.468	-36.84
370.679	-40.32
370.89	-33.55
371.101	-25.31
371.312	-29.21
371.522	-19.2
371.733	-16.23
371.944	-12.65
372.155	0.08
372.365	-2.12
372.576	7.04
372.787	12.77
372.997	3.8
373.208	4.43
373.419	25.59
373.629	-7.95
373.84	-12.25
374.05	-19.4
374.261	-20.01
374.472	-39.26
374.682	7.74
374.893	10.23
375.103	45.58
375.314	45.02
375.524	46.44
375.735	33.55
375.945	31.41
376.156	8.53
376.366	14.39
376.577	11.94
376.787	10.76
376.997	16.18
377.208	13.93
377.418	-3.95
377.629	5.86
377.839	-1.45
378.049	0.37
378.26	12.48
378.47	17.4
378.68	5.16
378.89	6.01
379.101	-3.05
379.311	-31.18
379.521	-51.95
379.732	-47.72
379.942	-44.66
380.152	-57.96
380.362	-26.62
380.572	-18.05
380.783	-4.31
380.993	5.04
381.203	20.46
381.413	24.24
381.623	26.88
381.833	22.11
382.043	17.81
382.253	14.14
382.463	12.34
382.674	8.19
382.884	-7.91
383.094	-7.64
383.304	-2.5
383.514	2.21
383.724	6.65
383.934	3.49
384.144	-11.44
384.353	-13.87
384.563	-18.31
384.773	-10.78
384.983	-9.38
385.193	13.87
385.403	7.8
385.613	10.44
385.823	-0.19
386.033	5.33
386.242	0.18
386.452	4.45
386.662	-11.38
386.872	3.45
387.082	1.97
387.291	-8.5
387.501	-17.43
387.711	-3.1
387.921	-13.07
388.13	-7.45
388.34	5.75
388.55	2.84
388.759	4.23
388.969	8.63
389.179	3.59
389.388	1.09
389.598	9.69
389.807	0.94
390.017	-2.11
390.227	-0.23
390.436	-1.7
390.646	-0.61
390.855	4.37
391.065	6.17
391.274	3.38
391.484	1.73
391.693	1.17
391.903	1.47
392.112	4.15
392.322	4.83
392.531	6.78
392.74	7.33
392.95	3.09
393.159	0.38
393.369	0.08
393.578	0.6
393.787	0.56
393.997	2.68
394.206	2.76
394.415	4.72
394.625	3.93
394.834	2.56
395.043	3.97
395.252	6.37
395.462	7.99
395.671	7.58
395.88	7.65
396.089	7.23
396.298	4.39
396.508	3.64
396.717	4.05
396.926	4.53
397.135	3.91
397.344	4.61
397.553	4.95
397.762	5.91
397.971	6.52
398.181	6.87
398.39	6.02
398.599	5.57
398.808	5.22
399.017	5.29
399.226	6.51
399.435	7.7
399.644	7.76
399.853	7.08
400.062	6.42
400.27	5.53
400.479	5.09
400.688	4.59
400.897	5.12
401.106	5.5
401.315	5.41
401.524	5.29
401.733	5.8
401.941	6.2
402.15	6.16
402.359	5.87
402.568	6.25
402.777	5.94
402.985	5.45
403.194	5.35
403.403	5.62
403.612	5.3
403.82	5.08
404.029	5.4
404.238	5.33
404.446	5.38
404.655	5.12
404.864	5.38
405.072	5.13
405.281	5.33
405.489	5.19
405.698	5.31
405.906	5.34
406.115	5.27
406.324	5.11
406.532	5.27
406.741	5.54
406.949	5.48
407.158	5.42
407.366	5.34
407.574	5.29
407.783	5.14
407.991	5.07
408.2	5.14
408.408	5.13
408.617	4.95
408.825	4.79
409.033	4.71
409.242	4.83
409.45	4.91
409.658	4.91
409.867	5.01
410.075	5
410.283	4.79
410.491	4.66
410.7	4.64
410.908	4.65
411.116	4.85
411.324	4.77
411.533	4.76
411.741	4.97
411.949	4.91
412.157	4.65
412.365	4.73
412.573	4.68
412.781	4.52
412.99	4.43
413.198	4.6
413.406	4.56
413.614	4.65
413.822	4.49
414.03	4.49
414.238	4.24
414.446	4.37
414.654	4.29
414.862	4.46
415.07	4.56
415.278	4.76
415.486	4.54
415.694	4.56
415.902	4.27
416.109	4.11
416.317	4.07
416.525	3.93
416.733	3.9
416.941	4.16
417.149	4.21
417.357	4.21
417.564	4.4
417.772	4.67
417.98	4.6
418.188	4.6
418.395	4.65
418.603	4.75
418.811	4.33
419.019	4.25
419.226	4.43
419.434	4.35
419.642	4.27
419.849	4.52
420.057	4.53
420.265	4.25
420.472	4.12
420.68	3.99
420.887	3.77
421.095	3.81
421.302	3.95
421.51	4
421.717	4.06
421.925	4.05
422.132	3.99
422.34	3.77
422.547	3.79
422.755	3.79
422.962	3.81
423.17	3.74
423.377	3.93
423.585	3.84
423.792	3.82
423.999	3.89
424.207	3.91
424.414	3.84
424.621	3.98
424.829	3.82
425.036	3.84
425.243	3.95
425.451	3.83
425.658	3.65
425.865	3.87
426.072	3.85
426.28	3.99
426.487	4.15
426.694	4.26
426.901	4.13
427.108	3.92
427.315	3.74
427.523	3.8
427.73	3.86
427.937	3.87
428.144	3.97
428.351	3.98
428.558	4.03
428.765	4.02
428.972	3.92
429.179	4.03
429.386	4.35
429.593	4.22
429.8	4.14
430.007	4.29
430.214	4.37
430.421	4.14
430.628	4.14
430.835	4.11
431.042	4.25
431.249	4.22
431.456	4.2
431.662	4.15
431.869	4.32
432.076	4.41
432.283	4.54
432.49	4.56
432.697	4.64
432.903	4.49
433.11	4.27
433.317	4.19
433.524	4.4
433.73	4.37
433.937	4.58
434.144	4.65
434.35	4.57
434.557	4.36
434.764	4.35
434.97	4.25
435.177	4.36
435.384	4.42
435.59	4.58
435.797	4.8
436.003	4.87
436.21	4.83
436.416	4.85
436.623	4.77
436.829	4.8
437.036	4.92
437.242	4.92
437.449	4.99
437.655	5.03
437.862	4.99
438.068	4.93
438.275	5.06
438.481	5.21
438.687	5.18
438.894	5.14
439.1	5.15
439.307	5.29
439.513	5.19
439.719	5.23
439.926	5.43
440.132	5.43
440.338	5.27
440.544	5.35
440.751	5.33
440.957	5.3
441.163	5.29
441.369	5.34
441.575	5.23
441.782	5.22
441.988	5.13
442.194	5.1
442.4	5.1
442.606	5.33
442.812	5.56
443.018	5.59
443.224	5.74
443.431	5.82
443.637	5.57
443.843	5.41
444.049	5.47
444.255	5.4
444.461	5.37
444.667	5.57
444.873	5.68
445.079	5.77
445.284	5.85
445.49	5.78
445.696	5.61
445.902	5.57
446.108	5.4
446.314	5.28
446.52	5.38
446.726	5.75
446.931	5.73
447.137	5.8
447.343	5.98
447.549	5.91
447.755	5.66
447.96	5.72
448.166	5.74
448.372	5.68
448.578	5.8
448.783	5.84
448.989	5.94
449.195	6.11
449.4	6.17
449.606	6.09
449.812	6.02
450.017	6
450.223	5.88
450.428	5.8
450.634	5.85
450.84	5.99
451.045	5.94
451.251	5.92
451.456	6.15
451.662	6.27
451.867	6.31
452.073	6.4
452.278	6.51
452.483	6.47
452.689	6.28
452.894	6.24
453.1	6.19
453.305	6.09
453.51	6.06
453.716	6.08
453.921	6.13
454.127	6.11
454.332	6.17
454.537	6.17
454.742	6.16
454.948	6.17
455.153	6.24
455.358	6.29
455.563	6.38
455.769	6.48
455.974	6.42
456.179	6.35
456.384	6.29
456.589	6.32
456.795	6.18
457	6.29
457.205	6.52
457.41	6.57
457.615	6.47
457.82	6.64
458.025	6.6
458.23	6.36
458.435	6.29
458.64	6.3
458.845	6.46
459.05	6.46
459.255	6.59
459.46	6.69
459.665	6.69
459.87	6.58
460.075	6.56
460.28	6.57
460.485	6.61
460.69	6.61
460.895	6.51
461.099	6.5
461.304	6.66
461.509	6.63
461.714	6.58
461.919	6.77
462.123	6.7
462.328	6.68
462.533	6.69
462.738	6.81
462.942	6.7
463.147	6.89
463.352	6.86
463.556	6.84
463.761	6.91
463.966	6.88
464.17	6.91
464.375	6.83
464.58	6.88
464.784	6.89
464.989	6.96
465.193	6.91
465.398	6.88
465.602	6.89
465.807	6.8
466.011	6.81
466.216	6.88
466.42	6.98
466.625	7.11
466.829	7.23
467.034	7.32
467.238	7.41
467.443	7.45
467.647	7.34
467.851	7.4
468.056	7.46
468.26	7.44
468.464	7.5
468.669	7.57
468.873	7.61
469.077	7.57
469.282	7.6
469.486	7.54
469.69	7.69
469.894	7.56
470.099	7.62
470.303	7.76
470.507	7.85
470.711	7.68
470.915	7.74
471.119	7.76
471.324	7.71
471.528	7.66
471.732	7.73
471.936	7.73
472.14	7.77
472.344	7.83
472.548	7.97
472.752	8.19
472.956	8.4
473.16	8.32
473.364	8.28
473.568	8.21
473.772	8.14
473.976	8.04
474.18	8.02
474.384	8.09
474.588	8.14
474.792	8.08
474.995	8.18
475.199	8.38
475.403	8.38
475.607	8.41
475.811	8.45
476.015	8.42
476.218	8.45
476.422	8.44
476.626	8.49
476.83	8.59
477.033	8.63
477.237	8.53
477.441	8.54
477.644	8.53
477.848	8.54
478.052	8.49
478.255	8.56
478.459	8.56
478.663	8.64
478.866	8.68
479.07	8.71
479.273	8.83
479.477	8.88
479.681	8.84
479.884	8.77
480.088	8.8
480.291	8.7
480.495	8.78
480.698	8.8
480.901	8.88
481.105	8.95
481.308	9.01
481.512	8.99
481.715	9.14
481.919	9.21
482.122	9.22
482.325	9.21
482.529	9.27
482.732	9.14
482.935	9.02
483.138	8.98
483.342	9.04
483.545	9.05
483.748	9.14
483.952	9.19
484.155	9.36
484.358	9.34
484.561	9.3
484.764	9.26
484.967	9.34
485.171	9.31
485.374	9.31
485.577	9.41
485.78	9.44
485.983	9.4
486.186	9.29
486.389	9.3
486.592	9.28
486.795	9.33
486.998	9.34
487.201	9.39
487.404	9.44
487.607	9.49
487.81	9.44
488.013	9.46
488.216	9.49
488.419	9.46
488.622	9.39
488.825	9.34
489.028	9.3
489.231	9.32
489.433	9.29
489.636	9.24
489.839	9.35
490.042	9.29
490.245	9.23
490.447	9.31
490.65	9.34
490.853	9.25
491.056	9.36
491.258	9.45
491.461	9.37
491.664	9.52
491.866	9.58
492.069	9.69
492.272	9.59
492.474	9.71
492.677	9.63
492.879	9.69
493.082	9.67
493.285	9.76
493.487	9.75
493.69	9.69
493.892	9.54
494.095	9.46
494.297	9.55
494.5	9.57
494.702	9.55
494.905	9.69
495.107	9.75
495.309	9.69
495.512	9.74
495.714	9.84
495.917	9.83
496.119	9.83
496.321	9.84
496.524	9.79
496.726	9.8
496.928	9.86
497.13	9.85
497.333	9.89
497.535	9.94
497.737	10
497.939	10.04
498.142	10.12
498.344	10.13
498.546	10.06
498.748	10.1
498.95	10.14
499.152	10.12
499.355	10.16
499.557	10.29
499.759	10.34
499.961	10.37
500.163	10.43
500.365	10.47
500.567	10.52
500.769	10.52
500.971	10.52
501.173	10.47
501.375	10.46
501.577	10.36
501.779	10.31
501.981	10.37
502.183	10.37
502.385	10.38
502.587	10.4
502.788	10.49
502.99	10.51
503.192	10.63
503.394	10.68
503.596	10.75
503.798	10.85
503.999	10.88
504.201	10.86
504.403	10.95
504.605	10.97
504.806	10.91
505.008	10.9
505.21	10.95
505.411	10.98
505.613	11.07
505.815	11.14
506.016	11.19
506.218	11.31
506.42	11.31
506.621	11.36
506.823	11.4
507.024	11.39
507.226	11.36
507.427	11.38
507.629	11.44
507.83	11.48
508.032	11.5
508.233	11.66
508.435	11.79
508.636	11.86
508.838	11.86
509.039	12
509.24	11.89
509.442	11.9
509.643	11.82
509.845	11.86
510.046	11.92
510.247	11.99
510.448	12.01
510.65	12.11
510.851	12.21
511.052	12.21
511.254	12.27
511.455	12.31
511.656	12.31
511.857	12.39
512.058	12.42
512.26	12.43
512.461	12.48
512.662	12.6
512.863	12.55
513.064	12.6
513.265	12.69
513.466	12.77
513.667	12.74
513.868	12.78
514.069	12.89
514.27	12.87
514.471	12.85
514.672	12.86
514.873	12.85
515.074	12.81
515.275	12.84
515.476	12.86
515.677	12.92
515.878	13.1
516.079	13.11
516.28	13.18
516.481	13.26
516.682	13.34
516.882	13.19
517.083	13.19
517.284	13.13
517.485	13.12
517.686	13.02
517.886	13.08
518.087	13.13
518.288	13.19
518.488	13.15
518.689	13.23
518.89	13.24
519.091	13.29
519.291	13.26
519.492	13.33
519.692	13.35
519.893	13.45
520.094	13.38
520.294	13.42
520.495	13.44
520.695	13.54
520.896	13.52
521.096	13.54
521.297	13.61
521.497	13.61
521.698	13.59
521.898	13.61
522.099	13.71
522.299	13.76
522.499	13.77
522.7	13.81
522.9	13.81
523.101	13.88
523.301	13.86
523.501	13.81
523.702	13.79
523.902	13.85
524.102	13.83
524.302	13.83
524.503	13.97
524.703	14.02
524.903	14.07
525.103	14.07
525.304	14.19
525.504	14.18
525.704	14.2
525.904	14.19
526.104	14.22
526.304	14.18
526.504	14.23
526.705	14.19
526.905	14.22
527.105	14.19
527.305	14.16
527.505	14.11
527.705	14.11
527.905	14.09
528.105	14.13
528.305	14.16
528.505	14.27
528.705	14.38
528.905	14.4
529.105	14.41
529.304	14.51
529.504	14.58
529.704	14.56
529.904	14.54
530.104	14.53
530.304	14.6
530.503	14.49
530.703	14.45
530.903	14.5
531.103	14.6
531.303	14.54
531.502	14.63
531.702	14.76
531.902	14.81
532.101	14.81
532.301	14.84
532.501	14.83
532.7	14.86
532.9	14.91
533.1	14.89
533.299	14.91
533.499	15
533.698	14.95
533.898	14.95
534.097	15.01
534.297	15.1
534.496	15.08
534.696	15.13
534.895	15.24
535.095	15.32
535.294	15.28
535.494	15.31
535.693	15.34
535.892	15.36
536.092	15.29
536.291	15.33
536.491	15.42
536.69	15.5
536.889	15.45
537.088	15.51
537.288	15.57
537.487	15.61
537.686	15.6
537.886	15.66
538.085	15.73
538.284	15.83
538.483	15.85
538.682	15.91
538.882	15.99
539.081	16.04
539.28	15.97
539.479	15.86
539.678	15.87
539.877	15.98
540.076	15.98
540.275	16.08
540.474	16.27
540.673	16.31
540.872	16.24
541.071	16.32
541.27	16.33
541.469	16.4
541.668	16.47
541.867	16.59
542.066	16.67
542.265	16.83
542.464	16.81
542.663	16.82
542.862	16.95
543.06	17.05
543.259	17.1
543.458	17.19
543.657	17.33
543.856	17.38
544.054	17.38
544.253	17.39
544.452	17.44
544.651	17.52
544.849	17.45
545.048	17.57
545.247	17.59
545.445	17.64
545.644	17.66
545.843	17.71
546.041	17.71
546.24	17.84
546.438	17.93
546.637	17.96
546.836	18.14
547.034	18.19
547.233	18.26
547.431	18.29
547.63	18.42
547.828	18.41
548.027	18.48
548.225	18.51
548.423	18.58
548.622	18.63
548.82	18.71
549.019	18.83
549.217	18.93
549.415	19.04
549.614	19.15
549.812	19.25
550.01	19.24
550.209	19.38
550.407	19.47
550.605	19.52
550.803	19.62
551.002	19.85
551.2	19.9
551.398	19.98
551.596	20.12
551.794	20.22
551.993	20.29
552.191	20.44
552.389	20.6
552.587	20.65
552.785	20.68
552.983	20.76
553.181	20.81
553.379	20.85
553.577	20.98
553.775	21.22
553.973	21.32
554.171	21.43
554.369	21.55
554.567	21.64
554.765	21.69
554.963	21.8
555.161	21.8
555.359	21.88
555.557	22.08
555.755	22.21
555.952	22.38
556.15	22.54
556.348	22.6
556.546	22.68
556.744	22.67
556.941	22.71
557.139	22.86
557.337	23.02
557.535	23.03
557.732	23.3
557.93	23.44
558.128	23.52
558.325	23.64
558.523	23.71
558.721	23.81
558.918	23.9
559.116	24.08
559.313	24.21
559.511	24.47
559.708	24.53
559.906	24.61
560.104	24.71
560.301	24.85
560.498	24.88
560.696	24.99
560.893	25.1
561.091	25.21
561.288	25.35
561.486	25.51
561.683	25.63
561.88	25.78
562.078	25.92
562.275	26.04
562.473	26.14
562.67	26.3
562.867	26.48
563.064	26.55
563.262	26.54
563.459	26.72
563.656	26.81
563.853	26.89
564.051	27.11
564.248	27.38
564.445	27.53
564.642	27.7
564.839	27.86
565.036	27.96
565.234	28.06
565.431	28.05
565.628	28.08
565.825	28.14
566.022	28.31
566.219	28.39
566.416	28.65
566.613	28.81
566.81	28.93
567.007	28.86
567.204	28.91
567.401	28.89
567.598	28.93
567.795	29.04
567.991	29.21
568.188	29.32
568.385	29.46
568.582	29.56
568.779	29.66
568.976	29.74
569.172	29.94
569.369	29.93
569.566	29.99
569.763	30.08
569.96	30.04
570.156	30.03
570.353	30.08
570.55	30.26
570.746	30.18
570.943	30.33
571.14	30.36
571.336	30.43
571.533	30.41
571.729	30.46
571.926	30.56
572.123	30.64
572.319	30.84
572.516	30.81
572.712	30.98
572.909	30.9
573.105	31.08
573.302	31.03
573.498	31.27
573.695	31.28
573.891	31.37
574.087	31.29
574.284	31.32
574.48	31.22
574.677	31.27
574.873	31.33
575.069	31.37
575.266	31.4
575.462	31.3
575.658	31.27
575.854	31.37
576.051	31.33
576.247	31.28
576.443	31.42
576.639	31.49
576.835	31.39
577.032	31.46
577.228	31.63
577.424	31.59
577.62	31.45
577.816	31.5
578.012	31.44
578.208	31.38
578.404	31.52
578.6	31.66
578.796	31.66
578.993	31.81
579.189	31.73
579.384	31.54
579.58	31.45
579.776	31.44
579.972	31.31
580.168	31.23
580.364	31.28
580.56	31.24
580.756	31.13
580.952	31.08
581.148	31.15
581.343	31.12
581.539	31.21
581.735	31.31
581.931	31.35
582.127	31.39
582.322	31.38
582.518	31.39
582.714	31.4
582.909	31.42
583.105	31.38
583.301	31.41
583.496	31.44
583.692	31.37
583.888	31.26
584.083	31.3
584.279	31.37
584.474	31.31
584.67	31.4
584.866	31.49
585.061	31.41
585.257	31.45
585.452	31.48
585.648	31.41
585.843	31.39
586.039	31.45
586.234	31.37
586.429	31.32
586.625	31.46
586.82	31.48
587.015	31.46
587.211	31.33
587.406	31.44
587.601	31.3
587.797	31.31
587.992	31.35
588.187	31.55
588.383	31.41
588.578	31.5
588.773	31.48
588.968	31.46
589.163	31.54
589.359	31.62
589.554	31.63
589.749	31.75
589.944	31.85
590.139	31.79
590.334	31.86
590.529	31.88
590.724	31.93
590.919	32.08
591.114	32.11
591.309	32.12
591.504	32.16
591.699	32.1
591.894	32.09
592.089	32.17
592.284	32.25
592.479	32.36
592.674	32.39
592.869	32.42
593.064	32.42
593.259	32.66
593.454	32.74
593.648	32.87
593.843	32.85
594.038	32.96
594.233	32.79
594.428	32.86
594.622	32.92
594.817	33.04
595.012	33.1
595.206	33.19
595.401	33.19
595.596	33.26
595.79	33.41
595.985	33.52
596.18	33.75
596.374	34.02
596.569	34.11
596.763	34.15
596.958	34.29
597.153	34.29
597.347	34.21
597.542	34.35
597.736	34.42
597.931	34.48
598.125	34.47
598.319	34.66
598.514	34.73
598.708	34.84
598.903	34.8
599.097	34.88
599.291	34.81
599.486	34.78
599.68	34.81
599.874	34.94
600.069	35.02
600.263	35.09
600.457	35.18
600.651	35.26
600.846	35.32
601.04	35.47
601.234	35.61
601.428	35.71
601.622	35.74
601.817	35.75
602.011	35.72
602.205	35.71
602.399	35.72
602.593	35.74
602.787	35.86
602.981	35.85
603.175	35.86
603.369	35.74
603.563	35.71
603.757	35.68
603.951	35.76
604.145	35.68
604.339	35.81
604.533	35.81
604.727	35.7
604.921	35.63
605.115	35.64
605.309	35.65
605.502	35.69
605.696	35.72
605.89	35.66
606.084	35.67
606.278	35.56
606.471	35.51
606.665	35.42
606.859	35.28
607.053	35.22
607.246	35.09
607.44	34.88
607.634	34.83
607.827	34.91
608.021	34.84
608.214	34.88
608.408	34.89
608.602	34.87
608.795	34.76
608.989	34.65
609.182	34.58
609.376	34.53
609.569	34.31
609.763	34.24
609.956	34.19
610.15	34.13
610.343	34.08
610.537	34.07
610.73	34.03
610.923	33.95
611.117	33.88
611.31	33.87
611.504	33.84
611.697	33.7
611.89	33.57
612.083	33.48
612.277	33.37
612.47	33.32
612.663	33.21
612.856	33.17
613.05	32.99
613.243	32.92
613.436	32.75
613.629	32.65
613.822	32.52
614.015	32.5
614.209	32.27
614.402	32.36
614.595	32.42
614.788	32.38
614.981	32.36
615.174	32.34
615.367	32.15
615.56	31.99
615.753	31.97
615.946	31.81
616.139	31.81
616.332	31.8
616.525	31.81
616.718	31.84
616.911	31.82
617.103	31.75
617.296	31.68
617.489	31.58
617.682	31.44
617.875	31.43
618.067	31.32
618.26	31.23
618.453	31.23
618.646	31.24
618.838	31.17
619.031	31.22
619.224	31.19
619.417	31.19
619.609	31.22
619.802	31.21
619.994	31.14
620.187	31.08
620.38	31.05
620.572	30.9
620.765	30.88
620.957	30.83
621.15	30.72
621.342	30.63
621.535	30.63
621.727	30.58
621.92	30.49
622.112	30.57
622.305	30.59
622.497	30.45
622.69	30.4
622.882	30.47
623.074	30.49
623.267	30.34
623.459	30.31
623.651	30.3
623.844	30.25
624.036	30.15
624.228	30.15
624.42	30.13
624.613	30.14
624.805	30.15
624.997	30.15
625.189	30.2
625.381	30.3
625.574	30.17
625.766	30.1
625.958	30.1
626.15	30.03
626.342	29.94
626.534	29.97
626.726	29.99
626.918	30.01
627.11	29.91
627.302	29.82
627.494	29.75
627.686	29.67
627.878	29.46
628.07	29.44
628.262	29.43
628.454	29.49
628.646	29.5
628.838	29.56
629.029	29.57
629.221	29.53
629.413	29.3
629.605	29.18
629.797	29.1
629.989	29
630.18	28.89
630.372	28.98
630.564	28.96
630.755	29.01
630.947	29.03
631.139	28.97
631.33	28.81
631.522	28.92
631.714	28.86
631.905	28.87
632.097	28.89
632.289	28.96
632.48	28.77
632.672	28.63
632.863	28.51
633.055	28.53
633.246	28.5
633.438	28.43
633.629	28.48
633.821	28.49
634.012	28.47
634.203	28.44
634.395	28.49
634.586	28.53
634.777	28.62
634.969	28.64
635.16	28.68
635.351	28.67
635.543	28.66
635.734	28.49
635.925	28.44
636.117	28.39
636.308	28.5
636.499	28.41
636.69	28.31
636.881	28.33
637.073	28.36
637.264	28.15
637.455	28.19
637.646	28.42
637.837	28.43
638.028	28.38
638.219	28.45
638.41	28.38
638.601	28.19
638.792	28.21
638.983	28.16
639.174	28.18
639.365	28.16
639.556	28.06
639.747	27.92
639.938	27.93
640.129	27.84
640.32	27.77
640.511	27.95
640.701	28.01
640.892	27.91
641.083	27.89
641.274	27.98
641.465	27.91
641.655	27.77
641.846	27.88
642.037	27.84
642.228	27.68
642.418	27.72
642.609	27.77
642.8	27.68
642.99	27.58
643.181	27.65
643.372	27.64
643.562	27.57
643.753	27.55
643.943	27.61
644.134	27.48
644.324	27.42
644.515	27.36
644.705	27.33
644.896	27.31
645.086	27.33
645.277	27.25
645.467	27.31
645.658	27.22
645.848	27.23
646.038	27.15
646.229	27.03
646.419	26.96
646.61	27.05
646.8	26.93
646.99	26.98
647.18	26.97
647.371	26.85
647.561	26.74
647.751	26.72
647.941	26.6
648.132	26.62
648.322	26.62
648.512	26.57
648.702	26.63
648.892	26.61
649.082	26.52
649.272	26.42
649.462	26.28
649.653	26.08
649.843	25.93
650.033	25.93
650.223	25.98
650.413	26
650.603	26
650.793	26.04
650.983	25.95
651.172	25.79
651.362	25.66
651.552	25.57
651.742	25.48
651.932	25.4
652.122	25.37
652.312	25.36
652.502	25.21
652.691	25.13
652.881	25.06
653.071	24.89
653.261	24.75
653.45	24.63
653.64	24.65
653.83	24.53
654.019	24.45
654.209	24.35
654.399	24.3
654.588	24.01
654.778	23.84
654.968	23.69
655.157	23.48
655.347	23.35
655.536	23.19
655.726	22.98
655.915	22.79
656.105	22.69
656.294	22.52
656.484	22.25
656.673	22.15
656.863	22.11
657.052	21.93
657.241	21.69
657.431	21.52
657.62	21.24
657.809	20.81
657.999	20.56
658.188	20.29
658.377	20.11
658.567	20
658.756	19.95
658.945	19.8
659.134	19.61
659.324	19.41
659.513	19.12
659.702	18.82
659.891	18.57
660.08	18.36
660.269	18.25
660.458	18.03
660.648	17.86
660.837	17.71
661.026	17.51
661.215	17.27
661.404	17.06
661.593	16.87
661.782	16.64
661.971	16.56
662.16	16.27
662.349	16.08
662.538	15.88
662.726	15.73
662.915	15.5
663.104	15.4
663.293	15.35
663.482	15.29
663.671	15.19
663.86	15.04
664.048	14.9
664.237	14.77
664.426	14.54
664.615	14.41
664.803	14.31
664.992	14.24
665.181	14.04
665.369	13.93
665.558	13.78
665.747	13.58
665.935	13.5
666.124	13.46
666.312	13.4
666.501	13.29
666.69	13.2
666.878	13.05
667.067	13.01
667.255	13.03
667.444	13.11
667.632	13.25
667.82	13.3
668.009	13.17
668.197	13.08
668.386	12.96
668.574	12.8
668.762	12.74
668.951	12.68
669.139	12.74
669.327	12.58
669.516	12.6
669.704	12.54
669.892	12.65
670.08	12.52
670.269	12.45
670.457	12.35
670.645	12.17
670.833	12.2
671.021	12.15
671.21	12.36
671.398	12.57
671.586	12.65
671.774	12.45
671.962	12.51
672.15	12.41
672.338	12.31
672.526	12.43
672.714	12.51
672.902	12.53
673.09	12.76
673.278	12.86
673.466	12.9
673.654	13.16
673.842	13.18
674.03	13.11
674.218	13.03
674.405	13.12
674.593	13.08
674.781	13.18
674.969	13.22
675.157	13.47
675.344	13.51
675.532	13.6
675.72	13.77
675.908	13.83
676.095	13.7
676.283	13.77
676.471	13.95
676.658	13.86
676.846	14.03
677.033	14.14
677.221	14.22
677.409	14.14
677.596	14.31
677.784	14.39
677.971	14.6
678.159	14.69
678.346	14.78
678.534	14.9
678.721	15.15
678.909	15.16
679.096	15.23
679.283	15.47
679.471	15.71
679.658	15.79
679.846	16.09
680.033	16.49
680.22	16.64
680.408	16.73
680.595	16.85
680.782	16.92
680.969	16.89
681.157	16.96
681.344	16.99
681.531	17.09
681.718	17.19
681.905	17.47
682.093	17.72
682.28	18.07
682.467	18.54
682.654	18.91
682.841	19.18
683.028	19.42
683.215	19.64
683.402	19.53
683.589	19.69
683.776	19.99
683.963	20.23
684.15	20.5
684.337	20.97
684.524	21.25
684.711	21.56
684.898	21.81
685.085	22.2
685.271	22.75
685.458	23.15
685.645	23.4
685.832	23.88
686.019	24.14
686.205	24.23
686.392	24.73
686.579	25.13
686.766	25.53
686.952	26.13
687.139	26.9
687.326	27.15
687.512	27.59
687.699	28.22
687.886	28.57
688.072	28.86
688.259	29.48
688.445	30.27
688.632	30.66
688.818	31.45
689.005	31.97
689.191	32.61
689.378	33.03
689.564	33.74
689.751	34.25
689.937	34.83
690.124	35.41
690.31	35.85
690.496	36.42
690.683	36.86
690.869	37.63
691.055	38.11
691.242	39.08
691.428	39.69
691.614	40.42
691.8	41.01
691.987	41.74
692.173	42.25
692.359	42.91
692.545	43.61
692.731	44.14
692.918	44.76
693.104	45.43
693.29	46.14
693.476	46.77
693.662	47.44
693.848	48.12
694.034	48.55
694.22	49.04
694.406	49.86
694.592	50.64
694.778	51.47
694.964	52.33
695.15	52.95
695.336	53.26
695.522	53.79
695.708	54.22
695.894	54.75
696.08	55.54
696.265	56.33
696.451	57.11
696.637	57.78
696.823	58.35
697.009	58.7
697.194	59.28
697.38	59.46
697.566	59.89
697.751	60.6
697.937	61.49
698.123	61.83
698.308	62.63
698.494	63.27
698.68	63.62
698.865	64.02
699.051	64.72
699.236	65.15
699.422	65.56
699.607	65.95
699.793	66.07
699.978	66.28
700.164	66.77
700.349	67.23
700.535	67.71
700.72	68.36
700.906	69
701.091	69.27
701.276	69.78
701.462	70.25
701.647	70.86
701.832	71.31
702.018	71.58
702.203	71.71
702.388	71.86
702.573	72.35
702.759	72.78
702.944	73.54
703.129	73.88
703.314	74.37
703.499	74.33
703.684	74.41
703.87	75.01
704.055	75.61
704.24	76
704.425	76.59
704.61	77.25
704.795	77.17
704.98	77.46
705.165	77.8
705.35	77.95
705.535	78.11
705.72	78.53
705.905	78.7
706.09	79.09
706.275	79.35
706.459	79.23
706.644	79.29
706.829	79.66
707.014	79.51
707.199	79.68
707.384	80.04
707.568	80.07
707.753	80.51
707.938	80.93
708.123	81.3
708.307	81.56
708.492	82.04
708.677	82.29
708.861	82.01
709.046	81.8
709.231	82.25
709.415	82.31
709.6	82.04
709.784	82.41
709.969	82.75
710.153	82.71
710.338	82.91
710.522	83.32
710.707	83.84
710.891	84
711.076	84.23
711.26	84.31
711.445	84.39
711.629	84.37
711.813	84.61
711.998	84.86
712.182	85.07
712.366	85.27
712.551	85.75
712.735	85.81
712.919	85.7
713.103	85.9
713.288	85.86
713.472	85.64
713.656	86.22
713.84	86.24
714.024	86.29
714.208	86.06
714.393	86.37
714.577	86.36
714.761	86.55
714.945	86.61
715.129	87.14
715.313	87.47
715.497	87.32
715.681	88.13
715.865	88.12
716.049	88.43
716.233	87.8
716.417	88.07
716.601	87.12
716.785	87.2
716.968	86.84
717.152	86.99
717.336	87.08
717.52	87.61
717.704	87.76
717.888	88.18
718.071	88.91
718.255	88.91
718.439	88.56
718.622	88.9
718.806	89.22
718.99	88.68
719.174	88.49
719.357	89.13
719.541	88.83
719.724	88.5
719.908	89.29
720.092	89.82
720.275	90.02
720.459	90.22
720.642	89.76
720.826	89.17
721.009	88.91
721.193	88.4
721.376	88.58
721.559	89.03
721.743	89.69
721.926	89.74
722.11	90.11
722.293	89.96
722.476	89.85
722.66	89.92
722.843	89.63
723.026	89.23
723.21	89.76
723.393	90.81
723.576	90.09
723.759	90.14
723.942	90.59
724.126	90.14
724.309	89.88
724.492	90.57
724.675	90.69
724.858	90.8
725.041	91.39
725.224	90.94
725.407	91.19
725.59	91.83
725.774	91.37
725.957	90.66
726.14	91.03
726.322	90.8
726.505	90.51
726.688	91.62
726.871	91.22
727.054	90.95
727.237	90.83
727.42	91.01
727.603	90.8
727.786	91.45
727.968	92.02
728.151	92.27
728.334	92.3
728.517	92.28
728.699	92.62
728.882	92.17
729.065	92.25
729.248	92.53
729.43	92.54
729.613	93.1
729.796	93.98
729.978	93.71
730.161	93.16
730.343	93.22
730.526	93.89
730.708	92.67
730.891	93.35
731.073	93.49
731.256	93.31
731.438	92.69
731.621	93.65
731.803	92.9
731.986	93.76
732.168	93.56
732.35	93.66
732.533	93.6
732.715	94.14
732.898	93.69
733.08	93.89
733.262	94.37
733.444	94.75
733.627	94.78
733.809	95.05
733.991	95.82
734.173	94.97
734.355	94.61
734.538	94.56
734.72	94.63
734.902	93.9
735.084	94
735.266	93.96
735.448	94.3
735.63	93.99
735.812	94.3
735.994	95.22
736.176	95.45
736.358	94.89
736.54	96.14
736.722	95.66
736.904	94.82
737.086	94.45
737.268	95.86
737.45	95.37
737.632	95.61
737.814	95.59
737.995	95.92
738.177	94.69
738.359	93.58
738.541	93.74
738.723	94.33
738.904	95.44
739.086	95.92
739.268	96.36
739.449	96.94
739.631	96.44
739.813	95.81
739.994	95.62
740.176	96.23
740.358	95.91
740.539	96.78
740.721	96.92
740.902	97.43
741.084	96.6
741.265	96.14
741.447	95.64
741.628	95.59
741.81	95.31
741.991	96.52
742.172	97.4
742.354	97.9
742.535	98.04
742.717	98.18
742.898	97.62
743.079	97.73
743.261	96.97
743.442	96.56
743.623	97.6
743.804	97.79
743.986	98.97
744.167	98.38
744.348	97.96
744.529	97.56
744.71	96.2
744.891	94.17
745.073	94.04
745.254	94.08
745.435	93.48
745.616	94.25
745.797	95
745.978	95.06
746.159	95.54
746.34	94.05
746.521	95.33
746.702	93.76
746.883	94.14
747.064	93.23
747.245	94.07
747.426	93.69
747.606	94.59
747.787	94.82
747.968	95.14
748.149	95.64
748.33	95.61
748.51	95.61
748.691	94.64
748.872	95.59
749.053	94.48
749.233	93.53
749.414	92.63
749.595	92.6
749.775	90.49
749.956	90.52
750.137	90.31
750.317	91.48
750.498	93.14
750.678	95.1
750.859	96.64
751.04	96.66
751.22	96.71
751.4	95.42
751.581	93.41
751.761	93.34
751.942	94.45
752.122	93.49
752.303	93.58
752.483	94.22
752.663	93.13
752.844	91.3
753.024	93.64
753.204	94.24
753.385	94.68
753.565	94.61
753.745	94.69
753.925	93.07
754.106	91.15
754.286	89.67
754.466	89.79
754.646	91.49
754.826	91.51
755.006	92.55
755.187	94.98
755.367	95.55
755.547	95.24
755.727	95.31
755.907	96.08
756.087	95.6
756.267	95.53
756.447	94.6
756.627	93.27
756.807	93.06
756.987	93.05
757.167	93.6
757.346	94.36
757.526	93.93
757.706	94.9
757.886	95.04
758.066	95.47
758.246	96.21
758.425	96.94
758.605	94.81
758.785	94.25
758.965	93.02
759.144	91.4
759.324	91.25
759.504	92.33
759.683	92.85
759.863	91.11
760.043	88.68
760.222	89.12
760.402	89.51
760.581	88.43
760.761	91.49
760.94	92.7
761.12	95.14
761.299	95.54
761.479	96.29
761.658	93.69
761.838	94.84
762.017	92.37
762.197	91.53
762.376	91.57
762.555	93.43
762.735	93.16
762.914	92.75
763.093	92.85
763.273	90.66
763.452	90.97
763.631	90.47
763.81	90.87
763.99	90.11
764.169	92.18
764.348	89.09
764.527	88.39
764.706	88.55
764.885	89.05
765.064	88.11
765.243	89.42
765.423	91.36
765.602	90.45
765.781	88.82
765.96	86.38
766.139	85.81
766.318	86.38
766.497	86.18
766.676	86.76
766.854	90.71
767.033	90.64
767.212	88.94
767.391	90.12
767.57	91.89
767.749	91.84
767.928	93.64
768.106	92.81
768.285	91.34
768.464	89.16
768.643	85.86
768.821	85.13
769	86.56
769.179	86.85
769.357	86.42
769.536	88.59
769.715	88.11
769.893	88.69
770.072	87.65
770.25	89.11
770.429	90.5
770.607	89
770.786	88.41
770.964	92.21
771.143	91.14
771.321	90.69
771.5	93.74
771.678	92.96
771.857	89.46
772.035	89.34
772.213	87.92
772.392	85.51
772.57	87.43
772.748	87.79
772.927	87.05
773.105	86.71
773.283	87.51
773.461	87.12
773.64	87.64
773.818	89.56
773.996	89.15
774.174	88.76
774.352	86.25
774.531	84.88
774.709	87.37
774.887	87.92
775.065	87.57
775.243	87.86
775.421	89.58
775.599	85.21
775.777	82.77
775.955	81.2
776.133	80.58
776.311	80.82
776.489	81.59
776.667	84.1
776.844	86.65
777.022	86.14
777.2	85.23
777.378	84.84
777.556	86.87
777.734	87.25
777.911	90.9
778.089	88.58
778.267	89.41
778.445	85.05
778.622	84.26
778.8	82.91
778.978	86.14
779.155	85.7
779.333	87.61
779.511	87.81
779.688	89.39
779.866	86.13
780.043	83.46
780.221	82.9
780.398	81.12
780.576	78.13
780.753	80.85
780.931	83.11
781.108	81.13
781.286	83.51
781.463	83.13
781.64	79.48
781.818	79.14
781.995	80.74
782.172	79.31
782.35	79.33
782.527	83.24
782.704	81.34
782.882	84.15
783.059	83.58
783.236	85.42
783.413	87
783.59	89.67
783.768	85.08
783.945	87.81
784.122	85.85
784.299	84.08
784.476	81.86
784.653	81.61
784.83	80.81
785.007	81.34
785.184	79.78
785.361	82.68
785.538	86.78
785.715	85.47
785.892	84.35
786.069	85.37
786.246	84.53
786.423	83.02
786.6	81.84
786.776	86.09
786.953	86.01
787.13	86.1
787.307	85.11
787.484	83.5
787.66	79.91
787.837	79.94
788.014	78.01
788.191	76.37
788.367	73.83
788.544	77.12
788.721	75.62
788.897	78.31
789.074	83.39
789.25	86.13
789.427	84.09
789.603	84.24
789.78	82.91
789.956	79.89
790.133	79.23
790.309	79.97
790.486	82.4
790.662	82.05
790.839	82.88
791.015	82.22
791.192	80.37
791.368	82.1
791.544	81.41
791.721	80.93
791.897	79.25
792.073	76.62
792.249	68.33
792.426	69.39
792.602	69.45
792.778	75.19
792.954	79.16
793.13	82.4
793.307	77.16
793.483	72.52
793.659	69.3
793.835	70.01
794.011	67.56
794.187	72.54
794.363	72.28
794.539	76.02
794.715	71.51
794.891	71.76
795.067	71.24
795.243	78.31
795.419	72.1
795.595	75.17
795.771	77.3
795.947	80.17
796.122	79.44
796.298	83.56
796.474	83.78
796.65	79.34
796.826	75.77
797.001	73.28
797.177	70.45
797.353	69.03
797.529	77.44
797.704	78.37
797.88	78.02
798.056	74.3
798.231	73.49
798.407	69.84
798.582	69.24
798.758	70.79
798.934	77.14
799.109	76.2
799.285	72.64
799.46	79.43
799.636	75.48
799.811	73.8
799.986	73.22
800.162	77.59
800.337	72.57
800.513	73.25
800.688	75.92
800.863	85.53
801.039	80.05
801.214	74.14
801.389	81.69
801.565	72.82
801.74	62.86
801.915	72.12
802.09	72.77
802.265	67.83
802.441	70
802.616	74.12
802.791	70.76
802.966	73.52
803.141	73.11
803.316	72.66
803.491	75.85
803.666	74.84
803.841	75.46
804.016	76.16
804.191	80.74
804.366	74.03
804.541	73.67
804.716	74.12
804.891	73
805.066	74.79
805.241	72.59
805.416	71.08
805.591	65.76
805.765	67.66
805.94	69.69
806.115	69.65
806.29	64.35
806.464	68.34
806.639	64.11
806.814	58.6
806.989	55.91
807.163	69.82
807.338	67.47
807.512	65.8
807.687	58.27
807.862	66.63
808.036	59.89
808.211	65.01
808.385	70.83
808.56	80.61
808.734	76.08
808.909	79.86
809.083	78.98
809.258	83.77
809.432	79.17
809.606	76.73
809.781	65.31
809.955	66.31
810.13	63.79
810.304	60.84
810.478	62.5
810.652	74.42
810.827	77.88
811.001	81.31
811.175	81.49
811.349	77.83
811.524	69.3
811.698	55.95
811.872	52.8
812.046	60.86
812.22	68.81
812.394	71.97
812.568	72.07
812.742	69.43
812.916	66.68
813.09	55.97
813.264	54.59
813.438	64.05
813.612	61.89
813.786	58.95
813.96	71.24
814.134	72.03
814.308	83.64
814.482	83.81
814.656	82.3
814.83	78.47
815.003	79.28
815.177	64.19
815.351	65.63
815.525	66.44
815.698	63.95
815.872	55.14
816.046	55.8
816.219	60.77
816.393	68.86
816.567	73.45
816.74	86.84
816.914	81.45
817.088	80.58
817.261	66.48
817.435	64.75
817.608	62.12
817.782	73.78
817.955	68.83
818.129	64.47
818.302	61.87
818.475	71.29
818.649	69.44
818.822	71.08
818.996	96.49
819.169	107.23
819.342	98.68
819.516	103.21
819.689	96.24
819.862	79.47
820.035	69.02
820.209	65.57
820.382	60.84
820.555	66.9
820.728	51.95
820.901	50.87
821.075	49.57
821.248	64.26
821.421	56.24
821.594	69.74
821.767	84.86
821.94	94.79
822.113	61.94
822.286	64.9
822.459	72.15
822.632	63.24
822.805	47.42
822.978	62.94
823.151	57.69
823.324	52.22
823.496	41.56
823.669	52.49
823.842	43.18
824.015	31.79
824.188	14.42
824.361	17.44
824.533	14.08
824.706	23.18
824.879	24.78
825.051	34.01
825.224	39.6
825.397	31.54
825.569	26.87
825.742	50.39
825.915	65.93
826.087	65.51
826.26	57.31
826.432	65.45
826.605	65.37
826.777	58.23
826.95	62.49
827.122	55.38
827.295	44.64
827.467	47.51
827.64	38.88
827.812	34.02
827.984	41.47
828.157	48.44
828.329	12.56
828.501	12.15
828.674	29.24
828.846	21.92
829.018	37.18
829.19	30.49
829.363	55.16
829.535	51.56
829.707	59.68
829.879	36.19
830.051	53.69
830.223	21.23
830.395	3.37
830.568	8.6
830.74	21.81
830.912	36.73
831.084	37.78
831.256	39.72
831.428	32.02
831.6	22.88
831.772	-14.17
831.943	-17.32
832.115	9.5
832.287	23.44
832.459	42.24
832.631	66.38
832.803	87.8
832.975	89.34
833.146	92.56
833.318	77.57
833.49	79.35
833.662	42.96
833.833	16.69
834.005	14.56
834.177	17.44
834.348	13.3
834.52	22.64
834.692	49.43
834.863	48.89
835.035	46.19
835.206	5.81
835.378	16.01
835.549	-3.19
835.721	15.61
835.892	-0.54
836.064	3.68
836.235	5.46
836.407	29
836.578	-8.32
836.749	11.34
836.921	-7.39
837.092	-48.44
837.264	-43.62
837.435	-46.94
837.606	-7.2
837.777	24.18
837.949	46.86
838.12	41.39
838.291	58.51
838.462	47
838.633	11.05
838.805	4.18
838.976	33.26
839.147	6.89
839.318	-2.98
839.489	-5.63
839.66	-18.7
839.831	-7.99
840.002	-3.75
840.173	-5.97
840.344	67.41
840.515	170.49
840.686	95.41
840.857	43.19
841.028	40.06
841.199	10.61
841.369	-39.47
841.54	-7.64
841.711	32.5
841.882	50.61
842.053	34.47
842.223	27.75
842.394	31.9
842.565	26.06
842.736	27.11
842.906	34.24
843.077	48.94
843.248	79.86
843.418	90.8
843.589	85.83
843.759	121.85
843.93	152.93
844.101	51.07
844.271	36.06
844.442	43.63
844.612	46.51
844.783	1.29
844.953	-8.15
845.123	-32.12
845.294	-84.98
845.464	-311.12
845.635	-158.18
845.805	-64.06
845.975	-6.78
846.146	-5.82
846.316	9.01
846.486	24.98
846.656	37.27
846.827	24.64
846.997	21.44
847.167	35.21
847.337	21.51
847.507	-15.02
847.677	-12.38
847.848	42.42
848.018	45.46
848.188	53.14
848.358	40.08
848.528	42.5
848.698	11.24
848.868	-23.34
849.038	-70.85
849.208	33.34
849.378	63.77
849.548	45.19
849.718	24.88
849.887	47.77
850.057	30.61
850.227	13.2
850.397	-18.5
850.567	-59.77
850.737	-194.89
850.906	-849.06
851.076	-495.51
851.246	-101.18
851.415	42.59
851.585	-1.01
851.755	-21.45
851.924	-8.13
852.094	-45.07
852.264	-89.88
852.433	-583.89
852.603	-82.74
852.772	-0.43
852.942	5.23
853.111	-23.12
853.281	32.52
853.45	52.28
853.62	-9.71
853.789	-16.84
853.959	2.62
854.128	-29.63
854.297	-67.55
854.467	-59.38
854.636	-25.55
854.805	9.2
854.975	-16.95
855.144	39.11
855.313	93.53
855.482	-191.42
855.652	-116.64
855.821	-71.88
855.99	-6.85
856.159	8.91
856.328	10.56
856.497	-18.83
856.667	-13.65
856.836	-15.15
857.005	-15.79
857.174	-29.39
857.343	-35.76
857.512	39.85
857.681	-4.79
857.85	-32.02
858.019	-4.91
858.188	6.14
858.356	-24.68
858.525	-42.95
858.694	-26.83
858.863	-98.59
859.032	-52.64
859.201	-9.36
859.369	35.65
859.538	-7.93
859.707	11.81
859.876	-17.84
860.044	-54.22
860.213	21.94
860.382	31.93
860.55	23.53
860.719	51.09
860.888	51.66
861.056	32.17
861.225	16.66
861.393	78.13
861.562	102.17
861.73	58.94
861.899	104.58
862.067	-128.45
862.236	-31.58
862.404	-223.41
862.572	-149.65
862.741	-73.98
862.909	-34.67
863.078	-125.04
863.246	-56.14
863.414	-24.1
863.582	12.5
863.751	-11.65
863.919	8.48
864.087	70.8
864.255	82.5
864.424	-85.36
864.592	75.37
864.76	52.13
864.928	126.2
865.096	34
865.264	111.25
865.432	263.07
865.6	308.38
865.768	32.81
865.936	25.08
866.104	-33.69
866.272	-122.27
866.44	-321.75
866.608	559.92
866.776	331.4
866.944	2165.7
867.112	-310.7
867.28	-125.43
867.448	-52.99
867.615	1.05
867.783	-12.95
867.951	-44.09
868.119	-41.36
868.286	-59.54
868.454	-195.61
868.622	-168.56
868.789	-201.22
868.957	-3630.36
869.125	-2600.66
869.292	-200.06
869.46	-287.27
869.627	-84.28
869.795	-76.87
869.963	-23.34
870.13	4.22
870.298	42.29
870.465	1.49
870.632	28.92
870.8	15.88
870.967	-35.43
871.135	-147.07
871.302	-116.39
871.469	-172.84
871.637	-189.41
871.804	-97.61
871.971	-85.62
872.139	-283.84
872.306	19.53
872.473	-3.7
872.64	-55.9
872.807	62.91
872.975	70.24
873.142	-100.82
873.309	1073.65
873.476	73.09
873.643	96.39
873.81	70.23
873.977	63.07
874.144	65.15
874.311	-61.71
874.478	-75.97
874.645	-106.62
874.812	-21.38
874.979	-26.94
875.146	-17.18
875.313	-27.96
875.48	46.04
875.647	14.36
875.813	-14.97
875.98	6.09
876.147	-20.56
876.314	-105.25
876.481	898.55
876.647	-796.91
876.814	342.62
876.981	-0.48
877.147	29.73
877.314	26.2
877.481	31.31
877.647	17.94
877.814	-3.21
877.98	-55.94
878.147	-18.61
878.314	43.01
878.48	36.13
878.647	30.89
878.813	70.07
878.979	73.94
879.146	18.46
879.312	6.83
879.479	-4.19
879.645	-62.82
879.811	-219.95
879.978	-424.62
880.144	-68.61
880.31	-45.59
880.477	-177.28
880.643	-185.3
880.809	-96.04
880.975	-77.27
881.142	-628.41
881.308	-71.14
881.474	-38.91
881.64	-9.56
881.806	-56.67
881.972	22.22
882.138	73.43
882.304	90.42
882.47	-64.79
882.636	-291.19
882.802	-108.36
882.968	-53.77
883.134	-12.26
883.3	-7.89
883.466	23.74
883.632	28.69
883.798	3.77
883.964	-21.31
884.129	-10.7
884.295	17.25
884.461	6.24
884.627	9.61
884.793	21.09
884.958	42.67
885.124	-33.56
885.29	-123.82
885.455	-179.73
885.621	-73.19
885.787	-129.88
885.952	-53.27
886.118	-8.62
886.283	-14.01
886.449	-62.75
886.614	-96.12
886.78	-190.87
886.945	1088.93
887.111	-514.02
887.276	-189.91
887.442	-219.32
887.607	-103.89
887.773	-108.36
887.938	-127.22
888.103	-241.87
888.269	-154.89
888.434	-331.49
888.599	-109.06
888.764	-23.1
888.93	-17.81
889.095	-38.92
889.26	-45.53
889.425	-10.46
889.59	18.93
889.756	2.99
889.921	12.2
890.086	57.58
890.251	21.54
890.416	-104.63
890.581	-1148.79
890.746	208.3
890.911	457.48
891.076	186.33
891.241	-439.74
891.406	21.47
891.571	-82.05
891.736	-410.67
891.901	-683.41
892.065	644.23
892.23	166.76
892.395	215.7
892.56	221.46
892.725	-242.38
892.889	-1122.56
893.054	-203.86
893.219	-44.21
893.384	-8.72
893.548	-36.1
893.713	-45.04
893.878	-7.13
