Data from Ofra_2a_PS_OGT1K_Reflection_2.txt Node
Date: Tue Jul 20 09:28:29 EDT 2021
User: Adam
Spectrometer: FLMT01687
Trigger mode: 0
Integration Time (sec): 9.450000E-1
Scans to average: 3
Electric dark correction enabled: true
Nonlinearity correction enabled: false
Boxcar width: 3
XAxis mode: Wavelengths
Number of Pixels in Spectrum: 3648
>>>>>Begin Spectral Data<<<<<
179.494	672.78
179.716	395.86
179.937	522.53
180.158	1998.05
180.38	-1009.01
180.601	-170.91
180.823	-79.93
181.044	-55.28
181.265	-128.11
181.486	68.52
181.708	1366.3
181.929	218.72
182.15	434.66
182.372	-30.05
182.593	-37.76
182.814	269.01
183.035	57.95
183.257	31.39
183.478	7.32
183.699	21.91
183.92	17.84
184.141	24.19
184.363	2.38
184.584	3.66
184.805	-1.79
185.026	-39.27
185.247	-24.1
185.468	-11.12
185.689	-6.34
185.91	2.6
186.132	17.31
186.353	8.2
186.574	27.16
186.795	9.14
187.016	10.66
187.237	6.83
187.458	2.73
187.679	-10.08
187.9	7.01
188.121	17.85
188.342	30.68
188.563	35.57
188.784	43.03
189.005	57.23
189.226	49.35
189.447	48.85
189.667	27.62
189.888	30.51
190.109	34.77
190.33	11.11
190.551	4.44
190.772	8.58
190.993	10.24
191.214	9.59
191.434	17.76
191.655	11.26
191.876	20.63
192.097	25.32
192.318	29.75
192.538	41.19
192.759	49.95
192.98	34.04
193.201	43.72
193.421	49.46
193.642	43.63
193.863	31.38
194.083	9.78
194.304	0.11
194.525	21.84
194.745	1.04
194.966	9.27
195.187	12.5
195.407	18.98
195.628	21.8
195.848	22.61
196.069	18.24
196.29	29.95
196.51	28.18
196.731	44.02
196.951	45.14
197.172	43.32
197.392	30.59
197.613	27.29
197.833	21.62
198.054	12.17
198.274	-17.99
198.495	-5.56
198.715	-10.16
198.936	-12.43
199.156	-0.7
199.377	6.68
199.597	13.48
199.817	43.81
200.038	29.11
200.258	33.69
200.479	50.61
200.699	52.51
200.919	38.49
201.14	47.8
201.36	39.47
201.58	37.21
201.801	25.67
202.021	11.49
202.241	10.31
202.461	15
202.682	8.2
202.902	-0.84
203.122	1.52
203.342	21.71
203.563	30.93
203.783	28.2
204.003	32.94
204.223	35.65
204.443	41.53
204.663	47.27
204.884	37.75
205.104	44.61
205.324	62.92
205.544	75.32
205.764	79.74
205.984	84.51
206.204	77.71
206.424	69.47
206.644	56.62
206.864	37.95
207.084	39.85
207.304	33.45
207.525	13.79
207.745	10.39
207.964	8.86
208.184	22.36
208.404	23.34
208.624	-1.16
208.844	-5.12
209.064	3.85
209.284	11.37
209.504	1.04
209.724	-10.11
209.944	-9.12
210.164	17.07
210.384	23.16
210.604	35.21
210.823	27.43
211.043	26.8
211.263	39.06
211.483	35.01
211.703	22.87
211.922	23.82
212.142	30.44
212.362	31.64
212.582	31.77
212.801	24.11
213.021	25.34
213.241	36.58
213.461	42.25
213.68	40.43
213.9	44.89
214.12	42.01
214.339	44.88
214.559	49.94
214.779	35.74
214.998	36.86
215.218	37.49
215.438	36.28
215.657	36.12
215.877	25.35
216.096	20.35
216.316	28.41
216.535	15.87
216.755	-2.11
216.974	1.39
217.194	6.16
217.413	19.89
217.633	24.27
217.852	14.59
218.072	20.37
218.291	44.01
218.511	30.13
218.73	25.71
218.95	22.15
219.169	25.34
219.389	26.66
219.608	32.66
219.827	16.28
220.047	27.41
220.266	23.17
220.485	29.07
220.705	15.42
220.924	24.91
221.143	22.36
221.363	29.29
221.582	30.27
221.801	34
222.021	27.65
222.24	41.79
222.459	33.86
222.678	27.87
222.897	6.24
223.117	1.27
223.336	4.54
223.555	-15.44
223.774	-20.53
223.993	-9.71
224.213	2.18
224.432	18.3
224.651	2.98
224.87	4.43
225.089	23.84
225.308	36.23
225.527	35.18
225.746	25.85
225.965	12.62
226.184	20.8
226.404	8.08
226.623	10.97
226.842	0.46
227.061	-0.73
227.28	15.58
227.499	24.77
227.718	23.54
227.936	24.91
228.155	24.73
228.374	30.33
228.593	29.97
228.812	19.46
229.031	13.54
229.25	13.22
229.469	16.8
229.688	19.95
229.907	3.22
230.125	11.2
230.344	13.46
230.563	25.99
230.782	33.03
231.001	35.14
231.22	20.38
231.438	34.89
231.657	30.37
231.876	35.87
232.095	25.41
232.313	20.75
232.532	22.98
232.751	35.35
232.969	30.29
233.188	31.55
233.407	25.75
233.625	20.76
233.844	22.96
234.063	22.13
234.281	18.51
234.5	18.57
234.719	7.7
234.937	16.52
235.156	19.36
235.374	15.19
235.593	14.15
235.811	13.23
236.03	12.54
236.249	34.67
236.467	30.71
236.686	44.41
236.904	42.12
237.123	46.02
237.341	46.83
237.559	45.44
237.778	43.97
237.996	41.35
238.215	30.25
238.433	30.14
238.652	22.96
238.87	22.01
239.088	14.17
239.307	10.34
239.525	-0.56
239.743	-6.11
239.962	-2.53
240.18	11.81
240.398	16.65
240.617	26.5
240.835	27.94
241.053	34.63
241.271	46.18
241.49	35.25
241.708	21.97
241.926	4.86
242.144	4.23
242.363	4.96
242.581	3.86
242.799	-6.48
243.017	2.09
243.235	-4.72
243.453	0.53
243.672	9.46
243.89	8.62
244.108	18.4
244.326	14.53
244.544	26.49
244.762	38.88
244.98	37.94
245.198	19.34
245.416	23.59
245.634	21.2
245.852	39.9
246.07	24.71
246.288	17
246.506	19.66
246.724	25.98
246.942	16.99
247.16	17.7
247.378	-2.84
247.596	-1.1
247.814	-4.18
248.032	-9.94
248.25	-16.49
248.468	-7.83
248.685	-6.6
248.903	-2.66
249.121	3.19
249.339	3.47
249.557	10.37
249.775	7.9
249.992	0.3
250.21	-3.41
250.428	-0.96
250.646	1.85
250.863	3.93
251.081	0.6
251.299	13.16
251.517	25.6
251.734	21
251.952	21.95
252.17	-2.63
252.387	13.18
252.605	-0.57
252.823	-20.24
253.04	-33.17
253.258	-31.91
253.475	-11.09
253.693	7.54
253.911	-3.61
254.128	5.52
254.346	9.38
254.563	7.26
254.781	3.61
254.998	-2.93
255.216	-6.69
255.433	-11.07
255.651	-6.79
255.868	2.5
256.086	10.97
256.303	17.77
256.521	5.37
256.738	0.69
256.956	-2.79
257.173	-1.45
257.39	-7.31
257.608	-0.24
257.825	4.95
258.043	15.41
258.26	21.3
258.477	32.89
258.695	34.34
258.912	49.53
259.129	44.63
259.346	44.36
259.564	35.18
259.781	42.73
259.998	32.78
260.216	37.42
260.433	30.25
260.65	33.85
260.867	19.36
261.084	31.91
261.302	19.65
261.519	27.73
261.736	17.69
261.953	28.52
262.17	21.24
262.387	19.85
262.604	14.65
262.822	16.99
263.039	10.53
263.256	13.5
263.473	0.95
263.69	-1.96
263.907	-1.42
264.124	-2.62
264.341	10.91
264.558	13.97
264.775	16.1
264.992	16.54
265.209	27.04
265.426	33.26
265.643	38.64
265.86	25.63
266.077	23.51
266.294	22.33
266.51	20.06
266.727	4.77
266.944	1.28
267.161	-15.43
267.378	-7.76
267.595	-6.99
267.812	-11.02
268.028	-4.81
268.245	3.7
268.462	-2.48
268.679	0.83
268.896	-4.29
269.112	11.8
269.329	21.5
269.546	29.61
269.763	29.55
269.979	26.99
270.196	31.92
270.413	29.63
270.629	21.91
270.846	24.6
271.063	23.84
271.279	22.58
271.496	25.52
271.712	28.05
271.929	31.62
272.146	29.26
272.362	16.35
272.579	13.27
272.795	9.48
273.012	8.41
273.228	9.74
273.445	10.2
273.661	5.16
273.878	9.24
274.094	10.26
274.311	17.91
274.527	21.51
274.744	24.13
274.96	17.35
275.177	35.15
275.393	37.76
275.609	35.96
275.826	37.3
276.042	48.85
276.259	46.77
276.475	49.23
276.691	44.08
276.908	42.85
277.124	39.15
277.34	39.06
277.557	31.16
277.773	20.73
277.989	26.47
278.205	16.29
278.422	12.93
278.638	23.16
278.854	1.39
279.07	-13.39
279.286	0.48
279.503	-4.57
279.719	13.22
279.935	12.7
280.151	11.99
280.367	29.38
280.583	39.99
280.799	40.5
281.016	44.98
281.232	33.6
281.448	31.89
281.664	37.87
281.88	32.78
282.096	32.84
282.312	19.43
282.528	10
282.744	8.27
282.96	10.9
283.176	-1.32
283.392	11.05
283.608	13.5
283.824	15.1
284.04	23.23
284.256	32.4
284.471	35.31
284.687	32.84
284.903	17.18
285.119	2.53
285.335	9.58
285.551	9.52
285.767	5.9
285.982	3.29
286.198	6.47
286.414	26.82
286.63	35.61
286.846	30.98
287.061	26.1
287.277	28.88
287.493	22.55
287.709	20.44
287.924	15.81
288.14	13.62
288.356	7.91
288.571	-6.67
288.787	-9.19
289.003	-3.69
289.218	1.8
289.434	-5.96
289.65	-0.79
289.865	10.16
290.081	20.56
290.296	20.98
290.512	27.34
290.727	29.01
290.943	16.57
291.159	9.89
291.374	11.78
291.59	12.62
291.805	6.25
292.021	-9.57
292.236	-11
292.451	6.9
292.667	9.38
292.882	-1.84
293.098	-7.36
293.313	-4.68
293.529	6.79
293.744	9.74
293.959	12.59
294.175	13.82
294.39	29.67
294.605	35.51
294.821	34.9
295.036	25.47
295.251	25.77
295.467	16.79
295.682	20.59
295.897	17.92
296.112	18.21
296.328	20.96
296.543	21.56
296.758	19.77
296.973	24.47
297.188	20.95
297.404	31.4
297.619	23.46
297.834	25.8
298.049	28.17
298.264	23.38
298.479	11.29
298.694	12.13
298.909	-0.1
299.125	7.03
299.34	2.28
299.555	7.51
299.77	10.71
299.985	8.86
300.2	10.88
300.415	14.48
300.63	6.91
300.845	7.83
301.06	4.25
301.275	9.12
301.49	20.72
301.704	20.01
301.919	15.5
302.134	14.92
302.349	12.6
302.564	8.82
302.779	7.58
302.994	11.72
303.209	-0.66
303.423	3.56
303.638	20.46
303.853	19.55
304.068	29.58
304.283	22.18
304.497	15.91
304.712	26.15
304.927	20.01
305.142	21.09
305.356	22
305.571	21.42
305.786	21.89
306	24.62
306.215	19.24
306.43	26.83
306.644	18.34
306.859	22.58
307.074	16.23
307.288	19.92
307.503	17.97
307.717	18.89
307.932	13.26
308.147	16.43
308.361	13.03
308.576	17.09
308.79	17.32
309.005	22.02
309.219	21.17
309.434	22.95
309.648	13.5
309.863	18.07
310.077	24.9
310.292	29.72
310.506	35.37
310.72	40.37
310.935	35.7
311.149	41.96
311.364	36.99
311.578	25.11
311.792	12.99
312.007	2.64
312.221	6.86
312.435	9.81
312.649	11.54
312.864	11.28
313.078	24.93
313.292	37.22
313.507	37.76
313.721	27.71
313.935	29.17
314.149	19.7
314.363	21.99
314.578	17.31
314.792	11.77
315.006	18.05
315.22	22.7
315.434	10.53
315.648	-0.19
315.862	7.19
316.077	6.68
316.291	9.05
316.505	-3.78
316.719	-6.62
316.933	8.39
317.147	19.46
317.361	18.74
317.575	29.02
317.789	23.74
318.003	33.58
318.217	27.57
318.431	33.19
318.645	32.76
318.859	18.47
319.073	13.44
319.287	22.52
319.5	20.64
319.714	26.46
319.928	25.67
320.142	27.86
320.356	42.36
320.57	34.23
320.784	26.52
320.997	26.4
321.211	24.08
321.425	14.47
321.639	11.39
321.853	2.64
322.066	12.29
322.28	8.6
322.494	4.93
322.707	0.93
322.921	9.85
323.135	19.79
323.349	20.5
323.562	19.56
323.776	21.28
323.989	16.53
324.203	21.32
324.417	15.33
324.63	0.06
324.844	-6.67
325.057	-12.76
325.271	-27.76
325.485	-16.68
325.698	-19.98
325.912	-7.46
326.125	3
326.339	12.23
326.552	27.33
326.766	43.75
326.979	41.98
327.193	43.59
327.406	33.91
327.619	14.24
327.833	7.04
328.046	-1.62
328.26	-10.72
328.473	-9.63
328.686	-6.71
328.9	-10.74
329.113	9.29
329.326	18.5
329.54	20.3
329.753	26.58
329.966	27.05
330.179	34.21
330.393	34.1
330.606	30.43
330.819	26.77
331.032	25.43
331.246	20.63
331.459	21.39
331.672	11.1
331.885	8.53
332.098	8.21
332.311	-4.18
332.525	5.74
332.738	4.15
332.951	7.9
333.164	10.11
333.377	13.32
333.59	23.95
333.803	34.57
334.016	39.19
334.229	37.89
334.442	32.18
334.655	47.24
334.868	54.08
335.081	55.8
335.294	54.72
335.507	49.24
335.72	39.79
335.933	44.07
336.146	34.5
336.359	29.63
336.572	15.1
336.785	19.82
336.997	14.69
337.21	22.51
337.423	16.81
337.636	13.29
337.849	11.32
338.062	12.39
338.274	12.26
338.487	12.7
338.7	15.99
338.913	18.23
339.125	22.31
339.338	23.17
339.551	32.54
339.763	29.43
339.976	30.03
340.189	31.25
340.402	28.13
340.614	31.51
340.827	27
341.039	24.37
341.252	20.26
341.465	19.56
341.677	13.05
341.89	8.2
342.102	0.54
342.315	7.61
342.527	3.7
342.74	6.34
342.952	9.59
343.165	18.18
343.377	24.69
343.59	24.67
343.802	26.71
344.015	28.86
344.227	27.76
344.44	21.43
344.652	16.81
344.864	16.16
345.077	13.2
345.289	8.06
345.502	7.32
345.714	-6.51
345.926	-2.21
346.139	-0.26
346.351	-7.25
346.563	3.75
346.775	5.84
346.988	10.41
347.2	21.43
347.412	17.01
347.624	20.6
347.837	22.81
348.049	17.29
348.261	17.66
348.473	8.83
348.685	16.95
348.897	18.05
349.11	22.5
349.322	14.28
349.534	15.57
349.746	16.85
349.958	19.72
350.17	16.33
350.382	16.69
350.594	3.76
350.806	20.19
351.018	24.29
351.23	29.04
351.442	30.08
351.654	27.74
351.866	32.07
352.078	31.32
352.29	27.33
352.502	23.91
352.714	18.41
352.926	12.22
353.138	15.41
353.35	10.45
353.561	5.76
353.773	7.62
353.985	9.34
354.197	4.31
354.409	11.96
354.621	5.44
354.832	5.18
355.044	14.89
355.256	11.78
355.468	10.44
355.679	17.87
355.891	15.86
356.103	21.13
356.314	21.4
356.526	16.61
356.738	10.77
356.949	9.7
357.161	1.04
357.373	1.43
357.584	4.8
357.796	-1.07
358.008	10.78
358.219	19.75
358.431	21.43
358.642	21.58
358.854	21.7
359.065	23.3
359.277	29.43
359.488	26.33
359.7	29.32
359.911	35.41
360.123	39.97
360.334	39.9
360.546	31.89
360.757	32.23
360.969	37.32
361.18	36.36
361.391	29.25
361.603	30.07
361.814	22.32
362.025	22.5
362.237	25.81
362.448	22.58
362.659	11.24
362.871	12
363.082	6.98
363.293	14.77
363.504	17.49
363.716	10.99
363.927	7.32
364.138	18.04
364.349	21.95
364.56	26.59
364.772	25.98
364.983	19.57
365.194	17.42
365.405	19.34
365.616	12.02
365.827	3.06
366.038	11.37
366.25	12.16
366.461	24.72
366.672	28
366.883	28.5
367.094	25.51
367.305	19.1
367.516	9.24
367.727	12.77
367.938	10.67
368.149	15.52
368.36	12.82
368.571	16.35
368.781	24.32
368.992	22.3
369.203	18.54
369.414	13.11
369.625	10.45
369.836	17.12
370.047	15.63
370.258	12.21
370.468	16.36
370.679	15.81
370.89	27.11
371.101	23.43
371.312	12.68
371.522	14.47
371.733	11.79
371.944	11.27
372.155	7.07
372.365	-3.55
372.576	2.27
372.787	1.45
372.997	-0.7
373.208	9.77
373.419	7.2
373.629	20.71
373.84	22.47
374.05	22.87
374.261	23.98
374.472	27.45
374.682	15.88
374.893	13.61
375.103	8.34
375.314	6.17
375.524	3.79
375.735	8.17
375.945	9.3
376.156	23.46
376.366	26.34
376.577	20.84
376.787	23
376.997	29
377.208	27.64
377.418	18.54
377.629	13.56
377.839	20.05
378.049	27.54
378.26	30.75
378.47	28.74
378.68	26.02
378.89	25.43
379.101	14.79
379.311	8.9
379.521	5.65
379.732	-4.1
379.942	-6.99
380.152	3.36
380.362	9.82
380.572	15.57
380.783	14.82
380.993	17.53
381.203	21.15
381.413	24.73
381.623	20.85
381.833	22.99
382.043	22.18
382.253	24.03
382.463	22.34
382.674	27.47
382.884	17.27
383.094	14.65
383.304	10.2
383.514	14.14
383.724	17.79
383.934	15.84
384.144	11.96
384.353	17.39
384.563	15.12
384.773	15.36
384.983	11.17
385.193	9.67
385.403	12.73
385.613	6.84
385.823	6.08
386.033	7.98
386.242	7.58
386.452	9.13
386.662	6.83
386.872	3.32
387.082	7.63
387.291	7.45
387.501	8.84
387.711	10.64
387.921	10.19
388.13	8.59
388.34	5.96
388.55	4.25
388.759	3.51
388.969	-0.36
389.179	0.06
389.388	1.2
389.598	1.39
389.807	4.77
390.017	6.8
390.227	7.45
390.436	7.61
390.646	7.43
390.855	5.81
391.065	5.72
391.274	2.79
391.484	3.35
391.693	4.27
391.903	5.32
392.112	4.88
392.322	6.06
392.531	6.32
392.74	6.77
392.95	5.56
393.159	5.79
393.369	6.61
393.578	6.6
393.787	6.06
393.997	7.16
394.206	7.58
394.415	7.46
394.625	5.86
394.834	4.41
395.043	4.69
395.252	5.45
395.462	4.93
395.671	5.03
395.88	5.48
396.089	6.51
396.298	7.08
396.508	7.12
396.717	6.86
396.926	6.45
397.135	5.88
397.344	5.87
397.553	6.02
397.762	5.68
397.971	5.27
398.181	5
398.39	5.3
398.599	5.97
398.808	6.01
399.017	5.98
399.226	6.23
399.435	6.42
399.644	6.33
399.853	6.29
400.062	6.03
400.27	6.07
400.479	6.11
400.688	6.11
400.897	6.26
401.106	6.41
401.315	6.28
401.524	6.36
401.733	6.45
401.941	6.18
402.15	6.03
402.359	5.94
402.568	5.91
402.777	5.87
402.985	5.81
403.194	5.66
403.403	5.48
403.612	5.43
403.82	5.5
404.029	5.41
404.238	5.49
404.446	5.53
404.655	5.38
404.864	5.55
405.072	5.65
405.281	5.46
405.489	5.55
405.698	5.5
405.906	5.35
406.115	5.51
406.324	5.45
406.532	5.46
406.741	5.63
406.949	5.53
407.158	5.56
407.366	5.72
407.574	5.74
407.783	5.65
407.991	5.55
408.2	5.41
408.408	5.44
408.617	5.35
408.825	5.25
409.033	5.12
409.242	5.15
409.45	5.13
409.658	5.14
409.867	5.17
410.075	5.22
410.283	5.2
410.491	5.18
410.7	5.28
410.908	5.31
411.116	5.23
411.324	5.18
411.533	5.09
411.741	5.09
411.949	5.17
412.157	5.16
412.365	5.24
412.573	5.32
412.781	5.37
412.99	5.46
413.198	5.45
413.406	5.4
413.614	5.36
413.822	5.27
414.03	5.19
414.238	5.19
414.446	5.08
414.654	5.1
414.862	5.08
415.07	5.17
415.278	5.09
415.486	5.17
415.694	5.1
415.902	5.14
416.109	5.11
416.317	5.06
416.525	5.01
416.733	5.13
416.941	5.03
417.149	5.09
417.357	5.12
417.564	5.1
417.772	5.1
417.98	5.07
418.188	4.85
418.395	4.92
418.603	4.82
418.811	4.72
419.019	4.78
419.226	4.83
419.434	4.7
419.642	4.69
419.849	4.57
420.057	4.62
420.265	4.67
420.472	4.59
420.68	4.5
420.887	4.59
421.095	4.7
421.302	4.86
421.51	4.86
421.717	4.88
421.925	4.76
422.132	4.73
422.34	4.72
422.547	4.62
422.755	4.53
422.962	4.33
423.17	4.28
423.377	4.48
423.585	4.54
423.792	4.54
423.999	4.57
424.207	4.48
424.414	4.75
424.621	4.73
424.829	4.6
425.036	4.55
425.243	4.58
425.451	4.57
425.658	4.66
425.865	4.47
426.072	4.5
426.28	4.53
426.487	4.52
426.694	4.39
426.901	4.29
427.108	4.23
427.315	4.25
427.523	4.26
427.73	4.33
427.937	4.43
428.144	4.49
428.351	4.59
428.558	4.63
428.765	4.61
428.972	4.6
429.179	4.51
429.386	4.47
429.593	4.41
429.8	4.49
430.007	4.54
430.214	4.59
430.421	4.53
430.628	4.49
430.835	4.44
431.042	4.56
431.249	4.49
431.456	4.5
431.662	4.55
431.869	4.66
432.076	4.68
432.283	4.7
432.49	4.7
432.697	4.75
432.903	4.78
433.11	4.77
433.317	4.77
433.524	4.75
433.73	4.8
433.937	4.81
434.144	4.9
434.35	4.86
434.557	4.86
434.764	4.84
434.97	4.95
435.177	4.94
435.384	5.03
435.59	4.97
435.797	4.99
436.003	4.95
436.21	4.95
436.416	4.92
436.623	4.97
436.829	4.86
437.036	4.82
437.242	4.84
437.449	4.89
437.655	4.89
437.862	4.91
438.068	4.94
438.275	5.02
438.481	5.12
438.687	5.17
438.894	5.18
439.1	5.25
439.307	5.23
439.513	5.17
439.719	5.13
439.926	5.09
440.132	5.1
440.338	5.12
440.544	5.05
440.751	5.07
440.957	5.11
441.163	5.16
441.369	5.19
441.575	5.16
441.782	5.19
441.988	5.25
442.194	5.34
442.4	5.32
442.606	5.32
442.812	5.33
443.018	5.34
443.224	5.33
443.431	5.32
443.637	5.26
443.843	5.29
444.049	5.28
444.255	5.24
444.461	5.26
444.667	5.27
444.873	5.27
445.079	5.3
445.284	5.33
445.49	5.36
445.696	5.39
445.902	5.44
446.108	5.5
446.314	5.54
446.52	5.54
446.726	5.59
446.931	5.59
447.137	5.68
447.343	5.7
447.549	5.63
447.755	5.59
447.96	5.59
448.166	5.6
448.372	5.6
448.578	5.51
448.783	5.47
448.989	5.55
449.195	5.63
449.4	5.65
449.606	5.59
449.812	5.6
450.017	5.65
450.223	5.66
450.428	5.64
450.634	5.64
450.84	5.67
451.045	5.68
451.251	5.71
451.456	5.67
451.662	5.62
451.867	5.63
452.073	5.58
452.278	5.54
452.483	5.53
452.689	5.56
452.894	5.58
453.1	5.6
453.305	5.56
453.51	5.61
453.716	5.66
453.921	5.67
454.127	5.69
454.332	5.7
454.537	5.76
454.742	5.77
454.948	5.77
455.153	5.77
455.358	5.83
455.563	5.84
455.769	5.81
455.974	5.73
456.179	5.69
456.384	5.72
456.589	5.71
456.795	5.67
457	5.67
457.205	5.72
457.41	5.74
457.615	5.77
457.82	5.77
458.025	5.83
458.23	5.8
458.435	5.76
458.64	5.81
458.845	5.85
459.05	5.89
459.255	5.86
459.46	5.84
459.665	5.9
459.87	5.93
460.075	5.9
460.28	5.88
460.485	5.91
460.69	5.88
460.895	5.87
461.099	5.87
461.304	5.86
461.509	5.81
461.714	5.84
461.919	5.84
462.123	5.89
462.328	5.89
462.533	5.91
462.738	5.9
462.942	5.97
463.147	5.97
463.352	6.03
463.556	6.05
463.761	6.08
463.966	6.09
464.17	6.18
464.375	6.18
464.58	6.17
464.784	6.15
464.989	6.15
465.193	6.18
465.398	6.16
465.602	6.11
465.807	6.14
466.011	6.2
466.216	6.24
466.42	6.27
466.625	6.29
466.829	6.32
467.034	6.33
467.238	6.38
467.443	6.42
467.647	6.4
467.851	6.4
468.056	6.41
468.26	6.37
468.464	6.41
468.669	6.43
468.873	6.39
469.077	6.38
469.282	6.42
469.486	6.42
469.69	6.47
469.894	6.48
470.099	6.43
470.303	6.5
470.507	6.53
470.711	6.55
470.915	6.55
471.119	6.63
471.324	6.62
471.528	6.65
471.732	6.63
471.936	6.67
472.14	6.7
472.344	6.71
472.548	6.68
472.752	6.73
472.956	6.78
473.16	6.79
473.364	6.78
473.568	6.72
473.772	6.76
473.976	6.8
474.18	6.81
474.384	6.78
474.588	6.79
474.792	6.79
474.995	6.9
475.199	6.88
475.403	6.85
475.607	6.86
475.811	6.91
476.015	6.99
476.218	7.04
476.422	7.05
476.626	7.08
476.83	7.13
477.033	7.2
477.237	7.21
477.441	7.18
477.644	7.19
477.848	7.17
478.052	7.18
478.255	7.18
478.459	7.18
478.663	7.16
478.866	7.18
479.07	7.19
479.273	7.2
479.477	7.22
479.681	7.28
479.884	7.25
480.088	7.3
480.291	7.32
480.495	7.36
480.698	7.39
480.901	7.41
481.105	7.42
481.308	7.39
481.512	7.38
481.715	7.43
481.919	7.42
482.122	7.43
482.325	7.45
482.529	7.48
482.732	7.57
482.935	7.57
483.138	7.55
483.342	7.54
483.545	7.55
483.748	7.57
483.952	7.55
484.155	7.55
484.358	7.54
484.561	7.52
484.764	7.57
484.967	7.6
485.171	7.6
485.374	7.63
485.577	7.64
485.78	7.67
485.983	7.68
486.186	7.65
486.389	7.61
486.592	7.59
486.795	7.55
486.998	7.54
487.201	7.54
487.404	7.56
487.607	7.52
487.81	7.58
488.013	7.6
488.216	7.63
488.419	7.65
488.622	7.63
488.825	7.68
489.028	7.73
489.231	7.73
489.433	7.7
489.636	7.68
489.839	7.69
490.042	7.71
490.245	7.64
490.447	7.64
490.65	7.63
490.853	7.64
491.056	7.65
491.258	7.64
491.461	7.63
491.664	7.63
491.866	7.62
492.069	7.64
492.272	7.64
492.474	7.62
492.677	7.57
492.879	7.58
493.082	7.59
493.285	7.61
493.487	7.59
493.69	7.6
493.892	7.64
494.095	7.65
494.297	7.66
494.5	7.71
494.702	7.67
494.905	7.71
495.107	7.71
495.309	7.65
495.512	7.69
495.714	7.72
495.917	7.71
496.119	7.74
496.321	7.74
496.524	7.73
496.726	7.79
496.928	7.81
497.13	7.77
497.333	7.77
497.535	7.79
497.737	7.77
497.939	7.79
498.142	7.82
498.344	7.78
498.546	7.86
498.748	7.87
498.95	7.86
499.152	7.88
499.355	7.91
499.557	7.92
499.759	8.01
499.961	8.02
500.163	8.07
500.365	8.1
500.567	8.13
500.769	8.18
500.971	8.18
501.173	8.14
501.375	8.12
501.577	8.11
501.779	8.11
501.981	8.12
502.183	8.04
502.385	8.04
502.587	8.06
502.788	8.04
502.99	8.07
503.192	8.09
503.394	8.09
503.596	8.17
503.798	8.23
503.999	8.26
504.201	8.3
504.403	8.32
504.605	8.35
504.806	8.35
505.008	8.37
505.21	8.33
505.411	8.37
505.613	8.38
505.815	8.41
506.016	8.42
506.218	8.45
506.42	8.48
506.621	8.5
506.823	8.48
507.024	8.48
507.226	8.49
507.427	8.52
507.629	8.54
507.83	8.51
508.032	8.54
508.233	8.57
508.435	8.57
508.636	8.59
508.838	8.63
509.039	8.66
509.24	8.71
509.442	8.67
509.643	8.67
509.845	8.72
510.046	8.73
510.247	8.74
510.448	8.75
510.65	8.77
510.851	8.85
511.052	8.87
511.254	8.86
511.455	8.88
511.656	8.86
511.857	8.88
512.058	8.92
512.26	8.92
512.461	8.97
512.662	9
512.863	8.99
513.064	9
513.265	9.01
513.466	9.04
513.667	9.04
513.868	9.02
514.069	9.01
514.27	9.05
514.471	9.11
514.672	9.14
514.873	9.14
515.074	9.16
515.275	9.17
515.476	9.19
515.677	9.22
515.878	9.22
516.079	9.24
516.28	9.22
516.481	9.2
516.682	9.25
516.882	9.28
517.083	9.3
517.284	9.27
517.485	9.28
517.686	9.29
517.886	9.3
518.087	9.31
518.288	9.29
518.488	9.27
518.689	9.31
518.89	9.34
519.091	9.36
519.291	9.38
519.492	9.36
519.692	9.4
519.893	9.44
520.094	9.46
520.294	9.43
520.495	9.43
520.695	9.46
520.896	9.47
521.096	9.48
521.297	9.47
521.497	9.44
521.698	9.45
521.898	9.48
522.099	9.49
522.299	9.5
522.499	9.47
522.7	9.51
522.9	9.5
523.101	9.53
523.301	9.52
523.501	9.54
523.702	9.56
523.902	9.58
524.102	9.58
524.302	9.59
524.503	9.58
524.703	9.63
524.903	9.63
525.103	9.65
525.304	9.67
525.504	9.65
525.704	9.69
525.904	9.71
526.104	9.72
526.304	9.73
526.504	9.68
526.705	9.68
526.905	9.73
527.105	9.71
527.305	9.68
527.505	9.71
527.705	9.7
527.905	9.74
528.105	9.75
528.305	9.73
528.505	9.76
528.705	9.81
528.905	9.75
529.105	9.79
529.304	9.82
529.504	9.8
529.704	9.82
529.904	9.85
530.104	9.81
530.304	9.88
530.503	9.86
530.703	9.88
530.903	9.94
531.103	9.97
531.303	9.99
531.502	10.01
531.702	10
531.902	10.02
532.101	10.01
532.301	10.01
532.501	9.99
532.7	9.97
532.9	10.01
533.1	10.01
533.299	10.03
533.499	10.04
533.698	10.09
533.898	10.11
534.097	10.13
534.297	10.12
534.496	10.13
534.696	10.16
534.895	10.2
535.095	10.18
535.294	10.21
535.494	10.26
535.693	10.27
535.892	10.28
536.092	10.25
536.291	10.24
536.491	10.25
536.69	10.27
536.889	10.27
537.088	10.28
537.288	10.33
537.487	10.37
537.686	10.4
537.886	10.43
538.085	10.46
538.284	10.47
538.483	10.53
538.682	10.57
538.882	10.61
539.081	10.65
539.28	10.66
539.479	10.66
539.678	10.71
539.877	10.7
540.076	10.7
540.275	10.73
540.474	10.7
540.673	10.75
540.872	10.83
541.071	10.86
541.27	10.88
541.469	10.9
541.668	10.92
541.867	10.98
542.066	10.99
542.265	10.99
542.464	10.97
542.663	11.08
542.862	11.12
543.06	11.16
543.259	11.2
543.458	11.23
543.657	11.26
543.856	11.32
544.054	11.32
544.253	11.36
544.452	11.33
544.651	11.37
544.849	11.37
545.048	11.38
545.247	11.41
545.445	11.39
545.644	11.41
545.843	11.48
546.041	11.54
546.24	11.61
546.438	11.67
546.637	11.69
546.836	11.75
547.034	11.78
547.233	11.84
547.431	11.81
547.63	11.86
547.828	11.9
548.027	11.94
548.225	12.01
548.423	12.02
548.622	12.07
548.82	12.16
549.019	12.21
549.217	12.27
549.415	12.32
549.614	12.33
549.812	12.4
550.01	12.4
550.209	12.44
550.407	12.51
550.605	12.56
550.803	12.65
551.002	12.71
551.2	12.77
551.398	12.82
551.596	12.88
551.794	12.92
551.993	12.94
552.191	13.01
552.389	13.06
552.587	13.1
552.785	13.2
552.983	13.23
553.181	13.26
553.379	13.32
553.577	13.35
553.775	13.43
553.973	13.51
554.171	13.57
554.369	13.67
554.567	13.73
554.765	13.74
554.963	13.81
555.161	13.85
555.359	13.92
555.557	14
555.755	14.04
555.952	14.17
556.15	14.3
556.348	14.4
556.546	14.51
556.744	14.58
556.941	14.63
557.139	14.72
557.337	14.76
557.535	14.81
557.732	14.88
557.93	14.94
558.128	15
558.325	15.09
558.523	15.14
558.721	15.23
558.918	15.34
559.116	15.39
559.313	15.46
559.511	15.55
559.708	15.61
559.906	15.72
560.104	15.8
560.301	15.83
560.498	15.95
560.696	16.06
560.893	16.12
561.091	16.22
561.288	16.26
561.486	16.36
561.683	16.42
561.88	16.45
562.078	16.48
562.275	16.59
562.473	16.66
562.67	16.8
562.867	16.87
563.064	17.01
563.262	17.14
563.459	17.26
563.656	17.35
563.853	17.42
564.051	17.44
564.248	17.48
564.445	17.54
564.642	17.62
564.839	17.71
565.036	17.78
565.234	17.88
565.431	17.98
565.628	18.13
565.825	18.24
566.022	18.3
566.219	18.37
566.416	18.49
566.613	18.62
566.81	18.69
567.007	18.77
567.204	18.79
567.401	18.86
567.598	18.94
567.795	18.99
567.991	19.03
568.188	19.16
568.385	19.23
568.582	19.37
568.779	19.49
568.976	19.57
569.172	19.64
569.369	19.7
569.566	19.7
569.763	19.74
569.96	19.82
570.156	19.83
570.353	19.87
570.55	19.96
570.746	20.07
570.943	20.19
571.14	20.23
571.336	20.27
571.533	20.34
571.729	20.42
571.926	20.46
572.123	20.46
572.319	20.53
572.516	20.6
572.712	20.65
572.909	20.75
573.105	20.79
573.302	20.83
573.498	20.92
573.695	20.93
573.891	20.98
574.087	21.06
574.284	21.07
574.48	21.1
574.677	21.14
574.873	21.17
575.069	21.25
575.266	21.29
575.462	21.3
575.658	21.38
575.854	21.44
576.051	21.49
576.247	21.5
576.443	21.53
576.639	21.53
576.835	21.57
577.032	21.53
577.228	21.55
577.424	21.62
577.62	21.68
577.816	21.67
578.012	21.67
578.208	21.67
578.404	21.77
578.6	21.76
578.796	21.73
578.993	21.68
579.189	21.71
579.384	21.72
579.58	21.74
579.776	21.72
579.972	21.76
580.168	21.75
580.364	21.81
580.56	21.76
580.756	21.83
580.952	21.82
581.148	21.79
581.343	21.79
581.539	21.8
581.735	21.83
581.931	21.87
582.127	21.81
582.322	21.83
582.518	21.81
582.714	21.75
582.909	21.72
583.105	21.67
583.301	21.63
583.496	21.59
583.692	21.53
583.888	21.48
584.083	21.52
584.279	21.56
584.474	21.56
584.67	21.54
584.866	21.58
585.061	21.6
585.257	21.59
585.452	21.56
585.648	21.52
585.843	21.51
586.039	21.48
586.234	21.43
586.429	21.39
586.625	21.42
586.82	21.37
587.015	21.35
587.211	21.32
587.406	21.38
587.601	21.41
587.797	21.41
587.992	21.41
588.187	21.47
588.383	21.49
588.578	21.5
588.773	21.49
588.968	21.52
589.163	21.55
589.359	21.54
589.554	21.51
589.749	21.48
589.944	21.54
590.139	21.54
590.334	21.5
590.529	21.55
590.724	21.57
590.919	21.66
591.114	21.71
591.309	21.7
591.504	21.7
591.699	21.75
591.894	21.76
592.089	21.77
592.284	21.75
592.479	21.8
592.674	21.83
592.869	21.92
593.064	21.97
593.259	22
593.454	22.06
593.648	22.09
593.843	22.13
594.038	22.16
594.233	22.16
594.428	22.17
594.622	22.21
594.817	22.27
595.012	22.32
595.206	22.38
595.401	22.39
595.596	22.46
595.79	22.53
595.985	22.57
596.18	22.63
596.374	22.68
596.569	22.76
596.763	22.93
596.958	22.96
597.153	23.04
597.347	23.09
597.542	23.13
597.736	23.24
597.931	23.28
598.125	23.29
598.319	23.4
598.514	23.46
598.708	23.54
598.903	23.61
599.097	23.64
599.291	23.72
599.486	23.76
599.68	23.7
599.874	23.78
600.069	23.79
600.263	23.86
600.457	23.88
600.651	23.9
600.846	23.92
601.04	24.01
601.234	24.05
601.428	24.06
601.622	24.06
601.817	24.16
602.011	24.19
602.205	24.23
602.399	24.27
602.593	24.27
602.787	24.32
602.981	24.32
603.175	24.23
603.369	24.2
603.563	24.22
603.757	24.21
603.951	24.2
604.145	24.2
604.339	24.23
604.533	24.22
604.727	24.22
604.921	24.2
605.115	24.17
605.309	24.14
605.502	24.15
605.696	24.1
605.89	24.13
606.084	24.12
606.278	24.1
606.471	24.09
606.665	24.04
606.859	23.98
607.053	23.92
607.246	23.83
607.44	23.76
607.634	23.66
607.827	23.51
608.021	23.46
608.214	23.41
608.408	23.37
608.602	23.36
608.795	23.27
608.989	23.3
609.182	23.36
609.376	23.29
609.569	23.16
609.763	23.15
609.956	23.03
610.15	22.99
610.343	22.88
610.537	22.8
610.73	22.82
610.923	22.8
611.117	22.66
611.31	22.63
611.504	22.6
611.697	22.57
611.89	22.47
612.083	22.37
612.277	22.31
612.47	22.28
612.663	22.23
612.856	22.15
613.05	22.07
613.243	22.02
613.436	21.93
613.629	21.91
613.822	21.86
614.015	21.82
614.209	21.78
614.402	21.72
614.595	21.65
614.788	21.59
614.981	21.48
615.174	21.43
615.367	21.36
615.56	21.31
615.753	21.27
615.946	21.26
616.139	21.2
616.332	21.09
616.525	21.09
616.718	21.02
616.911	20.96
617.103	20.89
617.296	20.79
617.489	20.81
617.682	20.89
617.875	20.77
618.067	20.7
618.26	20.66
618.453	20.6
618.646	20.58
618.838	20.48
619.031	20.4
619.224	20.39
619.417	20.36
619.609	20.33
619.802	20.34
619.994	20.3
620.187	20.29
620.38	20.3
620.572	20.31
620.765	20.27
620.957	20.21
621.15	20.14
621.342	20.18
621.535	20.13
621.727	20.07
621.92	19.96
622.112	19.95
622.305	19.94
622.497	19.88
622.69	19.82
622.882	19.83
623.074	19.84
623.267	19.82
623.459	19.82
623.651	19.82
623.844	19.89
624.036	19.92
624.228	19.88
624.42	19.83
624.613	19.83
624.805	19.83
624.997	19.85
625.189	19.84
625.381	19.74
625.574	19.73
625.766	19.68
625.958	19.68
626.15	19.66
626.342	19.6
626.534	19.5
626.726	19.57
626.918	19.57
627.11	19.6
627.302	19.53
627.494	19.45
627.686	19.43
627.878	19.42
628.07	19.3
628.262	19.2
628.454	19.11
628.646	19.09
628.838	19.07
629.029	18.98
629.221	18.94
629.413	18.96
629.605	18.93
629.797	18.97
629.989	18.94
630.18	18.93
630.372	18.93
630.564	18.96
630.755	18.86
630.947	18.86
631.139	18.82
631.33	18.78
631.522	18.73
631.714	18.7
631.905	18.65
632.097	18.68
632.289	18.65
632.48	18.56
632.672	18.55
632.863	18.56
633.055	18.55
633.246	18.49
633.438	18.46
633.629	18.47
633.821	18.5
634.012	18.49
634.203	18.5
634.395	18.48
634.586	18.49
634.777	18.44
634.969	18.42
635.16	18.36
635.351	18.37
635.543	18.3
635.734	18.28
635.925	18.29
636.117	18.31
636.308	18.27
636.499	18.29
636.69	18.33
636.881	18.38
637.073	18.39
637.264	18.39
637.455	18.41
637.646	18.37
637.837	18.35
638.028	18.32
638.219	18.28
638.41	18.25
638.601	18.2
638.792	18.14
638.983	18.14
639.174	18.17
639.365	18.09
639.556	18.01
639.747	18
639.938	17.98
640.129	17.94
640.32	17.95
640.511	17.92
640.701	17.83
640.892	17.88
641.083	17.86
641.274	17.81
641.465	17.79
641.655	17.76
641.846	17.66
642.037	17.72
642.228	17.68
642.418	17.63
642.609	17.61
642.8	17.61
642.99	17.61
643.181	17.6
643.372	17.61
643.562	17.58
643.753	17.54
643.943	17.54
644.134	17.48
644.324	17.42
644.515	17.42
644.705	17.39
644.896	17.32
645.086	17.3
645.277	17.33
645.467	17.32
645.658	17.33
645.848	17.26
646.038	17.21
646.229	17.25
646.419	17.26
646.61	17.21
646.8	17.2
646.99	17.15
647.18	17.18
647.371	17.13
647.561	17.09
647.751	16.97
647.941	16.9
648.132	16.89
648.322	16.92
648.512	16.92
648.702	16.95
648.892	16.92
649.082	16.99
649.272	16.97
649.462	16.89
649.653	16.8
649.843	16.69
650.033	16.65
650.223	16.67
650.413	16.63
650.603	16.65
650.793	16.56
650.983	16.6
651.172	16.61
651.362	16.51
651.552	16.41
651.742	16.36
651.932	16.31
652.122	16.36
652.312	16.2
652.502	16.12
652.691	16.1
652.881	16.08
653.071	15.95
653.261	15.88
653.45	15.83
653.64	15.82
653.83	15.74
654.019	15.67
654.209	15.55
654.399	15.54
654.588	15.42
654.778	15.31
654.968	15.2
655.157	15.1
655.347	14.94
655.536	14.76
655.726	14.64
655.915	14.5
656.105	14.42
656.294	14.25
656.484	14.13
656.673	14.08
656.863	14
657.052	13.86
657.241	13.75
657.431	13.61
657.62	13.47
657.809	13.4
657.999	13.27
658.188	13.15
658.377	13.03
658.567	12.92
658.756	12.76
658.945	12.68
659.134	12.48
659.324	12.28
659.513	12.16
659.702	12.01
659.891	11.87
660.08	11.81
660.269	11.68
660.458	11.58
660.648	11.5
660.837	11.37
661.026	11.24
661.215	11.15
661.404	11
661.593	10.87
661.782	10.76
661.971	10.65
662.16	10.54
662.349	10.43
662.538	10.3
662.726	10.15
662.915	10.05
663.104	9.88
663.293	9.75
663.482	9.68
663.671	9.57
663.86	9.42
664.048	9.34
664.237	9.25
664.426	9.28
664.615	9.23
664.803	9.13
664.992	9.12
665.181	9.07
665.369	9.02
665.558	9.01
665.747	8.95
665.935	8.9
666.124	8.87
666.312	8.77
666.501	8.76
666.69	8.71
666.878	8.58
667.067	8.55
667.255	8.46
667.444	8.43
667.632	8.37
667.82	8.3
668.009	8.3
668.197	8.33
668.386	8.2
668.574	8.2
668.762	8.14
668.951	8.15
669.139	8.17
669.327	8.13
669.516	8.1
669.704	8.15
669.892	8.09
670.08	8.07
670.269	8.1
670.457	8.04
670.645	8.02
670.833	8
671.021	8
671.21	8.11
671.398	8.14
671.586	8.13
671.774	8.16
671.962	8.14
672.15	8.16
672.338	8.13
672.526	8.1
672.714	8.14
672.902	8.14
673.09	8.22
673.278	8.27
673.466	8.36
673.654	8.4
673.842	8.42
674.03	8.46
674.218	8.49
674.405	8.48
674.593	8.51
674.781	8.48
674.969	8.47
675.157	8.5
675.344	8.56
675.532	8.62
675.72	8.69
675.908	8.74
676.095	8.84
676.283	8.9
676.471	8.98
676.658	9.01
676.846	9.07
677.033	9.13
677.221	9.19
677.409	9.21
677.596	9.35
677.784	9.37
677.971	9.45
678.159	9.52
678.346	9.58
678.534	9.68
678.721	9.68
678.909	9.73
679.096	9.8
679.283	9.83
679.471	9.89
679.658	9.99
679.846	10.05
680.033	10.23
680.22	10.29
680.408	10.4
680.595	10.53
680.782	10.61
680.969	10.66
681.157	10.79
681.344	10.82
681.531	10.95
681.718	11.03
681.905	11.12
682.093	11.27
682.28	11.4
682.467	11.42
682.654	11.6
682.841	11.75
683.028	11.94
683.215	12.11
683.402	12.26
683.589	12.47
683.776	12.64
683.963	12.77
684.15	12.93
684.337	13.05
684.524	13.24
684.711	13.4
684.898	13.6
685.085	13.89
685.271	14.14
685.458	14.39
685.645	14.66
685.832	14.87
686.019	15.14
686.205	15.34
686.392	15.55
686.579	15.74
686.766	16.05
686.952	16.32
687.139	16.59
687.326	16.93
687.512	17.17
687.699	17.45
687.886	17.82
688.072	18.13
688.259	18.52
688.445	18.87
688.632	19.23
688.818	19.69
689.005	20.28
689.191	20.71
689.378	21.04
689.564	21.4
689.751	21.93
689.937	22.27
690.124	22.69
690.31	23.05
690.496	23.59
690.683	24.18
690.869	24.79
691.055	25.4
691.242	26
691.428	26.54
691.614	27.19
691.8	27.75
691.987	28.29
692.173	28.9
692.359	29.37
692.545	30.01
692.731	30.72
692.918	31.25
693.104	31.8
693.29	32.44
693.476	33
693.662	33.64
693.848	34.18
694.034	34.75
694.22	35.48
694.406	36.16
694.592	36.82
694.778	37.41
694.964	38.09
695.15	38.85
695.336	39.6
695.522	40.28
695.708	40.97
695.894	41.69
696.08	42.4
696.265	42.99
696.451	43.72
696.637	44.29
696.823	44.94
697.009	45.52
697.194	46.2
697.38	46.83
697.566	47.33
697.751	47.91
697.937	48.54
698.123	49.22
698.308	49.79
698.494	50.14
698.68	50.72
698.865	51.49
699.051	52
699.236	52.51
699.422	52.94
699.607	53.57
699.793	54.25
699.978	54.77
700.164	55.25
700.349	55.92
700.535	56.47
700.72	56.91
700.906	57.42
701.091	57.97
701.276	58.52
701.462	58.92
701.647	59.26
701.832	59.81
702.018	60.23
702.203	60.62
702.388	60.97
702.573	61.36
702.759	61.92
702.944	62.34
703.129	62.58
703.314	63.23
703.499	63.64
703.684	64.02
703.87	64.44
704.055	64.85
704.24	65.21
704.425	65.86
704.61	66.07
704.795	66.47
704.98	66.85
705.165	67
705.35	67.23
705.535	67.59
705.72	67.68
705.905	67.86
706.09	67.97
706.275	68.35
706.459	68.98
706.644	69.33
706.829	69.64
707.014	69.85
707.199	70.19
707.384	70.59
707.568	70.74
707.753	70.88
707.938	71.04
708.123	71.2
708.307	71.59
708.492	71.8
708.677	72.18
708.861	72.39
709.046	72.55
709.231	72.9
709.415	73.18
709.6	73.2
709.784	73.41
709.969	73.71
710.153	74.23
710.338	74.38
710.522	74.47
710.707	74.45
710.891	74.94
711.076	75.05
711.26	75.01
711.445	75.08
711.629	75.38
711.813	75.51
711.998	75.79
712.182	75.95
712.366	76.33
712.551	76.51
712.735	76.24
712.919	76.55
713.103	76.79
713.288	77.08
713.472	77.08
713.656	76.8
713.84	76.84
714.024	77.2
714.208	76.94
714.393	77.1
714.577	77.14
714.761	77.35
714.945	77.83
715.129	78.23
715.313	78.5
715.497	78.77
715.681	78.75
715.865	78.84
716.049	78.85
716.233	79.05
716.417	79.1
716.601	79.2
716.785	79.31
716.968	79.55
717.152	79.62
717.336	79.81
717.52	79.97
717.704	79.87
717.888	80.17
718.071	80.42
718.255	80.39
718.439	80.51
718.622	80.66
718.806	80.23
718.99	80.46
719.174	80.25
719.357	80.31
719.541	80.56
719.724	80.57
719.908	80.69
720.092	81.1
720.275	81.29
720.459	81.41
720.642	81.26
720.826	81.26
721.009	81.16
721.193	81.03
721.376	80.96
721.559	80.93
721.743	80.74
721.926	80.9
722.11	81
722.293	81.03
722.476	81.18
722.66	81.2
722.843	81.7
723.026	82.08
723.21	82.07
723.393	82.08
723.576	82.44
723.759	82.64
723.942	82.83
724.126	82.49
724.309	82.71
724.492	82.97
724.675	83.3
724.858	83.48
725.041	83.37
725.224	83.4
725.407	83.28
725.59	83.23
725.774	83.37
725.957	83.42
726.14	83.46
726.322	83.43
726.505	83.79
726.688	84.28
726.871	84.27
727.054	84.36
727.237	83.97
727.42	84.2
727.603	84.58
727.786	84.71
727.968	84.74
728.151	85.1
728.334	84.98
728.517	85.47
728.699	85.66
728.882	86.05
729.065	86.01
729.248	85.89
729.43	85.47
729.613	85.68
729.796	85.53
729.978	85.31
730.161	85.42
730.343	85.53
730.526	85.82
730.708	86.41
730.891	86.48
731.073	86.63
731.256	86.72
731.438	86.54
731.621	86.95
731.803	86.7
731.986	86.84
732.168	87.19
732.35	87.46
732.533	87.7
732.715	87.45
732.898	87.18
733.08	87.38
733.262	87.21
733.444	86.81
733.627	86.95
733.809	86.95
733.991	87.45
734.173	87.09
734.355	87.78
734.538	87.66
734.72	88.16
734.902	88
735.084	88.28
735.266	88.13
735.448	88.96
735.63	88.65
735.812	89.14
735.994	88.89
736.176	89.56
736.358	89.45
736.54	89.47
736.722	89.21
736.904	89.32
737.086	89.55
737.268	89.71
737.45	89.32
737.632	89.24
737.814	89.43
737.995	89.81
738.177	89.84
738.359	89.75
738.541	89.56
738.723	89.68
738.904	89.49
739.086	89.32
739.268	89.39
739.449	89.7
739.631	89.57
739.813	89.6
739.994	89.66
740.176	90.16
740.358	90.55
740.539	90.06
740.721	89.5
740.902	89.39
741.084	89.93
741.265	89.97
741.447	89.41
741.628	89.2
741.81	89.9
741.991	90.25
742.172	90.02
742.354	90.18
742.535	90.22
742.717	90.77
742.898	91.13
743.079	90.58
743.261	90.64
743.442	91.29
743.623	90.7
743.804	90.57
743.986	90.42
744.167	89.9
744.348	90.01
744.529	89.94
744.71	89.34
744.891	89.82
745.073	89.81
745.254	90.15
745.435	90.21
745.616	90.32
745.797	90.06
745.978	90.72
746.159	90.13
746.34	90.61
746.521	90.37
746.702	90.01
746.883	90.39
747.064	90.24
747.245	90.71
747.426	91.14
747.606	90.78
747.787	91.2
747.968	92.66
748.149	92.25
748.33	93.69
748.51	92.79
748.691	92.87
748.872	92.99
749.053	92.3
749.233	91.59
749.414	91.41
749.595	89.85
749.775	90.54
749.956	90.07
750.137	89.65
750.317	90.41
750.498	90.96
750.678	90.99
750.859	91.66
751.04	90.65
751.22	91.23
751.4	91.73
751.581	91.84
751.761	91.97
751.942	91.7
752.122	91.52
752.303	91.83
752.483	92.2
752.663	92.57
752.844	90.67
753.024	90.17
753.204	90.17
753.385	89.93
753.565	90.23
753.745	89.29
753.925	88.85
754.106	90.22
754.286	90.06
754.466	90.81
754.646	91
754.826	90.88
755.006	91.14
755.187	90.88
755.367	90.96
755.547	91.24
755.727	90.85
755.907	91.18
756.087	92.04
756.267	92.19
756.447	92.53
756.627	91.86
756.807	91.72
756.987	93.08
757.167	92.51
757.346	91.56
757.526	91.82
757.706	92.05
757.886	92.01
758.066	91.31
758.246	89.84
758.425	90.21
758.605	89.88
758.785	89.71
758.965	88.53
759.144	89.11
759.324	89.98
759.504	90.42
759.683	90.09
759.863	90.65
760.043	90.42
760.222	90.25
760.402	90.47
760.581	89.28
760.761	88.15
760.94	87.89
761.12	87.57
761.299	87.01
761.479	88.53
761.658	87.98
761.838	88.45
762.017	89.46
762.197	90.57
762.376	90.37
762.555	91.07
762.735	90.07
762.914	90.81
763.093	90.8
763.273	89.92
763.452	88.87
763.631	88.22
763.81	88.04
763.99	88.64
764.169	88.53
764.348	89.32
764.527	89.8
764.706	89.95
764.885	91.58
765.064	91.64
765.243	91.26
765.423	91.67
765.602	90.34
765.781	91.07
765.96	90.66
766.139	89.3
766.318	89.5
766.497	89.69
766.676	89.07
766.854	88.97
767.033	88.27
767.212	89.08
767.391	88.6
767.57	88.33
767.749	88.49
767.928	87.39
768.106	88.57
768.285	89.01
768.464	89.45
768.643	90.74
768.821	90.75
769	91.14
769.179	91.12
769.357	90.57
769.536	89.99
769.715	88.96
769.893	89.12
770.072	89.22
770.25	88.11
770.429	89.36
770.607	88.88
770.786	88.31
770.964	88.25
771.143	87.75
771.321	86.89
771.5	86.9
771.678	86.78
771.857	86.78
772.035	87.94
772.213	88.7
772.392	88.28
772.57	89.06
772.748	88.84
772.927	87.61
773.105	87.77
773.283	86.43
773.461	85.63
773.64	85.24
773.818	85.55
773.996	85.03
774.174	86.19
774.352	86.21
774.531	86.16
774.709	86.36
774.887	86.5
775.065	85.31
775.243	87.09
775.421	85.84
775.599	86.18
775.777	86.58
775.955	87.17
776.133	87.16
776.311	87.7
776.489	86.71
776.667	87.66
776.844	87.12
777.022	87.08
777.2	85.81
777.378	86.19
777.556	86.52
777.734	86.9
777.911	87.58
778.089	88.11
778.267	88.31
778.445	88.96
778.622	87.89
778.8	88.01
778.978	87.34
779.155	86.8
779.333	85.81
779.511	85.89
779.688	85.23
779.866	85.16
780.043	86.05
780.221	86.81
780.398	86.64
780.576	87.41
780.753	86.71
780.931	88.28
781.108	89.28
781.286	86.98
781.463	86.11
781.64	84.27
781.818	84.5
781.995	85.8
782.172	84.46
782.35	85.37
782.527	87.4
782.704	86.54
782.882	89.39
783.059	87.27
783.236	86.25
783.413	86.26
783.59	84.85
783.768	83.61
783.945	83.38
784.122	82.1
784.299	84.16
784.476	85.02
784.653	83.67
784.83	82.38
785.007	81.8
785.184	82.55
785.361	82.04
785.538	80.97
785.715	79.66
785.892	80.42
786.069	82.51
786.246	83.24
786.423	85.6
786.6	85.74
786.776	84.78
786.953	84.2
787.13	86.63
787.307	84.68
787.484	84.33
787.66	81.81
787.837	81.75
788.014	82.8
788.191	82.78
788.367	80.06
788.544	81.89
788.721	82.03
788.897	83.92
789.074	83.76
789.25	83.66
789.427	84.31
789.603	87.63
789.78	88.29
789.956	88.75
790.133	86.07
790.309	84.67
790.486	86.38
790.662	86.11
790.839	84.73
791.015	82.78
791.192	82.82
791.368	85.84
791.544	87.97
791.721	85.48
791.897	85.76
792.073	83.42
792.249	85.12
792.426	84.15
792.602	81.84
792.778	81.91
792.954	83.02
793.13	84.53
793.307	84.04
793.483	81.21
793.659	82.23
793.835	82.19
794.011	82.45
794.187	80.89
794.363	80.55
794.539	82.98
794.715	83.4
794.891	80.95
795.067	81.35
795.243	79.16
795.419	81.45
795.595	78.14
795.771	76.45
795.947	76.9
796.122	78.08
796.298	77.76
796.474	80.6
796.65	80.42
796.826	84.32
797.001	85.32
797.177	84.49
797.353	85.04
797.529	87.65
797.704	86.95
797.88	84.83
798.056	83.6
798.231	81.74
798.407	82.01
798.582	82.55
798.758	81.03
798.934	79.32
799.109	79.62
799.285	78.84
799.46	80.67
799.636	83.11
799.811	83.82
799.986	84.04
800.162	84.95
800.337	82.8
800.513	84.27
800.688	85.36
800.863	84.39
801.039	81.4
801.214	79.17
801.389	78.74
801.565	81.85
801.74	81.07
801.915	81.02
802.09	79.52
802.265	81.78
802.441	82.83
802.616	86.03
802.791	85.88
802.966	85.7
803.141	82.13
803.316	83.83
803.491	79.58
803.666	80.98
803.841	78.33
804.016	80.64
804.191	81.34
804.366	80.52
804.541	78.62
804.716	76.07
804.891	77.14
805.066	75.63
805.241	74.12
805.416	73.95
805.591	80.56
805.765	81.21
805.94	85.64
806.115	82.35
806.29	83.67
806.464	81.97
806.639	83.57
806.814	79.06
806.989	76.61
807.163	78.32
807.338	78.46
807.512	76.48
807.687	75.1
807.862	75.15
808.036	75.78
808.211	81.91
808.385	80.23
808.56	82.13
808.734	85.74
808.909	85.99
809.083	83.27
809.258	85.49
809.432	80.56
809.606	80.35
809.781	77.5
809.955	78.45
810.13	86.54
810.304	87.8
810.478	86.11
810.652	89.42
810.827	90.16
811.001	93.08
811.175	89.96
811.349	84.01
811.524	80.46
811.698	80.35
811.872	79.4
812.046	78.32
812.22	78.09
812.394	76.66
812.568	74.62
812.742	76.67
812.916	77.65
813.09	77.55
813.264	80.63
813.438	82.5
813.612	82.1
813.786	82.23
813.96	82.86
814.134	81.22
814.308	75.28
814.482	73.87
814.656	71.11
814.83	72.35
815.003	75.26
815.177	77.21
815.351	75.2
815.525	74.61
815.698	72.22
815.872	69.39
816.046	67.73
816.219	67.23
816.393	63.2
816.567	64.32
816.74	68.43
816.914	72.94
817.088	69.29
817.261	69.05
817.435	67.06
817.608	65.13
817.782	65.8
817.955	67.67
818.129	67.47
818.302	75.11
818.475	76.92
818.649	76.59
818.822	82.8
818.996	81.33
819.169	80.59
819.342	74.85
819.516	74.47
819.689	77.66
819.862	71.72
820.035	68.64
820.209	69.51
820.382	62.86
820.555	64.83
820.728	58.2
820.901	55.66
821.075	59.2
821.248	60.4
821.421	61.12
821.594	65.59
821.767	68.46
821.94	71.1
822.113	72.67
822.286	78.53
822.459	88.42
822.632	92.26
822.805	93.23
822.978	87.51
823.151	95.02
823.324	90.84
823.496	80.18
823.669	75.76
823.842	76.38
824.015	78.21
824.188	78.13
824.361	73.15
824.533	75.19
824.706	103.62
824.879	95.79
825.051	89.24
825.224	87.72
825.397	87.56
825.569	90.51
825.742	93.38
825.915	77.24
826.087	75.91
826.26	73.4
826.432	76.76
826.605	70.94
826.777	66.38
826.95	62.36
827.122	69.76
827.295	71.1
827.467	73.37
827.64	64.9
827.812	67.37
827.984	67.44
828.157	72.18
828.329	71.14
828.501	69.33
828.674	68.23
828.846	69.05
829.018	73.65
829.19	69.2
829.363	72.26
829.535	68
829.707	70.37
829.879	71.24
830.051	71.48
830.223	61.68
830.395	64.18
830.568	68.21
830.74	70.12
830.912	69.27
831.084	63.33
831.256	66.23
831.428	71.23
831.6	70.36
831.772	55.82
831.943	53.8
832.115	55.15
832.287	58.92
832.459	59.63
832.631	61.51
832.803	69.58
832.975	76.72
833.146	73.58
833.318	68.96
833.49	70.02
833.662	69.41
833.833	71.2
834.005	69.05
834.177	74.72
834.348	79.16
834.52	87.22
834.692	91.28
834.863	91.5
835.035	89.02
835.206	90.73
835.378	80.05
835.549	73.26
835.721	63.71
835.892	58.86
836.064	61.08
836.235	59.27
836.407	57.67
836.578	57.45
836.749	62.03
836.921	64.12
837.092	77.34
837.264	70.36
837.435	71.69
837.606	64.52
837.777	64.11
837.949	60.56
838.12	63.78
838.291	59.53
838.462	64.78
838.633	66.72
838.805	65.05
838.976	62.78
839.147	64.84
839.318	60.06
839.489	45.4
839.66	40.07
839.831	31.88
840.002	39.44
840.173	41.99
840.344	44.38
840.515	40.26
840.686	45.08
840.857	44.81
841.028	56.69
841.199	56.27
841.369	56.02
841.54	51.58
841.711	59.33
841.882	65.32
842.053	69.73
842.223	67.9
842.394	65.98
842.565	84.02
842.736	96.17
842.906	106.27
843.077	98.69
843.248	106.28
843.418	102.59
843.589	97.73
843.759	85
843.93	78.63
844.101	74.49
844.271	72.87
844.442	60.4
844.612	52.25
844.783	46.87
844.953	39.46
845.123	37.22
845.294	34.35
845.464	48.09
845.635	54.68
845.805	68.98
845.975	66.18
846.146	72.52
846.316	78.56
846.486	77.54
846.656	70.55
846.827	71.18
846.997	81.64
847.167	86.43
847.337	86.94
847.507	84.57
847.677	89.51
847.848	90.16
848.018	82.8
848.188	65.26
848.358	73.03
848.528	72.39
848.698	61.27
848.868	46.86
849.038	51.27
849.208	54.43
849.378	51.46
849.548	54.77
849.718	36.45
849.887	43.33
850.057	46.65
850.227	50.11
850.397	49.27
850.567	68.25
850.737	54.12
850.906	65.33
851.076	50.7
851.246	65.85
851.415	63.13
851.585	62.93
851.755	59.41
851.924	67.56
852.094	69.81
852.264	72.45
852.433	68.78
852.603	72.89
852.772	73.56
852.942	65.81
853.111	64.5
853.281	58.69
853.45	63.97
853.62	61.29
853.789	62.83
853.959	65.33
854.128	56.84
854.297	46.07
854.467	45.24
854.636	47.56
854.805	47.75
854.975	40.51
855.144	40.72
855.313	53.23
855.482	54.44
855.652	58.01
855.821	58.46
855.99	55.84
856.159	43.1
856.328	47.29
856.497	35.19
856.667	40.58
856.836	32.79
857.005	28.9
857.174	45.07
857.343	49.69
857.512	43.21
857.681	37.5
857.85	37.78
858.019	55.02
858.188	70.68
858.356	48.86
858.525	51.47
858.694	59.29
858.863	62.98
859.032	50.34
859.201	40.73
859.369	32.03
859.538	21.34
859.707	25.77
859.876	31.72
860.044	40.39
860.213	56.86
860.382	65.11
860.55	95.05
860.719	102.55
860.888	93.5
861.056	78.6
861.225	94.51
861.393	81.11
861.562	66.4
861.73	38.21
861.899	23.31
862.067	29.83
862.236	38.15
862.404	28.22
862.572	33.49
862.741	40.36
862.909	30.86
863.078	39.96
863.246	47.96
863.414	52.97
863.582	41.57
863.751	32.65
863.919	43.76
864.087	50.53
864.255	46.5
864.424	52.3
864.592	62.41
864.76	84.4
864.928	92.45
865.096	76.74
865.264	83.26
865.432	85.18
865.6	70.62
865.768	57.9
865.936	29.67
866.104	23.47
866.272	24.1
866.44	-2.14
866.608	-8.14
866.776	22.92
866.944	28.83
867.112	42.05
867.28	20.06
867.448	41.42
867.615	41.49
867.783	38.39
867.951	30.63
868.119	36.2
868.286	34.23
868.454	31.92
868.622	27.9
868.789	54.8
868.957	63.93
869.125	61.09
869.292	55.79
869.46	56.4
869.627	69.46
869.795	53.33
869.963	54.83
870.13	71.16
870.298	66.48
870.465	84.22
870.632	77.89
870.8	63.11
870.967	66.86
871.135	61.79
871.302	48.84
871.469	56.42
871.637	42.84
871.804	48.49
871.971	47.97
872.139	47.05
872.306	35.72
872.473	25.38
872.64	14.57
872.807	12.63
872.975	2.52
873.142	-23.23
873.309	-25.12
873.476	-29.37
873.643	-2.33
873.81	22.01
873.977	60.8
874.144	66.5
874.311	78.61
874.478	25.59
874.645	27.02
874.812	28.33
874.979	32.08
875.146	-35.57
875.313	-56.11
875.48	16.1
875.647	-0.63
875.813	-35.62
875.98	18.5
876.147	17.6
876.314	47.08
876.481	45.07
876.647	31.79
876.814	45.28
876.981	47.7
877.147	29.73
877.314	30.19
877.481	43.49
877.647	51
877.814	53.43
877.98	44.66
878.147	42.67
878.314	40.02
878.48	36.74
878.647	41.41
878.813	14.3
878.979	8.73
879.146	33.86
879.312	48.07
879.479	55.65
879.645	59.2
879.811	55.4
879.978	81.09
880.144	89.39
880.31	75.86
880.477	82.71
880.643	125.69
880.809	116.81
880.975	71.54
881.142	56.96
881.308	61.8
881.474	98.3
881.64	61.24
881.806	58.15
881.972	88.97
882.138	76.4
882.304	72.15
882.47	70.41
882.636	43.89
882.802	40.59
882.968	-30.28
883.134	-194.4
883.3	-30.75
883.466	27.2
883.632	22.04
883.798	16.83
883.964	30.9
884.129	72.1
884.295	65.29
884.461	66.01
884.627	82.74
884.793	58.84
884.958	69.28
885.124	55.94
885.29	40.27
885.455	36.37
885.621	40.54
885.787	28.55
885.952	28.5
886.118	32.93
886.283	52.94
886.449	37.98
886.614	62.96
886.78	62.4
886.945	60.11
887.111	64.25
887.276	49.16
887.442	48.52
887.607	72.4
887.773	41.72
887.938	12.6
888.103	19.76
888.269	10.13
888.434	15.51
888.599	7.34
888.764	5.48
888.93	3.2
889.095	-13.5
889.26	1.81
889.425	54.7
889.59	34.85
889.756	46.45
889.921	42.96
890.086	64.02
890.251	79.64
890.416	42.78
890.581	9.86
890.746	13.63
890.911	-11.53
891.076	-11.76
891.241	-5.93
891.406	24.88
891.571	61.6
891.736	47.7
891.901	94.08
892.065	80.75
892.23	67.17
892.395	38.75
892.56	43.29
892.725	36.43
892.889	35.62
893.054	-6.04
893.219	10.13
893.384	38.85
893.548	150.83
893.713	-113.61
893.878	3.26
