Data from Ofra_PS_T2_2A_2GT31_Reflection_2.txt Node
Date: Wed Jul 21 17:03:09 EDT 2021
User: Adam
Spectrometer: FLMT01687
Trigger mode: 0
Integration Time (sec): 1.100000E0
Scans to average: 2
Electric dark correction enabled: true
Nonlinearity correction enabled: false
Boxcar width: 2
XAxis mode: Wavelengths
Number of Pixels in Spectrum: 3648
>>>>>Begin Spectral Data<<<<<
179.494	486.4
179.716	505.18
179.937	471.98
180.158	465.25
180.38	647.5
180.601	202.76
180.823	141.43
181.044	112.8
181.265	192.65
181.486	115.28
181.708	131.18
181.929	559.18
182.15	-297.18
182.372	141.55
182.593	118.82
182.814	63.86
183.035	115.65
183.257	134.4
183.478	52.13
183.699	66.78
183.92	35.12
184.141	34.8
184.363	-46.8
184.584	0.26
184.805	23.31
185.026	75.05
185.247	58.52
185.468	55.55
185.689	68.17
185.91	59.52
186.132	46.51
186.353	55.79
186.574	97.28
186.795	66.64
187.016	43.12
187.237	22.62
187.458	37.72
187.679	22.6
187.9	49.79
188.121	46.9
188.342	90.68
188.563	74.49
188.784	118.27
189.005	81.76
189.226	131.82
189.447	122.52
189.667	153.88
189.888	-18.23
190.109	-320.78
190.33	-263.87
190.551	-595.58
190.772	-108.47
190.993	-81.15
191.214	-59.83
191.434	-68.75
191.655	12.76
191.876	-30.02
192.097	-65.73
192.318	-34.02
192.538	11.14
192.759	-75.76
192.98	17.42
193.201	47.54
193.421	28.14
193.642	31.87
193.863	51.8
194.083	30.36
194.304	18.59
194.525	32.07
194.745	13.22
194.966	-15.13
195.187	-16
195.407	-42.93
195.628	-103.4
195.848	-69.99
196.069	-55.11
196.29	-6.17
196.51	-16.8
196.731	-15.43
196.951	-20.95
197.172	-25.79
197.392	-82.34
197.613	-50.76
197.833	-62.84
198.054	-62.77
198.274	-29.29
198.495	-42.8
198.715	-36.26
198.936	-42.83
199.156	-17.44
199.377	-91.15
199.597	-90.05
199.817	-109.21
200.038	-58.27
200.258	-145.96
200.479	-101.07
200.699	-73.85
200.919	-16.75
201.14	-40.99
201.36	-46.03
201.58	21.46
201.801	44.66
202.021	21.96
202.241	21.59
202.461	30.21
202.682	-43.79
202.902	-121.41
203.122	-29.6
203.342	-30.76
203.563	-3.64
203.783	12.88
204.003	-14.01
204.223	-16.74
204.443	43.94
204.663	10.65
204.884	29.85
205.104	72.65
205.324	58.95
205.544	61.67
205.764	74.48
205.984	62.63
206.204	61.14
206.424	47.08
206.644	8.47
206.864	35.04
207.084	-3.71
207.304	-17.7
207.525	-76.25
207.745	-29.46
207.964	5.44
208.184	-5.41
208.404	-34.24
208.624	-18.37
208.844	7.55
209.064	-182.03
209.284	-195.34
209.504	-64.92
209.724	7.69
209.944	-18.8
210.164	-3.6
210.384	19.33
210.604	18.48
210.823	-8.97
211.043	9.8
211.263	19.64
211.483	22.59
211.703	-12.15
211.922	2.38
212.142	46.24
212.362	80.7
212.582	39.95
212.801	33.6
213.021	12.33
213.241	7.65
213.461	-42.9
213.68	-50.57
213.9	-14.31
214.12	-3.17
214.339	-81.97
214.559	-58.6
214.779	-10.53
214.998	-15.11
215.218	-47.92
215.438	-5.1
215.657	-7.3
215.877	-9.6
216.096	12.05
216.316	26.08
216.535	24.3
216.755	40.41
216.974	2.47
217.194	-41.09
217.413	-63.92
217.633	-64.04
217.852	-128.02
218.072	-34.96
218.291	-9.63
218.511	24.59
218.73	-0.71
218.95	-3.55
219.169	-13.14
219.389	-47.55
219.608	-42.24
219.827	-13.11
220.047	-7.94
220.266	0.91
220.485	13.55
220.705	27.74
220.924	5.94
221.143	34.93
221.363	16.65
221.582	30.4
221.801	47.35
222.021	56.55
222.24	22.07
222.459	107.75
222.678	53.47
222.897	-15.35
223.117	-47.7
223.336	-6.33
223.555	-14.47
223.774	13.42
223.993	23.31
224.213	54.2
224.432	21.44
224.651	31.21
224.87	15.93
225.089	32.26
225.308	19.04
225.527	35.48
225.746	37.23
225.965	38.9
226.184	32.05
226.404	37.87
226.623	19.83
226.842	29.86
227.061	47.96
227.28	38.73
227.499	30.81
227.718	43.48
227.936	26.16
228.155	32.15
228.374	30.08
228.593	39.73
228.812	32.63
229.031	16.64
229.25	-32.38
229.469	-45.68
229.688	-49.7
229.907	-11.73
230.125	9.84
230.344	18.8
230.563	20.88
230.782	26.51
231.001	-37.2
231.22	-10.81
231.438	20.83
231.657	43.2
231.876	44.25
232.095	80.06
232.313	78.44
232.532	69.16
232.751	48.24
232.969	48.16
233.188	9.35
233.407	46.98
233.625	37.96
233.844	16.29
234.063	15.65
234.281	29.99
234.5	22.33
234.719	18.1
234.937	51.79
235.156	55.53
235.374	58.95
235.593	64.32
235.811	79.02
236.03	59.62
236.249	30.57
236.467	35.3
236.686	19.11
236.904	20.69
237.123	-2.18
237.341	1.86
237.559	7.7
237.778	-5.97
237.996	-18.96
238.215	26.48
238.433	46.07
238.652	40.25
238.87	23.54
239.088	33.47
239.307	19.13
239.525	-4.7
239.743	-30.25
239.962	5.6
240.18	-21.27
240.398	-36.65
240.617	-39.55
240.835	-7.39
241.053	5.91
241.271	68.04
241.49	57.8
241.708	71.09
241.926	80.36
242.144	34.57
242.363	-19.6
242.581	-11.85
242.799	5.59
243.017	21.39
243.235	20.66
243.453	46.92
243.672	41.79
243.89	30.3
244.108	17.89
244.326	48.84
244.544	39.6
244.762	44.88
244.98	63.01
245.198	73.22
245.416	21.29
245.634	26.62
245.852	15.52
246.07	32.97
246.288	32.65
246.506	48.07
246.724	42.3
246.942	39.52
247.16	37.26
247.378	47.74
247.596	53.72
247.814	48.2
248.032	29.25
248.25	40.95
248.468	23.84
248.685	28.76
248.903	50.95
249.121	58.62
249.339	25.43
249.557	5.71
249.775	4.07
249.992	-59.08
250.21	-49.02
250.428	-25.41
250.646	-48.15
250.863	-63.96
251.081	-22.88
251.299	-14.46
251.517	-4.03
251.734	19.62
251.952	15.5
252.17	12.62
252.387	9.14
252.605	-4.15
252.823	14.22
253.04	40.69
253.258	58.59
253.475	63.31
253.693	90.07
253.911	72.1
254.128	58.61
254.346	50.65
254.563	35.37
254.781	4.93
254.998	-1.79
255.216	15.37
255.433	24.35
255.651	62.53
255.868	68.16
256.086	61.03
256.303	26.61
256.521	12.86
256.738	-9.15
256.956	-29.14
257.173	-36.4
257.39	-34.8
257.608	-38.88
257.825	4.7
258.043	49.84
258.26	32.74
258.477	70.85
258.695	67.82
258.912	33.59
259.129	28.09
259.346	4.9
259.564	-34.99
259.781	-50
259.998	14.51
260.216	27.7
260.433	56.86
260.65	49.49
260.867	60.33
261.084	20.33
261.302	-2.99
261.519	-10.94
261.736	-31.08
261.953	-46.05
262.17	-19.35
262.387	-54.54
262.604	-59.05
262.822	-62.62
263.039	-50.39
263.256	-88.88
263.473	-25.26
263.69	-6.46
263.907	30.52
264.124	52.73
264.341	45.7
264.558	32.23
264.775	41.38
264.992	34.92
265.209	15.83
265.426	41.07
265.643	38.15
265.86	46.25
266.077	50.56
266.294	47.57
266.51	17.64
266.727	12.25
266.944	0.87
267.161	-12.47
267.378	-5.64
267.595	30.01
267.812	8.99
268.028	-7.53
268.245	18.28
268.462	-2.53
268.679	-29.58
268.896	25.69
269.112	23.47
269.329	9.23
269.546	19.15
269.763	20.05
269.979	-1.95
270.196	-0.06
270.413	-23.9
270.629	-45.46
270.846	-44.98
271.063	-37.8
271.279	-41.77
271.496	-26.37
271.712	10.35
271.929	28.37
272.146	8.16
272.362	22.82
272.579	40.1
272.795	36.52
273.012	37.83
273.228	70.34
273.445	49.37
273.661	54.61
273.878	23.13
274.094	9.3
274.311	-36.13
274.527	10.15
274.744	8.69
274.96	-4.84
275.177	12.82
275.393	35.04
275.609	41.86
275.826	57.91
276.042	66.42
276.259	45.06
276.475	46.78
276.691	42.8
276.908	11.52
277.124	26.9
277.34	36.88
277.557	4.32
277.773	-14.44
277.989	-3.43
278.205	-3.68
278.422	8.76
278.638	22.78
278.854	61.28
279.07	58.65
279.286	39.61
279.503	22.5
279.719	13.8
279.935	-24.7
280.151	-32.63
280.367	-9.07
280.583	-24.15
280.799	-10.64
281.016	-24.71
281.232	4.38
281.448	-0.61
281.664	17.13
281.88	4.3
282.096	20.8
282.312	40.36
282.528	52.67
282.744	54.34
282.96	40.92
283.176	32.79
283.392	22.16
283.608	10.13
283.824	10.75
284.04	25.67
284.256	19.71
284.471	10.23
284.687	16.44
284.903	35
285.119	49.97
285.335	43.9
285.551	66.49
285.767	58.53
285.982	35.38
286.198	-6.41
286.414	29.25
286.63	15.93
286.846	25.07
287.061	7.15
287.277	32.41
287.493	11.65
287.709	25.27
287.924	12.31
288.14	38.59
288.356	33.65
288.571	47.51
288.787	36.77
289.003	41.79
289.218	34.88
289.434	6.77
289.65	4.1
289.865	-0.48
290.081	8.17
290.296	19.9
290.512	29.57
290.727	2.08
290.943	0.29
291.159	-6.28
291.374	-21.75
291.59	-40.56
291.805	-19.28
292.021	-1.95
292.236	-1.43
292.451	17.84
292.667	35.38
292.882	51.41
293.098	32.42
293.313	10.6
293.529	-14.77
293.744	-37.9
293.959	-46.13
294.175	-31.91
294.39	11.86
294.605	34.85
294.821	50.45
295.036	56.36
295.251	64.5
295.467	40.06
295.682	20.17
295.897	-6.15
296.112	-11.09
296.328	-28.16
296.543	-55.6
296.758	-52.81
296.973	-11.21
297.188	24.03
297.404	19.62
297.619	32.7
297.834	15.11
298.049	-14.28
298.264	-52.54
298.479	-19.61
298.694	-14.16
298.909	11.42
299.125	20.42
299.34	23.05
299.555	1.87
299.77	9.81
299.985	-35.02
300.2	-73.43
300.415	-76
300.63	-34.68
300.845	-33.35
301.06	-9.02
301.275	25.81
301.49	37.78
301.704	31.73
301.919	10.58
302.134	-6.59
302.349	-18.86
302.564	-87.38
302.779	-88.14
302.994	-31.66
303.209	-0.12
303.423	31.65
303.638	80.5
303.853	30.4
304.068	18.84
304.283	16.98
304.497	18.45
304.712	1.64
304.927	13.93
305.142	10.69
305.356	29.84
305.571	29.09
305.786	27.04
306	20.3
306.215	21.67
306.43	-17.89
306.644	-9.58
306.859	51.48
307.074	53.79
307.288	21.31
307.503	33.36
307.717	9.24
307.932	-15.49
308.147	-14.78
308.361	17.1
308.576	7.54
308.79	-18.42
309.005	-16.62
309.219	0.86
309.434	-5.67
309.648	0.12
309.863	20.56
310.077	29.01
310.292	15.08
310.506	6.34
310.72	23.42
310.935	30.14
311.149	19.03
311.364	36.27
311.578	53.15
311.792	40.77
312.007	38.34
312.221	31.43
312.435	35.57
312.649	18.17
312.864	67.73
313.078	87.58
313.292	153.07
313.507	130.58
313.721	184.67
313.935	68.45
314.149	58.59
314.363	37.58
314.578	33.19
314.792	32.61
315.006	28.02
315.22	28.01
315.434	27.66
315.648	29.61
315.862	11.26
316.077	5.81
316.291	-9.46
316.505	6.46
316.719	-0.76
316.933	-0.92
317.147	16.5
317.361	-27.07
317.575	-52.47
317.789	-67.66
318.003	-103.69
318.217	-77.35
318.431	1.93
318.645	43.76
318.859	38.92
319.073	68.91
319.287	43.06
319.5	18.18
319.714	-25.03
319.928	-33.36
320.142	-69.75
320.356	-25.98
320.57	-0.09
320.784	-23.11
320.997	-48.47
321.211	-27.79
321.425	-93.96
321.639	-103.85
321.853	-42.27
322.066	-27.52
322.28	-39.26
322.494	-5.49
322.707	17.62
322.921	5.7
323.135	13.95
323.349	27.76
323.562	1.93
323.776	-21.32
323.989	-17.72
324.203	-39.89
324.417	-40.05
324.63	-23.68
324.844	-27.48
325.057	-25.19
325.271	8.86
325.485	28.05
325.698	44.16
325.912	62.8
326.125	44.08
326.339	42.79
326.552	36.27
326.766	24.17
326.979	31.68
327.193	61.99
327.406	39.58
327.619	29.37
327.833	34.95
328.046	12.15
328.26	-18.67
328.473	-2.45
328.686	-28.11
328.9	-19.67
329.113	3.74
329.326	-14.49
329.54	-13.36
329.753	-24.68
329.966	-54.35
330.179	-57.48
330.393	-27.57
330.606	-10.96
330.819	23.16
331.032	35.81
331.246	38.4
331.459	69.83
331.672	60.52
331.885	40.98
332.098	15.91
332.311	-13.38
332.525	-61.68
332.738	-57.6
332.951	-3.56
333.164	28.73
333.377	45.21
333.59	53.61
333.803	65.75
334.016	44.98
334.229	32.98
334.442	43.85
334.655	60.87
334.868	58.49
335.081	50.16
335.294	51.51
335.507	58.18
335.72	29.47
335.933	12.75
336.146	16.68
336.359	12.54
336.572	-29.97
336.785	-39.43
336.997	-9.36
337.21	13.3
337.423	18.25
337.636	36.87
337.849	45.21
338.062	30.33
338.274	19.22
338.487	22.47
338.7	19.06
338.913	-16.19
339.125	-28.54
339.338	-83.37
339.551	-71.07
339.763	-44.56
339.976	-5.41
340.189	9.72
340.402	36.58
340.614	21.2
340.827	19.45
341.039	2.95
341.252	4.06
341.465	23.47
341.677	29.61
341.89	-6.99
342.102	9.84
342.315	-11.85
342.527	-57.44
342.74	-53.57
342.952	-17.55
343.165	-21.18
343.377	13.6
343.59	11.01
343.802	20.27
344.015	21.92
344.227	34.53
344.44	17.54
344.652	26.77
344.864	17.42
345.077	33.8
345.289	31.01
345.502	30.85
345.714	27.56
345.926	40
346.139	29.89
346.351	39.25
346.563	55.8
346.775	61.14
346.988	50.74
347.2	56.22
347.412	21.03
347.624	-10.91
347.837	-42.9
348.049	-34.79
348.261	-18.93
348.473	8.32
348.685	1.86
348.897	1.86
349.11	-4.17
349.322	-16.68
349.534	-7.65
349.746	20.29
349.958	34.62
350.17	20.72
350.382	26.95
350.594	1.5
350.806	3.63
351.018	2.17
351.23	4.77
351.442	-33.36
351.654	-1.97
351.866	12.3
352.078	2.78
352.29	21.35
352.502	37.49
352.714	35.18
352.926	20.78
353.138	22.7
353.35	7.51
353.561	7.22
353.773	-6.01
353.985	6.1
354.197	12.48
354.409	20.8
354.621	14.08
354.832	21.4
355.044	4.58
355.256	1.47
355.468	10.76
355.679	13.24
355.891	13.42
356.103	9.09
356.314	23.56
356.526	28.4
356.738	39.13
356.949	55.83
357.161	55.57
357.373	39.1
357.584	17.01
357.796	15.57
358.008	3.28
358.219	18.07
358.431	20.18
358.642	27.6
358.854	22.36
359.065	14.83
359.277	-13.01
359.488	-23.52
359.7	-40.55
359.911	-44.35
360.123	-24.95
360.334	-21.63
360.546	-19.92
360.757	0.31
360.969	18.57
361.18	30.1
361.391	54.5
361.603	33.53
361.814	32.25
362.025	27.4
362.237	25.51
362.448	24.57
362.659	43.94
362.871	42.36
363.082	34.01
363.293	33.44
363.504	11.12
363.716	-9.63
363.927	-6.8
364.138	-24.94
364.349	-30.23
364.56	-14.51
364.772	-1.16
364.983	11.6
365.194	21.55
365.405	32.3
365.616	51.87
365.827	50.05
366.038	27.97
366.25	18.82
366.461	-20.08
366.672	-14.57
366.883	9.09
367.094	17.06
367.305	14.72
367.516	29.72
367.727	11.04
367.938	-3.45
368.149	-10.36
368.36	3.11
368.571	7.1
368.781	0.74
368.992	-14
369.203	-14.19
369.414	-21.26
369.625	-29.83
369.836	-24.59
370.047	-38.97
370.258	-36.33
370.468	-44.27
370.679	-57.03
370.89	-56.84
371.101	-27.89
371.312	-25.24
371.522	-14.83
371.733	-7.72
371.944	8.66
372.155	1.56
372.365	-6.9
372.576	-5.96
372.787	2.25
372.997	-19.54
373.208	-15.42
373.419	7.28
373.629	-12.94
373.84	-18.97
374.05	-16.51
374.261	-13.24
374.472	-20
374.682	19.18
374.893	20.4
375.103	46.61
375.314	49.21
375.524	42.75
375.735	36.33
375.945	48.15
376.156	29.26
376.366	26.78
376.577	24.51
376.787	21.22
376.997	13.17
377.208	6.2
377.418	-0.42
377.629	12.14
377.839	4.27
378.049	2.95
378.26	16.37
378.47	23.92
378.68	19.61
378.89	14.66
379.101	4.93
379.311	-22.81
379.521	-55.23
379.732	-66.65
379.942	-50.14
380.152	-52.4
380.362	-17.26
380.572	-14.49
380.783	0.62
380.993	1.62
381.203	14.4
381.413	22.87
381.623	36
381.833	26.27
382.043	20.43
382.253	11.86
382.463	7.08
382.674	-1.44
382.884	-17.26
383.094	-14.15
383.304	-5.49
383.514	-2.1
383.724	10.34
383.934	11.21
384.144	-4.42
384.353	-5.95
384.563	-7.59
384.773	-8.14
384.983	-6.5
385.193	17.48
385.403	16.95
385.613	19.18
385.823	5.32
386.033	6.86
386.242	3.5
386.452	-0.81
386.662	-12.17
386.872	7.42
387.082	5.12
387.291	-0.02
387.501	4.48
387.711	9.63
387.921	-2
388.13	-4.8
388.34	3.79
388.55	-5.07
388.759	-7.81
388.969	2.11
389.179	3.1
389.388	-0.52
389.598	7.3
389.807	1.91
390.017	-8.05
390.227	-7.45
390.436	-8.71
390.646	-5.71
390.855	0.17
391.065	0.39
391.274	1.53
391.484	0.43
391.693	1.8
391.903	2.48
392.112	8.75
392.322	10.7
392.531	12.83
392.74	12.42
392.95	8.8
393.159	5.3
393.369	4.05
393.578	3.18
393.787	0.52
393.997	3.14
394.206	2.17
394.415	3.74
394.625	3.3
394.834	2.32
395.043	2.62
395.252	4.98
395.462	5.9
395.671	6.28
395.88	7.27
396.089	7.47
396.298	5.28
396.508	4.48
396.717	4.42
396.926	5.21
397.135	4.04
397.344	5.04
397.553	5.94
397.762	7.18
397.971	6.74
398.181	7.55
398.39	6.29
398.599	5.5
398.808	5.37
399.017	6.55
399.226	8.07
399.435	9.85
399.644	9.94
399.853	9.14
400.062	8.36
400.27	7.08
400.479	6.14
400.688	5.56
400.897	5.63
401.106	5.86
401.315	6.12
401.524	6.19
401.733	6.69
401.941	7.25
402.15	7.15
402.359	6.75
402.568	7.01
402.777	7.03
402.985	6.79
403.194	6.52
403.403	6.66
403.612	6.43
403.82	6.13
404.029	6.04
404.238	5.95
404.446	6.05
404.655	5.77
404.864	5.99
405.072	5.75
405.281	5.89
405.489	5.67
405.698	5.65
405.906	5.42
406.115	5.62
406.324	5.64
406.532	5.85
406.741	6.15
406.949	6.18
407.158	5.99
407.366	5.9
407.574	5.67
407.783	5.56
407.991	5.51
408.2	5.6
408.408	5.58
408.617	5.56
408.825	5.39
409.033	5.47
409.242	5.48
409.45	5.58
409.658	5.46
409.867	5.66
410.075	5.49
410.283	5.39
410.491	5.27
410.7	5.33
410.908	5.26
411.116	5.5
411.324	5.52
411.533	5.45
411.741	5.58
411.949	5.65
412.157	5.43
412.365	5.46
412.573	5.47
412.781	5.47
412.99	5.29
413.198	5.35
413.406	5.27
413.614	5.28
413.822	5.13
414.03	5.09
414.238	4.86
414.446	4.94
414.654	4.88
414.862	5.07
415.07	5.23
415.278	5.42
415.486	5.24
415.694	5.26
415.902	5.04
416.109	4.78
416.317	4.71
416.525	4.68
416.733	4.66
416.941	4.78
417.149	4.94
417.357	4.94
417.564	5.13
417.772	5.27
417.98	5.13
418.188	5.12
418.395	5.14
418.603	5.23
418.811	4.85
419.019	4.84
419.226	4.91
419.434	5.04
419.642	4.8
419.849	4.97
420.057	4.91
420.265	4.88
420.472	4.64
420.68	4.71
420.887	4.62
421.095	4.6
421.302	4.58
421.51	4.77
421.717	4.79
421.925	4.88
422.132	4.85
422.34	4.56
422.547	4.51
422.755	4.36
422.962	4.19
423.17	4.15
423.377	4.29
423.585	4.24
423.792	4.2
423.999	4.35
424.207	4.28
424.414	4.35
424.621	4.35
424.829	4.43
425.036	4.42
425.243	4.58
425.451	4.37
425.658	4.23
425.865	4.34
426.072	4.44
426.28	4.6
426.487	4.69
426.694	4.82
426.901	4.6
427.108	4.55
427.315	4.41
427.523	4.65
427.73	4.49
427.937	4.55
428.144	4.36
428.351	4.43
428.558	4.42
428.765	4.47
428.972	4.52
429.179	4.85
429.386	4.93
429.593	4.75
429.8	4.64
430.007	4.64
430.214	4.63
430.421	4.53
430.628	4.37
430.835	4.48
431.042	4.68
431.249	4.63
431.456	4.75
431.662	4.93
431.869	5.08
432.076	5.03
432.283	5.13
432.49	4.99
432.697	5.07
432.903	4.84
433.11	4.75
433.317	4.75
433.524	5.07
433.73	4.96
433.937	5.29
434.144	5.26
434.35	5.23
434.557	4.92
434.764	5.04
434.97	4.85
435.177	4.97
435.384	4.87
435.59	4.96
435.797	5.1
436.003	5.28
436.21	5.25
436.416	5.32
436.623	5.29
436.829	5.32
437.036	5.35
437.242	5.42
437.449	5.32
437.655	5.48
437.862	5.42
438.068	5.36
438.275	5.44
438.481	5.77
438.687	5.7
438.894	5.67
439.1	5.67
439.307	5.89
439.513	5.73
439.719	5.69
439.926	5.86
440.132	5.87
440.338	5.58
440.544	5.82
440.751	5.87
440.957	5.88
441.163	5.81
441.369	5.93
441.575	5.62
441.782	5.63
441.988	5.52
442.194	5.61
442.4	5.72
442.606	6.03
442.812	6.18
443.018	6.35
443.224	6.4
443.431	6.34
443.637	6.19
443.843	6.12
444.049	6.16
444.255	6.12
444.461	6.18
444.667	6.14
444.873	6.19
445.079	6.11
445.284	6.22
445.49	6.08
445.696	6.05
445.902	6.06
446.108	6
446.314	6
446.52	6.06
446.726	6.29
446.931	6.25
447.137	6.28
447.343	6.25
447.549	6.24
447.755	6.06
447.96	6.14
448.166	6.16
448.372	6.14
448.578	6.22
448.783	6.27
448.989	6.27
449.195	6.45
449.4	6.51
449.606	6.44
449.812	6.43
450.017	6.46
450.223	6.31
450.428	6.23
450.634	6.37
450.84	6.43
451.045	6.43
451.251	6.43
451.456	6.74
451.662	6.75
451.867	6.81
452.073	6.79
452.278	6.9
452.483	6.87
452.689	6.86
452.894	6.92
453.1	6.9
453.305	6.82
453.51	6.77
453.716	6.69
453.921	6.59
454.127	6.6
454.332	6.56
454.537	6.43
454.742	6.45
454.948	6.49
455.153	6.54
455.358	6.66
455.563	6.89
455.769	7.03
455.974	6.98
456.179	6.85
456.384	6.83
456.589	6.7
456.795	6.44
457	6.46
457.205	6.74
457.41	6.8
457.615	6.76
457.82	6.9
458.025	6.94
458.23	6.89
458.435	6.91
458.64	6.86
458.845	7.09
459.05	7.07
459.255	6.97
459.46	6.98
459.665	7.04
459.87	6.93
460.075	6.93
460.28	6.97
460.485	7.04
460.69	7.11
460.895	6.94
461.099	6.95
461.304	7.05
461.509	7.02
461.714	6.93
461.919	7.24
462.123	7.19
462.328	7.26
462.533	7.2
462.738	7.43
462.942	7.17
463.147	7.32
463.352	7.36
463.556	7.39
463.761	7.34
463.966	7.49
464.17	7.52
464.375	7.41
464.58	7.37
464.784	7.29
464.989	7.19
465.193	7.25
465.398	7.31
465.602	7.5
465.807	7.52
466.011	7.68
466.216	7.69
466.42	7.74
466.625	7.74
466.829	7.85
467.034	7.93
467.238	8.08
467.443	8.03
467.647	7.9
467.851	7.94
468.056	7.86
468.26	7.7
468.464	7.73
468.669	7.87
468.873	7.94
469.077	7.93
469.282	8.07
469.486	8.13
469.69	8.16
469.894	8.11
470.099	8.26
470.303	8.31
470.507	8.23
470.711	8.15
470.915	8.2
471.119	8.12
471.324	8.05
471.528	8.17
471.732	8.23
471.936	8.2
472.14	8.28
472.344	8.33
472.548	8.39
472.752	8.56
472.956	8.87
473.16	8.91
473.364	8.87
473.568	8.87
473.772	8.85
473.976	8.61
474.18	8.57
474.384	8.63
474.588	8.61
474.792	8.45
474.995	8.5
475.199	8.65
475.403	8.71
475.607	8.71
475.811	8.78
476.015	8.82
476.218	8.8
476.422	8.71
476.626	8.83
476.83	9.01
477.033	8.97
477.237	8.93
477.441	9.01
477.644	8.95
477.848	8.92
478.052	8.91
478.255	8.93
478.459	8.99
478.663	9.1
478.866	9.16
479.07	9.21
479.273	9.39
479.477	9.41
479.681	9.45
479.884	9.37
480.088	9.41
480.291	9.3
480.495	9.29
480.698	9.25
480.901	9.28
481.105	9.3
481.308	9.28
481.512	9.31
481.715	9.44
481.919	9.5
482.122	9.56
482.325	9.62
482.529	9.61
482.732	9.55
482.935	9.44
483.138	9.38
483.342	9.42
483.545	9.54
483.748	9.61
483.952	9.7
484.155	9.81
484.358	9.92
484.561	9.85
484.764	9.8
484.967	9.92
485.171	9.96
485.374	9.85
485.577	9.88
485.78	9.86
485.983	9.78
486.186	9.69
486.389	9.75
486.592	9.72
486.795	9.82
486.998	9.74
487.201	9.81
487.404	9.85
487.607	10.04
487.81	9.97
488.013	10.13
488.216	10.11
488.419	10.06
488.622	9.89
488.825	9.9
489.028	9.82
489.231	9.7
489.433	9.64
489.636	9.61
489.839	9.63
490.042	9.58
490.245	9.69
490.447	9.81
490.65	9.88
490.853	9.85
491.056	9.91
491.258	9.92
491.461	9.9
491.664	9.9
491.866	9.92
492.069	10.01
492.272	9.93
492.474	10.01
492.677	10.12
492.879	10.23
493.082	10.29
493.285	10.46
493.487	10.35
493.69	10.24
493.892	10.09
494.095	9.95
494.297	9.86
494.5	9.95
494.702	9.97
494.905	10.03
495.107	10.08
495.309	10.08
495.512	10.13
495.714	10.18
495.917	10.28
496.119	10.29
496.321	10.4
496.524	10.39
496.726	10.42
496.928	10.42
497.13	10.47
497.333	10.43
497.535	10.47
497.737	10.46
497.939	10.43
498.142	10.41
498.344	10.46
498.546	10.38
498.748	10.45
498.95	10.52
499.152	10.56
499.355	10.53
499.557	10.66
499.759	10.75
499.961	10.76
500.163	10.8
500.365	10.88
500.567	10.89
500.769	10.85
500.971	10.89
501.173	10.82
501.375	10.91
501.577	10.87
501.779	10.86
501.981	10.84
502.183	10.88
502.385	10.84
502.587	10.84
502.788	10.91
502.99	10.98
503.192	11.09
503.394	11.04
503.596	11.09
503.798	11.15
503.999	11.18
504.201	11.19
504.403	11.32
504.605	11.37
504.806	11.28
505.008	11.31
505.21	11.36
505.411	11.34
505.613	11.35
505.815	11.41
506.016	11.45
506.218	11.55
506.42	11.54
506.621	11.6
506.823	11.63
507.024	11.65
507.226	11.58
507.427	11.65
507.629	11.75
507.83	11.83
508.032	11.86
508.233	11.98
508.435	12.07
508.636	12.12
508.838	12.07
509.039	12.14
509.24	12.12
509.442	12.16
509.643	12.12
509.845	12.2
510.046	12.24
510.247	12.28
510.448	12.27
510.65	12.32
510.851	12.42
511.052	12.46
511.254	12.5
511.455	12.61
511.656	12.69
511.857	12.74
512.058	12.71
512.26	12.75
512.461	12.74
512.662	12.78
512.863	12.7
513.064	12.73
513.265	12.72
513.466	12.76
513.667	12.69
513.868	12.8
514.069	12.95
514.27	13.04
514.471	13.06
514.672	13.17
514.873	13.12
515.074	13.17
515.275	13.09
515.476	13.12
515.677	13.11
515.878	13.29
516.079	13.25
516.28	13.34
516.481	13.49
516.682	13.54
516.882	13.44
517.083	13.46
517.284	13.48
517.485	13.47
517.686	13.42
517.886	13.43
518.087	13.41
518.288	13.47
518.488	13.44
518.689	13.48
518.89	13.48
519.091	13.55
519.291	13.52
519.492	13.54
519.692	13.58
519.893	13.69
520.094	13.66
520.294	13.66
520.495	13.65
520.695	13.7
520.896	13.69
521.096	13.82
521.297	13.86
521.497	13.9
521.698	13.85
521.898	13.88
522.099	13.88
522.299	13.97
522.499	14
522.7	14.09
522.9	14.11
523.101	14.12
523.301	14.1
523.501	14.11
523.702	14.09
523.902	14.14
524.102	14.19
524.302	14.17
524.503	14.23
524.703	14.29
524.903	14.3
525.103	14.22
525.304	14.32
525.504	14.34
525.704	14.37
525.904	14.42
526.104	14.56
526.304	14.56
526.504	14.6
526.705	14.61
526.905	14.71
527.105	14.66
527.305	14.68
527.505	14.65
527.705	14.71
527.905	14.65
528.105	14.66
528.305	14.63
528.505	14.72
528.705	14.78
528.905	14.78
529.105	14.9
529.304	15
529.504	15.05
529.704	15.04
529.904	15.06
530.104	15.06
530.304	15.09
530.503	15.02
530.703	14.95
530.903	15
531.103	15
531.303	14.97
531.502	15.06
531.702	15.2
531.902	15.26
532.101	15.29
532.301	15.38
532.501	15.42
532.7	15.38
532.9	15.42
533.1	15.43
533.299	15.42
533.499	15.43
533.698	15.45
533.898	15.46
534.097	15.51
534.297	15.63
534.496	15.68
534.696	15.74
534.895	15.86
535.095	15.97
535.294	15.95
535.494	15.87
535.693	15.91
535.892	15.85
536.092	15.75
536.291	15.74
536.491	15.83
536.69	15.92
536.889	15.9
537.088	15.95
537.288	16.02
537.487	16.13
537.686	16.12
537.886	16.23
538.085	16.26
538.284	16.38
538.483	16.34
538.682	16.39
538.882	16.47
539.081	16.54
539.28	16.43
539.479	16.5
539.678	16.54
539.877	16.6
540.076	16.67
540.275	16.82
540.474	16.88
540.673	16.95
540.872	16.96
541.071	16.97
541.27	16.95
541.469	17.05
541.668	17.03
541.867	17.04
542.066	17.11
542.265	17.24
542.464	17.22
542.663	17.33
542.862	17.52
543.06	17.64
543.259	17.74
543.458	17.88
543.657	17.92
543.856	17.93
544.054	17.86
544.253	17.78
544.452	17.73
544.651	17.83
544.849	17.86
545.048	18
545.247	18.12
545.445	18.24
545.644	18.24
545.843	18.19
546.041	18.23
546.24	18.34
546.438	18.44
546.637	18.54
546.836	18.72
547.034	18.84
547.233	18.89
547.431	18.93
547.63	19
547.828	19.04
548.027	19.08
548.225	19.09
548.423	19.11
548.622	19.2
548.82	19.31
549.019	19.37
549.217	19.53
549.415	19.61
549.614	19.69
549.812	19.75
550.01	19.83
550.209	19.89
550.407	20.08
550.605	20.04
550.803	20.18
551.002	20.26
551.2	20.36
551.398	20.41
551.596	20.62
551.794	20.63
551.993	20.75
552.191	20.81
552.389	20.9
552.587	20.97
552.785	21.14
552.983	21.19
553.181	21.37
553.379	21.46
553.577	21.53
553.775	21.55
553.973	21.67
554.171	21.69
554.369	21.82
554.567	21.96
554.765	22.08
554.963	22.18
555.161	22.19
555.359	22.27
555.557	22.4
555.755	22.52
555.952	22.7
556.15	22.91
556.348	22.95
556.546	23.05
556.744	23.17
556.941	23.21
557.139	23.32
557.337	23.42
557.535	23.41
557.732	23.54
557.93	23.68
558.128	23.76
558.325	23.89
558.523	24.04
558.721	24.12
558.918	24.17
559.116	24.33
559.313	24.45
559.511	24.59
559.708	24.65
559.906	24.78
560.104	24.87
560.301	25.06
560.498	25.15
560.696	25.29
560.893	25.43
561.091	25.57
561.288	25.66
561.486	25.73
561.683	25.85
561.88	26
562.078	26.06
562.275	26.09
562.473	26.21
562.67	26.31
562.867	26.32
563.064	26.4
563.262	26.48
563.459	26.6
563.656	26.78
563.853	26.88
564.051	26.99
564.248	27.19
564.445	27.37
564.642	27.45
564.839	27.64
565.036	27.74
565.234	27.94
565.431	27.97
565.628	28.1
565.825	28.2
566.022	28.37
566.219	28.37
566.416	28.51
566.613	28.61
566.81	28.64
567.007	28.66
567.204	28.69
567.401	28.79
567.598	28.8
567.795	28.95
567.991	29.05
568.188	29.19
568.385	29.3
568.582	29.41
568.779	29.51
568.976	29.64
569.172	29.73
569.369	29.67
569.566	29.73
569.763	29.7
569.96	29.64
570.156	29.7
570.353	29.77
570.55	29.82
570.746	29.94
570.943	29.97
571.14	29.98
571.336	30.14
571.533	30.19
571.729	30.17
571.926	30.32
572.123	30.39
572.319	30.42
572.516	30.45
572.712	30.54
572.909	30.48
573.105	30.51
573.302	30.57
573.498	30.76
573.695	30.81
573.891	30.93
574.087	30.97
574.284	30.94
574.48	30.81
574.677	30.8
574.873	30.81
575.069	30.88
575.266	30.89
575.462	30.91
575.658	30.99
575.854	31.07
576.051	31.02
576.247	30.95
576.443	31.01
576.639	30.93
576.835	30.8
577.032	30.83
577.228	31.03
577.424	31
577.62	31.03
577.816	31.15
578.012	31.14
578.208	31.09
578.404	31.17
578.6	31.22
578.796	31.18
578.993	31.25
579.189	31.2
579.384	31.06
579.58	31.01
579.776	31.09
579.972	30.99
580.168	30.91
580.364	30.99
580.56	30.93
580.756	30.78
580.952	30.75
581.148	30.84
581.343	30.84
581.539	30.91
581.735	30.95
581.931	31.01
582.127	31.01
582.322	30.94
582.518	31
582.714	30.94
582.909	30.98
583.105	30.96
583.301	30.95
583.496	30.91
583.692	30.84
583.888	30.67
584.083	30.68
584.279	30.7
584.474	30.59
584.67	30.64
584.866	30.83
585.061	30.65
585.257	30.71
585.452	30.72
585.648	30.71
585.843	30.55
586.039	30.67
586.234	30.73
586.429	30.74
586.625	30.87
586.82	30.98
587.015	31.02
587.211	30.8
587.406	30.84
587.601	30.8
587.797	30.71
587.992	30.73
588.187	30.84
588.383	30.81
588.578	30.77
588.773	30.82
588.968	30.83
589.163	30.9
589.359	30.91
589.554	30.86
589.749	30.89
589.944	30.97
590.139	30.99
590.334	31.04
590.529	31.12
590.724	31.22
590.919	31.23
591.114	31.15
591.309	31.19
591.504	31.27
591.699	31.3
591.894	31.32
592.089	31.32
592.284	31.41
592.479	31.54
592.674	31.61
592.869	31.7
593.064	31.91
593.259	32.04
593.454	32.14
593.648	32.09
593.843	32.16
594.038	32.12
594.233	32.04
594.428	31.96
594.622	32.11
594.817	32.2
595.012	32.34
595.206	32.44
595.401	32.6
595.596	32.63
595.79	32.77
595.985	32.85
596.18	33
596.374	33.02
596.569	33.07
596.763	33.04
596.958	33.16
597.153	33.14
597.347	33.16
597.542	33.3
597.736	33.28
597.931	33.27
598.125	33.3
598.319	33.42
598.514	33.46
598.708	33.64
598.903	33.67
599.097	33.82
599.291	33.86
599.486	33.76
599.68	33.73
599.874	33.83
600.069	33.84
600.263	33.89
600.457	34.1
600.651	34.19
600.846	34.26
601.04	34.29
601.234	34.38
601.428	34.37
601.622	34.41
601.817	34.52
602.011	34.56
602.205	34.56
602.399	34.54
602.593	34.53
602.787	34.43
602.981	34.38
603.175	34.49
603.369	34.42
603.563	34.45
603.757	34.48
603.951	34.5
604.145	34.43
604.339	34.53
604.533	34.41
604.727	34.33
604.921	34.25
605.115	34.15
605.309	34.2
605.502	34.22
605.696	34.23
605.89	34.2
606.084	34.15
606.278	34.06
606.471	33.95
606.665	33.85
606.859	33.78
607.053	33.7
607.246	33.67
607.44	33.72
607.634	33.7
607.827	33.68
608.021	33.65
608.214	33.57
608.408	33.49
608.602	33.43
608.795	33.41
608.989	33.36
609.182	33.26
609.376	33.19
609.569	33.02
609.763	32.85
609.956	32.75
610.15	32.71
610.343	32.72
610.537	32.62
610.73	32.75
610.923	32.7
611.117	32.68
611.31	32.54
611.504	32.57
611.697	32.39
611.89	32.24
612.083	32.12
612.277	32.11
612.47	32.1
612.663	32.06
612.856	32.03
613.05	31.97
613.243	31.86
613.436	31.75
613.629	31.66
613.822	31.6
614.015	31.43
614.209	31.19
614.402	31.1
614.595	31.07
614.788	31.02
614.981	30.99
615.174	30.87
615.367	30.7
615.56	30.54
615.753	30.5
615.946	30.37
616.139	30.51
616.332	30.68
616.525	30.76
616.718	30.78
616.911	30.74
617.103	30.64
617.296	30.53
617.489	30.36
617.682	30.23
617.875	30.3
618.067	30.26
618.26	30.14
618.453	30.18
618.646	30.18
618.838	30.06
619.031	30.13
619.224	30.21
619.417	30.12
619.609	30.12
619.802	30.05
619.994	29.96
620.187	29.9
620.38	29.93
620.572	29.83
620.765	29.99
620.957	29.89
621.15	29.77
621.342	29.64
621.535	29.65
621.727	29.51
621.92	29.38
622.112	29.42
622.305	29.54
622.497	29.35
622.69	29.38
622.882	29.46
623.074	29.43
623.267	29.31
623.459	29.3
623.651	29.22
623.844	29.23
624.036	29.23
624.228	29.15
624.42	29.18
624.613	29.24
624.805	29.23
624.997	29.17
625.189	29.19
625.381	29.17
625.574	29.02
625.766	28.91
625.958	28.89
626.15	28.87
626.342	28.87
626.534	28.89
626.726	28.8
626.918	28.75
627.11	28.66
627.302	28.62
627.494	28.59
627.686	28.7
627.878	28.58
628.07	28.56
628.262	28.5
628.454	28.47
628.646	28.46
628.838	28.53
629.029	28.58
629.221	28.63
629.413	28.52
629.605	28.42
629.797	28.29
629.989	28.3
630.18	28.18
630.372	28.23
630.564	28.14
630.755	28.31
630.947	28.34
631.139	28.32
631.33	28.13
631.522	28.3
631.714	28.21
631.905	28.01
632.097	27.95
632.289	28.07
632.48	27.89
632.672	27.76
632.863	27.75
633.055	27.74
633.246	27.74
633.438	27.71
633.629	27.75
633.821	27.63
634.012	27.6
634.203	27.48
634.395	27.5
634.586	27.54
634.777	27.58
634.969	27.67
635.16	27.73
635.351	27.61
635.543	27.6
635.734	27.65
635.925	27.5
636.117	27.46
636.308	27.61
636.499	27.49
636.69	27.38
636.881	27.39
637.073	27.44
637.264	27.34
637.455	27.42
637.646	27.58
637.837	27.63
638.028	27.54
638.219	27.61
638.41	27.51
638.601	27.41
638.792	27.38
638.983	27.35
639.174	27.31
639.365	27.38
639.556	27.24
639.747	27.17
639.938	27.18
640.129	27.08
640.32	26.94
640.511	27.03
640.701	27.12
640.892	27
641.083	27.02
641.274	27.12
641.465	27.1
641.655	27.01
641.846	27.02
642.037	27.05
642.228	26.98
642.418	27.02
642.609	27.09
642.8	27.15
642.99	27.03
643.181	27.09
643.372	27.01
643.562	26.95
643.753	26.85
643.943	26.8
644.134	26.63
644.324	26.6
644.515	26.53
644.705	26.53
644.896	26.59
645.086	26.66
645.277	26.58
645.467	26.54
645.658	26.5
645.848	26.45
646.038	26.35
646.229	26.37
646.419	26.27
646.61	26.21
646.8	26.11
646.99	26.1
647.18	26.02
647.371	25.99
647.561	25.98
647.751	25.93
647.941	25.73
648.132	25.77
648.322	25.79
648.512	25.77
648.702	25.77
648.892	25.8
649.082	25.64
649.272	25.51
649.462	25.31
649.653	25.26
649.843	25.34
650.033	25.32
650.223	25.36
650.413	25.28
650.603	25.3
650.793	25.23
650.983	25.16
651.172	24.95
651.362	25
651.552	24.82
651.742	24.67
651.932	24.6
652.122	24.71
652.312	24.72
652.502	24.71
652.691	24.67
652.881	24.65
653.071	24.63
653.261	24.42
653.45	24.2
653.64	24.09
653.83	23.82
654.019	23.61
654.209	23.54
654.399	23.58
654.588	23.39
654.778	23.39
654.968	23.21
655.157	23.06
655.347	22.84
655.536	22.66
655.726	22.44
655.915	22.26
656.105	22
656.294	21.84
656.484	21.67
656.673	21.56
656.863	21.49
657.052	21.37
657.241	21.18
657.431	20.97
657.62	20.75
657.809	20.4
657.999	20.28
658.188	20.08
658.377	19.98
658.567	19.73
658.756	19.54
658.945	19.29
659.134	19.02
659.324	18.79
659.513	18.62
659.702	18.5
659.891	18.4
660.08	18.19
660.269	18.06
660.458	17.93
660.648	17.7
660.837	17.41
661.026	17.32
661.215	17.1
661.404	16.81
661.593	16.64
661.782	16.37
661.971	16.19
662.16	15.97
662.349	15.72
662.538	15.48
662.726	15.39
662.915	15.06
663.104	14.88
663.293	14.88
663.482	14.94
663.671	14.77
663.86	14.77
664.048	14.63
664.237	14.51
664.426	14.13
664.615	13.96
664.803	13.8
664.992	13.69
665.181	13.49
665.369	13.42
665.558	13.31
665.747	13.12
665.935	13.05
666.124	13.02
666.312	12.96
666.501	12.82
666.69	12.72
666.878	12.54
667.067	12.31
667.255	12.29
667.444	12.47
667.632	12.48
667.82	12.46
668.009	12.44
668.197	12.27
668.386	12
668.574	12
668.762	11.95
668.951	11.76
669.139	11.67
669.327	11.6
669.516	11.55
669.704	11.35
669.892	11.46
670.08	11.53
670.269	11.45
670.457	11.27
670.645	11.25
670.833	11.36
671.021	11.29
671.21	11.36
671.398	11.55
671.586	11.62
671.774	11.39
671.962	11.36
672.15	11.33
672.338	11.15
672.526	11.2
672.714	11.23
672.902	11.2
673.09	11.24
673.278	11.4
673.466	11.41
673.654	11.56
673.842	11.64
674.03	11.64
674.218	11.51
674.405	11.45
674.593	11.24
674.781	11.35
674.969	11.32
675.157	11.56
675.344	11.71
675.532	11.94
675.72	11.99
675.908	12.17
676.095	12.02
676.283	12.11
676.471	12.2
676.658	12.27
676.846	12.3
677.033	12.57
677.221	12.64
677.409	12.59
677.596	12.6
677.784	12.67
677.971	12.63
678.159	12.63
678.346	12.83
678.534	12.89
678.721	12.97
678.909	13.05
679.096	13.02
679.283	13.18
679.471	13.37
679.658	13.52
679.846	13.64
680.033	14.03
680.22	14.01
680.408	13.99
680.595	14.13
680.782	14.29
680.969	14.36
681.157	14.46
681.344	14.64
681.531	14.78
681.718	14.91
681.905	15.14
682.093	15.45
682.28	15.75
682.467	15.99
682.654	16.21
682.841	16.27
683.028	16.45
683.215	16.74
683.402	16.78
683.589	17.05
683.776	17.37
683.963	17.57
684.15	17.73
684.337	18.16
684.524	18.38
684.711	18.86
684.898	19.06
685.085	19.43
685.271	19.79
685.458	20.17
685.645	20.25
685.832	20.76
686.019	21.14
686.205	21.3
686.392	21.7
686.579	22.11
686.766	22.56
686.952	22.88
687.139	23.43
687.326	23.84
687.512	24.28
687.699	24.7
687.886	25.19
688.072	25.63
688.259	25.98
688.445	26.4
688.632	26.86
688.818	27.52
689.005	27.84
689.191	28.36
689.378	29.11
689.564	29.66
689.751	29.98
689.937	30.73
690.124	31.28
690.31	31.41
690.496	31.92
690.683	32.48
690.869	33.08
691.055	33.66
691.242	34.53
691.428	35.05
691.614	35.57
691.8	36.37
691.987	37.14
692.173	37.64
692.359	38.17
692.545	38.84
692.731	39.26
692.918	39.65
693.104	40.44
693.29	41.18
693.476	41.88
693.662	42.29
693.848	42.84
694.034	43.25
694.22	43.63
694.406	44.15
694.592	44.81
694.778	45.46
694.964	46.12
695.15	46.87
695.336	47.24
695.522	47.9
695.708	48.49
695.894	48.98
696.08	49.53
696.265	50.08
696.451	50.55
696.637	51.09
696.823	51.54
697.009	51.73
697.194	52.32
697.38	52.63
697.566	52.89
697.751	53.45
697.937	54.23
698.123	54.79
698.308	55.48
698.494	56.02
698.68	56.56
698.865	56.98
699.051	57.7
699.236	57.96
699.422	58.38
699.607	58.54
699.793	58.72
699.978	58.66
700.164	58.89
700.349	59.45
700.535	59.88
700.72	60.28
700.906	60.79
701.091	61.31
701.276	61.74
701.462	62.43
701.647	63.16
701.832	63.58
702.018	63.95
702.203	64.04
702.388	63.98
702.573	64.03
702.759	64.37
702.944	64.55
703.129	64.71
703.314	64.98
703.499	65.26
703.684	65.16
703.87	66.02
704.055	66.57
704.24	66.96
704.425	67.53
704.61	68.16
704.795	68.04
704.98	68.19
705.165	68.07
705.35	67.91
705.535	67.99
705.72	68.02
705.905	68.21
706.09	69.06
706.275	69.4
706.459	69.63
706.644	69.75
706.829	70.13
707.014	70.01
707.199	70.05
707.384	70.29
707.568	70.57
707.753	70.69
707.938	70.77
708.123	71.08
708.307	70.85
708.492	70.74
708.677	70.95
708.861	71.21
709.046	71.04
709.231	71.86
709.415	72.39
709.6	72.07
709.784	71.96
709.969	72.27
710.153	71.86
710.338	72.04
710.522	72.71
710.707	73.31
710.891	73.37
711.076	73.48
711.26	73.29
711.445	73.29
711.629	72.93
711.813	73.24
711.998	73.53
712.182	73.61
712.366	73.99
712.551	74.57
712.735	74.61
712.919	74.5
713.103	74.8
713.288	74.2
713.472	73.91
713.656	74.26
713.84	74.64
714.024	74.78
714.208	75.03
714.393	75.28
714.577	75.3
714.761	75.1
714.945	75.33
715.129	75.38
715.313	75.52
715.497	75.72
715.681	76.85
715.865	76.79
716.049	77.21
716.233	76.91
716.417	76.82
716.601	75.96
716.785	75.22
716.968	75.06
717.152	75.43
717.336	75.39
717.52	75.2
717.704	76.14
717.888	76.79
718.071	76.79
718.255	76.89
718.439	77.07
718.622	76.92
718.806	76.63
718.99	76.25
719.174	76.16
719.357	76.56
719.541	76.7
719.724	76.63
719.908	77.71
720.092	78.35
720.275	77.83
720.459	77.64
720.642	77.25
720.826	76.23
721.009	75.32
721.193	75.39
721.376	75.49
721.559	76.05
721.743	76.6
721.926	77.49
722.11	77.96
722.293	77.8
722.476	76.9
722.66	76.97
722.843	76.66
723.026	75.97
723.21	75.91
723.393	76.98
723.576	76.64
723.759	76.12
723.942	76.62
724.126	76.94
724.309	76.66
724.492	76.52
724.675	76.79
724.858	76.97
725.041	77.58
725.224	77.62
725.407	78.11
725.59	78.84
725.774	78.57
725.957	77.37
726.14	77.11
726.322	77.31
726.505	76.65
726.688	77.55
726.871	78.05
727.054	79.04
727.237	78.7
727.42	79.04
727.603	78.45
727.786	78.54
727.968	77.77
728.151	77.86
728.334	77.84
728.517	77.67
728.699	78.18
728.882	78.52
729.065	79.13
729.248	78.94
729.43	79.09
729.613	79.23
729.796	79.16
729.978	78
730.161	78.02
730.343	78.06
730.526	78.38
730.708	77.92
730.891	78.43
731.073	78.52
731.256	78.09
731.438	77.66
731.621	78.96
731.803	78.95
731.986	79.36
732.168	79.56
732.35	79.71
732.533	79.47
732.715	79.83
732.898	80.27
733.08	80.97
733.262	81.31
733.444	80.49
733.627	80.46
733.809	79.75
733.991	80.08
734.173	79.28
734.355	79.42
734.538	79.78
734.72	79.68
734.902	80.35
735.084	80.84
735.266	80.83
735.448	80.95
735.63	80.76
735.812	80.13
735.994	80.27
736.176	81.14
736.358	80.8
736.54	82.09
736.722	81.09
736.904	81.43
737.086	80.74
737.268	81
737.45	80.52
737.632	81.19
737.814	79.98
737.995	80.01
738.177	79.93
738.359	79.35
738.541	79.29
738.723	80.87
738.904	81.79
739.086	82.22
739.268	82.51
739.449	82.54
739.631	81.41
739.813	80.84
739.994	80.74
740.176	81.21
740.358	80.97
740.539	82.22
740.721	82.42
740.902	83.17
741.084	82.81
741.265	82.99
741.447	81.73
741.628	82.29
741.81	81.2
741.991	82.05
742.172	83.17
742.354	84.35
742.535	84.29
742.717	85.03
742.898	84.76
743.079	84.28
743.261	83.29
743.442	82.15
743.623	82.41
743.804	82.57
743.986	82.82
744.167	81.78
744.348	82.54
744.529	82.45
744.71	80.78
744.891	79.83
745.073	80.21
745.254	79.85
745.435	78.85
745.616	78.94
745.797	79.12
745.978	79.7
746.159	79.77
746.34	79.52
746.521	81.57
746.702	81.59
746.883	81.26
747.064	80.79
747.245	81.68
747.426	80.82
747.606	81.01
747.787	82.2
747.968	82.41
748.149	82.11
748.33	81.66
748.51	81.69
748.691	80.32
748.872	81.11
749.053	80.5
749.233	80.76
749.414	80.13
749.595	80.49
749.775	78.71
749.956	79.64
750.137	79.78
750.317	80.23
750.498	81.57
750.678	81.49
750.859	81.5
751.04	80.89
751.22	79.68
751.4	78.29
751.581	77.78
751.761	77.22
751.942	78.02
752.122	78.26
752.303	78.49
752.483	79.72
752.663	79.65
752.844	79.47
753.024	81.57
753.204	82.54
753.385	81.16
753.565	81.79
753.745	81.06
753.925	79.1
754.106	77.82
754.286	79.29
754.466	78.33
754.646	78.39
754.826	79.51
755.006	79.43
755.187	80.13
755.367	81.44
755.547	82
755.727	82.14
755.907	81.56
756.087	82.28
756.267	80.32
756.447	79.32
756.627	77.29
756.807	78.41
756.987	77.73
757.167	78.75
757.346	79.12
757.526	80.22
757.706	81
757.886	81.03
758.066	81.64
758.246	82.71
758.425	82.06
758.605	81.17
758.785	81.56
758.965	81.1
759.144	78.18
759.324	78.7
759.504	79.46
759.683	78.2
759.863	77.02
760.043	78.26
760.222	77.17
760.402	75.91
760.581	74.7
760.761	76.68
760.94	76.18
761.12	78.36
761.299	78.42
761.479	78.71
761.658	77.61
761.838	78.28
762.017	77.28
762.197	77.68
762.376	78.14
762.555	80
762.735	81.62
762.914	81.63
763.093	81.68
763.273	81.21
763.452	79.87
763.631	78.74
763.81	78.08
763.99	78.37
764.169	79.01
764.348	76.93
764.527	75.91
764.706	77.47
764.885	78.79
765.064	77.95
765.243	77.91
765.423	80.89
765.602	80.18
765.781	76.99
765.96	76.38
766.139	76.59
766.318	73.93
766.497	72.54
766.676	72.51
766.854	74.8
767.033	75.4
767.212	76.07
767.391	76.36
767.57	78.55
767.749	78.25
767.928	79.17
768.106	78.45
768.285	76.98
768.464	76.45
768.643	75.7
768.821	75.61
769	76.86
769.179	77.76
769.357	77.14
769.536	77.17
769.715	76.36
769.893	76.76
770.072	77.52
770.25	76.01
770.429	76.02
770.607	76.3
770.786	74.7
770.964	75.61
771.143	76.52
771.321	77.31
771.5	77.35
771.678	77.92
771.857	76.58
772.035	76.38
772.213	76.72
772.392	76.93
772.57	77.69
772.748	77.66
772.927	76.64
773.105	73.45
773.283	74.79
773.461	74.32
773.64	76.81
773.818	78.03
773.996	80.41
774.174	76.93
774.352	75.01
774.531	70.07
774.709	71.62
774.887	71.18
775.065	71.69
775.243	71.96
775.421	73.66
775.599	73
775.777	71.52
775.955	70.89
776.133	70.16
776.311	71.02
776.489	68.38
776.667	68.62
776.844	68.92
777.022	68.76
777.2	67.33
777.378	69.67
777.556	69.41
777.734	72.2
777.911	75.21
778.089	74.07
778.267	72.92
778.445	72.58
778.622	71.9
778.8	68.63
778.978	71.64
779.155	71.45
779.333	73.04
779.511	71.01
779.688	73.9
779.866	66.77
780.043	65.55
780.221	65.82
780.398	65.04
780.576	65.34
780.753	71.5
780.931	70.42
781.108	69.64
781.286	71.23
781.463	67.01
781.64	64.8
781.818	68.51
781.995	68.87
782.172	67.58
782.35	71.45
782.527	75.44
782.704	72.88
782.882	72.91
783.059	73.32
783.236	75.44
783.413	73.61
783.59	74.05
783.768	70.76
783.945	73.29
784.122	70.1
784.299	70.38
784.476	70.77
784.653	72.72
784.83	69.56
785.007	67.31
785.184	69.87
785.361	68.71
785.538	74.36
785.715	76.18
785.892	76.23
786.069	74.42
786.246	76.47
786.423	73.21
786.6	71.2
786.776	75.47
786.953	73.85
787.13	74.53
787.307	74.32
787.484	76.02
787.66	71.94
787.837	71.22
788.014	67.84
788.191	63.65
788.367	60.12
788.544	63.17
788.721	63.82
788.897	68.73
789.074	71.25
789.25	75.69
789.427	73.82
789.603	75.6
789.78	75.49
789.956	74.05
790.133	70.38
790.309	74.39
790.486	74.34
790.662	69.35
790.839	69.33
791.015	70.4
791.192	64.91
791.368	65.13
791.544	61.57
791.721	62.11
791.897	61.75
792.073	62
792.249	57.9
792.426	64.44
792.602	67.43
792.778	67.36
792.954	66.33
793.13	66.39
793.307	62.9
793.483	59.33
793.659	60.76
793.835	63.38
794.011	64.17
794.187	63.94
794.363	62.96
794.539	60.61
794.715	57.38
794.891	56.13
795.067	59.06
795.243	61.26
795.419	61.16
795.595	60.26
795.771	62.22
795.947	57.27
796.122	53.87
796.298	62.55
796.474	66.94
796.65	68.66
796.826	69.7
797.001	70.71
797.177	60.59
797.353	61.59
797.529	56.45
797.704	58.03
797.88	57.33
798.056	55.99
798.231	53.77
798.407	61.85
798.582	63.88
798.758	73.2
798.934	79.73
799.109	76.52
799.285	67.81
799.46	69.73
799.636	61.96
799.811	62.87
799.986	67.41
800.162	75.91
800.337	77
800.513	71.29
800.688	61.71
800.863	73.28
801.039	66.28
801.214	62.65
801.389	73.2
801.565	74.78
801.74	58.46
801.915	59.31
802.09	60.77
802.265	61.26
802.441	62.31
802.616	64.79
802.791	65.72
802.966	64.99
803.141	62.19
803.316	62.24
803.491	66.57
803.666	73.35
803.841	75.4
804.016	72.19
804.191	72.95
804.366	67.92
804.541	61.64
804.716	57.62
804.891	51.87
805.066	55.87
805.241	55.52
805.416	52.36
805.591	51.58
805.765	62.1
805.94	65.43
806.115	65.92
806.29	58.95
806.464	60.3
806.639	57.31
806.814	43.88
806.989	38.43
807.163	55.72
807.338	56.52
807.512	52.69
807.687	47.38
807.862	60.82
808.036	56.07
808.211	59.94
808.385	68.75
808.56	83.59
808.734	85.15
808.909	80.96
809.083	78.99
809.258	79.91
809.432	83.49
809.606	61
809.781	60.26
809.955	58.34
810.13	55.13
810.304	41.35
810.478	41.32
810.652	54.05
810.827	60.47
811.001	55.14
811.175	66.91
811.349	74.99
811.524	59.15
811.698	41.37
811.872	44.13
812.046	43.24
812.22	45.7
812.394	48.77
812.568	58.68
812.742	68.64
812.916	61.47
813.09	58.91
813.264	60.75
813.438	71.05
813.612	63.18
813.786	67.03
813.96	82.18
814.134	89.44
814.308	88.84
814.482	85.18
814.656	74.99
814.83	71.03
815.003	69.31
815.177	58.74
815.351	55.89
815.525	61.11
815.698	47.94
815.872	46.71
816.046	36.94
816.219	47.92
816.393	58.81
816.567	63.7
816.74	67.8
816.914	81.1
817.088	75.02
817.261	55.48
817.435	51.69
817.608	45.89
817.782	28.37
817.955	35.88
818.129	41.39
818.302	55.71
818.475	61.11
818.649	68.83
818.822	54.24
818.996	74.62
819.169	59.38
819.342	41.88
819.516	53.57
819.689	69.23
819.862	55.9
820.035	52.84
820.209	61.49
820.382	53.46
820.555	49.75
820.728	39.79
820.901	44.8
821.075	45.75
821.248	47.56
821.421	36.74
821.594	45.86
821.767	59.83
821.94	57.9
822.113	35.76
822.286	37.9
822.459	49.75
822.632	42.43
822.805	48.99
822.978	60.29
823.151	65.49
823.324	51.97
823.496	28.71
823.669	22.58
823.842	24.89
824.015	22.06
824.188	11.79
824.361	24.91
824.533	12.11
824.706	31.84
824.879	29.05
825.051	34.56
825.224	34.09
825.397	33.07
825.569	11.62
825.742	18.63
825.915	38.21
826.087	58.4
826.26	55.9
826.432	53.67
826.605	59.33
826.777	44.66
826.95	32.89
827.122	20.1
827.295	32.73
827.467	39.38
827.64	13.7
827.812	17.67
827.984	32.31
828.157	18.26
828.329	-23.21
828.501	-1.79
828.674	19.62
828.846	15.29
829.018	40.07
829.19	30.68
829.363	48.66
829.535	48.37
829.707	56.57
829.879	39.28
830.051	44.93
830.223	37.98
830.395	11.17
830.568	7.58
830.74	0.55
830.912	31.57
831.084	14.01
831.256	16.73
831.428	6.36
831.6	-12.17
831.772	-45.73
831.943	-53.98
832.115	-30.75
832.287	-9.21
832.459	13.05
832.631	34.34
832.803	56.15
832.975	79.74
833.146	78.75
833.318	87.8
833.49	94.45
833.662	81.07
833.833	41.58
834.005	36.44
834.177	43.29
834.348	18.94
834.52	1.93
834.692	21.62
834.863	24.06
835.035	7.41
835.206	6.17
835.378	26.32
835.549	10.72
835.721	16.33
835.892	30.13
836.064	33.82
836.235	40.93
836.407	76.43
836.578	69.15
836.749	58.84
836.921	25.74
837.092	2.75
837.264	-46.75
837.435	-48.46
837.606	-0.77
837.777	24.52
837.949	29.69
838.12	39.21
838.291	43.82
838.462	15.91
838.633	-7.87
838.805	-9.99
838.976	-18.59
839.147	-58.71
839.318	-49
839.489	-86.86
839.66	-55.78
839.831	-6
840.002	-9.19
840.173	-22.14
840.344	50.4
840.515	31.52
840.686	-71.86
840.857	-37.84
841.028	-6.88
841.199	-14.1
841.369	-25.37
841.54	-14.59
841.711	7.67
841.882	47.36
842.053	15.15
842.223	18.57
842.394	47.26
842.565	48.64
842.736	25.93
842.906	41.66
843.077	52.35
843.248	73.34
843.418	95.27
843.589	105.35
843.759	208.94
843.93	202.8
844.101	80.59
844.271	59.05
844.442	70.67
844.612	62.93
844.783	40.16
844.953	11.84
845.123	-1.67
845.294	-5.28
845.464	-203.58
845.635	-116.25
845.805	19.03
845.975	22.58
846.146	-29.17
846.316	-6.73
846.486	18.78
846.656	26.13
846.827	18.35
846.997	12.73
847.167	1.67
847.337	-1.67
847.507	-28.4
847.677	-2.32
847.848	46.06
848.018	56.74
848.188	59.22
848.358	47.56
848.528	27.96
848.698	2.63
848.868	-52.28
849.038	-130.04
849.208	-21.37
849.378	21.82
849.548	7.29
849.718	6.28
849.887	32.99
850.057	6.07
850.227	-23.25
850.397	-34.41
850.567	-105.11
850.737	-394.35
850.906	-1253.75
851.076	-851.56
851.246	-350.79
851.415	-20.85
851.585	-12.8
851.755	-30.65
851.924	6.77
852.094	-34.68
852.264	-119.03
852.433	-932.69
852.603	-157.67
852.772	-76.11
852.942	-19.1
853.111	-18.57
853.281	32.9
853.45	78.88
853.62	10.96
853.789	-4.11
853.959	25.57
854.128	46.84
854.297	-28.24
854.467	-15.32
854.636	-24.95
854.805	-9.44
854.975	-25.29
855.144	-8.49
855.313	66.43
855.482	-42.34
855.652	8.1
855.821	-37.79
855.99	30.77
856.159	27.44
856.328	45.64
856.497	36.05
856.667	42.32
856.836	62.57
857.005	48.07
857.174	22.25
857.343	-11.57
857.512	41.44
857.681	-25.88
857.85	-55.3
858.019	-18.5
858.188	9.57
858.356	-44.68
858.525	-111.2
858.694	-102.44
858.863	-212.53
859.032	-160.55
859.201	-227.89
859.369	-104.34
859.538	-42.98
859.707	-3.85
859.876	-8.44
860.044	-4.08
860.213	40.05
860.382	38.57
860.55	39.78
860.719	52.95
860.888	78.95
861.056	62.57
861.225	35.93
861.393	96.09
861.562	121.62
861.73	71.88
861.899	159.69
862.067	658.62
862.236	-13.03
862.404	-178.39
862.572	-62
862.741	-15.61
862.909	-8.42
863.078	-72.6
863.246	-23
863.414	-29.92
863.582	-6.86
863.751	-27.5
863.919	6.94
864.087	73.59
864.255	97.24
864.424	31.87
864.592	100
864.76	52.18
864.928	37.6
865.096	-85.35
865.264	-69
865.432	-1488.64
865.6	-2
865.768	-92.24
865.936	-68.72
866.104	-84.41
866.272	-76.25
866.44	-337.01
866.608	532.07
866.776	266.76
866.944	2437.21
867.112	-430.08
867.28	-158.78
867.448	-34.11
867.615	-0.68
867.783	18.16
867.951	12.86
868.119	63.13
868.286	56.88
868.454	-40.35
868.622	-22.43
868.789	32.33
868.957	57.14
869.125	-839.47
869.292	57.25
869.46	-14.37
869.627	28.9
869.795	-23.79
869.963	-8.66
870.13	6.54
870.298	40.16
870.465	-13.02
870.632	-23.8
870.8	-12.79
870.967	-63.21
871.135	-152.8
871.302	-146.82
871.469	-142.26
871.637	-190.39
871.804	-121.2
871.971	-139.53
872.139	-407.91
872.306	-20.89
872.473	-60.6
872.64	-254.08
872.807	-143.51
872.975	6.71
873.142	-161.82
873.309	870.27
873.476	93.28
873.643	220.36
873.81	168.81
873.977	149.63
874.144	121.09
874.311	35.06
874.478	-87.63
874.645	-135.64
874.812	-59.74
874.979	-35.54
875.146	3.03
875.313	41.14
875.48	113.24
875.647	36.38
875.813	17.12
875.98	26.22
876.147	-0.36
876.314	-67.66
876.481	687.6
876.647	-847.19
876.814	362.69
876.981	-5
877.147	-11.53
877.314	31.73
877.481	47.91
877.647	38.67
877.814	13.51
877.98	8.82
878.147	22.07
878.314	86.54
878.48	50.41
878.647	70.98
878.813	99.06
878.979	96.59
879.146	45.15
879.312	58.87
879.479	43.19
879.645	-4.04
879.811	-119.56
879.978	-328.24
880.144	30.06
880.31	21.37
880.477	-115.2
880.643	-164.08
880.809	-23.68
880.975	-67.95
881.142	-491.82
881.308	-1.37
881.474	41.45
881.64	69.13
881.806	-0.93
881.972	4.34
882.138	-1.38
882.304	42.07
882.47	-125.99
882.636	-450.82
882.802	-31.85
882.968	8.23
883.134	11.12
883.3	38.65
883.466	63.12
883.632	79.99
883.798	49.72
883.964	57.01
884.129	64.24
884.295	95.08
884.461	16.81
884.627	3.86
884.793	-6.79
884.958	16.4
885.124	-66.48
885.29	-129.92
885.455	-22.33
885.621	28.5
885.787	-88.95
885.952	-38.99
886.118	-58.65
886.283	-73.79
886.449	-194.41
886.614	-164.11
886.78	-277.31
886.945	945.9
887.111	-484.39
887.276	-390.91
887.442	-789.09
887.607	-355.66
887.773	-238.22
887.938	-203.13
888.103	-173.99
888.269	-90.66
888.434	-162.7
888.599	-68.48
888.764	59.57
888.93	41.3
889.095	32.38
889.26	-16.74
889.425	29.95
889.59	52.92
889.756	46.96
889.921	29.39
890.086	97.92
890.251	86.29
890.416	-46.22
890.581	-911.29
890.746	170.71
890.911	392.36
891.076	166.54
891.241	-224.63
891.406	83.3
891.571	117.77
891.736	82.11
891.901	76.11
892.065	-8.79
892.23	85.95
892.395	181.02
892.56	272.54
892.725	-258.59
892.889	-441.46
893.054	-113.88
893.219	3.53
893.384	51.15
893.548	9.15
893.713	-16.34
893.878	24.3
