Data from Ofra_1a_PS_OGT5_Reflection_3.txt Node
Date: Tue Jul 20 10:44:11 EDT 2021
User: Adam
Spectrometer: FLMT01687
Trigger mode: 0
Integration Time (sec): 1.004000E0
Scans to average: 2
Electric dark correction enabled: true
Nonlinearity correction enabled: false
Boxcar width: 2
XAxis mode: Wavelengths
Number of Pixels in Spectrum: 3648
>>>>>Begin Spectral Data<<<<<
179.494	255.33
179.716	296.95
179.937	-323.41
180.158	294.9
180.38	72
180.601	122.71
180.823	96.23
181.044	-1.04
181.265	-107.64
181.486	178.31
181.708	148.95
181.929	-5518.18
182.15	-58.25
182.372	20.2
182.593	232.03
182.814	78.61
183.035	46.67
183.257	64.21
183.478	21.13
183.699	-4.53
183.92	-69.99
184.141	-73.62
184.363	-45.49
184.584	-62.82
184.805	-12.51
185.026	29.01
185.247	55.62
185.468	52.04
185.689	64.01
185.91	52.17
186.132	54.52
186.353	14.55
186.574	5.22
186.795	9.44
187.016	39.38
187.237	49.59
187.458	52.81
187.679	40.36
187.9	44.66
188.121	42.7
188.342	23.52
188.563	34.31
188.784	35.59
189.005	18.56
189.226	9.84
189.447	-10.19
189.667	-24.6
189.888	-16.61
190.109	-38.28
190.33	-4.33
190.551	7.28
190.772	19.84
190.993	2.35
191.214	21.55
191.434	10.5
191.655	58.94
191.876	45.11
192.097	101.27
192.318	84.14
192.538	58.44
192.759	44.78
192.98	53.24
193.201	26.52
193.421	18.84
193.642	40.3
193.863	36.72
194.083	33.31
194.304	41.77
194.525	38.87
194.745	24.03
194.966	32.77
195.187	32.98
195.407	40.91
195.628	27.29
195.848	26.51
196.069	8.7
196.29	-9.21
196.51	-37.96
196.731	-16.38
196.951	-33.99
197.172	-12.91
197.392	-12.99
197.613	7.36
197.833	-14.94
198.054	-3.46
198.274	-23.83
198.495	-28.19
198.715	-28.56
198.936	11.74
199.156	5.22
199.377	10.66
199.597	15.42
199.817	15.55
200.038	-38.68
200.258	-8.62
200.479	10.93
200.699	20.57
200.919	22.31
201.14	31.09
201.36	19.99
201.58	3.24
201.801	-6.09
202.021	-27.37
202.241	-34.95
202.461	-14.28
202.682	1.45
202.902	-1.55
203.122	6.53
203.342	6.12
203.563	-4.13
203.783	-24.08
204.003	-20.14
204.223	-1.85
204.443	3.73
204.663	-35.39
204.884	-5.78
205.104	-1.44
205.324	21.35
205.544	14.4
205.764	47.74
205.984	47.44
206.204	47.84
206.424	12.49
206.644	4.66
206.864	6.19
207.084	7.01
207.304	37.15
207.525	42.33
207.745	63.37
207.964	51.95
208.184	58.54
208.404	44.57
208.624	48.27
208.844	46.38
209.064	52.65
209.284	35.14
209.504	-5.97
209.724	-11.71
209.944	-22.43
210.164	-28.77
210.384	-19.79
210.604	-25.94
210.823	-40.85
211.043	-12.63
211.263	-52.95
211.483	-44.22
211.703	-26.7
211.922	-21.13
212.142	-18.98
212.362	21.22
212.582	26.5
212.801	40.76
213.021	30.34
213.241	4.07
213.461	-23.22
213.68	-4.08
213.9	-8.02
214.12	-9.96
214.339	0.31
214.559	19.7
214.779	11.28
214.998	27.39
215.218	43.4
215.438	30.29
215.657	25.77
215.877	16.17
216.096	15.73
216.316	10.62
216.535	9.54
216.755	5.13
216.974	11.38
217.194	-6.75
217.413	-17.22
217.633	-10.31
217.852	-1.75
218.072	0.55
218.291	-12.46
218.511	-15.27
218.73	-24.02
218.95	-69.82
219.169	-89.06
219.389	-31.6
219.608	-16.07
219.827	-0.71
220.047	21.62
220.266	42.7
220.485	13.06
220.705	37.7
220.924	41.99
221.143	42.61
221.363	45.2
221.582	48.3
221.801	39.95
222.021	35.76
222.24	44.57
222.459	39.28
222.678	46.1
222.897	35.39
223.117	44.73
223.336	51.73
223.555	38.16
223.774	26.78
223.993	36.91
224.213	26.3
224.432	15.46
224.651	13.11
224.87	23.54
225.089	18.79
225.308	28.98
225.527	14.03
225.746	20.77
225.965	12.18
226.184	-6.84
226.404	-14.4
226.623	-4.08
226.842	-1.56
227.061	2.39
227.28	26.75
227.499	25.97
227.718	24.01
227.936	19.77
228.155	23.62
228.374	14.15
228.593	21.82
228.812	33.85
229.031	44.13
229.25	30.24
229.469	34.66
229.688	29.19
229.907	27.05
230.125	19.63
230.344	22.86
230.563	20.97
230.782	14.96
231.001	1.93
231.22	12.01
231.438	27.18
231.657	26.05
231.876	16.88
232.095	40.9
232.313	28.28
232.532	12.96
232.751	14.73
232.969	20.97
233.188	3.21
233.407	5.62
233.625	6.06
233.844	-8.47
234.063	-5.78
234.281	-15.96
234.5	-10.22
234.719	1.8
234.937	4.47
235.156	6.42
235.374	9.78
235.593	25.65
235.811	29.95
236.03	12.1
236.249	24.61
236.467	33.97
236.686	6.21
236.904	-0.95
237.123	18.84
237.341	4.86
237.559	-14.08
237.778	26.02
237.996	0.17
238.215	-52.52
238.433	-65.27
238.652	-3.4
238.87	-25.54
239.088	0.48
239.307	28.8
239.525	31.85
239.743	16.27
239.962	11.76
240.18	23.68
240.398	21.44
240.617	10.67
240.835	40.96
241.053	34.89
241.271	16.17
241.49	24.75
241.708	17.21
241.926	10
242.144	10.5
242.363	18.24
242.581	-20.75
242.799	-1.47
243.017	-1.52
243.235	7.8
243.453	-0.6
243.672	8.81
243.89	2.88
244.108	5.09
244.326	13.79
244.544	13.35
244.762	6.66
244.98	13.68
245.198	21.82
245.416	24.38
245.634	44.11
245.852	29.62
246.07	34.66
246.288	35.29
246.506	31.8
246.724	23.25
246.942	47.08
247.16	40.44
247.378	14.58
247.596	25.44
247.814	-8.33
248.032	-5.88
248.25	12.68
248.468	37.37
248.685	28.55
248.903	22.45
249.121	23.15
249.339	24.42
249.557	18.26
249.775	25.01
249.992	33.92
250.21	28.64
250.428	32.23
250.646	22.07
250.863	6.52
251.081	3.55
251.299	2.41
251.517	-3.33
251.734	8.3
251.952	14.6
252.17	16.06
252.387	9.26
252.605	12.7
252.823	-1.41
253.04	6.92
253.258	14.54
253.475	28.89
253.693	13.82
253.911	16.41
254.128	14.74
254.346	30.17
254.563	28.87
254.781	29.86
254.998	33.58
255.216	22.54
255.433	-24.65
255.651	-25.16
255.868	-33.63
256.086	-22.64
256.303	-6.55
256.521	13.37
256.738	19.74
256.956	29.83
257.173	2.69
257.39	2.49
257.608	0.56
257.825	3.59
258.043	11.85
258.26	22.99
258.477	22.5
258.695	19.26
258.912	14.33
259.129	-18.25
259.346	-21.07
259.564	2.73
259.781	-1.84
259.998	9.14
260.216	47.97
260.433	27.87
260.65	23.84
260.867	27.65
261.084	22.14
261.302	6.4
261.519	31.07
261.736	18.39
261.953	19.47
262.17	23.3
262.387	24.16
262.604	29.18
262.822	38.6
263.039	36.77
263.256	23.32
263.473	20.8
263.69	15.04
263.907	17.9
264.124	29.03
264.341	45.72
264.558	32.98
264.775	57.8
264.992	29.45
265.209	-1.42
265.426	-21.05
265.643	-1.1
265.86	-67.38
266.077	-42.94
266.294	-14.35
266.51	4.09
266.727	1.48
266.944	33.02
267.161	34.66
267.378	39.13
267.595	34.01
267.812	23.61
268.028	-0.3
268.245	7.49
268.462	19.36
268.679	29.81
268.896	43.84
269.112	38.03
269.329	16.71
269.546	8.37
269.763	0.65
269.979	-3.39
270.196	0.25
270.413	-1.16
270.629	-11.65
270.846	-8.04
271.063	-9.96
271.279	-12.58
271.496	-6.83
271.712	-0.26
271.929	9.05
272.146	17.21
272.362	27.63
272.579	25.82
272.795	35.5
273.012	13.97
273.228	31.35
273.445	31.83
273.661	18.91
273.878	11.12
274.094	31.61
274.311	24.91
274.527	9.87
274.744	23.4
274.96	24.84
275.177	15.9
275.393	4.99
275.609	14.59
275.826	11.72
276.042	5.89
276.259	7.19
276.475	-6.59
276.691	-20.27
276.908	-16.17
277.124	-11.72
277.34	-24.24
277.557	-23.25
277.773	-20.69
277.989	-17.67
278.205	-26.97
278.422	-24.36
278.638	-20.38
278.854	-7.82
279.07	2.22
279.286	2.15
279.503	12.67
279.719	25.7
279.935	20.75
280.151	9.19
280.367	15.64
280.583	9.76
280.799	4.78
281.016	-32.61
281.232	-18.73
281.448	-27.89
281.664	-3.55
281.88	15.17
282.096	29.84
282.312	21.29
282.528	29.07
282.744	21.83
282.96	-19.96
283.176	-24.01
283.392	-21.3
283.608	-14.41
283.824	-45.25
284.04	-49.76
284.256	-23.76
284.471	3.31
284.687	-2.66
284.903	5.87
285.119	33.15
285.335	41.84
285.551	26.31
285.767	38.28
285.982	46.05
286.198	5.8
286.414	-13.9
286.63	-3.66
286.846	-3.19
287.061	3.34
287.277	20.49
287.493	24.34
287.709	22
287.924	21.49
288.14	18.47
288.356	24.3
288.571	15.96
288.787	6.38
289.003	6.32
289.218	-5.15
289.434	-23.53
289.65	2.65
289.865	2.7
290.081	-1.84
290.296	14.76
290.512	17.81
290.727	0.34
290.943	8.5
291.159	7.38
291.374	-8.73
291.59	2.79
291.805	2.4
292.021	7.47
292.236	18.99
292.451	35.03
292.667	36.01
292.882	35.99
293.098	37.09
293.313	20.41
293.529	14.02
293.744	7.06
293.959	16.98
294.175	15.99
294.39	-0.27
294.605	16.75
294.821	13.55
295.036	7.9
295.251	8.35
295.467	9.5
295.682	7.39
295.897	12.76
296.112	6.08
296.328	15.67
296.543	25.67
296.758	3.05
296.973	-2.23
297.188	1.32
297.404	-29.17
297.619	-26.17
297.834	-32.8
298.049	-43.03
298.264	-40.58
298.479	-26.37
298.694	10.7
298.909	20.27
299.125	25.12
299.34	30.73
299.555	33.31
299.77	30.72
299.985	26.85
300.2	30.18
300.415	35.27
300.63	28.1
300.845	19.18
301.06	15.6
301.275	15.1
301.49	9.82
301.704	18.17
301.919	8.65
302.134	11.9
302.349	14.53
302.564	24.21
302.779	8.78
302.994	41.31
303.209	46.31
303.423	39.31
303.638	42.47
303.853	41.98
304.068	6.49
304.283	15.47
304.497	5.88
304.712	-3.78
304.927	8.14
305.142	15.96
305.356	17.86
305.571	21.17
305.786	11.15
306	14.99
306.215	18.86
306.43	7.94
306.644	13
306.859	25.43
307.074	37.96
307.288	27.63
307.503	40.71
307.717	26.31
307.932	31.42
308.147	21.58
308.361	23.64
308.576	-5.08
308.79	3.82
309.005	-12.73
309.219	-12.1
309.434	-14.91
309.648	-1.91
309.863	3.56
310.077	21.09
310.292	34.56
310.506	35.5
310.72	38.77
310.935	55.61
311.149	49.69
311.364	46.81
311.578	52.74
311.792	59.29
312.007	40.23
312.221	-0.88
312.435	20.73
312.649	14.63
312.864	15.49
313.078	25.98
313.292	39.46
313.507	30.13
313.721	26.28
313.935	36.47
314.149	17.53
314.363	26.42
314.578	36.81
314.792	24.23
315.006	-1.99
315.22	14.48
315.434	13.89
315.648	2.98
315.862	15.69
316.077	14.87
316.291	14.36
316.505	-0.75
316.719	5.19
316.933	11.28
317.147	14.14
317.361	18.53
317.575	23.62
317.789	10.73
318.003	11.17
318.217	14.45
318.431	4.31
318.645	-9.46
318.859	2.05
319.073	-5.29
319.287	2.09
319.5	2.25
319.714	8.2
319.928	3.61
320.142	2.59
320.356	-4.7
320.57	-17.38
320.784	-15.07
320.997	-28.77
321.211	-11.07
321.425	-31.18
321.639	-7.62
321.853	4.44
322.066	3.65
322.28	-0.57
322.494	13.1
322.707	18.64
322.921	0.86
323.135	12.96
323.349	15.56
323.562	24.86
323.776	17.1
323.989	50.14
324.203	30.03
324.417	30.22
324.63	18.39
324.844	9.52
325.057	-15.99
325.271	19.95
325.485	32.07
325.698	45.41
325.912	61.02
326.125	58.2
326.339	48.99
326.552	39.12
326.766	28.89
326.979	21.28
327.193	0.65
327.406	-16.33
327.619	-0.73
327.833	-9.32
328.046	8.08
328.26	19.35
328.473	39.94
328.686	43.17
328.9	53.07
329.113	38.85
329.326	33.92
329.54	28.13
329.753	22
329.966	4.77
330.179	13.83
330.393	8.92
330.606	3.34
330.819	-9.02
331.032	-8.17
331.246	-8.01
331.459	7.63
331.672	4.98
331.885	11.44
332.098	36.37
332.311	14.53
332.525	11.95
332.738	7.32
332.951	-2.86
333.164	-0.43
333.377	13.08
333.59	-5.14
333.803	0.44
334.016	17.95
334.229	11.15
334.442	10.5
334.655	12.74
334.868	1.84
335.081	-5.76
335.294	-19.97
335.507	-18.23
335.72	-9.32
335.933	3.32
336.146	13.47
336.359	27.85
336.572	28.43
336.785	34.29
336.997	38.5
337.21	35.49
337.423	-0.37
337.636	11.24
337.849	-12.91
338.062	3.62
338.274	-1.87
338.487	-2.03
338.7	-25.19
338.913	-2.73
339.125	-38.12
339.338	-31.45
339.551	-16.95
339.763	-11.11
339.976	-18.14
340.189	-8.87
340.402	3.51
340.614	12.69
340.827	37.89
341.039	44.76
341.252	55.64
341.465	32.7
341.677	32.44
341.89	15.69
342.102	29.46
342.315	13.11
342.527	17.5
342.74	-2.04
342.952	-13.84
343.165	-22.52
343.377	-15.8
343.59	-11
343.802	-2.65
344.015	11.91
344.227	7.9
344.44	6.92
344.652	28.22
344.864	31.98
345.077	30.57
345.289	35.05
345.502	45.03
345.714	26.55
345.926	16.74
346.139	13.82
346.351	18
346.563	9.06
346.775	17.91
346.988	43.04
347.2	30.69
347.412	34.22
347.624	33.46
347.837	39.58
348.049	18.5
348.261	16.79
348.473	-9.51
348.685	-14.66
348.897	-37.93
349.11	-8.98
349.322	4.8
349.534	12.09
349.746	21.95
349.958	15.84
350.17	-4
350.382	-9.5
350.594	-0.07
350.806	5.79
351.018	17.6
351.23	19.68
351.442	31.62
351.654	34.79
351.866	40.86
352.078	45.63
352.29	54.49
352.502	44.72
352.714	55.7
352.926	26.8
353.138	19.39
353.35	7.33
353.561	4.86
353.773	0.19
353.985	15.8
354.197	17.84
354.409	24.27
354.621	26.56
354.832	17.84
355.044	1.24
355.256	3.78
355.468	-9.96
355.679	8.38
355.891	15.98
356.103	17.25
356.314	6.19
356.526	-8.37
356.738	-6.44
356.949	-13.64
357.161	-5.92
357.373	-1.39
357.584	20.67
357.796	12.69
358.008	28.07
358.219	22.65
358.431	29.48
358.642	35.02
358.854	37
359.065	30.56
359.277	30.46
359.488	22.52
359.7	9.66
359.911	9.97
360.123	21.84
360.334	23.06
360.546	30.46
360.757	41.34
360.969	44.91
361.18	41.4
361.391	44
361.603	32.86
361.814	35.32
362.025	35.22
362.237	35.01
362.448	36.51
362.659	38.82
362.871	22.86
363.082	13.63
363.293	-6.57
363.504	-30.8
363.716	-28.32
363.927	7.65
364.138	-4.39
364.349	-2.22
364.56	5.54
364.772	27.02
364.983	18.17
365.194	25.92
365.405	36.74
365.616	41.69
365.827	18.3
366.038	25.9
366.25	29.24
366.461	30.55
366.672	23.63
366.883	23.46
367.094	20.11
367.305	5.38
367.516	7.2
367.727	-5.78
367.938	1.12
368.149	0.24
368.36	8.86
368.571	-16.93
368.781	-15.22
368.992	-21.09
369.203	-31.37
369.414	-31.72
369.625	-20.75
369.836	3.78
370.047	19.66
370.258	16.78
370.468	8.51
370.679	6.49
370.89	-8.66
371.101	-5.23
371.312	0.96
371.522	5.55
371.733	9.41
371.944	-3.97
372.155	-0.54
372.365	6.76
372.576	-1.29
372.787	9.2
372.997	22.94
373.208	15.7
373.419	7.75
373.629	11.08
373.84	2.62
374.05	2.71
374.261	-12.32
374.472	2.83
374.682	14.93
374.893	12.39
375.103	17.99
375.314	26.48
375.524	13.88
375.735	18.83
375.945	25.66
376.156	22.25
376.366	19.19
376.577	29.27
376.787	31.36
376.997	34.86
377.208	35.1
377.418	32.78
377.629	25.43
377.839	22.03
378.049	19
378.26	5.95
378.47	12.91
378.68	14.08
378.89	13.88
379.101	13.73
379.311	24.47
379.521	14.47
379.732	17.66
379.942	12.33
380.152	2.47
380.362	-0.9
380.572	7.3
380.783	3.07
380.993	9.59
381.203	12.21
381.413	21.51
381.623	21.06
381.833	28.17
382.043	23.8
382.253	25.82
382.463	24.85
382.674	27.11
382.884	29.84
383.094	26.69
383.304	29.76
383.514	28.55
383.724	22.21
383.934	10.68
384.144	18.69
384.353	21.2
384.563	14.44
384.773	15.44
384.983	14.91
385.193	2.44
385.403	-5.64
385.613	-1.73
385.823	-4.31
386.033	3.74
386.242	6.73
386.452	5.18
386.662	7.09
386.872	5.98
387.082	1.76
387.291	1.98
387.501	4.69
387.711	1.65
387.921	7.46
388.13	9.65
388.34	14.09
388.55	6.45
388.759	4.23
388.969	-0.07
389.179	-2.06
389.388	-6.6
389.598	-1.35
389.807	-1.19
390.017	-1.38
390.227	-4.14
390.436	-1.52
390.646	-0.78
390.855	-0.88
391.065	-0.33
391.274	1.88
391.484	-1.45
391.693	-2.59
391.903	-1.32
392.112	-1.99
392.322	-2.03
392.531	-0.33
392.74	-1.41
392.95	-0.88
393.159	-0.95
393.369	-0.43
393.578	0.03
393.787	1.02
393.997	1.25
394.206	1.94
394.415	2.87
394.625	1.36
394.834	0.71
395.043	0.4
395.252	2.04
395.462	2.01
395.671	2.1
395.88	4.14
396.089	3.62
396.298	2.35
396.508	2.25
396.717	2.95
396.926	2.26
397.135	2.8
397.344	2.46
397.553	1.92
397.762	2.45
397.971	2.14
398.181	1.92
398.39	2.16
398.599	2.46
398.808	2.36
399.017	3.61
399.226	3.74
399.435	3.63
399.644	3.8
399.853	3.62
400.062	2.82
400.27	1.91
400.479	1.85
400.688	1.67
400.897	1.49
401.106	1.4
401.315	1.83
401.524	2.2
401.733	1.96
401.941	1.83
402.15	1.79
402.359	2.05
402.568	1.81
402.777	2.04
402.985	1.85
403.194	1.95
403.403	1.99
403.612	2.07
403.82	1.76
404.029	2.21
404.238	2.21
404.446	2.26
404.655	2.15
404.864	2.48
405.072	2.35
405.281	2.21
405.489	2.22
405.698	2.36
405.906	2.36
406.115	2.27
406.324	2.3
406.532	2.18
406.741	2.06
406.949	2.02
407.158	2.18
407.366	2.04
407.574	2.1
407.783	2.16
407.991	2.06
408.2	2.01
408.408	2.11
408.617	2.05
408.825	1.95
409.033	1.99
409.242	2.1
409.45	2.12
409.658	2.03
409.867	2.08
410.075	2.15
410.283	1.97
410.491	1.86
410.7	1.81
410.908	1.91
411.116	1.87
411.324	1.91
411.533	1.93
411.741	2
411.949	2.08
412.157	1.9
412.365	1.97
412.573	2
412.781	1.95
412.99	1.8
413.198	1.95
413.406	1.97
413.614	1.98
413.822	2.18
414.03	2.27
414.238	2.24
414.446	2.26
414.654	2.18
414.862	2.04
415.07	1.81
415.278	1.88
415.486	1.69
415.694	1.84
415.902	1.77
416.109	1.89
416.317	1.88
416.525	1.92
416.733	1.74
416.941	1.88
417.149	1.77
417.357	1.66
417.564	1.53
417.772	1.74
417.98	1.62
418.188	1.57
418.395	1.43
418.603	1.38
418.811	1.31
419.019	1.41
419.226	1.52
419.434	1.76
419.642	1.78
419.849	1.69
420.057	1.5
420.265	1.46
420.472	1.31
420.68	1.41
420.887	1.5
421.095	1.6
421.302	1.65
421.51	1.59
421.717	1.63
421.925	1.6
422.132	1.64
422.34	1.5
422.547	1.48
422.755	1.46
422.962	1.54
423.17	1.44
423.377	1.58
423.585	1.77
423.792	1.81
423.999	1.75
424.207	1.71
424.414	1.63
424.621	1.62
424.829	1.83
425.036	1.84
425.243	2.01
425.451	2.18
425.658	2.13
425.865	1.89
426.072	1.81
426.28	1.8
426.487	1.73
426.694	1.7
426.901	1.73
427.108	1.8
427.315	1.67
427.523	1.63
427.73	1.72
427.937	1.6
428.144	1.63
428.351	1.7
428.558	1.68
428.765	1.45
428.972	1.53
429.179	1.25
429.386	1.29
429.593	1.2
429.8	1.25
430.007	1.3
430.214	1.58
430.421	1.56
430.628	1.69
430.835	1.77
431.042	1.63
431.249	1.65
431.456	1.72
431.662	1.69
431.869	1.82
432.076	1.86
432.283	1.85
432.49	1.74
432.697	1.69
432.903	1.67
433.11	1.8
433.317	1.83
433.524	1.94
433.73	1.89
433.937	1.94
434.144	1.76
434.35	1.62
434.557	1.58
434.764	1.79
434.97	1.5
435.177	1.6
435.384	1.68
435.59	1.76
435.797	1.65
436.003	1.89
436.21	1.93
436.416	2.05
436.623	1.97
436.829	2.06
437.036	1.99
437.242	2.01
437.449	1.85
437.655	1.93
437.862	1.96
438.068	1.96
438.275	1.97
438.481	2.02
438.687	1.99
438.894	2.07
439.1	2.1
439.307	2.16
439.513	2.18
439.719	2.19
439.926	2.03
440.132	2.11
440.338	2.04
440.544	2.02
440.751	1.94
440.957	1.99
441.163	1.86
441.369	1.87
441.575	1.79
441.782	1.91
441.988	1.89
442.194	1.96
442.4	1.89
442.606	2.14
442.812	2.11
443.018	2.11
443.224	2.2
443.431	2.24
443.637	2.04
443.843	2
444.049	2.06
444.255	2.1
444.461	2.06
444.667	2.14
444.873	2.2
445.079	2.19
445.284	2.06
445.49	2.09
445.696	2.06
445.902	2.06
446.108	2.01
446.314	2
446.52	2.1
446.726	2.17
446.931	2.07
447.137	2.14
447.343	2.23
447.549	2.24
447.755	2.23
447.96	2.31
448.166	2.31
448.372	2.3
448.578	2.19
448.783	2.12
448.989	2.14
449.195	2.09
449.4	2.13
449.606	2.18
449.812	2.14
450.017	2.17
450.223	2.15
450.428	2.13
450.634	2.13
450.84	2.2
451.045	2.16
451.251	2.22
451.456	2.27
451.662	2.28
451.867	2.28
452.073	2.36
452.278	2.3
452.483	2.28
452.689	2.28
452.894	2.33
453.1	2.27
453.305	2.28
453.51	2.26
453.716	2.27
453.921	2.35
454.127	2.4
454.332	2.44
454.537	2.39
454.742	2.37
454.948	2.29
455.153	2.23
455.358	2.28
455.563	2.35
455.769	2.35
455.974	2.3
456.179	2.25
456.384	2.2
456.589	2.19
456.795	2.19
457	2.23
457.205	2.2
457.41	2.19
457.615	2.19
457.82	2.33
458.025	2.36
458.23	2.39
458.435	2.43
458.64	2.39
458.845	2.32
459.05	2.34
459.255	2.34
459.46	2.36
459.665	2.41
459.87	2.31
460.075	2.35
460.28	2.39
460.485	2.47
460.69	2.49
460.895	2.63
461.099	2.57
461.304	2.52
461.509	2.46
461.714	2.52
461.919	2.44
462.123	2.45
462.328	2.36
462.533	2.35
462.738	2.27
462.942	2.24
463.147	2.21
463.352	2.37
463.556	2.43
463.761	2.44
463.966	2.47
464.17	2.58
464.375	2.65
464.58	2.58
464.784	2.57
464.989	2.58
465.193	2.54
465.398	2.55
465.602	2.72
465.807	2.75
466.011	2.83
466.216	2.86
466.42	2.87
466.625	2.94
466.829	2.93
467.034	2.98
467.238	2.99
467.443	3
467.647	2.87
467.851	2.94
468.056	2.95
468.26	2.9
468.464	2.94
468.669	3.03
468.873	3.05
469.077	3.01
469.282	3.03
469.486	3
469.69	3
469.894	3.1
470.099	3.13
470.303	3.19
470.507	3.18
470.711	3.15
470.915	3.15
471.119	3.22
471.324	3.28
471.528	3.32
471.732	3.36
471.936	3.33
472.14	3.31
472.344	3.47
472.548	3.47
472.752	3.47
472.956	3.44
473.16	3.44
473.364	3.31
473.568	3.23
473.772	3.21
473.976	3.31
474.18	3.36
474.384	3.33
474.588	3.39
474.792	3.45
474.995	3.45
475.199	3.45
475.403	3.54
475.607	3.6
475.811	3.61
476.015	3.51
476.218	3.39
476.422	3.37
476.626	3.41
476.83	3.53
477.033	3.62
477.237	3.73
477.441	3.73
477.644	3.74
477.848	3.7
478.052	3.69
478.255	3.7
478.459	3.72
478.663	3.74
478.866	3.71
479.07	3.7
479.273	3.77
479.477	3.79
479.681	3.82
479.884	3.83
480.088	3.85
480.291	3.79
480.495	3.73
480.698	3.71
480.901	3.69
481.105	3.75
481.308	3.79
481.512	3.86
481.715	3.95
481.919	4.05
482.122	4.03
482.325	4.1
482.529	4.04
482.732	3.95
482.935	3.85
483.138	3.78
483.342	3.75
483.545	3.9
483.748	3.99
483.952	4.04
484.155	4.13
484.358	4.1
484.561	4.04
484.764	3.97
484.967	4
485.171	4
485.374	4.01
485.577	4.03
485.78	4.02
485.983	3.92
486.186	3.91
486.389	3.95
486.592	3.95
486.795	4.01
486.998	3.99
487.201	4.02
487.404	4.05
487.607	4.07
487.81	4.02
488.013	4.13
488.216	4.07
488.419	3.97
488.622	3.91
488.825	3.97
489.028	3.92
489.231	3.94
489.433	4
489.636	4.02
489.839	4.06
490.042	4.13
490.245	4.18
490.447	4.09
490.65	4.12
490.853	4.1
491.056	4.09
491.258	4.03
491.461	4.12
491.664	4.1
491.866	4.05
492.069	4.06
492.272	4
492.474	4.05
492.677	4.04
492.879	4.04
493.082	4.05
493.285	4.16
493.487	4.13
493.69	4.11
493.892	4.14
494.095	4.15
494.297	4.15
494.5	4.17
494.702	4.26
494.905	4.33
495.107	4.31
495.309	4.31
495.512	4.31
495.714	4.28
495.917	4.25
496.119	4.31
496.321	4.36
496.524	4.31
496.726	4.29
496.928	4.33
497.13	4.32
497.333	4.2
497.535	4.32
497.737	4.34
497.939	4.28
498.142	4.27
498.344	4.37
498.546	4.33
498.748	4.42
498.95	4.49
499.152	4.49
499.355	4.45
499.557	4.47
499.759	4.45
499.961	4.42
500.163	4.45
500.365	4.51
500.567	4.47
500.769	4.53
500.971	4.55
501.173	4.51
501.375	4.57
501.577	4.57
501.779	4.46
501.981	4.49
502.183	4.47
502.385	4.42
502.587	4.47
502.788	4.55
502.99	4.54
503.192	4.64
503.394	4.66
503.596	4.67
503.798	4.63
503.999	4.63
504.201	4.62
504.403	4.63
504.605	4.67
504.806	4.78
505.008	4.8
505.21	4.82
505.411	4.84
505.613	4.82
505.815	4.82
506.016	4.83
506.218	4.93
506.42	4.93
506.621	4.99
506.823	4.98
507.024	4.99
507.226	4.97
507.427	4.98
507.629	4.94
507.83	4.98
508.032	4.94
508.233	4.98
508.435	4.98
508.636	5.03
508.838	5
509.039	5.02
509.24	4.97
509.442	5.01
509.643	5.01
509.845	5.03
510.046	5.06
510.247	5.08
510.448	5.1
510.65	5.1
510.851	5.12
511.052	5.14
511.254	5.18
511.455	5.15
511.656	5.15
511.857	5.18
512.058	5.22
512.26	5.19
512.461	5.26
512.662	5.28
512.863	5.19
513.064	5.18
513.265	5.17
513.466	5.15
513.667	5.12
513.868	5.17
514.069	5.11
514.27	5.14
514.471	5.11
514.672	5.17
514.873	5.16
515.074	5.23
515.275	5.19
515.476	5.25
515.677	5.24
515.878	5.25
516.079	5.26
516.28	5.31
516.481	5.32
516.682	5.3
516.882	5.32
517.083	5.3
517.284	5.35
517.485	5.31
517.686	5.35
517.886	5.39
518.087	5.37
518.288	5.38
518.488	5.37
518.689	5.37
518.89	5.34
519.091	5.43
519.291	5.36
519.492	5.43
519.692	5.44
519.893	5.5
520.094	5.46
520.294	5.53
520.495	5.48
520.695	5.49
520.896	5.45
521.096	5.52
521.297	5.51
521.497	5.51
521.698	5.53
521.898	5.53
522.099	5.48
522.299	5.46
522.499	5.52
522.7	5.52
522.9	5.58
523.101	5.55
523.301	5.55
523.501	5.57
523.702	5.62
523.902	5.55
524.102	5.69
524.302	5.68
524.503	5.65
524.703	5.61
524.903	5.65
525.103	5.54
525.304	5.61
525.504	5.69
525.704	5.68
525.904	5.68
526.104	5.74
526.304	5.74
526.504	5.69
526.705	5.7
526.905	5.73
527.105	5.75
527.305	5.73
527.505	5.65
527.705	5.62
527.905	5.66
528.105	5.69
528.305	5.74
528.505	5.86
528.705	5.99
528.905	5.99
529.105	5.96
529.304	5.92
529.504	5.94
529.704	5.92
529.904	5.92
530.104	5.97
530.304	6
530.503	5.99
530.703	5.95
530.903	5.97
531.103	5.95
531.303	5.93
531.502	6.01
531.702	6.05
531.902	6.11
532.101	6.16
532.301	6.2
532.501	6.22
532.7	6.26
532.9	6.24
533.1	6.25
533.299	6.25
533.499	6.2
533.698	6.17
533.898	6.2
534.097	6.19
534.297	6.28
534.496	6.29
534.696	6.31
534.895	6.31
535.095	6.34
535.294	6.34
535.494	6.32
535.693	6.33
535.892	6.35
536.092	6.34
536.291	6.38
536.491	6.43
536.69	6.46
536.889	6.45
537.088	6.47
537.288	6.41
537.487	6.44
537.686	6.43
537.886	6.48
538.085	6.45
538.284	6.5
538.483	6.45
538.682	6.53
538.882	6.52
539.081	6.61
539.28	6.64
539.479	6.69
539.678	6.73
539.877	6.79
540.076	6.78
540.275	6.81
540.474	6.85
540.673	6.86
540.872	6.86
541.071	6.94
541.27	6.98
541.469	7.01
541.668	7.04
541.867	7.12
542.066	7.09
542.265	7.13
542.464	7.1
542.663	7.1
542.862	7.14
543.06	7.18
543.259	7.2
543.458	7.28
543.657	7.38
543.856	7.39
544.054	7.42
544.253	7.4
544.452	7.46
544.651	7.46
544.849	7.49
545.048	7.56
545.247	7.65
545.445	7.66
545.644	7.67
545.843	7.7
546.041	7.75
546.24	7.73
546.438	7.83
546.637	7.9
546.836	7.98
547.034	8.01
547.233	8.12
547.431	8.12
547.63	8.15
547.828	8.15
548.027	8.18
548.225	8.19
548.423	8.25
548.622	8.3
548.82	8.3
549.019	8.33
549.217	8.41
549.415	8.47
549.614	8.58
549.812	8.72
550.01	8.76
550.209	8.84
550.407	8.88
550.605	8.86
550.803	8.85
551.002	8.96
551.2	8.96
551.398	9.09
551.596	9.23
551.794	9.33
551.993	9.37
552.191	9.43
552.389	9.44
552.587	9.48
552.785	9.51
552.983	9.55
553.181	9.67
553.379	9.75
553.577	9.82
553.775	9.98
553.973	10.06
554.171	10.15
554.369	10.23
554.567	10.32
554.765	10.33
554.963	10.4
555.161	10.42
555.359	10.48
555.557	10.48
555.755	10.64
555.952	10.77
556.15	10.87
556.348	10.93
556.546	11.07
556.744	11.08
556.941	11.05
557.139	11.14
557.337	11.25
557.535	11.29
557.732	11.3
557.93	11.51
558.128	11.53
558.325	11.59
558.523	11.73
558.721	11.9
558.918	11.99
559.116	12.18
559.313	12.32
559.511	12.43
559.708	12.48
559.906	12.55
560.104	12.59
560.301	12.59
560.498	12.65
560.696	12.73
560.893	12.88
561.091	13.02
561.288	13.18
561.486	13.21
561.683	13.32
561.88	13.42
562.078	13.45
562.275	13.57
562.473	13.69
562.67	13.79
562.867	13.82
563.064	14.02
563.262	14.05
563.459	14.22
563.656	14.31
563.853	14.4
564.051	14.49
564.248	14.65
564.445	14.72
564.642	14.82
564.839	14.96
565.036	15.04
565.234	15.1
565.431	15.2
565.628	15.3
565.825	15.32
566.022	15.34
566.219	15.44
566.416	15.48
566.613	15.61
566.81	15.77
567.007	15.88
567.204	15.93
567.401	16.06
567.598	16.13
567.795	16.23
567.991	16.26
568.188	16.32
568.385	16.3
568.582	16.44
568.779	16.48
568.976	16.59
569.172	16.71
569.369	16.84
569.566	16.87
569.763	16.83
569.96	16.92
570.156	16.99
570.353	17
570.55	17.05
570.746	17.17
570.943	17.27
571.14	17.32
571.336	17.47
571.533	17.54
571.729	17.65
571.926	17.69
572.123	17.68
572.319	17.73
572.516	17.75
572.712	17.77
572.909	17.77
573.105	17.95
573.302	17.93
573.498	18
573.695	18.04
573.891	18.07
574.087	17.93
574.284	18.06
574.48	18.05
574.677	18.07
574.873	18.16
575.069	18.32
575.266	18.37
575.462	18.42
575.658	18.49
575.854	18.47
576.051	18.55
576.247	18.5
576.443	18.56
576.639	18.57
576.835	18.57
577.032	18.46
577.228	18.49
577.424	18.5
577.62	18.47
577.816	18.54
578.012	18.71
578.208	18.75
578.404	18.71
578.6	18.8
578.796	18.86
578.993	18.86
579.189	18.84
579.384	18.89
579.58	18.85
579.776	18.82
579.972	18.81
580.168	18.8
580.364	18.84
580.56	18.8
580.756	18.79
580.952	18.79
581.148	18.81
581.343	18.75
581.539	18.8
581.735	18.8
581.931	18.74
582.127	18.76
582.322	18.74
582.518	18.73
582.714	18.68
582.909	18.7
583.105	18.7
583.301	18.73
583.496	18.73
583.692	18.74
583.888	18.72
584.083	18.65
584.279	18.64
584.474	18.64
584.67	18.63
584.866	18.6
585.061	18.64
585.257	18.65
585.452	18.7
585.648	18.71
585.843	18.7
586.039	18.69
586.234	18.67
586.429	18.67
586.625	18.74
586.82	18.77
587.015	18.78
587.211	18.83
587.406	18.84
587.601	18.85
587.797	18.9
587.992	18.9
588.187	18.81
588.383	18.81
588.578	18.82
588.773	18.81
588.968	18.84
589.163	18.94
589.359	18.85
589.554	18.81
589.749	18.82
589.944	18.85
590.139	18.89
590.334	19.03
590.529	19.08
590.724	19.12
590.919	19.06
591.114	19.09
591.309	19.11
591.504	19.08
591.699	19.06
591.894	19.23
592.089	19.17
592.284	19.21
592.479	19.3
592.674	19.35
592.869	19.34
593.064	19.44
593.259	19.57
593.454	19.64
593.648	19.73
593.843	19.74
594.038	19.91
594.233	19.9
594.428	19.94
594.622	20.06
594.817	20.22
595.012	20.18
595.206	20.25
595.401	20.32
595.596	20.4
595.79	20.39
595.985	20.44
596.18	20.53
596.374	20.59
596.569	20.64
596.763	20.78
596.958	20.89
597.153	21.02
597.347	21.08
597.542	21.16
597.736	21.21
597.931	21.29
598.125	21.37
598.319	21.4
598.514	21.49
598.708	21.57
598.903	21.59
599.097	21.62
599.291	21.78
599.486	21.85
599.68	21.95
599.874	22.07
600.069	22.09
600.263	22.19
600.457	22.24
600.651	22.21
600.846	22.19
601.04	22.21
601.234	22.17
601.428	22.22
601.622	22.23
601.817	22.24
602.011	22.27
602.205	22.33
602.399	22.2
602.593	22.29
602.787	22.35
602.981	22.34
603.175	22.43
603.369	22.48
603.563	22.55
603.757	22.5
603.951	22.5
604.145	22.42
604.339	22.49
604.533	22.41
604.727	22.44
604.921	22.4
605.115	22.44
605.309	22.32
605.502	22.34
605.696	22.35
605.89	22.39
606.084	22.31
606.278	22.34
606.471	22.31
606.665	22.23
606.859	22.14
607.053	22.08
607.246	21.94
607.44	21.75
607.634	21.66
607.827	21.62
608.021	21.5
608.214	21.5
608.408	21.39
608.602	21.28
608.795	21.26
608.989	21.25
609.182	21.26
609.376	21.35
609.569	21.4
609.763	21.26
609.956	21.13
610.15	20.96
610.343	20.85
610.537	20.66
610.73	20.52
610.923	20.49
611.117	20.46
611.31	20.32
611.504	20.36
611.697	20.4
611.89	20.27
612.083	20.13
612.277	20.06
612.47	19.9
612.663	19.78
612.856	19.72
613.05	19.68
613.243	19.67
613.436	19.69
613.629	19.56
613.822	19.51
614.015	19.4
614.209	19.29
614.402	19.17
614.595	19.2
614.788	19.18
614.981	19.12
615.174	19.01
615.367	18.88
615.56	18.7
615.753	18.66
615.946	18.64
616.139	18.57
616.332	18.62
616.525	18.61
616.718	18.51
616.911	18.45
617.103	18.51
617.296	18.39
617.489	18.32
617.682	18.29
617.875	18.25
618.067	18.15
618.26	18.07
618.453	18.07
618.646	18.02
618.838	17.99
619.031	17.96
619.224	18.01
619.417	17.99
619.609	17.95
619.802	17.88
619.994	17.81
620.187	17.69
620.38	17.64
620.572	17.63
620.765	17.62
620.957	17.57
621.15	17.57
621.342	17.59
621.535	17.49
621.727	17.4
621.92	17.41
622.112	17.35
622.305	17.3
622.497	17.29
622.69	17.29
622.882	17.36
623.074	17.43
623.267	17.41
623.459	17.32
623.651	17.32
623.844	17.25
624.036	17.22
624.228	17.22
624.42	17.25
624.613	17.2
624.805	17.14
624.997	17.08
625.189	17.05
625.381	17.06
625.574	17
625.766	16.91
625.958	16.9
626.15	16.87
626.342	16.72
626.534	16.68
626.726	16.75
626.918	16.66
627.11	16.59
627.302	16.67
627.494	16.61
627.686	16.51
627.878	16.52
628.07	16.55
628.262	16.52
628.454	16.55
628.646	16.53
628.838	16.56
629.029	16.48
629.221	16.43
629.413	16.4
629.605	16.38
629.797	16.25
629.989	16.11
630.18	16.18
630.372	16.13
630.564	16.07
630.755	16.12
630.947	16.21
631.139	16.06
631.33	16.07
631.522	16.05
631.714	15.94
631.905	15.92
632.097	15.89
632.289	15.81
632.48	15.81
632.672	15.82
632.863	15.73
633.055	15.73
633.246	15.82
633.438	15.78
633.629	15.79
633.821	15.83
634.012	15.82
634.203	15.74
634.395	15.68
634.586	15.69
634.777	15.66
634.969	15.68
635.16	15.64
635.351	15.66
635.543	15.62
635.734	15.58
635.925	15.57
636.117	15.61
636.308	15.65
636.499	15.58
636.69	15.62
636.881	15.55
637.073	15.62
637.264	15.61
637.455	15.6
637.646	15.57
637.837	15.61
638.028	15.47
638.219	15.53
638.41	15.57
638.601	15.56
638.792	15.58
638.983	15.59
639.174	15.49
639.365	15.51
639.556	15.45
639.747	15.45
639.938	15.47
640.129	15.49
640.32	15.48
640.511	15.54
640.701	15.46
640.892	15.46
641.083	15.39
641.274	15.34
641.465	15.35
641.655	15.35
641.846	15.35
642.037	15.38
642.228	15.3
642.418	15.23
642.609	15.17
642.8	15.11
642.99	15.1
643.181	15.12
643.372	15.16
643.562	15.26
643.753	15.21
643.943	15.04
644.134	14.97
644.324	14.86
644.515	14.78
644.705	14.76
644.896	14.91
645.086	14.9
645.277	14.89
645.467	14.87
645.658	14.78
645.848	14.69
646.038	14.68
646.229	14.7
646.419	14.61
646.61	14.72
646.8	14.76
646.99	14.75
647.18	14.7
647.371	14.68
647.561	14.59
647.751	14.58
647.941	14.51
648.132	14.43
648.322	14.37
648.512	14.33
648.702	14.34
648.892	14.41
649.082	14.43
649.272	14.38
649.462	14.43
649.653	14.37
649.843	14.19
650.033	14.2
650.223	14.24
650.413	14.16
650.603	14.17
650.793	14.2
650.983	14.07
651.172	14.04
651.362	14.02
651.552	13.85
651.742	13.84
651.932	13.82
652.122	13.81
652.312	13.71
652.502	13.67
652.691	13.6
652.881	13.55
653.071	13.46
653.261	13.37
653.45	13.3
653.64	13.19
653.83	13.06
654.019	12.91
654.209	12.84
654.399	12.68
654.588	12.59
654.778	12.51
654.968	12.41
655.157	12.25
655.347	12.1
655.536	11.94
655.726	11.78
655.915	11.65
656.105	11.56
656.294	11.5
656.484	11.4
656.673	11.32
656.863	11.21
657.052	11.03
657.241	10.97
657.431	10.85
657.62	10.73
657.809	10.57
657.999	10.48
658.188	10.31
658.377	10.12
658.567	9.92
658.756	9.77
658.945	9.65
659.134	9.48
659.324	9.38
659.513	9.24
659.702	9.04
659.891	8.9
660.08	8.71
660.269	8.55
660.458	8.4
660.648	8.23
660.837	8.12
661.026	7.92
661.215	7.8
661.404	7.67
661.593	7.64
661.782	7.45
661.971	7.32
662.16	7.19
662.349	7.03
662.538	6.89
662.726	6.75
662.915	6.72
663.104	6.59
663.293	6.64
663.482	6.63
663.671	6.54
663.86	6.5
664.048	6.56
664.237	6.34
664.426	6.21
664.615	6.13
664.803	5.99
664.992	5.81
665.181	5.8
665.369	5.59
665.558	5.56
665.747	5.59
665.935	5.53
666.124	5.47
666.312	5.52
666.501	5.46
666.69	5.45
666.878	5.4
667.067	5.35
667.255	5.36
667.444	5.34
667.632	5.24
667.82	5.23
668.009	5.21
668.197	5.25
668.386	5.16
668.574	5.13
668.762	5.09
668.951	5.06
669.139	4.99
669.327	5.07
669.516	5.16
669.704	5.17
669.892	5.29
670.08	5.29
670.269	5.3
670.457	5.21
670.645	5.11
670.833	5.07
671.021	5.09
671.21	5.03
671.398	5
671.586	5.15
671.774	5.24
671.962	5.28
672.15	5.33
672.338	5.39
672.526	5.49
672.714	5.44
672.902	5.47
673.09	5.61
673.278	5.72
673.466	5.67
673.654	5.69
673.842	5.68
674.03	5.68
674.218	5.59
674.405	5.7
674.593	5.76
674.781	5.88
674.969	5.9
675.157	6.05
675.344	6.05
675.532	6.1
675.72	6.18
675.908	6.19
676.095	6.18
676.283	6.23
676.471	6.29
676.658	6.27
676.846	6.38
677.033	6.5
677.221	6.58
677.409	6.61
677.596	6.73
677.784	6.91
677.971	6.87
678.159	7.04
678.346	7.18
678.534	7.19
678.721	7.17
678.909	7.32
679.096	7.21
679.283	7.2
679.471	7.35
679.658	7.46
679.846	7.46
680.033	7.72
680.22	7.86
680.408	7.82
680.595	7.83
680.782	8.07
680.969	8.17
681.157	8.29
681.344	8.41
681.531	8.59
681.718	8.67
681.905	8.7
682.093	8.85
682.28	9.11
682.467	9.24
682.654	9.36
682.841	9.54
683.028	9.6
683.215	9.79
683.402	9.94
683.589	10.17
683.776	10.25
683.963	10.44
684.15	10.58
684.337	10.81
684.524	11.01
684.711	11.35
684.898	11.57
685.085	11.59
685.271	11.86
685.458	12.03
685.645	12.06
685.832	12.29
686.019	12.52
686.205	12.75
686.392	13.15
686.579	13.55
686.766	13.98
686.952	14.33
687.139	14.58
687.326	14.91
687.512	15.2
687.699	15.57
687.886	16.14
688.072	16.42
688.259	16.62
688.445	17.11
688.632	17.38
688.818	17.7
689.005	18.32
689.191	19.03
689.378	19.45
689.564	20
689.751	20.62
689.937	21.31
690.124	21.64
690.31	22.07
690.496	22.64
690.683	23.27
690.869	23.7
691.055	24.36
691.242	24.97
691.428	25.65
691.614	26.06
691.8	26.58
691.987	27.43
692.173	28.27
692.359	28.9
692.545	29.75
692.731	30.53
692.918	30.81
693.104	31.65
693.29	32.14
693.476	32.85
693.662	33.45
693.848	34.41
694.034	34.76
694.22	35.85
694.406	36.44
694.592	37.03
694.778	37.49
694.964	38.19
695.15	38.75
695.336	39.5
695.522	40.28
695.708	41.28
695.894	42.18
696.08	42.82
696.265	43.54
696.451	44.29
696.637	44.92
696.823	45.67
697.009	46.43
697.194	47.26
697.38	47.95
697.566	48.45
697.751	48.89
697.937	49.62
698.123	50.05
698.308	50.53
698.494	51.63
698.68	52.42
698.865	52.74
699.051	53.28
699.236	54.08
699.422	54.19
699.607	54.82
699.793	55.78
699.978	56.44
700.164	56.87
700.349	57.71
700.535	58.28
700.72	58.69
700.906	59.29
701.091	59.94
701.276	60.04
701.462	60.48
701.647	60.88
701.832	61.54
702.018	62.29
702.203	62.95
702.388	63.14
702.573	63.86
702.759	64.3
702.944	64.35
703.129	64.98
703.314	65.25
703.499	65.23
703.684	65.32
703.87	65.84
704.055	66.21
704.24	67.28
704.425	67.69
704.61	68.13
704.795	68.6
704.98	68.65
705.165	68.34
705.35	68.77
705.535	69.38
705.72	69.26
705.905	69.68
706.09	70.48
706.275	70.95
706.459	70.71
706.644	71.42
706.829	71.94
707.014	72.24
707.199	72.22
707.384	73
707.568	72.9
707.753	73.08
707.938	73.2
708.123	73.76
708.307	73.82
708.492	74.64
708.677	74.94
708.861	75.14
709.046	74.93
709.231	74.95
709.415	74.82
709.6	74.81
709.784	75.08
709.969	75.59
710.153	75.79
710.338	76.29
710.522	76.7
710.707	76.83
710.891	76.97
711.076	77.33
711.26	77.57
711.445	77.65
711.629	77.83
711.813	78.27
711.998	78.55
712.182	78.24
712.366	78.5
712.551	78.58
712.735	78.67
712.919	79
713.103	79.55
713.288	79.87
713.472	80.49
713.656	80.39
713.84	80.12
714.024	80.1
714.208	79.85
714.393	79.49
714.577	79.73
714.761	80
714.945	80.02
715.129	80.6
715.313	80.91
715.497	80.71
715.681	80.71
715.865	80.68
716.049	80.82
716.233	80.4
716.417	80.58
716.601	81.08
716.785	81.24
716.968	81.04
717.152	81.59
717.336	82.24
717.52	82.46
717.704	82.97
717.888	83.37
718.071	83.32
718.255	83.28
718.439	82.83
718.622	82.72
718.806	82.53
718.99	82.61
719.174	82.86
719.357	83.19
719.541	83.47
719.724	83.65
719.908	83.83
720.092	83.23
720.275	83.51
720.459	83.45
720.642	83.59
720.826	83.69
721.009	83.74
721.193	83.23
721.376	83.17
721.559	83.42
721.743	83.4
721.926	83.56
722.11	84.04
722.293	84.45
722.476	83.73
722.66	84.63
722.843	85.2
723.026	85.32
723.21	84.91
723.393	85.74
723.576	85.55
723.759	85.34
723.942	85.62
724.126	86.34
724.309	85.51
724.492	85.4
724.675	85.62
724.858	85.96
725.041	85.68
725.224	86.62
725.407	86.96
725.59	86.98
725.774	86.55
725.957	86.69
726.14	86.42
726.322	86.42
726.505	86.53
726.688	86.49
726.871	86.62
727.054	86.61
727.237	86.5
727.42	86.29
727.603	86.31
727.786	86.36
727.968	86.55
728.151	86.61
728.334	86.92
728.517	87.37
728.699	87.11
728.882	86.98
729.065	86.94
729.248	87.14
729.43	87.05
729.613	87.11
729.796	87.72
729.978	88.16
730.161	87.94
730.343	87.92
730.526	88.36
730.708	87.88
730.891	87.8
731.073	88.32
731.256	88.02
731.438	88.52
731.621	89.1
731.803	88.73
731.986	88.65
732.168	89.5
732.35	88.85
732.533	88.92
732.715	89.27
732.898	88.97
733.08	88.5
733.262	88.69
733.444	89.32
733.627	89.54
733.809	89.92
733.991	90.12
734.173	89.64
734.355	88.59
734.538	88.5
734.72	88.98
734.902	89.66
735.084	90.65
735.266	91.52
735.448	92.02
735.63	92.22
735.812	91.44
735.994	91
736.176	90.54
736.358	90.35
736.54	90.29
736.722	90.57
736.904	90.73
737.086	90.82
737.268	91.26
737.45	91.49
737.632	91.97
737.814	92.81
737.995	92.95
738.177	92.88
738.359	92.49
738.541	92.21
738.723	91.23
738.904	91.59
739.086	91.42
739.268	91.43
739.449	91.91
739.631	92.01
739.813	91.32
739.994	91.05
740.176	91.44
740.358	91.55
740.539	91.66
740.721	92.32
740.902	93.23
741.084	93.23
741.265	92.93
741.447	92.9
741.628	92.91
741.81	92.33
741.991	92.51
742.172	92.33
742.354	92.93
742.535	93.2
742.717	92.32
742.898	91.74
743.079	92.35
743.261	92.13
743.442	91.12
743.623	92.34
743.804	93.36
743.986	93.46
744.167	93.45
744.348	93.86
744.529	93.65
744.71	92.62
744.891	91.73
745.073	91.61
745.254	91.95
745.435	91.65
745.616	92.15
745.797	92.01
745.978	92.68
746.159	91.98
746.34	92.77
746.521	92.53
746.702	93.34
746.883	92.07
747.064	93.37
747.245	93.38
747.426	94.09
747.606	93.35
747.787	94.66
747.968	94.02
748.149	93.22
748.33	92.34
748.51	92.26
748.691	91.44
748.872	92.65
749.053	92.35
749.233	91.72
749.414	91.92
749.595	92.55
749.775	90.57
749.956	90.95
750.137	91.26
750.317	89.96
750.498	89.41
750.678	90
750.859	90.1
751.04	90.57
751.22	90.86
751.4	91.08
751.581	91.66
751.761	91.85
751.942	92.25
752.122	93.36
752.303	94.18
752.483	94.31
752.663	93.98
752.844	92.95
753.024	93.6
753.204	93.39
753.385	91.96
753.565	91.14
753.745	90.92
753.925	89.22
754.106	88.46
754.286	88.72
754.466	88.95
754.646	89.12
754.826	90.17
755.006	90.32
755.187	92.16
755.367	92.1
755.547	92.76
755.727	93.21
755.907	93.32
756.087	91.12
756.267	89.94
756.447	89.82
756.627	90.11
756.807	90.63
756.987	89.95
757.167	90.82
757.346	89.21
757.526	89.12
757.706	88.98
757.886	90.55
758.066	91.2
758.246	91.31
758.425	89.33
758.605	87.62
758.785	88.29
758.965	89.81
759.144	89.3
759.324	90.85
759.504	92.27
759.683	90.87
759.863	90.13
760.043	92.14
760.222	91.61
760.402	90.59
760.581	91.47
760.761	90.27
760.94	89.64
761.12	88.94
761.299	89.2
761.479	89.94
761.658	89.26
761.838	89.4
762.017	88.98
762.197	88.9
762.376	87.63
762.555	88.66
762.735	89.42
762.914	91.1
763.093	91.26
763.273	91
763.452	90
763.631	88.36
763.81	88.09
763.99	86.62
764.169	86.21
764.348	87.05
764.527	86.28
764.706	86.08
764.885	86.7
765.064	88.07
765.243	87.91
765.423	90.48
765.602	90.47
765.781	90.66
765.96	90.18
766.139	89.98
766.318	90.56
766.497	90.31
766.676	89.98
766.854	90.14
767.033	90.42
767.212	90.82
767.391	92.22
767.57	94.33
767.749	93.5
767.928	94.35
768.106	92.1
768.285	90.37
768.464	89.72
768.643	88.41
768.821	86.66
769	85.44
769.179	85
769.357	84.2
769.536	83.84
769.715	83.24
769.893	84.51
770.072	84.09
770.25	83.86
770.429	85.29
770.607	87.99
770.786	87.61
770.964	88.66
771.143	89.36
771.321	88.37
771.5	87.11
771.678	87.61
771.857	86.23
772.035	85.43
772.213	86.65
772.392	85.72
772.57	83.05
772.748	83.76
772.927	84.52
773.105	83.76
773.283	83.92
773.461	87.04
773.64	85.19
773.818	84.54
773.996	86.67
774.174	88.71
774.352	87.37
774.531	88.24
774.709	89.97
774.887	86.52
775.065	85.1
775.243	84.32
775.421	86.11
775.599	85.11
775.777	86.22
775.955	83.76
776.133	86.28
776.311	85.23
776.489	85.02
776.667	84.67
776.844	86.38
777.022	85.84
777.2	85.05
777.378	81.71
777.556	84.15
777.734	83.69
777.911	82.39
778.089	83.82
778.267	86.38
778.445	85.77
778.622	86.15
778.8	84.09
778.978	84.44
779.155	85
779.333	84.49
779.511	85.17
779.688	86.49
779.866	85.53
780.043	86.36
780.221	86.49
780.398	85.9
780.576	86.28
780.753	86.1
780.931	85.29
781.108	87.16
781.286	88.41
781.463	87.35
781.64	86.95
781.818	89.26
781.995	87.57
782.172	85.44
782.35	88.61
782.527	88.39
782.704	85.05
782.882	79.92
783.059	79.18
783.236	78.63
783.413	79.96
783.59	81.64
783.768	87.29
783.945	88.53
784.122	87.35
784.299	88.56
784.476	84.96
784.653	83.72
784.83	81.39
785.007	79.69
785.184	77.29
785.361	80.12
785.538	76.41
785.715	79.38
785.892	81.66
786.069	83.67
786.246	82.55
786.423	84.7
786.6	85.51
786.776	85.56
786.953	83.3
787.13	80.97
787.307	82.69
787.484	76.45
787.66	77.31
787.837	75.58
788.014	79.82
788.191	78.11
788.367	79.58
788.544	77.03
788.721	79.88
788.897	78.43
789.074	81.1
789.25	84.17
789.427	82.41
789.603	81.87
789.78	79.56
789.956	75
790.133	73.13
790.309	77.72
790.486	75.81
790.662	78.73
790.839	80.7
791.015	85.02
791.192	80.56
791.368	79.57
791.544	78.38
791.721	78.92
791.897	75.4
792.073	75.27
792.249	76.78
792.426	78.1
792.602	77.52
792.778	77.49
792.954	79.65
793.13	81.36
793.307	81.83
793.483	82.89
793.659	83.66
793.835	86.74
794.011	86.4
794.187	83.18
794.363	80.42
794.539	79.26
794.715	76.35
794.891	77.59
795.067	77.55
795.243	78.17
795.419	77.05
795.595	79.98
795.771	77.04
795.947	77.65
796.122	73.84
796.298	71.35
796.474	71.18
796.65	73.69
796.826	73.58
797.001	78.06
797.177	78.86
797.353	75.86
797.529	74.15
797.704	75.76
797.88	75.93
798.056	79.22
798.231	76.98
798.407	77.77
798.582	75.21
798.758	75.35
798.934	74.88
799.109	76.01
799.285	75.5
799.46	76.73
799.636	74.74
799.811	78.17
799.986	76.8
800.162	72.92
800.337	75.67
800.513	75.43
800.688	69.25
800.863	76.63
801.039	83.41
801.214	79.3
801.389	82.87
801.565	86.06
801.74	76.98
801.915	72.64
802.09	69.64
802.265	72.05
802.441	72.51
802.616	77.56
802.791	83.12
802.966	86.31
803.141	81.95
803.316	82.12
803.491	79.04
803.666	76.88
803.841	75.17
804.016	73.58
804.191	75.08
804.366	70.39
804.541	71.39
804.716	75
804.891	77.06
805.066	78.77
805.241	77.76
805.416	83.62
805.591	81.09
805.765	86.55
805.94	79.74
806.115	86.99
806.29	80.02
806.464	79.5
806.639	72.14
806.814	70.39
806.989	70.04
807.163	67.54
807.338	60.84
807.512	59.07
807.687	58.98
807.862	58.81
808.036	64.81
808.211	75
808.385	80.23
808.56	83.11
808.734	81.48
808.909	78.77
809.083	81.84
809.258	83.07
809.432	86.85
809.606	88.56
809.781	89.79
809.955	86.02
810.13	80.22
810.304	76.53
810.478	78.44
810.652	73.82
810.827	72.21
811.001	74.89
811.175	75.15
811.349	79.1
811.524	83.95
811.698	82.11
811.872	78.53
812.046	77.03
812.22	72.4
812.394	64.53
812.568	70.33
812.742	66.29
812.916	67.34
813.09	64.32
813.264	64.8
813.438	60.49
813.612	59.81
813.786	59.1
813.96	66.59
814.134	69.25
814.308	73.52
814.482	83.83
814.656	80.3
814.83	73.13
815.003	78.69
815.177	75.68
815.351	71.83
815.525	83.49
815.698	79.54
815.872	66.21
816.046	64.57
816.219	69.58
816.393	55.2
816.567	54.54
816.74	57.76
816.914	60.94
817.088	60.43
817.261	64.9
817.435	73.69
817.608	70.15
817.782	67.63
817.955	59.07
818.129	65.06
818.302	65.11
818.475	80.67
818.649	83.09
818.822	86.75
818.996	91.07
819.169	92.65
819.342	84.21
819.516	81.98
819.689	72.56
819.862	67.59
820.035	66.37
820.209	65.38
820.382	61.58
820.555	71.81
820.728	68.81
820.901	61.61
821.075	60.88
821.248	70.39
821.421	63.85
821.594	74.49
821.767	82.31
821.94	78.88
822.113	78.34
822.286	88.93
822.459	83.57
822.632	83.06
822.805	82.55
822.978	75.63
823.151	58.89
823.324	46.48
823.496	29.01
823.669	28.05
823.842	38.9
824.015	56.7
824.188	58.03
824.361	75.75
824.533	72.96
824.706	68.14
824.879	62.1
825.051	67.08
825.224	69.4
825.397	71.7
825.569	71.89
825.742	73.43
825.915	82.02
826.087	66.37
826.26	59.2
826.432	47.85
826.605	50.21
826.777	46.6
826.95	53.5
827.122	51.67
827.295	73.13
827.467	74.44
827.64	81.74
827.812	82.54
827.984	87.03
828.157	55.01
828.329	59.41
828.501	56.32
828.674	57.54
828.846	65.18
829.018	71.28
829.19	57.99
829.363	58.56
829.535	67.07
829.707	59.77
829.879	69.99
830.051	76.78
830.223	71.19
830.395	61.1
830.568	70.03
830.74	64.52
830.912	66.16
831.084	72.01
831.256	73.99
831.428	62.88
831.6	54.42
831.772	46.17
831.943	36.92
832.115	50.11
832.287	68.92
832.459	73.44
832.631	81.43
832.803	72.54
832.975	62.22
833.146	52.96
833.318	51.94
833.49	50.19
833.662	80.18
833.833	89.98
834.005	81.76
834.177	93.14
834.348	88.03
834.52	73.54
834.692	56.57
834.863	56.76
835.035	44.03
835.206	49.33
835.378	50.91
835.549	61.96
835.721	55.75
835.892	50.33
836.064	38.43
836.235	23.06
836.407	26.13
836.578	27.67
836.749	23.34
836.921	51.71
837.092	45.9
837.264	52.12
837.435	50.01
837.606	52.27
837.777	48.48
837.949	65.39
838.12	58.62
838.291	68.43
838.462	77.98
838.633	74.55
838.805	69.95
838.976	74.35
839.147	70.02
839.318	75.36
839.489	74.87
839.66	74.6
839.831	66.47
840.002	69.87
840.173	64.47
840.344	63.44
840.515	48.14
840.686	57.38
840.857	52.72
841.028	51.57
841.199	43.67
841.369	59.55
841.54	45.05
841.711	75.01
841.882	74.5
842.053	69.6
842.223	53.43
842.394	41.84
842.565	20.65
842.736	19.71
842.906	13.74
843.077	13.04
843.248	45.6
843.418	37.27
843.589	37.81
843.759	57.43
843.93	60.62
844.101	38.95
844.271	63.83
844.442	78.75
844.612	63.76
844.783	66.52
844.953	69.32
845.123	61.07
845.294	44.7
845.464	39.88
845.635	40.82
845.805	19.18
845.975	28.23
846.146	49.2
846.316	52.91
846.486	57.45
846.656	69.32
846.827	77.05
846.997	63.98
847.167	67.47
847.337	61.22
847.507	57.2
847.677	50.69
847.848	57.71
848.018	60.91
848.188	65.21
848.358	52.29
848.528	56.52
848.698	38.9
848.868	19.59
849.038	14.49
849.208	39.76
849.378	33.64
849.548	30.07
849.718	46.3
849.887	47.76
850.057	4.76
850.227	36.13
850.397	65.47
850.567	44.01
850.737	77.39
850.906	102.45
851.076	51.36
851.246	61.03
851.415	90.43
851.585	36.94
851.755	19.2
851.924	60.26
852.094	63.42
852.264	54.66
852.433	57.52
852.603	75.78
852.772	53.87
852.942	42.42
853.111	36.37
853.281	48.22
853.45	29.97
853.62	35.3
853.789	17.66
853.959	27.29
854.128	14.41
854.297	47.84
854.467	43.8
854.636	64.38
854.805	72.81
854.975	82.37
855.144	80.03
855.313	94.73
855.482	25.73
855.652	5.9
855.821	-6.37
855.99	-1.04
856.159	-6.48
856.328	27.85
856.497	50.36
856.667	50.63
856.836	57.14
857.005	56.45
857.174	56.72
857.343	25.94
857.512	20.44
857.681	3.14
857.85	-0.67
858.019	-16.28
858.188	-15.97
858.356	32.31
858.525	29.68
858.694	72.6
858.863	62.28
859.032	76.1
859.201	68.76
859.369	48.73
859.538	44.68
859.707	35.08
859.876	38.65
860.044	63.73
860.213	71.02
860.382	63.23
860.55	58.67
860.719	65.18
860.888	24.09
861.056	31.71
861.225	11.04
861.393	35.48
861.562	14.73
861.73	32.94
861.899	48
862.067	38.32
862.236	19.03
862.404	24.87
862.572	50.02
862.741	22.1
862.909	17.73
863.078	42.8
863.246	45.2
863.414	36.64
863.582	33.23
863.751	43.35
863.919	30.94
864.087	32.51
864.255	16.63
864.424	34.2
864.592	46.73
864.76	47.67
864.928	53.46
865.096	65.81
865.264	71.95
865.432	60.95
865.6	54.4
865.768	48.16
865.936	50.43
866.104	34.26
866.272	24.87
866.44	53.49
866.608	37.89
866.776	44.63
866.944	52.76
867.112	54.98
867.28	53.93
867.448	57.63
867.615	48.7
867.783	24.12
867.951	18.55
868.119	24.27
868.286	11.73
868.454	12.56
868.622	31.81
868.789	54.33
868.957	42.4
869.125	60.12
869.292	61.32
869.46	73.71
869.627	96.13
869.795	112
869.963	99.45
870.13	103.28
870.298	103.09
870.465	70.8
870.632	32.18
870.8	14.89
870.967	39.62
871.135	21.62
871.302	41.68
871.469	61.91
871.637	92.99
871.804	77.1
871.971	80.67
872.139	84.5
872.306	74.12
872.473	45.19
872.64	-45.61
872.807	-55.42
872.975	-237.64
873.142	-57.76
873.309	-7.59
873.476	75.4
873.643	123.68
873.81	108.09
873.977	141.39
874.144	119.95
874.311	46.79
874.478	8.51
874.645	-52.51
874.812	30.43
874.979	70.26
875.146	65.36
875.313	24.58
875.48	82.91
875.647	62.51
875.813	48.72
875.98	48.77
876.147	-11.16
876.314	0.32
876.481	45.45
876.647	35.25
876.814	42.54
876.981	78.19
877.147	81.16
877.314	60.78
877.481	53.25
877.647	60.98
877.814	70.18
877.98	50.51
878.147	70.98
878.314	85.16
878.48	84.75
878.647	60.86
878.813	92.86
878.979	75.37
879.146	80.83
879.312	126.78
879.479	95.25
879.645	64.74
879.811	68.46
879.978	71.14
880.144	43.76
880.31	49.14
880.477	63.47
880.643	52.8
880.809	-1.34
880.975	-5.23
881.142	-2.85
881.308	238.09
881.474	311.99
881.64	10.77
881.806	12.45
881.972	23.72
882.138	31.42
882.304	51.5
882.47	63.18
882.636	34.65
882.802	20.3
882.968	61.98
883.134	41.12
883.3	0.59
883.466	43.59
883.632	77.54
883.798	14.93
883.964	18.49
884.129	-101.75
884.295	-16
884.461	-70.05
884.627	-9.38
884.793	-62.62
884.958	3.39
885.124	-14.03
885.29	-28
885.455	-92.55
885.621	17.98
885.787	22.69
885.952	41.24
886.118	67.94
886.283	79.52
886.449	50.52
886.614	48.79
886.78	50.01
886.945	52.61
887.111	19.52
887.276	-2.78
887.442	-74.91
887.607	-78.85
887.773	-56.18
887.938	-8.42
888.103	3.1
888.269	36.12
888.434	27.44
888.599	19.86
888.764	11.29
888.93	36.59
889.095	27.91
889.26	28.17
889.425	14.89
889.59	47.48
889.756	-1.24
889.921	-30.43
890.086	6.65
890.251	194.88
890.416	67.52
890.581	75.9
890.746	143.01
890.911	93.31
891.076	77.02
891.241	82.27
891.406	95.81
891.571	201.51
891.736	306.88
891.901	169.97
892.065	130.16
892.23	140.78
892.395	53.19
892.56	20.61
892.725	-19.68
892.889	-23.76
893.054	7.66
893.219	1.93
893.384	-24.34
893.548	-87.81
893.713	-118.44
893.878	-227.88
