Data from Ofra_PS_T2_2A_2GT31_Reflection_3.txt Node
Date: Wed Jul 21 17:03:31 EDT 2021
User: Adam
Spectrometer: FLMT01687
Trigger mode: 0
Integration Time (sec): 1.100000E0
Scans to average: 2
Electric dark correction enabled: true
Nonlinearity correction enabled: false
Boxcar width: 2
XAxis mode: Wavelengths
Number of Pixels in Spectrum: 3648
>>>>>Begin Spectral Data<<<<<
179.494	550.6
179.716	600.47
179.937	575.25
180.158	584.31
180.38	975.16
180.601	426.1
180.823	138.94
181.044	-2.73
181.265	-4.23
181.486	-21.65
181.708	14.61
181.929	-385.2
182.15	92.61
182.372	111.4
182.593	0.96
182.814	7.7
183.035	-15.17
183.257	-15.28
183.478	-61.97
183.699	12.93
183.92	37.41
184.141	64.39
184.363	73.59
184.584	100.48
184.805	88.37
185.026	88.28
185.247	74.26
185.468	47.38
185.689	51.42
185.91	43.19
186.132	44.92
186.353	39.46
186.574	82.72
186.795	48.34
187.016	13.95
187.237	-7.03
187.458	-24.46
187.679	-25.24
187.9	11.17
188.121	26.67
188.342	51.05
188.563	77.61
188.784	123.84
189.005	95.63
189.226	100.11
189.447	81.43
189.667	21.72
189.888	-235.1
190.109	-514.61
190.33	-317.58
190.551	-642.7
190.772	-120.64
190.993	-68.79
191.214	-95.69
191.434	-59.03
191.655	-1.5
191.876	-68.78
192.097	-105.99
192.318	-144.52
192.538	-165.47
192.759	-128.13
192.98	-29.26
193.201	-11.08
193.421	-3.58
193.642	9.38
193.863	15.14
194.083	-2.36
194.304	-8.37
194.525	-2.86
194.745	-6.2
194.966	-22.27
195.187	-44.72
195.407	-62.79
195.628	-118.8
195.848	-130.79
196.069	-144.07
196.29	-68
196.51	-64.77
196.731	-63.45
196.951	-66.17
197.172	-64.21
197.392	-85.9
197.613	-76.35
197.833	-66.41
198.054	-75.77
198.274	-27.55
198.495	-52.5
198.715	-23.38
198.936	-41.11
199.156	-22.44
199.377	-101.3
199.597	-92
199.817	-83.92
200.038	-14.57
200.258	-33.41
200.479	34.55
200.699	95.89
200.919	83.09
201.14	16.95
201.36	-4.17
201.58	12.14
201.801	22.82
202.021	-1.34
202.241	16.43
202.461	19.84
202.682	-36.95
202.902	-85.41
203.122	-26.7
203.342	-15.66
203.563	19.66
203.783	58.75
204.003	42.62
204.223	28.44
204.443	62.53
204.663	30.95
204.884	39.9
205.104	111.35
205.324	129.76
205.544	97.54
205.764	109.38
205.984	83.37
206.204	60.65
206.424	38.35
206.644	7.2
206.864	11.33
207.084	-28.97
207.304	-26.59
207.525	-113.52
207.745	-59.71
207.964	-37.11
208.184	-60.52
208.404	-81.44
208.624	-58.22
208.844	-39.24
209.064	-235.08
209.284	-223.9
209.504	-70.97
209.724	9.4
209.944	17.02
210.164	54.21
210.384	62.98
210.604	44.41
210.823	12
211.043	-21.56
211.263	-37.06
211.483	-36.37
211.703	-57.51
211.922	-48.69
212.142	13.01
212.362	32.54
212.582	11.89
212.801	5.51
213.021	7.89
213.241	18.93
213.461	-9.23
213.68	-21.41
213.9	-3.58
214.12	-1.82
214.339	-78.42
214.559	-46.33
214.779	25.11
214.998	18.83
215.218	2.05
215.438	21.8
215.657	8.29
215.877	-22.67
216.096	20.48
216.316	28.08
216.535	21.31
216.755	23.18
216.974	-16.58
217.194	-87.68
217.413	-114.47
217.633	-69.64
217.852	-158.4
218.072	-64.37
218.291	-30.04
218.511	13.66
218.73	-26.79
218.95	-0.97
219.169	-4.8
219.389	-31
219.608	-11.65
219.827	-0.2
220.047	3.91
220.266	10.48
220.485	23.27
220.705	26.26
220.924	15.08
221.143	39.56
221.363	17.69
221.582	29.76
221.801	31.74
222.021	63.28
222.24	13.37
222.459	81.02
222.678	33.2
222.897	-16.18
223.117	-91.52
223.336	-36.59
223.555	-23
223.774	30.61
223.993	61.95
224.213	113.17
224.432	89.76
224.651	96.38
224.87	51.19
225.089	45.37
225.308	19.09
225.527	33.88
225.746	25.46
225.965	29.11
226.184	3.41
226.404	35.03
226.623	11.85
226.842	16.38
227.061	31.45
227.28	41.12
227.499	23.22
227.718	29.5
227.936	13.44
228.155	23.74
228.374	27.08
228.593	39.09
228.812	44.24
229.031	45.11
229.25	-4.54
229.469	-8.93
229.688	-12.05
229.907	14.15
230.125	25.81
230.344	34.02
230.563	41.87
230.782	55.51
231.001	-11
231.22	-7.25
231.438	2.21
231.657	-5.85
231.876	-16.01
232.095	46.8
232.313	41.03
232.532	52.97
232.751	43.05
232.969	15.47
233.188	-38.11
233.407	28.23
233.625	4.74
233.844	-7.42
234.063	16.42
234.281	26.12
234.5	5.63
234.719	25.71
234.937	38.52
235.156	32.14
235.374	33.81
235.593	42.43
235.811	33.26
236.03	16.79
236.249	-14.56
236.467	1.43
236.686	7.89
236.904	24.79
237.123	11.78
237.341	13.61
237.559	-2.42
237.778	-23.46
237.996	-55.4
238.215	-6.89
238.433	3.72
238.652	18.37
238.87	4.28
239.088	22.64
239.307	11.91
239.525	21.01
239.743	6.28
239.962	38.25
240.18	9.23
240.398	5.78
240.617	-18.59
240.835	-0.32
241.053	24
241.271	73.84
241.49	78.73
241.708	90.75
241.926	64.28
242.144	21.68
242.363	-45.05
242.581	-61.82
242.799	-50.34
243.017	-2.82
243.235	-7.91
243.453	6.26
243.672	-11.97
243.89	-1.54
244.108	-22.95
244.326	-0.5
244.544	11.52
244.762	13.45
244.98	35.69
245.198	44.62
245.416	19.77
245.634	3.94
245.852	-4.34
246.07	-9.86
246.288	-3.39
246.506	1.85
246.724	30.58
246.942	41.09
247.16	40.41
247.378	49.35
247.596	49.18
247.814	27.53
248.032	14.98
248.25	22.3
248.468	18.21
248.685	31.32
248.903	51.64
249.121	48.32
249.339	19.75
249.557	9.55
249.775	9.61
249.992	-40.87
250.21	-21.17
250.428	2.03
250.646	-3.51
250.863	-28.58
251.081	4.91
251.299	5.2
251.517	-5.93
251.734	-1.62
251.952	11.72
252.17	6.99
252.387	16.1
252.605	13.4
252.823	20.52
253.04	30.99
253.258	45.21
253.475	31.34
253.693	51.03
253.911	48.5
254.128	47.81
254.346	63.39
254.563	52.31
254.781	29.38
254.998	14.17
255.216	13.08
255.433	5.67
255.651	39.96
255.868	53.9
256.086	84.61
256.303	48.29
256.521	31.09
256.738	4.2
256.956	-16.82
257.173	-51.5
257.39	-31.72
257.608	-49.94
257.825	12.49
258.043	33.82
258.26	37.53
258.477	65.25
258.695	78.79
258.912	27.88
259.129	31.37
259.346	11.1
259.564	-15.89
259.781	-42.43
259.998	27.15
260.216	45.66
260.433	70.89
260.65	51.26
260.867	74.59
261.084	52.46
261.302	34.68
261.519	29.63
261.736	19.81
261.953	-17.67
262.17	-4.35
262.387	-38.46
262.604	-69.85
262.822	-58.9
263.039	-41.55
263.256	-80.61
263.473	-25.47
263.69	-2.7
263.907	19.75
264.124	41.22
264.341	30.61
264.558	21.61
264.775	29.63
264.992	30.08
265.209	17.56
265.426	40.51
265.643	51.13
265.86	61.36
266.077	61.98
266.294	52.89
266.51	24.48
266.727	-7.03
266.944	-15.75
267.161	-22.14
267.378	-9.75
267.595	23.65
267.812	14.94
268.028	10.41
268.245	29.72
268.462	-4.95
268.679	-20.12
268.896	20.55
269.112	17.23
269.329	10.5
269.546	25.85
269.763	12.77
269.979	2.25
270.196	9.19
270.413	-13.41
270.629	-43.09
270.846	-36.93
271.063	-42.46
271.279	-65.38
271.496	-55.19
271.712	-7.98
271.929	23.28
272.146	23.14
272.362	35.43
272.579	54.89
272.795	46.97
273.012	36.16
273.228	51.38
273.445	34.83
273.661	26.16
273.878	-27.95
274.094	-20.64
274.311	-57.5
274.527	7.12
274.744	9.12
274.96	24.45
275.177	30.04
275.393	51.16
275.609	40.23
275.826	44.61
276.042	49.33
276.259	30.2
276.475	39.3
276.691	39.66
276.908	25.78
277.124	30.9
277.34	26.5
277.557	21.14
277.773	11.21
277.989	16.02
278.205	16.77
278.422	27.31
278.638	26.16
278.854	46.93
279.07	39
279.286	22.82
279.503	6.49
279.719	-11.16
279.935	-28.2
280.151	-25.47
280.367	3.12
280.583	-4.07
280.799	9.27
281.016	-16.3
281.232	3.63
281.448	-9.76
281.664	25.26
281.88	-9.52
282.096	24.54
282.312	57.36
282.528	98.58
282.744	103.68
282.96	91.73
283.176	61.66
283.392	40.8
283.608	25.29
283.824	13.69
284.04	22.16
284.256	37.1
284.471	36.32
284.687	36.75
284.903	59.11
285.119	84.19
285.335	63.29
285.551	78.94
285.767	57.14
285.982	44.95
286.198	-17.8
286.414	29.7
286.63	20.96
286.846	44.28
287.061	19.23
287.277	54.18
287.493	30.88
287.709	52.95
287.924	27.05
288.14	59.76
288.356	50.99
288.571	65.67
288.787	40.92
289.003	50.94
289.218	40.54
289.434	10.69
289.65	16.63
289.865	14.05
290.081	14.41
290.296	9
290.512	35.5
290.727	-0.41
290.943	0.16
291.159	-8.13
291.374	-4.07
291.59	-35.57
291.805	-22.83
292.021	-7.11
292.236	6
292.451	2.48
292.667	29.61
292.882	44.44
293.098	36.4
293.313	8.11
293.529	-3.29
293.744	-29.86
293.959	-44.76
294.175	-34.59
294.39	1.52
294.605	21.47
294.821	30.93
295.036	30.61
295.251	27.57
295.467	23.82
295.682	17.99
295.897	-3.39
296.112	0.86
296.328	0.61
296.543	-29.57
296.758	-29.79
296.973	2.92
297.188	17.24
297.404	2.65
297.619	7.44
297.834	-0.74
298.049	-14.22
298.264	-15.04
298.479	19.7
298.694	15.21
298.909	26.82
299.125	31.05
299.34	29.64
299.555	3.84
299.77	22.05
299.985	-19.46
300.2	-52.82
300.415	-52.4
300.63	-23.28
300.845	-28.72
301.06	-15.59
301.275	7.35
301.49	16.3
301.704	-1.64
301.919	-19.92
302.134	-26.31
302.349	-33.19
302.564	-83.3
302.779	-74.85
302.994	-29.66
303.209	-8.53
303.423	12.4
303.638	55.05
303.853	25.82
304.068	21.11
304.283	23.8
304.497	18.48
304.712	9.31
304.927	11.49
305.142	1.5
305.356	5.87
305.571	0.96
305.786	-6.5
306	-35.7
306.215	-29.75
306.43	-50.64
306.644	-38.23
306.859	-15.38
307.074	30.37
307.288	-8.84
307.503	-4.36
307.717	-19.76
307.932	-24.67
308.147	-27.35
308.361	6.85
308.576	-2.82
308.79	-19.2
309.005	-13.22
309.219	4.99
309.434	-1.02
309.648	-5.35
309.863	20.12
310.077	24.47
310.292	5.57
310.506	6.21
310.72	27.57
310.935	0.63
311.149	-5.98
311.364	14.22
311.578	23.71
311.792	14.3
312.007	30.08
312.221	21.02
312.435	25.07
312.649	7.46
312.864	35.52
313.078	50.58
313.292	116.02
313.507	83.66
313.721	120.05
313.935	39.56
314.149	12.44
314.363	3.12
314.578	15.51
314.792	20
315.006	5.17
315.22	26.78
315.434	32.82
315.648	33.38
315.862	25.07
316.077	47.31
316.291	30.62
316.505	25.18
316.719	4.52
316.933	-0.3
317.147	-21.24
317.361	-38.28
317.575	-51.42
317.789	-56.38
318.003	-109.71
318.217	-83.23
318.431	-16.91
318.645	22.48
318.859	23.03
319.073	54.94
319.287	42.51
319.5	29.84
319.714	-8.4
319.928	-30.79
320.142	-73.86
320.356	-20.57
320.57	13.24
320.784	-13.08
320.997	9.85
321.211	27.66
321.425	-32.75
321.639	-62.28
321.853	4.16
322.066	-2.11
322.28	-14.28
322.494	-6.35
322.707	9.35
322.921	3.3
323.135	5.02
323.349	33.72
323.562	22.29
323.776	19.64
323.989	9.73
324.203	-0.02
324.417	-15.65
324.63	-20.07
324.844	-24.03
325.057	-28.7
325.271	11.23
325.485	34.25
325.698	57.94
325.912	69.25
326.125	69.93
326.339	48.42
326.552	19.64
326.766	4.87
326.979	-5.05
327.193	21.73
327.406	12.97
327.619	18.34
327.833	28.59
328.046	8.02
328.26	-23.01
328.473	-13.1
328.686	-37.54
328.9	-33.92
329.113	-8.22
329.326	-16.16
329.54	26.55
329.753	22.38
329.966	4.04
330.179	13.85
330.393	23.2
330.606	10.37
330.819	28.82
331.032	41.41
331.246	45.73
331.459	58.73
331.672	51.94
331.885	40.33
332.098	20.36
332.311	2.65
332.525	-37.58
332.738	-18.96
332.951	9.36
333.164	31.41
333.377	49.22
333.59	60.21
333.803	60.26
334.016	57.69
334.229	66.82
334.442	51.08
334.655	65.2
334.868	51.97
335.081	37.84
335.294	21.05
335.507	9.17
335.72	0.52
335.933	-15.21
336.146	-18.28
336.359	-12.42
336.572	-24.63
336.785	-46.07
336.997	-24.14
337.21	-0.76
337.423	0.51
337.636	5.44
337.849	15.52
338.062	9.99
338.274	13.3
338.487	4.11
338.7	23.54
338.913	12.74
339.125	-8.64
339.338	-51.09
339.551	-47.24
339.763	-32.2
339.976	-7.49
340.189	26.35
340.402	31.88
340.614	32.3
340.827	11.01
341.039	-10
341.252	-17.25
341.465	-6.29
341.677	-8.29
341.89	-23.3
342.102	-3.31
342.315	-25.64
342.527	-36.61
342.74	-17.17
342.952	-16.28
343.165	-15.39
343.377	11.16
343.59	16
343.802	17.55
344.015	28.34
344.227	47.23
344.44	42.08
344.652	32.68
344.864	17.3
345.077	38.24
345.289	33.47
345.502	32.77
345.714	26.92
345.926	32.09
346.139	20.86
346.351	26.14
346.563	20.78
346.775	32.18
346.988	15.07
347.2	9.15
347.412	-32.31
347.624	-40.54
347.837	-66.28
348.049	-30.45
348.261	-13.14
348.473	1.66
348.685	-0.98
348.897	4.35
349.11	-9.95
349.322	-25.85
349.534	-11.73
349.746	6.99
349.958	7.32
350.17	20.54
350.382	21.62
350.594	7.79
350.806	13.35
351.018	20.17
351.23	4.02
351.442	-20.43
351.654	-19.93
351.866	-23.53
352.078	-6.69
352.29	24.91
352.502	32.83
352.714	38.8
352.926	34.29
353.138	22.73
353.35	5.71
353.561	5.41
353.773	-12.33
353.985	-7.21
354.197	-17.43
354.409	-27.44
354.621	-31.01
354.832	-13.69
355.044	-16.53
355.256	-3.05
355.468	16.19
355.679	15.55
355.891	22.72
356.103	13.85
356.314	12.1
356.526	14.67
356.738	11.18
356.949	1.03
357.161	20.42
357.373	18.84
357.584	6.72
357.796	20.3
358.008	18.32
358.219	19.32
358.431	13.2
358.642	10.66
358.854	12.81
359.065	5.21
359.277	-20.47
359.488	-36.05
359.7	-39.16
359.911	-61.64
360.123	-31.6
360.334	-34.35
360.546	-37.9
360.757	-34.62
360.969	-12.77
361.18	-38.69
361.391	-13.51
361.603	-13.49
361.814	-4.42
362.025	-12.54
362.237	-2.4
362.448	-0.7
362.659	17.38
362.871	16.18
363.082	20.94
363.293	25.71
363.504	18.26
363.716	-0.84
363.927	-11.01
364.138	-20.72
364.349	-30.92
364.56	-30.66
364.772	-26.13
364.983	-3.22
365.194	-7.91
365.405	0.78
365.616	19.03
365.827	32.88
366.038	7.5
366.25	11.7
366.461	0.8
366.672	11.08
366.883	27.7
367.094	26.68
367.305	14.75
367.516	10.18
367.727	-13.56
367.938	-30.65
368.149	-28.3
368.36	-12.1
368.571	5.45
368.781	-3.41
368.992	-14.89
369.203	-25.1
369.414	-34.36
369.625	-41.8
369.836	-27.53
370.047	-45.46
370.258	-21.22
370.468	-27.26
370.679	-37.16
370.89	-36.15
371.101	-16.8
371.312	-29.02
371.522	-16.66
371.733	-10.43
371.944	-4.43
372.155	-8.68
372.365	-10.24
372.576	-10.92
372.787	-10
372.997	-20.89
373.208	-13.5
373.419	15.49
373.629	-21.39
373.84	-32.24
374.05	-50.21
374.261	-36.86
374.472	-60.71
374.682	1.47
374.893	7.96
375.103	54.9
375.314	51.98
375.524	49.08
375.735	38.24
375.945	44.53
376.156	10.47
376.366	8.81
376.577	6.84
376.787	12.07
376.997	6.91
377.208	14.55
377.418	4.9
377.629	22.46
377.839	8.38
378.049	17.47
378.26	22.18
378.47	36.27
378.68	25.53
378.89	21.59
379.101	12.14
379.311	-16.12
379.521	-56.06
379.732	-56.19
379.942	-47.99
380.152	-55.51
380.362	-23.46
380.572	-14.9
380.783	-2.52
380.993	18.47
381.203	29.56
381.413	49.32
381.623	51.81
381.833	37.63
382.043	21.4
382.253	7.19
382.463	1.29
382.674	-6.13
382.884	-15.73
383.094	-20.35
383.304	-13.4
383.514	-6.13
383.724	-1.81
383.934	-1.4
384.144	-5.97
384.353	-9.56
384.563	-22.34
384.773	-8.2
384.983	-14.55
385.193	1.87
385.403	7.45
385.613	8.42
385.823	-3.15
386.033	7.89
386.242	-1.63
386.452	-3.84
386.662	-8.66
386.872	1.56
387.082	-5.44
387.291	-2.24
387.501	0.23
387.711	6.57
387.921	2.18
388.13	2.57
388.34	6.29
388.55	2.09
388.759	1.48
388.969	3.44
389.179	-1.04
389.388	0.86
389.598	5.5
389.807	-2.17
390.017	-5.36
390.227	-2.51
390.436	-7.49
390.646	-8.07
390.855	-0.45
391.065	-1.9
391.274	-2.67
391.484	-4.32
391.693	-1.12
391.903	-0.92
392.112	6.3
392.322	10.82
392.531	17.3
392.74	16.72
392.95	11.45
393.159	7.56
393.369	5.14
393.578	2.42
393.787	-0.28
393.997	2.02
394.206	1.17
394.415	2.04
394.625	2.29
394.834	1.9
395.043	2.66
395.252	5.19
395.462	6.18
395.671	6.65
395.88	7.65
396.089	9.05
396.298	6.13
396.508	5.68
396.717	4.99
396.926	4.83
397.135	3.92
397.344	5.17
397.553	5.78
397.762	7.23
397.971	7.15
398.181	7.04
398.39	6.43
398.599	6.18
398.808	5.54
399.017	6.44
399.226	7.02
399.435	8.25
399.644	8.16
399.853	7.29
400.062	7.15
400.27	6.29
400.479	5.63
400.688	4.79
400.897	5.38
401.106	4.94
401.315	5.09
401.524	5.11
401.733	6.14
401.941	6.19
402.15	6.15
402.359	6.18
402.568	6.4
402.777	6.39
402.985	6.29
403.194	6.48
403.403	6.5
403.612	6.15
403.82	5.73
404.029	5.79
404.238	5.66
404.446	5.86
404.655	5.6
404.864	5.71
405.072	5.56
405.281	5.68
405.489	5.41
405.698	5.48
405.906	5.2
406.115	5.13
406.324	5.04
406.532	5.19
406.741	5.44
406.949	5.71
407.158	5.64
407.366	5.69
407.574	5.56
407.783	5.55
407.991	5.21
408.2	5.4
408.408	5.16
408.617	5.06
408.825	4.84
409.033	5.02
409.242	5.1
409.45	5.29
409.658	5.18
409.867	5.34
410.075	5.28
410.283	5.04
410.491	4.96
410.7	4.91
410.908	4.74
411.116	4.83
411.324	4.84
411.533	4.67
411.741	4.96
411.949	4.95
412.157	4.82
412.365	4.83
412.573	4.88
412.781	4.85
412.99	4.88
413.198	4.96
413.406	4.97
413.614	5.05
413.822	4.9
414.03	4.76
414.238	4.51
414.446	4.65
414.654	4.55
414.862	4.58
415.07	4.79
415.278	5.04
415.486	4.71
415.694	4.8
415.902	4.8
416.109	4.52
416.317	4.52
416.525	4.41
416.733	4.42
416.941	4.43
417.149	4.57
417.357	4.55
417.564	4.77
417.772	4.8
417.98	4.74
418.188	4.71
418.395	4.7
418.603	4.84
418.811	4.52
419.019	4.5
419.226	4.58
419.434	4.52
419.642	4.23
419.849	4.44
420.057	4.36
420.265	4.36
420.472	4.1
420.68	4.03
420.887	3.81
421.095	3.89
421.302	3.9
421.51	4.14
421.717	4.38
421.925	4.62
422.132	4.42
422.34	4.18
422.547	4.25
422.755	4.07
422.962	3.91
423.17	4
423.377	4.15
423.585	4.01
423.792	4.13
423.999	4.08
424.207	4
424.414	4.09
424.621	4.07
424.829	3.97
425.036	3.97
425.243	4.21
425.451	4.04
425.658	4.05
425.865	4.15
426.072	4.28
426.28	4.4
426.487	4.32
426.694	4.28
426.901	3.98
427.108	3.99
427.315	3.81
427.523	4.02
427.73	4.09
427.937	4.15
428.144	3.98
428.351	3.96
428.558	4.12
428.765	4
428.972	4.03
429.179	4.21
429.386	4.33
429.593	4.07
429.8	4.02
430.007	4.18
430.214	4.13
430.421	3.96
430.628	3.91
430.835	3.93
431.042	3.99
431.249	4.1
431.456	4.12
431.662	4.31
431.869	4.54
432.076	4.55
432.283	4.68
432.49	4.69
432.697	4.67
432.903	4.39
433.11	4.32
433.317	4.17
433.524	4.43
433.73	4.44
433.937	4.76
434.144	4.79
434.35	4.8
434.557	4.69
434.764	4.64
434.97	4.5
435.177	4.54
435.384	4.48
435.59	4.53
435.797	4.73
436.003	4.77
436.21	4.74
436.416	4.82
436.623	4.7
436.829	4.68
437.036	4.84
437.242	4.82
437.449	4.81
437.655	4.88
437.862	4.95
438.068	4.8
438.275	4.95
438.481	5.15
438.687	5.15
438.894	5.05
439.1	5.05
439.307	5.22
439.513	5.09
439.719	5.05
439.926	5.15
440.132	5.17
440.338	4.98
440.544	5.07
440.751	5.07
440.957	5.01
441.163	4.95
441.369	5.04
441.575	4.91
441.782	4.98
441.988	4.94
442.194	4.92
442.4	4.96
442.606	5.18
442.812	5.24
443.018	5.34
443.224	5.5
443.431	5.52
443.637	5.38
443.843	5.25
444.049	5.2
444.255	5.17
444.461	5.17
444.667	5.19
444.873	5.43
445.079	5.46
445.284	5.51
445.49	5.24
445.696	5.12
445.902	4.98
446.108	4.95
446.314	4.96
446.52	5.1
446.726	5.35
446.931	5.42
447.137	5.39
447.343	5.45
447.549	5.41
447.755	5.34
447.96	5.36
448.166	5.34
448.372	5.23
448.578	5.34
448.783	5.3
448.989	5.34
449.195	5.51
449.4	5.5
449.606	5.51
449.812	5.48
450.017	5.49
450.223	5.43
450.428	5.45
450.634	5.46
450.84	5.6
451.045	5.49
451.251	5.39
451.456	5.64
451.662	5.76
451.867	5.77
452.073	5.8
452.278	5.93
452.483	5.87
452.689	5.72
452.894	5.72
453.1	5.73
453.305	5.67
453.51	5.64
453.716	5.6
453.921	5.59
454.127	5.6
454.332	5.59
454.537	5.49
454.742	5.53
454.948	5.47
455.153	5.53
455.358	5.65
455.563	5.85
455.769	5.92
455.974	5.97
456.179	5.82
456.384	5.8
456.589	5.68
456.795	5.56
457	5.49
457.205	5.73
457.41	5.75
457.615	5.74
457.82	5.83
458.025	5.96
458.23	5.82
458.435	5.78
458.64	5.77
458.845	5.94
459.05	5.88
459.255	5.91
459.46	5.96
459.665	5.92
459.87	5.79
460.075	5.77
460.28	5.77
460.485	5.86
460.69	5.89
460.895	5.79
461.099	5.79
461.304	5.91
461.509	5.92
461.714	5.87
461.919	6.07
462.123	5.98
462.328	6.01
462.533	5.88
462.738	6.03
462.942	5.99
463.147	6.18
463.352	6.1
463.556	6.13
463.761	6.11
463.966	6.14
464.17	6.07
464.375	5.97
464.58	6.02
464.784	6.02
464.989	5.94
465.193	5.93
465.398	5.97
465.602	5.97
465.807	5.94
466.011	6.08
466.216	6.16
466.42	6.32
466.625	6.43
466.829	6.55
467.034	6.5
467.238	6.64
467.443	6.54
467.647	6.34
467.851	6.4
468.056	6.46
468.26	6.44
468.464	6.52
468.669	6.75
468.873	6.81
469.077	6.72
469.282	6.69
469.486	6.73
469.69	6.69
469.894	6.56
470.099	6.64
470.303	6.75
470.507	6.67
470.711	6.59
470.915	6.49
471.119	6.38
471.324	6.3
471.528	6.36
471.732	6.47
471.936	6.63
472.14	6.74
472.344	6.76
472.548	6.81
472.752	6.96
472.956	7.1
473.16	7.11
473.364	7.08
473.568	7.07
473.772	7.07
473.976	6.9
474.18	6.86
474.384	6.9
474.588	6.93
474.792	6.89
474.995	7.01
475.199	7.24
475.403	7.38
475.607	7.44
475.811	7.43
476.015	7.49
476.218	7.47
476.422	7.44
476.626	7.41
476.83	7.49
477.033	7.5
477.237	7.38
477.441	7.4
477.644	7.47
477.848	7.42
478.052	7.36
478.255	7.43
478.459	7.42
478.663	7.55
478.866	7.54
479.07	7.63
479.273	7.75
479.477	7.77
479.681	7.67
479.884	7.67
480.088	7.61
480.291	7.56
480.495	7.54
480.698	7.53
480.901	7.67
481.105	7.8
481.308	7.79
481.512	7.82
481.715	7.94
481.919	7.91
482.122	7.87
482.325	7.84
482.529	7.88
482.732	7.86
482.935	7.79
483.138	7.69
483.342	7.79
483.545	7.83
483.748	7.89
483.952	7.94
484.155	8.12
484.358	8.16
484.561	8.07
484.764	8.03
484.967	8.09
485.171	8.13
485.374	8.06
485.577	8.16
485.78	8.16
485.983	8.18
486.186	8.07
486.389	8.04
486.592	8.05
486.795	8.08
486.998	7.98
487.201	8.08
487.404	8.1
487.607	8.13
487.81	8.13
488.013	8.25
488.216	8.19
488.419	8.22
488.622	8.17
488.825	8.11
489.028	8.03
489.231	7.97
489.433	7.94
489.636	7.86
489.839	7.88
490.042	7.86
490.245	7.89
490.447	7.97
490.65	8.02
490.853	8
491.056	8.06
491.258	8.13
491.461	8.11
491.664	8.16
491.866	8.16
492.069	8.27
492.272	8.21
492.474	8.27
492.677	8.33
492.879	8.39
493.082	8.39
493.285	8.54
493.487	8.49
493.69	8.42
493.892	8.39
494.095	8.34
494.297	8.24
494.5	8.29
494.702	8.36
494.905	8.34
495.107	8.37
495.309	8.38
495.512	8.41
495.714	8.41
495.917	8.52
496.119	8.5
496.321	8.58
496.524	8.56
496.726	8.6
496.928	8.52
497.13	8.52
497.333	8.53
497.535	8.52
497.737	8.51
497.939	8.59
498.142	8.66
498.344	8.61
498.546	8.59
498.748	8.64
498.95	8.76
499.152	8.74
499.355	8.78
499.557	8.9
499.759	8.91
499.961	8.77
500.163	8.79
500.365	8.82
500.567	8.84
500.769	8.83
500.971	8.91
501.173	8.9
501.375	8.94
501.577	8.9
501.779	8.9
501.981	8.93
502.183	8.91
502.385	8.88
502.587	8.84
502.788	8.93
502.99	8.97
503.192	9.1
503.394	9.12
503.596	9.21
503.798	9.23
503.999	9.26
504.201	9.24
504.403	9.31
504.605	9.33
504.806	9.37
505.008	9.41
505.21	9.52
505.411	9.57
505.613	9.62
505.815	9.61
506.016	9.67
506.218	9.76
506.42	9.79
506.621	9.79
506.823	9.9
507.024	9.84
507.226	9.76
507.427	9.72
507.629	9.79
507.83	9.79
508.032	9.8
508.233	9.92
508.435	9.99
508.636	10.03
508.838	10.02
509.039	10.11
509.24	10.06
509.442	10.16
509.643	10.14
509.845	10.14
510.046	10.16
510.247	10.27
510.448	10.18
510.65	10.31
510.851	10.45
511.052	10.51
511.254	10.45
511.455	10.62
511.656	10.65
511.857	10.66
512.058	10.66
512.26	10.73
512.461	10.68
512.662	10.7
512.863	10.61
513.064	10.62
513.265	10.68
513.466	10.73
513.667	10.8
513.868	10.88
514.069	10.99
514.27	11.06
514.471	11.04
514.672	10.98
514.873	10.99
515.074	10.99
515.275	10.85
515.476	10.84
515.677	10.89
515.878	11
516.079	10.98
516.28	11.01
516.481	11.19
516.682	11.25
516.882	11.18
517.083	11.24
517.284	11.27
517.485	11.21
517.686	11.2
517.886	11.25
518.087	11.3
518.288	11.38
518.488	11.39
518.689	11.38
518.89	11.34
519.091	11.39
519.291	11.37
519.492	11.43
519.692	11.54
519.893	11.69
520.094	11.66
520.294	11.69
520.495	11.68
520.695	11.7
520.896	11.66
521.096	11.68
521.297	11.71
521.497	11.71
521.698	11.67
521.898	11.66
522.099	11.71
522.299	11.79
522.499	11.84
522.7	11.9
522.9	11.9
523.101	11.98
523.301	11.96
523.501	11.99
523.702	11.99
523.902	12.14
524.102	12.19
524.302	12.2
524.503	12.27
524.703	12.29
524.903	12.27
525.103	12.21
525.304	12.3
525.504	12.32
525.704	12.38
525.904	12.35
526.104	12.37
526.304	12.32
526.504	12.32
526.705	12.31
526.905	12.4
527.105	12.44
527.305	12.49
527.505	12.47
527.705	12.54
527.905	12.57
528.105	12.6
528.305	12.56
528.505	12.61
528.705	12.64
528.905	12.59
529.105	12.61
529.304	12.71
529.504	12.84
529.704	12.81
529.904	12.84
530.104	12.82
530.304	12.92
530.503	12.87
530.703	12.82
530.903	12.87
531.103	13.03
531.303	12.98
531.502	13.01
531.702	13.13
531.902	13.16
532.101	13.08
532.301	13.12
532.501	13.13
532.7	13.13
532.9	13.18
533.1	13.22
533.299	13.22
533.499	13.28
533.698	13.35
533.898	13.32
534.097	13.31
534.297	13.4
534.496	13.42
534.696	13.41
534.895	13.52
535.095	13.67
535.294	13.68
535.494	13.67
535.693	13.7
535.892	13.74
536.092	13.67
536.291	13.67
536.491	13.79
536.69	13.93
536.889	13.9
537.088	13.93
537.288	13.98
537.487	14.03
537.686	13.95
537.886	14.03
538.085	14.17
538.284	14.26
538.483	14.28
538.682	14.41
538.882	14.48
539.081	14.54
539.28	14.5
539.479	14.47
539.678	14.42
539.877	14.48
540.076	14.5
540.275	14.53
540.474	14.68
540.673	14.76
540.872	14.73
541.071	14.81
541.27	14.9
541.469	14.93
541.668	15.05
541.867	15.16
542.066	15.2
542.265	15.3
542.464	15.31
542.663	15.35
542.862	15.48
543.06	15.61
543.259	15.7
543.458	15.82
543.657	15.85
543.856	15.82
544.054	15.73
544.253	15.69
544.452	15.64
544.651	15.78
544.849	15.8
545.048	16
545.247	16.11
545.445	16.24
545.644	16.2
545.843	16.21
546.041	16.21
546.24	16.33
546.438	16.48
546.637	16.59
546.836	16.73
547.034	16.8
547.233	16.83
547.431	16.88
547.63	16.89
547.828	16.92
548.027	17
548.225	17.02
548.423	16.97
548.622	17.1
548.82	17.21
549.019	17.29
549.217	17.46
549.415	17.56
549.614	17.61
549.812	17.65
550.01	17.59
550.209	17.68
550.407	17.79
550.605	17.92
550.803	18.08
551.002	18.31
551.2	18.27
551.398	18.36
551.596	18.53
551.794	18.6
551.993	18.67
552.191	18.85
552.389	19.03
552.587	19.04
552.785	19.16
552.983	19.24
553.181	19.35
553.379	19.42
553.577	19.53
553.775	19.65
553.973	19.77
554.171	19.89
554.369	19.88
554.567	19.91
554.765	19.97
554.963	20.09
555.161	20.1
555.359	20.21
555.557	20.42
555.755	20.52
555.952	20.56
556.15	20.71
556.348	20.87
556.546	21.01
556.744	21.09
556.941	21.18
557.139	21.33
557.337	21.44
557.535	21.4
557.732	21.48
557.93	21.63
558.128	21.67
558.325	21.79
558.523	21.94
558.721	22.16
558.918	22.31
559.116	22.44
559.313	22.47
559.511	22.63
559.708	22.65
559.906	22.68
560.104	22.82
560.301	23.07
560.498	23.07
560.696	23.16
560.893	23.33
561.091	23.46
561.288	23.51
561.486	23.68
561.683	23.88
561.88	23.93
562.078	24.03
562.275	24.09
562.473	24.3
562.67	24.42
562.867	24.59
563.064	24.67
563.262	24.77
563.459	24.77
563.656	24.89
563.853	24.98
564.051	25.04
564.248	25.21
564.445	25.34
564.642	25.39
564.839	25.56
565.036	25.78
565.234	26
565.431	26.14
565.628	26.3
565.825	26.33
566.022	26.52
566.219	26.57
566.416	26.69
566.613	26.83
566.81	26.97
567.007	26.89
567.204	26.86
567.401	26.85
567.598	26.89
567.795	27.05
567.991	27.17
568.188	27.28
568.385	27.45
568.582	27.52
568.779	27.47
568.976	27.67
569.172	27.84
569.369	27.78
569.566	27.89
569.763	28.03
569.96	27.9
570.156	27.8
570.353	27.92
570.55	27.98
570.746	27.92
570.943	28.07
571.14	28.15
571.336	28.3
571.533	28.33
571.729	28.43
571.926	28.44
572.123	28.61
572.319	28.63
572.516	28.6
572.712	28.7
572.909	28.74
573.105	28.76
573.302	28.84
573.498	28.98
573.695	28.94
573.891	29.11
574.087	29.11
574.284	29.1
574.48	29.02
574.677	29.15
574.873	29.06
575.069	29.21
575.266	29.29
575.462	29.34
575.658	29.35
575.854	29.49
576.051	29.42
576.247	29.28
576.443	29.31
576.639	29.27
576.835	29.12
577.032	29.16
577.228	29.39
577.424	29.46
577.62	29.37
577.816	29.46
578.012	29.39
578.208	29.36
578.404	29.36
578.6	29.51
578.796	29.52
578.993	29.62
579.189	29.5
579.384	29.4
579.58	29.25
579.776	29.21
579.972	29.09
580.168	29.1
580.364	29.17
580.56	29.21
580.756	29.16
580.952	29.19
581.148	29.17
581.343	29.22
581.539	29.27
581.735	29.39
581.931	29.39
582.127	29.36
582.322	29.26
582.518	29.32
582.714	29.29
582.909	29.33
583.105	29.32
583.301	29.25
583.496	29.15
583.692	29.08
583.888	29
584.083	29.17
584.279	29.18
584.474	29.28
584.67	29.26
584.866	29.28
585.061	28.99
585.257	29.03
585.452	28.88
585.648	28.93
585.843	29.01
586.039	29.1
586.234	29.12
586.429	29.11
586.625	29.15
586.82	29.06
587.015	29.1
587.211	28.96
587.406	29
587.601	28.98
587.797	29.07
587.992	28.98
588.187	29.16
588.383	29.11
588.578	29.11
588.773	29.11
588.968	29.19
589.163	29.26
589.359	29.28
589.554	29.23
589.749	29.24
589.944	29.21
590.139	29.18
590.334	29.28
590.529	29.27
590.724	29.34
590.919	29.48
591.114	29.41
591.309	29.51
591.504	29.65
591.699	29.68
591.894	29.74
592.089	29.74
592.284	29.78
592.479	29.83
592.674	29.78
592.869	29.93
593.064	30.11
593.259	30.19
593.454	30.34
593.648	30.41
593.843	30.28
594.038	30.41
594.233	30.37
594.428	30.37
594.622	30.52
594.817	30.7
595.012	30.67
595.206	30.74
595.401	30.7
595.596	30.67
595.79	30.75
595.985	30.81
596.18	30.96
596.374	31.12
596.569	31.25
596.763	31.29
596.958	31.36
597.153	31.38
597.347	31.29
597.542	31.37
597.736	31.45
597.931	31.5
598.125	31.57
598.319	31.76
598.514	31.69
598.708	31.71
598.903	31.7
599.097	31.75
599.291	31.86
599.486	31.99
599.68	32.07
599.874	32.21
600.069	32.29
600.263	32.23
600.457	32.26
600.651	32.23
600.846	32.28
601.04	32.25
601.234	32.36
601.428	32.44
601.622	32.49
601.817	32.5
602.011	32.58
602.205	32.6
602.399	32.52
602.593	32.57
602.787	32.69
602.981	32.59
603.175	32.58
603.369	32.68
603.563	32.76
603.757	32.71
603.951	32.72
604.145	32.67
604.339	32.74
604.533	32.55
604.727	32.48
604.921	32.47
605.115	32.53
605.309	32.44
605.502	32.52
605.696	32.51
605.89	32.53
606.084	32.46
606.278	32.4
606.471	32.33
606.665	32.2
606.859	31.97
607.053	31.89
607.246	31.83
607.44	31.72
607.634	31.66
607.827	31.78
608.021	31.68
608.214	31.69
608.408	31.59
608.602	31.63
608.795	31.48
608.989	31.49
609.182	31.38
609.376	31.39
609.569	31.25
609.763	31.17
609.956	31.04
610.15	30.88
610.343	30.75
610.537	30.65
610.73	30.57
610.923	30.47
611.117	30.42
611.31	30.41
611.504	30.44
611.697	30.34
611.89	30.33
612.083	30.2
612.277	30.13
612.47	29.93
612.663	29.89
612.856	29.83
613.05	29.77
613.243	29.6
613.436	29.57
613.629	29.5
613.822	29.33
614.015	29.26
614.209	29.18
614.402	29.18
614.595	29.15
614.788	29.07
614.981	28.94
615.174	28.82
615.367	28.62
615.56	28.48
615.753	28.47
615.946	28.43
616.139	28.48
616.332	28.68
616.525	28.74
616.718	28.65
616.911	28.7
617.103	28.63
617.296	28.42
617.489	28.38
617.682	28.34
617.875	28.26
618.067	28.27
618.26	28.24
618.453	28.19
618.646	28.2
618.838	28.2
619.031	28.23
619.224	28.15
619.417	28.03
619.609	28.01
619.802	27.97
619.994	27.85
620.187	27.82
620.38	27.85
620.572	27.7
620.765	27.87
620.957	27.74
621.15	27.67
621.342	27.56
621.535	27.59
621.727	27.32
621.92	27.31
622.112	27.34
622.305	27.35
622.497	27.41
622.69	27.38
622.882	27.34
623.074	27.36
623.267	27.33
623.459	27.14
623.651	27.12
623.844	27.07
624.036	26.98
624.228	26.96
624.42	26.99
624.613	27.09
624.805	27.11
624.997	27.08
625.189	27.07
625.381	27.02
625.574	26.89
625.766	26.8
625.958	26.75
626.15	26.79
626.342	26.81
626.534	26.79
626.726	26.81
626.918	26.82
627.11	26.7
627.302	26.67
627.494	26.57
627.686	26.59
627.878	26.51
628.07	26.57
628.262	26.53
628.454	26.56
628.646	26.53
628.838	26.67
629.029	26.56
629.221	26.55
629.413	26.53
629.605	26.35
629.797	26.17
629.989	26.15
630.18	26.11
630.372	26.04
630.564	26.12
630.755	26.17
630.947	26.18
631.139	26.02
631.33	25.93
631.522	26.05
631.714	26
631.905	25.88
632.097	25.83
632.289	25.86
632.48	25.67
632.672	25.56
632.863	25.52
633.055	25.61
633.246	25.58
633.438	25.56
633.629	25.57
633.821	25.6
634.012	25.51
634.203	25.44
634.395	25.37
634.586	25.41
634.777	25.37
634.969	25.42
635.16	25.48
635.351	25.46
635.543	25.43
635.734	25.48
635.925	25.46
636.117	25.37
636.308	25.43
636.499	25.42
636.69	25.32
636.881	25.36
637.073	25.51
637.264	25.43
637.455	25.36
637.646	25.46
637.837	25.4
638.028	25.25
638.219	25.35
638.41	25.33
638.601	25.29
638.792	25.31
638.983	25.28
639.174	25.19
639.365	25.23
639.556	25.12
639.747	24.99
639.938	25.11
640.129	25.06
640.32	24.93
640.511	24.97
640.701	25.1
640.892	24.92
641.083	24.93
641.274	25.05
641.465	25.01
641.655	24.82
641.846	24.92
642.037	24.88
642.228	24.81
642.418	24.8
642.609	24.86
642.8	24.8
642.99	24.7
643.181	24.71
643.372	24.73
643.562	24.78
643.753	24.63
643.943	24.69
644.134	24.56
644.324	24.49
644.515	24.42
644.705	24.53
644.896	24.42
645.086	24.42
645.277	24.3
645.467	24.28
645.658	24.23
645.848	24.28
646.038	24.25
646.229	24.25
646.419	24.13
646.61	24.09
646.8	23.96
646.99	23.94
647.18	23.98
647.371	24.04
647.561	23.98
647.751	24.14
647.941	23.94
648.132	23.88
648.322	23.86
648.512	23.8
648.702	23.75
648.892	23.89
649.082	23.8
649.272	23.66
649.462	23.56
649.653	23.41
649.843	23.24
650.033	23.3
650.223	23.24
650.413	23.23
650.603	23.23
650.793	23.33
650.983	23.21
651.172	23.19
651.362	23.1
651.552	22.9
651.742	22.69
651.932	22.63
652.122	22.58
652.312	22.56
652.502	22.5
652.691	22.51
652.881	22.4
653.071	22.2
653.261	22.11
653.45	21.98
653.64	21.92
653.83	21.69
654.019	21.51
654.209	21.38
654.399	21.35
654.588	21.1
654.778	21.08
654.968	21.02
655.157	20.89
655.347	20.65
655.536	20.55
655.726	20.36
655.915	20.13
656.105	19.92
656.294	19.81
656.484	19.61
656.673	19.46
656.863	19.36
657.052	19.13
657.241	18.89
657.431	18.61
657.62	18.43
657.809	18.15
657.999	18.04
658.188	17.93
658.377	17.81
658.567	17.59
658.756	17.44
658.945	17.17
659.134	16.97
659.324	16.69
659.513	16.52
659.702	16.24
659.891	16.08
660.08	15.79
660.269	15.69
660.458	15.46
660.648	15.32
660.837	15.09
661.026	14.98
661.215	14.69
661.404	14.41
661.593	14.21
661.782	13.9
661.971	13.75
662.16	13.54
662.349	13.43
662.538	13.27
662.726	13.26
662.915	12.98
663.104	12.84
663.293	12.72
663.482	12.65
663.671	12.52
663.86	12.39
664.048	12.16
664.237	12.1
664.426	11.81
664.615	11.63
664.803	11.5
664.992	11.44
665.181	11.2
665.369	11.03
665.558	10.86
665.747	10.77
665.935	10.8
666.124	10.79
666.312	10.91
666.501	10.8
666.69	10.55
666.878	10.39
667.067	10.27
667.255	10.06
667.444	10.27
667.632	10.4
667.82	10.36
668.009	10.25
668.197	10.12
668.386	9.83
668.574	9.8
668.762	9.69
668.951	9.59
669.139	9.63
669.327	9.56
669.516	9.51
669.704	9.46
669.892	9.58
670.08	9.52
670.269	9.35
670.457	9.2
670.645	9.1
670.833	9.08
671.021	9.14
671.21	9.34
671.398	9.5
671.586	9.51
671.774	9.35
671.962	9.35
672.15	9.32
672.338	9.21
672.526	9.21
672.714	9.04
672.902	9.03
673.09	9.11
673.278	9.2
673.466	9.23
673.654	9.57
673.842	9.49
674.03	9.46
674.218	9.46
674.405	9.55
674.593	9.46
674.781	9.56
674.969	9.59
675.157	9.67
675.344	9.71
675.532	9.73
675.72	9.84
675.908	9.92
676.095	9.92
676.283	9.97
676.471	10.19
676.658	10.2
676.846	10.19
677.033	10.29
677.221	10.41
677.409	10.25
677.596	10.29
677.784	10.32
677.971	10.31
678.159	10.32
678.346	10.44
678.534	10.58
678.721	10.83
678.909	10.95
679.096	10.94
679.283	11.17
679.471	11.39
679.658	11.42
679.846	11.72
680.033	11.87
680.22	11.9
680.408	11.92
680.595	11.97
680.782	11.82
680.969	12.1
681.157	12.27
681.344	12.35
681.531	12.49
681.718	12.7
681.905	12.83
682.093	12.98
682.28	13.25
682.467	13.62
682.654	13.82
682.841	14.02
683.028	14.37
683.215	14.52
683.402	14.51
683.589	14.75
683.776	15.03
683.963	15.04
684.15	15.35
684.337	15.59
684.524	15.97
684.711	16.28
684.898	16.54
685.085	16.88
685.271	17.48
685.458	17.57
685.645	17.73
685.832	18.14
686.019	18.37
686.205	18.58
686.392	19.08
686.579	19.53
686.766	19.95
686.952	20.44
687.139	21.01
687.326	21.32
687.512	21.81
687.699	22.19
687.886	22.38
688.072	22.56
688.259	23.26
688.445	23.71
688.632	24.17
688.818	24.91
689.005	25.34
689.191	25.62
689.378	26.26
689.564	26.93
689.751	27.39
689.937	28.03
690.124	28.72
690.31	29.15
690.496	29.73
690.683	30.36
690.869	30.91
691.055	31.43
691.242	32.15
691.428	32.63
691.614	33.18
691.8	33.95
691.987	34.6
692.173	35.15
692.359	35.88
692.545	36.76
692.731	37.52
692.918	38.22
693.104	38.74
693.29	39.36
693.476	39.94
693.662	40.39
693.848	40.7
694.034	41.23
694.22	41.76
694.406	42.35
694.592	42.9
694.778	43.77
694.964	44.5
695.15	45.19
695.336	45.62
695.522	46.42
695.708	47.07
695.894	47.76
696.08	48.22
696.265	48.86
696.451	49.4
696.637	50.05
696.823	50.46
697.009	50.61
697.194	51.23
697.38	51.54
697.566	51.86
697.751	52.43
697.937	53.76
698.123	54.05
698.308	54.53
698.494	55.11
698.68	55.49
698.865	55.73
699.051	56.42
699.236	57.12
699.422	57.63
699.607	57.87
699.793	58.17
699.978	58.72
700.164	58.92
700.349	59.62
700.535	60.08
700.72	60.53
700.906	60.73
701.091	61.13
701.276	61.34
701.462	62.45
701.647	63.07
701.832	63.4
702.018	63.7
702.203	63.5
702.388	63.28
702.573	63.45
702.759	64.03
702.944	64.32
703.129	65.13
703.314	65.36
703.499	65.62
703.684	65.78
703.87	66.58
704.055	67.12
704.24	67.71
704.425	68.15
704.61	68.52
704.795	68.36
704.98	68.53
705.165	68.45
705.35	68.53
705.535	68.51
705.72	68.8
705.905	68.74
706.09	69.17
706.275	69.54
706.459	69.89
706.644	70.06
706.829	70.29
707.014	70.12
707.199	70.48
707.384	71.07
707.568	71.56
707.753	72.11
707.938	72.79
708.123	72.71
708.307	72.65
708.492	72.7
708.677	72.71
708.861	72.77
709.046	72.6
709.231	72.56
709.415	72.78
709.6	72.65
709.784	72.27
709.969	72.43
710.153	72.51
710.338	72.24
710.522	72.61
710.707	73.1
710.891	73.49
711.076	73.99
711.26	74.19
711.445	74.26
711.629	74.3
711.813	74.39
711.998	74.04
712.182	74.09
712.366	74.32
712.551	75.3
712.735	75.29
712.919	75.42
713.103	75.7
713.288	75.27
713.472	74.58
713.656	75
713.84	75.34
714.024	75.51
714.208	75.65
714.393	75.97
714.577	76.16
714.761	76.03
714.945	75.71
715.129	76.15
715.313	76.4
715.497	76.06
715.681	76.62
715.865	77.15
716.049	77.18
716.233	77.12
716.417	77.45
716.601	77.27
716.785	77.33
716.968	77.44
717.152	77.76
717.336	77.77
717.52	77.68
717.704	77.51
717.888	78.11
718.071	78.02
718.255	78.28
718.439	78.45
718.622	78.77
718.806	78.16
718.99	77.69
719.174	77.29
719.357	77.58
719.541	77.86
719.724	78.14
719.908	79.03
720.092	79.63
720.275	79.07
720.459	78.89
720.642	78.61
720.826	77.79
721.009	77.38
721.193	77.58
721.376	77.74
721.559	78.38
721.743	78.58
721.926	79.2
722.11	79.22
722.293	78.63
722.476	78.06
722.66	78.39
722.843	77.86
723.026	77.59
723.21	77.87
723.393	78.48
723.576	78.29
723.759	77.96
723.942	78.11
724.126	78.09
724.309	77.96
724.492	77.97
724.675	78.64
724.858	78.78
725.041	79.47
725.224	79.86
725.407	80.02
725.59	80.26
725.774	80.32
725.957	79.53
726.14	79.04
726.322	78.82
726.505	78.7
726.688	79.24
726.871	79.7
727.054	79.98
727.237	80.21
727.42	80.51
727.603	80.04
727.786	80.11
727.968	80.02
728.151	80.1
728.334	79.55
728.517	80.11
728.699	80.2
728.882	79.87
729.065	80.19
729.248	80.48
729.43	80.38
729.613	81.27
729.796	81.93
729.978	81.42
730.161	81.49
730.343	81.33
730.526	81.55
730.708	81.16
730.891	82.04
731.073	81.42
731.256	81.37
731.438	80.36
731.621	80.87
731.803	80.56
731.986	81.62
732.168	81.25
732.35	81.39
732.533	80.93
732.715	80.71
732.898	80.42
733.08	80.49
733.262	80.96
733.444	80.66
733.627	80.89
733.809	81.08
733.991	82.05
734.173	81.2
734.355	81.49
734.538	81.91
734.72	81.35
734.902	80.83
735.084	80.75
735.266	80.61
735.448	80.72
735.63	81.08
735.812	81.65
735.994	82.86
736.176	83.45
736.358	82.49
736.54	83
736.722	82.26
736.904	81.73
737.086	81.61
737.268	82.76
737.45	81.97
737.632	82.16
737.814	81.93
737.995	81.58
738.177	81.12
738.359	80.92
738.541	81.85
738.723	81.69
738.904	82.18
739.086	82.33
739.268	82.89
739.449	82.04
739.631	82.15
739.813	82.57
739.994	82.68
740.176	83.1
740.358	83.46
740.539	84.3
740.721	83.7
740.902	84.45
741.084	83.79
741.265	83.58
741.447	83.19
741.628	83.16
741.81	81.81
741.991	82.45
742.172	82.96
742.354	82.96
742.535	83.45
742.717	83.57
742.898	83.66
743.079	84.01
743.261	84.08
743.442	82.97
743.623	83.73
743.804	83.88
743.986	84.34
744.167	83.4
744.348	83.81
744.529	83.83
744.71	82.16
744.891	80.85
745.073	80.85
745.254	81.09
745.435	81.28
745.616	80.94
745.797	81.2
745.978	81.13
746.159	81.29
746.34	79.62
746.521	81.77
746.702	80.89
746.883	81.69
747.064	81.75
747.245	82.23
747.426	80.92
747.606	81.87
747.787	81.8
747.968	81.38
748.149	82.57
748.33	83.81
748.51	83.73
748.691	83.31
748.872	84.06
749.053	82.59
749.233	80.63
749.414	79.9
749.595	79.1
749.775	77.48
749.956	77.28
750.137	78.71
750.317	79.82
750.498	81.74
750.678	82.82
750.859	84.59
751.04	84.65
751.22	82.69
751.4	82.27
751.581	80.84
751.761	80.29
751.942	81.07
752.122	82.05
752.303	80.52
752.483	81.13
752.663	80.47
752.844	78.45
753.024	78.99
753.204	79.44
753.385	79.46
753.565	80.36
753.745	80.64
753.925	79.67
754.106	80.35
754.286	79.86
754.466	79.72
754.646	81.32
754.826	82.12
755.006	80.83
755.187	82.44
755.367	82.26
755.547	80.49
755.727	80.39
755.907	81.08
756.087	80.71
756.267	79.35
756.447	79.85
756.627	77.97
756.807	78.29
756.987	78.28
757.167	79.31
757.346	79.6
757.526	79.82
757.706	80.87
757.886	80.76
758.066	81.38
758.246	82.87
758.425	82.91
758.605	80.78
758.785	80.68
758.965	80.3
759.144	78.13
759.324	79.8
759.504	81.14
759.683	82.25
759.863	80.39
760.043	80.3
760.222	78.74
760.402	77.94
760.581	76.8
760.761	79.28
760.94	78.28
761.12	81.22
761.299	82.13
761.479	82.33
761.658	80.05
761.838	80.72
762.017	78.65
762.197	78.13
762.376	77.67
762.555	79.59
762.735	81.79
762.914	81.72
763.093	82.02
763.273	81.08
763.452	80.69
763.631	78.9
763.81	79.65
763.99	79.56
764.169	79.76
764.348	79.11
764.527	77.91
764.706	77.14
764.885	78.31
765.064	77.39
765.243	76.98
765.423	79.81
765.602	79.12
765.781	77.04
765.96	76.84
766.139	77.14
766.318	76.34
766.497	76.6
766.676	76.75
766.854	79.01
767.033	78.87
767.212	78.16
767.391	79.32
767.57	80.93
767.749	80.76
767.928	82.85
768.106	82.29
768.285	79.78
768.464	78.99
768.643	78.63
768.821	76.78
769	78.35
769.179	78.87
769.357	77.12
769.536	75.8
769.715	76.25
769.893	76.98
770.072	76.17
770.25	77.75
770.429	79.95
770.607	78.71
770.786	78.06
770.964	80.21
771.143	78.16
771.321	76.24
771.5	77.42
771.678	75.34
771.857	74.03
772.035	76.79
772.213	76.16
772.392	74.03
772.57	76.19
772.748	76.74
772.927	73.92
773.105	74.5
773.283	76.56
773.461	76.54
773.64	77.45
773.818	77.25
773.996	78.35
774.174	76.65
774.352	74.38
774.531	71.29
774.709	74.29
774.887	74.19
775.065	73.71
775.243	74.61
775.421	77.07
775.599	77.55
775.777	74.2
775.955	73.76
776.133	73.36
776.311	71.96
776.489	68.62
776.667	72.45
776.844	74.23
777.022	73.26
777.2	73.34
777.378	74.39
777.556	74.57
777.734	75.29
777.911	78.14
778.089	77.81
778.267	78.34
778.445	75.3
778.622	73.95
778.8	72.32
778.978	73.65
779.155	73.69
779.333	75.5
779.511	75.98
779.688	76.34
779.866	74.31
780.043	71.06
780.221	69.29
780.398	67.56
780.576	68.96
780.753	70.71
780.931	73.43
781.108	72.5
781.286	74.85
781.463	73.65
781.64	70.17
781.818	69.42
781.995	70.55
782.172	67.85
782.35	66.91
782.527	70.56
782.704	69.28
782.882	72.14
783.059	74.73
783.236	78.32
783.413	78.41
783.59	81.01
783.768	79.59
783.945	80.49
784.122	79.31
784.299	80.56
784.476	79.4
784.653	78.8
784.83	74.32
785.007	68.56
785.184	68.7
785.361	67.24
785.538	70.8
785.715	73.23
785.892	77.03
786.069	77.4
786.246	80.76
786.423	76.67
786.6	78.24
786.776	77.83
786.953	72.48
787.13	73.53
787.307	74.61
787.484	71.99
787.66	69.19
787.837	71.26
788.014	67.02
788.191	65.34
788.367	61.78
788.544	68.29
788.721	67.09
788.897	69.25
789.074	70.93
789.25	73.6
789.427	69.68
789.603	71.45
789.78	72.2
789.956	68.98
790.133	69.56
790.309	72.75
790.486	77.13
790.662	74.97
790.839	76.08
791.015	77.21
791.192	73.66
791.368	72.32
791.544	71.26
791.721	73.15
791.897	75.36
792.073	73.66
792.249	67.7
792.426	66.72
792.602	68.68
792.778	66.67
792.954	66.14
793.13	68.68
793.307	65.47
793.483	57.69
793.659	55.24
793.835	60.46
794.011	56.5
794.187	61.56
794.363	63.74
794.539	69.67
794.715	62.75
794.891	68.29
795.067	65.27
795.243	67.98
795.419	64.35
795.595	62.95
795.771	63.04
795.947	66.62
796.122	67.47
796.298	67.09
796.474	72.72
796.65	68.89
796.826	66.66
797.001	66.63
797.177	67.57
797.353	70.96
797.529	76.83
797.704	77.07
797.88	74.64
798.056	70.54
798.231	64.5
798.407	64.84
798.582	64.97
798.758	75.46
798.934	81.44
799.109	82.74
799.285	75.3
799.46	77.23
799.636	70.01
799.811	67
799.986	71.72
800.162	80.68
800.337	81.17
800.513	77.24
800.688	73.03
800.863	77.71
801.039	66.87
801.214	67.04
801.389	73.47
801.565	73.69
801.74	59.73
801.915	68.25
802.09	67.58
802.265	66.79
802.441	66.48
802.616	69.61
802.791	68.43
802.966	66.24
803.141	66.1
803.316	66.91
803.491	67.57
803.666	72.15
803.841	73.98
804.016	68.68
804.191	72.02
804.366	70.86
804.541	63.8
804.716	59.35
804.891	58.31
805.066	59.19
805.241	56.63
805.416	57.77
805.591	60.99
805.765	65.91
805.94	71.65
806.115	71
806.29	61.33
806.464	58.98
806.639	51.58
806.814	41.03
806.989	35.56
807.163	50.92
807.338	50.95
807.512	52.22
807.687	45.05
807.862	64.3
808.036	68.93
808.211	73.96
808.385	79.73
808.56	94.55
808.734	90.79
808.909	85.78
809.083	78.54
809.258	85.43
809.432	79.61
809.606	66.1
809.781	60.6
809.955	69.36
810.13	66.27
810.304	63.96
810.478	66.07
810.652	70.39
810.827	67.88
811.001	64.34
811.175	64.09
811.349	64.37
811.524	56.74
811.698	46.53
811.872	42.85
812.046	56.09
812.22	65.85
812.394	69.17
812.568	76.34
812.742	84.48
812.916	68.59
813.09	58.04
813.264	58.07
813.438	60.36
813.612	54.43
813.786	53.22
813.96	60.9
814.134	61.33
814.308	69.04
814.482	73.74
814.656	69.33
814.83	65.93
815.003	69.5
815.177	56.67
815.351	53.19
815.525	51.5
815.698	47.88
815.872	37.27
816.046	29.84
816.219	32.65
816.393	48.3
816.567	52.98
816.74	61.94
816.914	70.99
817.088	75.97
817.261	67.37
817.435	61.23
817.608	57.43
817.782	58.77
817.955	58.96
818.129	54.46
818.302	62.57
818.475	69.87
818.649	59.85
818.822	54.84
818.996	79
819.169	81.94
819.342	73.95
819.516	90.87
819.689	81.72
819.862	60.73
820.035	50.01
820.209	43.35
820.382	39.77
820.555	38.9
820.728	23.7
820.901	24.8
821.075	24.19
821.248	29.34
821.421	21.03
821.594	24.93
821.767	35.73
821.94	54.3
822.113	30.93
822.286	35.41
822.459	47.12
822.632	36.46
822.805	10.16
822.978	10.37
823.151	15.85
823.324	13.79
823.496	9.31
823.669	27.38
823.842	29.65
824.015	17.46
824.188	11.3
824.361	17.15
824.533	15.8
824.706	35.98
824.879	28.53
825.051	38.75
825.224	41.74
825.397	34.8
825.569	24.29
825.742	49.58
825.915	53.88
826.087	58.45
826.26	45.52
826.432	42.05
826.605	39.95
826.777	35.34
826.95	35.39
827.122	35.56
827.295	52.92
827.467	58.36
827.64	41.62
827.812	28.28
827.984	38.42
828.157	12.87
828.329	-18.77
828.501	2.56
828.674	32.18
828.846	19.71
829.018	47.14
829.19	32.47
829.363	55.83
829.535	61.07
829.707	70.34
829.879	39.15
830.051	44.6
830.223	26.05
830.395	-2.61
830.568	-3.95
830.74	-5.54
830.912	32.17
831.084	13.87
831.256	11.57
831.428	3.95
831.6	-6.78
831.772	-47.39
831.943	-63.42
832.115	-31.87
832.287	-0.76
832.459	27.36
832.631	46.05
832.803	73.44
832.975	77.54
833.146	58.37
833.318	53.24
833.49	56.56
833.662	43.48
833.833	19.33
834.005	19.81
834.177	15.34
834.348	12.78
834.52	7.56
834.692	10.19
834.863	-4.11
835.035	16.53
835.206	-21.5
835.378	13.88
835.549	25.96
835.721	40.76
835.892	34.24
836.064	38.82
836.235	39.83
836.407	56.26
836.578	27.68
836.749	37.79
836.921	29.24
837.092	-25.45
837.264	-43.55
837.435	-44.89
837.606	-14.44
837.777	9.52
837.949	31.27
838.12	51.11
838.291	59.88
838.462	56.43
838.633	43.07
838.805	40.08
838.976	30.91
839.147	10.35
839.318	-2.03
839.489	-41.51
839.66	-33.63
839.831	15.44
840.002	16.62
840.173	-4.24
840.344	56.75
840.515	83.77
840.686	-4.59
840.857	4.58
841.028	30.94
841.199	13.13
841.369	-16.98
841.54	5.27
841.711	11.84
841.882	33.25
842.053	20.04
842.223	29.48
842.394	40.4
842.565	62.38
842.736	41.78
842.906	48.03
843.077	43.23
843.248	54.33
843.418	27.22
843.589	-0.8
843.759	50.87
843.93	87.54
844.101	22.92
844.271	31.32
844.442	51.55
844.612	47.88
844.783	19.21
844.953	7.5
845.123	8.83
845.294	-66.65
845.464	-305.45
845.635	-161.38
845.805	-58.17
845.975	-14.24
846.146	5.07
846.316	12.19
846.486	28.06
846.656	55.11
846.827	43.11
846.997	39.93
847.167	44.73
847.337	27.96
847.507	-17.01
847.677	-0.86
847.848	47.82
848.018	51.42
848.188	45.99
848.358	30.33
848.528	20.82
848.698	-34.53
848.868	-110.52
849.038	-169.59
849.208	-43.97
849.378	-10.04
849.548	9.72
849.718	18.18
849.887	24.35
850.057	-9.34
850.227	-36.76
850.397	-65.16
850.567	-203.98
850.737	-410.98
850.906	-799.06
851.076	-562.7
851.246	-108.51
851.415	99.18
851.585	64.35
851.755	27.66
851.924	42.02
852.094	20.68
852.264	-69.75
852.433	-877.16
852.603	-167.88
852.772	-119.88
852.942	-69.51
853.111	-54.61
853.281	0.67
853.45	54.58
853.62	20.61
853.789	28.99
853.959	66.36
854.128	32.24
854.297	-8.89
854.467	-39.38
854.636	-41.33
854.805	-15.48
854.975	-44.15
855.144	-133.22
855.313	-134.44
855.482	-374.64
855.652	-200.79
855.821	-141.35
855.99	13
856.159	32.37
856.328	43.47
856.497	36.89
856.667	32.69
856.836	26.35
857.005	-22.94
857.174	-34.43
857.343	-48.79
857.512	8.18
857.681	-15.66
857.85	-11.7
858.019	13.25
858.188	23.01
858.356	-1.29
858.525	-43.54
858.694	-25.97
858.863	-127.19
859.032	-59.21
859.201	-136.49
859.369	-33.74
859.538	16.54
859.707	19.35
859.876	-16.01
860.044	-1.16
860.213	49.77
860.382	14.54
860.55	19.5
860.719	42.44
860.888	53.24
861.056	1.06
861.225	34.35
861.393	61.93
861.562	57.76
861.73	-6.49
861.899	-108.51
862.067	-2349.14
862.236	-109.54
862.404	-230.04
862.572	-96.05
862.741	11.85
862.909	15.33
863.078	-69.39
863.246	-26.84
863.414	-17.63
863.582	-31.3
863.751	-30.04
863.919	-10.63
864.087	40.97
864.255	40.85
864.424	-162.65
864.592	-1.38
864.76	-19.05
864.928	-177.8
865.096	-124.28
865.264	-12.2
865.432	-900.57
865.6	31.38
865.768	-111.6
865.936	-103.61
866.104	-139.7
866.272	-147.27
866.44	-362.7
866.608	502.31
866.776	224.86
866.944	1542.44
867.112	-298.83
867.28	-164.91
867.448	-34.02
867.615	-9.95
867.783	-4.87
867.951	-15.94
868.119	34.31
868.286	3.21
868.454	-38.68
868.622	-43.02
868.789	16.82
868.957	898.21
869.125	-553.29
869.292	-39.13
869.46	-167.89
869.627	-37.75
869.795	-46.13
869.963	5.23
870.13	30.54
870.298	80.75
870.465	82.24
870.632	62.41
870.8	44.35
870.967	18.04
871.135	-32.04
871.302	-24.31
871.469	-53.82
871.637	5.25
871.804	15.15
871.971	-34.44
872.139	-238.72
872.306	63.61
872.473	-11.03
872.64	-139.16
872.807	-7.87
872.975	50.27
873.142	-156.09
873.309	819.59
873.476	62.08
873.643	112.6
873.81	95.18
873.977	100.55
874.144	79.99
874.311	19.71
874.478	-72.25
874.645	-109.56
874.812	-81.86
874.979	-68.24
875.146	-84.73
875.313	-71.15
875.48	10.31
875.647	-1.53
875.813	-28.17
875.98	3.07
876.147	-15.09
876.314	-71.13
876.481	667.15
876.647	-505.9
876.814	135.36
876.981	220.29
877.147	86.19
877.314	82.93
877.481	104.14
877.647	76.97
877.814	35.05
877.98	-2.4
878.147	9.6
878.314	31.73
878.48	-28.03
878.647	-0.85
878.813	41.84
878.979	43.05
879.146	17.36
879.312	35.96
879.479	20.89
879.645	-28.14
879.811	-152.44
879.978	-460.5
880.144	-123.95
880.31	-75.86
880.477	-251.75
880.643	-327.55
880.809	-150.37
880.975	-114.72
881.142	-646.59
881.308	-52.2
881.474	27.06
881.64	51.8
881.806	7.6
881.972	45.15
882.138	65.96
882.304	68.23
882.47	-117.04
882.636	-408.4
882.802	-126.19
882.968	-1.9
883.134	-1.54
883.3	-2.72
883.466	23.37
883.632	66.32
883.798	26.33
883.964	12.49
884.129	51.54
884.295	82.68
884.461	-43.32
884.627	-50.78
884.793	-59.86
884.958	-32.39
885.124	-126.71
885.29	-172.18
885.455	-297.21
885.621	-34.4
885.787	-114.97
885.952	-48.38
886.118	-69.97
886.283	-57.52
886.449	-142.92
886.614	-151.65
886.78	-303.56
886.945	1003.69
887.111	-520.38
887.276	-569.46
887.442	-902.95
887.607	-290.21
887.773	-208.36
887.938	-136.36
888.103	7.35
888.269	150.83
888.434	246.35
888.599	137.14
888.764	152.29
888.93	42.55
889.095	22.51
889.26	-24.62
889.425	-6.76
889.59	2.14
889.756	-2.72
889.921	-10.01
890.086	9.52
890.251	17.86
890.416	-92.73
890.581	-876.21
890.746	101.87
890.911	151.11
891.076	94.22
891.241	-163.62
891.406	63.4
891.571	-5.04
891.736	-161.12
891.901	-528.54
892.065	415.66
892.23	157.07
892.395	234.3
892.56	347.76
892.725	-400.98
892.889	-1676.22
893.054	-208.28
893.219	-26.55
893.384	41.89
893.548	22.58
893.713	27.63
893.878	65.3
