Data from Ofra_PS_T2_1A_2GT07_Reflection_3.txt Node
Date: Wed Jul 21 18:00:52 EDT 2021
User: Adam
Spectrometer: FLMT01687
Trigger mode: 0
Integration Time (sec): 1.100000E0
Scans to average: 2
Electric dark correction enabled: true
Nonlinearity correction enabled: false
Boxcar width: 2
XAxis mode: Wavelengths
Number of Pixels in Spectrum: 3648
>>>>>Begin Spectral Data<<<<<
179.494	445.2
179.716	503.29
179.937	492.04
180.158	495.37
180.38	726.56
180.601	257.73
180.823	77.11
181.044	-131.52
181.265	-135.66
181.486	-30.97
181.708	48.15
181.929	596.94
182.15	-285.21
182.372	38.01
182.593	-97.74
182.814	-36.4
183.035	37.83
183.257	11.97
183.478	-45
183.699	28.81
183.92	26.78
184.141	6.79
184.363	-40.47
184.584	-19.37
184.805	-4.77
185.026	27.29
185.247	37.5
185.468	24.96
185.689	63.03
185.91	63.45
186.132	66.31
186.353	45.18
186.574	93.81
186.795	45.13
187.016	-5.36
187.237	-12.76
187.458	-33.58
187.679	-33.91
187.9	19.35
188.121	26.27
188.342	47.64
188.563	81.1
188.784	132.1
189.005	85.42
189.226	139.82
189.447	128.19
189.667	76.46
189.888	-183.99
190.109	-757.79
190.33	-419.03
190.551	-728.76
190.772	-106.42
190.993	-24.7
191.214	59.28
191.434	34.53
191.655	101.41
191.876	108.97
192.097	26.49
192.318	-59.94
192.538	-73.46
192.759	-102.33
192.98	-26.13
193.201	11.48
193.421	25.97
193.642	33.21
193.863	30.58
194.083	24.67
194.304	8.84
194.525	11.49
194.745	4.39
194.966	-25.4
195.187	-47.58
195.407	-44.44
195.628	-92.39
195.848	-104.05
196.069	-70.53
196.29	-0.2
196.51	-29.53
196.731	-27.2
196.951	-24.67
197.172	-58.5
197.392	-84.96
197.613	-67.82
197.833	-93.34
198.054	-96.98
198.274	-32.68
198.495	-71.4
198.715	-45.69
198.936	-71.55
199.156	-67.66
199.377	-156.07
199.597	-111.82
199.817	-138.26
200.038	-49.19
200.258	-79.67
200.479	-34.79
200.699	-38.96
200.919	33.44
201.14	-0.17
201.36	-13.29
201.58	33.59
201.801	52.4
202.021	28.96
202.241	33.19
202.461	36.15
202.682	-72.25
202.902	-151.8
203.122	-89.59
203.342	-76.5
203.563	-26.44
203.783	22.29
204.003	24.95
204.223	4.96
204.443	52.7
204.663	4.08
204.884	31.19
205.104	55.4
205.324	102.79
205.544	99.63
205.764	114.16
205.984	77.16
206.204	75.35
206.424	49.2
206.644	-1.47
206.864	9.11
207.084	0.22
207.304	9.27
207.525	-6.09
207.745	50.38
207.964	55.81
208.184	8.26
208.404	-34.29
208.624	-33.32
208.844	-51.49
209.064	-336.98
209.284	-326.04
209.504	-166.89
209.724	-62.89
209.944	-16.68
210.164	26.56
210.384	36.01
210.604	27.93
210.823	-1.18
211.043	-35.09
211.263	-37.15
211.483	-44.32
211.703	-93.54
211.922	-54.31
212.142	30.61
212.362	48.99
212.582	18.88
212.801	44.15
213.021	5.24
213.241	-14.81
213.461	-43.69
213.68	-29.23
213.9	3.14
214.12	23.28
214.339	-42.09
214.559	4.85
214.779	23.91
214.998	2.36
215.218	-28.37
215.438	-1.38
215.657	-25.37
215.877	-24.74
216.096	-9.15
216.316	8.75
216.535	-7.62
216.755	-9.67
216.974	-85.12
217.194	-106.66
217.413	-114.63
217.633	-119.06
217.852	-220.25
218.072	-85.95
218.291	-44.92
218.511	-11.08
218.73	-23.26
218.95	-7.4
219.169	-20.98
219.389	-39.23
219.608	-27.07
219.827	-14.23
220.047	0.98
220.266	22.25
220.485	11.35
220.705	17.63
220.924	-2.81
221.143	18.04
221.363	-8.1
221.582	-0.94
221.801	-8.04
222.021	15.98
222.24	-68.09
222.459	-20.4
222.678	-23.71
222.897	-57.2
223.117	-106.05
223.336	-55.78
223.555	-57.24
223.774	-34.03
223.993	6.95
224.213	55.78
224.432	43.23
224.651	66.83
224.87	43.21
225.089	56.99
225.308	51.43
225.527	57.31
225.746	58.43
225.965	58.17
226.184	3.56
226.404	17.69
226.623	-2.01
226.842	-1.94
227.061	28.11
227.28	39.08
227.499	24.54
227.718	40.06
227.936	37.52
228.155	35.34
228.374	44.25
228.593	46.98
228.812	38.92
229.031	34.16
229.25	-23.61
229.469	-26.3
229.688	-24.8
229.907	3.77
230.125	12.57
230.344	51.37
230.563	34.62
230.782	50.12
231.001	-15.55
231.22	4.55
231.438	-1
231.657	5.55
231.876	-10.17
232.095	42.34
232.313	33.39
232.532	21.45
232.751	1.39
232.969	-40.67
233.188	-114.94
233.407	-55.99
233.625	-20.72
233.844	-31.56
234.063	16.56
234.281	26.04
234.5	18.46
234.719	34.14
234.937	48.3
235.156	35.66
235.374	37.61
235.593	29.63
235.811	7.6
236.03	-13.92
236.249	-42.14
236.467	-35.83
236.686	3.28
236.904	9.04
237.123	-10.07
237.341	-11.65
237.559	-3.54
237.778	-33.2
237.996	-51.28
238.215	6.59
238.433	21.85
238.652	2.82
238.87	3.41
239.088	11.69
239.307	7.17
239.525	10.29
239.743	8.57
239.962	23.92
240.18	-10.59
240.398	-79.93
240.617	-79.84
240.835	-74.56
241.053	-53.62
241.271	4.97
241.49	35.35
241.708	0.78
241.926	-18.68
242.144	1.96
242.363	-52.06
242.581	-66.46
242.799	-18.26
243.017	2.51
243.235	-32.07
243.453	-20.26
243.672	-14.68
243.89	-8.62
244.108	-18.86
244.326	9.12
244.544	18.84
244.762	4.64
244.98	1.6
245.198	1.35
245.416	-38.34
245.634	-57.23
245.852	-48.6
246.07	-70.46
246.288	-62.6
246.506	-80.24
246.724	-20.24
246.942	-4.32
247.16	20.66
247.378	37.25
247.596	49.93
247.814	34.72
248.032	-3.25
248.25	16.34
248.468	14.7
248.685	29.98
248.903	47.99
249.121	57.46
249.339	22.63
249.557	4.88
249.775	13.84
249.992	-57.6
250.21	-59.24
250.428	-48.75
250.646	-65.65
250.863	-89.39
251.081	-39.55
251.299	-12.15
251.517	9.14
251.734	19.58
251.952	10.56
252.17	4.42
252.387	7.28
252.605	-10.74
252.823	7.21
253.04	34.52
253.258	42.66
253.475	26.58
253.693	57.83
253.911	36.52
254.128	32.46
254.346	45.08
254.563	31.67
254.781	19.7
254.998	2.57
255.216	1.18
255.433	-11.74
255.651	31.73
255.868	53.78
256.086	72.98
256.303	36.92
256.521	29.38
256.738	6.65
256.956	-40.12
257.173	-67.42
257.39	-55.75
257.608	-77.46
257.825	-22.63
258.043	35.88
258.26	30.02
258.477	65.17
258.695	68.56
258.912	23.64
259.129	7.8
259.346	-13.4
259.564	-57.73
259.781	-73.13
259.998	-6.74
260.216	23.76
260.433	56.82
260.65	41.04
260.867	45.9
261.084	9.45
261.302	-7.28
261.519	-12.05
261.736	-19.49
261.953	-20.55
262.17	21.55
262.387	-7.87
262.604	-51.08
262.822	-57.34
263.039	-37.02
263.256	-100.26
263.473	-58.85
263.69	-24.66
263.907	20.77
264.124	17.86
264.341	27.15
264.558	17.74
264.775	30.54
264.992	13.32
265.209	10.06
265.426	27.39
265.643	22.94
265.86	22.97
266.077	28.01
266.294	15.92
266.51	-16.29
266.727	-11.24
266.944	3.93
267.161	7.34
267.378	22.82
267.595	56.45
267.812	33.6
268.028	19
268.245	32.97
268.462	3.18
268.679	-30.68
268.896	17.02
269.112	17.64
269.329	14.46
269.546	20.06
269.763	25.95
269.979	11.02
270.196	-1.11
270.413	-37.13
270.629	-61.75
270.846	-71.87
271.063	-72.9
271.279	-73.59
271.496	-65.75
271.712	-7.45
271.929	12.63
272.146	-2
272.362	6.68
272.579	42.8
272.795	29.71
273.012	26.32
273.228	33.85
273.445	9.3
273.661	-35.35
273.878	-57.1
274.094	-47.7
274.311	-70.46
274.527	-6.07
274.744	3.14
274.96	-2.88
275.177	4.38
275.393	24.9
275.609	2.14
275.826	21.68
276.042	14.99
276.259	14.62
276.475	26.93
276.691	36.88
276.908	19.62
277.124	46.98
277.34	30.83
277.557	12.29
277.773	10.51
277.989	14.09
278.205	-8.64
278.422	17.1
278.638	36.57
278.854	44.29
279.07	48.67
279.286	49.26
279.503	26.37
279.719	-3.98
279.935	-21.86
280.151	-30.95
280.367	-13.5
280.583	-30.14
280.799	-17.73
281.016	-35.04
281.232	-3.88
281.448	3.22
281.664	10.74
281.88	-21.55
282.096	-6.24
282.312	-1.24
282.528	-6.53
282.744	26.7
282.96	38.38
283.176	26.73
283.392	24.5
283.608	22.76
283.824	8.1
284.04	18.69
284.256	28.87
284.471	6.39
284.687	1.52
284.903	27.57
285.119	37.43
285.335	18.2
285.551	38.22
285.767	14.55
285.982	-3.75
286.198	-34.46
286.414	26.18
286.63	23.56
286.846	52.49
287.061	28.43
287.277	58.72
287.493	38.33
287.709	53.04
287.924	31.65
288.14	74.59
288.356	58.15
288.571	56.62
288.787	35.87
289.003	37.78
289.218	5.55
289.434	-32.96
289.65	-23.79
289.865	-21.71
290.081	6.53
290.296	37.04
290.512	55.11
290.727	13.17
290.943	6.83
291.159	-11.82
291.374	-18.5
291.59	-31.06
291.805	3.18
292.021	12.86
292.236	17.45
292.451	24.82
292.667	36.77
292.882	45.17
293.098	46.46
293.313	31.7
293.529	22.51
293.744	12.57
293.959	-8.97
294.175	-8.88
294.39	10.81
294.605	10.62
294.821	25.88
295.036	22.76
295.251	21.05
295.467	0.67
295.682	4.55
295.897	-45.31
296.112	-44.64
296.328	-43.17
296.543	-47.54
296.758	-36.21
296.973	13
297.188	41.4
297.404	20.26
297.619	11.28
297.834	-0.81
298.049	-6.58
298.264	-40.51
298.479	11.06
298.694	23.73
298.909	41.1
299.125	44.97
299.34	51.59
299.555	20.24
299.77	40.74
299.985	-14.71
300.2	-78.81
300.415	-88.98
300.63	-47.95
300.845	-60.28
301.06	-54.22
301.275	-5.12
301.49	12.7
301.704	1.22
301.919	-13.3
302.134	-12.79
302.349	-21.56
302.564	-93.81
302.779	-98.84
302.994	-84.4
303.209	-54.86
303.423	-24.68
303.638	35.68
303.853	-8
304.068	-9.17
304.283	-6.04
304.497	-15.22
304.712	-15.18
304.927	2.55
305.142	1.86
305.356	8.44
305.571	13.68
305.786	-6.23
306	-16.58
306.215	-13.2
306.43	-40.43
306.644	-35.98
306.859	-0.15
307.074	0.62
307.288	-22.37
307.503	-6
307.717	-19.08
307.932	-18.18
308.147	-29.88
308.361	-4.43
308.576	-16.1
308.79	-51.81
309.005	-41.2
309.219	-14.36
309.434	-22.52
309.648	-29.15
309.863	11.25
310.077	17.53
310.292	1.17
310.506	14.26
310.72	23.69
310.935	17.59
311.149	9.1
311.364	41.97
311.578	43.19
311.792	31.53
312.007	36.58
312.221	26.97
312.435	28.89
312.649	12.57
312.864	5.78
313.078	17.96
313.292	65.58
313.507	2.41
313.721	22.18
313.935	43.96
314.149	37.09
314.363	24.23
314.578	33.01
314.792	31.61
315.006	26.56
315.22	23.85
315.434	18.97
315.648	31.78
315.862	29.8
316.077	40.49
316.291	28.28
316.505	50.77
316.719	29.09
316.933	21.49
317.147	5.3
317.361	-26.07
317.575	-52.51
317.789	-77.24
318.003	-152.29
318.217	-114.53
318.431	-24.58
318.645	14.06
318.859	22.81
319.073	55.03
319.287	41.27
319.5	5.73
319.714	-39.82
319.928	-56.19
320.142	-108.05
320.356	-43.37
320.57	11.57
320.784	11.04
320.997	3.92
321.211	15.06
321.425	-67.76
321.639	-123.86
321.853	-50.24
322.066	-36.65
322.28	-26
322.494	-3.53
322.707	24.84
322.921	10.91
323.135	13.77
323.349	22.46
323.562	-15.5
323.776	-26.99
323.989	-26.17
324.203	-57.17
324.417	-71.55
324.63	-74.69
324.844	-66.54
325.057	-67.93
325.271	-39.46
325.485	-9.25
325.698	12.3
325.912	30.57
326.125	-4.54
326.339	2.8
326.552	-9.23
326.766	20.03
326.979	22.94
327.193	71.84
327.406	68.81
327.619	53.67
327.833	53.22
328.046	28.02
328.26	-7.46
328.473	6.46
328.686	-14.56
328.9	-10.11
329.113	12.91
329.326	-4.35
329.54	13.17
329.753	13.03
329.966	-2.47
330.179	-3.4
330.393	19.8
330.606	0.95
330.819	23.57
331.032	27.92
331.246	27.15
331.459	46.18
331.672	44.94
331.885	34.42
332.098	15.59
332.311	-2.38
332.525	-67.9
332.738	-41.74
332.951	-17.33
333.164	15.01
333.377	38.51
333.59	66.02
333.803	54.06
334.016	37.2
334.229	31.63
334.442	22.64
334.655	30.9
334.868	31.54
335.081	23.11
335.294	7.9
335.507	14.76
335.72	-3.49
335.933	-8.79
336.146	-0.29
336.359	16.51
336.572	-26.95
336.785	-50.77
336.997	-46.37
337.21	-32.21
337.423	-38.61
337.636	-23.48
337.849	4.59
338.062	3.87
338.274	7.27
338.487	-1.6
338.7	-0.7
338.913	-52.05
339.125	-71.5
339.338	-130.42
339.551	-102.78
339.763	-73.7
339.976	-26.35
340.189	-6.49
340.402	13.77
340.614	3.2
340.827	3.6
341.039	-4.99
341.252	6.46
341.465	18.27
341.677	23.89
341.89	-5.35
342.102	11.9
342.315	-17.49
342.527	-42.84
342.74	-36.45
342.952	6.73
343.165	0.59
343.377	33.12
343.59	17.22
343.802	33.83
344.015	33.47
344.227	54.42
344.44	39.82
344.652	51.76
344.864	34.7
345.077	43.4
345.289	39.11
345.502	40.53
345.714	34.3
345.926	38.99
346.139	29.34
346.351	39.64
346.563	42.83
346.775	46.37
346.988	34.8
347.2	16.04
347.412	-34.26
347.624	-55.35
347.837	-72.92
348.049	-41.96
348.261	6.25
348.473	14.63
348.685	19.57
348.897	6.37
349.11	-23.22
349.322	-51.31
349.534	-34.09
349.746	-24.64
349.958	5.67
350.17	11.77
350.382	21.55
350.594	7.54
350.806	9.94
351.018	5.39
351.23	-8.98
351.442	-68.62
351.654	-73.05
351.866	-71.4
352.078	-62.79
352.29	-16.71
352.502	3.38
352.714	13.9
352.926	2.25
353.138	0.43
353.35	-20.99
353.561	-19.63
353.773	-40.61
353.985	-22.03
354.197	-27.97
354.409	-23.44
354.621	-36.4
354.832	-23.22
355.044	-36.94
355.256	-39.54
355.468	-22.28
355.679	-4.49
355.891	8.61
356.103	3.23
356.314	22.17
356.526	27.1
356.738	34.77
356.949	34.02
357.161	35.28
357.373	25.05
357.584	22.31
357.796	18.31
358.008	10.96
358.219	27.65
358.431	24.2
358.642	17.18
358.854	9.37
359.065	-5.94
359.277	-39.97
359.488	-55.22
359.7	-64.64
359.911	-82.63
360.123	-45.36
360.334	-52.07
360.546	-68.16
360.757	-67.81
360.969	-42.48
361.18	-57.47
361.391	-27.47
361.603	-14.82
361.814	-5.78
362.025	-12.61
362.237	-17.81
362.448	-12.4
362.659	9.85
362.871	8.44
363.082	8.05
363.293	14.2
363.504	8.63
363.716	-27.33
363.927	-36.64
364.138	-54.93
364.349	-55.09
364.56	-49.31
364.772	-35.64
364.983	-19.54
365.194	-17.58
365.405	-6.23
365.616	6.8
365.827	3.78
366.038	-14.17
366.25	-12.12
366.461	-49.73
366.672	-24.5
366.883	1.72
367.094	8.88
367.305	-2.24
367.516	21.94
367.727	-4.31
367.938	-19.31
368.149	-7.74
368.36	12.02
368.571	-1.49
368.781	-3.2
368.992	-13.76
369.203	-34.44
369.414	-56.51
369.625	-52.63
369.836	-52.31
370.047	-61.63
370.258	-41.5
370.468	-47.12
370.679	-65.64
370.89	-58.67
371.101	-38.15
371.312	-47.19
371.522	-22.17
371.733	-12.68
371.944	2.48
372.155	11.67
372.365	3.82
372.576	-7.16
372.787	-8.71
372.997	-35.49
373.208	-36.47
373.419	1.9
373.629	-21.3
373.84	-12.75
374.05	-25.52
374.261	-20.2
374.472	-47.6
374.682	8.14
374.893	5.58
375.103	47.73
375.314	40.96
375.524	40.75
375.735	37.31
375.945	49.9
376.156	19.71
376.366	25.04
376.577	32.15
376.787	15.51
376.997	1.95
377.208	4.45
377.418	-17.68
377.629	-11.53
377.839	-3.2
378.049	2.21
378.26	18.82
378.47	30.77
378.68	20.91
378.89	6.96
379.101	3.55
379.311	-28.76
379.521	-57.69
379.732	-51.53
379.942	-51.43
380.152	-62.63
380.362	-30.87
380.572	-28.73
380.783	-17.33
380.993	0.17
381.203	11.86
381.413	19.22
381.623	38.03
381.833	35.41
382.043	25.64
382.253	21.54
382.463	23.41
382.674	12.4
382.884	-14.48
383.094	-9.63
383.304	-3.92
383.514	-6.95
383.724	2.61
383.934	6.44
384.144	-7.15
384.353	-24.53
384.563	-21.29
384.773	-15.24
384.983	-21.51
385.193	-0.12
385.403	3.11
385.613	-5.58
385.823	-25.18
386.033	-11.63
386.242	-20.11
386.452	-16.03
386.662	-22.73
386.872	1.74
387.082	-8.11
387.291	-12.08
387.501	-11.07
387.711	-4.64
387.921	-15.68
388.13	-12.11
388.34	2.86
388.55	-2.63
388.759	-0.49
388.969	3.92
389.179	2.2
389.388	-2.35
389.598	4.09
389.807	-1.9
390.017	-10.83
390.227	-7.67
390.436	-10.56
390.646	-11.29
390.855	-6.33
391.065	-3.77
391.274	-7.65
391.484	-7.86
391.693	-4.49
391.903	-0.58
392.112	4.64
392.322	9.72
392.531	15.07
392.74	13.82
392.95	8.88
393.159	5.44
393.369	3.53
393.578	0.56
393.787	-0.78
393.997	0.35
394.206	-0.31
394.415	0.64
394.625	-0.44
394.834	-1.04
395.043	-0.37
395.252	2.06
395.462	3.16
395.671	5.52
395.88	6.58
396.089	6.33
396.298	5.06
396.508	4.77
396.717	3.86
396.926	4.15
397.135	4.16
397.344	4.04
397.553	5.19
397.762	6.2
397.971	5.43
398.181	5.68
398.39	5.42
398.599	4.37
398.808	3.9
399.017	4.89
399.226	6.06
399.435	6.98
399.644	6.83
399.853	6.2
400.062	5.71
400.27	4.97
400.479	4.78
400.688	4.35
400.897	4.46
401.106	4.17
401.315	3.95
401.524	3.66
401.733	4.73
401.941	5.18
402.15	5.66
402.359	5.64
402.568	6.01
402.777	5.8
402.985	5.63
403.194	5.35
403.403	5.15
403.612	4.88
403.82	4.66
404.029	4.74
404.238	4.76
404.446	5.17
404.655	4.98
404.864	4.88
405.072	4.55
405.281	4.68
405.489	4.37
405.698	4.29
405.906	4.24
406.115	4.39
406.324	4.19
406.532	4.25
406.741	4.76
406.949	4.9
407.158	4.92
407.366	4.96
407.574	4.94
407.783	4.69
407.991	4.44
408.2	4.46
408.408	4.53
408.617	4.51
408.825	4.44
409.033	4.49
409.242	4.53
409.45	4.53
409.658	4.38
409.867	4.43
410.075	4.31
410.283	4.18
410.491	4.01
410.7	3.94
410.908	3.97
411.116	4.33
411.324	4.33
411.533	4.33
411.741	4.62
411.949	4.66
412.157	4.4
412.365	4.54
412.573	4.63
412.781	4.62
412.99	4.44
413.198	4.68
413.406	4.58
413.614	4.58
413.822	4.3
414.03	4.29
414.238	4.01
414.446	4.17
414.654	3.92
414.862	4.15
415.07	4.21
415.278	4.39
415.486	4.04
415.694	4.27
415.902	4.1
416.109	3.94
416.317	3.87
416.525	3.79
416.733	3.78
416.941	3.83
417.149	3.85
417.357	3.81
417.564	4.02
417.772	4.09
417.98	4.1
418.188	4.09
418.395	4.14
418.603	4.22
418.811	3.89
419.019	3.83
419.226	4.07
419.434	4.08
419.642	3.83
419.849	4.11
420.057	4.11
420.265	3.87
420.472	3.59
420.68	3.67
420.887	3.54
421.095	3.61
421.302	3.55
421.51	3.79
421.717	3.78
421.925	3.79
422.132	3.68
422.34	3.63
422.547	3.62
422.755	3.56
422.962	3.43
423.17	3.43
423.377	3.47
423.585	3.45
423.792	3.44
423.999	3.55
424.207	3.62
424.414	3.85
424.621	3.7
424.829	3.7
425.036	3.51
425.243	3.52
425.451	3.35
425.658	3.29
425.865	3.51
426.072	3.7
426.28	3.89
426.487	3.85
426.694	4.05
426.901	3.81
427.108	3.79
427.315	3.68
427.523	3.91
427.73	3.83
427.937	3.76
428.144	3.53
428.351	3.46
428.558	3.44
428.765	3.39
428.972	3.49
429.179	3.74
429.386	4.05
429.593	3.86
429.8	3.89
430.007	4.05
430.214	4.14
430.421	3.9
430.628	3.84
430.835	3.65
431.042	3.9
431.249	3.96
431.456	3.96
431.662	4.16
431.869	4.38
432.076	4.19
432.283	4.27
432.49	4.33
432.697	4.41
432.903	4.23
433.11	4.2
433.317	4.2
433.524	4.35
433.73	4.08
433.937	4.43
434.144	4.29
434.35	4.19
434.557	4.02
434.764	4.15
434.97	3.92
435.177	4.15
435.384	4.1
435.59	4.19
435.797	4.49
436.003	4.67
436.21	4.54
436.416	4.75
436.623	4.77
436.829	4.61
437.036	4.71
437.242	4.76
437.449	4.62
437.655	4.69
437.862	4.66
438.068	4.51
438.275	4.56
438.481	4.75
438.687	4.61
438.894	4.65
439.1	4.7
439.307	5
439.513	4.94
439.719	4.97
439.926	5.09
440.132	5.12
440.338	4.79
440.544	4.88
440.751	4.9
440.957	4.87
441.163	4.82
441.369	5.01
441.575	4.77
441.782	4.76
441.988	4.63
442.194	4.63
442.4	4.63
442.606	4.94
442.812	5.04
443.018	5.23
443.224	5.32
443.431	5.36
443.637	5.22
443.843	5.15
444.049	5.1
444.255	5.1
444.461	5.06
444.667	4.92
444.873	5.19
445.079	5.14
445.284	5.2
445.49	5.06
445.696	5.09
445.902	4.89
446.108	4.8
446.314	4.71
446.52	4.76
446.726	4.96
446.931	5
447.137	5.13
447.343	5.14
447.549	5.13
447.755	5.05
447.96	5.15
448.166	5.09
448.372	5.08
448.578	5.14
448.783	5.05
448.989	5.03
449.195	5.24
449.4	5.26
449.606	5.2
449.812	5.2
450.017	5.23
450.223	5.1
450.428	5.08
450.634	5.29
450.84	5.42
451.045	5.33
451.251	5.23
451.456	5.45
451.662	5.45
451.867	5.46
452.073	5.49
452.278	5.63
452.483	5.69
452.689	5.58
452.894	5.55
453.1	5.55
453.305	5.5
453.51	5.42
453.716	5.42
453.921	5.42
454.127	5.35
454.332	5.29
454.537	5.09
454.742	5.07
454.948	5.1
455.153	5.18
455.358	5.28
455.563	5.53
455.769	5.69
455.974	5.62
456.179	5.52
456.384	5.53
456.589	5.4
456.795	5.17
457	5.18
457.205	5.45
457.41	5.42
457.615	5.39
457.82	5.48
458.025	5.44
458.23	5.3
458.435	5.4
458.64	5.39
458.845	5.52
459.05	5.58
459.255	5.54
459.46	5.49
459.665	5.48
459.87	5.47
460.075	5.43
460.28	5.52
460.485	5.53
460.69	5.61
460.895	5.44
461.099	5.44
461.304	5.53
461.509	5.57
461.714	5.55
461.919	5.69
462.123	5.68
462.328	5.72
462.533	5.67
462.738	5.83
462.942	5.77
463.147	5.85
463.352	5.81
463.556	5.83
463.761	5.76
463.966	5.87
464.17	5.86
464.375	5.83
464.58	5.86
464.784	5.79
464.989	5.7
465.193	5.71
465.398	5.71
465.602	5.76
465.807	5.84
466.011	5.91
466.216	5.92
466.42	5.98
466.625	6.09
466.829	6.2
467.034	6.23
467.238	6.45
467.443	6.39
467.647	6.24
467.851	6.28
468.056	6.31
468.26	6.12
468.464	6.21
468.669	6.32
468.873	6.4
469.077	6.41
469.282	6.66
469.486	6.78
469.69	6.82
469.894	6.69
470.099	6.78
470.303	6.75
470.507	6.57
470.711	6.42
470.915	6.42
471.119	6.33
471.324	6.23
471.528	6.33
471.732	6.48
471.936	6.52
472.14	6.6
472.344	6.7
472.548	6.68
472.752	6.82
472.956	7.03
473.16	7.01
473.364	6.9
473.568	6.92
473.772	6.89
473.976	6.67
474.18	6.6
474.384	6.72
474.588	6.7
474.792	6.56
474.995	6.65
475.199	6.75
475.403	6.78
475.607	6.77
475.811	6.74
476.015	6.77
476.218	6.86
476.422	6.81
476.626	6.9
476.83	7.03
477.033	7.01
477.237	6.83
477.441	6.81
477.644	6.79
477.848	6.76
478.052	6.69
478.255	6.8
478.459	6.8
478.663	6.92
478.866	6.88
479.07	6.89
479.273	6.96
479.477	7
479.681	6.88
479.884	6.89
480.088	6.88
480.291	6.83
480.495	6.8
480.698	6.84
480.901	6.86
481.105	6.87
481.308	6.86
481.512	6.82
481.715	6.82
481.919	6.85
482.122	6.89
482.325	6.92
482.529	7
482.732	7.07
482.935	7
483.138	6.9
483.342	6.97
483.545	7.05
483.748	7.06
483.952	7.15
484.155	7.35
484.358	7.36
484.561	7.31
484.764	7.25
484.967	7.35
485.171	7.44
485.374	7.38
485.577	7.56
485.78	7.66
485.983	7.7
486.186	7.64
486.389	7.71
486.592	7.67
486.795	7.74
486.998	7.69
487.201	7.83
487.404	8.07
487.607	8.26
487.81	8.38
488.013	8.61
488.216	8.67
488.419	8.71
488.622	8.72
488.825	8.77
489.028	8.74
489.231	8.85
489.433	8.94
489.636	9.1
489.839	9.36
490.042	9.62
490.245	9.85
490.447	10.03
490.65	10.22
490.853	10.32
491.056	10.56
491.258	10.8
491.461	11.04
491.664	11.29
491.866	11.52
492.069	11.82
492.272	12.05
492.474	12.41
492.677	12.69
492.879	13.04
493.082	13.24
493.285	13.58
493.487	13.85
493.69	14.12
493.892	14.38
494.095	14.78
494.297	14.99
494.5	15.29
494.702	15.62
494.905	15.99
495.107	16.26
495.309	16.7
495.512	17.16
495.714	17.62
495.917	17.96
496.119	18.3
496.321	18.63
496.524	18.94
496.726	19.23
496.928	19.66
497.13	20.15
497.333	20.57
497.535	21.03
497.737	21.41
497.939	21.85
498.142	22.13
498.344	22.46
498.546	22.78
498.748	23.22
498.95	23.63
499.152	24.02
499.355	24.44
499.557	24.89
499.759	25.35
499.961	25.6
500.163	25.95
500.365	26.27
500.567	26.58
500.769	26.65
500.971	26.96
501.173	27.22
501.375	27.49
501.577	27.67
501.779	27.9
501.981	28.07
502.183	28.25
502.385	28.34
502.587	28.35
502.788	28.6
502.99	28.65
503.192	28.93
503.394	29.09
503.596	29.22
503.798	29.3
503.999	29.45
504.201	29.35
504.403	29.39
504.605	29.43
504.806	29.35
505.008	29.32
505.21	29.32
505.411	29.23
505.613	29.16
505.815	29
506.016	29.02
506.218	28.95
506.42	28.78
506.621	28.65
506.823	28.61
507.024	28.29
507.226	27.98
507.427	27.86
507.629	27.7
507.83	27.59
508.032	27.51
508.233	27.46
508.435	27.38
508.636	27.27
508.838	27.04
509.039	26.87
509.24	26.72
509.442	26.47
509.643	26.16
509.845	25.97
510.046	25.81
510.247	25.61
510.448	25.37
510.65	25.32
510.851	25.23
511.052	25
511.254	24.82
511.455	24.72
511.656	24.47
511.857	24.27
512.058	24.1
512.26	23.87
512.461	23.65
512.662	23.55
512.863	23.24
513.064	23.07
513.265	22.91
513.466	22.81
513.667	22.58
513.868	22.48
514.069	22.4
514.27	22.34
514.471	22.13
514.672	21.98
514.873	21.81
515.074	21.62
515.275	21.3
515.476	21.14
515.677	21.01
515.878	21.01
516.079	20.85
516.28	20.79
516.481	20.77
516.682	20.7
516.882	20.49
517.083	20.37
517.284	20.35
517.485	20.22
517.686	20.04
517.886	19.91
518.087	19.89
518.288	19.74
518.488	19.59
518.689	19.5
518.89	19.42
519.091	19.33
519.291	19.19
519.492	19.21
519.692	19.14
519.893	19.08
520.094	18.87
520.294	18.78
520.495	18.63
520.695	18.66
520.896	18.56
521.096	18.53
521.297	18.56
521.497	18.45
521.698	18.22
521.898	18.1
522.099	18.04
522.299	18
522.499	17.97
522.7	17.89
522.9	17.86
523.101	17.87
523.301	17.74
523.501	17.61
523.702	17.65
523.902	17.64
524.102	17.64
524.302	17.56
524.503	17.64
524.703	17.55
524.903	17.45
525.103	17.29
525.304	17.33
525.504	17.31
525.704	17.34
525.904	17.31
526.104	17.24
526.304	17.18
526.504	17.08
526.705	16.96
526.905	16.99
527.105	17.02
527.305	16.98
527.505	16.93
527.705	16.86
527.905	16.82
528.105	16.74
528.305	16.66
528.505	16.63
528.705	16.7
528.905	16.58
529.105	16.57
529.304	16.6
529.504	16.63
529.704	16.64
529.904	16.7
530.104	16.72
530.304	16.77
530.503	16.71
530.703	16.52
530.903	16.53
531.103	16.49
531.303	16.38
531.502	16.37
531.702	16.54
531.902	16.48
532.101	16.39
532.301	16.38
532.501	16.29
532.7	16.24
532.9	16.19
533.1	16.26
533.299	16.22
533.499	16.3
533.698	16.24
533.898	16.27
534.097	16.2
534.297	16.27
534.496	16.19
534.696	16.19
534.895	16.24
535.095	16.33
535.294	16.22
535.494	16.15
535.693	16.18
535.892	16.13
536.092	16.04
536.291	16.06
536.491	16.16
536.69	16.17
536.889	16.06
537.088	16.01
537.288	16.02
537.487	15.99
537.686	15.83
537.886	15.9
538.085	15.87
538.284	15.99
538.483	15.92
538.682	16.03
538.882	16.01
539.081	16.09
539.28	15.89
539.479	15.84
539.678	15.76
539.877	15.8
540.076	15.75
540.275	15.78
540.474	15.85
540.673	15.8
540.872	15.7
541.071	15.64
541.27	15.58
541.469	15.54
541.668	15.55
541.867	15.51
542.066	15.48
542.265	15.54
542.464	15.46
542.663	15.42
542.862	15.48
543.06	15.56
543.259	15.5
543.458	15.49
543.657	15.5
543.856	15.46
544.054	15.31
544.253	15.18
544.452	15.16
544.651	15.15
544.849	15.07
545.048	15.16
545.247	15.24
545.445	15.25
545.644	15.19
545.843	15.24
546.041	15.18
546.24	15.21
546.438	15.26
546.637	15.25
546.836	15.31
547.034	15.33
547.233	15.29
547.431	15.19
547.63	15.16
547.828	15.07
548.027	15.08
548.225	15.07
548.423	15.09
548.622	15.19
548.82	15.12
549.019	15.1
549.217	15.09
549.415	15.09
549.614	15.08
549.812	15.1
550.01	15.06
550.209	15.17
550.407	15.22
550.605	15.16
550.803	15.22
551.002	15.22
551.2	15.15
551.398	15.14
551.596	15.21
551.794	15.2
551.993	15.29
552.191	15.31
552.389	15.36
552.587	15.43
552.785	15.47
552.983	15.42
553.181	15.41
553.379	15.43
553.577	15.36
553.775	15.42
553.973	15.4
554.171	15.49
554.369	15.43
554.567	15.46
554.765	15.44
554.963	15.52
555.161	15.4
555.359	15.52
555.557	15.6
555.755	15.66
555.952	15.72
556.15	15.79
556.348	15.83
556.546	15.87
556.744	15.83
556.941	15.83
557.139	15.92
557.337	15.86
557.535	15.85
557.732	15.91
557.93	15.98
558.128	16.02
558.325	16.19
558.523	16.2
558.721	16.28
558.918	16.31
559.116	16.36
559.313	16.37
559.511	16.51
559.708	16.47
559.906	16.54
560.104	16.61
560.301	16.58
560.498	16.58
560.696	16.65
560.893	16.65
561.091	16.73
561.288	16.84
561.486	16.88
561.683	16.96
561.88	17.08
562.078	17.12
562.275	17.09
562.473	17.16
562.67	17.35
562.867	17.42
563.064	17.46
563.262	17.59
563.459	17.63
563.656	17.66
563.853	17.65
564.051	17.65
564.248	17.69
564.445	17.74
564.642	17.69
564.839	17.85
565.036	18.04
565.234	18.19
565.431	18.3
565.628	18.44
565.825	18.51
566.022	18.58
566.219	18.61
566.416	18.74
566.613	18.74
566.81	18.82
567.007	18.72
567.204	18.69
567.401	18.64
567.598	18.71
567.795	18.66
567.991	18.79
568.188	18.94
568.385	19
568.582	19.04
568.779	19.19
568.976	19.23
569.172	19.31
569.369	19.28
569.566	19.37
569.763	19.4
569.96	19.37
570.156	19.27
570.353	19.33
570.55	19.34
570.746	19.36
570.943	19.45
571.14	19.51
571.336	19.6
571.533	19.66
571.729	19.65
571.926	19.71
572.123	19.83
572.319	19.9
572.516	19.84
572.712	19.91
572.909	19.92
573.105	20.01
573.302	19.95
573.498	20.15
573.695	20.06
573.891	20.11
574.087	20.03
574.284	20.09
574.48	19.97
574.677	20.03
574.873	20
575.069	20.12
575.266	20.11
575.462	20.09
575.658	20.18
575.854	20.29
576.051	20.23
576.247	20.29
576.443	20.28
576.639	20.27
576.835	20.18
577.032	20.15
577.228	20.22
577.424	20.32
577.62	20.27
577.816	20.36
578.012	20.42
578.208	20.36
578.404	20.35
578.6	20.39
578.796	20.36
578.993	20.37
579.189	20.34
579.384	20.14
579.58	20.02
579.776	19.91
579.972	19.81
580.168	19.76
580.364	19.96
580.56	19.99
580.756	20
580.952	19.99
581.148	19.99
581.343	19.94
581.539	19.98
581.735	20.07
581.931	20.14
582.127	20.19
582.322	20.17
582.518	20.21
582.714	20.15
582.909	20.09
583.105	20.04
583.301	20.01
583.496	19.91
583.692	19.84
583.888	19.75
584.083	19.81
584.279	19.74
584.474	19.73
584.67	19.89
584.866	20.02
585.061	19.87
585.257	20
585.452	20.04
585.648	19.85
585.843	19.81
586.039	20.01
586.234	19.94
586.429	19.93
586.625	20.03
586.82	19.99
587.015	19.86
587.211	19.78
587.406	19.78
587.601	19.74
587.797	19.74
587.992	19.66
588.187	19.78
588.383	19.73
588.578	19.76
588.773	19.85
588.968	20.03
589.163	20.08
589.359	20.05
589.554	20.07
589.749	20.07
589.944	20.08
590.139	20.08
590.334	20.21
590.529	20.18
590.724	20.21
590.919	20.18
591.114	20.15
591.309	20.16
591.504	20.22
591.699	20.19
591.894	20.25
592.089	20.25
592.284	20.25
592.479	20.37
592.674	20.37
592.869	20.47
593.064	20.6
593.259	20.75
593.454	20.81
593.648	20.91
593.843	20.88
594.038	20.84
594.233	20.75
594.428	20.69
594.622	20.73
594.817	20.93
595.012	21.03
595.206	21.15
595.401	21.25
595.596	21.23
595.79	21.33
595.985	21.43
596.18	21.44
596.374	21.49
596.569	21.62
596.763	21.5
596.958	21.58
597.153	21.71
597.347	21.73
597.542	21.79
597.736	21.81
597.931	21.83
598.125	21.83
598.319	21.96
598.514	22.01
598.708	22.11
598.903	22.11
599.097	22.15
599.291	22.16
599.486	22.08
599.68	22.04
599.874	22.11
600.069	22.08
600.263	22.06
600.457	22.17
600.651	22.28
600.846	22.27
601.04	22.39
601.234	22.41
601.428	22.49
601.622	22.4
601.817	22.44
602.011	22.55
602.205	22.69
602.399	22.67
602.593	22.83
602.787	22.87
602.981	22.79
603.175	22.73
603.369	22.72
603.563	22.7
603.757	22.72
603.951	22.72
604.145	22.67
604.339	22.72
604.533	22.64
604.727	22.6
604.921	22.57
605.115	22.64
605.309	22.66
605.502	22.69
605.696	22.68
605.89	22.65
606.084	22.56
606.278	22.43
606.471	22.38
606.665	22.32
606.859	22.27
607.053	22.25
607.246	22.27
607.44	22.27
607.634	22.25
607.827	22.29
608.021	22.25
608.214	22.17
608.408	22.12
608.602	22.06
608.795	21.94
608.989	21.82
609.182	21.76
609.376	21.67
609.569	21.54
609.763	21.51
609.956	21.46
610.15	21.37
610.343	21.32
610.537	21.26
610.73	21.18
610.923	21.14
611.117	21.18
611.31	21.11
611.504	21.07
611.697	20.95
611.89	20.92
612.083	20.84
612.277	20.82
612.47	20.83
612.663	20.83
612.856	20.8
613.05	20.71
613.243	20.66
613.436	20.48
613.629	20.39
613.822	20.26
614.015	20.21
614.209	20.1
614.402	20.11
614.595	20.1
614.788	20.01
614.981	19.88
615.174	19.78
615.367	19.7
615.56	19.57
615.753	19.53
615.946	19.43
616.139	19.48
616.332	19.57
616.525	19.63
616.718	19.69
616.911	19.8
617.103	19.73
617.296	19.66
617.489	19.57
617.682	19.53
617.875	19.48
618.067	19.36
618.26	19.29
618.453	19.35
618.646	19.26
618.838	19.23
619.031	19.37
619.224	19.36
619.417	19.3
619.609	19.39
619.802	19.35
619.994	19.23
620.187	19.2
620.38	19.13
620.572	18.98
620.765	19
620.957	18.92
621.15	18.85
621.342	18.8
621.535	18.8
621.727	18.66
621.92	18.68
622.112	18.67
622.305	18.76
622.497	18.75
622.69	18.8
622.882	18.78
623.074	18.87
623.267	18.84
623.459	18.77
623.651	18.66
623.844	18.62
624.036	18.52
624.228	18.43
624.42	18.34
624.613	18.44
624.805	18.4
624.997	18.4
625.189	18.36
625.381	18.45
625.574	18.36
625.766	18.33
625.958	18.35
626.15	18.37
626.342	18.36
626.534	18.42
626.726	18.39
626.918	18.29
627.11	18.29
627.302	18.2
627.494	18.15
627.686	18.18
627.878	18.1
628.07	18.06
628.262	17.98
628.454	18.01
628.646	18.04
628.838	18.1
629.029	18.06
629.221	18.18
629.413	18.05
629.605	17.94
629.797	17.86
629.989	17.84
630.18	17.75
630.372	17.8
630.564	17.8
630.755	17.92
630.947	18.01
631.139	17.87
631.33	17.75
631.522	17.76
631.714	17.69
631.905	17.52
632.097	17.61
632.289	17.68
632.48	17.57
632.672	17.44
632.863	17.31
633.055	17.22
633.246	17.17
633.438	17.18
633.629	17.19
633.821	17.36
634.012	17.36
634.203	17.25
634.395	17.21
634.586	17.24
634.777	17.15
634.969	17.25
635.16	17.33
635.351	17.27
635.543	17.25
635.734	17.31
635.925	17.21
636.117	17.29
636.308	17.4
636.499	17.38
636.69	17.3
636.881	17.22
637.073	17.25
637.264	17.19
637.455	17.2
637.646	17.27
637.837	17.36
638.028	17.28
638.219	17.35
638.41	17.33
638.601	17.23
638.792	17.31
638.983	17.2
639.174	17.05
639.365	17.14
639.556	17.09
639.747	16.96
639.938	17.04
640.129	17.13
640.32	17.02
640.511	17.08
640.701	17.21
640.892	17.18
641.083	17.24
641.274	17.23
641.465	17.29
641.655	17.1
641.846	17.11
642.037	17
642.228	16.95
642.418	16.85
642.609	16.91
642.8	16.9
642.99	16.82
643.181	16.93
643.372	16.96
643.562	16.94
643.753	16.81
643.943	16.84
644.134	16.69
644.324	16.68
644.515	16.68
644.705	16.82
644.896	16.85
645.086	16.9
645.277	16.88
645.467	16.87
645.658	16.81
645.848	16.78
646.038	16.79
646.229	16.72
646.419	16.72
646.61	16.63
646.8	16.58
646.99	16.55
647.18	16.52
647.371	16.46
647.561	16.46
647.751	16.46
647.941	16.33
648.132	16.38
648.322	16.4
648.512	16.46
648.702	16.48
648.892	16.6
649.082	16.59
649.272	16.47
649.462	16.34
649.653	16.23
649.843	16.14
650.033	16.17
650.223	16.19
650.413	16.2
650.603	16.31
650.793	16.32
650.983	16.21
651.172	16.16
651.362	16.08
651.552	15.95
651.742	15.82
651.932	15.86
652.122	15.88
652.312	15.95
652.502	15.92
652.691	15.95
652.881	15.8
653.071	15.71
653.261	15.55
653.45	15.41
653.64	15.42
653.83	15.32
654.019	15.17
654.209	15.14
654.399	15.18
654.588	15.07
654.778	14.98
654.968	14.91
655.157	14.89
655.347	14.78
655.536	14.63
655.726	14.61
655.915	14.5
656.105	14.35
656.294	14.28
656.484	14.12
656.673	14
656.863	14.06
657.052	13.88
657.241	13.67
657.431	13.54
657.62	13.42
657.809	13.1
657.999	13.05
658.188	12.85
658.377	12.76
658.567	12.64
658.756	12.58
658.945	12.35
659.134	12.32
659.324	12.18
659.513	12.1
659.702	11.99
659.891	12.1
660.08	11.95
660.269	11.96
660.458	11.77
660.648	11.73
660.837	11.5
661.026	11.53
661.215	11.32
661.404	11.24
661.593	11.13
661.782	10.94
661.971	10.9
662.16	10.88
662.349	10.88
662.538	10.71
662.726	10.8
662.915	10.6
663.104	10.5
663.293	10.53
663.482	10.66
663.671	10.51
663.86	10.41
664.048	10.37
664.237	10.33
664.426	10.16
664.615	10.17
664.803	10.25
664.992	10.11
665.181	9.98
665.369	9.85
665.558	9.76
665.747	9.7
665.935	9.84
666.124	9.85
666.312	10
666.501	9.96
666.69	9.84
666.878	9.71
667.067	9.6
667.255	9.54
667.444	9.79
667.632	9.88
667.82	9.97
668.009	9.97
668.197	9.94
668.386	9.79
668.574	9.9
668.762	9.85
668.951	9.81
669.139	9.76
669.327	9.57
669.516	9.59
669.704	9.55
669.892	9.67
670.08	9.77
670.269	9.8
670.457	9.58
670.645	9.47
670.833	9.52
671.021	9.49
671.21	9.55
671.398	9.79
671.586	9.92
671.774	9.81
671.962	9.81
672.15	9.83
672.338	9.57
672.526	9.6
672.714	9.51
672.902	9.59
673.09	9.75
673.278	10.01
673.466	9.99
673.654	10.24
673.842	10.32
674.03	10.25
674.218	10.07
674.405	10.23
674.593	10.09
674.781	10.04
674.969	10.14
675.157	10.33
675.344	10.35
675.532	10.43
675.72	10.48
675.908	10.52
676.095	10.41
676.283	10.41
676.471	10.58
676.658	10.6
676.846	10.57
677.033	10.71
677.221	10.85
677.409	10.72
677.596	10.83
677.784	10.92
677.971	10.9
678.159	10.82
678.346	10.97
678.534	10.98
678.721	11.17
678.909	11.24
679.096	11.29
679.283	11.45
679.471	11.56
679.658	11.52
679.846	11.75
680.033	11.96
680.22	11.88
680.408	11.87
680.595	11.92
680.782	11.79
680.969	11.88
681.157	11.98
681.344	11.98
681.531	11.94
681.718	11.99
681.905	12.06
682.093	12.17
682.28	12.41
682.467	12.71
682.654	12.81
682.841	12.93
683.028	12.99
683.215	13.22
683.402	13.1
683.589	13.35
683.776	13.42
683.963	13.45
684.15	13.49
684.337	13.75
684.524	13.77
684.711	13.89
684.898	13.95
685.085	14.01
685.271	14.29
685.458	14.61
685.645	14.72
685.832	15.19
686.019	15.59
686.205	15.61
686.392	15.77
686.579	16.07
686.766	16.22
686.952	16.26
687.139	16.61
687.326	16.73
687.512	16.92
687.699	17.18
687.886	17.31
688.072	17.46
688.259	17.96
688.445	18.43
688.632	18.67
688.818	19.45
689.005	19.79
689.191	20.02
689.378	20.38
689.564	20.93
689.751	21.24
689.937	21.78
690.124	22.35
690.31	22.6
690.496	22.86
690.683	23.18
690.869	23.47
691.055	23.71
691.242	24.43
691.428	25.15
691.614	25.63
691.8	26.4
691.987	26.89
692.173	27.29
692.359	27.73
692.545	28.25
692.731	28.61
692.918	29.36
693.104	29.99
693.29	30.38
693.476	30.99
693.662	31.46
693.848	31.96
694.034	32.25
694.22	32.83
694.406	33.45
694.592	34.12
694.778	34.64
694.964	35.24
695.15	36
695.336	36.33
695.522	37.08
695.708	37.64
695.894	38.3
696.08	38.86
696.265	39.58
696.451	39.98
696.637	40.68
696.823	41.11
697.009	41.68
697.194	42.12
697.38	42.61
697.566	43.03
697.751	43.71
697.937	44.31
698.123	44.98
698.308	45.67
698.494	46.22
698.68	46.58
698.865	46.88
699.051	47.56
699.236	48.05
699.422	48.76
699.607	49.23
699.793	49.65
699.978	49.85
700.164	50
700.349	50.31
700.535	50.89
700.72	51.45
700.906	52.01
701.091	52.57
701.276	52.95
701.462	53.77
701.647	54.26
701.832	54.83
702.018	55.16
702.203	55.49
702.388	55.4
702.573	55.59
702.759	55.99
702.944	56.2
703.129	56.55
703.314	56.79
703.499	57.2
703.684	57.31
703.87	58.41
704.055	59.1
704.24	59.74
704.425	60.13
704.61	60.58
704.795	60.44
704.98	60.47
705.165	60.33
705.35	60.53
705.535	60.62
705.72	60.95
705.905	61.34
706.09	62.19
706.275	62.17
706.459	62.14
706.644	62.31
706.829	62.79
707.014	62.38
707.199	63.05
707.384	63.61
707.568	63.75
707.753	63.99
707.938	64.5
708.123	64.51
708.307	64.5
708.492	64.55
708.677	64.38
708.861	64.39
709.046	64.44
709.231	65.25
709.415	65.93
709.6	65.65
709.784	65.58
709.969	65.75
710.153	65.51
710.338	65.26
710.522	65.92
710.707	66.45
710.891	66.68
711.076	66.68
711.26	66.76
711.445	66.65
711.629	66.93
711.813	66.94
711.998	67.53
712.182	67.76
712.366	68.5
712.551	69.07
712.735	69.05
712.919	68.56
713.103	68.86
713.288	68.35
713.472	67.79
713.656	68.71
713.84	69.13
714.024	69.4
714.208	69.17
714.393	69.62
714.577	69.47
714.761	69.26
714.945	69.13
715.129	69.39
715.313	69.51
715.497	69.41
715.681	70.27
715.865	70.26
716.049	70.73
716.233	70.4
716.417	70.23
716.601	69.81
716.785	69.46
716.968	69.44
717.152	69.68
717.336	70.08
717.52	70.16
717.704	70.54
717.888	70.86
718.071	70.93
718.255	70.98
718.439	70.9
718.622	71.19
718.806	71.17
718.99	70.65
719.174	71.08
719.357	71.15
719.541	71.14
719.724	70.63
719.908	71.72
720.092	72
720.275	72.46
720.459	72.55
720.642	72.93
720.826	72.4
721.009	71.66
721.193	70.98
721.376	71
721.559	71.08
721.743	71.55
721.926	71.91
722.11	72.52
722.293	72.42
722.476	72.19
722.66	71.87
722.843	71.6
723.026	71.18
723.21	71.62
723.393	72.44
723.576	72.64
723.759	72.73
723.942	72.91
724.126	72.23
724.309	72.55
724.492	72.62
724.675	72.71
724.858	73.17
725.041	73.92
725.224	73.54
725.407	73.54
725.59	73.83
725.774	73.26
725.957	72.47
726.14	72.26
726.322	72.49
726.505	72.55
726.688	73.17
726.871	73.75
727.054	73.9
727.237	73.59
727.42	73.7
727.603	73.55
727.786	73.48
727.968	73.38
728.151	73.7
728.334	73.66
728.517	74.04
728.699	74.65
728.882	74.8
729.065	74.94
729.248	75.03
729.43	74.88
729.613	75.47
729.796	76.27
729.978	75.85
730.161	76.09
730.343	75.85
730.526	75.78
730.708	74.69
730.891	74.97
731.073	74.49
731.256	74.14
731.438	73.54
731.621	74.74
731.803	75
731.986	75.41
732.168	75.78
732.35	76.02
732.533	75.33
732.715	74.85
732.898	74.75
733.08	74.98
733.262	75.38
733.444	75.56
733.627	76.22
733.809	76.45
733.991	76.52
734.173	76.08
734.355	75.83
734.538	75.79
734.72	75.75
734.902	75.67
735.084	75.49
735.266	76.04
735.448	76.25
735.63	76.14
735.812	76.25
735.994	77.47
736.176	77.65
736.358	77.68
736.54	78.59
736.722	78.82
736.904	78.23
737.086	78.05
737.268	78.6
737.45	77.97
737.632	77.07
737.814	76.58
737.995	76.48
738.177	76.18
738.359	75.87
738.541	76.67
738.723	77.06
738.904	77.59
739.086	77.59
739.268	77.28
739.449	77.84
739.631	77.73
739.813	77.86
739.994	78.12
740.176	78.18
740.358	78.13
740.539	79.06
740.721	79.17
740.902	79.58
741.084	80.11
741.265	79.36
741.447	78.34
741.628	78.06
741.81	76.9
741.991	77.8
742.172	79.04
742.354	79.99
742.535	79.59
742.717	80.61
742.898	80.33
743.079	80.18
743.261	79.36
743.442	78.67
743.623	79.37
743.804	79.29
743.986	79.91
744.167	78.94
744.348	79.58
744.529	78.91
744.71	77.98
744.891	77.34
745.073	77.95
745.254	77.83
745.435	76.81
745.616	77.18
745.797	76.46
745.978	75.6
746.159	75.53
746.34	74.73
746.521	76.39
746.702	76.08
746.883	77.88
747.064	77.4
747.245	79.47
747.426	78.32
747.606	78.86
747.787	78.12
747.968	78.96
748.149	78.27
748.33	78.32
748.51	79.04
748.691	78.6
748.872	78.61
749.053	78.98
749.233	78.52
749.414	77.05
749.595	76.85
749.775	76.11
749.956	75.14
750.137	74.62
750.317	76.22
750.498	77.7
750.678	78.12
750.859	78.96
751.04	78.98
751.22	77.12
751.4	75.84
751.581	74.91
751.761	75.34
751.942	76
752.122	76.38
752.303	75.61
752.483	75.8
752.663	74.67
752.844	74.4
753.024	75.85
753.204	77.24
753.385	76.93
753.565	76.63
753.745	76.47
753.925	74.77
754.106	74.28
754.286	75.38
754.466	74.42
754.646	75.15
754.826	75.08
755.006	74.6
755.187	75.23
755.367	77.43
755.547	77.05
755.727	78.16
755.907	79.17
756.087	79.76
756.267	78.48
756.447	78.7
756.627	77.02
756.807	76.96
756.987	74.9
757.167	75.48
757.346	75.21
757.526	74
757.706	74.68
757.886	76.69
758.066	77.47
758.246	78.33
758.425	79.42
758.605	77.58
758.785	76.88
758.965	76.15
759.144	74.27
759.324	75.97
759.504	76.97
759.683	76.4
759.863	74.9
760.043	75.04
760.222	74.63
760.402	73.81
760.581	73.98
760.761	76.05
760.94	75.18
761.12	76.54
761.299	77.15
761.479	76.69
761.658	74.62
761.838	75.86
762.017	74.43
762.197	74.19
762.376	74.51
762.555	77.1
762.735	77.83
762.914	75.99
763.093	75.14
763.273	74.67
763.452	72.81
763.631	71.61
763.81	72.71
763.99	73.68
764.169	73.69
764.348	71.91
764.527	71.21
764.706	73.42
764.885	73.74
765.064	73.48
765.243	75.72
765.423	76.64
765.602	74.5
765.781	73.51
765.96	72.52
766.139	71.6
766.318	72.61
766.497	72.07
766.676	72.39
766.854	74.22
767.033	74.75
767.212	73.25
767.391	73.1
767.57	73.45
767.749	73.37
767.928	73.95
768.106	72.63
768.285	72.31
768.464	72.84
768.643	72.91
768.821	73.37
769	76.06
769.179	76.46
769.357	76.35
769.536	74.72
769.715	73.29
769.893	73.38
770.072	72.43
770.25	71.45
770.429	73.15
770.607	73.2
770.786	71.83
770.964	74.19
771.143	73.33
771.321	72.77
771.5	73.71
771.678	73.73
771.857	71.71
772.035	71.09
772.213	71
772.392	68.91
772.57	69.39
772.748	70.3
772.927	71.5
773.105	70.81
773.283	71.77
773.461	71.51
773.64	71.59
773.818	70.96
773.996	70.8
774.174	71.29
774.352	69.65
774.531	67.39
774.709	68.74
774.887	68.7
775.065	67.6
775.243	68.1
775.421	70.32
775.599	71.62
775.777	69.47
775.955	68.06
776.133	66.68
776.311	66.85
776.489	63.09
776.667	66
776.844	67.37
777.022	67.4
777.2	65.78
777.378	66.39
777.556	66.43
777.734	69.49
777.911	73.72
778.089	75.28
778.267	76.33
778.445	73.41
778.622	70.05
778.8	67.05
778.978	68.67
779.155	68.21
779.333	69.86
779.511	71.51
779.688	75.1
779.866	71.59
780.043	66.54
780.221	65.82
780.398	62.62
780.576	62.09
780.753	63.55
780.931	66.81
781.108	67.41
781.286	71.7
781.463	67.13
781.64	64.13
781.818	66.84
781.995	68.14
782.172	64.07
782.35	65.94
782.527	69.41
782.704	66.55
782.882	65.18
783.059	66.62
783.236	68.94
783.413	68.01
783.59	70.29
783.768	69.22
783.945	71.82
784.122	69.87
784.299	70.58
784.476	68.95
784.653	66.08
784.83	61.29
785.007	58.33
785.184	62.17
785.361	62.62
785.538	69.12
785.715	73.3
785.892	75.55
786.069	72.96
786.246	73.95
786.423	73.9
786.6	73.66
786.776	75.21
786.953	72.84
787.13	75.5
787.307	71.39
787.484	67.92
787.66	64.45
787.837	65.26
788.014	61.08
788.191	61.84
788.367	61.76
788.544	64.96
788.721	61.06
788.897	61.23
789.074	63.77
789.25	62.18
789.427	62.63
789.603	65.71
789.78	69.09
789.956	65.76
790.133	64.69
790.309	63.71
790.486	68.23
790.662	64.39
790.839	67.01
791.015	69.36
791.192	68.35
791.368	67.71
791.544	65.4
791.721	65.38
791.897	67.43
792.073	63.12
792.249	55.24
792.426	60.85
792.602	60.71
792.778	61.19
792.954	63.56
793.13	63.9
793.307	55.12
793.483	46.92
793.659	43.71
793.835	47.27
794.011	48.08
794.187	51.98
794.363	54.4
794.539	56.94
794.715	51.65
794.891	52.45
795.067	52.35
795.243	58.29
795.419	60.05
795.595	59.28
795.771	61.63
795.947	60.48
796.122	55.87
796.298	56.18
796.474	57.67
796.65	57.49
796.826	57.61
797.001	58.51
797.177	55.32
797.353	62.25
797.529	63.41
797.704	66.46
797.88	68.71
798.056	67.5
798.231	60.58
798.407	59.75
798.582	60.34
798.758	66.03
798.934	72.91
799.109	73.7
799.285	71.87
799.46	70.37
799.636	68.43
799.811	64.59
799.986	67.87
800.162	69.51
800.337	74.17
800.513	65.45
800.688	62.83
800.863	70.54
801.039	62.58
801.214	53.01
801.389	58.79
801.565	52.42
801.74	39.37
801.915	52.52
802.09	58.06
802.265	61.78
802.441	64.64
802.616	68.16
802.791	65.01
802.966	66
803.141	61.86
803.316	60.4
803.491	64.43
803.666	67.37
803.841	56.44
804.016	56.67
804.191	63.25
804.366	57.49
804.541	53.7
804.716	52.54
804.891	45.81
805.066	52.5
805.241	52.84
805.416	50.28
805.591	53.81
805.765	62.03
805.94	59.14
806.115	61.1
806.29	56.44
806.464	62.95
806.639	55.83
806.814	45.58
806.989	34.7
807.163	48.62
807.338	46.59
807.512	44.32
807.687	37.04
807.862	60.29
808.036	55.38
808.211	57.78
808.385	68.14
808.56	88.34
808.734	83.11
808.909	79.85
809.083	74.3
809.258	76.63
809.432	63.96
809.606	48.13
809.781	49.89
809.955	58.77
810.13	60.02
810.304	63.21
810.478	60.76
810.652	62.23
810.827	62.84
811.001	53.19
811.175	53.54
811.349	54.64
811.524	53.69
811.698	35.55
811.872	39.47
812.046	41
812.22	53.09
812.394	49.36
812.568	62.34
812.742	59.21
812.916	54.88
813.09	50.81
813.264	48.99
813.438	49.17
813.612	49.94
813.786	47.43
813.96	54.84
814.134	57.41
814.308	62.6
814.482	63.97
814.656	57.55
814.83	61.82
815.003	71.91
815.177	60.01
815.351	53.4
815.525	61.01
815.698	50.65
815.872	36.46
816.046	38.27
816.219	43.49
816.393	52.53
816.567	55.77
816.74	61.01
816.914	67.33
817.088	67.98
817.261	60.79
817.435	53.26
817.608	54.39
817.782	41.85
817.955	39.72
818.129	32.78
818.302	46.65
818.475	57.56
818.649	57.63
818.822	51.74
818.996	74.28
819.169	69.51
819.342	52.82
819.516	62.22
819.689	63.58
819.862	45.78
820.035	36.75
820.209	35.71
820.382	35.55
820.555	43.05
820.728	35.62
820.901	30.34
821.075	31.71
821.248	38.09
821.421	28.08
821.594	33.9
821.767	55.11
821.94	73.25
822.113	47.83
822.286	44.01
822.459	50.77
822.632	42.97
822.805	16.6
822.978	20
823.151	22.33
823.324	9.09
823.496	-16.74
823.669	-8.86
823.842	-1.84
824.015	-16.62
824.188	-30.67
824.361	-7.54
824.533	-7.53
824.706	-3.05
824.879	-1.3
825.051	25.41
825.224	26.06
825.397	31.52
825.569	12.72
825.742	49.16
825.915	52.22
826.087	54.25
826.26	27.62
826.432	43.98
826.605	37.78
826.777	22.1
826.95	23.99
827.122	25.91
827.295	30.01
827.467	23.5
827.64	12.6
827.812	-1.79
827.984	4.07
828.157	-12.79
828.329	-42.98
828.501	-32.75
828.674	5.64
828.846	-7.79
829.018	16.47
829.19	14.58
829.363	50.18
829.535	52.73
829.707	61.58
829.879	33.44
830.051	42.1
830.223	4.47
830.395	-21.51
830.568	-21.4
830.74	-15.86
830.912	18.4
831.084	20.64
831.256	20.57
831.428	21.05
831.6	2.77
831.772	-44.06
831.943	-54.46
832.115	-43.09
832.287	-12.79
832.459	23.31
832.631	28.4
832.803	49.63
832.975	66.2
833.146	37.65
833.318	17.42
833.49	51.59
833.662	25.58
833.833	14.1
834.005	26.19
834.177	34.05
834.348	17.55
834.52	24.63
834.692	29.23
834.863	16.86
835.035	9.18
835.206	-31.22
835.378	-14.87
835.549	-13.77
835.721	0.35
835.892	-0.11
836.064	1.88
836.235	0.12
836.407	15.67
836.578	-22.82
836.749	-19.1
836.921	-15.49
837.092	-51.32
837.264	-57.33
837.435	-52.24
837.606	-10.77
837.777	20.61
837.949	43.13
838.12	43.87
838.291	51.35
838.462	35.79
838.633	5.3
838.805	-12.33
838.976	-14
839.147	-85.11
839.318	-77.65
839.489	-105.09
839.66	-82.44
839.831	-30.22
840.002	-4.03
840.173	-9.56
840.344	39.89
840.515	74.36
840.686	-34.3
840.857	-3.19
841.028	22.46
841.199	28.12
841.369	4
841.54	-14.36
841.711	-17.44
841.882	-9.95
842.053	-39.77
842.223	-51.81
842.394	-13.29
842.565	3.48
842.736	14.69
842.906	18.69
843.077	36.21
843.248	68.6
843.418	75.49
843.589	50.25
843.759	164.51
843.93	156.03
844.101	57.61
844.271	38.13
844.442	57.03
844.612	50.6
844.783	16.78
844.953	-2.2
845.123	25.22
845.294	26.32
845.464	-148.21
845.635	-12.01
845.805	79.15
845.975	40.07
846.146	-18.43
846.316	-8.76
846.486	14.6
846.656	23.03
846.827	9.29
846.997	15.8
847.167	67.57
847.337	39.46
847.507	-1.94
847.677	34.43
847.848	58.8
848.018	42.2
848.188	37.46
848.358	34.47
848.528	9.79
848.698	-12.45
848.868	-107.38
849.038	-176.16
849.208	-25.03
849.378	21.76
849.548	9.35
849.718	26.55
849.887	49.93
850.057	3.98
850.227	-29.68
850.397	-59.76
850.567	-174.75
850.737	-444.13
850.906	-1235.63
851.076	-828.52
851.246	-211.26
851.415	16.69
851.585	4.87
851.755	-37.1
851.924	2.14
852.094	-71.44
852.264	-176.22
852.433	-1426.44
852.603	-280.32
852.772	-315.87
852.942	-95.41
853.111	-61.92
853.281	30.39
853.45	83.92
853.62	32.29
853.789	-6.71
853.959	30.06
854.128	-31.57
854.297	-74.13
854.467	-97.21
854.636	-51.47
854.805	-18.51
854.975	-12.57
855.144	57.95
855.313	418.53
855.482	-202.55
855.652	-137.85
855.821	-124.27
855.99	-37.03
856.159	7.18
856.328	30.95
856.497	17.29
856.667	18.62
856.836	-8.93
857.005	-65.43
857.174	-75.17
857.343	-85.87
857.512	-47
857.681	-36.98
857.85	-48.5
858.019	-22.64
858.188	-24.6
858.356	-63.72
858.525	-125.77
858.694	-99.21
858.863	-234.55
859.032	-198.01
859.201	-190.33
859.369	-117.47
859.538	-39.89
859.707	-2.54
859.876	-0.28
860.044	-33.67
860.213	23.16
860.382	-13.64
860.55	-13.06
860.719	22.38
860.888	31.89
861.056	-21.84
861.225	-27.09
861.393	16.14
861.562	25.37
861.73	-23.14
861.899	121.73
862.067	532.76
862.236	62.91
862.404	-118.88
862.572	-56.1
862.741	-28.99
862.909	-48.45
863.078	-194.95
863.246	-140.93
863.414	-153.16
863.582	-119.33
863.751	-118.46
863.919	-105.04
864.087	-56.57
864.255	-55.82
864.424	-287.45
864.592	-12.74
864.76	-37.66
864.928	-1.2
865.096	-68.31
865.264	-76.42
865.432	-1919.32
865.6	-123.75
865.768	-138.9
865.936	-144.17
866.104	-156.01
866.272	-127.03
866.44	-377.36
866.608	600.82
866.776	314.31
866.944	3415.12
867.112	-763.35
867.28	-307.04
867.448	-123.21
867.615	-38.08
867.783	-8.13
867.951	6.07
868.119	55.12
868.286	24.34
868.454	-74.63
868.622	-104.89
868.789	-73.87
868.957	-2560.71
869.125	-2443.42
869.292	-192.75
869.46	-223.59
869.627	-41.4
869.795	-21.95
869.963	6.22
870.13	24.07
870.298	41.99
870.465	-45.5
870.632	-83.43
870.8	-44.88
870.967	-72.57
871.135	-162.85
871.302	-106.63
871.469	-114.49
871.637	-164.95
871.804	-125.8
871.971	-107.61
872.139	-311.86
872.306	36.76
872.473	2.16
872.64	-58.58
872.807	37.5
872.975	30.87
873.142	-226.36
873.309	1804.05
873.476	59.05
873.643	112.94
873.81	103.21
873.977	133.31
874.144	112.33
874.311	49.76
874.478	-60.76
874.645	-91.09
874.812	-35.9
874.979	-3.67
875.146	-10.49
875.313	1.43
875.48	46.02
875.647	13.05
875.813	-32.19
875.98	-24.41
876.147	-43.45
876.314	-88.75
876.481	1032.64
876.647	-1410.67
876.814	479.53
876.981	-112.5
877.147	-51.89
877.314	-10.56
877.481	40.42
877.647	26.95
877.814	0.85
877.98	-61.18
878.147	4.4
878.314	49.19
878.48	9.08
878.647	10.01
878.813	65.63
878.979	53.77
879.146	6.14
879.312	1.97
879.479	-16.69
879.645	-112.02
879.811	-271.14
879.978	-864.5
880.144	-217.84
880.31	-135.49
880.477	-339.67
880.643	-424.12
880.809	-142.39
880.975	-140.44
881.142	-838.64
881.308	-110.45
881.474	-56.85
881.64	-82.43
881.806	-136.08
881.972	-38.47
882.138	-14.44
882.304	22.05
882.47	-114.99
882.636	-475.82
882.802	-139.97
882.968	-57.07
883.134	-37.46
883.3	-29.16
883.466	16.3
883.632	53.86
883.798	22.84
883.964	13.64
884.129	23.53
884.295	43.14
884.461	-24.65
884.627	-49.18
884.793	-46.31
884.958	-35.9
885.124	-99.93
885.29	-232.68
885.455	-308.01
885.621	-33.29
885.787	-7.33
885.952	-6.69
886.118	10.86
886.283	10.08
886.449	-95.85
886.614	-126.7
886.78	-279.81
886.945	1231.97
887.111	-682.37
887.276	-534.38
887.442	-1062.27
887.607	-490.33
887.773	-284.24
887.938	-268.28
888.103	-232.66
888.269	-84.49
888.434	-28.38
888.599	-11.02
888.764	105.76
888.93	42.77
889.095	22.04
889.26	-22.34
889.425	-1.39
889.59	-10.13
889.756	-43.66
889.921	-7.38
890.086	9.35
890.251	-13.9
890.416	-135.58
890.581	-1337.9
890.746	273.75
890.911	522.61
891.076	194.83
891.241	-607.84
891.406	-1.39
891.571	-26.66
891.736	-146.56
891.901	-303.98
892.065	64.29
892.23	90.05
892.395	185.81
892.56	261.42
892.725	-151.17
892.889	-1269.51
893.054	-169.87
893.219	-13.52
893.384	37.65
893.548	3.43
893.713	30.23
893.878	48.36
