Data from Ofra_PS_T2_1A_0GT05_Reflection_3.txt Node
Date: Wed Jul 21 17:47:22 EDT 2021
User: Adam
Spectrometer: FLMT01687
Trigger mode: 0
Integration Time (sec): 1.100000E0
Scans to average: 2
Electric dark correction enabled: true
Nonlinearity correction enabled: false
Boxcar width: 2
XAxis mode: Wavelengths
Number of Pixels in Spectrum: 3648
>>>>>Begin Spectral Data<<<<<
179.494	543.2
179.716	661.65
179.937	642.14
180.158	639.5
180.38	906.87
180.601	362.43
180.823	97.95
181.044	-54.5
181.265	169.12
181.486	123.59
181.708	134.18
181.929	732.65
182.15	-383.1
182.372	147.3
182.593	29.62
182.814	3.27
183.035	36.7
183.257	30.62
183.478	-91.7
183.699	-13.84
183.92	-19.01
184.141	-21.99
184.363	-41.01
184.584	31.59
184.805	49.69
185.026	67
185.247	83.28
185.468	51.05
185.689	51.53
185.91	35.84
186.132	39.8
186.353	22.34
186.574	92.74
186.795	65.52
187.016	31.64
187.237	9.35
187.458	-5.56
187.679	-34.32
187.9	5.54
188.121	2.87
188.342	44.73
188.563	81.89
188.784	120.71
189.005	92.06
189.226	150.78
189.447	139.14
189.667	70.39
189.888	-176.85
190.109	-1007.79
190.33	-601.29
190.551	-1177.88
190.772	-254.72
190.993	-187.35
191.214	-129.48
191.434	-106.86
191.655	-12.76
191.876	-78.15
192.097	-132.52
192.318	-176.23
192.538	-224.93
192.759	-195.35
192.98	-50.3
193.201	0.38
193.421	21.42
193.642	29.43
193.863	48.81
194.083	12.16
194.304	1.62
194.525	-4.61
194.745	4.33
194.966	-23.05
195.187	-20.48
195.407	-36.88
195.628	-99.11
195.848	-122.79
196.069	-106.39
196.29	-19.57
196.51	-60.29
196.731	-30.86
196.951	-49.21
197.172	-67.36
197.392	-134.71
197.613	-109.82
197.833	-136.67
198.054	-115.45
198.274	-79.89
198.495	-81.45
198.715	-23.74
198.936	-39.06
199.156	-33.01
199.377	-110.62
199.597	-90.5
199.817	-135.56
200.038	-58.08
200.258	-96.42
200.479	2.95
200.699	-44.35
200.919	11.73
201.14	-30.72
201.36	-30.26
201.58	1.06
201.801	50.79
202.021	35.57
202.241	46.59
202.461	50.19
202.682	-20.83
202.902	-132.31
203.122	-83.68
203.342	-61.52
203.563	-28.14
203.783	28.01
204.003	34.58
204.223	31.45
204.443	77.68
204.663	52.61
204.884	43.35
205.104	103.29
205.324	120.11
205.544	72.33
205.764	76.18
205.984	89.16
206.204	66.53
206.424	51.49
206.644	31.4
206.864	63.73
207.084	5.04
207.304	38.23
207.525	13.44
207.745	51.97
207.964	24.23
208.184	-15.49
208.404	-81.91
208.624	-98.59
208.844	-107.33
209.064	-408.29
209.284	-429.53
209.504	-217.64
209.724	-62.3
209.944	-30.4
210.164	9.55
210.384	31.56
210.604	45.15
210.823	19.95
211.043	-17.65
211.263	-14.22
211.483	-17.2
211.703	-66.38
211.922	-43.35
212.142	25.45
212.362	44.42
212.582	22.13
212.801	22.45
213.021	-0.78
213.241	-10.85
213.461	-47.22
213.68	-66.92
213.9	-45.31
214.12	-26.67
214.339	-97.11
214.559	-81.7
214.779	-18.16
214.998	-23.71
215.218	-86.04
215.438	-48.58
215.657	-55.08
215.877	-69.25
216.096	-38.94
216.316	-7.49
216.535	-17.97
216.755	-14.48
216.974	-100.87
217.194	-150.08
217.413	-121.65
217.633	-105.7
217.852	-224.95
218.072	-87.49
218.291	-41.09
218.511	-18.37
218.73	-34.99
218.95	-21.9
219.169	-27.55
219.389	-78.4
219.608	-62.98
219.827	-48.88
220.047	-28.99
220.266	-10.82
220.485	-1.71
220.705	9.27
220.924	-20.65
221.143	17.05
221.363	-11.14
221.582	23.03
221.801	36.63
222.021	64.21
222.24	24.86
222.459	105.51
222.678	31.61
222.897	-25.95
223.117	-68.82
223.336	-41.61
223.555	-43.3
223.774	-3.09
223.993	31.92
224.213	53.11
224.432	38.93
224.651	67.94
224.87	30.8
225.089	28.94
225.308	26.87
225.527	38.55
225.746	28.31
225.965	24.84
226.184	5.23
226.404	35.95
226.623	15.56
226.842	26.08
227.061	65.06
227.28	71.75
227.499	55.55
227.718	68.81
227.936	48.53
228.155	46.98
228.374	8.38
228.593	26.81
228.812	30.16
229.031	36.21
229.25	-10.99
229.469	10.61
229.688	6.11
229.907	19.27
230.125	42.51
230.344	45.39
230.563	53.01
230.782	66.04
231.001	0.61
231.22	-2.49
231.438	41.44
231.657	42.01
231.876	22.92
232.095	74.08
232.313	87.07
232.532	57.85
232.751	21.8
232.969	29
233.188	-38.9
233.407	11.63
233.625	12.53
233.844	0.88
234.063	13.66
234.281	18.54
234.5	-0.54
234.719	10.84
234.937	33.41
235.156	36.83
235.374	34.41
235.593	5.81
235.811	-18.97
236.03	-31.02
236.249	-89.02
236.467	-65.18
236.686	-20.63
236.904	0.89
237.123	-19.43
237.341	-13.13
237.559	-7.44
237.778	-8.35
237.996	-33.2
238.215	8.66
238.433	17.92
238.652	14.07
238.87	-10.08
239.088	5.5
239.307	-12.98
239.525	-23.96
239.743	-47.68
239.962	-29.91
240.18	-50.57
240.398	-77.37
240.617	-80.91
240.835	-49.22
241.053	-43.95
241.271	0.7
241.49	21.61
241.708	6.32
241.926	13.22
242.144	10.65
242.363	-55.54
242.581	-75.14
242.799	-25.88
243.017	-0.53
243.235	-18.29
243.453	7.48
243.672	5.51
243.89	-10.02
244.108	-35.68
244.326	-1.88
244.544	-6.79
244.762	-1.39
244.98	18.46
245.198	26.85
245.416	-9.82
245.634	-3.47
245.852	-32.32
246.07	-55.91
246.288	-31.73
246.506	-68.72
246.724	-34.33
246.942	3.08
247.16	31
247.378	21.87
247.596	46.14
247.814	36.88
248.032	-5.97
248.25	-10.52
248.468	-6.13
248.685	16.99
248.903	31.99
249.121	43.21
249.339	23.29
249.557	19.4
249.775	13.47
249.992	-45.1
250.21	-45.37
250.428	-44.02
250.646	-67.33
250.863	-101.9
251.081	-63.42
251.299	-34.15
251.517	-9.47
251.734	-2.21
251.952	-0.78
252.17	-5.61
252.387	-8.01
252.605	-22.81
252.823	-14.08
253.04	3.05
253.258	13.14
253.475	-9.71
253.693	19.31
253.911	21.21
254.128	34.46
254.346	51.04
254.563	45.41
254.781	18.62
254.998	-13.38
255.216	-16.42
255.433	-44.27
255.651	4.57
255.868	57.46
256.086	92.08
256.303	65.41
256.521	62.83
256.738	30.21
256.956	-13.91
257.173	-35.81
257.39	-50.18
257.608	-71.03
257.825	-22.44
258.043	14.96
258.26	15.54
258.477	46.9
258.695	48.05
258.912	-3.84
259.129	0.78
259.346	-32.5
259.564	-64.85
259.781	-87.6
259.998	-5.23
260.216	28.08
260.433	76.96
260.65	77.55
260.867	98.36
261.084	62.11
261.302	35.22
261.519	13.33
261.736	-14.97
261.953	-48.68
262.17	-6.86
262.387	-29
262.604	-38.71
262.822	-40
263.039	-20.03
263.256	-54.67
263.473	-10.53
263.69	-19.74
263.907	19.66
264.124	33.83
264.341	36.2
264.558	14.67
264.775	28.55
264.992	-2.78
265.209	1.58
265.426	23.65
265.643	37.45
265.86	47.12
266.077	80.6
266.294	59.94
266.51	27.19
266.727	-5.48
266.944	-7.07
267.161	-29.08
267.378	-17.53
267.595	11.9
267.812	9.97
268.028	0.08
268.245	2.93
268.462	-27.47
268.679	-48.04
268.896	-2.71
269.112	-2.04
269.329	-1.65
269.546	14.92
269.763	11.43
269.979	-12.94
270.196	-6.93
270.413	-27.91
270.629	-42.15
270.846	-52.63
271.063	-32.33
271.279	-54.7
271.496	-36.07
271.712	4.97
271.929	43.5
272.146	23.78
272.362	33.64
272.579	60.48
272.795	50.68
273.012	45.99
273.228	51.02
273.445	33.28
273.661	-7.76
273.878	-48.85
274.094	-49.61
274.311	-75.04
274.527	-6.11
274.744	-0.7
274.96	-4.11
275.177	-1.1
275.393	21.65
275.609	22.42
275.826	68.98
276.042	74.59
276.259	68.35
276.475	70.38
276.691	75.89
276.908	29.76
277.124	38.27
277.34	54.56
277.557	47.14
277.773	12.86
277.989	4.61
278.205	3.18
278.422	11.85
278.638	13.43
278.854	39.98
279.07	49.8
279.286	38.58
279.503	4.41
279.719	-14.25
279.935	-53.4
280.151	-66.23
280.367	-42.01
280.583	-52.1
280.799	-32.24
281.016	-53.07
281.232	-10.71
281.448	-14.1
281.664	15.19
281.88	-11.36
282.096	-4.64
282.312	1.66
282.528	21.77
282.744	19.69
282.96	28.36
283.176	43.3
283.392	32.35
283.608	12.85
283.824	-1.34
284.04	-6.31
284.256	-16.42
284.471	-28.15
284.687	-35.09
284.903	-11.12
285.119	34.94
285.335	25.73
285.551	40.24
285.767	22.97
285.982	7.56
286.198	-43.51
286.414	-2.36
286.63	9.54
286.846	47.1
287.061	27.23
287.277	47.41
287.493	17.23
287.709	22.44
287.924	-7.63
288.14	26.75
288.356	26.53
288.571	49.35
288.787	27.33
289.003	32.92
289.218	14.55
289.434	-14.37
289.65	-1.75
289.865	5.37
290.081	27.56
290.296	18.97
290.512	4.74
290.727	-34.46
290.943	-45.56
291.159	-50.27
291.374	-35.54
291.59	-32.74
291.805	-23.9
292.021	-1.53
292.236	-9.74
292.451	-12.09
292.667	-9.45
292.882	2.28
293.098	-2.38
293.313	-16.64
293.529	-27.22
293.744	-39.15
293.959	-44.87
294.175	-44.61
294.39	-0.6
294.605	8.35
294.821	40.64
295.036	49.46
295.251	59.17
295.467	22.69
295.682	16.03
295.897	-56.15
296.112	-72.89
296.328	-72.95
296.543	-83.8
296.758	-61.8
296.973	-0.33
297.188	30.24
297.404	0.56
297.619	4.19
297.834	-10.96
298.049	-29.39
298.264	-42.45
298.479	13.29
298.694	13.88
298.909	31.31
299.125	34.22
299.34	45.94
299.555	24.59
299.77	55.61
299.985	13.08
300.2	-36.32
300.415	-70.18
300.63	-26.61
300.845	-52.76
301.06	-58.53
301.275	-26.89
301.49	-6.84
301.704	-16.65
301.919	-31.69
302.134	-27.65
302.349	-15.73
302.564	-64.27
302.779	-91.56
302.994	-43.1
303.209	-33.5
303.423	-0.23
303.638	59
303.853	27.06
304.068	5.25
304.283	14.94
304.497	-0.68
304.712	-18.77
304.927	-0.24
305.142	0.73
305.356	2.84
305.571	3.62
305.786	-5.43
306	-35.42
306.215	-16.12
306.43	-34.61
306.644	-41.07
306.859	16.68
307.074	52.47
307.288	21.9
307.503	27.4
307.717	5.95
307.932	-6.51
308.147	-27.45
308.361	-9.15
308.576	-11.34
308.79	-27.24
309.005	-27.28
309.219	-12.72
309.434	-7.74
309.648	-10.61
309.863	6.97
310.077	4.11
310.292	2.22
310.506	-6.16
310.72	3.42
310.935	7.6
311.149	2.82
311.364	13.08
311.578	26.52
311.792	15.07
312.007	22.25
312.221	0.7
312.435	6.56
312.649	-10.29
312.864	30.16
313.078	23.57
313.292	101.28
313.507	90.88
313.721	119
313.935	44.49
314.149	45.3
314.363	29.06
314.578	25.3
314.792	39.79
315.006	22.79
315.22	38.36
315.434	51.78
315.648	60.76
315.862	47.75
316.077	53.98
316.291	39.69
316.505	39.58
316.719	44.96
316.933	25.6
317.147	25.93
317.361	-47.07
317.575	-74.79
317.789	-129.16
318.003	-171.85
318.217	-147.73
318.431	-26.64
318.645	21.01
318.859	15.52
319.073	44.23
319.287	30.8
319.5	-13.5
319.714	-63.55
319.928	-67.63
320.142	-113.74
320.356	-31.14
320.57	33.1
320.784	39.59
320.997	49.49
321.211	46.96
321.425	-46.71
321.639	-83.98
321.853	-37.53
322.066	-29.68
322.28	-32.59
322.494	-13.33
322.707	7.13
322.921	5.47
323.135	14.37
323.349	30.99
323.562	9.83
323.776	-5.26
323.989	-7.04
324.203	-36
324.417	-46.21
324.63	-73.05
324.844	-67.58
325.057	-66.5
325.271	-44.93
325.485	-16.44
325.698	19.67
325.912	28.69
326.125	3.56
326.339	13.52
326.552	-6.68
326.766	-27.88
326.979	-2.06
327.193	39.28
327.406	13.21
327.619	8.5
327.833	31.85
328.046	-3.96
328.26	-45.76
328.473	-15.59
328.686	-46.3
328.9	-30.57
329.113	-16.14
329.326	-20.03
329.54	-4.05
329.753	8.36
329.966	-25.44
330.179	-3.99
330.393	6.7
330.606	8.54
330.819	15.76
331.032	25.84
331.246	27.02
331.459	49.25
331.672	32.7
331.885	33.3
332.098	9.33
332.311	-0.51
332.525	-40.92
332.738	-14.89
332.951	6.83
333.164	31.83
333.377	33.88
333.59	40.71
333.803	40.28
334.016	22.42
334.229	18.09
334.442	19.69
334.655	38.77
334.868	38.9
335.081	44.2
335.294	16.59
335.507	12.96
335.72	0.95
335.933	-19.41
336.146	-28.47
336.359	-16.14
336.572	-53.83
336.785	-76.97
336.997	-54.71
337.21	-31.31
337.423	-33.93
337.636	-18.93
337.849	1.73
338.062	-12.59
338.274	-8.7
338.487	-16.08
338.7	-17.45
338.913	-60.6
339.125	-82.31
339.338	-141.2
339.551	-94.63
339.763	-36.59
339.976	-4.2
340.189	16.64
340.402	32.53
340.614	4.72
340.827	-11.45
341.039	-41.02
341.252	-34.6
341.465	-2.77
341.677	-0.29
341.89	-35.17
342.102	-6.72
342.315	-27.43
342.527	-76.63
342.74	-52.62
342.952	-11.84
343.165	-10.76
343.377	19.6
343.59	9.83
343.802	13.77
344.015	2.42
344.227	12.2
344.44	-0.1
344.652	4.42
344.864	-11.29
345.077	21.77
345.289	28.14
345.502	36.19
345.714	39.35
345.926	47.02
346.139	29.98
346.351	21.08
346.563	32.35
346.775	31.98
346.988	15.96
347.2	14.75
347.412	-9.83
347.624	-45.98
347.837	-67.32
348.049	-24.17
348.261	15.86
348.473	9.75
348.685	0.06
348.897	0.23
349.11	-19.3
349.322	-55.5
349.534	-30.68
349.746	-6.72
349.958	-6.6
350.17	3.05
350.382	20.31
350.594	12.37
350.806	7.27
351.018	13.23
351.23	3.5
351.442	-47.77
351.654	-56.14
351.866	-37.32
352.078	-20.89
352.29	-9.17
352.502	15.23
352.714	37.06
352.926	21.01
353.138	14.83
353.35	4.67
353.561	-4.19
353.773	-34.54
353.985	-10.71
354.197	-8.53
354.409	-0.51
354.621	-1.83
354.832	4.35
355.044	-20.31
355.256	-26.59
355.468	-16.41
355.679	-20.95
355.891	-15.3
356.103	-6.88
356.314	-7.82
356.526	-16.44
356.738	-1.57
356.949	-33.22
357.161	-24.47
357.373	-20.09
357.584	-23.12
357.796	-6.17
358.008	11.34
358.219	29.25
358.431	32.67
358.642	34.12
358.854	24.14
359.065	9.39
359.277	-33.69
359.488	-51.56
359.7	-67.15
359.911	-77.95
360.123	-48.96
360.334	-52.26
360.546	-68.2
360.757	-68.4
360.969	-53.3
361.18	-40.93
361.391	-11.7
361.603	-6.59
361.814	0.98
362.025	-15.05
362.237	-34.89
362.448	-23.38
362.659	0.91
362.871	3.61
363.082	13.3
363.293	18.13
363.504	-2.13
363.716	-27.19
363.927	-31.7
364.138	-63.68
364.349	-76.27
364.56	-70.78
364.772	-55.67
364.983	-34.65
365.194	-29.93
365.405	-13.1
365.616	15.18
365.827	14.63
366.038	-1.36
366.25	1.84
366.461	-19.13
366.672	-8.31
366.883	13.23
367.094	15.85
367.305	1.98
367.516	11.5
367.727	-22.67
367.938	-46.13
368.149	-51.08
368.36	-21.94
368.571	-20.1
368.781	-29.51
368.992	-45.77
369.203	-59.71
369.414	-86.86
369.625	-95.88
369.836	-82.13
370.047	-90.46
370.258	-61.9
370.468	-65.91
370.679	-76.91
370.89	-70.42
371.101	-45.27
371.312	-52.59
371.522	-41.18
371.733	-17.77
371.944	-4.64
372.155	5.78
372.365	-7.72
372.576	-18.89
372.787	-30.2
372.997	-64.9
373.208	-65.06
373.419	-20.39
373.629	-37.54
373.84	-45.16
374.05	-39.97
374.261	-27.15
374.472	-51.97
374.682	1.39
374.893	13.53
375.103	52.16
375.314	43.44
375.524	36.77
375.735	35.65
375.945	38.45
376.156	1.71
376.366	2.33
376.577	5.86
376.787	-2.75
376.997	5.33
377.208	8.47
377.418	-8.14
377.629	-1.62
377.839	-1.24
378.049	-4.39
378.26	18.62
378.47	29.35
378.68	19.49
378.89	15.87
379.101	6.64
379.311	-35.57
379.521	-68.75
379.732	-56.76
379.942	-53.42
380.152	-64.45
380.362	-22.79
380.572	-13.75
380.783	-9.91
380.993	-5.61
381.203	6.11
381.413	13.31
381.623	22.1
381.833	24.99
382.043	15.8
382.253	14.85
382.463	9.08
382.674	-9.01
382.884	-29.9
383.094	-28.21
383.304	-25.88
383.514	-17.66
383.724	5.6
383.934	-0.55
384.144	-8.66
384.353	-23.63
384.563	-34.36
384.773	-34.99
384.983	-36.52
385.193	-16.33
385.403	-4.2
385.613	1.09
385.823	-14.51
386.033	-3.67
386.242	-10.33
386.452	-15.12
386.662	-23.91
386.872	-6.8
387.082	-16.56
387.291	-23.24
387.501	-22.2
387.711	-19.57
387.921	-25.92
388.13	-20.05
388.34	-7.2
388.55	-13
388.759	-11.47
388.969	-6.01
389.179	-6.17
389.388	-6.41
389.598	0.83
389.807	-6.54
390.017	-10.74
390.227	-8.7
390.436	-12.88
390.646	-11.85
390.855	-6.11
391.065	-3.55
391.274	-9.38
391.484	-10.78
391.693	-9.43
391.903	-9.19
392.112	-3.98
392.322	2.41
392.531	7.36
392.74	6.94
392.95	2.6
393.159	-0.02
393.369	-2.27
393.578	-3.96
393.787	-4.89
393.997	-1.7
394.206	-4.98
394.415	-4.09
394.625	-4.02
394.834	-5.32
395.043	-4.96
395.252	-1.55
395.462	-0.18
395.671	0.54
395.88	1.93
396.089	3.31
396.298	0.6
396.508	-0.13
396.717	-1.11
396.926	-0.22
397.135	-1.1
397.344	0.01
397.553	0.94
397.762	2.7
397.971	2.03
398.181	2.77
398.39	2.07
398.599	1.19
398.808	0.71
399.017	2.14
399.226	3.11
399.435	4.26
399.644	4.5
399.853	3.8
400.062	2.92
400.27	1.63
400.479	1.05
400.688	0.21
400.897	0.42
401.106	0.66
401.315	0.4
401.524	0.33
401.733	1.73
401.941	2.2
402.15	1.98
402.359	2.1
402.568	2.36
402.777	2.27
402.985	2.02
403.194	1.91
403.403	2.06
403.612	1.81
403.82	1.44
404.029	1.52
404.238	1.42
404.446	1.69
404.655	1.78
404.864	1.71
405.072	1.47
405.281	1.62
405.489	1.18
405.698	1.03
405.906	1
406.115	1.07
406.324	1.01
406.532	1.34
406.741	1.66
406.949	1.7
407.158	1.68
407.366	1.71
407.574	1.57
407.783	1.57
407.991	1.45
408.2	1.6
408.408	1.65
408.617	1.6
408.825	1.34
409.033	1.51
409.242	1.56
409.45	1.52
409.658	1.32
409.867	1.53
410.075	1.29
410.283	1.06
410.491	1.04
410.7	1.17
410.908	1.09
411.116	1.58
411.324	1.6
411.533	1.61
411.741	1.92
411.949	2
412.157	1.55
412.365	1.68
412.573	1.77
412.781	1.7
412.99	1.51
413.198	1.69
413.406	1.66
413.614	1.58
413.822	1.35
414.03	1.4
414.238	1.22
414.446	1.21
414.654	0.96
414.862	1.11
415.07	1.15
415.278	1.48
415.486	1.28
415.694	1.48
415.902	1.27
416.109	1.14
416.317	0.93
416.525	0.86
416.733	0.9
416.941	1.08
417.149	1.08
417.357	1.25
417.564	1.6
417.772	1.85
417.98	1.78
418.188	1.83
418.395	1.88
418.603	1.9
418.811	1.47
419.019	1.51
419.226	1.77
419.434	1.69
419.642	1.42
419.849	1.58
420.057	1.55
420.265	1.5
420.472	1.23
420.68	1.38
420.887	1.2
421.095	1.22
421.302	1.06
421.51	1.4
421.717	1.46
421.925	1.69
422.132	1.63
422.34	1.4
422.547	1.33
422.755	1.2
422.962	1.01
423.17	0.93
423.377	1.1
423.585	1.15
423.792	1.13
423.999	1.19
424.207	1.15
424.414	1.36
424.621	1.23
424.829	1.26
425.036	1.3
425.243	1.39
425.451	1.1
425.658	0.96
425.865	1.1
426.072	1.19
426.28	1.56
426.487	1.59
426.694	1.69
426.901	1.48
427.108	1.22
427.315	0.92
427.523	1.28
427.73	1.39
427.937	1.42
428.144	1.39
428.351	1.33
428.558	1.25
428.765	1.03
428.972	0.97
429.179	1.17
429.386	1.57
429.593	1.3
429.8	1.26
430.007	1.36
430.214	1.47
430.421	1.15
430.628	1.04
430.835	1.03
431.042	1.19
431.249	1.12
431.456	1.09
431.662	1.31
431.869	1.53
432.076	1.55
432.283	1.73
432.49	1.68
432.697	1.66
432.903	1.41
433.11	1.28
433.317	1.19
433.524	1.42
433.73	1.32
433.937	1.63
434.144	1.5
434.35	1.49
434.557	1.28
434.764	1.31
434.97	1.09
435.177	1.34
435.384	1.17
435.59	1.34
435.797	1.61
436.003	1.78
436.21	1.64
436.416	1.85
436.623	1.76
436.829	1.72
437.036	1.74
437.242	1.78
437.449	1.53
437.655	1.51
437.862	1.44
438.068	1.35
438.275	1.4
438.481	1.73
438.687	1.78
438.894	1.75
439.1	1.8
439.307	1.96
439.513	1.78
439.719	1.77
439.926	1.89
440.132	1.79
440.338	1.61
440.544	1.8
440.751	1.78
440.957	1.77
441.163	1.73
441.369	1.82
441.575	1.5
441.782	1.41
441.988	1.24
442.194	1.26
442.4	1.2
442.606	1.63
442.812	1.73
443.018	1.89
443.224	2.01
443.431	2.17
443.637	1.81
443.843	1.78
444.049	1.77
444.255	1.72
444.461	1.69
444.667	1.68
444.873	1.86
445.079	1.83
445.284	1.88
445.49	1.64
445.696	1.49
445.902	1.29
446.108	1.21
446.314	1.08
446.52	1.11
446.726	1.41
446.931	1.44
447.137	1.54
447.343	1.67
447.549	1.66
447.755	1.55
447.96	1.59
448.166	1.51
448.372	1.45
448.578	1.57
448.783	1.56
448.989	1.62
449.195	1.81
449.4	1.8
449.606	1.74
449.812	1.69
450.017	1.71
450.223	1.56
450.428	1.51
450.634	1.62
450.84	1.76
451.045	1.67
451.251	1.61
451.456	1.88
451.662	2.01
451.867	2.05
452.073	1.98
452.278	2.13
452.483	2.12
452.689	1.96
452.894	1.95
453.1	2.05
453.305	1.86
453.51	1.83
453.716	1.76
453.921	1.73
454.127	1.6
454.332	1.67
454.537	1.54
454.742	1.63
454.948	1.61
455.153	1.78
455.358	1.87
455.563	2.07
455.769	2.1
455.974	2.05
456.179	1.89
456.384	1.84
456.589	1.69
456.795	1.46
457	1.46
457.205	1.74
457.41	1.72
457.615	1.72
457.82	1.91
458.025	1.98
458.23	1.81
458.435	1.86
458.64	1.82
458.845	1.93
459.05	1.92
459.255	1.89
459.46	1.89
459.665	1.9
459.87	1.84
460.075	1.8
460.28	1.9
460.485	1.99
460.69	1.97
460.895	1.81
461.099	1.83
461.304	1.94
461.509	1.9
461.714	1.93
461.919	2.16
462.123	2.12
462.328	2.1
462.533	2.04
462.738	2.2
462.942	2.08
463.147	2.14
463.352	2.2
463.556	2.27
463.761	2.18
463.966	2.21
464.17	2.24
464.375	2.11
464.58	2.03
464.784	1.98
464.989	1.86
465.193	1.87
465.398	1.87
465.602	2.03
465.807	1.92
466.011	2.09
466.216	2.16
466.42	2.19
466.625	2.17
466.829	2.33
467.034	2.39
467.238	2.5
467.443	2.43
467.647	2.28
467.851	2.35
468.056	2.39
468.26	2.32
468.464	2.42
468.669	2.57
468.873	2.78
469.077	2.74
469.282	2.76
469.486	2.79
469.69	2.78
469.894	2.49
470.099	2.53
470.303	2.66
470.507	2.64
470.711	2.53
470.915	2.53
471.119	2.49
471.324	2.34
471.528	2.31
471.732	2.46
471.936	2.45
472.14	2.53
472.344	2.61
472.548	2.65
472.752	2.85
472.956	3.17
473.16	3.1
473.364	2.95
473.568	2.99
473.772	2.93
473.976	2.76
474.18	2.74
474.384	2.88
474.588	2.8
474.792	2.61
474.995	2.66
475.199	2.74
475.403	2.74
475.607	2.77
475.811	2.73
476.015	2.73
476.218	2.74
476.422	2.68
476.626	2.75
476.83	2.92
477.033	2.87
477.237	2.77
477.441	2.81
477.644	2.76
477.848	2.69
478.052	2.62
478.255	2.67
478.459	2.71
478.663	2.87
478.866	2.96
479.07	2.99
479.273	3.17
479.477	3.17
479.681	3.14
479.884	3.06
480.088	3.07
480.291	3
480.495	2.98
480.698	2.91
480.901	2.99
481.105	3.15
481.308	3.07
481.512	3.07
481.715	3.18
481.919	3.18
482.122	3.06
482.325	3.08
482.529	3.11
482.732	3.05
482.935	2.99
483.138	2.92
483.342	3.06
483.545	3.13
483.748	3.17
483.952	3.26
484.155	3.44
484.358	3.38
484.561	3.31
484.764	3.23
484.967	3.22
485.171	3.28
485.374	3.21
485.577	3.32
485.78	3.38
485.983	3.42
486.186	3.27
486.389	3.25
486.592	3.15
486.795	3.15
486.998	3.02
487.201	3.09
487.404	3.22
487.607	3.29
487.81	3.3
488.013	3.38
488.216	3.35
488.419	3.3
488.622	3.19
488.825	3.15
489.028	3.1
489.231	3.08
489.433	2.99
489.636	2.96
489.839	2.99
490.042	2.93
490.245	2.9
490.447	2.97
490.65	3.07
490.853	3
491.056	3.1
491.258	3.18
491.461	3.19
491.664	3.23
491.866	3.22
492.069	3.31
492.272	3.21
492.474	3.26
492.677	3.23
492.879	3.36
493.082	3.33
493.285	3.54
493.487	3.43
493.69	3.43
493.892	3.28
494.095	3.27
494.297	3.08
494.5	3.17
494.702	3.15
494.905	3.22
495.107	3.15
495.309	3.17
495.512	3.25
495.714	3.29
495.917	3.34
496.119	3.38
496.321	3.49
496.524	3.42
496.726	3.42
496.928	3.39
497.13	3.32
497.333	3.22
497.535	3.24
497.737	3.24
497.939	3.25
498.142	3.36
498.344	3.35
498.546	3.25
498.748	3.27
498.95	3.42
499.152	3.39
499.355	3.41
499.557	3.55
499.759	3.6
499.961	3.42
500.163	3.43
500.365	3.48
500.567	3.53
500.769	3.45
500.971	3.49
501.173	3.39
501.375	3.38
501.577	3.26
501.779	3.24
501.981	3.23
502.183	3.28
502.385	3.19
502.587	3.13
502.788	3.18
502.99	3.24
503.192	3.33
503.394	3.34
503.596	3.4
503.798	3.4
503.999	3.43
504.201	3.39
504.403	3.51
504.605	3.55
504.806	3.53
505.008	3.47
505.21	3.59
505.411	3.55
505.613	3.54
505.815	3.57
506.016	3.62
506.218	3.61
506.42	3.58
506.621	3.57
506.823	3.58
507.024	3.49
507.226	3.44
507.427	3.43
507.629	3.52
507.83	3.57
508.032	3.61
508.233	3.66
508.435	3.75
508.636	3.78
508.838	3.71
509.039	3.73
509.24	3.73
509.442	3.66
509.643	3.53
509.845	3.54
510.046	3.6
510.247	3.59
510.448	3.61
510.65	3.69
510.851	3.85
511.052	3.8
511.254	3.79
511.455	3.96
511.656	3.98
511.857	4
512.058	3.97
512.26	4.03
512.461	3.84
512.662	3.85
512.863	3.69
513.064	3.73
513.265	3.72
513.466	3.78
513.667	3.73
513.868	3.79
514.069	3.86
514.27	3.88
514.471	3.81
514.672	3.84
514.873	3.83
515.074	3.86
515.275	3.78
515.476	3.84
515.677	3.86
515.878	4
516.079	3.9
516.28	3.96
516.481	4.06
516.682	4.09
516.882	3.93
517.083	3.94
517.284	3.89
517.485	3.8
517.686	3.7
517.886	3.7
518.087	3.77
518.288	3.84
518.488	3.77
518.689	3.83
518.89	3.83
519.091	3.82
519.291	3.8
519.492	3.92
519.692	3.94
519.893	4.04
520.094	3.99
520.294	3.97
520.495	3.96
520.695	4.01
520.896	3.97
521.096	4.04
521.297	4.05
521.497	4.05
521.698	3.96
521.898	3.91
522.099	3.97
522.299	4.04
522.499	4.04
522.7	4.08
522.9	4.09
523.101	4.12
523.301	4.11
523.501	4.08
523.702	4.09
523.902	4.15
524.102	4.16
524.302	4.12
524.503	4.19
524.703	4.15
524.903	4.16
525.103	4.07
525.304	4.18
525.504	4.2
525.704	4.26
525.904	4.22
526.104	4.19
526.304	4.12
526.504	4.11
526.705	4.12
526.905	4.19
527.105	4.26
527.305	4.25
527.505	4.16
527.705	4.14
527.905	4.14
528.105	4.16
528.305	4.12
528.505	4.21
528.705	4.3
528.905	4.26
529.105	4.25
529.304	4.34
529.504	4.45
529.704	4.36
529.904	4.37
530.104	4.36
530.304	4.4
530.503	4.28
530.703	4.24
530.903	4.22
531.103	4.26
531.303	4.21
531.502	4.26
531.702	4.35
531.902	4.43
532.101	4.37
532.301	4.37
532.501	4.41
532.7	4.37
532.9	4.36
533.1	4.35
533.299	4.39
533.499	4.34
533.698	4.31
533.898	4.33
534.097	4.4
534.297	4.41
534.496	4.4
534.696	4.48
534.895	4.58
535.095	4.65
535.294	4.64
535.494	4.65
535.693	4.71
535.892	4.65
536.092	4.53
536.291	4.51
536.491	4.58
536.69	4.54
536.889	4.5
537.088	4.53
537.288	4.62
537.487	4.64
537.686	4.66
537.886	4.76
538.085	4.8
538.284	4.86
538.483	4.8
538.682	4.83
538.882	4.79
539.081	4.89
539.28	4.77
539.479	4.81
539.678	4.8
539.877	4.89
540.076	4.82
540.275	4.87
540.474	4.91
540.673	4.94
540.872	4.87
541.071	4.93
541.27	4.98
541.469	5.07
541.668	5.1
541.867	5.12
542.066	5.15
542.265	5.19
542.464	5.1
542.663	5.1
542.862	5.2
543.06	5.21
543.259	5.27
543.458	5.38
543.657	5.46
543.856	5.5
544.054	5.5
544.253	5.44
544.452	5.37
544.651	5.38
544.849	5.35
545.048	5.39
545.247	5.43
545.445	5.52
545.644	5.53
545.843	5.52
546.041	5.56
546.24	5.68
546.438	5.72
546.637	5.72
546.836	5.85
547.034	5.93
547.233	5.94
547.431	5.93
547.63	6.02
547.828	5.98
548.027	5.96
548.225	5.93
548.423	5.97
548.622	6.02
548.82	6.06
549.019	6.07
549.217	6.17
549.415	6.17
549.614	6.17
549.812	6.21
550.01	6.21
550.209	6.26
550.407	6.37
550.605	6.37
550.803	6.46
551.002	6.52
551.2	6.5
551.398	6.53
551.596	6.69
551.794	6.73
551.993	6.82
552.191	6.9
552.389	7.03
552.587	7.06
552.785	7.05
552.983	7.12
553.181	7.24
553.379	7.27
553.577	7.28
553.775	7.44
553.973	7.43
554.171	7.52
554.369	7.45
554.567	7.49
554.765	7.5
554.963	7.66
555.161	7.6
555.359	7.76
555.557	7.95
555.755	8.05
555.952	8.07
556.15	8.11
556.348	8.16
556.546	8.19
556.744	8.18
556.941	8.23
557.139	8.36
557.337	8.4
557.535	8.39
557.732	8.49
557.93	8.63
558.128	8.72
558.325	8.84
558.523	8.91
558.721	9.05
558.918	9.04
559.116	9.03
559.313	9.01
559.511	9.17
559.708	9.12
559.906	9.2
560.104	9.32
560.301	9.49
560.498	9.48
560.696	9.56
560.893	9.67
561.091	9.75
561.288	9.83
561.486	9.91
561.683	10
561.88	10.12
562.078	10.18
562.275	10.17
562.473	10.27
562.67	10.43
562.867	10.48
563.064	10.65
563.262	10.74
563.459	10.82
563.656	10.92
563.853	10.89
564.051	10.91
564.248	11.06
564.445	11.11
564.642	11.12
564.839	11.29
565.036	11.5
565.234	11.6
565.431	11.66
565.628	11.76
565.825	11.87
566.022	11.88
566.219	11.96
566.416	12.11
566.613	12.19
566.81	12.24
567.007	12.22
567.204	12.24
567.401	12.26
567.598	12.27
567.795	12.35
567.991	12.44
568.188	12.57
568.385	12.68
568.582	12.81
568.779	12.88
568.976	12.96
569.172	12.99
569.369	12.96
569.566	12.99
569.763	13.05
569.96	13.12
570.156	13.16
570.353	13.21
570.55	13.29
570.746	13.36
570.943	13.42
571.14	13.44
571.336	13.58
571.533	13.6
571.729	13.57
571.926	13.64
572.123	13.77
572.319	13.78
572.516	13.82
572.712	13.94
572.909	13.91
573.105	13.97
573.302	14.09
573.498	14.25
573.695	14.22
573.891	14.32
574.087	14.29
574.284	14.2
574.48	14.06
574.677	14.18
574.873	14.17
575.069	14.22
575.266	14.34
575.462	14.37
575.658	14.35
575.854	14.46
576.051	14.47
576.247	14.48
576.443	14.55
576.639	14.52
576.835	14.47
577.032	14.49
577.228	14.56
577.424	14.63
577.62	14.69
577.816	14.7
578.012	14.72
578.208	14.73
578.404	14.77
578.6	14.72
578.796	14.79
578.993	14.85
579.189	14.77
579.384	14.57
579.58	14.55
579.776	14.49
579.972	14.39
580.168	14.36
580.364	14.47
580.56	14.52
580.756	14.5
580.952	14.5
581.148	14.52
581.343	14.58
581.539	14.65
581.735	14.71
581.931	14.78
582.127	14.78
582.322	14.72
582.518	14.71
582.714	14.72
582.909	14.63
583.105	14.62
583.301	14.59
583.496	14.49
583.692	14.43
583.888	14.44
584.083	14.48
584.279	14.5
584.474	14.54
584.67	14.59
584.866	14.56
585.061	14.44
585.257	14.56
585.452	14.53
585.648	14.47
585.843	14.52
586.039	14.69
586.234	14.63
586.429	14.55
586.625	14.65
586.82	14.59
587.015	14.5
587.211	14.37
587.406	14.49
587.601	14.38
587.797	14.36
587.992	14.28
588.187	14.43
588.383	14.38
588.578	14.3
588.773	14.41
588.968	14.56
589.163	14.52
589.359	14.53
589.554	14.65
589.749	14.61
589.944	14.6
590.139	14.64
590.334	14.69
590.529	14.7
590.724	14.79
590.919	14.85
591.114	14.82
591.309	14.88
591.504	14.91
591.699	14.82
591.894	14.88
592.089	14.95
592.284	14.87
592.479	14.99
592.674	15
592.869	15.07
593.064	15.2
593.259	15.39
593.454	15.46
593.648	15.59
593.843	15.55
594.038	15.49
594.233	15.5
594.428	15.45
594.622	15.51
594.817	15.7
595.012	15.73
595.206	15.75
595.401	15.81
595.596	15.91
595.79	15.97
595.985	16.13
596.18	16.25
596.374	16.38
596.569	16.36
596.763	16.37
596.958	16.37
597.153	16.44
597.347	16.43
597.542	16.62
597.736	16.6
597.931	16.78
598.125	16.84
598.319	17.05
598.514	17.02
598.708	17.05
598.903	16.99
599.097	17.01
599.291	16.97
599.486	16.89
599.68	16.98
599.874	17.12
600.069	17.15
600.263	17.13
600.457	17.27
600.651	17.24
600.846	17.27
601.04	17.32
601.234	17.36
601.428	17.47
601.622	17.58
601.817	17.5
602.011	17.54
602.205	17.56
602.399	17.57
602.593	17.62
602.787	17.7
602.981	17.66
603.175	17.72
603.369	17.61
603.563	17.64
603.757	17.68
603.951	17.73
604.145	17.76
604.339	17.87
604.533	17.66
604.727	17.57
604.921	17.54
605.115	17.47
605.309	17.53
605.502	17.59
605.696	17.55
605.89	17.53
606.084	17.49
606.278	17.39
606.471	17.36
606.665	17.27
606.859	17.12
607.053	17.09
607.246	17.02
607.44	17.02
607.634	17.1
607.827	17.18
608.021	17.14
608.214	17.08
608.408	16.95
608.602	16.87
608.795	16.74
608.989	16.65
609.182	16.52
609.376	16.53
609.569	16.42
609.763	16.35
609.956	16.25
610.15	16.16
610.343	16.08
610.537	16.01
610.73	16.02
610.923	16.01
611.117	16.01
611.31	15.93
611.504	15.89
611.697	15.73
611.89	15.65
612.083	15.58
612.277	15.6
612.47	15.55
612.663	15.51
612.856	15.46
613.05	15.37
613.243	15.3
613.436	15.17
613.629	15.16
613.822	15.04
614.015	14.97
614.209	14.8
614.402	14.79
614.595	14.75
614.788	14.76
614.981	14.64
615.174	14.55
615.367	14.47
615.56	14.31
615.753	14.26
615.946	14.23
616.139	14.27
616.332	14.38
616.525	14.39
616.718	14.42
616.911	14.42
617.103	14.42
617.296	14.28
617.489	14.18
617.682	13.99
617.875	13.91
618.067	13.8
618.26	13.7
618.453	13.73
618.646	13.7
618.838	13.76
619.031	13.86
619.224	13.89
619.417	13.88
619.609	13.95
619.802	13.86
619.994	13.73
620.187	13.74
620.38	13.66
620.572	13.52
620.765	13.58
620.957	13.45
621.15	13.28
621.342	13.21
621.535	13.33
621.727	13.26
621.92	13.22
622.112	13.11
622.305	13.17
622.497	12.98
622.69	12.99
622.882	13.1
623.074	13.28
623.267	13.21
623.459	13.21
623.651	13.1
623.844	13.09
624.036	13.07
624.228	13.04
624.42	13.09
624.613	13.29
624.805	13.2
624.997	13.18
625.189	13.19
625.381	13.2
625.574	12.97
625.766	12.92
625.958	12.82
626.15	12.78
626.342	12.66
626.534	12.63
626.726	12.6
626.918	12.66
627.11	12.65
627.302	12.68
627.494	12.67
627.686	12.69
627.878	12.6
628.07	12.59
628.262	12.53
628.454	12.54
628.646	12.57
628.838	12.64
629.029	12.54
629.221	12.7
629.413	12.55
629.605	12.41
629.797	12.31
629.989	12.31
630.18	12.19
630.372	12.2
630.564	12.23
630.755	12.24
630.947	12.32
631.139	12.16
631.33	12.13
631.522	12.17
631.714	12.15
631.905	12.01
632.097	11.98
632.289	12
632.48	11.9
632.672	11.8
632.863	11.72
633.055	11.76
633.246	11.82
633.438	11.74
633.629	11.73
633.821	11.76
634.012	11.77
634.203	11.67
634.395	11.72
634.586	11.77
634.777	11.76
634.969	11.76
635.16	11.78
635.351	11.72
635.543	11.7
635.734	11.71
635.925	11.69
636.117	11.7
636.308	11.67
636.499	11.61
636.69	11.48
636.881	11.44
637.073	11.48
637.264	11.49
637.455	11.54
637.646	11.71
637.837	11.76
638.028	11.67
638.219	11.75
638.41	11.68
638.601	11.59
638.792	11.55
638.983	11.57
639.174	11.47
639.365	11.5
639.556	11.46
639.747	11.32
639.938	11.37
640.129	11.34
640.32	11.28
640.511	11.36
640.701	11.56
640.892	11.4
641.083	11.55
641.274	11.56
641.465	11.5
641.655	11.34
641.846	11.41
642.037	11.27
642.228	11.21
642.418	11.25
642.609	11.29
642.8	11.27
642.99	11.21
643.181	11.32
643.372	11.34
643.562	11.38
643.753	11.33
643.943	11.32
644.134	11.21
644.324	11.07
644.515	10.97
644.705	11.1
644.896	11.15
645.086	11.2
645.277	11.19
645.467	11.21
645.658	11.12
645.848	11.15
646.038	11.15
646.229	11.17
646.419	11.16
646.61	11.12
646.8	11
646.99	10.92
647.18	10.85
647.371	10.83
647.561	10.78
647.751	10.83
647.941	10.72
648.132	10.68
648.322	10.7
648.512	10.77
648.702	10.65
648.892	10.7
649.082	10.74
649.272	10.56
649.462	10.38
649.653	10.32
649.843	10.24
650.033	10.2
650.223	10.26
650.413	10.28
650.603	10.37
650.793	10.44
650.983	10.42
651.172	10.36
651.362	10.31
651.552	10.07
651.742	9.92
651.932	9.88
652.122	9.95
652.312	9.96
652.502	10.06
652.691	10.04
652.881	9.98
653.071	9.89
653.261	9.7
653.45	9.59
653.64	9.63
653.83	9.52
654.019	9.42
654.209	9.34
654.399	9.34
654.588	9.25
654.778	9.18
654.968	9.05
655.157	9.09
655.347	8.99
655.536	8.84
655.726	8.68
655.915	8.53
656.105	8.45
656.294	8.35
656.484	8.21
656.673	8.15
656.863	8.18
657.052	8.04
657.241	7.92
657.431	7.69
657.62	7.59
657.809	7.3
657.999	7.13
658.188	6.92
658.377	6.87
658.567	6.81
658.756	6.79
658.945	6.73
659.134	6.59
659.324	6.57
659.513	6.4
659.702	6.25
659.891	6.15
660.08	6.05
660.269	5.94
660.458	5.83
660.648	5.76
660.837	5.65
661.026	5.68
661.215	5.52
661.404	5.49
661.593	5.49
661.782	5.28
661.971	5.21
662.16	5.2
662.349	5.12
662.538	4.94
662.726	4.97
662.915	4.84
663.104	4.7
663.293	4.63
663.482	4.71
663.671	4.58
663.86	4.49
664.048	4.53
664.237	4.58
664.426	4.29
664.615	4.3
664.803	4.31
664.992	4.14
665.181	3.97
665.369	3.99
665.558	3.99
665.747	3.89
665.935	4.01
666.124	4.11
666.312	4.2
666.501	4.09
666.69	4.05
666.878	3.94
667.067	3.8
667.255	3.82
667.444	4.17
667.632	4.25
667.82	4.36
668.009	4.3
668.197	4.28
668.386	4.07
668.574	4.17
668.762	4.06
668.951	4.1
669.139	3.99
669.327	3.79
669.516	3.86
669.704	3.81
669.892	3.92
670.08	4.03
670.269	3.95
670.457	3.87
670.645	3.83
670.833	3.95
671.021	4
671.21	4.24
671.398	4.35
671.586	4.45
671.774	4.25
671.962	4.26
672.15	4.26
672.338	4.12
672.526	4.19
672.714	4.13
672.902	4.1
673.09	4.28
673.278	4.6
673.466	4.63
673.654	4.82
673.842	4.82
674.03	4.77
674.218	4.54
674.405	4.46
674.593	4.47
674.781	4.67
674.969	4.62
675.157	4.84
675.344	5.04
675.532	4.98
675.72	4.99
675.908	5.09
676.095	4.89
676.283	4.88
676.471	5.15
676.658	5.15
676.846	5.1
677.033	5.3
677.221	5.37
677.409	5.22
677.596	5.33
677.784	5.47
677.971	5.44
678.159	5.53
678.346	5.61
678.534	5.59
678.721	5.77
678.909	5.88
679.096	5.85
679.283	6.12
679.471	6.25
679.658	6.26
679.846	6.41
680.033	6.7
680.22	6.65
680.408	6.7
680.595	6.69
680.782	6.48
680.969	6.38
681.157	6.37
681.344	6.43
681.531	6.52
681.718	6.65
681.905	6.75
682.093	7
682.28	7.13
682.467	7.39
682.654	7.53
682.841	7.62
683.028	7.8
683.215	7.86
683.402	7.69
683.589	7.94
683.776	8.13
683.963	8.05
684.15	8.22
684.337	8.44
684.524	8.52
684.711	8.66
684.898	8.66
685.085	8.77
685.271	9.14
685.458	9.32
685.645	9.42
685.832	9.75
686.019	10
686.205	10.06
686.392	10.22
686.579	10.51
686.766	10.94
686.952	11.11
687.139	11.5
687.326	11.71
687.512	11.85
687.699	12.04
687.886	12.24
688.072	12.22
688.259	12.72
688.445	13.12
688.632	13.21
688.818	13.84
689.005	14.35
689.191	14.6
689.378	15.14
689.564	15.78
689.751	16.18
689.937	16.61
690.124	17.17
690.31	17.32
690.496	17.84
690.683	18.21
690.869	18.64
691.055	19.02
691.242	19.75
691.428	20.14
691.614	20.69
691.8	21.38
691.987	22
692.173	22.65
692.359	23.23
692.545	23.9
692.731	24.33
692.918	25.05
693.104	25.41
693.29	26.16
693.476	26.74
693.662	27.58
693.848	27.98
694.034	28.81
694.22	29.2
694.406	29.7
694.592	30.18
694.778	30.85
694.964	31.4
695.15	32.01
695.336	32.54
695.522	33.29
695.708	34.04
695.894	34.66
696.08	35.5
696.265	36.33
696.451	36.81
696.637	37.43
696.823	38.11
697.009	38.65
697.194	39.32
697.38	40.02
697.566	40.47
697.751	41.02
697.937	41.92
698.123	42.51
698.308	43.1
698.494	43.89
698.68	44.47
698.865	45.02
699.051	45.42
699.236	45.94
699.422	46.48
699.607	47.01
699.793	47.24
699.978	47.77
700.164	48.25
700.349	49.09
700.535	49.61
700.72	50.07
700.906	50.79
701.091	51.32
701.276	51.48
701.462	52.43
701.647	53.45
701.832	54.08
702.018	54.85
702.203	55.34
702.388	55.48
702.573	55.62
702.759	56.28
702.944	56.4
703.129	56.66
703.314	57.09
703.499	57.34
703.684	57.16
703.87	58.42
704.055	59.35
704.24	59.94
704.425	60.64
704.61	61.41
704.795	61.1
704.98	61.18
705.165	61.14
705.35	61.6
705.535	61.56
705.72	62.14
705.905	62.4
706.09	63.31
706.275	63.03
706.459	63.54
706.644	63.52
706.829	63.89
707.014	63.67
707.199	64.64
707.384	65.11
707.568	65.66
707.753	66.23
707.938	66.59
708.123	66.66
708.307	66.7
708.492	66.6
708.677	66.47
708.861	66.52
709.046	66.45
709.231	66.99
709.415	67.46
709.6	67.94
709.784	68.15
709.969	68.35
710.153	68.02
710.338	68
710.522	68.14
710.707	68.56
710.891	68.67
711.076	69.23
711.26	69.05
711.445	69.27
711.629	69.63
711.813	70.19
711.998	70.38
712.182	70.6
712.366	71.33
712.551	71.65
712.735	71.87
712.919	71.85
713.103	72.44
713.288	71.96
713.472	71.35
713.656	71.54
713.84	72.09
714.024	72.49
714.208	72.55
714.393	73.4
714.577	73.53
714.761	73.44
714.945	73.34
715.129	73.33
715.313	73.33
715.497	73.35
715.681	73.98
715.865	74.17
716.049	74.5
716.233	74.22
716.417	74.46
716.601	74.12
716.785	74.01
716.968	74.36
717.152	74.78
717.336	74.61
717.52	74.71
717.704	75.12
717.888	75.35
718.071	75.63
718.255	76.27
718.439	76.4
718.622	76.56
718.806	76.8
718.99	76.24
719.174	76.08
719.357	76.09
719.541	75.97
719.724	75.49
719.908	76.72
720.092	77.32
720.275	77.67
720.459	77.77
720.642	78.05
720.826	77.41
721.009	76.81
721.193	76.22
721.376	76.22
721.559	76.23
721.743	76.71
721.926	77.29
722.11	78.07
722.293	77.8
722.476	77.6
722.66	77.4
722.843	76.68
723.026	75.64
723.21	76.19
723.393	77.25
723.576	77.01
723.759	76.83
723.942	77.43
724.126	77.28
724.309	76.58
724.492	76.91
724.675	77.11
724.858	77.55
725.041	78.42
725.224	78.69
725.407	78.99
725.59	79.05
725.774	78.98
725.957	77.99
726.14	77.56
726.322	77.57
726.505	77.61
726.688	77.95
726.871	77.97
727.054	78.63
727.237	78.45
727.42	78.99
727.603	78.83
727.786	79.5
727.968	79.52
728.151	79.65
728.334	79.47
728.517	79.57
728.699	80.12
728.882	79.9
729.065	80.74
729.248	81.45
729.43	81.91
729.613	81.79
729.796	82.45
729.978	81.63
730.161	81.18
730.343	80.5
730.526	80.63
730.708	79.49
730.891	79.61
731.073	79.73
731.256	79.71
731.438	79.36
731.621	81.13
731.803	81.13
731.986	80.86
732.168	80.65
732.35	80.77
732.533	79.75
732.715	79.83
732.898	81.03
733.08	81.41
733.262	82.22
733.444	82.41
733.627	82.1
733.809	81.84
733.991	83.56
734.173	82.41
734.355	82.24
734.538	83.52
734.72	82.88
734.902	82.3
735.084	82.34
735.266	82.4
735.448	82.37
735.63	82.42
735.812	82.32
735.994	84.22
736.176	84.42
736.358	83.85
736.54	85.06
736.722	84.21
736.904	82.8
737.086	83.24
737.268	84.94
737.45	84.19
737.632	84.39
737.814	83.94
737.995	83.95
738.177	82.56
738.359	82.06
738.541	82.72
738.723	84.23
738.904	84.72
739.086	84.21
739.268	84.73
739.449	85.08
739.631	84.21
739.813	84.09
739.994	85.06
740.176	85.26
740.358	84.96
740.539	86.25
740.721	86.33
740.902	86.81
741.084	86.69
741.265	86.38
741.447	85.54
741.628	85.74
741.81	84.51
741.991	84.98
742.172	85.42
742.354	86.18
742.535	85.32
742.717	85.81
742.898	86.48
743.079	87.24
743.261	86.47
743.442	86.03
743.623	86.21
743.804	85.37
743.986	85.57
744.167	84.33
744.348	84.51
744.529	83.93
744.71	82.8
744.891	82.2
745.073	82.6
745.254	82.46
745.435	82.51
745.616	82.15
745.797	81.7
745.978	81.8
746.159	83.05
746.34	82.53
746.521	84.55
746.702	83.39
746.883	83.66
747.064	82.88
747.245	84.17
747.426	83.54
747.606	84.72
747.787	84.82
747.968	84.74
748.149	85.08
748.33	85.41
748.51	84.79
748.691	84.38
748.872	84.2
749.053	83.42
749.233	81.77
749.414	81.12
749.595	80.49
749.775	80.11
749.956	79.87
750.137	80.46
750.317	81.85
750.498	83.72
750.678	83.9
750.859	83.88
751.04	84.25
751.22	83.09
751.4	81.76
751.581	82.21
751.761	83.08
751.942	83.87
752.122	83.61
752.303	83.4
752.483	82.87
752.663	81.07
752.844	80.64
753.024	82.24
753.204	82.91
753.385	82.41
753.565	84.62
753.745	85.33
753.925	84
754.106	82.61
754.286	82.78
754.466	81.35
754.646	81.4
754.826	81.79
755.006	82.05
755.187	83.77
755.367	84.49
755.547	84.47
755.727	86.07
755.907	86.83
756.087	86.44
756.267	85.23
756.447	83.85
756.627	81.27
756.807	82.24
756.987	80.17
757.167	81.01
757.346	81.64
757.526	80.97
757.706	81.33
757.886	83.06
758.066	84.49
758.246	86.63
758.425	87.74
758.605	86.16
758.785	85.82
758.965	83.54
759.144	80.43
759.324	80.48
759.504	81.47
759.683	81.17
759.863	79.99
760.043	78.66
760.222	79.12
760.402	77.31
760.581	77.48
760.761	81.07
760.94	81.71
761.12	82.12
761.299	83.09
761.479	83.15
761.658	80.12
761.838	80.6
762.017	81.78
762.197	81.52
762.376	80.7
762.555	82.69
762.735	84.29
762.914	81.43
763.093	82.24
763.273	82.56
763.452	82.53
763.631	81.33
763.81	81.84
763.99	80.84
764.169	80.18
764.348	77.08
764.527	75.24
764.706	76.92
764.885	79.82
765.064	78.23
765.243	79.28
765.423	81.98
765.602	81
765.781	77
765.96	76.64
766.139	76.55
766.318	76.81
766.497	75.14
766.676	75.99
766.854	79.48
767.033	80.21
767.212	77.75
767.391	78.86
767.57	79.23
767.749	79.2
767.928	81.08
768.106	81.36
768.285	80.67
768.464	81.43
768.643	80.1
768.821	78.04
769	79.28
769.179	79.65
769.357	76.99
769.536	75.59
769.715	76.6
769.893	77.31
770.072	76.72
770.25	77.13
770.429	78.75
770.607	77.37
770.786	76.44
770.964	77.07
771.143	76.95
771.321	78.51
771.5	79.62
771.678	77.94
771.857	77.24
772.035	77.11
772.213	74.42
772.392	72.21
772.57	75.77
772.748	76.88
772.927	76.09
773.105	76.68
773.283	78.41
773.461	77.72
773.64	77.17
773.818	79.11
773.996	79.03
774.174	77.07
774.352	72.46
774.531	69.19
774.709	70.47
774.887	70.63
775.065	71.16
775.243	72.84
775.421	75.64
775.599	76.42
775.777	74.77
775.955	72.48
776.133	71.58
776.311	70.23
776.489	66.79
776.667	67.7
776.844	70.34
777.022	69.22
777.2	71.13
777.378	71.36
777.556	71.13
777.734	74.09
777.911	79.22
778.089	75.96
778.267	77.91
778.445	76.52
778.622	73.55
778.8	71.18
778.978	75.58
779.155	71.7
779.333	72.29
779.511	71.98
779.688	74.82
779.866	69.88
780.043	69.91
780.221	70.75
780.398	66.76
780.576	66.93
780.753	69.9
780.931	69.7
781.108	68.83
781.286	72.73
781.463	67.08
781.64	63.54
781.818	67.59
781.995	70.38
782.172	69.96
782.35	72.27
782.527	77.41
782.704	74.26
782.882	73.94
783.059	73.81
783.236	75.38
783.413	73.68
783.59	74.89
783.768	71.02
783.945	73.78
784.122	72.39
784.299	72.47
784.476	71.1
784.653	70.97
784.83	65.93
785.007	63.01
785.184	64.57
785.361	63.84
785.538	69.92
785.715	73.65
785.892	75.97
786.069	75.87
786.246	78.28
786.423	74.08
786.6	70.97
786.776	71.26
786.953	68.43
787.13	71.65
787.307	73.3
787.484	74.8
787.66	72.51
787.837	74.85
788.014	70.42
788.191	66.69
788.367	65.21
788.544	68.71
788.721	66.37
788.897	69.29
789.074	70.18
789.25	68.64
789.427	69.53
789.603	69.94
789.78	69.67
789.956	69.97
790.133	70.63
790.309	69.74
790.486	75.47
790.662	72.89
790.839	73.6
791.015	75.72
791.192	72.68
791.368	70.18
791.544	67.76
791.721	68.11
791.897	65.39
792.073	66.12
792.249	59.18
792.426	62.86
792.602	64.7
792.778	64.45
792.954	62.85
793.13	65.52
793.307	58.79
793.483	49.3
793.659	48.54
793.835	54.92
794.011	52.34
794.187	55.58
794.363	58.02
794.539	66.66
794.715	61.2
794.891	61.19
795.067	61.05
795.243	67.5
795.419	61.01
795.595	59.14
795.771	62.92
795.947	62.39
796.122	57.78
796.298	61.01
796.474	64.07
796.65	63.09
796.826	62.69
797.001	61.73
797.177	58.25
797.353	61.24
797.529	63.12
797.704	64
797.88	65.3
798.056	61.53
798.231	55.99
798.407	59.12
798.582	60.12
798.758	64.04
798.934	76.51
799.109	74.37
799.285	67.8
799.46	73.73
799.636	73.86
799.811	65.34
799.986	68.91
800.162	71.98
800.337	70.72
800.513	69.15
800.688	68.53
800.863	75.7
801.039	67.64
801.214	62.46
801.389	61.73
801.565	60.03
801.74	45.85
801.915	57.6
802.09	55.47
802.265	59.54
802.441	58.75
802.616	64.94
802.791	61.31
802.966	65.45
803.141	60.76
803.316	59.4
803.491	62.29
803.666	62.66
803.841	54.17
804.016	52.88
804.191	57.35
804.366	49.74
804.541	53.94
804.716	55.25
804.891	50.57
805.066	57.53
805.241	55.32
805.416	47.19
805.591	50.19
805.765	59.71
805.94	57.94
806.115	61.85
806.29	57.57
806.464	57.35
806.639	52.17
806.814	46.57
806.989	38.1
807.163	58.55
807.338	55.71
807.512	52.17
807.687	35.81
807.862	49.74
808.036	40.73
808.211	51.15
808.385	57.83
808.56	79.89
808.734	86.35
808.909	83.1
809.083	71.48
809.258	74.73
809.432	68.66
809.606	52.29
809.781	50.2
809.955	62.08
810.13	54.56
810.304	52.1
810.478	51.06
810.652	62.22
810.827	59.75
811.001	66.15
811.175	60.52
811.349	63.38
811.524	53.09
811.698	35.23
811.872	33.67
812.046	50.74
812.22	58.9
812.394	58.97
812.568	77.68
812.742	83.45
812.916	70.84
813.09	58.43
813.264	57.83
813.438	54.65
813.612	48.49
813.786	45.03
813.96	60.3
814.134	60.69
814.308	66.14
814.482	67.78
814.656	60.16
814.83	65.88
815.003	68.01
815.177	50.28
815.351	40.34
815.525	39.33
815.698	24.82
815.872	20.34
816.046	15.63
816.219	28.64
816.393	48.24
816.567	49.51
816.74	48.04
816.914	63.25
817.088	69.51
817.261	53.75
817.435	44.52
817.608	51.84
817.782	40.79
817.955	42.92
818.129	46.43
818.302	59.53
818.475	70.95
818.649	70.14
818.822	53.54
818.996	68.64
819.169	58.05
819.342	36.72
819.516	53.16
819.689	62.46
819.862	43.72
820.035	39.99
820.209	44.72
820.382	42.48
820.555	43.04
820.728	35.91
820.901	37.3
821.075	44.3
821.248	45.99
821.421	34.74
821.594	43.03
821.767	67.35
821.94	75.52
822.113	46.03
822.286	48.47
822.459	59.3
822.632	44.06
822.805	16.16
822.978	28.11
823.151	29.96
823.324	21.41
823.496	-3.76
823.669	-0.25
823.842	9.49
824.015	-0.57
824.188	-11.79
824.361	1.1
824.533	4.46
824.706	9.54
824.879	19.53
825.051	39.61
825.224	46.39
825.397	45.18
825.569	24.94
825.742	37.95
825.915	45.35
826.087	56.84
826.26	44.15
826.432	49.64
826.605	46.62
826.777	30.15
826.95	29.65
827.122	22.7
827.295	34.25
827.467	32.74
827.64	-2.98
827.812	-14.43
827.984	1.96
828.157	-15.64
828.329	-47.89
828.501	-18.4
828.674	4.17
828.846	-7.82
829.018	22.02
829.19	3.38
829.363	32.16
829.535	35.15
829.707	49.57
829.879	13.91
830.051	22.84
830.223	1.01
830.395	-39.7
830.568	-46.24
830.74	-39.43
830.912	-1.42
831.084	-21.62
831.256	-0.11
831.428	-14.29
831.6	-24.95
831.772	-71.19
831.943	-70.84
832.115	-46.84
832.287	-9.46
832.459	15.32
832.631	32.26
832.803	74.14
832.975	100.55
833.146	86.11
833.318	73.74
833.49	92.83
833.662	65.89
833.833	27.33
834.005	23.34
834.177	28.78
834.348	13.25
834.52	0.97
834.692	9.28
834.863	-11.46
835.035	-0.95
835.206	-48.13
835.378	-33.27
835.549	-36.71
835.721	-21.25
835.892	-39.59
836.064	-7.66
836.235	-5.25
836.407	34.2
836.578	23.71
836.749	71.69
836.921	28.15
837.092	-38.67
837.264	-68.36
837.435	-86.8
837.606	-50.5
837.777	-8.35
837.949	18.79
838.12	28.17
838.291	52.52
838.462	50.91
838.633	20.56
838.805	13.54
838.976	32.71
839.147	-16.19
839.318	-22.5
839.489	-40
839.66	8.52
839.831	25.4
840.002	18.28
840.173	3.67
840.344	61.65
840.515	59.45
840.686	-96.98
840.857	-76.83
841.028	-103.1
841.199	-110.37
841.369	-99.68
841.54	-76.02
841.711	-34.12
841.882	-4.82
842.053	-0.4
842.223	-24.47
842.394	-4.25
842.565	7.28
842.736	3.28
842.906	-11.14
843.077	12.1
843.248	33.8
843.418	16.77
843.589	-38.47
843.759	29.2
843.93	13.29
844.101	-18.57
844.271	-10.79
844.442	28.43
844.612	38.27
844.783	-0.72
844.953	-25.32
845.123	2.05
845.294	-10.56
845.464	-211.94
845.635	0.23
845.805	87.89
845.975	50.3
846.146	-10.69
846.316	-7.03
846.486	7.41
846.656	29.15
846.827	10.11
846.997	23.34
847.167	38.96
847.337	8.26
847.507	-49.95
847.677	-26.39
847.848	43.71
848.018	49.22
848.188	57.76
848.358	51.87
848.528	33.11
848.698	-22.1
848.868	-119.03
849.038	-219.75
849.208	-66.51
849.378	19
849.548	21.69
849.718	29.9
849.887	70.12
850.057	33.51
850.227	4.61
850.397	-35.22
850.567	-111.2
850.737	-405.22
850.906	-1476.25
851.076	-1089.06
851.246	-436.13
851.415	-52.04
851.585	-54.53
851.755	-78.34
851.924	-30.22
852.094	-76.69
852.264	-180.97
852.433	-1023.08
852.603	-134.16
852.772	-86.69
852.942	-52.63
853.111	-64.24
853.281	-36.77
853.45	-11.53
853.62	-114.14
853.789	-120.68
853.959	-117.75
854.128	-74.84
854.297	-123.11
854.467	-120.65
854.636	-71.38
854.805	-19.21
854.975	-72.65
855.144	-76.16
855.313	155.94
855.482	-294.89
855.652	-195.07
855.821	-80.81
855.99	12.78
856.159	25.65
856.328	50.44
856.497	37.52
856.667	25.47
856.836	36.39
857.005	-14.99
857.174	-65.6
857.343	-92.97
857.512	-80.99
857.681	-128.48
857.85	-163.6
858.019	-81.27
858.188	-51.09
858.356	-76.44
858.525	-123
858.694	-93.79
858.863	-185.8
859.032	-147.23
859.201	-156.53
859.369	-140.56
859.538	-106.38
859.707	-49.23
859.876	-81.28
860.044	-46.57
860.213	40.71
860.382	21.54
860.55	7.52
860.719	36.8
860.888	29.06
861.056	-12.39
861.225	-14.76
861.393	43.48
861.562	27.06
861.73	-48.44
861.899	-209.95
862.067	-1103.45
862.236	-131.28
862.404	-289.34
862.572	-148
862.741	-35.89
862.909	-36.03
863.078	-164.73
863.246	-109.07
863.414	-90.53
863.582	-79.02
863.751	-92.94
863.919	-52.09
864.087	-1.84
864.255	2.45
864.424	-300.8
864.592	-31.15
864.76	-39.74
864.928	-128.8
865.096	-112.42
865.264	-10.24
865.432	-1368.18
865.6	-49
865.768	-95.13
865.936	-137.93
866.104	-168.82
866.272	-217.19
866.44	-435.43
866.608	664.67
866.776	300.54
866.944	2544.19
867.112	-388.56
867.28	-187.13
867.448	-47.17
867.615	11.19
867.783	18.63
867.951	6.03
868.119	77.83
868.286	50.7
868.454	-53.22
868.622	-59.9
868.789	-92.11
868.957	-3292.86
869.125	-2247.37
869.292	-134.64
869.46	-223.75
869.627	-28.9
869.795	-47.26
869.963	0.09
870.13	28.35
870.298	54.56
870.465	-4.02
870.632	-32.18
870.8	-46.61
870.967	-93.97
871.135	-179.72
871.302	-161.96
871.469	-168.36
871.637	-215.3
871.804	-125.33
871.971	-156.32
872.139	-390.23
872.306	-5.26
872.473	-7.33
872.64	-156.65
872.807	88.96
872.975	94.82
873.142	-9.45
873.309	1067.57
873.476	100.37
873.643	177.47
873.81	103.67
873.977	120.06
874.144	115.96
874.311	64.47
874.478	-57.29
874.645	-89.62
874.812	-96.1
874.979	-11.94
875.146	-36.68
875.313	-56.68
875.48	30.79
875.647	11.29
875.813	-41.62
875.98	-37.48
876.147	-49.15
876.314	-122.35
876.481	1075.21
876.647	-1414.61
876.814	486.01
876.981	-104.62
877.147	-44.23
877.314	12.96
877.481	70.46
877.647	64.87
877.814	32.46
877.98	-0.31
878.147	36.17
878.314	26.7
878.48	-17.51
878.647	11.17
878.813	54.25
878.979	25.52
879.146	-12.79
879.312	-13.51
879.479	-112.96
879.645	-221.28
879.811	-356.47
879.978	-832.82
880.144	-198.6
880.31	-89.24
880.477	-370.82
880.643	-423.24
880.809	-173.57
880.975	-163.71
881.142	-983.64
881.308	-87.7
881.474	-46.77
881.64	-74.95
881.806	-104.18
881.972	6.65
882.138	11.39
882.304	106.63
882.47	12.2
882.636	-407.38
882.802	-232.8
882.968	-5.9
883.134	-31.75
883.3	-45.73
883.466	21.66
883.632	76.31
883.798	2.26
883.964	-19.79
884.129	-6.27
884.295	27.42
884.461	-37.14
884.627	-37.24
884.793	-53.91
884.958	-26.85
885.124	-151.36
885.29	-357.58
885.455	-532.52
885.621	-167.29
885.787	-234.19
885.952	-88.35
886.118	-34.85
886.283	-43.83
886.449	-135.59
886.614	-142.32
886.78	-323.85
886.945	1100
887.111	-632.37
887.276	-480.11
887.442	-961.82
887.607	-313.68
887.773	-253.82
887.938	-209.66
888.103	-188.24
888.269	-7.83
888.434	-254.05
888.599	-105.69
888.764	24.8
888.93	33.12
889.095	-14.48
889.26	-12.7
889.425	37.34
889.59	4.01
889.756	-48.04
889.921	-0.27
890.086	54.99
890.251	47.72
890.416	-80.78
890.581	-922.58
890.746	114.29
890.911	249.68
891.076	148.12
891.241	-189.55
891.406	99.26
891.571	25.12
891.736	-135.78
891.901	-293.81
892.065	-17.58
892.23	103.18
892.395	188.26
892.56	326.59
892.725	-254.69
892.889	-882.93
893.054	-156.78
893.219	-42.76
893.384	-3.12
893.548	-99.19
893.713	-138.47
893.878	-104.21
