Data from Ofra_PS_T2_2A_8HS24_Reflection_2.txt Node
Date: Wed Jul 21 17:21:57 EDT 2021
User: Adam
Spectrometer: FLMT01687
Trigger mode: 0
Integration Time (sec): 1.100000E0
Scans to average: 2
Electric dark correction enabled: true
Nonlinearity correction enabled: false
Boxcar width: 2
XAxis mode: Wavelengths
Number of Pixels in Spectrum: 3648
>>>>>Begin Spectral Data<<<<<
179.494	568.4
179.716	654.59
179.937	665.42
180.158	710.37
180.38	1189.06
180.601	540.61
180.823	133.63
181.044	-122.04
181.265	-59.19
181.486	-13.54
181.708	70.09
181.929	839.8
182.15	-528.87
182.372	106.25
182.593	-9.58
182.814	17.47
183.035	100.09
183.257	60.01
183.478	-25.64
183.699	47.66
183.92	20.39
184.141	-0.06
184.363	-42.61
184.584	40.98
184.805	9.8
185.026	45.2
185.247	42.16
185.468	31.57
185.689	20.59
185.91	24.3
186.132	32.22
186.353	33.04
186.574	110.61
186.795	89.96
187.016	64.3
187.237	25.75
187.458	1.56
187.679	-37.34
187.9	-43.87
188.121	-22.57
188.342	-19.53
188.563	40.43
188.784	71.92
189.005	57.26
189.226	85.22
189.447	61.26
189.667	-154.61
189.888	-316.5
190.109	-865.58
190.33	-526.77
190.551	-908.41
190.772	-210.05
190.993	-244.27
191.214	-239.85
191.434	-134.98
191.655	-37.24
191.876	-38.99
192.097	-67.74
192.318	-107.07
192.538	-238.56
192.759	-198.96
192.98	-107.13
193.201	-36.63
193.421	-33
193.642	0.31
193.863	27.72
194.083	8.75
194.304	-2.17
194.525	29.66
194.745	54.88
194.966	-10.87
195.187	-26.37
195.407	-27.63
195.628	-107.75
195.848	-110.27
196.069	-65.7
196.29	4.76
196.51	-40.1
196.731	-28.01
196.951	-35.87
197.172	-59.84
197.392	-121.38
197.613	-102.08
197.833	-111.92
198.054	-104.01
198.274	-60.38
198.495	-65.7
198.715	-37.82
198.936	-43.61
199.156	-34.48
199.377	-125.98
199.597	-119.51
199.817	-137.11
200.038	-59.93
200.258	-103.77
200.479	-11.73
200.699	13.16
200.919	81.89
201.14	17.61
201.36	-5.24
201.58	24.88
201.801	46.59
202.021	15.73
202.241	11.8
202.461	22.33
202.682	-63.25
202.902	-126.13
203.122	-79.76
203.342	-49.35
203.563	-8.81
203.783	15.99
204.003	-15.17
204.223	-33
204.443	17.1
204.663	-25.49
204.884	6.61
205.104	57.19
205.324	97.21
205.544	106.71
205.764	99.15
205.984	81.46
206.204	65.39
206.424	43.8
206.644	13.07
206.864	23.2
207.084	-6.31
207.304	28.96
207.525	4.53
207.745	-50.19
207.964	-20.09
208.184	-51.82
208.404	-92.56
208.624	-93.96
208.844	-79.12
209.064	-385.83
209.284	-438.47
209.504	-237.62
209.724	-41.98
209.944	-4.6
210.164	41.4
210.384	53.94
210.604	60.35
210.823	-14.16
211.043	-60.09
211.263	-54.62
211.483	-56.36
211.703	-120.66
211.922	-60.27
212.142	10.9
212.362	39.45
212.582	23.52
212.801	18.72
213.021	-28.05
213.241	-39.01
213.461	-94.65
213.68	-104.42
213.9	-55.01
214.12	-30.4
214.339	-85.68
214.559	-49.68
214.779	-19.38
214.998	-27.41
215.218	-55.3
215.438	-40.43
215.657	-37.75
215.877	-45.34
216.096	-10.18
216.316	-2.41
216.535	-5.9
216.755	-18.46
216.974	-65.38
217.194	-119.02
217.413	-116.82
217.633	-86.77
217.852	-139.44
218.072	-65.29
218.291	-27.33
218.511	-3.56
218.73	-38.92
218.95	-28.66
219.169	-23.96
219.389	-65.25
219.608	-38.01
219.827	-26.13
220.047	-21.23
220.266	-3.53
220.485	16.55
220.705	19.67
220.924	-6.42
221.143	28.54
221.363	-8.21
221.582	-12.11
221.801	-11.53
222.021	12.92
222.24	-83.45
222.459	-9.9
222.678	-17.36
222.897	-84.1
223.117	-135.52
223.336	-60.36
223.555	-56.04
223.774	-19.3
223.993	24.97
224.213	101.69
224.432	54.85
224.651	91.99
224.87	58.21
225.089	51.38
225.308	30.81
225.527	44.43
225.746	33.02
225.965	37.23
226.184	16.39
226.404	19.27
226.623	3.79
226.842	9.94
227.061	24.13
227.28	31.05
227.499	26.16
227.718	38.34
227.936	10.67
228.155	26.54
228.374	11.54
228.593	14.02
228.812	9.56
229.031	12.71
229.25	-38.22
229.469	-51.03
229.688	-12.07
229.907	4.07
230.125	41.47
230.344	32.78
230.563	43.79
230.782	39
231.001	-31.93
231.22	-41.8
231.438	-7.38
231.657	1.47
231.876	-13.75
232.095	51.35
232.313	51.8
232.532	67.8
232.751	39.62
232.969	6.8
233.188	-58.68
233.407	-2.5
233.625	-12.26
233.844	-24.87
234.063	-5.28
234.281	18.08
234.5	21.55
234.719	40.26
234.937	49.22
235.156	63.94
235.374	56.34
235.593	34.21
235.811	8.64
236.03	-2.8
236.249	-45.91
236.467	-43.57
236.686	-16.34
236.904	7.68
237.123	-13.78
237.341	-17.02
237.559	-12.85
237.778	-24.55
237.996	-83.73
238.215	-4.04
238.433	20.28
238.652	17.31
238.87	-1.01
239.088	18.28
239.307	13.94
239.525	3.89
239.743	-16.53
239.962	2.8
240.18	0.2
240.398	-54.59
240.617	-52.15
240.835	-42.36
241.053	-24.93
241.271	0.55
241.49	29.12
241.708	2.12
241.926	35.37
242.144	5.08
242.363	-39.91
242.581	-57.71
242.799	-37.11
243.017	-17.88
243.235	-22.93
243.453	-6.5
243.672	-15.15
243.89	-12.53
244.108	-22.3
244.326	10.3
244.544	12.77
244.762	15.62
244.98	30.76
245.198	17.82
245.416	-15.55
245.634	-26.3
245.852	-19.96
246.07	-53.08
246.288	-43.83
246.506	-67
246.724	-40.86
246.942	-28.95
247.16	22.05
247.378	37.1
247.596	47.92
247.814	44.93
248.032	6.01
248.25	3.34
248.468	11.83
248.685	22.95
248.903	45.6
249.121	52.99
249.339	24.42
249.557	-2.43
249.775	1.69
249.992	-70.28
250.21	-58.19
250.428	-38.15
250.646	-53.66
250.863	-59.06
251.081	-26.54
251.299	-17.03
251.517	-9.04
251.734	-0.95
251.952	-16.68
252.17	-6.53
252.387	4.64
252.605	-5.77
252.823	0.85
253.04	12.11
253.258	36.25
253.475	25.54
253.693	52.03
253.911	46
254.128	47.61
254.346	30.4
254.563	14.66
254.781	-9.21
254.998	-33.08
255.216	-12.1
255.433	-0.04
255.651	30.15
255.868	58.17
256.086	95.43
256.303	64.61
256.521	31.44
256.738	18.67
256.956	-18.34
257.173	-48.85
257.39	-56.97
257.608	-62.37
257.825	15.88
258.043	50.6
258.26	36.9
258.477	71.44
258.695	68.63
258.912	-12.49
259.129	-1.29
259.346	-20.09
259.564	-68.14
259.781	-96.11
259.998	-20.8
260.216	10.06
260.433	37.72
260.65	46.08
260.867	71.94
261.084	61.37
261.302	42.95
261.519	34.11
261.736	-7.79
261.953	-27.44
262.17	-18.45
262.387	-67.84
262.604	-60.3
262.822	-56.96
263.039	-39.25
263.256	-97.64
263.473	-46.18
263.69	-37.79
263.907	8.47
264.124	12.23
264.341	33.98
264.558	14.59
264.775	26.99
264.992	11.15
265.209	16.54
265.426	41.39
265.643	56.55
265.86	64.32
266.077	68.74
266.294	67.72
266.51	3.34
266.727	-12.61
266.944	-19.58
267.161	-18.64
267.378	-33.17
267.595	4.78
267.812	-25.74
268.028	-42.01
268.245	-45.56
268.462	-49.14
268.679	-66.11
268.896	-3.49
269.112	-5.18
269.329	-11.01
269.546	-5.29
269.763	2.47
269.979	-9.45
270.196	7.81
270.413	9.23
270.629	-11.44
270.846	-34.89
271.063	-22.39
271.279	-57.96
271.496	-52.42
271.712	-12.08
271.929	13.94
272.146	-16.28
272.362	-6.05
272.579	21.92
272.795	41.53
273.012	56.71
273.228	61.77
273.445	56
273.661	41.27
273.878	-25.76
274.094	-49.73
274.311	-64.58
274.527	-0.03
274.744	7.39
274.96	9.12
275.177	20.94
275.393	29.7
275.609	27.17
275.826	35.23
276.042	46.74
276.259	20.57
276.475	39.29
276.691	29.61
276.908	1.85
277.124	12.31
277.34	24.21
277.557	8.93
277.773	3.13
277.989	3.85
278.205	-3.65
278.422	12.22
278.638	13.35
278.854	30.47
279.07	34.69
279.286	25.71
279.503	-0.25
279.719	-20.96
279.935	-49.96
280.151	-44.33
280.367	-21.81
280.583	-39.83
280.799	-27.32
281.016	-58.96
281.232	-33.59
281.448	-36.27
281.664	-10.86
281.88	-37.3
282.096	8.77
282.312	48.98
282.528	67.75
282.744	85.08
282.96	76.32
283.176	49.92
283.392	30.38
283.608	14.81
283.824	14.09
284.04	19.93
284.256	26.16
284.471	2.63
284.687	-11.15
284.903	-6.85
285.119	19.7
285.335	7
285.551	25.67
285.767	31.95
285.982	19.62
286.198	-26.83
286.414	7.24
286.63	1.14
286.846	23.79
287.061	-6.78
287.277	28.19
287.493	1.56
287.709	20.97
287.924	-1.2
288.14	45.99
288.356	49.56
288.571	71.89
288.787	44.87
289.003	44.81
289.218	18.62
289.434	-27.79
289.65	-36.04
289.865	-37.53
290.081	-25.23
290.296	-9.06
290.512	24.53
290.727	-7.64
290.943	-16.96
291.159	-18.44
291.374	-16.57
291.59	-46.58
291.805	-19.58
292.021	-9.34
292.236	-14.64
292.451	-4.07
292.667	4.37
292.882	0.93
293.098	8.79
293.313	-9.56
293.529	-36.2
293.744	-34.81
293.959	-36.66
294.175	-33.48
294.39	6.89
294.605	20.39
294.821	40.11
295.036	46.58
295.251	54.69
295.467	35.64
295.682	27.44
295.897	-18.93
296.112	-37.73
296.328	-40.81
296.543	-68.9
296.758	-45.27
296.973	-17.82
297.188	28.08
297.404	7.64
297.619	-0.23
297.834	-33.8
298.049	-45.16
298.264	-81.91
298.479	-26.35
298.694	-15.94
298.909	9.62
299.125	19.44
299.34	25.26
299.555	1.02
299.77	0.16
299.985	-36.95
300.2	-84.28
300.415	-96.37
300.63	-65.67
300.845	-56.45
301.06	-47.92
301.275	-27.87
301.49	-13.82
301.704	-16.08
301.919	-29.03
302.134	-33.74
302.349	-23.45
302.564	-86.4
302.779	-101.28
302.994	-95.06
303.209	-58.44
303.423	-27.33
303.638	45.61
303.853	5.56
304.068	-0.59
304.283	5.6
304.497	-11.53
304.712	-28.35
304.927	-10.22
305.142	-19.29
305.356	-17.68
305.571	4.83
305.786	-7.84
306	-26.02
306.215	-8.47
306.43	-24.18
306.644	-48.62
306.859	-4.66
307.074	9.6
307.288	-16.79
307.503	-24.81
307.717	-43.32
307.932	-61.24
308.147	-72.05
308.361	-46.45
308.576	-53.69
308.79	-86.76
309.005	-54.15
309.219	-18.19
309.434	-24.85
309.648	-15.85
309.863	19.32
310.077	14.24
310.292	-10.49
310.506	-8.15
310.72	0.56
310.935	6.4
311.149	0.85
311.364	25.25
311.578	30.29
311.792	13.86
312.007	16.83
312.221	6.25
312.435	4
312.649	-2.61
312.864	33.54
313.078	36.33
313.292	91.25
313.507	59.5
313.721	76.46
313.935	36.37
314.149	20.67
314.363	7.03
314.578	5.78
314.792	15.4
315.006	-4.05
315.22	17.01
315.434	21.15
315.648	29.63
315.862	8.24
316.077	20.11
316.291	-8.82
316.505	6.26
316.719	-4.6
316.933	-13.63
317.147	-17.72
317.361	-60.04
317.575	-71.71
317.789	-101.54
318.003	-121.97
318.217	-95.86
318.431	-12.39
318.645	20.72
318.859	18.38
319.073	36.45
319.287	18.51
319.5	-14.39
319.714	-56.35
319.928	-80.97
320.142	-99.14
320.356	-60.36
320.57	-9.14
320.784	-26.48
320.997	-12.66
321.211	-24.09
321.425	-53.07
321.639	-99.34
321.853	-39.94
322.066	-20.5
322.28	-20.2
322.494	-10.34
322.707	28.61
322.921	18.66
323.135	8.94
323.349	35.19
323.562	20.75
323.776	-11.31
323.989	-15.05
324.203	-28.17
324.417	-54.03
324.63	-80.88
324.844	-70.28
325.057	-64.31
325.271	-37.65
325.485	-1.6
325.698	28.8
325.912	45.58
326.125	26.58
326.339	27.98
326.552	3.14
326.766	7.2
326.979	18.74
327.193	53.5
327.406	34.42
327.619	25.9
327.833	27.57
328.046	2.75
328.26	-48.3
328.473	-21.89
328.686	-39.94
328.9	-26.17
329.113	-10.44
329.326	-21.9
329.54	-0.73
329.753	-2.72
329.966	-44.44
330.179	-20.72
330.393	-6.27
330.606	-5.91
330.819	24.48
331.032	45.03
331.246	36.11
331.459	65.14
331.672	53.47
331.885	26.97
332.098	-2.76
332.311	4.72
332.525	-62.33
332.738	-48.44
332.951	-19.44
333.164	27.18
333.377	14.74
333.59	45.67
333.803	43.79
334.016	43.07
334.229	16.3
334.442	19.2
334.655	21.56
334.868	14.97
335.081	5.49
335.294	-4.57
335.507	-16.84
335.72	-35.47
335.933	-38.62
336.146	-40.36
336.359	-14.04
336.572	-34.61
336.785	-53.21
336.997	-36.22
337.21	-11.17
337.423	-35.76
337.636	-23.24
337.849	5.48
338.062	-3.81
338.274	3.12
338.487	-4.91
338.7	-11.31
338.913	-54.22
339.125	-75.52
339.338	-153.24
339.551	-88.83
339.763	-28.43
339.976	-0.04
340.189	27.73
340.402	33.58
340.614	0.14
340.827	-20.17
341.039	-31.69
341.252	-23.64
341.465	-3.48
341.677	5.66
341.89	-16.82
342.102	1.19
342.315	-20.04
342.527	-67.78
342.74	-50.48
342.952	-16.12
343.165	-12.37
343.377	4.94
343.59	17.26
343.802	19.74
344.015	14.52
344.227	30.68
344.44	23.85
344.652	21.97
344.864	9.63
345.077	30.42
345.289	21.39
345.502	26.44
345.714	16.99
345.926	31.42
346.139	18.1
346.351	26.41
346.563	32.41
346.775	55
346.988	43.7
347.2	32.38
347.412	-13.47
347.624	-43.62
347.837	-81.63
348.049	-59.71
348.261	-10.29
348.473	0.9
348.685	9.61
348.897	12.89
349.11	-19.22
349.322	-67.37
349.534	-31.48
349.746	-30.04
349.958	-37.18
350.17	-40.25
350.382	-0.72
350.594	-17.37
350.806	-10.4
351.018	-2.42
351.23	0.17
351.442	-41.58
351.654	-46.05
351.866	-48.32
352.078	-38.4
352.29	-15.72
352.502	8.95
352.714	20.86
352.926	20.26
353.138	15.27
353.35	7.89
353.561	4.47
353.773	-18.97
353.985	-10.41
354.197	-12.68
354.409	-11.64
354.621	-14.01
354.832	-1.62
355.044	-2.8
355.256	0.67
355.468	11.64
355.679	2.76
355.891	6.49
356.103	-6.64
356.314	-11.68
356.526	-10.18
356.738	16.59
356.949	11.69
357.161	9.57
357.373	22.21
357.584	10.62
357.796	-0.85
358.008	-1.09
358.219	15.53
358.431	12.65
358.642	16.54
358.854	24.64
359.065	17.07
359.277	-7.7
359.488	-28.52
359.7	-59.23
359.911	-93.12
360.123	-62.27
360.334	-78.34
360.546	-101.32
360.757	-83.35
360.969	-53.2
361.18	-41.47
361.391	-13.53
361.603	-11.35
361.814	-7.74
362.025	-16.16
362.237	-22.53
362.448	-2.77
362.659	23.55
362.871	24.82
363.082	18.5
363.293	26.12
363.504	12.16
363.716	-10.92
363.927	-19.19
364.138	-36.17
364.349	-63.3
364.56	-64.98
364.772	-55.33
364.983	-28.89
365.194	-18.52
365.405	3.46
365.616	30.73
365.827	35.89
366.038	9.21
366.25	6.48
366.461	-35.36
366.672	-39.64
366.883	-11.56
367.094	9.31
367.305	-0.26
367.516	10.52
367.727	-13.71
367.938	-41.32
368.149	-44.67
368.36	-27.78
368.571	-21.98
368.781	-28.4
368.992	-30.04
369.203	-55.83
369.414	-80.46
369.625	-83.41
369.836	-66.79
370.047	-94.86
370.258	-77.39
370.468	-68.36
370.679	-78.17
370.89	-82.07
371.101	-49.16
371.312	-43.75
371.522	-26.63
371.733	-35.24
371.944	-26
372.155	-15.76
372.365	-20.21
372.576	-29.34
372.787	-24.59
372.997	-29.72
373.208	-44.1
373.419	-11.01
373.629	-47.93
373.84	-41.07
374.05	-63.11
374.261	-49.89
374.472	-75.29
374.682	-9.97
374.893	-5.53
375.103	43.45
375.314	29.91
375.524	24.09
375.735	24.01
375.945	18.01
376.156	-21.58
376.366	-20.3
376.577	-9.5
376.787	-18.26
376.997	1.11
377.208	7.95
377.418	7.78
377.629	17.01
377.839	7.55
378.049	-3.72
378.26	12.31
378.47	14.78
378.68	-1.95
378.89	-3.38
379.101	-1.96
379.311	-35.14
379.521	-62.95
379.732	-54
379.942	-50.54
380.152	-73.38
380.362	-31.33
380.572	-20.92
380.783	-9.2
380.993	5.51
381.203	23.82
381.413	28.03
381.623	40
381.833	32.84
382.043	13.66
382.253	-4.5
382.463	-8.33
382.674	-22.11
382.884	-40.29
383.094	-32.11
383.304	-16.76
383.514	-10.46
383.724	-0.7
383.934	-3.95
384.144	-9.32
384.353	-18.22
384.563	-16.85
384.773	-14.97
384.983	-20.4
385.193	-1.08
385.403	-2.86
385.613	-10.26
385.823	-17.61
386.033	-8.13
386.242	-19.17
386.452	-14.51
386.662	-23.22
386.872	-11.28
387.082	-12.45
387.291	-17.03
387.501	-19.91
387.711	-5.5
387.921	-12.56
388.13	-11.14
388.34	0.39
388.55	-2.56
388.759	-4.26
388.969	2.72
389.179	-0.16
389.388	-2.84
389.598	3.68
389.807	-6.08
390.017	-11.31
390.227	-8.16
390.436	-12.51
390.646	-12.62
390.855	-8.51
391.065	-6.99
391.274	-6.21
391.484	-4.29
391.693	-1.85
391.903	-1.2
392.112	3.23
392.322	4.03
392.531	7.83
392.74	7
392.95	2.82
393.159	0.63
393.369	0.49
393.578	-1.86
393.787	-1.89
393.997	1.32
394.206	-0.77
394.415	-2.6
394.625	-2.03
394.834	-4.57
395.043	-3.78
395.252	-0.93
395.462	1.9
395.671	2.88
395.88	3.96
396.089	4.53
396.298	1.86
396.508	0.78
396.717	-0.1
396.926	0.48
397.135	-0.11
397.344	0.34
397.553	1.5
397.762	3
397.971	2.53
398.181	2.71
398.39	2.26
398.599	1.46
398.808	0.87
399.017	1.89
399.226	3.18
399.435	4.31
399.644	4.48
399.853	3.16
400.062	2.64
400.27	1.88
400.479	1.66
400.688	0.88
400.897	1.97
401.106	1.87
401.315	1.9
401.524	1.94
401.733	2.46
401.941	2.52
402.15	2.83
402.359	2.62
402.568	3.03
402.777	3.29
402.985	3.1
403.194	2.91
403.403	3.2
403.612	2.59
403.82	2.35
404.029	2.59
404.238	2.48
404.446	2.56
404.655	2.55
404.864	2.53
405.072	2.23
405.281	2.34
405.489	2.03
405.698	2.07
405.906	2.19
406.115	2.26
406.324	2.18
406.532	2.34
406.741	2.67
406.949	2.59
407.158	2.55
407.366	2.71
407.574	2.65
407.783	2.6
407.991	2.45
408.2	2.75
408.408	2.75
408.617	2.63
408.825	2.44
409.033	2.71
409.242	2.61
409.45	2.62
409.658	2.64
409.867	2.76
410.075	2.51
410.283	2.36
410.491	2.16
410.7	2.05
410.908	2
411.116	2.44
411.324	2.48
411.533	2.47
411.741	2.84
411.949	2.91
412.157	2.49
412.365	2.39
412.573	2.45
412.781	2.43
412.99	2.16
413.198	2.34
413.406	2.44
413.614	2.53
413.822	2.28
414.03	2.36
414.238	2.16
414.446	2.2
414.654	1.94
414.862	2.05
415.07	2.2
415.278	2.4
415.486	2.14
415.694	2.34
415.902	2.13
416.109	1.91
416.317	1.75
416.525	1.75
416.733	1.7
416.941	1.88
417.149	1.97
417.357	2.09
417.564	2.25
417.772	2.51
417.98	2.51
418.188	2.46
418.395	2.52
418.603	2.68
418.811	2.26
419.019	2.19
419.226	2.45
419.434	2.49
419.642	2.13
419.849	2.32
420.057	2.41
420.265	2.27
420.472	1.95
420.68	2.11
420.887	2
421.095	1.99
421.302	1.82
421.51	2.11
421.717	2.22
421.925	2.3
422.132	2.17
422.34	2.05
422.547	2.03
422.755	1.78
422.962	1.7
423.17	1.69
423.377	1.91
423.585	1.8
423.792	1.82
423.999	1.81
424.207	1.78
424.414	1.8
424.621	1.86
424.829	2
425.036	2
425.243	2.15
425.451	2.04
425.658	1.85
425.865	2.02
426.072	2.08
426.28	2.36
426.487	2.32
426.694	2.42
426.901	2.04
427.108	2.02
427.315	1.73
427.523	2.01
427.73	1.92
427.937	2.06
428.144	1.81
428.351	1.72
428.558	1.78
428.765	1.75
428.972	1.68
429.179	1.99
429.386	2.39
429.593	2.05
429.8	1.97
430.007	2.13
430.214	2.18
430.421	1.86
430.628	1.74
430.835	1.7
431.042	1.82
431.249	1.79
431.456	1.76
431.662	1.93
431.869	2.06
432.076	1.98
432.283	2.1
432.49	2.06
432.697	2.21
432.903	2.1
433.11	2.02
433.317	1.99
433.524	2.23
433.73	2.1
433.937	2.38
434.144	2.26
434.35	2.16
434.557	1.98
434.764	1.98
434.97	1.84
435.177	2.04
435.384	2.06
435.59	2.14
435.797	2.31
436.003	2.41
436.21	2.39
436.416	2.51
436.623	2.5
436.829	2.62
437.036	2.7
437.242	2.69
437.449	2.53
437.655	2.57
437.862	2.42
438.068	2.25
438.275	2.32
438.481	2.61
438.687	2.54
438.894	2.52
439.1	2.59
439.307	2.76
439.513	2.55
439.719	2.56
439.926	2.66
440.132	2.68
440.338	2.49
440.544	2.68
440.751	2.62
440.957	2.69
441.163	2.54
441.369	2.69
441.575	2.39
441.782	2.43
441.988	2.19
442.194	2.28
442.4	2.21
442.606	2.57
442.812	2.66
443.018	2.9
443.224	2.93
443.431	2.99
443.637	2.7
443.843	2.59
444.049	2.52
444.255	2.43
444.461	2.41
444.667	2.42
444.873	2.54
445.079	2.55
445.284	2.61
445.49	2.42
445.696	2.28
445.902	2.14
446.108	2.07
446.314	2.07
446.52	2.12
446.726	2.4
446.931	2.47
447.137	2.58
447.343	2.62
447.549	2.58
447.755	2.49
447.96	2.53
448.166	2.4
448.372	2.34
448.578	2.38
448.783	2.39
448.989	2.47
449.195	2.61
449.4	2.65
449.606	2.64
449.812	2.52
450.017	2.52
450.223	2.42
450.428	2.4
450.634	2.58
450.84	2.77
451.045	2.69
451.251	2.64
451.456	2.95
451.662	2.96
451.867	2.98
452.073	2.99
452.278	3.15
452.483	3.02
452.689	2.89
452.894	2.88
453.1	2.86
453.305	2.75
453.51	2.74
453.716	2.69
453.921	2.71
454.127	2.68
454.332	2.66
454.537	2.53
454.742	2.59
454.948	2.55
455.153	2.64
455.358	2.75
455.563	3.02
455.769	3.12
455.974	3.08
456.179	2.97
456.384	2.96
456.589	2.75
456.795	2.54
457	2.53
457.205	2.73
457.41	2.69
457.615	2.63
457.82	2.74
458.025	2.75
458.23	2.6
458.435	2.59
458.64	2.57
458.845	2.73
459.05	2.74
459.255	2.71
459.46	2.73
459.665	2.78
459.87	2.73
460.075	2.71
460.28	2.77
460.485	2.85
460.69	2.96
460.895	2.72
461.099	2.66
461.304	2.78
461.509	2.76
461.714	2.64
461.919	2.92
462.123	2.87
462.328	2.94
462.533	2.84
462.738	2.99
462.942	2.85
463.147	2.97
463.352	2.9
463.556	2.95
463.761	2.96
463.966	2.95
464.17	2.88
464.375	2.79
464.58	2.78
464.784	2.63
464.989	2.62
465.193	2.72
465.398	2.77
465.602	2.92
465.807	2.92
466.011	3.03
466.216	3
466.42	3
466.625	3
466.829	3.14
467.034	3.12
467.238	3.29
467.443	3.28
467.647	3.11
467.851	3.18
468.056	3.18
468.26	3.07
468.464	3.09
468.669	3.17
468.873	3.2
469.077	3.26
469.282	3.33
469.486	3.38
469.69	3.47
469.894	3.3
470.099	3.3
470.303	3.37
470.507	3.22
470.711	3.09
470.915	3.11
471.119	3.05
471.324	2.96
471.528	3
471.732	3.06
471.936	3.09
472.14	3.11
472.344	3.22
472.548	3.29
472.752	3.49
472.956	3.73
473.16	3.67
473.364	3.54
473.568	3.52
473.772	3.46
473.976	3.26
474.18	3.19
474.384	3.26
474.588	3.21
474.792	3.07
474.995	3.16
475.199	3.43
475.403	3.47
475.607	3.53
475.811	3.52
476.015	3.62
476.218	3.57
476.422	3.47
476.626	3.56
476.83	3.72
477.033	3.62
477.237	3.48
477.441	3.59
477.644	3.53
477.848	3.46
478.052	3.4
478.255	3.5
478.459	3.51
478.663	3.67
478.866	3.78
479.07	3.8
479.273	3.97
479.477	3.97
479.681	3.93
479.884	3.84
480.088	3.79
480.291	3.69
480.495	3.67
480.698	3.62
480.901	3.71
481.105	3.86
481.308	3.79
481.512	3.83
481.715	3.9
481.919	3.95
482.122	3.87
482.325	3.96
482.529	3.98
482.732	3.97
482.935	3.85
483.138	3.87
483.342	3.91
483.545	3.96
483.748	3.95
483.952	4.02
484.155	4.14
484.358	4.19
484.561	4.13
484.764	4.13
484.967	4.2
485.171	4.24
485.374	4.09
485.577	4.18
485.78	4.16
485.983	4.15
486.186	3.98
486.389	3.98
486.592	3.94
486.795	4.04
486.998	3.96
487.201	4.06
487.404	4.17
487.607	4.28
487.81	4.22
488.013	4.29
488.216	4.25
488.419	4.25
488.622	4.1
488.825	4.07
489.028	4
489.231	3.95
489.433	3.88
489.636	3.85
489.839	3.85
490.042	3.86
490.245	3.91
490.447	3.95
490.65	3.99
490.853	3.96
491.056	4.02
491.258	4.01
491.461	4.01
491.664	4.07
491.866	4.03
492.069	4.1
492.272	4.09
492.474	4.14
492.677	4.2
492.879	4.34
493.082	4.37
493.285	4.53
493.487	4.53
493.69	4.43
493.892	4.3
494.095	4.24
494.297	4.14
494.5	4.19
494.702	4.2
494.905	4.32
495.107	4.29
495.309	4.28
495.512	4.27
495.714	4.37
495.917	4.37
496.119	4.37
496.321	4.46
496.524	4.48
496.726	4.39
496.928	4.36
497.13	4.38
497.333	4.34
497.535	4.31
497.737	4.34
497.939	4.39
498.142	4.41
498.344	4.41
498.546	4.38
498.748	4.45
498.95	4.55
499.152	4.57
499.355	4.58
499.557	4.64
499.759	4.7
499.961	4.62
500.163	4.67
500.365	4.67
500.567	4.75
500.769	4.65
500.971	4.66
501.173	4.59
501.375	4.66
501.577	4.56
501.779	4.59
501.981	4.64
502.183	4.71
502.385	4.67
502.587	4.64
502.788	4.73
502.99	4.71
503.192	4.78
503.394	4.77
503.596	4.84
503.798	4.85
503.999	4.93
504.201	4.89
504.403	4.98
504.605	5.07
504.806	4.99
505.008	4.94
505.21	5.06
505.411	5.03
505.613	5.03
505.815	5.1
506.016	5.2
506.218	5.32
506.42	5.34
506.621	5.39
506.823	5.43
507.024	5.34
507.226	5.25
507.427	5.28
507.629	5.3
507.83	5.37
508.032	5.43
508.233	5.5
508.435	5.56
508.636	5.63
508.838	5.58
509.039	5.55
509.24	5.56
509.442	5.61
509.643	5.54
509.845	5.6
510.046	5.74
510.247	5.73
510.448	5.72
510.65	5.8
510.851	5.91
511.052	5.96
511.254	5.93
511.455	6.03
511.656	6.1
511.857	6.12
512.058	6.07
512.26	6.06
512.461	6.05
512.662	6
512.863	5.88
513.064	5.89
513.265	5.95
513.466	5.95
513.667	5.99
513.868	6.04
514.069	6.1
514.27	6.16
514.471	6.13
514.672	6.15
514.873	6.17
515.074	6.2
515.275	6.1
515.476	6.11
515.677	6.08
515.878	6.2
516.079	6.12
516.28	6.21
516.481	6.36
516.682	6.41
516.882	6.28
517.083	6.27
517.284	6.23
517.485	6.13
517.686	6.1
517.886	6.14
518.087	6.23
518.288	6.28
518.488	6.26
518.689	6.3
518.89	6.27
519.091	6.26
519.291	6.27
519.492	6.33
519.692	6.35
519.893	6.47
520.094	6.45
520.294	6.44
520.495	6.39
520.695	6.41
520.896	6.33
521.096	6.42
521.297	6.46
521.497	6.5
521.698	6.49
521.898	6.51
522.099	6.45
522.299	6.49
522.499	6.47
522.7	6.47
522.9	6.45
523.101	6.53
523.301	6.51
523.501	6.53
523.702	6.54
523.902	6.64
524.102	6.66
524.302	6.68
524.503	6.71
524.703	6.75
524.903	6.75
525.103	6.69
525.304	6.75
525.504	6.86
525.704	6.93
525.904	6.88
526.104	6.88
526.304	6.87
526.504	6.82
526.705	6.79
526.905	6.94
527.105	6.98
527.305	6.92
527.505	6.85
527.705	6.83
527.905	6.77
528.105	6.76
528.305	6.73
528.505	6.77
528.705	6.87
528.905	6.82
529.105	6.84
529.304	6.97
529.504	7.07
529.704	6.97
529.904	7.03
530.104	7.03
530.304	7.09
530.503	7.05
530.703	7.02
530.903	7
531.103	7.06
531.303	6.96
531.502	6.95
531.702	7.08
531.902	7.09
532.101	7.08
532.301	7.1
532.501	7.12
532.7	7.07
532.9	7.05
533.1	7.08
533.299	7.13
533.499	7.17
533.698	7.13
533.898	7.2
534.097	7.19
534.297	7.23
534.496	7.17
534.696	7.24
534.895	7.31
535.095	7.4
535.294	7.39
535.494	7.39
535.693	7.45
535.892	7.45
536.092	7.34
536.291	7.33
536.491	7.4
536.69	7.37
536.889	7.33
537.088	7.37
537.288	7.41
537.487	7.45
537.686	7.46
537.886	7.53
538.085	7.57
538.284	7.73
538.483	7.71
538.682	7.82
538.882	7.81
539.081	7.88
539.28	7.75
539.479	7.71
539.678	7.64
539.877	7.75
540.076	7.71
540.275	7.74
540.474	7.88
540.673	7.9
540.872	7.87
541.071	7.93
541.27	7.97
541.469	8
541.668	8.11
541.867	8.09
542.066	8.13
542.265	8.2
542.464	8.15
542.663	8.18
542.862	8.35
543.06	8.41
543.259	8.45
543.458	8.58
543.657	8.63
543.856	8.63
544.054	8.58
544.253	8.57
544.452	8.52
544.651	8.58
544.849	8.5
545.048	8.62
545.247	8.67
545.445	8.74
545.644	8.72
545.843	8.76
546.041	8.77
546.24	8.84
546.438	8.95
546.637	8.91
546.836	9.04
547.034	9.17
547.233	9.17
547.431	9.16
547.63	9.25
547.828	9.25
548.027	9.22
548.225	9.23
548.423	9.28
548.622	9.4
548.82	9.46
549.019	9.49
549.217	9.62
549.415	9.68
549.614	9.71
549.812	9.72
550.01	9.8
550.209	9.85
550.407	9.91
550.605	9.91
550.803	10.02
551.002	10.06
551.2	10.11
551.398	10.17
551.596	10.35
551.794	10.44
551.993	10.48
552.191	10.56
552.389	10.65
552.587	10.65
552.785	10.66
552.983	10.76
553.181	10.89
553.379	10.97
553.577	10.99
553.775	11.09
553.973	11.17
554.171	11.25
554.369	11.25
554.567	11.37
554.765	11.44
554.963	11.53
555.161	11.52
555.359	11.62
555.557	11.76
555.755	11.87
555.952	11.97
556.15	12.05
556.348	12.09
556.546	12.15
556.744	12.1
556.941	12.1
557.139	12.17
557.337	12.34
557.535	12.36
557.732	12.54
557.93	12.71
558.128	12.85
558.325	12.93
558.523	13
558.721	13.1
558.918	13.09
559.116	13.19
559.313	13.18
559.511	13.31
559.708	13.37
559.906	13.43
560.104	13.44
560.301	13.54
560.498	13.61
560.696	13.62
560.893	13.75
561.091	13.86
561.288	14.03
561.486	14.09
561.683	14.22
561.88	14.41
562.078	14.49
562.275	14.45
562.473	14.66
562.67	14.82
562.867	14.87
563.064	15.01
563.262	15.16
563.459	15.18
563.656	15.29
563.853	15.31
564.051	15.44
564.248	15.48
564.445	15.57
564.642	15.58
564.839	15.72
565.036	15.78
565.234	15.96
565.431	16.07
565.628	16.21
565.825	16.27
566.022	16.41
566.219	16.43
566.416	16.5
566.613	16.57
566.81	16.65
567.007	16.58
567.204	16.62
567.401	16.55
567.598	16.55
567.795	16.57
567.991	16.65
568.188	16.72
568.385	16.98
568.582	17.13
568.779	17.18
568.976	17.27
569.172	17.41
569.369	17.31
569.566	17.32
569.763	17.44
569.96	17.51
570.156	17.49
570.353	17.56
570.55	17.58
570.746	17.56
570.943	17.55
571.14	17.61
571.336	17.66
571.533	17.78
571.729	17.85
571.926	17.94
572.123	18.01
572.319	18.08
572.516	18.07
572.712	18.12
572.909	18.04
573.105	18.05
573.302	18.06
573.498	18.13
573.695	18.15
573.891	18.27
574.087	18.27
574.284	18.3
574.48	18.19
574.677	18.14
574.873	18.08
575.069	18.17
575.266	18.21
575.462	18.27
575.658	18.4
575.854	18.53
576.051	18.49
576.247	18.45
576.443	18.46
576.639	18.34
576.835	18.3
577.032	18.27
577.228	18.38
577.424	18.42
577.62	18.37
577.816	18.37
578.012	18.35
578.208	18.27
578.404	18.26
578.6	18.37
578.796	18.39
578.993	18.41
579.189	18.4
579.384	18.32
579.58	18.2
579.776	18.2
579.972	18.15
580.168	18.08
580.364	18.07
580.56	18.11
580.756	18
580.952	18.01
581.148	18.04
581.343	18.06
581.539	18.15
581.735	18.23
581.931	18.2
582.127	18.2
582.322	18.15
582.518	18.1
582.714	18.06
582.909	18.03
583.105	17.96
583.301	17.93
583.496	17.89
583.692	17.86
583.888	17.82
584.083	17.93
584.279	17.97
584.474	17.96
584.67	17.96
584.866	18.03
585.061	17.87
585.257	17.99
585.452	17.96
585.648	17.89
585.843	17.88
586.039	17.95
586.234	17.82
586.429	17.75
586.625	17.89
586.82	17.8
587.015	17.74
587.211	17.69
587.406	17.77
587.601	17.68
587.797	17.76
587.992	17.72
588.187	17.78
588.383	17.7
588.578	17.71
588.773	17.69
588.968	17.77
589.163	17.78
589.359	17.86
589.554	17.85
589.749	17.82
589.944	17.89
590.139	17.87
590.334	17.89
590.529	17.94
590.724	18.12
590.919	18.19
591.114	18.21
591.309	18.3
591.504	18.4
591.699	18.27
591.894	18.27
592.089	18.24
592.284	18.18
592.479	18.16
592.674	18.18
592.869	18.25
593.064	18.41
593.259	18.57
593.454	18.6
593.648	18.69
593.843	18.65
594.038	18.69
594.233	18.61
594.428	18.63
594.622	18.67
594.817	18.77
595.012	18.82
595.206	18.85
595.401	18.87
595.596	18.9
595.79	18.98
595.985	19.07
596.18	19.18
596.374	19.31
596.569	19.4
596.763	19.46
596.958	19.51
597.153	19.58
597.347	19.6
597.542	19.66
597.736	19.58
597.931	19.7
598.125	19.74
598.319	19.89
598.514	19.94
598.708	20.08
598.903	20.04
599.097	20.05
599.291	20.02
599.486	19.98
599.68	19.98
599.874	20.04
600.069	20.15
600.263	20.14
600.457	20.27
600.651	20.33
600.846	20.37
601.04	20.29
601.234	20.35
601.428	20.38
601.622	20.47
601.817	20.48
602.011	20.63
602.205	20.71
602.399	20.69
602.593	20.65
602.787	20.72
602.981	20.71
603.175	20.69
603.369	20.66
603.563	20.69
603.757	20.68
603.951	20.7
604.145	20.67
604.339	20.77
604.533	20.73
604.727	20.66
604.921	20.59
605.115	20.59
605.309	20.62
605.502	20.61
605.696	20.58
605.89	20.46
606.084	20.36
606.278	20.26
606.471	20.14
606.665	20.03
606.859	20.03
607.053	20.04
607.246	20.02
607.44	20.04
607.634	20.04
607.827	19.99
608.021	19.93
608.214	19.8
608.408	19.75
608.602	19.77
608.795	19.75
608.989	19.73
609.182	19.71
609.376	19.69
609.569	19.62
609.763	19.47
609.956	19.39
610.15	19.24
610.343	19.07
610.537	18.95
610.73	18.95
610.923	18.87
611.117	18.91
611.31	18.92
611.504	18.93
611.697	18.87
611.89	18.82
612.083	18.73
612.277	18.7
612.47	18.56
612.663	18.54
612.856	18.5
613.05	18.49
613.243	18.43
613.436	18.28
613.629	18.13
613.822	18.03
614.015	17.95
614.209	17.73
614.402	17.8
614.595	17.85
614.788	17.77
614.981	17.66
615.174	17.62
615.367	17.43
615.56	17.31
615.753	17.29
615.946	17.18
616.139	17.24
616.332	17.35
616.525	17.3
616.718	17.3
616.911	17.31
617.103	17.27
617.296	17.23
617.489	17.14
617.682	17.05
617.875	16.97
618.067	16.87
618.26	16.76
618.453	16.81
618.646	16.83
618.838	16.82
619.031	16.91
619.224	16.85
619.417	16.77
619.609	16.73
619.802	16.68
619.994	16.63
620.187	16.68
620.38	16.66
620.572	16.55
620.765	16.56
620.957	16.41
621.15	16.24
621.342	16.21
621.535	16.28
621.727	16.25
621.92	16.2
622.112	16.21
622.305	16.25
622.497	16.12
622.69	16.14
622.882	16.16
623.074	16.2
623.267	16.09
623.459	16.06
623.651	15.92
623.844	15.95
624.036	15.9
624.228	15.93
624.42	16
624.613	16.15
624.805	16.1
624.997	16.09
625.189	15.99
625.381	16.04
625.574	15.94
625.766	15.8
625.958	15.84
626.15	15.87
626.342	15.75
626.534	15.69
626.726	15.76
626.918	15.76
627.11	15.71
627.302	15.73
627.494	15.72
627.686	15.65
627.878	15.51
628.07	15.44
628.262	15.4
628.454	15.36
628.646	15.37
628.838	15.44
629.029	15.45
629.221	15.42
629.413	15.37
629.605	15.22
629.797	15.06
629.989	15.08
630.18	15
630.372	15.01
630.564	15.04
630.755	15.15
630.947	15.14
631.139	15.07
631.33	14.95
631.522	15.05
631.714	15.03
631.905	14.98
632.097	14.99
632.289	14.97
632.48	14.86
632.672	14.74
632.863	14.58
633.055	14.58
633.246	14.65
633.438	14.56
633.629	14.52
633.821	14.63
634.012	14.54
634.203	14.39
634.395	14.47
634.586	14.47
634.777	14.33
634.969	14.34
635.16	14.45
635.351	14.39
635.543	14.42
635.734	14.5
635.925	14.47
636.117	14.45
636.308	14.38
636.499	14.26
636.69	14.11
636.881	14.05
637.073	14.05
637.264	14.03
637.455	14.13
637.646	14.23
637.837	14.24
638.028	14.11
638.219	14.17
638.41	14.02
638.601	13.92
638.792	14.02
638.983	13.98
639.174	13.81
639.365	13.9
639.556	13.87
639.747	13.72
639.938	13.8
640.129	13.83
640.32	13.69
640.511	13.74
640.701	13.87
640.892	13.79
641.083	13.87
641.274	13.96
641.465	13.96
641.655	13.77
641.846	13.75
642.037	13.61
642.228	13.58
642.418	13.59
642.609	13.64
642.8	13.69
642.99	13.65
643.181	13.65
643.372	13.61
643.562	13.55
643.753	13.42
643.943	13.39
644.134	13.18
644.324	13.07
644.515	13.07
644.705	13.16
644.896	13.17
645.086	13.27
645.277	13.21
645.467	13.21
645.658	13.11
645.848	13.11
646.038	13.11
646.229	13.16
646.419	13.05
646.61	12.96
646.8	12.97
646.99	12.91
647.18	12.8
647.371	12.89
647.561	12.84
647.751	12.78
647.941	12.67
648.132	12.75
648.322	12.67
648.512	12.77
648.702	12.76
648.892	12.73
649.082	12.68
649.272	12.55
649.462	12.4
649.653	12.35
649.843	12.37
650.033	12.34
650.223	12.42
650.413	12.44
650.603	12.53
650.793	12.54
650.983	12.46
651.172	12.4
651.362	12.44
651.552	12.33
651.742	12.22
651.932	12.31
652.122	12.32
652.312	12.36
652.502	12.3
652.691	12.34
652.881	12.26
653.071	12.29
653.261	12.14
653.45	12.1
653.64	12.11
653.83	11.94
654.019	11.8
654.209	11.74
654.399	11.7
654.588	11.61
654.778	11.62
654.968	11.46
655.157	11.42
655.347	11.27
655.536	11.15
655.726	10.95
655.915	10.85
656.105	10.83
656.294	10.78
656.484	10.55
656.673	10.5
656.863	10.44
657.052	10.22
657.241	10.01
657.431	9.93
657.62	9.71
657.809	9.47
657.999	9.36
658.188	9.33
658.377	9.22
658.567	9.24
658.756	9.23
658.945	9.1
659.134	8.91
659.324	8.82
659.513	8.7
659.702	8.56
659.891	8.49
660.08	8.37
660.269	8.27
660.458	8.1
660.648	8.04
660.837	7.94
661.026	7.9
661.215	7.78
661.404	7.62
661.593	7.51
661.782	7.26
661.971	7.21
662.16	7.13
662.349	7.1
662.538	6.95
662.726	7.03
662.915	6.79
663.104	6.68
663.293	6.68
663.482	6.74
663.671	6.62
663.86	6.58
664.048	6.49
664.237	6.43
664.426	6.21
664.615	6.24
664.803	6.17
664.992	6.22
665.181	6.1
665.369	6.06
665.558	5.9
665.747	5.91
665.935	5.9
666.124	5.95
666.312	6.03
666.501	6.06
666.69	5.97
666.878	5.85
667.067	5.68
667.255	5.7
667.444	5.98
667.632	6.03
667.82	6.18
668.009	6.22
668.197	6.16
668.386	5.94
668.574	6.04
668.762	5.87
668.951	5.84
669.139	5.81
669.327	5.61
669.516	5.64
669.704	5.65
669.892	5.9
670.08	5.93
670.269	5.92
670.457	5.79
670.645	5.72
670.833	5.75
671.021	5.76
671.21	5.86
671.398	6.13
671.586	6.17
671.774	5.98
671.962	6.01
672.15	6.09
672.338	5.87
672.526	6.04
672.714	6.01
672.902	6.08
673.09	6.26
673.278	6.52
673.466	6.58
673.654	6.81
673.842	6.81
674.03	6.83
674.218	6.68
674.405	6.68
674.593	6.64
674.781	6.77
674.969	6.82
675.157	7.13
675.344	7.24
675.532	7.36
675.72	7.53
675.908	7.56
676.095	7.44
676.283	7.55
676.471	7.77
676.658	7.72
676.846	7.67
677.033	7.82
677.221	7.79
677.409	7.65
677.596	7.67
677.784	7.72
677.971	7.76
678.159	7.82
678.346	8.01
678.534	8.11
678.721	8.4
678.909	8.39
679.096	8.43
679.283	8.59
679.471	8.79
679.658	8.82
679.846	9.13
680.033	9.45
680.22	9.48
680.408	9.41
680.595	9.39
680.782	9.24
680.969	9.28
681.157	9.19
681.344	9.39
681.531	9.57
681.718	9.66
681.905	9.69
682.093	9.94
682.28	10.13
682.467	10.31
682.654	10.53
682.841	10.66
683.028	10.72
683.215	10.77
683.402	10.69
683.589	10.8
683.776	10.96
683.963	11.05
684.15	11.24
684.337	11.55
684.524	11.68
684.711	11.86
684.898	11.98
685.085	12.14
685.271	12.52
685.458	12.76
685.645	12.96
685.832	13.31
686.019	13.56
686.205	13.59
686.392	13.84
686.579	14.07
686.766	14.38
686.952	14.66
687.139	15.19
687.326	15.46
687.512	15.78
687.699	16.1
687.886	16.33
688.072	16.26
688.259	16.57
688.445	16.98
688.632	17.13
688.818	17.78
689.005	18.3
689.191	18.77
689.378	19.23
689.564	19.76
689.751	19.87
689.937	20.22
690.124	20.76
690.31	21.02
690.496	21.54
690.683	22.17
690.869	22.76
691.055	23.05
691.242	23.75
691.428	24.27
691.614	24.71
691.8	25.17
691.987	25.66
692.173	26.06
692.359	26.57
692.545	27.09
692.731	27.6
692.918	28.29
693.104	28.66
693.29	29.1
693.476	29.64
693.662	30.32
693.848	30.76
694.034	31.49
694.22	32
694.406	32.49
694.592	33.07
694.778	33.66
694.964	34.01
695.15	34.68
695.336	35.27
695.522	35.99
695.708	36.66
695.894	37.5
696.08	38.24
696.265	38.8
696.451	39.27
696.637	39.9
696.823	40.41
697.009	40.84
697.194	41.39
697.38	41.69
697.566	42.15
697.751	42.86
697.937	43.44
698.123	44.19
698.308	44.95
698.494	45.67
698.68	46
698.865	46.48
699.051	46.98
699.236	47.34
699.422	47.7
699.607	48.16
699.793	48.69
699.978	48.98
700.164	49.66
700.349	50.19
700.535	50.59
700.72	50.81
700.906	51.63
701.091	51.85
701.276	52.15
701.462	53.01
701.647	53.77
701.832	54.06
702.018	54.5
702.203	55
702.388	54.97
702.573	55.24
702.759	55.92
702.944	56.08
703.129	56.25
703.314	56.73
703.499	57.03
703.684	56.86
703.87	58.21
704.055	59.18
704.24	59.59
704.425	60.17
704.61	60.62
704.795	60.27
704.98	60.27
705.165	60.54
705.35	60.8
705.535	61.16
705.72	61.65
705.905	62.18
706.09	63
706.275	63.09
706.459	63.12
706.644	63.26
706.829	63.37
707.014	63
707.199	63.37
707.384	64.14
707.568	64.43
707.753	64.63
707.938	65.02
708.123	65.01
708.307	65.1
708.492	65.55
708.677	65.82
708.861	66.17
709.046	66.34
709.231	66.76
709.415	66.94
709.6	67
709.784	66.86
709.969	67.45
710.153	67.51
710.338	67.45
710.522	67.78
710.707	68.34
710.891	68.29
711.076	68.48
711.26	68.34
711.445	68.38
711.629	68.69
711.813	69.21
711.998	69.52
712.182	69.81
712.366	70.37
712.551	70.73
712.735	70.74
712.919	70.35
713.103	71.15
713.288	70.84
713.472	70.53
713.656	71.29
713.84	72.03
714.024	71.82
714.208	72
714.393	72.48
714.577	72.21
714.761	71.9
714.945	72.21
715.129	72.43
715.313	72.58
715.497	72.16
715.681	72.67
715.865	72.8
716.049	73.02
716.233	72.68
716.417	73.31
716.601	73.12
716.785	73.08
716.968	73.47
717.152	73.87
717.336	74.03
717.52	73.97
717.704	73.86
717.888	73.73
718.071	73.78
718.255	74.09
718.439	74.16
718.622	74.78
718.806	75.13
718.99	74.99
719.174	74.97
719.357	75.43
719.541	75.15
719.724	74.6
719.908	75.38
720.092	75.34
720.275	75.56
720.459	75.78
720.642	76.25
720.826	75.67
721.009	75.81
721.193	75.24
721.376	75.38
721.559	75.69
721.743	75.87
721.926	76.27
722.11	77.01
722.293	76.82
722.476	76.33
722.66	76.45
722.843	76.09
723.026	75.63
723.21	75.71
723.393	77.02
723.576	76.99
723.759	76.99
723.942	77.4
724.126	77.44
724.309	76.5
724.492	76.75
724.675	76.76
724.858	77.14
725.041	77.93
725.224	78.84
725.407	78.88
725.59	79.51
725.774	79.43
725.957	78.07
726.14	77.35
726.322	77.68
726.505	77.57
726.688	77.99
726.871	78.57
727.054	78.94
727.237	78.61
727.42	78.78
727.603	78.93
727.786	79.55
727.968	79.93
728.151	80.57
728.334	80.55
728.517	80.12
728.699	80.6
728.882	80.14
729.065	80.3
729.248	80.78
729.43	80.9
729.613	81.4
729.796	82.01
729.978	81.18
730.161	80.78
730.343	80.92
730.526	81.27
730.708	80.77
730.891	81.65
731.073	81.49
731.256	80.86
731.438	79.95
731.621	80.52
731.803	80.35
731.986	80.99
732.168	81.26
732.35	81.86
732.533	81.13
732.715	81.4
732.898	81.81
733.08	82.37
733.262	82.49
733.444	83.5
733.627	83.64
733.809	83.89
733.991	84.51
734.173	84.1
734.355	83.86
734.538	84.62
734.72	83.95
734.902	83.74
735.084	83.64
735.266	83.86
735.448	83.93
735.63	84.05
735.812	83.94
735.994	85.08
736.176	84.99
736.358	84.1
736.54	85.13
736.722	85.03
736.904	83.76
737.086	83.51
737.268	84.49
737.45	83.7
737.632	83.64
737.814	84.21
737.995	84.58
738.177	83.6
738.359	83.01
738.541	83.24
738.723	83.41
738.904	83.97
739.086	84.89
739.268	84.95
739.449	85.6
739.631	85.63
739.813	84.9
739.994	85.36
740.176	85.84
740.358	85.71
740.539	86.19
740.721	86.32
740.902	86.95
741.084	87.28
741.265	87.04
741.447	87.72
741.628	88.77
741.81	87.04
741.991	88.17
742.172	89.33
742.354	88.57
742.535	88.04
742.717	88.66
742.898	87.88
743.079	87.78
743.261	87.72
743.442	87.08
743.623	88.78
743.804	89.12
743.986	89.49
744.167	88.42
744.348	88.72
744.529	87.26
744.71	86.31
744.891	85.34
745.073	85.52
745.254	85.1
745.435	84.86
745.616	84.25
745.797	84.48
745.978	84.17
746.159	84.7
746.34	83.27
746.521	85.17
746.702	83.89
746.883	84.67
747.064	84.89
747.245	85.93
747.426	86
747.606	86.66
747.787	87.25
747.968	86.52
748.149	86.79
748.33	85.76
748.51	85.83
748.691	84.45
748.872	85.01
749.053	84.63
749.233	84.32
749.414	84.09
749.595	83.85
749.775	82.86
749.956	82.9
750.137	82
750.317	83.51
750.498	85.77
750.678	87.42
750.859	88.05
751.04	88.34
751.22	86.09
751.4	83.8
751.581	82.61
751.761	82.81
751.942	83.36
752.122	82.8
752.303	82.56
752.483	82.14
752.663	81.07
752.844	80.5
753.024	82.97
753.204	85.11
753.385	84.72
753.565	85.3
753.745	86.06
753.925	84.1
754.106	82.77
754.286	83.29
754.466	83.52
754.646	83.85
754.826	84.4
755.006	83.7
755.187	84.6
755.367	84.51
755.547	84.44
755.727	85.68
755.907	86.82
756.087	87.59
756.267	86.4
756.447	86.2
756.627	84.17
756.807	84.61
756.987	83.64
757.167	85.51
757.346	86.6
757.526	86.35
757.706	86.33
757.886	87.37
758.066	86.69
758.246	87.7
758.425	88.49
758.605	88.04
758.785	87.34
758.965	87.14
759.144	84.88
759.324	85.14
759.504	84.42
759.683	83.89
759.863	82.44
760.043	81.38
760.222	80.77
760.402	80.2
760.581	79.56
760.761	81.44
760.94	79.73
761.12	81.27
761.299	83
761.479	82.85
761.658	81.52
761.838	83.18
762.017	83.1
762.197	82.99
762.376	83.89
762.555	85.08
762.735	86.12
762.914	83.46
763.093	82.27
763.273	81.81
763.452	80.57
763.631	79.52
763.81	80.09
763.99	80.27
764.169	80.13
764.348	78.68
764.527	77.83
764.706	79.29
764.885	80.72
765.064	80.63
765.243	81.78
765.423	84.22
765.602	83.84
765.781	81.74
765.96	79.89
766.139	79.94
766.318	79.51
766.497	79.55
766.676	80.79
766.854	82.89
767.033	83.78
767.212	82.64
767.391	82.2
767.57	82.49
767.749	81.99
767.928	82.24
768.106	82.48
768.285	80.84
768.464	80.63
768.643	80.13
768.821	79.65
769	81.94
769.179	83.02
769.357	80.94
769.536	79.9
769.715	80.91
769.893	78.98
770.072	79.36
770.25	81.44
770.429	83.3
770.607	80.52
770.786	80.38
770.964	81.32
771.143	78.94
771.321	79.7
771.5	81.11
771.678	78.51
771.857	75.77
772.035	76.7
772.213	74.39
772.392	73.23
772.57	76.46
772.748	78.18
772.927	77.63
773.105	79.07
773.283	80.7
773.461	79.9
773.64	80.89
773.818	80.6
773.996	81.54
774.174	80.96
774.352	79.12
774.531	75.61
774.709	79.34
774.887	76.4
775.065	75.02
775.243	75.05
775.421	77.38
775.599	76.59
775.777	75.33
775.955	73.1
776.133	72.58
776.311	71.1
776.489	67.21
776.667	69.37
776.844	71.35
777.022	70.43
777.2	70.48
777.378	71.45
777.556	72.28
777.734	74.89
777.911	77.79
778.089	77.92
778.267	78.58
778.445	77.5
778.622	74.58
778.8	73.68
778.978	76.1
779.155	75.45
779.333	75.75
779.511	78.06
779.688	81.38
779.866	75.75
780.043	73.33
780.221	72.79
780.398	70.31
780.576	69.54
780.753	73.71
780.931	74.32
781.108	74.65
781.286	76.55
781.463	72.89
781.64	69.31
781.818	71.65
781.995	71.04
782.172	69.35
782.35	70.68
782.527	76.32
782.704	74.27
782.882	75.08
783.059	74.25
783.236	73.41
783.413	72.09
783.59	71.34
783.768	67.23
783.945	69.66
784.122	72.72
784.299	71.42
784.476	74.04
784.653	75.46
784.83	74.4
785.007	70.18
785.184	68.7
785.361	65.19
785.538	70.19
785.715	72.15
785.892	73.73
786.069	79.35
786.246	82.11
786.423	78.48
786.6	73.83
786.776	78.26
786.953	72.98
787.13	76.29
787.307	76.48
787.484	78.5
787.66	72.89
787.837	74.29
788.014	69.11
788.191	68.42
788.367	65.45
788.544	69.48
788.721	66.14
788.897	69.18
789.074	71.16
789.25	71.11
789.427	71.96
789.603	74.05
789.78	71.75
789.956	67.45
790.133	65.86
790.309	61.85
790.486	65.74
790.662	64.08
790.839	67.28
791.015	70.68
791.192	73.07
791.368	74.83
791.544	73.88
791.721	72.18
791.897	70.66
792.073	67.42
792.249	54.8
792.426	62.54
792.602	65.09
792.778	67.24
792.954	63.2
793.13	72.18
793.307	61.33
793.483	55.07
793.659	50.7
793.835	60.28
794.011	53.79
794.187	57.45
794.363	56.83
794.539	67.99
794.715	59.19
794.891	61.9
795.067	61.61
795.243	68.29
795.419	59.53
795.595	59.62
795.771	59.79
795.947	64.34
796.122	62.37
796.298	65.56
796.474	71.03
796.65	70.92
796.826	67.81
797.001	67.08
797.177	61.6
797.353	63.52
797.529	67.38
797.704	61.57
797.88	60.79
798.056	59.72
798.231	56.12
798.407	53.76
798.582	57.32
798.758	63.16
798.934	71.48
799.109	66.77
799.285	61.12
799.46	64.76
799.636	60.21
799.811	54.76
799.986	63.6
800.162	71
800.337	70.59
800.513	65.74
800.688	68.72
800.863	72.94
801.039	62.13
801.214	58.87
801.389	63.9
801.565	65.48
801.74	50.16
801.915	64.22
802.09	67.51
802.265	69.43
802.441	63.12
802.616	66.23
802.791	60.28
802.966	59.38
803.141	60.25
803.316	62.09
803.491	66.2
803.666	71.7
803.841	70.52
804.016	64.83
804.191	67.64
804.366	62.14
804.541	56.05
804.716	55.51
804.891	50.22
805.066	51.71
805.241	52.01
805.416	50.77
805.591	50.9
805.765	63.29
805.94	61.55
806.115	63.33
806.29	53.82
806.464	60.18
806.639	48.91
806.814	46.32
806.989	40.04
807.163	59.83
807.338	56.46
807.512	58.61
807.687	49.43
807.862	61.86
808.036	64.64
808.211	68.34
808.385	72.04
808.56	88.29
808.734	93.69
808.909	78.61
809.083	72.09
809.258	82.41
809.432	75.86
809.606	61.67
809.781	68.22
809.955	74.45
810.13	72.78
810.304	63.87
810.478	59.37
810.652	62.02
810.827	61.94
811.001	51.29
811.175	56.41
811.349	58.6
811.524	52.61
811.698	39.5
811.872	49.47
812.046	61.79
812.22	69.66
812.394	70.31
812.568	81.23
812.742	75.76
812.916	65.42
813.09	62.83
813.264	57.04
813.438	56.02
813.612	52.61
813.786	44.32
813.96	51.94
814.134	56.76
814.308	65.4
814.482	71.37
814.656	74.01
814.83	75.77
815.003	76
815.177	61.48
815.351	57.31
815.525	64.03
815.698	46.85
815.872	38.38
816.046	27.23
816.219	36.24
816.393	47.44
816.567	56.49
816.74	57.02
816.914	73.88
817.088	75.03
817.261	62.52
817.435	50.4
817.608	59.96
817.782	45
817.955	40.41
818.129	33.22
818.302	47.45
818.475	58.21
818.649	67.19
818.822	51.87
818.996	74.74
819.169	68.04
819.342	43.45
819.516	51.98
819.689	57.78
819.862	39.89
820.035	37.77
820.209	46.96
820.382	42.88
820.555	48.81
820.728	47.3
820.901	39.84
821.075	34.27
821.248	33.73
821.421	24.78
821.594	18.29
821.767	48.76
821.94	70.14
822.113	53.32
822.286	53.77
822.459	65.13
822.632	54.61
822.805	25.69
822.978	22.71
823.151	21.54
823.324	9.8
823.496	-8.82
823.669	-1.22
823.842	4.85
824.015	-9.92
824.188	7.22
824.361	28.58
824.533	25.06
824.706	41.36
824.879	46.36
825.051	47.99
825.224	41.47
825.397	49.66
825.569	31.06
825.742	50.96
825.915	42.1
826.087	59.93
826.26	33.66
826.432	48.15
826.605	46.69
826.777	43.53
826.95	31.06
827.122	33.6
827.295	31.62
827.467	37.44
827.64	19.09
827.812	17.87
827.984	17.46
828.157	6.81
828.329	-39.73
828.501	-23.44
828.674	8.78
828.846	13.04
829.018	36.32
829.19	27.91
829.363	58.45
829.535	46.2
829.707	49.31
829.879	17.25
830.051	18.64
830.223	3.58
830.395	-27.27
830.568	-45.11
830.74	-43.62
830.912	8.11
831.084	3.2
831.256	17.94
831.428	28.85
831.6	27.03
831.772	-23.51
831.943	-59.02
832.115	-29.74
832.287	-15.34
832.459	-2.52
832.631	20.51
832.803	54.91
832.975	59.11
833.146	50.31
833.318	49.22
833.49	42.57
833.662	8.53
833.833	-12.19
834.005	0.13
834.177	1.96
834.348	-6.63
834.52	-14.3
834.692	-22
834.863	-50.11
835.035	-38.32
835.206	-96.86
835.378	-58.16
835.549	-35.81
835.721	-21.6
835.892	-30.24
836.064	3.53
836.235	11.08
836.407	19.92
836.578	-8.55
836.749	-7.48
836.921	-44.2
837.092	-83
837.264	-73.41
837.435	-80.54
837.606	-27.8
837.777	11.77
837.949	30.49
838.12	35.72
838.291	46.75
838.462	33.38
838.633	-2.98
838.805	-6.77
838.976	-15.38
839.147	-51.24
839.318	-51.24
839.489	-87.49
839.66	-56.42
839.831	-11.57
840.002	1
840.173	-15.6
840.344	39.09
840.515	52.04
840.686	-60.43
840.857	-59.17
841.028	-6.8
841.199	-0.86
841.369	-9.33
841.54	-2.83
841.711	26.18
841.882	41.41
842.053	28.49
842.223	1.38
842.394	17.9
842.565	4.04
842.736	19
842.906	20.38
843.077	27.95
843.248	63.2
843.418	74.75
843.589	32.04
843.759	84.76
843.93	102.19
844.101	22.14
844.271	25.45
844.442	44.82
844.612	49.02
844.783	22.53
844.953	-19.75
845.123	-45.89
845.294	-57.38
845.464	-307.31
845.635	-114.76
845.805	47.66
845.975	46.22
846.146	-0.35
846.316	1.07
846.486	21.07
846.656	31.33
846.827	20.43
846.997	20.52
847.167	67.66
847.337	32.94
847.507	-22.39
847.677	-13.43
847.848	36.18
848.018	27.74
848.188	29.19
848.358	26.58
848.528	10.57
848.698	-42.44
848.868	-139.93
849.038	-225.74
849.208	-79.65
849.378	-36.26
849.548	-15.06
849.718	4.62
849.887	-3.08
850.057	-19.83
850.227	-48.23
850.397	-90.47
850.567	-228.19
850.737	-420.22
850.906	-1523.13
851.076	-1165.23
851.246	-435.34
851.415	-36.76
851.585	-31.64
851.755	-48.34
851.924	15.11
852.094	5.54
852.264	-35.95
852.433	-620.67
852.603	-61.76
852.772	68.43
852.942	-4.14
853.111	-19.64
853.281	4.51
853.45	47.63
853.62	-54.33
853.789	-76.24
853.959	-61.35
854.128	-34.73
854.297	-95.57
854.467	-116.56
854.636	-82.11
854.805	-18.72
854.975	-62.28
855.144	-70.82
855.313	129.72
855.482	-168.98
855.652	-168.13
855.821	-90.84
855.99	44.6
856.159	69.12
856.328	71.86
856.497	57.41
856.667	47.74
856.836	26.32
857.005	-19.78
857.174	-50.29
857.343	-74.74
857.512	-59.16
857.681	-69.91
857.85	-157.51
858.019	-102.21
858.188	-96.16
858.356	-97.85
858.525	-186.14
858.694	-162.3
858.863	-295.09
859.032	-193.17
859.201	-277.51
859.369	-198.34
859.538	-70.32
859.707	-69.77
859.876	-97.52
860.044	-73.56
860.213	23.99
860.382	-12.22
860.55	8.48
860.719	51.61
860.888	48.93
861.056	-24.19
861.225	-19.57
861.393	25.38
861.562	0.37
861.73	-90.92
861.899	-122.77
862.067	-1812.07
862.236	-132.35
862.404	-371.9
862.572	-172.3
862.741	-85.05
862.909	-56.98
863.078	-152.14
863.246	-76.54
863.414	-79.02
863.582	-35.69
863.751	-48.6
863.919	-33.84
864.087	34.23
864.255	-11.56
864.424	-287.05
864.592	-58.2
864.76	-93.12
864.928	-154
865.096	5.57
865.264	-32.48
865.432	-832.95
865.6	5.75
865.768	-105.14
865.936	-138.65
866.104	-104.34
866.272	-140.78
866.44	-314.37
866.608	492.66
866.776	169.35
866.944	2108.14
867.112	-375.21
867.28	-205.65
867.448	-113.12
867.615	-58.71
867.783	-23.72
867.951	-45.1
868.119	11.51
868.286	31.92
868.454	-72.15
868.622	-100.36
868.789	-34.02
868.957	-2960.71
869.125	-2875
869.292	-187.35
869.46	-247.66
869.627	-42.99
869.795	-36.68
869.963	-9.45
870.13	0.21
870.298	1.57
870.465	-80.26
870.632	-104.84
870.8	-76.47
870.967	-149.85
871.135	-183.65
871.302	-171.51
871.469	-162.72
871.637	-197.69
871.804	-95.22
871.971	-124.6
872.139	-480.23
872.306	-67.19
872.473	-98.63
872.64	-434.12
872.807	-210.55
872.975	-3.73
873.142	-203.09
873.309	1371.62
873.476	77.15
873.643	176.58
873.81	110
873.977	112.37
874.144	100.73
874.311	30.24
874.478	-71.78
874.645	-102.85
874.812	-0.09
874.979	26.26
875.146	11.81
875.313	-16.83
875.48	56.46
875.647	-2.41
875.813	-49.3
875.98	-26.77
876.147	-57.89
876.314	-139.12
876.481	1185.54
876.647	-1547.75
876.814	632.9
876.981	-114.42
877.147	-29
877.314	25.66
877.481	71.98
877.647	69.51
877.814	54.09
877.98	-0.55
878.147	50.63
878.314	61.05
878.48	-18.25
878.647	-34.4
878.813	37.72
878.979	16.99
879.146	-12.64
879.312	15.98
879.479	-20.02
879.645	-135.43
879.811	-333.28
879.978	-714.89
880.144	-172.89
880.31	-66.54
880.477	-264.59
880.643	-349.82
880.809	-158.03
880.975	-166.31
881.142	-993.18
881.308	-109.08
881.474	-30.56
881.64	-68.83
881.806	-130.28
881.972	-11.47
882.138	2.26
882.304	23.2
882.47	-129.84
882.636	-477.46
882.802	-256.21
882.968	-74.15
883.134	-46.46
883.3	-40.51
883.466	23.13
883.632	72.83
883.798	31.63
883.964	26.26
884.129	46.61
884.295	21.39
884.461	-59.91
884.627	-34.35
884.793	-42.17
884.958	-12.53
885.124	-98.5
885.29	-184.53
885.455	-342.48
885.621	-111.57
885.787	-203.73
885.952	-92.45
886.118	-96.87
886.283	-81.99
886.449	-183.64
886.614	-182.23
886.78	-377.5
886.945	1427.05
887.111	-770.23
887.276	-598.58
887.442	-1105
887.607	-499.76
887.773	-300.16
887.938	-279.77
888.103	-350.31
888.269	-239.61
888.434	-368.38
888.599	-170.73
888.764	-37.01
888.93	-20.4
889.095	-16.63
889.26	-50.98
889.425	-7.19
889.59	-17.06
889.756	-26.88
889.921	-18.42
890.086	22.78
890.251	-24.81
890.416	-169.68
890.581	-1554.03
890.746	255.18
890.911	504.78
891.076	189
891.241	-387.69
891.406	14.94
891.571	-65.52
891.736	-250.69
891.901	-427.88
892.065	554.4
892.23	140.05
892.395	210.27
892.56	345.23
892.725	-333.2
892.889	-952.44
893.054	-143.06
893.219	-52.56
893.384	-21.23
893.548	-109.49
893.713	-132.98
893.878	-113.32
