Data from Ofra_1a_PS_OCX5_Reflection_1.txt Node
Date: Tue Jul 20 10:39:46 EDT 2021
User: Adam
Spectrometer: FLMT01687
Trigger mode: 0
Integration Time (sec): 1.004000E0
Scans to average: 2
Electric dark correction enabled: true
Nonlinearity correction enabled: false
Boxcar width: 2
XAxis mode: Wavelengths
Number of Pixels in Spectrum: 3648
>>>>>Begin Spectral Data<<<<<
179.494	-12.69
179.716	125.19
179.937	-223.08
180.158	1212.1
180.38	-71.23
180.601	-50.48
180.823	-81.35
181.044	-153.06
181.265	-33.17
181.486	110.48
181.708	99.5
181.929	2445.45
182.15	-56.56
182.372	203.45
182.593	359.05
182.814	-220.88
183.035	-17.54
183.257	9.99
183.478	-5.81
183.699	-19.82
183.92	-69.64
184.141	-58.08
184.363	-57.13
184.584	-74.76
184.805	3.66
185.026	38.16
185.247	28.2
185.468	9.34
185.689	21.51
185.91	-29.97
186.132	-16.73
186.353	-20.33
186.574	-14.14
186.795	-4.88
187.016	17.45
187.237	6.66
187.458	19.49
187.679	18.85
187.9	19.79
188.121	17.54
188.342	28.93
188.563	40.05
188.784	57.17
189.005	46.76
189.226	34.62
189.447	35.58
189.667	23.68
189.888	15.83
190.109	-2.71
190.33	14.96
190.551	6.12
190.772	13.62
190.993	2.04
191.214	9.81
191.434	-18.57
191.655	-82.39
191.876	-36.92
192.097	-23.78
192.318	2.8
192.538	-18.11
192.759	-1.72
192.98	-5.94
193.201	-7.84
193.421	-0.44
193.642	13.85
193.863	26.87
194.083	23.21
194.304	29.34
194.525	-13.77
194.745	-18.65
194.966	-12.6
195.187	-10.98
195.407	-45.27
195.628	-20.47
195.848	-29.28
196.069	-64.15
196.29	-61.17
196.51	-44.99
196.731	-53.9
196.951	-47.49
197.172	-26.7
197.392	-39.27
197.613	-2.43
197.833	8.28
198.054	10.21
198.274	13.85
198.495	17.99
198.715	-11.44
198.936	3.35
199.156	4.61
199.377	-5.13
199.597	-0.88
199.817	-3.5
200.038	-43.25
200.258	-11.69
200.479	-13.33
200.699	-4.09
200.919	16.77
201.14	7.87
201.36	0.37
201.58	-14.02
201.801	-43.07
202.021	-50.12
202.241	-26.32
202.461	-34.79
202.682	-2.44
202.902	20.87
203.122	21.27
203.342	14.47
203.563	9.02
203.783	-12.42
204.003	-16.18
204.223	-5.57
204.443	-7.51
204.663	-27.59
204.884	-11.43
205.104	-16.47
205.324	-43.16
205.544	-80.21
205.764	-15.35
205.984	-27.35
206.204	-28.29
206.424	-26.44
206.644	-23.43
206.864	-77.94
207.084	-11.92
207.304	-19.95
207.525	-6.44
207.745	13.18
207.964	34.4
208.184	36.68
208.404	26.18
208.624	38.6
208.844	26.05
209.064	20.58
209.284	5.41
209.504	-2.68
209.724	-26.51
209.944	-25.75
210.164	-30.82
210.384	-50.1
210.604	-76.7
210.823	-86.57
211.043	-42.23
211.263	-69.53
211.483	-19.5
211.703	-7.78
211.922	-2.8
212.142	-31.43
212.362	-19.71
212.582	-26.72
212.801	-53.84
213.021	-27.33
213.241	5.11
213.461	-1.97
213.68	0.11
213.9	0.1
214.12	-17.29
214.339	-30.7
214.559	-22.35
214.779	-35.74
214.998	-17.1
215.218	3.75
215.438	8.63
215.657	18.01
215.877	26.45
216.096	31.02
216.316	31.16
216.535	24.08
216.755	11.59
216.974	-4.63
217.194	-16.96
217.413	-14.84
217.633	-12.48
217.852	-12.37
218.072	-1.6
218.291	4.41
218.511	-6.43
218.73	3.33
218.95	-4.4
219.169	-32.95
219.389	-30.6
219.608	-6.13
219.827	-19.54
220.047	-10.83
220.266	-9.68
220.485	-10.86
220.705	-23.54
220.924	-20.64
221.143	5.86
221.363	25.51
221.582	31.18
221.801	19.18
222.021	6.15
222.24	0.35
222.459	14.7
222.678	8.57
222.897	12.98
223.117	47.46
223.336	45.49
223.555	34.87
223.774	42.37
223.993	35.2
224.213	29.7
224.432	39.28
224.651	20.53
224.87	13.21
225.089	12.01
225.308	8.41
225.527	-10.2
225.746	-3.1
225.965	-17.46
226.184	-30.04
226.404	-39.55
226.623	-27.71
226.842	-20.9
227.061	-13.1
227.28	10.44
227.499	17.85
227.718	16.81
227.936	18.36
228.155	18.91
228.374	8.94
228.593	11.86
228.812	11.53
229.031	10.03
229.25	10.47
229.469	1.21
229.688	-4.25
229.907	2.85
230.125	7.61
230.344	6.55
230.563	11.48
230.782	8.33
231.001	4.86
231.22	-0.44
231.438	15.67
231.657	24.55
231.876	26.06
232.095	38.14
232.313	39.33
232.532	26.83
232.751	24.53
232.969	24.09
233.188	-3.18
233.407	5.46
233.625	9.21
233.844	18.92
234.063	22.95
234.281	33.11
234.5	21.47
234.719	16.37
234.937	-21.61
235.156	-28.72
235.374	-24.09
235.593	-6.9
235.811	14.23
236.03	31.62
236.249	25.95
236.467	25.15
236.686	4.72
236.904	-4.19
237.123	-8.56
237.341	-10.75
237.559	-34.59
237.778	-2.31
237.996	-49.67
238.215	-99.71
238.433	-168.06
238.652	-45.04
238.87	-48.39
239.088	-22.64
239.307	-2.91
239.525	24.59
239.743	-6.75
239.962	-12.77
240.18	-4.22
240.398	-16.32
240.617	-45.52
240.835	-35.46
241.053	-37.73
241.271	-38.35
241.49	-14.31
241.708	-2.59
241.926	-1.57
242.144	4.24
242.363	-10.8
242.581	-51.11
242.799	-80.41
243.017	-75.66
243.235	-48.63
243.453	-70.49
243.672	-34.83
243.89	-26.51
244.108	-5.8
244.326	-7.39
244.544	9.06
244.762	-16.25
244.98	-12.05
245.198	-18.62
245.416	-16.36
245.634	-16.26
245.852	-18.17
246.07	-4.29
246.288	1.58
246.506	-2.43
246.724	-4.34
246.942	5.26
247.16	-4.34
247.378	-18.66
247.596	4.99
247.814	-11.89
248.032	-1.49
248.25	23.16
248.468	18.2
248.685	1.76
248.903	8.16
249.121	16.97
249.339	10.09
249.557	12.26
249.775	16.27
249.992	12.96
250.21	1.98
250.428	13.63
250.646	13.27
250.863	3.61
251.081	11.57
251.299	21.77
251.517	7.76
251.734	-0.77
251.952	11.01
252.17	4.84
252.387	-21.55
252.605	-4.47
252.823	8.48
253.04	17.34
253.258	2.92
253.475	11.18
253.693	-17.46
253.911	-14.97
254.128	-26.32
254.346	-7.9
254.563	10.5
254.781	29.68
254.998	14.43
255.216	-6.88
255.433	-46.57
255.651	-50.22
255.868	-68.26
256.086	-46.01
256.303	-7.38
256.521	12.87
256.738	-5.35
256.956	4.25
257.173	-0.93
257.39	-2.46
257.608	6.81
257.825	2.72
258.043	21.27
258.26	23.53
258.477	9.13
258.695	0.65
258.912	8.3
259.129	-18.87
259.346	-36.93
259.564	1.31
259.781	-17.64
259.998	-2.29
260.216	13.75
260.433	6.92
260.65	-4.75
260.867	1.83
261.084	7.03
261.302	-20.74
261.519	-0.09
261.736	-2.34
261.953	2.34
262.17	17.46
262.387	25.34
262.604	26.4
262.822	36.45
263.039	39.44
263.256	27.66
263.473	31.41
263.69	34.85
263.907	31.6
264.124	25.24
264.341	37.79
264.558	18.44
264.775	19.1
264.992	12.93
265.209	1.64
265.426	-16.36
265.643	-1.1
265.86	-51.19
266.077	-51.63
266.294	-4.33
266.51	10.61
266.727	12.95
266.944	40.34
267.161	50.85
267.378	46.78
267.595	46.11
267.812	31.33
268.028	11.99
268.245	6.57
268.462	-4.6
268.679	-15.13
268.896	14.56
269.112	8.55
269.329	-15.47
269.546	15.58
269.763	14.31
269.979	7.9
270.196	21.92
270.413	32.8
270.629	9.88
270.846	22.14
271.063	27.34
271.279	22.87
271.496	20.36
271.712	39.07
271.929	37.87
272.146	45.44
272.362	39.54
272.579	19.19
272.795	6.49
273.012	-7.56
273.228	7.01
273.445	21.85
273.661	36.91
273.878	26.72
274.094	38.56
274.311	20.78
274.527	3.39
274.744	16.72
274.96	12.22
275.177	1.76
275.393	11.72
275.609	15.55
275.826	3.87
276.042	-2.24
276.259	-0.2
276.475	-17.29
276.691	-30.72
276.908	-23.46
277.124	-6.55
277.34	-7.86
277.557	-22.44
277.773	-10.39
277.989	-24.48
278.205	-21.67
278.422	-20.03
278.638	1.32
278.854	-2.76
279.07	20.97
279.286	16.23
279.503	30.47
279.719	25.29
279.935	29.55
280.151	15.5
280.367	13.38
280.583	-2.13
280.799	0.54
281.016	-24.98
281.232	-11.35
281.448	1.75
281.664	0.59
281.88	2.78
282.096	21.98
282.312	18.43
282.528	22.57
282.744	24.89
282.96	10.15
283.176	-24.01
283.392	-29.49
283.608	-51.05
283.824	-48.27
284.04	-69.6
284.256	-19.35
284.471	-12.91
284.687	-8.18
284.903	4.18
285.119	13.25
285.335	21.81
285.551	15.2
285.767	4.76
285.982	-4.06
286.198	3.83
286.414	-2.43
286.63	3.34
286.846	23.24
287.061	26.39
287.277	13.96
287.493	-4.3
287.709	-10.4
287.924	-7.55
288.14	-12.44
288.356	6.26
288.571	10.35
288.787	7.04
289.003	13.4
289.218	18.57
289.434	-2.99
289.65	16.89
289.865	22.29
290.081	22.85
290.296	21.24
290.512	19.48
290.727	-5.64
290.943	-4.56
291.159	-1.31
291.374	-23.44
291.59	-20.18
291.805	-22.43
292.021	-22.71
292.236	-32.85
292.451	-9.05
292.667	-4.47
292.882	17.57
293.098	11.99
293.313	14.54
293.529	6.04
293.744	8.93
293.959	10.81
294.175	20.48
294.39	-0.66
294.605	21.69
294.821	14.72
295.036	-9.41
295.251	-10.6
295.467	-10.01
295.682	-20.88
295.897	-28.47
296.112	-15.6
296.328	-0.76
296.543	-7.77
296.758	-14.07
296.973	-17.01
297.188	-12.36
297.404	-43.41
297.619	-45.14
297.834	-65.8
298.049	-48.51
298.264	-36.35
298.479	-39.02
298.694	11.15
298.909	20.12
299.125	29.36
299.34	16.68
299.555	32.64
299.77	28.69
299.985	30.11
300.2	39.01
300.415	49.03
300.63	38.46
300.845	30.16
301.06	17.95
301.275	-2.24
301.49	-3.73
301.704	8.17
301.919	-0.86
302.134	0.81
302.349	-4.52
302.564	-4.09
302.779	-29.94
302.994	-10.05
303.209	-11.07
303.423	-6.18
303.638	-10
303.853	-11.87
304.068	-33.72
304.283	-22.9
304.497	-38.75
304.712	-25.26
304.927	-3.95
305.142	2.48
305.356	12.02
305.571	18.3
305.786	29.48
306	22.97
306.215	32.53
306.43	15.22
306.644	15.94
306.859	-11.79
307.074	8.79
307.288	7.08
307.503	16.83
307.717	14.87
307.932	27.79
308.147	15
308.361	14.11
308.576	9.34
308.79	19.86
309.005	-8.32
309.219	18.5
309.434	25.96
309.648	18.82
309.863	10.45
310.077	12.7
310.292	10.62
310.506	-8.23
310.72	-9.35
310.935	18.05
311.149	30.01
311.364	18.72
311.578	31.55
311.792	30.62
312.007	-1.31
312.221	-1.39
312.435	6.28
312.649	1.3
312.864	4.79
313.078	2.24
313.292	4.13
313.507	6.41
313.721	8.24
313.935	15.13
314.149	24.71
314.363	27.55
314.578	26.68
314.792	-7.44
315.006	-20.66
315.22	-13.48
315.434	-11.94
315.648	-21.29
315.862	9.08
316.077	15.53
316.291	14.36
316.505	-12.34
316.719	1.81
316.933	-1.75
317.147	-4.98
317.361	-10.09
317.575	12.65
317.789	17.39
318.003	14.13
318.217	21.04
318.431	22.82
318.645	0.1
318.859	2.35
319.073	7.33
319.287	8.88
319.5	12.85
319.714	18.44
319.928	11.9
320.142	8.82
320.356	5.45
320.57	-23.93
320.784	-20.4
320.997	-48.81
321.211	-28.17
321.425	-37
321.639	9.19
321.853	4.14
322.066	0.8
322.28	-5.72
322.494	1.99
322.707	-15.57
322.921	-5.61
323.135	6.61
323.349	-1.34
323.562	1.12
323.776	3.08
323.989	2.76
324.203	-3.21
324.417	-4.92
324.63	-26.21
324.844	-36.48
325.057	-65.36
325.271	-37.95
325.485	-32.91
325.698	-7.57
325.912	13.06
326.125	18.14
326.339	9.78
326.552	5.74
326.766	-17.31
326.979	-23.83
327.193	-16.65
327.406	-17.66
327.619	-1.22
327.833	6.54
328.046	20.87
328.26	15.55
328.473	19.81
328.686	20.89
328.9	25.49
329.113	8.99
329.326	13.29
329.54	15.93
329.753	17.68
329.966	15.15
330.179	16.68
330.393	8.42
330.606	-0.84
330.819	-16.03
331.032	-13.98
331.246	-5.83
331.459	9.66
331.672	8.35
331.885	0.27
332.098	7.02
332.311	16.87
332.525	5.49
332.738	13.05
332.951	18.74
333.164	16.57
333.377	3.1
333.59	-2.83
333.803	-15.49
334.016	-19.32
334.229	-39.47
334.442	-24.94
334.655	-19.49
334.868	-14.96
335.081	-1.87
335.294	18.58
335.507	11.98
335.72	14.05
335.933	23.48
336.146	16.86
336.359	11.87
336.572	13.48
336.785	15.36
336.997	-8.47
337.21	-12.97
337.423	-23.16
337.636	-17.64
337.849	-9.27
338.062	16.23
338.274	31.63
338.487	11.57
338.7	-8.01
338.913	4.39
339.125	-20.92
339.338	-32.75
339.551	-19.41
339.763	-5.74
339.976	-24.9
340.189	-23.42
340.402	-9.39
340.614	4.47
340.827	2.81
341.039	10.77
341.252	7.18
341.465	4.26
341.677	2.08
341.89	2.89
342.102	16.18
342.315	23.4
342.527	14.17
342.74	7.66
342.952	3.79
343.165	-5.55
343.377	-1.83
343.59	8.45
343.802	2.52
344.015	16.31
344.227	6.44
344.44	-5.53
344.652	-12.92
344.864	-0.19
345.077	0.39
345.289	7.74
345.502	28.59
345.714	38.28
345.926	51.08
346.139	28.87
346.351	32.31
346.563	21.93
346.775	26.7
346.988	18.14
347.2	8.74
347.412	10.19
347.624	4.75
347.837	-3.46
348.049	-10.87
348.261	-9.57
348.473	-5.76
348.685	-5.31
348.897	-6.78
349.11	-2.61
349.322	7.74
349.534	-2.17
349.746	4.28
349.958	-2.36
350.17	-16.94
350.382	-29.14
350.594	-32.15
350.806	-8.92
351.018	10
351.23	18.36
351.442	35.31
351.654	35.6
351.866	17.99
352.078	16.72
352.29	6.57
352.502	-0.84
352.714	-0.46
352.926	6.45
353.138	1.45
353.35	2.73
353.561	7.18
353.773	4.3
353.985	13.77
354.197	10.64
354.409	10.75
354.621	-5.99
354.832	-1.88
355.044	-25.23
355.256	-35.12
355.468	-28.89
355.679	1.53
355.891	9.92
356.103	11.56
356.314	11.13
356.526	-9.1
356.738	-26.92
356.949	-37.81
357.161	-24.75
357.373	-7.9
357.584	9.56
357.796	15.28
358.008	19.57
358.219	18.91
358.431	7.72
358.642	12.17
358.854	12.03
359.065	0.89
359.277	-2.72
359.488	-2.48
359.7	-7.27
359.911	-21.09
360.123	-15.8
360.334	-14.05
360.546	-31.36
360.757	-22.71
360.969	-18.4
361.18	-10.89
361.391	-10.02
361.603	23.56
361.814	31.71
362.025	37.16
362.237	33.32
362.448	33.39
362.659	23.23
362.871	-3.07
363.082	-14.06
363.293	-38.16
363.504	-56.98
363.716	-60.33
363.927	-14.01
364.138	-29.9
364.349	-28.16
364.56	-40
364.772	-10.41
364.983	-18.63
365.194	-10.72
365.405	7.67
365.616	19.59
365.827	2.06
366.038	6.16
366.25	19.43
366.461	13.3
366.672	7.88
366.883	5
367.094	1.27
367.305	-25.72
367.516	-20.94
367.727	-28.16
367.938	-26.75
368.149	-35.96
368.36	-20.84
368.571	-35.26
368.781	-17.23
368.992	-6.74
369.203	0.39
369.414	-5.08
369.625	-4.11
369.836	10.16
370.047	2.48
370.258	1.12
370.468	2.43
370.679	13.03
370.89	-4.2
371.101	7.91
371.312	13.85
371.522	16.02
371.733	-2.29
371.944	-21.48
372.155	-23.96
372.365	-21.81
372.576	-27.17
372.787	-9.03
372.997	7.9
373.208	-2.64
373.419	-18.15
373.629	-9.68
373.84	-15.83
374.05	-9.89
374.261	-10.87
374.472	6.02
374.682	5.54
374.893	-17.73
375.103	-23.28
375.314	-6.36
375.524	-12.55
375.735	-9.49
375.945	14.67
376.156	14.2
376.366	13.59
376.577	6.81
376.787	11.94
376.997	12.8
377.208	14.52
377.418	10.9
377.629	12.27
377.839	14.49
378.049	13.63
378.26	12.88
378.47	14.14
378.68	24.76
378.89	15.64
379.101	12.76
379.311	13.71
379.521	7.42
379.732	-2.5
379.942	2.95
380.152	-3.43
380.362	-9
380.572	3.44
380.783	9.98
380.993	1.89
381.203	0.93
381.413	4.98
381.623	5.7
381.833	2.77
382.043	3.23
382.253	6.75
382.463	19.68
382.674	17.97
382.884	16.59
383.094	15.89
383.304	18.77
383.514	7.44
383.724	2.43
383.934	-4.73
384.144	-2.34
384.353	0.27
384.563	-1.52
384.773	-3.75
384.983	-0.4
385.193	2.99
385.403	2.55
385.613	1.25
385.823	-0.33
386.033	7.57
386.242	5.62
386.452	2.94
386.662	9.66
386.872	17.15
387.082	8.77
387.291	4.87
387.501	3.2
387.711	-0.02
387.921	-0.87
388.13	2.95
388.34	5.13
388.55	1.97
388.759	-1.6
388.969	-4.34
389.179	-2.82
389.388	-4.17
389.598	-6.03
389.807	-7.41
390.017	-6.17
390.227	-9.46
390.436	-5.43
390.646	-2.65
390.855	-1.02
391.065	-2.27
391.274	0.51
391.484	0.02
391.693	1.06
391.903	1.65
392.112	2.39
392.322	1.3
392.531	-1.95
392.74	-3
392.95	-1.01
393.159	-2.47
393.369	-3.03
393.578	-0.9
393.787	-0.9
393.997	-0.39
394.206	0.96
394.415	1.91
394.625	0.42
394.834	0.62
395.043	-1.29
395.252	1.96
395.462	2.63
395.671	4.3
395.88	5.4
396.089	6.14
396.298	5.43
396.508	5.39
396.717	4.61
396.926	3.29
397.135	3.42
397.344	1.96
397.553	1.47
397.762	2.45
397.971	2.49
398.181	2.18
398.39	2.06
398.599	2.13
398.808	1.25
399.017	2.84
399.226	2.99
399.435	3.17
399.644	3.61
399.853	4.23
400.062	3.59
400.27	3.45
400.479	3.48
400.688	3.16
400.897	2.74
401.106	2.89
401.315	2.81
401.524	2.99
401.733	2.91
401.941	3.17
402.15	2.69
402.359	2.99
402.568	2.91
402.777	3.1
402.985	2.72
403.194	2.8
403.403	2.74
403.612	2.69
403.82	2.22
404.029	2.36
404.238	2.45
404.446	2.55
404.655	2.56
404.864	2.82
405.072	2.94
405.281	2.88
405.489	2.6
405.698	2.72
405.906	2.74
406.115	2.55
406.324	2.52
406.532	2.79
406.741	2.68
406.949	2.77
407.158	2.88
407.366	2.9
407.574	2.83
407.783	2.77
407.991	2.69
408.2	2.81
408.408	2.7
408.617	2.58
408.825	2.53
409.033	2.49
409.242	2.6
409.45	2.67
409.658	2.72
409.867	2.8
410.075	2.93
410.283	2.63
410.491	2.48
410.7	2.33
410.908	2.37
411.116	2.42
411.324	2.47
411.533	2.51
411.741	2.6
411.949	2.51
412.157	2.23
412.365	2.2
412.573	2.36
412.781	2.47
412.99	2.36
413.198	2.41
413.406	2.48
413.614	2.43
413.822	2.35
414.03	2.42
414.238	2.55
414.446	2.58
414.654	2.47
414.862	2.43
415.07	2.38
415.278	2.31
415.486	2.11
415.694	2.18
415.902	2.18
416.109	2.23
416.317	2.24
416.525	2.36
416.733	2.34
416.941	2.38
417.149	2.3
417.357	2.28
417.564	2.16
417.772	2.18
417.98	2.05
418.188	2.16
418.395	1.99
418.603	1.99
418.811	1.94
419.019	1.93
419.226	1.9
419.434	1.97
419.642	2.02
419.849	1.95
420.057	2.07
420.265	2
420.472	2.04
420.68	2.07
420.887	2.1
421.095	2.18
421.302	2.29
421.51	2.3
421.717	2.3
421.925	2.35
422.132	2.24
422.34	2.06
422.547	2.06
422.755	2.07
422.962	2.09
423.17	1.95
423.377	1.94
423.585	2.07
423.792	1.98
423.999	1.99
424.207	1.98
424.414	2.05
424.621	2.03
424.829	2.1
425.036	2.08
425.243	2.24
425.451	2.18
425.658	2.13
425.865	2.17
426.072	2.1
426.28	2.06
426.487	2.12
426.694	1.96
426.901	1.96
427.108	1.91
427.315	1.91
427.523	1.92
427.73	2.03
427.937	1.95
428.144	2.11
428.351	2.04
428.558	2.1
428.765	2.12
428.972	2.13
429.179	1.83
429.386	1.93
429.593	1.86
429.8	1.77
430.007	1.9
430.214	2.06
430.421	2.11
430.628	2.18
430.835	2.25
431.042	2.06
431.249	2.12
431.456	1.98
431.662	1.95
431.869	1.98
432.076	2.08
432.283	2.18
432.49	2.25
432.697	2.22
432.903	2.23
433.11	2.22
433.317	2.22
433.524	2.19
433.73	2.17
433.937	2.23
434.144	2.14
434.35	1.98
434.557	2.03
434.764	2.11
434.97	1.94
435.177	2.01
435.384	2.16
435.59	2.21
435.797	2.21
436.003	2.26
436.21	2.33
436.416	2.28
436.623	2.32
436.829	2.22
437.036	2.28
437.242	2.3
437.449	2.34
437.655	2.34
437.862	2.49
438.068	2.42
438.275	2.41
438.481	2.37
438.687	2.27
438.894	2.26
439.1	2.33
439.307	2.4
439.513	2.48
439.719	2.56
439.926	2.56
440.132	2.58
440.338	2.49
440.544	2.47
440.751	2.37
440.957	2.34
441.163	2.27
441.369	2.28
441.575	2.19
441.782	2.33
441.988	2.39
442.194	2.35
442.4	2.31
442.606	2.48
442.812	2.45
443.018	2.43
443.224	2.56
443.431	2.56
443.637	2.5
443.843	2.47
444.049	2.53
444.255	2.56
444.461	2.61
444.667	2.57
444.873	2.55
445.079	2.53
445.284	2.47
445.49	2.53
445.696	2.48
445.902	2.48
446.108	2.49
446.314	2.51
446.52	2.56
446.726	2.58
446.931	2.55
447.137	2.48
447.343	2.54
447.549	2.49
447.755	2.48
447.96	2.53
448.166	2.56
448.372	2.48
448.578	2.45
448.783	2.6
448.989	2.62
449.195	2.6
449.4	2.69
449.606	2.7
449.812	2.59
450.017	2.62
450.223	2.7
450.428	2.63
450.634	2.59
450.84	2.6
451.045	2.66
451.251	2.64
451.456	2.63
451.662	2.7
451.867	2.8
452.073	2.7
452.278	2.72
452.483	2.75
452.689	2.8
452.894	2.83
453.1	2.82
453.305	2.81
453.51	2.88
453.716	2.8
453.921	2.77
454.127	2.74
454.332	2.68
454.537	2.59
454.742	2.58
454.948	2.55
455.153	2.63
455.358	2.69
455.563	2.79
455.769	2.82
455.974	2.81
456.179	2.79
456.384	2.73
456.589	2.6
456.795	2.64
457	2.61
457.205	2.55
457.41	2.64
457.615	2.66
457.82	2.67
458.025	2.66
458.23	2.73
458.435	2.76
458.64	2.78
458.845	2.75
459.05	2.79
459.255	2.76
459.46	2.75
459.665	2.77
459.87	2.74
460.075	2.82
460.28	2.89
460.485	2.88
460.69	2.94
460.895	3.03
461.099	2.85
461.304	2.84
461.509	2.85
461.714	2.87
461.919	2.74
462.123	2.91
462.328	2.75
462.533	2.63
462.738	2.53
462.942	2.55
463.147	2.48
463.352	2.6
463.556	2.7
463.761	2.75
463.966	2.82
464.17	2.83
464.375	2.91
464.58	2.85
464.784	2.85
464.989	2.89
465.193	2.91
465.398	2.87
465.602	3.06
465.807	3.13
466.011	3.09
466.216	3
466.42	2.98
466.625	2.95
466.829	2.96
467.034	3.05
467.238	3.17
467.443	3.19
467.647	3.12
467.851	3.06
468.056	3.02
468.26	3
468.464	3.02
468.669	3.14
468.873	3.14
469.077	3.07
469.282	3.07
469.486	3.06
469.69	3.03
469.894	3.08
470.099	3.15
470.303	3.19
470.507	3.29
470.711	3.23
470.915	3.3
471.119	3.46
471.324	3.5
471.528	3.51
471.732	3.58
471.936	3.6
472.14	3.55
472.344	3.65
472.548	3.62
472.752	3.59
472.956	3.55
473.16	3.46
473.364	3.38
473.568	3.31
473.772	3.29
473.976	3.36
474.18	3.43
474.384	3.43
474.588	3.54
474.792	3.57
474.995	3.55
475.199	3.57
475.403	3.62
475.607	3.59
475.811	3.66
476.015	3.58
476.218	3.55
476.422	3.52
476.626	3.57
476.83	3.65
477.033	3.72
477.237	3.75
477.441	3.81
477.644	3.79
477.848	3.79
478.052	3.81
478.255	3.86
478.459	3.8
478.663	3.9
478.866	3.86
479.07	3.85
479.273	3.87
479.477	3.9
479.681	3.88
479.884	3.91
480.088	3.98
480.291	3.99
480.495	4.08
480.698	4.06
480.901	4.03
481.105	4.03
481.308	4.03
481.512	4.01
481.715	4.12
481.919	4.24
482.122	4.21
482.325	4.27
482.529	4.31
482.732	4.25
482.935	4.2
483.138	4.2
483.342	4.14
483.545	4.22
483.748	4.25
483.952	4.27
484.155	4.38
484.358	4.41
484.561	4.3
484.764	4.19
484.967	4.14
485.171	4.09
485.374	4.09
485.577	4.07
485.78	4.14
485.983	4.13
486.186	4.12
486.389	4.16
486.592	4.19
486.795	4.24
486.998	4.22
487.201	4.23
487.404	4.35
487.607	4.35
487.81	4.29
488.013	4.37
488.216	4.38
488.419	4.18
488.622	4.2
488.825	4.23
489.028	4.24
489.231	4.26
489.433	4.27
489.636	4.22
489.839	4.31
490.042	4.37
490.245	4.33
490.447	4.33
490.65	4.36
490.853	4.23
491.056	4.17
491.258	4.22
491.461	4.26
491.664	4.3
491.866	4.31
492.069	4.29
492.272	4.26
492.474	4.3
492.677	4.3
492.879	4.36
493.082	4.45
493.285	4.51
493.487	4.51
493.69	4.51
493.892	4.47
494.095	4.38
494.297	4.39
494.5	4.42
494.702	4.49
494.905	4.54
495.107	4.63
495.309	4.63
495.512	4.59
495.714	4.59
495.917	4.68
496.119	4.71
496.321	4.7
496.524	4.73
496.726	4.68
496.928	4.63
497.13	4.58
497.333	4.59
497.535	4.66
497.737	4.65
497.939	4.66
498.142	4.66
498.344	4.68
498.546	4.65
498.748	4.75
498.95	4.81
499.152	4.87
499.355	4.85
499.557	4.85
499.759	4.9
499.961	4.87
500.163	4.86
500.365	4.94
500.567	4.9
500.769	4.91
500.971	4.91
501.173	4.94
501.375	4.98
501.577	5.08
501.779	5.02
501.981	5.07
502.183	5.05
502.385	5.05
502.587	5.02
502.788	5.09
502.99	5.09
503.192	5.15
503.394	5.14
503.596	5.15
503.798	5.1
503.999	5.13
504.201	5.15
504.403	5.16
504.605	5.23
504.806	5.34
505.008	5.36
505.21	5.38
505.411	5.41
505.613	5.36
505.815	5.33
506.016	5.35
506.218	5.37
506.42	5.43
506.621	5.5
506.823	5.57
507.024	5.6
507.226	5.65
507.427	5.7
507.629	5.71
507.83	5.75
508.032	5.75
508.233	5.72
508.435	5.66
508.636	5.65
508.838	5.63
509.039	5.66
509.24	5.69
509.442	5.7
509.643	5.75
509.845	5.74
510.046	5.79
510.247	5.84
510.448	5.9
510.65	5.96
510.851	6.04
511.052	6.08
511.254	6.13
511.455	6.08
511.656	6.03
511.857	6.02
512.058	5.98
512.26	5.93
512.461	6.02
512.662	6.08
512.863	6.03
513.064	6.05
513.265	6.07
513.466	6.1
513.667	6.14
513.868	6.19
514.069	6.15
514.27	6.17
514.471	6.13
514.672	6.16
514.873	6.15
515.074	6.26
515.275	6.25
515.476	6.3
515.677	6.29
515.878	6.41
516.079	6.37
516.28	6.43
516.481	6.44
516.682	6.46
516.882	6.4
517.083	6.4
517.284	6.41
517.485	6.43
517.686	6.45
517.886	6.49
518.087	6.48
518.288	6.5
518.488	6.49
518.689	6.46
518.89	6.47
519.091	6.56
519.291	6.52
519.492	6.54
519.692	6.57
519.893	6.63
520.094	6.6
520.294	6.66
520.495	6.65
520.695	6.63
520.896	6.56
521.096	6.6
521.297	6.62
521.497	6.71
521.698	6.79
521.898	6.78
522.099	6.78
522.299	6.78
522.499	6.74
522.7	6.72
522.9	6.81
523.101	6.82
523.301	6.83
523.501	6.87
523.702	6.91
523.902	6.93
524.102	7.03
524.302	7.08
524.503	7.08
524.703	7.05
524.903	7.01
525.103	6.99
525.304	6.96
525.504	6.98
525.704	7.02
525.904	7.05
526.104	7
526.304	7.06
526.504	7.11
526.705	7.14
526.905	7.17
527.105	7.18
527.305	7.19
527.505	7.16
527.705	7.17
527.905	7.23
528.105	7.28
528.305	7.27
528.505	7.31
528.705	7.36
528.905	7.37
529.105	7.34
529.304	7.35
529.504	7.37
529.704	7.34
529.904	7.35
530.104	7.41
530.304	7.4
530.503	7.4
530.703	7.37
530.903	7.36
531.103	7.41
531.303	7.45
531.502	7.5
531.702	7.53
531.902	7.57
532.101	7.52
532.301	7.58
532.501	7.63
532.7	7.67
532.9	7.73
533.1	7.78
533.299	7.76
533.499	7.69
533.698	7.78
533.898	7.75
534.097	7.77
534.297	7.8
534.496	7.88
534.696	7.87
534.895	7.86
535.095	7.9
535.294	7.97
535.494	7.98
535.693	8.02
535.892	8.06
536.092	8.08
536.291	8.09
536.491	8.14
536.69	8.15
536.889	8.2
537.088	8.25
537.288	8.19
537.487	8.22
537.686	8.2
537.886	8.25
538.085	8.23
538.284	8.34
538.483	8.31
538.682	8.38
538.882	8.42
539.081	8.51
539.28	8.51
539.479	8.58
539.678	8.57
539.877	8.56
540.076	8.59
540.275	8.67
540.474	8.7
540.673	8.78
540.872	8.85
541.071	8.84
541.27	8.88
541.469	8.92
541.668	8.99
541.867	9.03
542.066	9.07
542.265	9.11
542.464	9.11
542.663	9.12
542.862	9.19
543.06	9.27
543.259	9.36
543.458	9.47
543.657	9.53
543.856	9.55
544.054	9.59
544.253	9.58
544.452	9.59
544.651	9.65
544.849	9.7
545.048	9.77
545.247	9.86
545.445	9.88
545.644	9.88
545.843	9.93
546.041	9.92
546.24	9.87
546.438	9.92
546.637	10
546.836	10.02
547.034	10.08
547.233	10.22
547.431	10.31
547.63	10.38
547.828	10.44
548.027	10.54
548.225	10.6
548.423	10.64
548.622	10.68
548.82	10.72
549.019	10.76
549.217	10.8
549.415	10.87
549.614	10.99
549.812	11.08
550.01	11.13
550.209	11.2
550.407	11.29
550.605	11.24
550.803	11.28
551.002	11.42
551.2	11.46
551.398	11.58
551.596	11.74
551.794	11.85
551.993	11.92
552.191	11.98
552.389	12.01
552.587	12.05
552.785	12.12
552.983	12.22
553.181	12.33
553.379	12.37
553.577	12.45
553.775	12.55
553.973	12.6
554.171	12.71
554.369	12.85
554.567	12.97
554.765	13.04
554.963	13.07
555.161	13.06
555.359	13.13
555.557	13.15
555.755	13.25
555.952	13.32
556.15	13.46
556.348	13.56
556.546	13.72
556.744	13.78
556.941	13.86
557.139	13.96
557.337	14.09
557.535	14.16
557.732	14.28
557.93	14.47
558.128	14.56
558.325	14.68
558.523	14.83
558.721	14.91
558.918	15.02
559.116	15.2
559.313	15.31
559.511	15.37
559.708	15.51
559.906	15.66
560.104	15.75
560.301	15.82
560.498	15.92
560.696	16.01
560.893	16.04
561.091	16.08
561.288	16.18
561.486	16.24
561.683	16.33
561.88	16.46
562.078	16.57
562.275	16.73
562.473	16.87
562.67	16.94
562.867	16.95
563.064	17.06
563.262	17.08
563.459	17.19
563.656	17.32
563.853	17.47
564.051	17.63
564.248	17.73
564.445	17.79
564.642	17.9
564.839	18.01
565.036	18.09
565.234	18.23
565.431	18.38
565.628	18.51
565.825	18.61
566.022	18.71
566.219	18.76
566.416	18.84
566.613	18.97
566.81	19.04
567.007	19.07
567.204	19.17
567.401	19.26
567.598	19.18
567.795	19.28
567.991	19.37
568.188	19.46
568.385	19.51
568.582	19.74
568.779	19.85
568.976	19.93
569.172	20.06
569.369	20.18
569.566	20.15
569.763	20.09
569.96	20.15
570.156	20.18
570.353	20.2
570.55	20.28
570.746	20.34
570.943	20.41
571.14	20.48
571.336	20.55
571.533	20.61
571.729	20.73
571.926	20.86
572.123	20.85
572.319	20.86
572.516	20.89
572.712	20.89
572.909	20.79
573.105	20.9
573.302	20.93
573.498	20.91
573.695	20.98
573.891	21.03
574.087	20.94
574.284	20.99
574.48	21.03
574.677	21.05
574.873	21.14
575.069	21.3
575.266	21.34
575.462	21.39
575.658	21.51
575.854	21.55
576.051	21.53
576.247	21.5
576.443	21.5
576.639	21.45
576.835	21.37
577.032	21.33
577.228	21.41
577.424	21.48
577.62	21.49
577.816	21.56
578.012	21.57
578.208	21.57
578.404	21.57
578.6	21.62
578.796	21.68
578.993	21.72
579.189	21.76
579.384	21.72
579.58	21.68
579.776	21.6
579.972	21.58
580.168	21.64
580.364	21.72
580.56	21.61
580.756	21.6
580.952	21.62
581.148	21.58
581.343	21.5
581.539	21.63
581.735	21.61
581.931	21.56
582.127	21.46
582.322	21.53
582.518	21.51
582.714	21.5
582.909	21.51
583.105	21.46
583.301	21.41
583.496	21.37
583.692	21.23
583.888	21.25
584.083	21.35
584.279	21.26
584.474	21.18
584.67	21.4
584.866	21.39
585.061	21.39
585.257	21.49
585.452	21.55
585.648	21.37
585.843	21.33
586.039	21.24
586.234	21.16
586.429	21.18
586.625	21.32
586.82	21.33
587.015	21.38
587.211	21.48
587.406	21.51
587.601	21.47
587.797	21.44
587.992	21.45
588.187	21.42
588.383	21.4
588.578	21.47
588.773	21.53
588.968	21.6
589.163	21.65
589.359	21.62
589.554	21.62
589.749	21.55
589.944	21.59
590.139	21.61
590.334	21.71
590.529	21.66
590.724	21.74
590.919	21.74
591.114	21.79
591.309	21.83
591.504	22.01
591.699	22.06
591.894	22.01
592.089	22.03
592.284	21.98
592.479	21.9
592.674	21.94
592.869	21.97
593.064	22.05
593.259	22.17
593.454	22.17
593.648	22.22
593.843	22.3
594.038	22.33
594.233	22.32
594.428	22.45
594.622	22.6
594.817	22.75
595.012	22.8
595.206	22.88
595.401	23.01
595.596	23
595.79	22.98
595.985	23.04
596.18	23.12
596.374	23.23
596.569	23.35
596.763	23.48
596.958	23.61
597.153	23.64
597.347	23.59
597.542	23.64
597.736	23.68
597.931	23.66
598.125	23.82
598.319	23.96
598.514	23.99
598.708	24.11
598.903	24.25
599.097	24.29
599.291	24.29
599.486	24.37
599.68	24.37
599.874	24.44
600.069	24.56
600.263	24.69
600.457	24.71
600.651	24.81
600.846	24.84
601.04	24.82
601.234	24.84
601.428	24.95
601.622	25
601.817	24.99
602.011	25.04
602.205	25.04
602.399	25.03
602.593	25.12
602.787	25.1
602.981	25.05
603.175	25.14
603.369	25.14
603.563	25.11
603.757	25.15
603.951	25.18
604.145	25.13
604.339	25.17
604.533	25.06
604.727	25.06
604.921	25.01
605.115	25
605.309	24.94
605.502	24.97
605.696	24.96
605.89	25
606.084	25
606.278	24.99
606.471	24.95
606.665	24.84
606.859	24.76
607.053	24.59
607.246	24.55
607.44	24.43
607.634	24.41
607.827	24.31
608.021	24.23
608.214	24.19
608.408	24.14
608.602	24.11
608.795	24.15
608.989	24.21
609.182	24.18
609.376	24.24
609.569	24.11
609.763	24
609.956	23.99
610.15	23.8
610.343	23.77
610.537	23.75
610.73	23.59
610.923	23.43
611.117	23.43
611.31	23.21
611.504	23.21
611.697	23.25
611.89	23.15
612.083	22.98
612.277	23.03
612.47	22.78
612.663	22.72
612.856	22.74
613.05	22.73
613.243	22.5
613.436	22.46
613.629	22.28
613.822	22.21
614.015	22.14
614.209	22.18
614.402	22.19
614.595	22.27
614.788	22.21
614.981	22.16
615.174	22.03
615.367	21.94
615.56	21.81
615.753	21.73
615.946	21.6
616.139	21.65
616.332	21.63
616.525	21.47
616.718	21.39
616.911	21.43
617.103	21.36
617.296	21.27
617.489	21.21
617.682	21.21
617.875	21.12
618.067	20.91
618.26	20.85
618.453	20.89
618.646	20.83
618.838	20.75
619.031	20.82
619.224	20.78
619.417	20.73
619.609	20.72
619.802	20.78
619.994	20.71
620.187	20.63
620.38	20.54
620.572	20.45
620.765	20.44
620.957	20.4
621.15	20.32
621.342	20.38
621.535	20.29
621.727	20.14
621.92	20.16
622.112	20.3
622.305	20.22
622.497	20.28
622.69	20.28
622.882	20.28
623.074	20.32
623.267	20.33
623.459	20.24
623.651	20.2
623.844	20.19
624.036	20.09
624.228	20.04
624.42	20.06
624.613	20.03
624.805	20.01
624.997	19.94
625.189	19.98
625.381	19.94
625.574	19.87
625.766	19.77
625.958	19.81
626.15	19.67
626.342	19.68
626.534	19.75
626.726	19.73
626.918	19.65
627.11	19.66
627.302	19.57
627.494	19.54
627.686	19.47
627.878	19.46
628.07	19.51
628.262	19.49
628.454	19.43
628.646	19.47
628.838	19.48
629.029	19.35
629.221	19.34
629.413	19.3
629.605	19.27
629.797	19.22
629.989	19.24
630.18	19.24
630.372	19.28
630.564	19.23
630.755	19.17
630.947	19.08
631.139	18.96
631.33	18.79
631.522	18.75
631.714	18.65
631.905	18.64
632.097	18.63
632.289	18.65
632.48	18.62
632.672	18.7
632.863	18.7
633.055	18.7
633.246	18.69
633.438	18.67
633.629	18.67
633.821	18.61
634.012	18.61
634.203	18.58
634.395	18.59
634.586	18.51
634.777	18.5
634.969	18.49
635.16	18.41
635.351	18.4
635.543	18.32
635.734	18.34
635.925	18.31
636.117	18.4
636.308	18.4
636.499	18.43
636.69	18.36
636.881	18.34
637.073	18.34
637.264	18.27
637.455	18.28
637.646	18.35
637.837	18.28
638.028	18.2
638.219	18.27
638.41	18.26
638.601	18.22
638.792	18.31
638.983	18.35
639.174	18.23
639.365	18.21
639.556	18.16
639.747	18.11
639.938	18.16
640.129	18.18
640.32	18.2
640.511	18.19
640.701	18.2
640.892	18.1
641.083	18.06
641.274	17.93
641.465	17.84
641.655	17.8
641.846	17.74
642.037	17.66
642.228	17.69
642.418	17.63
642.609	17.63
642.8	17.57
642.99	17.58
643.181	17.49
643.372	17.59
643.562	17.52
643.753	17.52
643.943	17.41
644.134	17.36
644.324	17.29
644.515	17.32
644.705	17.28
644.896	17.34
645.086	17.47
645.277	17.42
645.467	17.33
645.658	17.26
645.848	17.31
646.038	17.17
646.229	17.16
646.419	17.05
646.61	17.17
646.8	17.12
646.99	17.18
647.18	17.13
647.371	17.19
647.561	17.07
647.751	16.98
647.941	16.93
648.132	16.94
648.322	16.9
648.512	16.91
648.702	16.96
648.892	16.98
649.082	16.91
649.272	16.94
649.462	16.9
649.653	16.82
649.843	16.74
650.033	16.81
650.223	16.75
650.413	16.76
650.603	16.85
650.793	16.82
650.983	16.78
651.172	16.77
651.362	16.67
651.552	16.51
651.742	16.42
651.932	16.4
652.122	16.37
652.312	16.28
652.502	16.27
652.691	16.24
652.881	16.1
653.071	15.97
653.261	15.97
653.45	15.88
653.64	15.79
653.83	15.78
654.019	15.72
654.209	15.55
654.399	15.4
654.588	15.29
654.778	15.03
654.968	14.98
655.157	14.85
655.347	14.7
655.536	14.57
655.726	14.45
655.915	14.25
656.105	14.13
656.294	14.04
656.484	13.84
656.673	13.74
656.863	13.66
657.052	13.51
657.241	13.37
657.431	13.27
657.62	13.15
657.809	12.85
657.999	12.69
658.188	12.57
658.377	12.4
658.567	12.22
658.756	12.1
658.945	11.99
659.134	11.72
659.324	11.55
659.513	11.38
659.702	11.2
659.891	11.12
660.08	10.98
660.269	10.74
660.458	10.59
660.648	10.47
660.837	10.24
661.026	10
661.215	9.92
661.404	9.78
661.593	9.71
661.782	9.55
661.971	9.42
662.16	9.26
662.349	9.05
662.538	8.84
662.726	8.7
662.915	8.68
663.104	8.61
663.293	8.65
663.482	8.57
663.671	8.49
663.86	8.37
664.048	8.32
664.237	8.15
664.426	8.16
664.615	7.99
664.803	7.9
664.992	7.71
665.181	7.67
665.369	7.42
665.558	7.38
665.747	7.29
665.935	7.35
666.124	7.28
666.312	7.33
666.501	7.32
666.69	7.43
666.878	7.3
667.067	7.16
667.255	7.02
667.444	6.98
667.632	6.8
667.82	6.76
668.009	6.77
668.197	6.82
668.386	6.7
668.574	6.67
668.762	6.66
668.951	6.66
669.139	6.67
669.327	6.8
669.516	6.86
669.704	6.81
669.892	6.86
670.08	6.81
670.269	6.74
670.457	6.73
670.645	6.74
670.833	6.77
671.021	6.95
671.21	7.03
671.398	7.06
671.586	7.18
671.774	7.27
671.962	7.21
672.15	7.31
672.338	7.39
672.526	7.32
672.714	7.32
672.902	7.27
673.09	7.27
673.278	7.24
673.466	7.39
673.654	7.31
673.842	7.53
674.03	7.64
674.218	7.8
674.405	7.79
674.593	8.05
674.781	8
674.969	8.17
675.157	8.19
675.344	8.36
675.532	8.28
675.72	8.42
675.908	8.37
676.095	8.4
676.283	8.49
676.471	8.62
676.658	8.71
676.846	8.75
677.033	8.82
677.221	8.86
677.409	8.94
677.596	8.97
677.784	9.11
677.971	9.18
678.159	9.24
678.346	9.31
678.534	9.43
678.721	9.54
678.909	9.8
679.096	9.94
679.283	10.02
679.471	10.04
679.658	10.1
679.846	10.05
680.033	10.26
680.22	10.54
680.408	10.65
680.595	10.78
680.782	11.07
680.969	11.23
681.157	11.33
681.344	11.44
681.531	11.59
681.718	11.62
681.905	11.65
682.093	11.77
682.28	12.05
682.467	12.27
682.654	12.45
682.841	12.62
683.028	12.83
683.215	12.98
683.402	12.98
683.589	13.25
683.776	13.46
683.963	13.7
684.15	14.02
684.337	14.42
684.524	14.73
684.711	15.05
684.898	15.21
685.085	15.37
685.271	15.6
685.458	15.78
685.645	16.04
685.832	16.33
686.019	16.76
686.205	17.02
686.392	17.51
686.579	17.92
686.766	18.3
686.952	18.74
687.139	19.05
687.326	19.32
687.512	19.59
687.699	20.14
687.886	20.33
688.072	20.91
688.259	21.33
688.445	21.86
688.632	22.29
688.818	22.84
689.005	23.39
689.191	23.89
689.378	24.34
689.564	24.87
689.751	25.57
689.937	26.06
690.124	26.74
690.31	27.15
690.496	27.69
690.683	28.25
690.869	28.73
691.055	29.09
691.242	29.81
691.428	30.39
691.614	31.01
691.8	31.93
691.987	32.84
692.173	33.72
692.359	34.3
692.545	35.01
692.731	35.53
692.918	35.99
693.104	36.65
693.29	37.4
693.476	38.01
693.662	38.71
693.848	39.71
694.034	40.21
694.22	40.98
694.406	41.62
694.592	42.47
694.778	42.79
694.964	43.54
695.15	44.28
695.336	44.83
695.522	45.25
695.708	46.3
695.894	46.85
696.08	47.39
696.265	48.34
696.451	48.86
696.637	49.31
696.823	50.22
697.009	50.85
697.194	51.43
697.38	52.33
697.566	52.82
697.751	53.55
697.937	54.44
698.123	54.77
698.308	55.06
698.494	55.9
698.68	56.4
698.865	56.71
699.051	57.3
699.236	58.17
699.422	58.47
699.607	58.77
699.793	59.57
699.978	60.28
700.164	60.83
700.349	61.41
700.535	61.98
700.72	62.14
700.906	62.35
701.091	62.63
701.276	63.13
701.462	63.6
701.647	64.01
701.832	64.92
702.018	65.41
702.203	65.77
702.388	65.97
702.573	66.32
702.759	66.64
702.944	66.91
703.129	67.3
703.314	67.54
703.499	68.12
703.684	68.39
703.87	69.01
704.055	69.52
704.24	70.26
704.425	70.65
704.61	71.04
704.795	71.57
704.98	71.64
705.165	71.96
705.35	72.47
705.535	72.64
705.72	72.6
705.905	73.02
706.09	73.44
706.275	73.3
706.459	73.64
706.644	73.96
706.829	74.31
707.014	74.53
707.199	75.06
707.384	75.29
707.568	75.38
707.753	75.95
707.938	76.27
708.123	76.42
708.307	76.52
708.492	76.93
708.677	76.63
708.861	76.75
709.046	76.96
709.231	77.23
709.415	77.31
709.6	77.86
709.784	78.18
709.969	78.35
710.153	78.64
710.338	79.25
710.522	79.4
710.707	79.48
710.891	79.79
711.076	79.85
711.26	80.04
711.445	79.66
711.629	79.61
711.813	79.61
711.998	79.96
712.182	79.75
712.366	80.94
712.551	81.4
712.735	81.84
712.919	82.08
713.103	82.5
713.288	82.28
713.472	82.57
713.656	82.43
713.84	82.7
714.024	83.07
714.208	82.83
714.393	83.17
714.577	83.72
714.761	83.79
714.945	83.31
715.129	83.89
715.313	83.61
715.497	83.4
715.681	83.26
715.865	83.64
716.049	83.83
716.233	83.69
716.417	83.74
716.601	84.23
716.785	84.35
716.968	84.25
717.152	84.63
717.336	85.04
717.52	85.14
717.704	85.3
717.888	85.68
718.071	85.85
718.255	85.94
718.439	85.67
718.622	85.57
718.806	85.09
718.99	84.92
719.174	85.58
719.357	86.37
719.541	87.03
719.724	87.34
719.908	87.93
720.092	87.26
720.275	86.82
720.459	86.69
720.642	87.05
720.826	87.02
721.009	87.2
721.193	86.84
721.376	86.93
721.559	87.01
721.743	87.5
721.926	87.96
722.11	88.61
722.293	89.03
722.476	89.05
722.66	89.5
722.843	89.43
723.026	89.8
723.21	89.6
723.393	89.67
723.576	89.03
723.759	88.99
723.942	89.27
724.126	89.5
724.309	89.5
724.492	89.76
724.675	90.02
724.858	89.89
725.041	90.16
725.224	90.77
725.407	90.51
725.59	90.58
725.774	90.28
725.957	90.44
726.14	90.24
726.322	91.01
726.505	90.62
726.688	90.87
726.871	90.43
727.054	90.92
727.237	90.69
727.42	90.57
727.603	90.8
727.786	90.96
727.968	90.51
728.151	90.19
728.334	90.95
728.517	90.91
728.699	91.27
728.882	91.54
729.065	92.16
729.248	92.16
729.43	92.57
729.613	92.39
729.796	92.45
729.978	92.28
730.161	92.45
730.343	92.83
730.526	93.28
730.708	93.03
730.891	93.45
731.073	93.87
731.256	94.13
731.438	94.65
731.621	95.23
731.803	94.5
731.986	94.59
732.168	94.26
732.35	93.98
732.533	93.64
732.715	94.73
732.898	94.47
733.08	94.38
733.262	94.46
733.444	95.12
733.627	95.26
733.809	95.66
733.991	96.01
734.173	95.95
734.355	95.7
734.538	95.33
734.72	95.69
734.902	96.02
735.084	95.61
735.266	96.78
735.448	97.23
735.63	96.88
735.812	97.15
735.994	98.03
736.176	97.28
736.358	97.52
736.54	97.79
736.722	96.81
736.904	96.92
737.086	96.4
737.268	96.16
737.45	96.06
737.632	97.21
737.814	96.8
737.995	97.55
738.177	98.04
738.359	98.58
738.541	97.77
738.723	98.06
738.904	97.64
739.086	97.15
739.268	96
739.449	96.28
739.631	95.75
739.813	95.95
739.994	95.41
740.176	96.32
740.358	96.51
740.539	96.73
740.721	97.36
740.902	97.73
741.084	98.42
741.265	98.74
741.447	99.46
741.628	98.71
741.81	99.47
741.991	98.91
742.172	98.27
742.354	97.38
742.535	98.21
742.717	96.94
742.898	96.66
743.079	97.35
743.261	98.31
743.442	97.06
743.623	97.75
743.804	98.68
743.986	98.5
744.167	97.76
744.348	97.97
744.529	97.84
744.71	96.67
744.891	96.03
745.073	97.42
745.254	97.96
745.435	98.94
745.616	99.7
745.797	99.54
745.978	98.04
746.159	97.95
746.34	97.85
746.521	96.99
746.702	97.89
746.883	97.99
747.064	97.91
747.245	97.04
747.426	97.8
747.606	97.24
747.787	97.95
747.968	97.89
748.149	97.98
748.33	97.59
748.51	96.71
748.691	96.16
748.872	96.82
749.053	96.09
749.233	96
749.414	97.47
749.595	97.03
749.775	96.41
749.956	97.3
750.137	97.64
750.317	95.84
750.498	96.9
750.678	97.1
750.859	97.48
751.04	98.16
751.22	98.87
751.4	98.61
751.581	98.59
751.761	97.75
751.942	96.93
752.122	97.31
752.303	97.88
752.483	97.15
752.663	97.03
752.844	96.79
753.024	97.87
753.204	98.23
753.385	99.19
753.565	99.51
753.745	98.61
753.925	96.02
754.106	95.27
754.286	94.16
754.466	93.94
754.646	95.23
754.826	96.96
755.006	96.88
755.187	98.37
755.367	97.96
755.547	96.8
755.727	96.25
755.907	96.42
756.087	95.05
756.267	95.11
756.447	97.1
756.627	97.46
756.807	98.27
756.987	99.72
757.167	99.76
757.346	96.94
757.526	97.77
757.706	96.3
757.886	95.8
758.066	96.28
758.246	97.03
758.425	95.4
758.605	94.26
758.785	93.7
758.965	93.98
759.144	93.73
759.324	95.41
759.504	97.64
759.683	97.38
759.863	97.71
760.043	98.64
760.222	96.56
760.402	94.01
760.581	94.93
760.761	94.45
760.94	93.43
761.12	93.21
761.299	95.44
761.479	95.37
761.658	94.63
761.838	95.95
762.017	97
762.197	94.58
762.376	94.42
762.555	94.88
762.735	94.93
762.914	94.53
763.093	95.91
763.273	95.42
763.452	94.8
763.631	93.68
763.81	94.89
763.99	94.53
764.169	94.48
764.348	94.02
764.527	94.09
764.706	93.81
764.885	95.06
765.064	96.17
765.243	96.3
765.423	97.26
765.602	96.3
765.781	94.34
765.96	93.02
766.139	92.94
766.318	93.21
766.497	92.15
766.676	92.28
766.854	91.88
767.033	92.7
767.212	94.04
767.391	96.61
767.57	98.12
767.749	98.31
767.928	98.58
768.106	96.47
768.285	95.66
768.464	95.73
768.643	94.04
768.821	93.3
769	91.74
769.179	90.83
769.357	90.09
769.536	90.3
769.715	89.6
769.893	89.92
770.072	88.76
770.25	86.96
770.429	86.33
770.607	87.57
770.786	87.43
770.964	89.48
771.143	92.94
771.321	93.52
771.5	93.07
771.678	94.08
771.857	92.26
772.035	90.84
772.213	91.41
772.392	89.57
772.57	89.84
772.748	90.84
772.927	90.31
773.105	91.55
773.283	91.73
773.461	91.26
773.64	90.61
773.818	90.96
773.996	91.22
774.174	94.2
774.352	94.46
774.531	94.97
774.709	93.65
774.887	91.98
775.065	90.3
775.243	89.53
775.421	89
775.599	90.85
775.777	91.16
775.955	89.48
776.133	88.27
776.311	87.53
776.489	86.84
776.667	85.43
776.844	86.92
777.022	88.94
777.2	89.62
777.378	89.01
777.556	92.08
777.734	92.14
777.911	92.04
778.089	92.85
778.267	92.49
778.445	90.8
778.622	89.81
778.8	87.9
778.978	88.12
779.155	90.05
779.333	91.19
779.511	92.24
779.688	93.04
779.866	93.59
780.043	92.32
780.221	93.73
780.398	90.89
780.576	92.8
780.753	91.43
780.931	92.1
781.108	94.07
781.286	97.69
781.463	96.78
781.64	97.58
781.818	98.03
781.995	96.39
782.172	94.54
782.35	93.87
782.527	92.37
782.704	89.27
782.882	84.7
783.059	85.86
783.236	86.59
783.413	86.54
783.59	87.26
783.768	87.44
783.945	84.66
784.122	85.11
784.299	87.38
784.476	85.81
784.653	84.71
784.83	85.83
785.007	85.86
785.184	83.78
785.361	86.02
785.538	86.67
785.715	89.37
785.892	87
786.069	87.45
786.246	85.57
786.423	86.55
786.6	85.07
786.776	83.49
786.953	82.66
787.13	83.15
787.307	81.65
787.484	79.92
787.66	81.11
787.837	82.66
788.014	84.43
788.191	83.32
788.367	81.68
788.544	81.15
788.721	78.77
788.897	77.31
789.074	78.49
789.25	83.11
789.427	85.14
789.603	84.61
789.78	85.39
789.956	86.85
790.133	83.64
790.309	81.95
790.486	81.04
790.662	78.9
790.839	78.91
791.015	83.45
791.192	83.57
791.368	86.15
791.544	86.78
791.721	86.79
791.897	80.33
792.073	80.33
792.249	80
792.426	79.4
792.602	80.11
792.778	80.55
792.954	80.97
793.13	79.43
793.307	80.93
793.483	77.07
793.659	79.33
793.835	78.96
794.011	84.4
794.187	86.42
794.363	87.69
794.539	87.43
794.715	87.22
794.891	82.6
795.067	80.67
795.243	79.06
795.419	78.9
795.595	85.63
795.771	83.95
795.947	82.42
796.122	77.2
796.298	72.96
796.474	71.58
796.65	71.29
796.826	67.22
797.001	74.26
797.177	74.81
797.353	64.25
797.529	65.49
797.704	72.26
797.88	72.04
798.056	75.32
798.231	82.29
798.407	86.68
798.582	83.95
798.758	84.57
798.934	85.66
799.109	83.69
799.285	79.65
799.46	81.33
799.636	81.48
799.811	79.38
799.986	79.63
800.162	73.3
800.337	71.43
800.513	74.44
800.688	71.19
800.863	77.27
801.039	86.76
801.214	84.09
801.389	80.39
801.565	83.49
801.74	78.35
801.915	73.62
802.09	73.13
802.265	70.7
802.441	72.77
802.616	74.06
802.791	73.27
802.966	75.48
803.141	80.11
803.316	82.23
803.491	79.91
803.666	81.77
803.841	79.18
804.016	72.98
804.191	70.73
804.366	69.44
804.541	67.79
804.716	69.9
804.891	72.5
805.066	73.77
805.241	69.53
805.416	76.91
805.591	79.36
805.765	85.1
805.94	80.95
806.115	82.03
806.29	79.18
806.464	69.87
806.639	67.73
806.814	65.68
806.989	66.41
807.163	65.31
807.338	71.41
807.512	70.99
807.687	73.85
807.862	79.39
808.036	85.08
808.211	88.8
808.385	85.43
808.56	82.57
808.734	71.36
808.909	68.28
809.083	71.92
809.258	72.14
809.432	71.94
809.606	84.32
809.781	78.66
809.955	67.1
810.13	62.16
810.304	62.66
810.478	59.7
810.652	60.14
810.827	63.06
811.001	63.34
811.175	64.35
811.349	67.28
811.524	70.23
811.698	72.54
811.872	79.77
812.046	80.43
812.22	78.5
812.394	75.58
812.568	72.81
812.742	70.37
812.916	77.44
813.09	75.36
813.264	73.1
813.438	71.04
813.612	68.15
813.786	63.72
813.96	69.03
814.134	66.35
814.308	75.66
814.482	80.59
814.656	65.37
814.83	62.76
815.003	69.97
815.177	61.85
815.351	62.51
815.525	78.69
815.698	70.84
815.872	63.54
816.046	62.84
816.219	71.27
816.393	65.31
816.567	66.57
816.74	65.11
816.914	70.04
817.088	59.1
817.261	58.25
817.435	66.65
817.608	62.39
817.782	55.31
817.955	53.78
818.129	61.19
818.302	56.62
818.475	64.89
818.649	66.23
818.822	64.5
818.996	74.46
819.169	85.91
819.342	87.7
819.516	89.61
819.689	87.66
819.862	76.59
820.035	72.52
820.209	69.6
820.382	65.07
820.555	57.31
820.728	58.4
820.901	52.45
821.075	50.56
821.248	59.03
821.421	64.35
821.594	66.04
821.767	69.71
821.94	70.16
822.113	67.24
822.286	81.98
822.459	77.97
822.632	78.87
822.805	80.53
822.978	81.38
823.151	69.39
823.324	59.2
823.496	55.57
823.669	63.54
823.842	69.81
824.015	67.05
824.188	79.74
824.361	75.75
824.533	67.96
824.706	74.5
824.879	75.87
825.051	79.57
825.224	83.43
825.397	75.54
825.569	59.9
825.742	70.86
825.915	59.96
826.087	49.32
826.26	53.88
826.432	57.5
826.605	47.41
826.777	56.01
826.95	60.88
827.122	53.26
827.295	78.18
827.467	74.44
827.64	64.38
827.812	50.58
827.984	69.89
828.157	20.5
828.329	33.61
828.501	40.83
828.674	46.21
828.846	43.33
829.018	52.42
829.19	34.74
829.363	36.5
829.535	42.47
829.707	47.53
829.879	50.53
830.051	58.2
830.223	69.05
830.395	60.45
830.568	52.85
830.74	53.12
830.912	60.36
831.084	53.5
831.256	55.62
831.428	47.88
831.6	45.76
831.772	41.39
831.943	24.53
832.115	34.51
832.287	41.61
832.459	46.51
832.631	55.86
832.803	61.65
832.975	58.4
833.146	51.26
833.318	51.69
833.49	42.15
833.662	47.73
833.833	50.43
834.005	65.3
834.177	69.56
834.348	69.68
834.52	57.94
834.692	49.76
834.863	42.06
835.035	35.5
835.206	37.73
835.378	52.86
835.549	54.21
835.721	54.75
835.892	59.86
836.064	65.5
836.235	63.27
836.407	56.79
836.578	66.07
836.749	54.28
836.921	32.64
837.092	25.1
837.264	27.52
837.435	3.95
837.606	13.53
837.777	24.61
837.949	36.16
838.12	33.24
838.291	44.54
838.462	48.95
838.633	45.02
838.805	38.17
838.976	37.55
839.147	29.84
839.318	30.39
839.489	34.84
839.66	38.07
839.831	49.73
840.002	49.87
840.173	49.41
840.344	42.74
840.515	37.73
840.686	29.31
840.857	28.65
841.028	21.47
841.199	29.57
841.369	26.47
841.54	44.5
841.711	69.91
841.882	70.76
842.053	57.13
842.223	63.67
842.394	32.04
842.565	26.18
842.736	38.03
842.906	35.92
843.077	32.24
843.248	59
843.418	50.24
843.589	47.79
843.759	61.94
843.93	60.83
844.101	57.6
844.271	88.76
844.442	71.38
844.612	59.95
844.783	59.3
844.953	49.05
845.123	27.62
845.294	29.97
845.464	29.75
845.635	41.11
845.805	47.4
845.975	57.02
846.146	60.63
846.316	43.15
846.486	46.71
846.656	24.73
846.827	30.31
846.997	34.49
847.167	35.56
847.337	31.47
847.507	47.75
847.677	54.76
847.848	51.13
848.018	64.88
848.188	66.46
848.358	56.63
848.528	57.75
848.698	47.38
848.868	39.99
849.038	37.99
849.208	37.49
849.378	16.48
849.548	2.65
849.718	-8.52
849.887	-69.85
850.057	-45.22
850.227	8.37
850.397	7.75
850.567	-5.53
850.737	45.65
850.906	40.58
851.076	14.84
851.246	45.25
851.415	65.05
851.585	35.68
851.755	47.31
851.924	43.09
852.094	31.65
852.264	52.54
852.433	64.9
852.603	55.85
852.772	75.01
852.942	67.18
853.111	55.3
853.281	46.78
853.45	43.77
853.62	27.41
853.789	22.28
853.959	14.64
854.128	12.46
854.297	22.4
854.467	39.66
854.636	39.04
854.805	24.28
854.975	24.22
855.144	13.79
855.313	0.51
855.482	13.51
855.652	26.53
855.821	7.91
855.99	2.31
856.159	1.75
856.328	9.53
856.497	29.76
856.667	20.34
856.836	45.89
857.005	34.99
857.174	16.46
857.343	-19.09
857.512	4.16
857.681	-27.34
857.85	-19
858.019	-51.81
858.188	-37.01
858.356	-0.42
858.525	18.13
858.694	25.28
858.863	38.15
859.032	48.72
859.201	54.24
859.369	31.82
859.538	23.62
859.707	12
859.876	11.86
860.044	15.97
860.213	33.62
860.382	37.22
860.55	22.93
860.719	29.26
860.888	4.44
861.056	-14.71
861.225	-37.08
861.393	-29.54
861.562	-42.35
861.73	-26.83
861.899	-24.9
862.067	-18.72
862.236	-3.12
862.404	1.05
862.572	5.34
862.741	13.5
862.909	17
863.078	13.3
863.246	1.86
863.414	13.16
863.582	-5.95
863.751	-16.93
863.919	5.15
864.087	-1.31
864.255	-8.36
864.424	8.43
864.592	19.8
864.76	-11.56
864.928	6.45
865.096	8.69
865.264	7.44
865.432	21.03
865.6	71.92
865.768	65.36
865.936	83.75
866.104	82.37
866.272	73.79
866.44	20.17
866.608	42.98
866.776	19.64
866.944	51.04
867.112	54.22
867.28	59.16
867.448	63.42
867.615	68.18
867.783	54.81
867.951	60.5
868.119	89.66
868.286	91.79
868.454	68.27
868.622	46.93
868.789	37.33
868.957	28.54
869.125	30.89
869.292	23.11
869.46	45.81
869.627	47.66
869.795	23.06
869.963	0.58
870.13	-23.71
870.298	-19.92
870.465	-8.03
870.632	1.33
870.8	12.93
870.967	20.66
871.135	12.29
871.302	-9.82
871.469	-24.22
871.637	-32.3
871.804	16.63
871.971	22.84
872.139	39.18
872.306	41.72
872.473	31.75
872.64	-26.87
872.807	-76.73
872.975	-164.6
873.142	-19.9
873.309	-12.2
873.476	34.36
873.643	59.13
873.81	54.41
873.977	51.38
874.144	85.43
874.311	2.11
874.478	-37.92
874.645	-36.43
874.812	19.61
874.979	-19.7
875.146	-8.23
875.313	44.84
875.48	30.35
875.647	6.38
875.813	-20.09
875.98	-8.05
876.147	-110.38
876.314	-34.83
876.481	16.06
876.647	34.83
876.814	42.27
876.981	59.32
877.147	46.59
877.314	37.09
877.481	60.04
877.647	82.61
877.814	85
877.98	85.69
878.147	93.2
878.314	77.38
878.48	64.53
878.647	52.36
878.813	47.16
878.979	40.13
879.146	68.33
879.312	77.43
879.479	47.36
879.645	63.61
879.811	49.15
879.978	35.11
880.144	13.98
880.31	37.55
880.477	20.58
880.643	39.15
880.809	-11.34
880.975	32.02
881.142	-46.15
881.308	189.64
881.474	317.13
881.64	43.29
881.806	11.54
881.972	41.26
882.138	22.49
882.304	-4.61
882.47	-40.8
882.636	-67.91
882.802	-59.99
882.968	-68.28
883.134	-25.76
883.3	-1.28
883.466	50.02
883.632	57.93
883.798	58.14
883.964	20.6
884.129	-437.12
884.295	-86.39
884.461	-85.16
884.627	-27.36
884.793	-36.77
884.958	-0.12
885.124	-2.23
885.29	-56.25
885.455	-86.26
885.621	-74.91
885.787	-21.68
885.952	-18.2
886.118	26.31
886.283	32.12
886.449	46.1
886.614	36.21
886.78	27.83
886.945	30.45
887.111	-7.49
887.276	-30.91
887.442	-122.35
887.607	-88.39
887.773	-44.1
887.938	-15.66
888.103	-4.92
888.269	26.22
888.434	28.83
888.599	9.43
888.764	9.1
888.93	26.95
889.095	14.23
889.26	-11.21
889.425	-13.86
889.59	-25.73
889.756	-58.14
889.921	-44.46
890.086	-36.3
890.251	69.29
890.416	23.3
890.581	49.73
890.746	76.99
890.911	44.14
891.076	24.34
891.241	31.49
891.406	17.31
891.571	-15.88
891.736	-35.2
891.901	37
892.065	11.92
892.23	21.99
892.395	7.95
892.56	5.72
892.725	-188.11
892.889	-184.44
893.054	-70.69
893.219	-93.54
893.384	-122.72
893.548	-40.12
893.713	-117.5
893.878	-205.58
