Data from Ofra_PS_T2_1A_6CX18_Reflection_3.txt Node
Date: Wed Jul 21 18:09:13 EDT 2021
User: Adam
Spectrometer: FLMT01687
Trigger mode: 0
Integration Time (sec): 1.100000E0
Scans to average: 2
Electric dark correction enabled: true
Nonlinearity correction enabled: false
Boxcar width: 2
XAxis mode: Wavelengths
Number of Pixels in Spectrum: 3648
>>>>>Begin Spectral Data<<<<<
179.494	666
179.716	743.29
179.937	697.08
180.158	699.37
180.38	1187.81
180.601	383.7
180.823	22.63
181.044	-84.6
181.265	36.4
181.486	1.21
181.708	154.16
181.929	1698.98
182.15	-597.89
182.372	154.56
182.593	39.2
182.814	43.63
183.035	116.09
183.257	70.75
183.478	-61.6
183.699	-4.93
183.92	-6.75
184.141	-29.69
184.363	-81.63
184.584	-22.83
184.805	-8.16
185.026	15.77
185.247	24.72
185.468	7.9
185.689	-0.89
185.91	6.33
186.132	3.72
186.353	-41.57
186.574	-10.73
186.795	-5.3
187.016	-64.19
187.237	-74.16
187.458	-98.71
187.679	-72.96
187.9	-47.17
188.121	-53.52
188.342	-39.93
188.563	11.78
188.784	1.64
189.005	18.8
189.226	62.59
189.447	39.54
189.667	-241.02
189.888	-501.72
190.109	-2164.29
190.33	-1140.97
190.551	-2029.65
190.772	-434.75
190.993	-337.59
191.214	-251.2
191.434	-173.09
191.655	-48.4
191.876	-124.42
192.097	-206.91
192.318	-257.89
192.538	-398.97
192.759	-270.87
192.98	-131.36
193.201	-40.41
193.421	-5.1
193.642	19.72
193.863	29.85
194.083	5.36
194.304	-23.22
194.525	-51.15
194.745	-100.92
194.966	-114.08
195.187	-121.07
195.407	-145.28
195.628	-231.54
195.848	-209.78
196.069	-238.85
196.29	-163.87
196.51	-161.35
196.731	-99.05
196.951	-83.13
197.172	-98.11
197.392	-129.9
197.613	-116.18
197.833	-136.98
198.054	-139.75
198.274	-85.36
198.495	-89.46
198.715	-62.18
198.936	-103.26
199.156	-83.41
199.377	-190.58
199.597	-190.55
199.817	-209.03
200.038	-129.9
200.258	-208.01
200.479	-130.5
200.699	-159.81
200.919	-94.91
201.14	-115.88
201.36	-118.58
201.58	-43.95
201.801	-5.63
202.021	-29.15
202.241	-15.54
202.461	-19.18
202.682	-126.92
202.902	-202.86
203.122	-136.35
203.342	-125.2
203.563	-73.16
203.783	-30.72
204.003	-73.64
204.223	-66.68
204.443	-5.68
204.663	-41.9
204.884	-27.31
205.104	20.44
205.324	55.42
205.544	28.67
205.764	46.26
205.984	55
206.204	51.44
206.424	22.08
206.644	-9.77
206.864	-7.79
207.084	-82.12
207.304	-121.95
207.525	-269.53
207.745	-125.23
207.964	-56.55
208.184	-95.58
208.404	-104.33
208.624	-105.3
208.844	-114.93
209.064	-433.76
209.284	-451.17
209.504	-244.56
209.724	-84.99
209.944	-79.32
210.164	-54.56
210.384	-29.29
210.604	-54.24
210.823	-118.25
211.043	-105.28
211.263	-73.32
211.483	-62.04
211.703	-102.01
211.922	-71.36
212.142	-18.27
212.362	-38.44
212.582	-49.03
212.801	-43.91
213.021	-55.7
213.241	-88.75
213.461	-96.97
213.68	-125.33
213.9	-101.05
214.12	-81.17
214.339	-127.15
214.559	-111.88
214.779	-57.26
214.998	-50.82
215.218	-103.51
215.438	-72.87
215.657	-72.78
215.877	-82.9
216.096	-51.69
216.316	-28.42
216.535	-20.51
216.755	-11.94
216.974	-79.9
217.194	-151.93
217.413	-172.23
217.633	-200.07
217.852	-353.84
218.072	-172.94
218.291	-96.55
218.511	-38.64
218.73	-54.07
218.95	-43.19
219.169	-37.26
219.389	-84.68
219.608	-75.24
219.827	-71.87
220.047	-52.55
220.266	-39.73
220.485	-18.85
220.705	-3.39
220.924	-33.19
221.143	-11.77
221.363	-33.83
221.582	-32.25
221.801	-40.01
222.021	-11.59
222.24	-77.3
222.459	-58.61
222.678	-56.06
222.897	-143.59
223.117	-205.71
223.336	-204.83
223.555	-136.18
223.774	-102.79
223.993	-101.13
224.213	-11.29
224.432	-10.77
224.651	-7.48
224.87	-27.42
225.089	-9.37
225.308	-33.03
225.527	-16.43
225.746	-15.23
225.965	-24.31
226.184	-55.56
226.404	-13.8
226.623	-28.41
226.842	-28.14
227.061	-8.42
227.28	12.74
227.499	-8.76
227.718	10.11
227.936	-4.92
228.155	-11.78
228.374	-45.99
228.593	-24.63
228.812	-48.95
229.031	-41.89
229.25	-81.89
229.469	-106.7
229.688	-100.25
229.907	-65
230.125	-50.61
230.344	-22.45
230.563	4.36
230.782	3.39
231.001	-66.25
231.22	-57.5
231.438	-27.46
231.657	-24.36
231.876	-33.02
232.095	20.54
232.313	17.5
232.532	-27.62
232.751	-67.1
232.969	-72.54
233.188	-215.61
233.407	-123.66
233.625	-85.92
233.844	-102.33
234.063	-90.19
234.281	-40.04
234.5	-49.33
234.719	-27.52
234.937	-1.64
235.156	6.24
235.374	5.2
235.593	-28.61
235.811	-39.43
236.03	-51.3
236.249	-123.2
236.467	-129.26
236.686	-42.97
236.904	-16.88
237.123	-49.37
237.341	-22.49
237.559	-11.15
237.778	-42.15
237.996	-81.33
238.215	-21.67
238.433	-11.94
238.652	-18.49
238.87	-26.43
239.088	-18.58
239.307	-4.57
239.525	-29.24
239.743	-34.84
239.962	-19.78
240.18	-42.49
240.398	-115.33
240.617	-94.8
240.835	-88.57
241.053	-60.49
241.271	-22.76
241.49	4.68
241.708	-34.97
241.926	-68.36
242.144	-69.2
242.363	-128.06
242.581	-164.84
242.799	-101.04
243.017	-50.43
243.235	-59.51
243.453	-28.63
243.672	-23.12
243.89	-19.29
244.108	-39.47
244.326	-22.03
244.544	-28.4
244.762	-26.11
244.98	-30.68
245.198	-1.76
245.416	-20.8
245.634	-23.04
245.852	-36.84
246.07	-49.9
246.288	-70.56
246.506	-94.63
246.724	-66.79
246.942	-41.26
247.16	-10.94
247.378	-8.78
247.596	6.78
247.814	-8.05
248.032	-48.69
248.25	-49.25
248.468	-37.39
248.685	-40.63
248.903	-14.1
249.121	0.89
249.339	-32.34
249.557	-46.94
249.775	-26.91
249.992	-83.11
250.21	-69.81
250.428	-47.05
250.646	-84.76
250.863	-126.2
251.081	-97.29
251.299	-125.57
251.517	-116.26
251.734	-66.76
251.952	-46.62
252.17	-40.61
252.387	-16.46
252.605	-36.2
252.823	-27.01
253.04	-13.26
253.258	1.57
253.475	-41.03
253.693	-13.27
253.911	-15.02
254.128	-10.94
254.346	-20.87
254.563	-9.82
254.781	-33.25
254.998	-68.15
255.216	-68.52
255.433	-58.22
255.651	-21.67
255.868	16.49
256.086	63.3
256.303	26.57
256.521	15.37
256.738	-5.64
256.956	-34.64
257.173	-62.07
257.39	-59.85
257.608	-75.39
257.825	-57.2
258.043	-30.12
258.26	-36.42
258.477	5.92
258.695	-6.14
258.912	-44.39
259.129	-44.2
259.346	-88.25
259.564	-143.41
259.781	-168.32
259.998	-84.72
260.216	-54.51
260.433	17.08
260.65	22.1
260.867	39.41
261.084	2.87
261.302	-5.49
261.519	-30.05
261.736	-64.86
261.953	-90.21
262.17	-38.45
262.387	-100.22
262.604	-118.58
262.822	-127.15
263.039	-92.99
263.256	-153.78
263.473	-88.77
263.69	-71.7
263.907	-16.91
264.124	3.47
264.341	-4.01
264.558	-11.95
264.775	-4.01
264.992	-14.54
265.209	-32.2
265.426	5.86
265.643	4.87
265.86	18.32
266.077	13.26
266.294	1.08
266.51	-59.82
266.727	-72.88
266.944	-68.98
267.161	-53.03
267.378	-49.46
267.595	-7.52
267.812	-4.32
268.028	-11.8
268.245	-16.42
268.462	-25.99
268.679	-35.17
268.896	6.48
269.112	-1.37
269.329	-2.55
269.546	-6.74
269.763	-13.79
269.979	-39.1
270.196	-44.23
270.413	-71.6
270.629	-84.55
270.846	-92.38
271.063	-95.04
271.279	-104.02
271.496	-93.55
271.712	-59.53
271.929	-36.43
272.146	-40.33
272.362	-30.41
272.579	-9.86
272.795	-1.24
273.012	-15.05
273.228	-9.85
273.445	-37.32
273.661	-95.59
273.878	-131.47
274.094	-103.01
274.311	-148.87
274.527	-54.27
274.744	-28.25
274.96	-27.75
275.177	-8.67
275.393	14.02
275.609	-2.33
275.826	8.02
276.042	-6.25
276.259	-25.21
276.475	2
276.691	6.61
276.908	-14.93
277.124	-4.19
277.34	-16.35
277.557	-52.13
277.773	-56.19
277.989	-53.57
278.205	-49.78
278.422	-31.13
278.638	-16.21
278.854	-0.43
279.07	-7.31
279.286	-3
279.503	-50.47
279.719	-60.16
279.935	-102.63
280.151	-104.12
280.367	-86.36
280.583	-96.86
280.799	-82.33
281.016	-104.46
281.232	-55.01
281.448	-51.04
281.664	-5.93
281.88	-35.43
282.096	2.56
282.312	17.73
282.528	31.18
282.744	31.86
282.96	43.59
283.176	22.71
283.392	2.28
283.608	-9.52
283.824	-28.02
284.04	-39.24
284.256	-31.82
284.471	-38.91
284.687	-46
284.903	-7.3
285.119	17.35
285.335	-6.24
285.551	-1.72
285.767	-22.39
285.982	-46.69
286.198	-94.85
286.414	-36.49
286.63	-14.9
286.846	15.76
287.061	-10.36
287.277	29.45
287.493	-20.28
287.709	-28.18
287.924	-52.2
288.14	-17.44
288.356	-24.44
288.571	20.66
288.787	10.34
289.003	18.86
289.218	-6.14
289.434	-48.16
289.65	-48.94
289.865	-47.38
290.081	-28.97
290.296	-2.25
290.512	3.55
290.727	-34.04
290.943	-38.97
291.159	-50.39
291.374	-55.02
291.59	-71.75
291.805	-44.57
292.021	-27.7
292.236	-22.78
292.451	-6.15
292.667	14.1
292.882	17.92
293.098	-3.29
293.313	-26.59
293.529	-57.04
293.744	-93.62
293.959	-88.64
294.175	-69.24
294.39	-36.14
294.605	-14.54
294.821	12.39
295.036	22.63
295.251	22.67
295.467	-16.5
295.682	-40.93
295.897	-99.96
296.112	-121.12
296.328	-116.82
296.543	-103.3
296.758	-97.15
296.973	-43.09
297.188	3.41
297.404	-17.09
297.619	-29.92
297.834	-44.7
298.049	-61.32
298.264	-80.92
298.479	-37.39
298.694	-37.71
298.909	-9.31
299.125	-6.42
299.34	-20.37
299.555	-41.44
299.77	-21.77
299.985	-67.51
300.2	-118.95
300.415	-121.35
300.63	-93.54
300.845	-96.36
301.06	-80.3
301.275	-45.36
301.49	-29.01
301.704	-37.7
301.919	-42.48
302.134	-62.38
302.349	-52.78
302.564	-121.49
302.779	-133.68
302.994	-122.96
303.209	-67.43
303.423	-56.1
303.638	16.18
303.853	-13.21
304.068	-24
304.283	-16.29
304.497	-14.05
304.712	-28.41
304.927	-24.83
305.142	-20.85
305.356	-28.73
305.571	-40.72
305.786	-48.45
306	-52.26
306.215	-60.47
306.43	-65.04
306.644	-65.3
306.859	-21.65
307.074	-4.57
307.288	-25.02
307.503	-60.38
307.717	-54.21
307.932	-59.34
308.147	-78.07
308.361	-64.75
308.576	-48.46
308.79	-90.17
309.005	-89.18
309.219	-53.64
309.434	-51.13
309.648	-48.47
309.863	-14.24
310.077	-15.77
310.292	-30.38
310.506	-28.95
310.72	-16.65
310.935	-19.67
311.149	-15.07
311.364	0.2
311.578	6.53
311.792	-13.68
312.007	-4.61
312.221	-21.35
312.435	-13.37
312.649	-26.17
312.864	-13.19
313.078	-11.86
313.292	32.31
313.507	-31.06
313.721	-28.7
313.935	-11.11
314.149	-31.92
314.363	-32.54
314.578	-27.05
314.792	-14.66
315.006	-32.61
315.22	-16.59
315.434	-23.24
315.648	-4.83
315.862	-16.17
316.077	-18.7
316.291	-49.52
316.505	-27.75
316.719	-79.79
316.933	-80.82
317.147	-59.7
317.361	-107.82
317.575	-147.41
317.789	-160.79
318.003	-245.16
318.217	-176.85
318.431	-54.33
318.645	8.05
318.859	-5.8
319.073	20.55
319.287	-1.84
319.5	-41.72
319.714	-99.24
319.928	-123.44
320.142	-138.72
320.356	-81.27
320.57	-35.49
320.784	-25.03
320.997	-29.46
321.211	-33.01
321.425	-87.24
321.639	-119.4
321.853	-64.87
322.066	-40.5
322.28	-46.01
322.494	-42.97
322.707	-6.28
322.921	-32.92
323.135	-31.07
323.349	-5.02
323.562	-23.45
323.776	-60.66
323.989	-48.46
324.203	-70.64
324.417	-102.6
324.63	-110.41
324.844	-96.96
325.057	-94.52
325.271	-61.76
325.485	-29.03
325.698	0.08
325.912	17.17
326.125	-10.44
326.339	-19.9
326.552	-28.49
326.766	-51.69
326.979	-39.39
327.193	14.52
327.406	3.89
327.619	-16.53
327.833	3.27
328.046	-30.03
328.26	-81.89
328.473	-50.51
328.686	-74.3
328.9	-74.85
329.113	-36.92
329.326	-70.65
329.54	-69.05
329.753	-67.57
329.966	-96.18
330.179	-93.43
330.393	-38.52
330.606	-30.9
330.819	-9.3
331.032	6.12
331.246	-1.56
331.459	20.82
331.672	9.84
331.885	-4.7
332.098	-39.91
332.311	-60.4
332.525	-110.95
332.738	-71.2
332.951	-38.48
333.164	7.28
333.377	23.9
333.59	22.15
333.803	1.27
334.016	-7.98
334.229	-10.61
334.442	-5.93
334.655	14.01
334.868	11.61
335.081	-7.13
335.294	-26.97
335.507	-46.61
335.72	-51.46
335.933	-58.14
336.146	-56.21
336.359	-50.33
336.572	-72.51
336.785	-106.66
336.997	-83.36
337.21	-51.52
337.423	-58.48
337.636	-55.3
337.849	-23.64
338.062	-41.25
338.274	-46.7
338.487	-54.16
338.7	-33.72
338.913	-78.02
339.125	-92.42
339.338	-142.31
339.551	-129.64
339.763	-93.81
339.976	-65.61
340.189	-30.86
340.402	-20.03
340.614	-22.72
340.827	-40.04
341.039	-63.98
341.252	-72.24
341.465	-35.05
341.677	-26.48
341.89	-55.49
342.102	-14.5
342.315	-27.4
342.527	-80.61
342.74	-79.75
342.952	-32.8
343.165	-33.89
343.377	-7.52
343.59	-2.2
343.802	12.97
344.015	-0.07
344.227	5.48
344.44	-5.89
344.652	-6.71
344.864	-25.05
345.077	9.22
345.289	11.41
345.502	12.7
345.714	2.08
345.926	4.91
346.139	-13.72
346.351	-11.28
346.563	-7.39
346.775	1.09
346.988	-12.52
347.2	-33.9
347.412	-88.21
347.624	-113.88
347.837	-129.04
348.049	-79.28
348.261	-39.68
348.473	-29.53
348.685	-26.51
348.897	-33.79
349.11	-69.13
349.322	-104.57
349.534	-77.01
349.746	-58.8
349.958	-28.13
350.17	-18.16
350.382	2.34
350.594	-0.26
350.806	-12.75
351.018	-27.28
351.23	-47.71
351.442	-106.03
351.654	-122.29
351.866	-99.45
352.078	-65.89
352.29	-32.4
352.502	-9.31
352.714	-0.32
352.926	-9.87
353.138	-18.83
353.35	-23.06
353.561	-25.04
353.773	-48.3
353.985	-30.89
354.197	-43.22
354.409	-46.53
354.621	-51.97
354.832	-32.96
355.044	-43.81
355.256	-38.71
355.468	-20.44
355.679	-19.54
355.891	-11.37
356.103	-24.5
356.314	-16.12
356.526	-28.73
356.738	-21.58
356.949	-27.32
357.161	-0.27
357.373	-1.53
357.584	-10.1
357.796	-10.71
358.008	-15.48
358.219	-5.75
358.431	-6.54
358.642	0.34
358.854	9.37
359.065	-0.55
359.277	-35.88
359.488	-48.18
359.7	-73.04
359.911	-87.72
360.123	-60.76
360.334	-76.92
360.546	-103.61
360.757	-88.12
360.969	-70.14
361.18	-83.6
361.391	-47.72
361.603	-23.98
361.814	-25.8
362.025	-34.24
362.237	-32.64
362.448	-23.86
362.659	-14.73
362.871	-10.91
363.082	-19.74
363.293	-26.64
363.504	-40.67
363.716	-70.75
363.927	-75.67
364.138	-107.05
364.349	-104.57
364.56	-99.18
364.772	-83.72
364.983	-51.27
365.194	-30.28
365.405	-11.17
365.616	7.27
365.827	11.9
366.038	-22.94
366.25	-32.78
366.461	-67.9
366.672	-42.94
366.883	-14.9
367.094	-0.58
367.305	-7.32
367.516	-10.13
367.727	-39.21
367.938	-72.74
368.149	-81.7
368.36	-70.29
368.571	-57.36
368.781	-61.01
368.992	-67.86
369.203	-81.42
369.414	-94.01
369.625	-91.9
369.836	-98.92
370.047	-117.55
370.258	-94.51
370.468	-83.9
370.679	-102.2
370.89	-85.47
371.101	-57.12
371.312	-53.28
371.522	-56.87
371.733	-32.82
371.944	-16.94
372.155	-7.67
372.365	-20.64
372.576	-21.89
372.787	-30.58
372.997	-55.75
373.208	-70.98
373.419	-42.2
373.629	-68.14
373.84	-77.85
374.05	-88.44
374.261	-59.58
374.472	-74.31
374.682	-15.26
374.893	-2.83
375.103	22.06
375.314	2.92
375.524	-9.58
375.735	-19.95
375.945	-10.78
376.156	-25.07
376.366	-23.66
376.577	-21.64
376.787	-30.38
376.997	-49.01
377.208	-48.92
377.418	-51.91
377.629	-28.2
377.839	-27.54
378.049	-12.39
378.26	2.04
378.47	4.09
378.68	-7.88
378.89	-12.14
379.101	-20.46
379.311	-54.93
379.521	-80.05
379.732	-80.09
379.942	-89.14
380.152	-107.03
380.362	-63.8
380.572	-50.19
380.783	-31.32
380.993	-3.93
381.203	9.45
381.413	12.46
381.623	15.07
381.833	8.58
382.043	-11.33
382.253	-16.53
382.463	-12.79
382.674	-19.03
382.884	-42.8
383.094	-38.76
383.304	-33.01
383.514	-31.37
383.724	-23.19
383.934	-28.49
384.144	-34.7
384.353	-45.37
384.563	-53.26
384.773	-43.33
384.983	-45.93
385.193	-24.99
385.403	-18.02
385.613	-9.37
385.823	-24.95
386.033	-12.29
386.242	-19.19
386.452	-22
386.662	-32.41
386.872	-17.72
387.082	-24.06
387.291	-31.99
387.501	-32.42
387.711	-19.85
387.921	-26.96
388.13	-24
388.34	-5.75
388.55	-7.48
388.759	-10.23
388.969	-4.33
389.179	-8.09
389.388	-14.9
389.598	-9.69
389.807	-15.3
390.017	-19.68
390.227	-13.49
390.436	-16.13
390.646	-17.49
390.855	-15.76
391.065	-14.25
391.274	-18.06
391.484	-17.35
391.693	-12.45
391.903	-9.41
392.112	-4.75
392.322	-0.3
392.531	3.01
392.74	1.37
392.95	-0.54
393.159	-0.81
393.369	0.24
393.578	-0.29
393.787	-1.1
393.997	0.55
394.206	-1.53
394.415	-1.46
394.625	-2.35
394.834	-3.72
395.043	-2.41
395.252	-0.18
395.462	0.63
395.671	2.35
395.88	4.51
396.089	3.65
396.298	2.46
396.508	1.43
396.717	0.84
396.926	1.29
397.135	1.56
397.344	1.19
397.553	2.18
397.762	3.57
397.971	3.4
398.181	3.68
398.39	3.78
398.599	3.7
398.808	3.59
399.017	4.45
399.226	5.52
399.435	6.9
399.644	6.45
399.853	5.76
400.062	5.11
400.27	4.78
400.479	4.19
400.688	3.73
400.897	3.99
401.106	4.02
401.315	3.79
401.524	3.85
401.733	4.78
401.941	5.4
402.15	5.53
402.359	5.52
402.568	5.95
402.777	6.23
402.985	5.81
403.194	5.84
403.403	5.87
403.612	5.43
403.82	5.09
404.029	5.26
404.238	5.08
404.446	5.4
404.655	5.3
404.864	5.29
405.072	5.01
405.281	5.22
405.489	4.81
405.698	4.89
405.906	4.81
406.115	4.91
406.324	4.75
406.532	5.04
406.741	5.33
406.949	5.34
407.158	5.45
407.366	5.55
407.574	5.47
407.783	5.29
407.991	5.24
408.2	5.29
408.408	5.22
408.617	5.15
408.825	4.96
409.033	5.03
409.242	5.14
409.45	5.2
409.658	5.06
409.867	5.33
410.075	5.23
410.283	5.01
410.491	4.94
410.7	4.96
410.908	4.97
411.116	5.24
411.324	5.2
411.533	5.14
411.741	5.37
411.949	5.22
412.157	4.91
412.365	4.97
412.573	5.03
412.781	4.92
412.99	4.91
413.198	5.22
413.406	5.09
413.614	5.09
413.822	4.93
414.03	4.96
414.238	4.63
414.446	4.72
414.654	4.58
414.862	4.7
415.07	4.69
415.278	4.83
415.486	4.64
415.694	4.71
415.902	4.54
416.109	4.32
416.317	4.3
416.525	4.33
416.733	4.31
416.941	4.54
417.149	4.55
417.357	4.52
417.564	4.61
417.772	4.9
417.98	4.79
418.188	4.91
418.395	4.9
418.603	5.01
418.811	4.52
419.019	4.5
419.226	4.57
419.434	4.69
419.642	4.4
419.849	4.63
420.057	4.54
420.265	4.48
420.472	4.21
420.68	4.25
420.887	4.12
421.095	4.25
421.302	4.24
421.51	4.37
421.717	4.47
421.925	4.55
422.132	4.37
422.34	4.19
422.547	4.14
422.755	4.23
422.962	4.08
423.17	4.03
423.377	4.17
423.585	4.24
423.792	3.99
423.999	4.04
424.207	3.96
424.414	4.06
424.621	4.04
424.829	4.07
425.036	4.23
425.243	4.49
425.451	4.39
425.658	4.15
425.865	4.45
426.072	4.37
426.28	4.59
426.487	4.55
426.694	4.79
426.901	4.37
427.108	4.42
427.315	4.2
427.523	4.39
427.73	4.37
427.937	4.55
428.144	4.34
428.351	4.27
428.558	4.36
428.765	4.28
428.972	4.23
429.179	4.5
429.386	4.79
429.593	4.5
429.8	4.48
430.007	4.66
430.214	4.73
430.421	4.52
430.628	4.5
430.835	4.49
431.042	4.7
431.249	4.68
431.456	4.77
431.662	4.91
431.869	5.07
432.076	4.95
432.283	5.04
432.49	4.98
432.697	5.11
432.903	4.92
433.11	4.9
433.317	4.97
433.524	5.1
433.73	5.03
433.937	5.36
434.144	5.22
434.35	5.08
434.557	4.99
434.764	4.98
434.97	4.79
435.177	5.02
435.384	5.05
435.59	5.21
435.797	5.46
436.003	5.49
436.21	5.46
436.416	5.54
436.623	5.55
436.829	5.48
437.036	5.68
437.242	5.72
437.449	5.68
437.655	5.71
437.862	5.72
438.068	5.63
438.275	5.76
438.481	5.95
438.687	5.89
438.894	5.79
439.1	5.83
439.307	5.99
439.513	6
439.719	6.04
439.926	6.23
440.132	6.27
440.338	6.01
440.544	5.99
440.751	6.05
440.957	6.11
441.163	6.05
441.369	6.19
441.575	6.03
441.782	6.02
441.988	5.93
442.194	5.99
442.4	5.93
442.606	6.21
442.812	6.28
443.018	6.35
443.224	6.49
443.431	6.71
443.637	6.49
443.843	6.39
444.049	6.45
444.255	6.31
444.461	6.29
444.667	6.3
444.873	6.49
445.079	6.39
445.284	6.52
445.49	6.29
445.696	6.27
445.902	6.16
446.108	6.17
446.314	6.02
446.52	6.19
446.726	6.4
446.931	6.43
447.137	6.46
447.343	6.58
447.549	6.55
447.755	6.49
447.96	6.51
448.166	6.54
448.372	6.46
448.578	6.42
448.783	6.38
448.989	6.48
449.195	6.68
449.4	6.71
449.606	6.75
449.812	6.77
450.017	6.75
450.223	6.58
450.428	6.64
450.634	6.74
450.84	6.89
451.045	6.91
451.251	6.88
451.456	7.04
451.662	7.07
451.867	7.13
452.073	7.14
452.278	7.26
452.483	7.33
452.689	7.31
452.894	7.24
453.1	7.25
453.305	7.21
453.51	7.11
453.716	7.01
453.921	7.09
454.127	7.05
454.332	7.02
454.537	6.94
454.742	7.04
454.948	7.08
455.153	7.2
455.358	7.34
455.563	7.61
455.769	7.68
455.974	7.62
456.179	7.43
456.384	7.43
456.589	7.31
456.795	7.19
457	7.15
457.205	7.37
457.41	7.28
457.615	7.23
457.82	7.37
458.025	7.44
458.23	7.36
458.435	7.54
458.64	7.52
458.845	7.62
459.05	7.72
459.255	7.81
459.46	7.74
459.665	7.84
459.87	7.81
460.075	7.75
460.28	7.83
460.485	7.94
460.69	7.98
460.895	7.81
461.099	7.78
461.304	7.93
461.509	7.94
461.714	7.81
461.919	8.11
462.123	8.09
462.328	8.01
462.533	8
462.738	8.2
462.942	8.08
463.147	8.19
463.352	8.2
463.556	8.23
463.761	8.33
463.966	8.47
464.17	8.46
464.375	8.41
464.58	8.46
464.784	8.34
464.989	8.23
465.193	8.28
465.398	8.31
465.602	8.37
465.807	8.43
466.011	8.6
466.216	8.67
466.42	8.81
466.625	8.94
466.829	8.96
467.034	9
467.238	9.18
467.443	9.11
467.647	8.93
467.851	9.01
468.056	9.07
468.26	8.97
468.464	9.01
468.669	9.21
468.873	9.39
469.077	9.28
469.282	9.38
469.486	9.53
469.69	9.47
469.894	9.23
470.099	9.29
470.303	9.41
470.507	9.26
470.711	9.19
470.915	9.29
471.119	9.19
471.324	9.08
471.528	9.14
471.732	9.26
471.936	9.26
472.14	9.4
472.344	9.44
472.548	9.52
472.752	9.72
472.956	9.94
473.16	9.88
473.364	9.77
473.568	9.69
473.772	9.65
473.976	9.56
474.18	9.62
474.384	9.74
474.588	9.73
474.792	9.57
474.995	9.58
475.199	9.64
475.403	9.72
475.607	9.82
475.811	9.81
476.015	9.91
476.218	9.99
476.422	9.88
476.626	9.97
476.83	10.15
477.033	10.02
477.237	9.96
477.441	10.11
477.644	10.02
477.848	9.96
478.052	9.94
478.255	9.98
478.459	9.96
478.663	10.1
478.866	10.15
479.07	10.24
479.273	10.38
479.477	10.41
479.681	10.35
479.884	10.29
480.088	10.19
480.291	10.07
480.495	10.03
480.698	10.04
480.901	10.05
481.105	10.19
481.308	10.18
481.512	10.2
481.715	10.31
481.919	10.38
482.122	10.36
482.325	10.37
482.529	10.42
482.732	10.36
482.935	10.25
483.138	10.21
483.342	10.34
483.545	10.35
483.748	10.3
483.952	10.44
484.155	10.62
484.358	10.62
484.561	10.53
484.764	10.55
484.967	10.62
485.171	10.54
485.374	10.45
485.577	10.59
485.78	10.69
485.983	10.61
486.186	10.46
486.389	10.48
486.592	10.37
486.795	10.33
486.998	10.27
487.201	10.44
487.404	10.46
487.607	10.56
487.81	10.54
488.013	10.61
488.216	10.58
488.419	10.62
488.622	10.58
488.825	10.55
489.028	10.57
489.231	10.47
489.433	10.35
489.636	10.26
489.839	10.28
490.042	10.13
490.245	10.08
490.447	10.17
490.65	10.2
490.853	10.16
491.056	10.22
491.258	10.29
491.461	10.23
491.664	10.21
491.866	10.21
492.069	10.3
492.272	10.18
492.474	10.25
492.677	10.25
492.879	10.34
493.082	10.29
493.285	10.47
493.487	10.36
493.69	10.34
493.892	10.28
494.095	10.25
494.297	10.23
494.5	10.32
494.702	10.28
494.905	10.25
495.107	10.19
495.309	10.15
495.512	10.2
495.714	10.31
495.917	10.37
496.119	10.44
496.321	10.43
496.524	10.43
496.726	10.47
496.928	10.48
497.13	10.4
497.333	10.44
497.535	10.3
497.737	10.24
497.939	10.14
498.142	10.2
498.344	10.14
498.546	10.15
498.748	10.14
498.95	10.29
499.152	10.2
499.355	10.27
499.557	10.38
499.759	10.4
499.961	10.24
500.163	10.33
500.365	10.26
500.567	10.35
500.769	10.27
500.971	10.35
501.173	10.25
501.375	10.29
501.577	10.14
501.779	10.09
501.981	10.04
502.183	10.07
502.385	10.02
502.587	9.94
502.788	10.01
502.99	10.01
503.192	10.1
503.394	10.11
503.596	10.19
503.798	10.25
503.999	10.21
504.201	10.17
504.403	10.21
504.605	10.16
504.806	10.08
505.008	10.11
505.21	10.11
505.411	10.06
505.613	10.14
505.815	10.11
506.016	10.14
506.218	10.14
506.42	10.08
506.621	10.04
506.823	10.06
507.024	10
507.226	9.99
507.427	9.98
507.629	9.9
507.83	9.98
508.032	9.91
508.233	9.94
508.435	10.07
508.636	10.19
508.838	10.04
509.039	10.12
509.24	10.09
509.442	10
509.643	9.9
509.845	9.99
510.046	10.01
510.247	9.98
510.448	9.99
510.65	10.04
510.851	10.09
511.052	10.12
511.254	10.14
511.455	10.2
511.656	10.25
511.857	10.22
512.058	10.19
512.26	10.13
512.461	10.11
512.662	10.1
512.863	10.07
513.064	10.07
513.265	10.12
513.466	10.18
513.667	10.12
513.868	10.1
514.069	10.17
514.27	10.21
514.471	10.09
514.672	10.1
514.873	10.06
515.074	10.07
515.275	9.96
515.476	9.96
515.677	9.98
515.878	10.14
516.079	10.03
516.28	10.1
516.481	10.22
516.682	10.22
516.882	10.09
517.083	10.06
517.284	9.99
517.485	9.92
517.686	9.85
517.886	9.87
518.087	9.96
518.288	10.02
518.488	9.95
518.689	10.01
518.89	9.98
519.091	9.95
519.291	9.91
519.492	9.99
519.692	10.01
519.893	10.06
520.094	10
520.294	9.99
520.495	9.97
520.695	9.98
520.896	9.93
521.096	9.97
521.297	9.99
521.497	9.96
521.698	9.88
521.898	9.92
522.099	9.93
522.299	9.95
522.499	10
522.7	10.06
522.9	9.99
523.101	10.04
523.301	10.01
523.501	9.95
523.702	9.91
523.902	9.95
524.102	9.97
524.302	9.94
524.503	10.01
524.703	9.99
524.903	10.04
525.103	9.88
525.304	9.96
525.504	9.98
525.704	10.08
525.904	10.05
526.104	10.07
526.304	10.02
526.504	10.03
526.705	9.98
526.905	10.05
527.105	10.12
527.305	10.12
527.505	9.96
527.705	9.92
527.905	9.86
528.105	9.84
528.305	9.8
528.505	9.9
528.705	10
528.905	9.96
529.105	9.96
529.304	10.01
529.504	10.05
529.704	9.99
529.904	10
530.104	9.98
530.304	9.99
530.503	9.92
530.703	9.82
530.903	9.8
531.103	9.83
531.303	9.77
531.502	9.78
531.702	9.89
531.902	9.94
532.101	9.88
532.301	9.89
532.501	9.84
532.7	9.82
532.9	9.8
533.1	9.83
533.299	9.9
533.499	9.96
533.698	9.91
533.898	9.92
534.097	9.92
534.297	9.93
534.496	9.98
534.696	10.02
534.895	10.08
535.095	10.18
535.294	10.11
535.494	10.04
535.693	10.05
535.892	10.04
536.092	9.93
536.291	9.86
536.491	9.94
536.69	9.94
536.889	9.85
537.088	9.87
537.288	9.94
537.487	9.97
537.686	9.98
537.886	10.08
538.085	10.09
538.284	10.2
538.483	10.14
538.682	10.19
538.882	10.15
539.081	10.17
539.28	10.03
539.479	10
539.678	9.88
539.877	10
540.076	9.94
540.275	9.99
540.474	10.07
540.673	10.15
540.872	10.03
541.071	10.11
541.27	10.14
541.469	10.14
541.668	10.13
541.867	10.18
542.066	10.2
542.265	10.25
542.464	10.25
542.663	10.25
542.862	10.36
543.06	10.39
543.259	10.4
543.458	10.38
543.657	10.39
543.856	10.36
544.054	10.32
544.253	10.29
544.452	10.29
544.651	10.4
544.849	10.33
545.048	10.37
545.247	10.38
545.445	10.46
545.644	10.4
545.843	10.43
546.041	10.44
546.24	10.51
546.438	10.51
546.637	10.59
546.836	10.68
547.034	10.68
547.233	10.74
547.431	10.74
547.63	10.73
547.828	10.75
548.027	10.81
548.225	10.75
548.423	10.76
548.622	10.84
548.82	10.83
549.019	10.84
549.217	10.92
549.415	10.98
549.614	10.98
549.812	10.98
550.01	11.03
550.209	11.07
550.407	11.1
550.605	11.09
550.803	11.19
551.002	11.21
551.2	11.21
551.398	11.31
551.596	11.44
551.794	11.43
551.993	11.47
552.191	11.51
552.389	11.54
552.587	11.52
552.785	11.57
552.983	11.62
553.181	11.7
553.379	11.7
553.577	11.76
553.775	11.84
553.973	11.91
554.171	11.97
554.369	12.03
554.567	12.07
554.765	12.08
554.963	12.15
555.161	12.06
555.359	12.07
555.557	12.13
555.755	12.21
555.952	12.2
556.15	12.36
556.348	12.49
556.546	12.58
556.744	12.57
556.941	12.65
557.139	12.68
557.337	12.66
557.535	12.65
557.732	12.76
557.93	12.83
558.128	12.85
558.325	12.98
558.523	13.03
558.721	13.08
558.918	13.1
559.116	13.19
559.313	13.19
559.511	13.37
559.708	13.44
559.906	13.49
560.104	13.51
560.301	13.6
560.498	13.57
560.696	13.6
560.893	13.71
561.091	13.85
561.288	13.95
561.486	14.03
561.683	14.07
561.88	14.1
562.078	14.18
562.275	14.13
562.473	14.23
562.67	14.42
562.867	14.53
563.064	14.6
563.262	14.68
563.459	14.74
563.656	14.76
563.853	14.79
564.051	14.87
564.248	15.04
564.445	15.07
564.642	15.12
564.839	15.24
565.036	15.4
565.234	15.49
565.431	15.54
565.628	15.6
565.825	15.76
566.022	15.84
566.219	15.87
566.416	16
566.613	16.15
566.81	16.11
567.007	16.02
567.204	16.05
567.401	16.12
567.598	16.15
567.795	16.22
567.991	16.31
568.188	16.47
568.385	16.56
568.582	16.62
568.779	16.69
568.976	16.75
569.172	16.74
569.369	16.75
569.566	16.82
569.763	16.9
569.96	16.93
570.156	16.99
570.353	17.04
570.55	17.08
570.746	17.1
570.943	17.28
571.14	17.33
571.336	17.4
571.533	17.46
571.729	17.5
571.926	17.49
572.123	17.58
572.319	17.58
572.516	17.57
572.712	17.65
572.909	17.64
573.105	17.68
573.302	17.74
573.498	17.85
573.695	17.79
573.891	17.92
574.087	17.91
574.284	17.93
574.48	17.8
574.677	17.86
574.873	17.76
575.069	17.87
575.266	17.95
575.462	17.99
575.658	18.07
575.854	18.19
576.051	18.18
576.247	18.05
576.443	18.14
576.639	18.08
576.835	18.03
577.032	17.96
577.228	18.12
577.424	18.14
577.62	18.1
577.816	18.08
578.012	18.08
578.208	17.98
578.404	18.05
578.6	18.09
578.796	18.14
578.993	18.23
579.189	18.25
579.384	18.09
579.58	18.05
579.776	18.02
579.972	17.92
580.168	17.84
580.364	17.96
580.56	17.96
580.756	17.95
580.952	17.93
581.148	18.02
581.343	18.01
581.539	18.13
581.735	18.18
581.931	18.3
582.127	18.31
582.322	18.2
582.518	18.22
582.714	18.16
582.909	18.08
583.105	18.06
583.301	18.16
583.496	18.09
583.692	18.05
583.888	18.01
584.083	18.1
584.279	18.12
584.474	18.07
584.67	18.11
584.866	18.23
585.061	18.08
585.257	18.11
585.452	18.16
585.648	18.09
585.843	18.05
586.039	18.14
586.234	18.09
586.429	18.08
586.625	18.15
586.82	18.11
587.015	18.06
587.211	18.02
587.406	18.01
587.601	18.01
587.797	17.97
587.992	17.92
588.187	18
588.383	18.02
588.578	18.07
588.773	18.14
588.968	18.22
589.163	18.28
589.359	18.26
589.554	18.29
589.749	18.3
589.944	18.37
590.139	18.36
590.334	18.44
590.529	18.34
590.724	18.41
590.919	18.49
591.114	18.46
591.309	18.51
591.504	18.63
591.699	18.59
591.894	18.57
592.089	18.6
592.284	18.63
592.479	18.68
592.674	18.69
592.869	18.77
593.064	18.88
593.259	18.98
593.454	19.11
593.648	19.22
593.843	19.2
594.038	19.24
594.233	19.18
594.428	19.08
594.622	19.17
594.817	19.29
595.012	19.33
595.206	19.34
595.401	19.48
595.596	19.48
595.79	19.54
595.985	19.6
596.18	19.68
596.374	19.73
596.569	19.81
596.763	19.64
596.958	19.64
597.153	19.74
597.347	19.8
597.542	19.95
597.736	20.11
597.931	20.21
598.125	20.22
598.319	20.28
598.514	20.18
598.708	20.3
598.903	20.39
599.097	20.39
599.291	20.48
599.486	20.54
599.68	20.54
599.874	20.55
600.069	20.67
600.263	20.65
600.457	20.75
600.651	20.85
600.846	20.86
601.04	20.88
601.234	20.87
601.428	20.88
601.622	20.97
601.817	21.04
602.011	21.12
602.205	21.24
602.399	21.24
602.593	21.1
602.787	21.2
602.981	21.15
603.175	21.11
603.369	21.03
603.563	21.1
603.757	21.1
603.951	21.12
604.145	21.17
604.339	21.3
604.533	21.21
604.727	21.18
604.921	21.12
605.115	21.06
605.309	21.06
605.502	21.12
605.696	21.07
605.89	21.11
606.084	21.07
606.278	20.99
606.471	20.95
606.665	20.87
606.859	20.76
607.053	20.75
607.246	20.75
607.44	20.7
607.634	20.64
607.827	20.74
608.021	20.66
608.214	20.58
608.408	20.55
608.602	20.52
608.795	20.44
608.989	20.34
609.182	20.26
609.376	20.23
609.569	20.18
609.763	20
609.956	20.01
610.15	19.92
610.343	19.9
610.537	19.81
610.73	19.83
610.923	19.8
611.117	19.85
611.31	19.7
611.504	19.72
611.697	19.63
611.89	19.59
612.083	19.46
612.277	19.48
612.47	19.35
612.663	19.33
612.856	19.26
613.05	19.18
613.243	19.15
613.436	19.02
613.629	18.91
613.822	18.79
614.015	18.74
614.209	18.48
614.402	18.55
614.595	18.58
614.788	18.57
614.981	18.42
615.174	18.42
615.367	18.31
615.56	18.22
615.753	18.06
615.946	18.05
616.139	18.13
616.332	18.23
616.525	18.21
616.718	18.27
616.911	18.29
617.103	18.26
617.296	18.19
617.489	18.08
617.682	18.02
617.875	18.03
618.067	17.98
618.26	17.79
618.453	17.77
618.646	17.78
618.838	17.75
619.031	17.77
619.224	17.81
619.417	17.84
619.609	17.81
619.802	17.7
619.994	17.58
620.187	17.61
620.38	17.57
620.572	17.55
620.765	17.66
620.957	17.58
621.15	17.51
621.342	17.47
621.535	17.5
621.727	17.42
621.92	17.47
622.112	17.38
622.305	17.45
622.497	17.29
622.69	17.25
622.882	17.22
623.074	17.3
623.267	17.19
623.459	17.17
623.651	17.07
623.844	17.09
624.036	17.07
624.228	17.01
624.42	17.05
624.613	17.24
624.805	17.18
624.997	17.17
625.189	17.21
625.381	17.29
625.574	17.21
625.766	17.12
625.958	17.1
626.15	17.07
626.342	16.95
626.534	16.85
626.726	16.88
626.918	16.86
627.11	16.82
627.302	16.81
627.494	16.79
627.686	16.82
627.878	16.73
628.07	16.72
628.262	16.62
628.454	16.64
628.646	16.65
628.838	16.73
629.029	16.71
629.221	16.86
629.413	16.75
629.605	16.61
629.797	16.54
629.989	16.49
630.18	16.38
630.372	16.4
630.564	16.39
630.755	16.38
630.947	16.46
631.139	16.31
631.33	16.2
631.522	16.31
631.714	16.33
631.905	16.26
632.097	16.27
632.289	16.29
632.48	16.18
632.672	15.97
632.863	15.82
633.055	15.81
633.246	15.83
633.438	15.76
633.629	15.84
633.821	15.97
634.012	15.98
634.203	15.91
634.395	15.95
634.586	15.96
634.777	15.84
634.969	15.83
635.16	15.87
635.351	15.77
635.543	15.72
635.734	15.76
635.925	15.77
636.117	15.79
636.308	15.88
636.499	15.78
636.69	15.69
636.881	15.66
637.073	15.73
637.264	15.6
637.455	15.66
637.646	15.79
637.837	15.79
638.028	15.73
638.219	15.82
638.41	15.84
638.601	15.69
638.792	15.78
638.983	15.7
639.174	15.65
639.365	15.63
639.556	15.72
639.747	15.58
639.938	15.58
640.129	15.6
640.32	15.61
640.511	15.61
640.701	15.72
640.892	15.72
641.083	15.8
641.274	15.84
641.465	15.82
641.655	15.68
641.846	15.62
642.037	15.55
642.228	15.47
642.418	15.54
642.609	15.61
642.8	15.75
642.99	15.7
643.181	15.72
643.372	15.75
643.562	15.73
643.753	15.62
643.943	15.6
644.134	15.54
644.324	15.35
644.515	15.35
644.705	15.41
644.896	15.43
645.086	15.46
645.277	15.51
645.467	15.5
645.658	15.36
645.848	15.35
646.038	15.38
646.229	15.4
646.419	15.36
646.61	15.36
646.8	15.31
646.99	15.21
647.18	15.11
647.371	15.15
647.561	15.16
647.751	15.14
647.941	15.17
648.132	15.2
648.322	15.09
648.512	15.14
648.702	15.19
648.892	15.16
649.082	15.21
649.272	15.08
649.462	14.95
649.653	14.81
649.843	14.76
650.033	14.73
650.223	14.77
650.413	14.71
650.603	14.8
650.793	14.76
650.983	14.67
651.172	14.66
651.362	14.68
651.552	14.63
651.742	14.59
651.932	14.55
652.122	14.6
652.312	14.61
652.502	14.54
652.691	14.55
652.881	14.55
653.071	14.45
653.261	14.3
653.45	14.15
653.64	14.04
653.83	13.89
654.019	13.7
654.209	13.67
654.399	13.65
654.588	13.51
654.778	13.42
654.968	13.39
655.157	13.27
655.347	13.21
655.536	13.19
655.726	13.08
655.915	13.03
656.105	13.01
656.294	12.92
656.484	12.72
656.673	12.65
656.863	12.64
657.052	12.49
657.241	12.36
657.431	12.29
657.62	12.19
657.809	11.85
657.999	11.75
658.188	11.59
658.377	11.47
658.567	11.41
658.756	11.34
658.945	11.15
659.134	11.05
659.324	10.92
659.513	10.81
659.702	10.76
659.891	10.73
660.08	10.66
660.269	10.61
660.458	10.53
660.648	10.48
660.837	10.35
661.026	10.34
661.215	10.29
661.404	10.16
661.593	10.16
661.782	10
661.971	9.91
662.16	9.82
662.349	9.8
662.538	9.61
662.726	9.7
662.915	9.57
663.104	9.56
663.293	9.58
663.482	9.54
663.671	9.47
663.86	9.42
664.048	9.3
664.237	9.11
664.426	9.05
664.615	8.99
664.803	8.97
664.992	8.93
665.181	8.92
665.369	8.84
665.558	8.79
665.747	8.75
665.935	8.82
666.124	8.9
666.312	8.97
666.501	8.95
666.69	8.77
666.878	8.7
667.067	8.53
667.255	8.58
667.444	8.81
667.632	8.92
667.82	9.09
668.009	9.07
668.197	9.04
668.386	8.9
668.574	9.06
668.762	8.9
668.951	8.93
669.139	8.92
669.327	8.84
669.516	8.84
669.704	8.81
669.892	8.93
670.08	8.93
670.269	8.92
670.457	8.79
670.645	8.78
670.833	8.83
671.021	8.82
671.21	8.83
671.398	9.08
671.586	9.02
671.774	8.87
671.962	8.84
672.15	8.89
672.338	8.71
672.526	8.82
672.714	8.84
672.902	8.96
673.09	9.1
673.278	9.31
673.466	9.35
673.654	9.58
673.842	9.57
674.03	9.52
674.218	9.29
674.405	9.38
674.593	9.26
674.781	9.27
674.969	9.34
675.157	9.61
675.344	9.73
675.532	9.89
675.72	10.05
675.908	10.02
676.095	9.81
676.283	9.82
676.471	9.89
676.658	9.82
676.846	9.89
677.033	10.07
677.221	10.05
677.409	9.89
677.596	10.08
677.784	10.14
677.971	10.19
678.159	10.29
678.346	10.46
678.534	10.49
678.721	10.65
678.909	10.58
679.096	10.56
679.283	10.7
679.471	10.76
679.658	10.76
679.846	11.04
680.033	11.23
680.22	11.28
680.408	11.21
680.595	11.28
680.782	11.19
680.969	11.11
681.157	11.08
681.344	11.1
681.531	11.05
681.718	11.12
681.905	11.33
682.093	11.48
682.28	11.72
682.467	12.01
682.654	12.12
682.841	12.12
683.028	12.23
683.215	12.34
683.402	12.18
683.589	12.4
683.776	12.6
683.963	12.53
684.15	12.55
684.337	12.78
684.524	12.71
684.711	12.77
684.898	12.8
685.085	12.91
685.271	13.16
685.458	13.4
685.645	13.52
685.832	13.91
686.019	14.13
686.205	14.15
686.392	14.35
686.579	14.64
686.766	14.98
686.952	15.21
687.139	15.67
687.326	15.85
687.512	16.02
687.699	16.12
687.886	16.41
688.072	16.39
688.259	16.75
688.445	17.17
688.632	17.37
688.818	17.9
689.005	18.26
689.191	18.57
689.378	19.05
689.564	19.59
689.751	19.88
689.937	20.33
690.124	20.91
690.31	20.97
690.496	21.42
690.683	21.76
690.869	22.22
691.055	22.57
691.242	23.4
691.428	23.92
691.614	24.53
691.8	25.23
691.987	26
692.173	26.55
692.359	27.1
692.545	27.75
692.731	28.28
692.918	28.71
693.104	29.08
693.29	29.87
693.476	30.45
693.662	31.11
693.848	31.55
694.034	32.18
694.22	32.74
694.406	33.31
694.592	33.93
694.778	34.7
694.964	35.34
695.15	35.87
695.336	36.43
695.522	37.13
695.708	37.87
695.894	38.67
696.08	39.38
696.265	40.14
696.451	40.66
696.637	41.33
696.823	41.74
697.009	42.2
697.194	42.76
697.38	43.21
697.566	43.6
697.751	44.38
697.937	45.06
698.123	45.63
698.308	46.32
698.494	47.01
698.68	47.65
698.865	48.2
699.051	48.83
699.236	49.42
699.422	49.91
699.607	50.35
699.793	50.86
699.978	51.37
700.164	51.78
700.349	52.59
700.535	52.94
700.72	53.46
700.906	54
701.091	54.47
701.276	54.96
701.462	56.16
701.647	56.79
701.832	57.41
702.018	58.1
702.203	58.07
702.388	57.65
702.573	57.91
702.759	58.59
702.944	58.79
703.129	59.33
703.314	59.8
703.499	60.22
703.684	60.14
703.87	61.26
704.055	62.33
704.24	63.13
704.425	63.82
704.61	64.31
704.795	64.06
704.98	63.98
705.165	64.23
705.35	64.41
705.535	64.93
705.72	65.49
705.905	65.83
706.09	66.38
706.275	66.6
706.459	66.5
706.644	66.8
706.829	67.18
707.014	67.17
707.199	67.61
707.384	68.1
707.568	68.47
707.753	69.1
707.938	69.34
708.123	69.61
708.307	69.78
708.492	69.73
708.677	69.84
708.861	70.04
709.046	69.84
709.231	70.61
709.415	71.19
709.6	71.22
709.784	71.19
709.969	72.04
710.153	71.54
710.338	71.61
710.522	71.83
710.707	72.44
710.891	72.43
711.076	72.93
711.26	73.12
711.445	73.21
711.629	73.4
711.813	73.23
711.998	73.62
712.182	73.34
712.366	73.94
712.551	74.85
712.735	75.34
712.919	75.08
713.103	75.78
713.288	75.37
713.472	74.62
713.656	74.98
713.84	75.2
714.024	75.5
714.208	75.2
714.393	75.64
714.577	75.83
714.761	75.96
714.945	75.59
715.129	76.34
715.313	76.25
715.497	76.24
715.681	76.9
715.865	76.88
716.049	77.27
716.233	77.34
716.417	77.46
716.601	77.15
716.785	77.36
716.968	77.17
717.152	77.02
717.336	77.04
717.52	76.99
717.704	77.29
717.888	77.6
718.071	77.91
718.255	78.16
718.439	78.5
718.622	78.47
718.806	78.17
718.99	77.76
719.174	77.38
719.357	77.49
719.541	77.78
719.724	78.44
719.908	80.2
720.092	80.94
720.275	81.05
720.459	80.85
720.642	80.41
720.826	79.48
721.009	79.3
721.193	79.07
721.376	79.92
721.559	80.27
721.743	80.54
721.926	80.88
722.11	81.23
722.293	80.15
722.476	79.97
722.66	79.9
722.843	79.48
723.026	79.1
723.21	79.9
723.393	80.79
723.576	80.97
723.759	81.14
723.942	81.33
724.126	81.01
724.309	80.8
724.492	81.28
724.675	80.82
724.858	81.88
725.041	82.45
725.224	82.34
725.407	81.62
725.59	82.36
725.774	81.33
725.957	80.89
726.14	80.73
726.322	81.36
726.505	81.45
726.688	82.25
726.871	82.49
727.054	82.48
727.237	82.33
727.42	82.66
727.603	82.72
727.786	82.73
727.968	83.13
728.151	83.25
728.334	82.85
728.517	82.46
728.699	83.16
728.882	83.3
729.065	83.59
729.248	84.23
729.43	84.71
729.613	84.94
729.796	85.44
729.978	84.63
730.161	84.73
730.343	84.15
730.526	84.52
730.708	83.98
730.891	84.87
731.073	84.59
731.256	84.85
731.438	84.17
731.621	84.88
731.803	84.78
731.986	84.81
732.168	84.86
732.35	85.28
732.533	84.6
732.715	84.73
732.898	85.26
733.08	85.54
733.262	85.77
733.444	85.68
733.627	85.85
733.809	86.03
733.991	86.56
734.173	85.87
734.355	86.25
734.538	87.02
734.72	86.48
734.902	86.28
735.084	87.07
735.266	87.45
735.448	86.81
735.63	86.55
735.812	86.51
735.994	87.28
736.176	87.36
736.358	87.61
736.54	89.19
736.722	88.77
736.904	87.57
737.086	87.34
737.268	88.27
737.45	88.19
737.632	89.19
737.814	89.38
737.995	89.64
738.177	88.94
738.359	88.01
738.541	87.56
738.723	87.88
738.904	88.04
739.086	87.83
739.268	88.1
739.449	88.19
739.631	88.47
739.813	89.21
739.994	89.12
740.176	89.43
740.358	89.53
740.539	89.76
740.721	89.61
740.902	90.61
741.084	90.14
741.265	90.4
741.447	89.93
741.628	89.93
741.81	88.84
741.991	89.7
742.172	90.15
742.354	91.14
742.535	90.86
742.717	91.74
742.898	91.16
743.079	91.36
743.261	90.47
743.442	89.53
743.623	90.26
743.804	90.14
743.986	90.88
744.167	90.38
744.348	91.52
744.529	90.82
744.71	90.34
744.891	89.09
745.073	88.25
745.254	87.42
745.435	86.55
745.616	86.73
745.797	86.73
745.978	88.3
746.159	88.41
746.34	88.37
746.521	89.89
746.702	88.78
746.883	87.87
747.064	88.18
747.245	88.69
747.426	86.8
747.606	87.92
747.787	88.57
747.968	87.81
748.149	88.8
748.33	89.67
748.51	88.88
748.691	89.12
748.872	90.7
749.053	88.69
749.233	89.05
749.414	89.17
749.595	88.04
749.775	86.63
749.956	87.16
750.137	87.47
750.317	89.7
750.498	91.75
750.678	92.59
750.859	93.44
751.04	92.9
751.22	89.48
751.4	88.58
751.581	87.54
751.761	87.37
751.942	87.87
752.122	89.24
752.303	87.76
752.483	87.56
752.663	87.7
752.844	86.99
753.024	87.95
753.204	88.79
753.385	89.08
753.565	88.73
753.745	87.75
753.925	85.86
754.106	85.3
754.286	85.17
754.466	84.88
754.646	85.69
754.826	86.46
755.006	85.74
755.187	86.35
755.367	86.67
755.547	86.31
755.727	87.76
755.907	89.02
756.087	90.53
756.267	89.01
756.447	89.74
756.627	87.46
756.807	86.69
756.987	84.68
757.167	86.11
757.346	85.52
757.526	84.84
757.706	86.11
757.886	86.3
758.066	86.45
758.246	87.08
758.425	87.53
758.605	86.92
758.785	87
758.965	87.51
759.144	86.72
759.324	87.6
759.504	87.4
759.683	88.56
759.863	85.16
760.043	84.36
760.222	83.8
760.402	83.85
760.581	82.91
760.761	86.5
760.94	85.8
761.12	88.68
761.299	89.48
761.479	89.2
761.658	86.09
761.838	87.43
762.017	85.6
762.197	85.09
762.376	85.29
762.555	86.75
762.735	86.34
762.914	85.49
763.093	84.86
763.273	83.7
763.452	82.98
763.631	81.88
763.81	82
763.99	81.37
764.169	81.56
764.348	81.16
764.527	81.13
764.706	82.55
764.885	84.38
765.064	84.72
765.243	85.46
765.423	87.22
765.602	85.51
765.781	83.54
765.96	82.47
766.139	81.43
766.318	82.36
766.497	81.98
766.676	82.16
766.854	83.55
767.033	85.5
767.212	83.12
767.391	83.65
767.57	83.84
767.749	83.66
767.928	84.04
768.106	83.61
768.285	81.62
768.464	81.98
768.643	80.56
768.821	79.21
769	81.57
769.179	81.92
769.357	80.25
769.536	81.29
769.715	82.03
769.893	81.92
770.072	80.82
770.25	82.34
770.429	82.88
770.607	80.91
770.786	79.89
770.964	83.83
771.143	83.36
771.321	83.01
771.5	84.15
771.678	82.36
771.857	78.9
772.035	79.07
772.213	78.16
772.392	75.5
772.57	78.81
772.748	80.96
772.927	79.12
773.105	79.83
773.283	81.86
773.461	81.84
773.64	81.33
773.818	82.71
773.996	83.04
774.174	81.43
774.352	78.26
774.531	76.48
774.709	79.03
774.887	78.02
775.065	77.48
775.243	78.23
775.421	78.7
775.599	77.82
775.777	75.55
775.955	75.15
776.133	73.67
776.311	73.91
776.489	71.35
776.667	73.12
776.844	76.51
777.022	77.14
777.2	76.38
777.378	76.46
777.556	75.3
777.734	76.53
777.911	77.13
778.089	79.22
778.267	78.89
778.445	78.01
778.622	74.49
778.8	72.52
778.978	73.41
779.155	73.23
779.333	74.62
779.511	72.26
779.688	75.19
779.866	70.44
780.043	69.63
780.221	67.96
780.398	68.79
780.576	68.64
780.753	71.92
780.931	71.61
781.108	72.89
781.286	77.49
781.463	75.18
781.64	71.07
781.818	74.66
781.995	75.5
782.172	72.9
782.35	75.14
782.527	81.65
782.704	77.93
782.882	78.27
783.059	76.91
783.236	78.15
783.413	75.25
783.59	76.32
783.768	71.95
783.945	75.69
784.122	72.54
784.299	71.27
784.476	68.76
784.653	69.21
784.83	65.49
785.007	63.75
785.184	65.26
785.361	65.09
785.538	71.1
785.715	74.21
785.892	73.94
786.069	74.33
786.246	78.23
786.423	75.75
786.6	72.73
786.776	78.38
786.953	78.85
787.13	79.9
787.307	79.17
787.484	80.49
787.66	75.12
787.837	76.3
788.014	73.76
788.191	71.53
788.367	66.35
788.544	69.47
788.721	65.58
788.897	67.62
789.074	66.88
789.25	69.05
789.427	68.88
789.603	68.52
789.78	69.05
789.956	70.46
790.133	71.72
790.309	71.94
790.486	73.76
790.662	68.3
790.839	66.42
791.015	66.13
791.192	63.4
791.368	65.23
791.544	67.66
791.721	69.4
791.897	68.53
792.073	65.75
792.249	57.67
792.426	60.97
792.602	64.37
792.778	67.55
792.954	69.96
793.13	72.45
793.307	66.49
793.483	56.67
793.659	54.65
793.835	58.79
794.011	56.16
794.187	56.03
794.363	61.7
794.539	66.14
794.715	60.24
794.891	59.8
795.067	60.21
795.243	60.31
795.419	56.16
795.595	57.58
795.771	59.69
795.947	58.59
796.122	59.09
796.298	63.5
796.474	65.8
796.65	66.27
796.826	66.64
797.001	64.72
797.177	55.41
797.353	54.28
797.529	59.31
797.704	57.88
797.88	53.78
798.056	52.66
798.231	56.26
798.407	56.62
798.582	60.56
798.758	72.55
798.934	80.24
799.109	74.95
799.285	71.27
799.46	70.17
799.636	64.75
799.811	59.45
799.986	59.28
800.162	58.62
800.337	60.54
800.513	59.02
800.688	62.94
800.863	66.88
801.039	61.54
801.214	57.68
801.389	60.42
801.565	55.68
801.74	46.55
801.915	54.41
802.09	53.09
802.265	60.72
802.441	60.53
802.616	63.92
802.791	60.15
802.966	64.22
803.141	57.1
803.316	52.92
803.491	55.14
803.666	62.78
803.841	53.49
804.016	46.29
804.191	54.51
804.366	52.74
804.541	42.92
804.716	48.89
804.891	46.64
805.066	43.97
805.241	43.36
805.416	45.71
805.591	40.55
805.765	44.68
805.94	46.47
806.115	43.04
806.29	35
806.464	40.73
806.639	37.46
806.814	32.85
806.989	29.76
807.163	48.26
807.338	48.63
807.512	49.23
807.687	32.24
807.862	45.48
808.036	44.12
808.211	41.4
808.385	52.03
808.56	75.76
808.734	80.56
808.909	72.51
809.083	69.72
809.258	71.57
809.432	67.78
809.606	49.44
809.781	45.4
809.955	47.32
810.13	44.6
810.304	42.05
810.478	44.22
810.652	49.4
810.827	54.06
811.001	52.39
811.175	43.95
811.349	45.46
811.524	41.7
811.698	29.2
811.872	28.13
812.046	40.58
812.22	51.43
812.394	47.68
812.568	55.24
812.742	53.17
812.916	49.16
813.09	35.64
813.264	34.73
813.438	39.08
813.612	35.87
813.786	25.83
813.96	25.86
814.134	27.67
814.308	31.28
814.482	37.78
814.656	40.58
814.83	49.89
815.003	55.68
815.177	47.08
815.351	38.7
815.525	42.09
815.698	40.77
815.872	29.66
816.046	22.38
816.219	30.72
816.393	45.03
816.567	50.6
816.74	56.1
816.914	67.43
817.088	72.73
817.261	52.8
817.435	40.06
817.608	38.85
817.782	17.06
817.955	9.21
818.129	18.9
818.302	28.06
818.475	39.98
818.649	51.83
818.822	47.62
818.996	68.12
819.169	68.11
819.342	41.74
819.516	43.4
819.689	48.81
819.862	37
820.035	26.98
820.209	31.81
820.382	34.22
820.555	36.09
820.728	19.29
820.901	19.78
821.075	20.32
821.248	17.86
821.421	2.16
821.594	18.24
821.767	43.63
821.94	57.04
822.113	35.62
822.286	32.96
822.459	34.02
822.632	10.13
822.805	-3.46
822.978	4.7
823.151	9.67
823.324	-1.13
823.496	-15.82
823.669	-17.49
823.842	-6.57
824.015	-16.01
824.188	-16.88
824.361	4.77
824.533	3.27
824.706	5.46
824.879	15.03
825.051	24.07
825.224	16.21
825.397	20.03
825.569	3.86
825.742	19.3
825.915	26.95
826.087	40.01
826.26	22.76
826.432	33.33
826.605	31.31
826.777	20.69
826.95	10.3
827.122	7.57
827.295	17.67
827.467	19.01
827.64	0.8
827.812	8.44
827.984	12.2
828.157	-19.23
828.329	-66.36
828.501	-57.87
828.674	-32.3
828.846	-41
829.018	-3.33
829.19	-10.91
829.363	28.46
829.535	24.21
829.707	30.83
829.879	10.18
830.051	9.24
830.223	-24.45
830.395	-44.63
830.568	-47.45
830.74	-56.17
830.912	-16.55
831.084	-23.68
831.256	-20.06
831.428	-31.25
831.6	-43.16
831.772	-77.77
831.943	-82.51
832.115	-67.92
832.287	-32.76
832.459	-4.23
832.631	6.46
832.803	33.8
832.975	61.7
833.146	28.78
833.318	0.11
833.49	17.86
833.662	-12.51
833.833	-47.45
834.005	-23.52
834.177	-18.33
834.348	-38.11
834.52	-57.39
834.692	-58.34
834.863	-98.24
835.035	-66.34
835.206	-106.22
835.378	-47.68
835.549	-45.93
835.721	-30.82
835.892	-39.33
836.064	-34.58
836.235	-55.48
836.407	-32.3
836.578	-69.41
836.749	-63.97
836.921	-70.23
837.092	-88.51
837.264	-81.79
837.435	-96
837.606	-38.37
837.777	-10.26
837.949	12.78
838.12	15.75
838.291	45.65
838.462	29.54
838.633	3.91
838.805	-11.44
838.976	-8.89
839.147	-109.21
839.318	-119.4
839.489	-170.57
839.66	-143.7
839.831	-99.95
840.002	-74.22
840.173	-78.24
840.344	-13
840.515	-20.7
840.686	-205.4
840.857	-153.76
841.028	-172.2
841.199	-139.03
841.369	-155.6
841.54	-122.26
841.711	-65.77
841.882	-50.32
842.053	-63.22
842.223	-54.41
842.394	-19.13
842.565	-21.72
842.736	-1.27
842.906	7.13
843.077	9.07
843.248	3.53
843.418	-15.99
843.589	-52.55
843.759	-28.19
843.93	-5.51
844.101	-10.97
844.271	23.29
844.442	25.97
844.612	32.23
844.783	-2.06
844.953	-50.69
845.123	-108.79
845.294	-142.78
845.464	-429.4
845.635	-211.1
845.805	-73.96
845.975	-33.11
846.146	-60.99
846.316	-61.8
846.486	-38.54
846.656	3.31
846.827	-22.41
846.997	-30.35
847.167	7.51
847.337	-9.21
847.507	-76.42
847.677	-46.42
847.848	18.01
848.018	5.85
848.188	6.84
848.358	-9.88
848.528	-24.7
848.698	-82.95
848.868	-223.66
849.038	-370.27
849.208	-148.92
849.378	-83.38
849.548	-66.77
849.718	-34.59
849.887	-9.9
850.057	-45.83
850.227	-92.77
850.397	-130.77
850.567	-244.3
850.737	-555
850.906	-1539.38
851.076	-1262.11
851.246	-618.06
851.415	-94.75
851.585	-66.29
851.755	-75.09
851.924	-24.17
852.094	-47.27
852.264	-211.39
852.433	-1339.9
852.603	-334.53
852.772	-349.66
852.942	-182.48
853.111	-137.58
853.281	-122.07
853.45	-86.47
853.62	-158.41
853.789	-164.51
853.959	-193.8
854.128	-133.62
854.297	-157.32
854.467	-170.06
854.636	-163.21
854.805	-79.67
854.975	-115.37
855.144	-148.36
855.313	-95.45
855.482	-353.65
855.652	-277.29
855.821	-251.6
855.99	-73.14
856.159	-29.1
856.328	-23.63
856.497	-41.2
856.667	-15.82
856.836	-31.33
857.005	-70.65
857.174	-114.39
857.343	-146.05
857.512	-198.03
857.681	-217.99
857.85	-304.51
858.019	-156.13
858.188	-132.37
858.356	-110.6
858.525	-190.51
858.694	-131.73
858.863	-332.88
859.032	-212.54
859.201	-329.77
859.369	-255.23
859.538	-219.89
859.707	-118.38
859.876	-195.14
860.044	-183.4
860.213	-32.08
860.382	-67.12
860.55	-68.61
860.719	-27.66
860.888	-10.84
861.056	-66.59
861.225	-69.16
861.393	-46.14
861.562	-67.72
861.73	-201.86
861.899	-509.69
862.067	-3201.72
862.236	-154.62
862.404	-327.23
862.572	-174.3
862.741	-41.96
862.909	-42.38
863.078	-174.4
863.246	-114.52
863.414	-112.11
863.582	-117.35
863.751	-134.34
863.919	-148.63
864.087	-112.16
864.255	-115.54
864.424	-540.84
864.592	-156.71
864.76	-204.04
864.928	-572.4
865.096	-382.64
865.264	-279.38
865.432	-2307.95
865.6	-213.75
865.768	-138.36
865.936	-118.88
866.104	-172.05
866.272	-306.09
866.44	-614.76
866.608	1026.36
866.776	485.97
866.944	4280.23
867.112	-690.89
867.28	-266.35
867.448	-138.73
867.615	-54.72
867.783	-43.2
867.951	-75.67
868.119	-38.86
868.286	-38.72
868.454	-240.22
868.622	-180.07
868.789	-218.23
868.957	-6675
869.125	-4085.53
869.292	-259.09
869.46	-423.28
869.627	-113.37
869.795	-99.32
869.963	-51.01
870.13	-22.79
870.298	1.74
870.465	-76.25
870.632	-98.5
870.8	-90.6
870.967	-182.46
871.135	-261.98
871.302	-265.15
871.469	-310.95
871.637	-472.42
871.804	-266.51
871.971	-310.38
872.139	-743.02
872.306	-120.15
872.473	-116.03
872.64	-460.3
872.807	-254.71
872.975	-67.45
873.142	-444.55
873.309	3222.97
873.476	-64.09
873.643	11.56
873.81	-39.36
873.977	-1.98
874.144	-8.87
874.311	-231.88
874.478	-279.41
874.645	-287.28
874.812	-247.4
874.979	-187.99
875.146	-175.13
875.313	-148.98
875.48	-30.19
875.647	-41.95
875.813	-79.63
875.98	-48.05
876.147	-81.66
876.314	-205.89
876.481	1491.32
876.647	-1542.13
876.814	546.37
876.981	-47.88
877.147	-41.57
877.314	15.15
877.481	45.49
877.647	23.5
877.814	-65.89
877.98	-122.13
878.147	-84.01
878.314	-31.93
878.48	-105.81
878.647	-38.22
878.813	6.14
878.979	4.49
879.146	-60.39
879.312	-36.14
879.479	-71.01
879.645	-188.62
879.811	-379.02
879.978	-976.72
880.144	-287.78
880.31	-183.23
880.477	-450.91
880.643	-506.51
880.809	-199.47
880.975	-205.31
881.142	-1007.73
881.308	-144.43
881.474	-82.5
881.64	-110.97
881.806	-185.5
881.972	-118.25
882.138	-100.49
882.304	-166.43
882.47	-270.16
882.636	-1026.64
882.802	-345.38
882.968	-144.64
883.134	-72.95
883.3	-90.17
883.466	-10.91
883.632	30.25
883.798	2.54
883.964	-32.89
884.129	-26.91
884.295	-63.26
884.461	-139.46
884.627	-196.51
884.793	-182.35
884.958	-107.7
885.124	-173.54
885.29	-280.64
885.455	-447.82
885.621	-160.86
885.787	-266.45
885.952	-188.85
886.118	-142.27
886.283	-146.86
886.449	-325.68
886.614	-323.84
886.78	-535.96
886.945	2564.75
887.111	-973.7
887.276	-788.35
887.442	-1291.36
887.607	-704.01
887.773	-439.01
887.938	-433.55
888.103	-482.51
888.269	-337.5
888.434	-553.78
888.599	-233.53
888.764	-94.63
888.93	-37.79
889.095	-82.71
889.26	-96.82
889.425	-71.44
889.59	-42.43
889.756	-117.05
889.921	-82.38
890.086	-30.96
890.251	-41.69
890.416	-237.19
890.581	-1937.9
890.746	281.25
890.911	683.12
891.076	234.3
891.241	-567.54
891.406	-12.52
891.571	-57.94
891.736	-310.32
891.901	-731.42
892.065	1119.23
892.23	208.95
892.395	314.38
892.56	385.4
892.725	-671.48
892.889	-2059.76
893.054	-353.47
893.219	-158.75
893.384	-112.14
893.548	-138.29
893.713	-139.24
893.878	-89.02
