Data from Ofra_1a_PS_6EV18_Reflection_1.txt Node
Date: Tue Jul 20 10:59:29 EDT 2021
User: Adam
Spectrometer: FLMT01687
Trigger mode: 0
Integration Time (sec): 1.004000E0
Scans to average: 2
Electric dark correction enabled: true
Nonlinearity correction enabled: false
Boxcar width: 2
XAxis mode: Wavelengths
Number of Pixels in Spectrum: 3648
>>>>>Begin Spectral Data<<<<<
179.494	-34.01
179.716	-161.07
179.937	453.18
180.158	-564.97
180.38	158.76
180.601	90.76
180.823	-14.08
181.044	-157.53
181.265	-160.62
181.486	153.03
181.708	39.44
181.929	11118.18
182.15	-260.51
182.372	809.36
182.593	176.88
182.814	-321.73
183.035	-55.23
183.257	-4.62
183.478	-17.64
183.699	-34.38
183.92	-40.71
184.141	-31.06
184.363	-23.55
184.584	-33.54
184.805	-6.18
185.026	34.11
185.247	29.82
185.468	0.02
185.689	24.09
185.91	-9.82
186.132	14.39
186.353	24.2
186.574	38.75
186.795	30.92
187.016	50.23
187.237	50.58
187.458	30.83
187.679	42.1
187.9	52.5
188.121	77.22
188.342	72.94
188.563	96.98
188.784	89.96
189.005	84.17
189.226	60.01
189.447	37.51
189.667	19.4
189.888	-3.66
190.109	-58.93
190.33	-39.97
190.551	-29.7
190.772	-19.92
190.993	-28.45
191.214	3.23
191.434	-8.63
191.655	-5.68
191.876	23.1
192.097	19.66
192.318	52.31
192.538	19.73
192.759	14.67
192.98	11.33
193.201	14.87
193.421	-0.17
193.642	7.81
193.863	7.64
194.083	-1.18
194.304	7.59
194.525	-16.94
194.745	-0.91
194.966	9.45
195.187	12.08
195.407	-5
195.628	29.89
195.848	29.81
196.069	30.58
196.29	26.37
196.51	19.92
196.731	-19.92
196.951	-21.46
197.172	-14.26
197.392	-21.11
197.613	17.07
197.833	21.14
198.054	-11.97
198.274	-34.18
198.495	-27.86
198.715	-73.52
198.936	-43.63
199.156	-19.16
199.377	-8.9
199.597	-3.16
199.817	4.78
200.038	-24.26
200.258	-0.64
200.479	-7.82
200.699	-4.49
200.919	7.58
201.14	7.97
201.36	7.03
201.58	-11.32
201.801	-33.19
202.021	-34.26
202.241	-25.21
202.461	-28.58
202.682	19.19
202.902	30.83
203.122	26.08
203.342	44.98
203.563	44.75
203.783	9.66
204.003	-5.81
204.223	14.13
204.443	2.41
204.663	-12.85
204.884	38.89
205.104	45.11
205.324	34.74
205.544	-16.44
205.764	33.7
205.984	34.46
206.204	17.9
206.424	-12.58
206.644	-6.72
206.864	-72.48
207.084	-44.71
207.304	-48.22
207.525	-18.02
207.745	22.26
207.964	37.97
208.184	34.95
208.404	41.47
208.624	51.83
208.844	43.99
209.064	37.14
209.284	36.37
209.504	20.2
209.724	-3.79
209.944	-33.38
210.164	-37.89
210.384	-53.42
210.604	-87.83
210.823	-118.92
211.043	-90.08
211.263	-167.73
211.483	-114.27
211.703	-86.66
211.922	-93.28
212.142	-50.12
212.362	-7.58
212.582	0.02
212.801	11.07
213.021	-2.13
213.241	-23.21
213.461	-24.98
213.68	-14.08
213.9	-2.69
214.12	14.12
214.339	29.27
214.559	27.85
214.779	4.97
214.998	23.52
215.218	21.34
215.438	24.27
215.657	34.28
215.877	24.7
216.096	10.77
216.316	1.88
216.535	-15.7
216.755	-17.4
216.974	-4.53
217.194	-18.27
217.413	9.78
217.633	6.32
217.852	1.51
218.072	16.88
218.291	16.71
218.511	-13.64
218.73	-18.35
218.95	-39.68
219.169	-81.75
219.389	-64.47
219.608	-65.93
219.827	-41.4
220.047	-13.57
220.266	3.21
220.485	13.52
220.705	31.55
220.924	33.76
221.143	15.69
221.363	6.8
221.582	-8.2
221.801	4.09
222.021	19.64
222.24	30.01
222.459	27.3
222.678	47.52
222.897	42.89
223.117	46.78
223.336	48.61
223.555	50.95
223.774	46.8
223.993	45.03
224.213	41.78
224.432	11.34
224.651	4.76
224.87	-1.28
225.089	11.92
225.308	16.44
225.527	13.39
225.746	24.74
225.965	22.1
226.184	12.88
226.404	-21.86
226.623	-2.71
226.842	-2.39
227.061	2.13
227.28	16.89
227.499	34.31
227.718	37.08
227.936	35.31
228.155	42.66
228.374	31.6
228.593	36.77
228.812	29.83
229.031	35.6
229.25	20.43
229.469	4.43
229.688	2.63
229.907	12.84
230.125	18.54
230.344	19.7
230.563	42.2
230.782	46.84
231.001	54.49
231.22	47.44
231.438	57.78
231.657	45.27
231.876	30.49
232.095	31.39
232.313	11.43
232.532	-0.49
232.751	-17.48
232.969	-18.5
233.188	-39.32
233.407	-8.86
233.625	-1.21
233.844	7.74
234.063	22.87
234.281	31.51
234.5	23.86
234.719	29.62
234.937	9.54
235.156	-17.33
235.374	-14.1
235.593	-15.72
235.811	-15.91
236.03	9.77
236.249	29.9
236.467	28.72
236.686	23.48
236.904	16.23
237.123	1.46
237.341	-13.02
237.559	-17.93
237.778	18.64
237.996	15.47
238.215	27.92
238.433	6.17
238.652	31.25
238.87	2.31
239.088	27.65
239.307	37.59
239.525	35.14
239.743	24.09
239.962	17.89
240.18	7.65
240.398	-6.05
240.617	-12.62
240.835	-36.75
241.053	-23.44
241.271	0.22
241.49	16.68
241.708	4.38
241.926	10.65
242.144	11.34
242.363	-32.85
242.581	-100.86
242.799	-95.21
243.017	-36.77
243.235	-14.92
243.453	-22.36
243.672	10.71
243.89	14.22
244.108	17.17
244.326	20.23
244.544	31.37
244.762	17.35
244.98	24.68
245.198	18.15
245.416	7.38
245.634	0.48
245.852	-9.83
246.07	-10.44
246.288	-4.76
246.506	-17.55
246.724	-16.09
246.942	-6.18
247.16	6
247.378	-7.71
247.596	38.65
247.814	45.57
248.032	33.46
248.25	49.37
248.468	37.76
248.685	36.61
248.903	37.74
249.121	33.05
249.339	22.96
249.557	16.18
249.775	17.33
249.992	12.89
250.21	17.52
250.428	24.86
250.646	21.85
250.863	-2.13
251.081	-2.66
251.299	5.7
251.517	-15.66
251.734	0.01
251.952	-0.14
252.17	-2.09
252.387	-10.92
252.605	7.65
252.823	1.06
253.04	26.5
253.258	29.56
253.475	26.77
253.693	0.43
253.911	-3.71
254.128	-6.23
254.346	7.13
254.563	11.39
254.781	13.69
254.998	19.97
255.216	-0.24
255.433	-15.9
255.651	-12.51
255.868	-12.75
256.086	0.22
256.303	21.44
256.521	20.85
256.738	23.28
256.956	21.09
257.173	1.74
257.39	1.93
257.608	-1.71
257.825	-5.84
258.043	16.08
258.26	22.51
258.477	18.53
258.695	17.77
258.912	10.57
259.129	-11.05
259.346	-27.08
259.564	-29.03
259.781	-23.53
259.998	-10.09
260.216	0.37
260.433	-3.26
260.65	7.04
260.867	0.19
261.084	8.39
261.302	13.47
261.519	40.82
261.736	33.89
261.953	32.6
262.17	24.22
262.387	16.02
262.604	3.08
262.822	7.99
263.039	16.25
263.256	20.73
263.473	17.33
263.69	21.26
263.907	15.77
264.124	13.39
264.341	10.69
264.558	-2.63
264.775	9.87
264.992	7.57
265.209	-2.85
265.426	-19.81
265.643	14.41
265.86	-4.55
266.077	11.4
266.294	21.13
266.51	37.33
266.727	36.98
266.944	40.42
267.161	37.7
267.378	40.41
267.595	30.74
267.812	6.68
268.028	-13.73
268.245	-11.01
268.462	-2.54
268.679	-4.74
268.896	30.52
269.112	18.8
269.329	-11.32
269.546	0.84
269.763	9.85
269.979	-1.65
270.196	12.53
270.413	19.64
270.629	-4.39
270.846	-7.21
271.063	2.07
271.279	-2.22
271.496	-1.82
271.712	-2.01
271.929	-2.59
272.146	-0.38
272.362	6.59
272.579	4.22
272.795	6.59
273.012	7.93
273.228	-1.61
273.445	-5.87
273.661	8.02
273.878	12.98
274.094	22.71
274.311	11.43
274.527	19.47
274.744	20.98
274.96	15.13
275.177	14.82
275.393	29.18
275.609	30.02
275.826	20.26
276.042	11.33
276.259	10.11
276.475	5.53
276.691	-5.64
276.908	-2.7
277.124	15.17
277.34	-3.97
277.557	-10.35
277.773	-19.83
277.989	-28.33
278.205	-28.01
278.422	-21.45
278.638	-29.5
278.854	-14.38
279.07	10.83
279.286	3.18
279.503	19.26
279.719	29.92
279.935	25.15
280.151	6.77
280.367	22.07
280.583	16.49
280.799	-8.02
281.016	-28.09
281.232	-7.36
281.448	-22.88
281.664	-15.9
281.88	12.74
282.096	21.27
282.312	12.91
282.528	10.67
282.744	13.7
282.96	-8.86
283.176	-31.08
283.392	-53.88
283.608	-55.86
283.824	-92.54
284.04	-139.24
284.256	-67.95
284.471	-33.43
284.687	-11.84
284.903	-1.4
285.119	25.48
285.335	22.54
285.551	7.12
285.767	-0.92
285.982	-16.06
286.198	-51.23
286.414	-53.4
286.63	-38.48
286.846	-12.17
287.061	5.5
287.277	24.89
287.493	34.83
287.709	49.01
287.924	23.66
288.14	33.58
288.356	23.27
288.571	20.36
288.787	5.3
289.003	11.07
289.218	-13.37
289.434	-4.05
289.65	22.09
289.865	29.33
290.081	28.4
290.296	37.09
290.512	37.92
290.727	9.45
290.943	7.49
291.159	2.4
291.374	-21.19
291.59	-9.15
291.805	-8.7
292.021	-14.91
292.236	-29.24
292.451	-7.14
292.667	-6.32
292.882	8.83
293.098	18.69
293.313	17.15
293.529	8.33
293.744	-4.06
293.959	-13.41
294.175	-0.68
294.39	13.33
294.605	28.25
294.821	12.46
295.036	22.08
295.251	17.9
295.467	8.49
295.682	-2.88
295.897	7.64
296.112	-10.5
296.328	-11.08
296.543	-16.54
296.758	-16
296.973	-10.95
297.188	-16.68
297.404	-53.52
297.619	-72.94
297.834	-78.83
298.049	-70.6
298.264	-37.54
298.479	-14.09
298.694	26.77
298.909	37.06
299.125	35.15
299.34	37.68
299.555	39.61
299.77	32.96
299.985	28.54
300.2	20.13
300.415	17.55
300.63	15.79
300.845	4.67
301.06	6.31
301.275	17.84
301.49	14.21
301.704	23.83
301.919	27.11
302.134	16.56
302.349	5.85
302.564	3.71
302.779	-16.17
302.994	8.71
303.209	19.94
303.423	26.33
303.638	28.45
303.853	21.76
304.068	-27.7
304.283	-27.16
304.497	-44.61
304.712	-19.06
304.927	-4.99
305.142	16.43
305.356	9.32
305.571	15.07
305.786	10.01
306	11.99
306.215	0.21
306.43	8.39
306.644	20.09
306.859	-7.62
307.074	3.19
307.288	2.03
307.503	22.49
307.717	-0.14
307.932	18.89
308.147	6.46
308.361	13.47
308.576	-15.37
308.79	0.01
309.005	-15.04
309.219	3.11
309.434	15.22
309.648	14.06
309.863	26.64
310.077	40.34
310.292	37.7
310.506	10.75
310.72	10.27
310.935	12.7
311.149	19.37
311.364	16.44
311.578	19.16
311.792	36.41
312.007	40.35
312.221	6.17
312.435	14.08
312.649	37.27
312.864	-0.27
313.078	-6.89
313.292	8.81
313.507	6.33
313.721	-8.14
313.935	15.6
314.149	19.67
314.363	1.14
314.578	14.3
314.792	6.83
315.006	-1.16
315.22	3.9
315.434	23.05
315.648	15.12
315.862	15.94
316.077	18.89
316.291	10.93
316.505	-14.86
316.719	-23.61
316.933	-8.74
317.147	-1.34
317.361	-7.5
317.575	13.52
317.789	26.68
318.003	17.17
318.217	7.11
318.431	2.11
318.645	-12.83
318.859	-10.38
319.073	3.63
319.287	6.68
319.5	21.43
319.714	23.8
319.928	18.3
320.142	12.59
320.356	40.36
320.57	16.31
320.784	24.34
320.997	13.73
321.211	27.76
321.425	-12.51
321.639	18.54
321.853	28.69
322.066	29.25
322.28	16.79
322.494	25.93
322.707	27.02
322.921	20.04
323.135	36.49
323.349	33.96
323.562	34.82
323.776	30.09
323.989	24.57
324.203	5.57
324.417	1.68
324.63	-8.65
324.844	-23.95
325.057	-45.22
325.271	-21.22
325.485	-20.11
325.698	6.49
325.912	24.23
326.125	29.9
326.339	32.71
326.552	34.99
326.766	16.91
326.979	26.53
327.193	19.14
327.406	-2.82
327.619	5.28
327.833	15.88
328.046	6.26
328.26	4.37
328.473	22.87
328.686	14.72
328.9	14.19
329.113	11.78
329.326	21.71
329.54	12.77
329.753	23.87
329.966	19.07
330.179	20.7
330.393	20.49
330.606	18.26
330.819	1.21
331.032	7.5
331.246	10.15
331.459	18.88
331.672	29.13
331.885	33.51
332.098	25.06
332.311	8.91
332.525	5.02
332.738	3.4
332.951	-9.32
333.164	7.38
333.377	14.07
333.59	5.09
333.803	-7.61
334.016	9.79
334.229	6.4
334.442	17.41
334.655	30.43
334.868	37.81
335.081	28.67
335.294	11.77
335.507	15.97
335.72	11.24
335.933	8.72
336.146	16.59
336.359	31.58
336.572	35.41
336.785	40.27
336.997	42.1
337.21	48.48
337.423	22.81
337.636	-3.54
337.849	-24.5
338.062	-16.28
338.274	-11.1
338.487	-11.92
338.7	-11.49
338.913	2.83
339.125	-6.29
339.338	-20.05
339.551	-5.07
339.763	-11.5
339.976	-10.12
340.189	-16.57
340.402	-7.87
340.614	-1.03
340.827	7.81
341.039	7.61
341.252	15.79
341.465	-6.32
341.677	-9.39
341.89	-28.88
342.102	-16.86
342.315	-17.35
342.527	-3.31
342.74	-18.73
342.952	2.92
343.165	-10.2
343.377	6.91
343.59	20.91
343.802	37.6
344.015	39.08
344.227	35.42
344.44	27.48
344.652	19.58
344.864	8.02
345.077	1.54
345.289	18.94
345.502	34.85
345.714	36.85
345.926	43.48
346.139	37.72
346.351	29.39
346.563	35.64
346.775	35.18
346.988	31.24
347.2	26.28
347.412	25.81
347.624	5.23
347.837	1.65
348.049	9.62
348.261	3.27
348.473	-12.28
348.685	-11.13
348.897	-11.94
349.11	-14.16
349.322	-2.05
349.534	12.98
349.746	10.24
349.958	7.2
350.17	-1.94
350.382	-12.41
350.594	-11.7
350.806	9.32
351.018	16.86
351.23	31.66
351.442	45.45
351.654	37.7
351.866	22.63
352.078	28.54
352.29	16.17
352.502	12.61
352.714	18.61
352.926	22.32
353.138	20.67
353.35	23.02
353.561	18.74
353.773	19.75
353.985	29.92
354.197	20.14
354.409	17.67
354.621	9.56
354.832	8.96
355.044	-10.28
355.256	-31.36
355.468	-52.03
355.679	-8.29
355.891	-7.69
356.103	-6.62
356.314	7.81
356.526	3.8
356.738	-24.26
356.949	-33.52
357.161	-16.76
357.373	-6.5
357.584	3.13
357.796	12.15
358.008	31.75
358.219	28.63
358.431	11.67
358.642	15.47
358.854	14.07
359.065	4.75
359.277	-1.99
359.488	-2.78
359.7	-4.97
359.911	-8.34
360.123	-7.54
360.334	-3.08
360.546	-0.39
360.757	7.86
360.969	6.53
361.18	7.55
361.391	23.58
361.603	22.88
361.814	26.36
362.025	30.31
362.237	35.07
362.448	32.05
362.659	32.12
362.871	19.64
363.082	13.24
363.293	-20.56
363.504	-37.71
363.716	-49.76
363.927	-25.21
364.138	-46.69
364.349	-25.77
364.56	-51.72
364.772	-27.61
364.983	-27.67
365.194	-16.34
365.405	-20.84
365.616	-0.56
365.827	-14.25
366.038	-2.48
366.25	13.58
366.461	24.94
366.672	25.01
366.883	29.34
367.094	19.89
367.305	-2.32
367.516	-6.79
367.727	-17.6
367.938	-11.93
368.149	-13.11
368.36	-5.99
368.571	-16.09
368.781	-8.2
368.992	-10.41
369.203	-10.62
369.414	-13.93
369.625	-3.14
369.836	9.21
370.047	13.25
370.258	30.29
370.468	29.15
370.679	23.55
370.89	16.21
371.101	30.08
371.312	11.28
371.522	8.81
371.733	3.77
371.944	-6.64
372.155	-18.34
372.365	-10.46
372.576	-7.49
372.787	-0.42
372.997	0.45
373.208	5.31
373.419	4.5
373.629	8.95
373.84	3.58
374.05	-0.96
374.261	-24.66
374.472	-23.58
374.682	-18.17
374.893	-23.17
375.103	-2.72
375.314	5.64
375.524	9.65
375.735	7.34
375.945	7.6
376.156	-7.23
376.366	3.05
376.577	-0.65
376.787	7.89
376.997	26.99
377.208	30.69
377.418	21.06
377.629	26.5
377.839	22.26
378.049	13.3
378.26	6.32
378.47	2.97
378.68	3.01
378.89	2.55
379.101	1.73
379.311	6.83
379.521	2.53
379.732	6.69
379.942	4.65
380.152	-1.08
380.362	3.85
380.572	21.46
380.783	21.41
380.993	23.58
381.203	19.57
381.413	24.57
381.623	16.78
381.833	19.45
382.043	14.54
382.253	15.52
382.463	16.48
382.674	15.75
382.884	9.06
383.094	4.07
383.304	6.95
383.514	2.11
383.724	9.46
383.934	-2.8
384.144	3.81
384.353	9.79
384.563	10.65
384.773	6.55
384.983	19.31
385.193	13.39
385.403	8.49
385.613	8.37
385.823	3.32
386.033	5.55
386.242	9.48
386.452	10.58
386.662	12.26
386.872	22.36
387.082	13.51
387.291	8.72
387.501	9.8
387.711	11.44
387.921	4.73
388.13	10.05
388.34	15.25
388.55	11.53
388.759	1.21
388.969	3.64
389.179	4.64
389.388	2.13
389.598	3.8
389.807	8.18
390.017	5.54
390.227	3.57
390.436	4.67
390.646	1.46
390.855	1.26
391.065	2.39
391.274	2.39
391.484	0.03
391.693	1.08
391.903	1.23
392.112	-1.03
392.322	-2.46
392.531	-1.21
392.74	-0.37
392.95	-0.09
393.159	0.02
393.369	1.57
393.578	1.75
393.787	1.25
393.997	2.02
394.206	1.42
394.415	0.35
394.625	0.27
394.834	-1.06
395.043	-1.46
395.252	2.06
395.462	2.57
395.671	3.27
395.88	5.62
396.089	4.97
396.298	3.48
396.508	4.37
396.717	4.24
396.926	4.18
397.135	4.93
397.344	4.16
397.553	3.57
397.762	3.68
397.971	3.14
398.181	2.93
398.39	3.05
398.599	3.38
398.808	3.75
399.017	3.94
399.226	4.23
399.435	4.38
399.644	4.32
399.853	4.13
400.062	4.21
400.27	3.57
400.479	3.86
400.688	3.81
400.897	3.5
401.106	3.34
401.315	3.21
401.524	3.02
401.733	2.98
401.941	3.27
402.15	3.01
402.359	3.26
402.568	3.35
402.777	3.4
402.985	3.1
403.194	3.13
403.403	3.23
403.612	3.02
403.82	2.76
404.029	2.95
404.238	2.96
404.446	3.2
404.655	3.25
404.864	3.3
405.072	3.21
405.281	3.19
405.489	2.96
405.698	3.11
405.906	3.13
406.115	3.09
406.324	3.26
406.532	3.29
406.741	3.23
406.949	3.35
407.158	3.47
407.366	3.36
407.574	3.41
407.783	3.31
407.991	3.13
408.2	3.11
408.408	3.1
408.617	2.99
408.825	2.93
409.033	2.93
409.242	2.91
409.45	2.99
409.658	2.92
409.867	3.03
410.075	3.13
410.283	2.94
410.491	2.75
410.7	2.61
410.908	2.66
411.116	2.59
411.324	2.72
411.533	2.72
411.741	2.99
411.949	2.86
412.157	2.86
412.365	2.95
412.573	2.98
412.781	2.82
412.99	2.94
413.198	2.94
413.406	2.87
413.614	2.97
413.822	3.02
414.03	2.88
414.238	2.9
414.446	3.06
414.654	2.95
414.862	2.96
415.07	2.98
415.278	3.1
415.486	2.89
415.694	2.88
415.902	2.84
416.109	2.79
416.317	2.75
416.525	2.54
416.733	2.74
416.941	2.82
417.149	2.79
417.357	2.67
417.564	2.75
417.772	2.64
417.98	2.62
418.188	2.67
418.395	2.54
418.603	2.56
418.811	2.34
419.019	2.2
419.226	2.29
419.434	2.36
419.642	2.34
419.849	2.49
420.057	2.57
420.265	2.47
420.472	2.38
420.68	2.49
420.887	2.48
421.095	2.54
421.302	2.65
421.51	2.64
421.717	2.54
421.925	2.66
422.132	2.68
422.34	2.43
422.547	2.39
422.755	2.55
422.962	2.48
423.17	2.19
423.377	2.14
423.585	2.25
423.792	2.15
423.999	2.14
424.207	2.24
424.414	2.36
424.621	2.38
424.829	2.36
425.036	2.36
425.243	2.44
425.451	2.46
425.658	2.54
425.865	2.62
426.072	2.59
426.28	2.61
426.487	2.55
426.694	2.35
426.901	2.36
427.108	2.38
427.315	2.32
427.523	2.57
427.73	2.68
427.937	2.55
428.144	2.46
428.351	2.46
428.558	2.41
428.765	2.51
428.972	2.55
429.179	2.52
429.386	2.55
429.593	2.35
429.8	2.28
430.007	2.39
430.214	2.49
430.421	2.67
430.628	2.77
430.835	2.73
431.042	2.58
431.249	2.55
431.456	2.32
431.662	2.41
431.869	2.54
432.076	2.61
432.283	2.67
432.49	2.77
432.697	2.68
432.903	2.76
433.11	2.83
433.317	2.8
433.524	2.83
433.73	2.79
433.937	2.63
434.144	2.46
434.35	2.48
434.557	2.48
434.764	2.57
434.97	2.49
435.177	2.72
435.384	2.75
435.59	2.75
435.797	2.83
436.003	3.01
436.21	2.78
436.416	2.76
436.623	2.85
436.829	2.73
437.036	2.67
437.242	2.85
437.449	2.91
437.655	2.87
437.862	2.94
438.068	2.99
438.275	3.05
438.481	3.03
438.687	3.01
438.894	3.08
439.1	3.03
439.307	3.04
439.513	3.03
439.719	3.01
439.926	3.01
440.132	3.11
440.338	3.05
440.544	3.09
440.751	3.08
440.957	3.08
441.163	2.89
441.369	3.03
441.575	2.92
441.782	3.09
441.988	3.14
442.194	3.25
442.4	3.12
442.606	3.29
442.812	3.09
443.018	3.07
443.224	3.19
443.431	3.27
443.637	3.19
443.843	3.34
444.049	3.42
444.255	3.34
444.461	3.18
444.667	3.15
444.873	3.05
445.079	2.94
445.284	2.88
445.49	2.93
445.696	2.95
445.902	2.98
446.108	3.11
446.314	3.17
446.52	3.26
446.726	3.38
446.931	3.4
447.137	3.33
447.343	3.35
447.549	3.31
447.755	3.26
447.96	3.27
448.166	3.29
448.372	3.29
448.578	3.19
448.783	3.18
448.989	3.24
449.195	3.23
449.4	3.19
449.606	3.22
449.812	3.17
450.017	3.21
450.223	3.21
450.428	3.23
450.634	3.29
450.84	3.31
451.045	3.22
451.251	3.22
451.456	3.34
451.662	3.39
451.867	3.44
452.073	3.42
452.278	3.5
452.483	3.48
452.689	3.48
452.894	3.51
453.1	3.54
453.305	3.51
453.51	3.51
453.716	3.51
453.921	3.56
454.127	3.54
454.332	3.5
454.537	3.47
454.742	3.48
454.948	3.35
455.153	3.43
455.358	3.4
455.563	3.48
455.769	3.45
455.974	3.51
456.179	3.42
456.384	3.38
456.589	3.3
456.795	3.23
457	3.15
457.205	3.11
457.41	3.11
457.615	3.02
457.82	3.12
458.025	3.18
458.23	3.25
458.435	3.35
458.64	3.38
458.845	3.33
459.05	3.35
459.255	3.32
459.46	3.3
459.665	3.28
459.87	3.26
460.075	3.36
460.28	3.41
460.485	3.44
460.69	3.5
460.895	3.61
461.099	3.47
461.304	3.4
461.509	3.49
461.714	3.55
461.919	3.45
462.123	3.55
462.328	3.53
462.533	3.44
462.738	3.36
462.942	3.35
463.147	3.29
463.352	3.36
463.556	3.36
463.761	3.35
463.966	3.38
464.17	3.5
464.375	3.6
464.58	3.48
464.784	3.51
464.989	3.51
465.193	3.39
465.398	3.39
465.602	3.64
465.807	3.67
466.011	3.65
466.216	3.68
466.42	3.73
466.625	3.74
466.829	3.75
467.034	3.92
467.238	4
467.443	3.96
467.647	3.9
467.851	3.92
468.056	3.81
468.26	3.84
468.464	3.83
468.669	3.85
468.873	3.86
469.077	3.95
469.282	3.98
469.486	3.96
469.69	4.03
469.894	4.12
470.099	4.1
470.303	4.03
470.507	4.06
470.711	4.02
470.915	4
471.119	4.04
471.324	4.17
471.528	4.21
471.732	4.3
471.936	4.32
472.14	4.28
472.344	4.32
472.548	4.37
472.752	4.32
472.956	4.36
473.16	4.38
473.364	4.31
473.568	4.27
473.772	4.31
473.976	4.36
474.18	4.36
474.384	4.33
474.588	4.4
474.792	4.29
474.995	4.29
475.199	4.32
475.403	4.3
475.607	4.26
475.811	4.36
476.015	4.29
476.218	4.28
476.422	4.35
476.626	4.4
476.83	4.48
477.033	4.59
477.237	4.6
477.441	4.59
477.644	4.54
477.848	4.49
478.052	4.46
478.255	4.56
478.459	4.53
478.663	4.67
478.866	4.69
479.07	4.62
479.273	4.68
479.477	4.76
479.681	4.75
479.884	4.73
480.088	4.79
480.291	4.69
480.495	4.65
480.698	4.55
480.901	4.58
481.105	4.6
481.308	4.67
481.512	4.73
481.715	4.84
481.919	4.93
482.122	4.94
482.325	4.95
482.529	4.95
482.732	4.88
482.935	4.83
483.138	4.8
483.342	4.79
483.545	4.87
483.748	4.94
483.952	5
484.155	5.07
484.358	5.11
484.561	5.07
484.764	4.98
484.967	4.92
485.171	4.93
485.374	4.91
485.577	4.87
485.78	4.92
485.983	4.97
486.186	4.91
486.389	4.92
486.592	4.9
486.795	4.97
486.998	4.95
487.201	5.07
487.404	5.15
487.607	5.25
487.81	5.21
488.013	5.25
488.216	5.18
488.419	5.12
488.622	5.1
488.825	5.12
489.028	5.09
489.231	5.15
489.433	5.23
489.636	5.24
489.839	5.32
490.042	5.35
490.245	5.33
490.447	5.32
490.65	5.36
490.853	5.31
491.056	5.33
491.258	5.42
491.461	5.44
491.664	5.47
491.866	5.45
492.069	5.53
492.272	5.49
492.474	5.51
492.677	5.55
492.879	5.6
493.082	5.6
493.285	5.72
493.487	5.8
493.69	5.84
493.892	5.92
494.095	5.97
494.297	6.04
494.5	6.09
494.702	6.12
494.905	6.15
495.107	6.15
495.309	6.15
495.512	6.11
495.714	6.21
495.917	6.31
496.119	6.36
496.321	6.44
496.524	6.5
496.726	6.53
496.928	6.5
497.13	6.57
497.333	6.58
497.535	6.62
497.737	6.6
497.939	6.66
498.142	6.69
498.344	6.76
498.546	6.83
498.748	6.96
498.95	7.1
499.152	7.17
499.355	7.14
499.557	7.2
499.759	7.28
499.961	7.28
500.163	7.37
500.365	7.5
500.567	7.52
500.769	7.52
500.971	7.53
501.173	7.43
501.375	7.53
501.577	7.51
501.779	7.54
501.981	7.65
502.183	7.73
502.385	7.68
502.587	7.75
502.788	7.83
502.99	7.82
503.192	7.85
503.394	7.79
503.596	7.82
503.798	7.72
503.999	7.71
504.201	7.72
504.403	7.82
504.605	7.86
504.806	7.95
505.008	7.87
505.21	7.88
505.411	7.9
505.613	7.89
505.815	7.88
506.016	8.01
506.218	8.05
506.42	7.98
506.621	8.02
506.823	8.06
507.024	8.03
507.226	8.03
507.427	8.09
507.629	8.07
507.83	8.03
508.032	8.05
508.233	8.04
508.435	8.02
508.636	8.01
508.838	8.01
509.039	8
509.24	8.02
509.442	8
509.643	7.99
509.845	7.92
510.046	7.9
510.247	7.89
510.448	7.89
510.65	7.95
510.851	8.03
511.052	8
511.254	8.02
511.455	8.07
511.656	7.96
511.857	7.96
512.058	8
512.26	7.94
512.461	7.92
512.662	7.95
512.863	7.85
513.064	7.79
513.265	7.77
513.466	7.77
513.667	7.82
513.868	7.84
514.069	7.8
514.27	7.83
514.471	7.78
514.672	7.76
514.873	7.75
515.074	7.88
515.275	7.82
515.476	7.86
515.677	7.78
515.878	7.84
516.079	7.74
516.28	7.79
516.481	7.77
516.682	7.79
516.882	7.77
517.083	7.78
517.284	7.81
517.485	7.77
517.686	7.78
517.886	7.83
518.087	7.76
518.288	7.74
518.488	7.75
518.689	7.73
518.89	7.63
519.091	7.76
519.291	7.7
519.492	7.71
519.692	7.7
519.893	7.8
520.094	7.71
520.294	7.72
520.495	7.67
520.695	7.72
520.896	7.63
521.096	7.68
521.297	7.69
521.497	7.73
521.698	7.65
521.898	7.65
522.099	7.67
522.299	7.66
522.499	7.61
522.7	7.65
522.9	7.66
523.101	7.59
523.301	7.58
523.501	7.64
523.702	7.68
523.902	7.66
524.102	7.69
524.302	7.71
524.503	7.71
524.703	7.69
524.903	7.74
525.103	7.72
525.304	7.71
525.504	7.72
525.704	7.7
525.904	7.63
526.104	7.63
526.304	7.63
526.504	7.61
526.705	7.53
526.905	7.57
527.105	7.56
527.305	7.57
527.505	7.55
527.705	7.6
527.905	7.64
528.105	7.66
528.305	7.67
528.505	7.67
528.705	7.7
528.905	7.66
529.105	7.64
529.304	7.63
529.504	7.71
529.704	7.7
529.904	7.68
530.104	7.76
530.304	7.79
530.503	7.78
530.703	7.8
530.903	7.85
531.103	7.85
531.303	7.82
531.502	7.84
531.702	7.9
531.902	7.97
532.101	7.97
532.301	7.99
532.501	8.05
532.7	7.99
532.9	7.95
533.1	7.94
533.299	7.91
533.499	7.84
533.698	7.88
533.898	7.89
534.097	7.91
534.297	7.97
534.496	7.99
534.696	8.03
534.895	8.06
535.095	8.1
535.294	8.08
535.494	8.09
535.693	8.11
535.892	8.08
536.092	8
536.291	8.02
536.491	8.03
536.69	7.98
536.889	7.98
537.088	8.03
537.288	8.06
537.487	8.11
537.686	8.16
537.886	8.21
538.085	8.2
538.284	8.27
538.483	8.25
538.682	8.28
538.882	8.24
539.081	8.33
539.28	8.31
539.479	8.33
539.678	8.34
539.877	8.44
540.076	8.44
540.275	8.42
540.474	8.4
540.673	8.42
540.872	8.38
541.071	8.35
541.27	8.46
541.469	8.51
541.668	8.53
541.867	8.61
542.066	8.68
542.265	8.63
542.464	8.65
542.663	8.72
542.862	8.74
543.06	8.8
543.259	8.87
543.458	8.92
543.657	8.92
543.856	8.98
544.054	9
544.253	9.03
544.452	9.04
544.651	9.05
544.849	8.99
545.048	8.99
545.247	9.03
545.445	9.04
545.644	9.05
545.843	9.1
546.041	9.14
546.24	9.12
546.438	9.17
546.637	9.21
546.836	9.24
547.034	9.29
547.233	9.33
547.431	9.39
547.63	9.45
547.828	9.47
548.027	9.46
548.225	9.49
548.423	9.57
548.622	9.62
548.82	9.69
549.019	9.77
549.217	9.88
549.415	9.85
549.614	9.98
549.812	10.07
550.01	10.1
550.209	10.13
550.407	10.18
550.605	10.08
550.803	10.09
551.002	10.18
551.2	10.23
551.398	10.32
551.596	10.48
551.794	10.57
551.993	10.58
552.191	10.65
552.389	10.65
552.587	10.71
552.785	10.72
552.983	10.79
553.181	10.78
553.379	10.87
553.577	10.87
553.775	11.03
553.973	11.14
554.171	11.24
554.369	11.33
554.567	11.48
554.765	11.41
554.963	11.43
555.161	11.49
555.359	11.55
555.557	11.59
555.755	11.76
555.952	11.82
556.15	11.92
556.348	11.98
556.546	12.09
556.744	12.09
556.941	12.16
557.139	12.28
557.337	12.42
557.535	12.37
557.732	12.43
557.93	12.57
558.128	12.56
558.325	12.6
558.523	12.74
558.721	12.83
558.918	12.92
559.116	13.02
559.313	13.07
559.511	13.18
559.708	13.27
559.906	13.36
560.104	13.51
560.301	13.63
560.498	13.72
560.696	13.88
560.893	13.95
561.091	14.02
561.288	14.13
561.486	14.15
561.683	14.24
561.88	14.32
562.078	14.38
562.275	14.49
562.473	14.6
562.67	14.71
562.867	14.82
563.064	14.89
563.262	14.97
563.459	15.15
563.656	15.21
563.853	15.22
564.051	15.38
564.248	15.49
564.445	15.53
564.642	15.59
564.839	15.8
565.036	15.9
565.234	15.99
565.431	16.1
565.628	16.18
565.825	16.24
566.022	16.33
566.219	16.32
566.416	16.41
566.613	16.55
566.81	16.62
567.007	16.64
567.204	16.78
567.401	16.81
567.598	16.91
567.795	17.03
567.991	17.13
568.188	17.2
568.385	17.31
568.582	17.43
568.779	17.54
568.976	17.62
569.172	17.79
569.369	17.85
569.566	17.87
569.763	17.82
569.96	17.9
570.156	17.89
570.353	17.95
570.55	18.04
570.746	18.18
570.943	18.23
571.14	18.3
571.336	18.4
571.533	18.42
571.729	18.47
571.926	18.6
572.123	18.69
572.319	18.68
572.516	18.73
572.712	18.77
572.909	18.65
573.105	18.71
573.302	18.73
573.498	18.72
573.695	18.82
573.891	18.97
574.087	18.92
574.284	19.09
574.48	19.2
574.677	19.19
574.873	19.27
575.069	19.4
575.266	19.36
575.462	19.38
575.658	19.39
575.854	19.35
576.051	19.44
576.247	19.34
576.443	19.34
576.639	19.39
576.835	19.41
577.032	19.29
577.228	19.41
577.424	19.4
577.62	19.38
577.816	19.32
578.012	19.39
578.208	19.45
578.404	19.52
578.6	19.61
578.796	19.72
578.993	19.72
579.189	19.7
579.384	19.69
579.58	19.71
579.776	19.65
579.972	19.67
580.168	19.6
580.364	19.65
580.56	19.58
580.756	19.56
580.952	19.49
581.148	19.57
581.343	19.53
581.539	19.55
581.735	19.61
581.931	19.59
582.127	19.54
582.322	19.52
582.518	19.48
582.714	19.39
582.909	19.43
583.105	19.33
583.301	19.38
583.496	19.35
583.692	19.4
583.888	19.42
584.083	19.52
584.279	19.47
584.474	19.43
584.67	19.45
584.866	19.41
585.061	19.38
585.257	19.42
585.452	19.47
585.648	19.39
585.843	19.42
586.039	19.44
586.234	19.35
586.429	19.32
586.625	19.35
586.82	19.35
587.015	19.35
587.211	19.32
587.406	19.32
587.601	19.34
587.797	19.37
587.992	19.32
588.187	19.4
588.383	19.47
588.578	19.49
588.773	19.5
588.968	19.62
589.163	19.67
589.359	19.59
589.554	19.59
589.749	19.57
589.944	19.58
590.139	19.57
590.334	19.71
590.529	19.76
590.724	19.85
590.919	19.86
591.114	19.89
591.309	19.9
591.504	19.95
591.699	19.9
591.894	19.9
592.089	19.87
592.284	19.9
592.479	19.83
592.674	19.91
592.869	20
593.064	20.11
593.259	20.19
593.454	20.28
593.648	20.37
593.843	20.38
594.038	20.44
594.233	20.47
594.428	20.5
594.622	20.55
594.817	20.73
595.012	20.76
595.206	20.79
595.401	21
595.596	21.05
595.79	20.92
595.985	20.96
596.18	21.12
596.374	21.11
596.569	21.16
596.763	21.38
596.958	21.52
597.153	21.54
597.347	21.54
597.542	21.58
597.736	21.57
597.931	21.59
598.125	21.72
598.319	21.87
598.514	21.88
598.708	21.97
598.903	22.07
599.097	22.05
599.291	22
599.486	22.17
599.68	22.13
599.874	22.21
600.069	22.27
600.263	22.43
600.457	22.5
600.651	22.59
600.846	22.64
601.04	22.7
601.234	22.68
601.428	22.73
601.622	22.77
601.817	22.75
602.011	22.76
602.205	22.85
602.399	22.78
602.593	22.91
602.787	22.85
602.981	22.82
603.175	22.83
603.369	22.81
603.563	22.73
603.757	22.75
603.951	22.73
604.145	22.69
604.339	22.75
604.533	22.74
604.727	22.75
604.921	22.87
605.115	22.76
605.309	22.72
605.502	22.68
605.696	22.71
605.89	22.6
606.084	22.66
606.278	22.56
606.471	22.49
606.665	22.43
606.859	22.33
607.053	22.24
607.246	22.27
607.44	22.2
607.634	22.17
607.827	22.16
608.021	22.09
608.214	21.97
608.408	21.97
608.602	21.88
608.795	21.83
608.989	21.78
609.182	21.8
609.376	21.77
609.569	21.67
609.763	21.62
609.956	21.55
610.15	21.43
610.343	21.39
610.537	21.33
610.73	21.3
610.923	21.25
611.117	21.21
611.31	21.02
611.504	20.97
611.697	20.84
611.89	20.73
612.083	20.64
612.277	20.66
612.47	20.49
612.663	20.44
612.856	20.43
613.05	20.39
613.243	20.3
613.436	20.29
613.629	20.13
613.822	20.08
614.015	19.89
614.209	19.83
614.402	19.79
614.595	19.77
614.788	19.67
614.981	19.73
615.174	19.6
615.367	19.53
615.56	19.39
615.753	19.38
615.946	19.24
616.139	19.16
616.332	19.14
616.525	19.1
616.718	19.01
616.911	18.94
617.103	18.99
617.296	18.95
617.489	18.92
617.682	18.88
617.875	18.98
618.067	18.89
618.26	18.81
618.453	18.77
618.646	18.71
618.838	18.59
619.031	18.59
619.224	18.56
619.417	18.61
619.609	18.55
619.802	18.46
619.994	18.45
620.187	18.37
620.38	18.31
620.572	18.34
620.765	18.34
620.957	18.25
621.15	18.23
621.342	18.15
621.535	18.07
621.727	18.03
621.92	18
622.112	17.99
622.305	18
622.497	18.05
622.69	18.05
622.882	18.01
623.074	18.02
623.267	18
623.459	17.91
623.651	17.86
623.844	17.91
624.036	17.93
624.228	17.93
624.42	17.86
624.613	17.82
624.805	17.72
624.997	17.65
625.189	17.66
625.381	17.65
625.574	17.63
625.766	17.61
625.958	17.55
626.15	17.43
626.342	17.52
626.534	17.58
626.726	17.64
626.918	17.62
627.11	17.58
627.302	17.36
627.494	17.25
627.686	17.16
627.878	17.15
628.07	17.17
628.262	17.25
628.454	17.26
628.646	17.15
628.838	17.21
629.029	17.13
629.221	17.04
629.413	16.97
629.605	16.95
629.797	16.87
629.989	16.94
630.18	17
630.372	17.03
630.564	16.97
630.755	16.89
630.947	16.75
631.139	16.61
631.33	16.53
631.522	16.6
631.714	16.56
631.905	16.59
632.097	16.55
632.289	16.53
632.48	16.46
632.672	16.44
632.863	16.28
633.055	16.36
633.246	16.34
633.438	16.42
633.629	16.41
633.821	16.52
634.012	16.47
634.203	16.47
634.395	16.4
634.586	16.44
634.777	16.41
634.969	16.41
635.16	16.4
635.351	16.31
635.543	16.15
635.734	16.1
635.925	16.08
636.117	16.06
636.308	16.06
636.499	16.12
636.69	16.22
636.881	16.22
637.073	16.21
637.264	16.26
637.455	16.31
637.646	16.2
637.837	16.2
638.028	16.15
638.219	16.19
638.41	16.18
638.601	16.28
638.792	16.27
638.983	16.29
639.174	16.12
639.365	16.04
639.556	15.88
639.747	15.82
639.938	15.88
640.129	15.92
640.32	15.94
640.511	15.96
640.701	16.01
640.892	15.97
641.083	15.92
641.274	15.83
641.465	15.84
641.655	15.79
641.846	15.77
642.037	15.78
642.228	15.75
642.418	15.65
642.609	15.6
642.8	15.5
642.99	15.46
643.181	15.52
643.372	15.6
643.562	15.57
643.753	15.54
643.943	15.53
644.134	15.4
644.324	15.39
644.515	15.36
644.705	15.28
644.896	15.33
645.086	15.36
645.277	15.28
645.467	15.28
645.658	15.28
645.848	15.27
646.038	15.19
646.229	15.2
646.419	15.09
646.61	15.13
646.8	15.05
646.99	15.13
647.18	15.05
647.371	15.17
647.561	15.07
647.751	15.09
647.941	15.02
648.132	15.04
648.322	14.98
648.512	15.01
648.702	14.99
648.892	15.05
649.082	15.03
649.272	14.94
649.462	14.93
649.653	14.84
649.843	14.72
650.033	14.72
650.223	14.71
650.413	14.69
650.603	14.71
650.793	14.78
650.983	14.67
651.172	14.69
651.362	14.56
651.552	14.47
651.742	14.29
651.932	14.32
652.122	14.24
652.312	14.23
652.502	14.2
652.691	14.24
652.881	14.13
653.071	14.1
653.261	13.98
653.45	13.91
653.64	13.73
653.83	13.72
654.019	13.49
654.209	13.52
654.399	13.41
654.588	13.28
654.778	13.12
654.968	13.15
655.157	12.93
655.347	12.78
655.536	12.74
655.726	12.49
655.915	12.36
656.105	12.31
656.294	12.16
656.484	12.03
656.673	12.12
656.863	12
657.052	11.81
657.241	11.83
657.431	11.68
657.62	11.5
657.809	11.25
657.999	11.19
658.188	10.95
658.377	10.82
658.567	10.66
658.756	10.58
658.945	10.48
659.134	10.3
659.324	10.08
659.513	9.96
659.702	9.78
659.891	9.65
660.08	9.58
660.269	9.53
660.458	9.35
660.648	9.23
660.837	9.05
661.026	8.83
661.215	8.66
661.404	8.58
661.593	8.55
661.782	8.4
661.971	8.31
662.16	8.22
662.349	8.07
662.538	7.86
662.726	7.75
662.915	7.78
663.104	7.72
663.293	7.67
663.482	7.69
663.671	7.67
663.86	7.54
664.048	7.52
664.237	7.4
664.426	7.24
664.615	7.06
664.803	7
664.992	6.85
665.181	6.85
665.369	6.82
665.558	6.84
665.747	6.85
665.935	6.9
666.124	6.94
666.312	6.96
666.501	6.91
666.69	6.86
666.878	6.7
667.067	6.49
667.255	6.44
667.444	6.54
667.632	6.6
667.82	6.72
668.009	6.8
668.197	6.79
668.386	6.72
668.574	6.66
668.762	6.56
668.951	6.54
669.139	6.51
669.327	6.53
669.516	6.52
669.704	6.6
669.892	6.64
670.08	6.6
670.269	6.66
670.457	6.65
670.645	6.63
670.833	6.64
671.021	6.75
671.21	6.75
671.398	6.79
671.586	6.83
671.774	6.95
671.962	7.04
672.15	7.04
672.338	7.06
672.526	7.14
672.714	7.04
672.902	6.95
673.09	7.07
673.278	7.18
673.466	7.24
673.654	7.35
673.842	7.53
674.03	7.63
674.218	7.6
674.405	7.53
674.593	7.65
674.781	7.69
674.969	7.74
675.157	7.92
675.344	8.18
675.532	8.16
675.72	8.22
675.908	8.11
676.095	8.11
676.283	8.13
676.471	8.2
676.658	8.3
676.846	8.39
677.033	8.43
677.221	8.47
677.409	8.5
677.596	8.56
677.784	8.78
677.971	8.81
678.159	8.86
678.346	8.95
678.534	9.02
678.721	9.02
678.909	9.14
679.096	9.3
679.283	9.49
679.471	9.65
679.658	9.7
679.846	9.85
680.033	10.07
680.22	10.23
680.408	10.25
680.595	10.47
680.782	10.55
680.969	10.64
681.157	10.64
681.344	10.7
681.531	10.81
681.718	10.94
681.905	10.98
682.093	11.08
682.28	11.3
682.467	11.43
682.654	11.49
682.841	11.67
683.028	11.81
683.215	11.96
683.402	12.03
683.589	12.25
683.776	12.32
683.963	12.55
684.15	12.78
684.337	13.13
684.524	13.35
684.711	13.68
684.898	13.83
685.085	14.09
685.271	14.25
685.458	14.54
685.645	14.7
685.832	15
686.019	15.19
686.205	15.49
686.392	15.8
686.579	16.13
686.766	16.56
686.952	16.92
687.139	17.25
687.326	17.61
687.512	17.85
687.699	18.14
687.886	18.47
688.072	18.83
688.259	19.22
688.445	19.85
688.632	20.15
688.818	20.69
689.005	21.1
689.191	21.6
689.378	21.99
689.564	22.7
689.751	23.2
689.937	23.86
690.124	24.45
690.31	24.76
690.496	25.25
690.683	25.8
690.869	26.22
691.055	26.77
691.242	27.57
691.428	28.14
691.614	28.85
691.8	29.56
691.987	30.14
692.173	30.82
692.359	31.55
692.545	32.28
692.731	32.94
692.918	33.46
693.104	34.04
693.29	34.7
693.476	35.15
693.662	35.84
693.848	36.72
694.034	37.59
694.22	38.31
694.406	38.99
694.592	39.86
694.778	40.33
694.964	40.92
695.15	41.62
695.336	42.2
695.522	42.68
695.708	43.43
695.894	44.18
696.08	44.81
696.265	45.49
696.451	45.97
696.637	46.75
696.823	47.3
697.009	47.58
697.194	48.45
697.38	49.18
697.566	49.66
697.751	50.32
697.937	51.39
698.123	51.95
698.308	52.56
698.494	53.6
698.68	54.18
698.865	54.81
699.051	55.3
699.236	55.76
699.422	56.06
699.607	56.58
699.793	57.09
699.978	57.53
700.164	58.17
700.349	58.74
700.535	59.04
700.72	59.22
700.906	59.83
701.091	60.37
701.276	60.83
701.462	61.39
701.647	62.05
701.832	62.63
702.018	63.27
702.203	63.68
702.388	64.18
702.573	64.61
702.759	65.13
702.944	65.35
703.129	65.55
703.314	65.85
703.499	66.07
703.684	66.3
703.87	66.69
704.055	67.21
704.24	67.8
704.425	68.16
704.61	68.29
704.795	68.77
704.98	68.74
705.165	68.94
705.35	69.54
705.535	70.01
705.72	70.04
705.905	70.62
706.09	71.07
706.275	71.08
706.459	71.19
706.644	71.35
706.829	71.98
707.014	72.46
707.199	72.79
707.384	73.34
707.568	73.87
707.753	74.16
707.938	74.15
708.123	74.52
708.307	74.65
708.492	74.99
708.677	74.75
708.861	74.87
709.046	74.84
709.231	74.67
709.415	74.6
709.6	74.71
709.784	74.9
709.969	75.4
710.153	75.52
710.338	75.63
710.522	76.09
710.707	76.3
710.891	76.16
711.076	76.53
711.26	76.97
711.445	76.86
711.629	77.16
711.813	77.84
711.998	78.27
712.182	77.93
712.366	78.51
712.551	78.44
712.735	78.14
712.919	78.48
713.103	78.98
713.288	78.99
713.472	79.37
713.656	79.29
713.84	78.65
714.024	78.81
714.208	78.87
714.393	78.63
714.577	79.2
714.761	79.47
714.945	79.55
715.129	79.66
715.313	79.75
715.497	79.13
715.681	79.09
715.865	79.12
716.049	79.14
716.233	79.32
716.417	79.94
716.601	80.59
716.785	80.85
716.968	80.81
717.152	81.08
717.336	81.24
717.52	81.44
717.704	81.64
717.888	81.89
718.071	81.75
718.255	82.26
718.439	82.14
718.622	82.21
718.806	82.05
718.99	82.05
719.174	81.48
719.357	81.62
719.541	81.58
719.724	82.02
719.908	82.06
720.092	81.87
720.275	81.85
720.459	82.12
720.642	81.92
720.826	82.18
721.009	82.61
721.193	82.7
721.376	82.66
721.559	82.89
721.743	83.47
721.926	83.67
722.11	84.09
722.293	84.32
722.476	83.92
722.66	83.98
722.843	84.01
723.026	84.31
723.21	84.41
723.393	85.19
723.576	84.96
723.759	84.99
723.942	84.36
724.126	83.93
724.309	83.61
724.492	83.51
724.675	83.44
724.858	83.92
725.041	84.45
725.224	85.07
725.407	85.46
725.59	85.59
725.774	85.46
725.957	85.69
726.14	85.02
726.322	85.12
726.505	85.5
726.688	85.42
726.871	84.98
727.054	85.57
727.237	85.52
727.42	85.26
727.603	85.82
727.786	86.27
727.968	86.14
728.151	86.23
728.334	86.93
728.517	86.96
728.699	86.93
728.882	86.55
729.065	86.28
729.248	85.94
729.43	85.6
729.613	85.37
729.796	86.65
729.978	86.99
730.161	87.21
730.343	87.14
730.526	87.23
730.708	86.57
730.891	86.87
731.073	86.67
731.256	87.48
731.438	88.56
731.621	89.38
731.803	89.08
731.986	89.99
732.168	89.8
732.35	89.36
732.533	88.73
732.715	89.44
732.898	88.85
733.08	88.8
733.262	88.9
733.444	89.57
733.627	89.98
733.809	90.71
733.991	91.03
734.173	90.72
734.355	90.5
734.538	89.65
734.72	89.54
734.902	89.8
735.084	89.87
735.266	90.38
735.448	91.2
735.63	91.53
735.812	91.29
735.994	91.21
736.176	90.88
736.358	91.09
736.54	91.12
736.722	91.3
736.904	92.18
737.086	91.78
737.268	91.72
737.45	91.66
737.632	91.65
737.814	91.6
737.995	91.94
738.177	91.75
738.359	91.47
738.541	91.63
738.723	91.21
738.904	91.74
739.086	92.16
739.268	91.96
739.449	91.52
739.631	92.02
739.813	90.83
739.994	90.02
740.176	90.85
740.358	91.36
740.539	91.5
740.721	92.3
740.902	92.69
741.084	92.38
741.265	92.86
741.447	93.61
741.628	94.16
741.81	94.75
741.991	95.4
742.172	95.59
742.354	94.89
742.535	94.22
742.717	93.08
742.898	92.73
743.079	92.78
743.261	92.44
743.442	92.28
743.623	93.33
743.804	93.19
743.986	92.88
744.167	92.79
744.348	92.45
744.529	92.21
744.71	91.6
744.891	91.53
745.073	92.39
745.254	93.35
745.435	93.2
745.616	94.47
745.797	93.84
745.978	93.1
746.159	93.17
746.34	93.2
746.521	93.36
746.702	94.11
746.883	94.52
747.064	94.43
747.245	94.63
747.426	93.43
747.606	93.48
747.787	93.9
747.968	93.51
748.149	92.93
748.33	92.24
748.51	91.18
748.691	89.99
748.872	90.56
749.053	91.23
749.233	91.31
749.414	92.74
749.595	93.37
749.775	92.48
749.956	92.44
750.137	92.78
750.317	90.74
750.498	90.43
750.678	90.33
750.859	89.96
751.04	90.29
751.22	90.95
751.4	91.27
751.581	93.02
751.761	93.31
751.942	93.7
752.122	94.13
752.303	93.18
752.483	91.56
752.663	91.61
752.844	91.42
753.024	91.93
753.204	93.68
753.385	94.25
753.565	94.05
753.745	93.02
753.925	91.62
754.106	91.59
754.286	90.44
754.466	90.44
754.646	90.54
754.826	91.27
755.006	89.9
755.187	91.59
755.367	90.51
755.547	91.55
755.727	92.01
755.907	93.25
756.087	92.12
756.267	91.63
756.447	91.66
756.627	92.67
756.807	92.5
756.987	92.56
757.167	93.05
757.346	91.47
757.526	90.52
757.706	89.86
757.886	90.88
758.066	92.41
758.246	93.81
758.425	92.27
758.605	91.87
758.785	91.65
758.965	90.85
759.144	89.27
759.324	91.17
759.504	92.19
759.683	91.12
759.863	92.45
760.043	92.43
760.222	91.11
760.402	89.36
760.581	90.3
760.761	87.89
760.94	88.4
761.12	88.66
761.299	89.4
761.479	89.21
761.658	89.95
761.838	89.81
762.017	89.75
762.197	88.37
762.376	88.13
762.555	89.7
762.735	90.5
762.914	90.48
763.093	91.22
763.273	90.05
763.452	87.37
763.631	86.07
763.81	85.94
763.99	86.29
764.169	87.24
764.348	88.4
764.527	89.53
764.706	88.48
764.885	90.36
765.064	91.4
765.243	90.27
765.423	90.43
765.602	91.74
765.781	87.7
765.96	86.24
766.139	86.94
766.318	87.65
766.497	87.16
766.676	88.28
766.854	89.09
767.033	89.47
767.212	89.49
767.391	90
767.57	92.57
767.749	92.27
767.928	93.26
768.106	91.57
768.285	90.36
768.464	87.58
768.643	85.02
768.821	84.25
769	84.32
769.179	85.48
769.357	86.23
769.536	86.82
769.715	85.54
769.893	87.64
770.072	87.05
770.25	85.77
770.429	87.25
770.607	87.88
770.786	85.68
770.964	86.01
771.143	87.14
771.321	86.94
771.5	87.9
771.678	87.63
771.857	84.54
772.035	85.69
772.213	86.59
772.392	84.41
772.57	84.59
772.748	86.82
772.927	86.12
773.105	87.28
773.283	89.05
773.461	90.04
773.64	89.23
773.818	89.72
773.996	88.16
774.174	87.84
774.352	84.54
774.531	84.85
774.709	83.87
774.887	80.94
775.065	81.2
775.243	83.7
775.421	83.73
775.599	86.08
775.777	87.5
775.955	86.37
776.133	84.97
776.311	84.5
776.489	82.56
776.667	82.55
776.844	83.58
777.022	85.39
777.2	85.16
777.378	84.68
777.556	85.31
777.734	85.57
777.911	86.04
778.089	86.75
778.267	87.35
778.445	87.96
778.622	86.56
778.8	83.37
778.978	84.45
779.155	86.02
779.333	87.43
779.511	88.35
779.688	90.92
779.866	90.1
780.043	88.65
780.221	87.34
780.398	84.06
780.576	84.1
780.753	83.56
780.931	82.41
781.108	83.18
781.286	86.29
781.463	83.21
781.64	82.76
781.818	83.85
781.995	84.92
782.172	83.14
782.35	87.37
782.527	87.42
782.704	86.57
782.882	82.51
783.059	84.27
783.236	82.93
783.413	80.85
783.59	79.92
783.768	79.68
783.945	77.62
784.122	77.4
784.299	79.85
784.476	79.09
784.653	77.44
784.83	78.01
785.007	76.22
785.184	75.76
785.361	78.38
785.538	80.76
785.715	84.8
785.892	86.47
786.069	86.22
786.246	84.15
786.423	83.21
786.6	79.53
786.776	78.95
786.953	78.31
787.13	81.24
787.307	81.41
787.484	78.84
787.66	77.94
787.837	77.36
788.014	75.86
788.191	75.15
788.367	76.6
788.544	76.55
788.721	77.15
788.897	76.27
789.074	76.2
789.25	75.46
789.427	74.62
789.603	73.78
789.78	71.74
789.956	71.66
790.133	70.86
790.309	72.55
790.486	76.13
790.662	77.91
790.839	80.64
791.015	83.12
791.192	80.12
791.368	76.03
791.544	76.87
791.721	72.31
791.897	69.35
792.073	68.26
792.249	68.52
792.426	69.86
792.602	72.08
792.778	71.28
792.954	76.6
793.13	77.84
793.307	77.18
793.483	74.88
793.659	76.67
793.835	77.01
794.011	78.81
794.187	76.62
794.363	78.97
794.539	80.58
794.715	78.74
794.891	78.97
795.067	80.39
795.243	78.36
795.419	77.16
795.595	81.26
795.771	76.49
795.947	76.75
796.122	75.95
796.298	77.22
796.474	75.76
796.65	80.69
796.826	78.11
797.001	79.9
797.177	74.28
797.353	73.81
797.529	72.61
797.704	72.28
797.88	70.59
798.056	75.72
798.231	66.71
798.407	67.86
798.582	67.01
798.758	70.55
798.934	72.15
799.109	75.73
799.285	74.25
799.46	73.75
799.636	70.09
799.811	64.13
799.986	67.57
800.162	64.67
800.337	70.99
800.513	72.1
800.688	72.62
800.863	73.81
801.039	76.34
801.214	66.32
801.389	67.78
801.565	69.17
801.74	66.88
801.915	67.41
802.09	71.44
802.265	69.39
802.441	71.31
802.616	71.15
802.791	71.62
802.966	73.98
803.141	76.51
803.316	78.39
803.491	76.02
803.666	77.98
803.841	75.42
804.016	69.99
804.191	66.79
804.366	70.17
804.541	67.34
804.716	66.06
804.891	68.29
805.066	74.86
805.241	71.24
805.416	75.55
805.591	78.54
805.765	90.42
805.94	73.56
806.115	73.4
806.29	68.01
806.464	70.1
806.639	67.23
806.814	76.64
806.989	80.97
807.163	86.02
807.338	80.29
807.512	70.88
807.687	70.57
807.862	67.88
808.036	62.22
808.211	67.44
808.385	68.77
808.56	64.23
808.734	59.24
808.909	62
809.083	62.36
809.258	70.5
809.432	79.12
809.606	83.79
809.781	76.34
809.955	72.04
810.13	63.57
810.304	58.88
810.478	62.38
810.652	63.29
810.827	63.37
811.001	64.86
811.175	65.38
811.349	72.23
811.524	76.45
811.698	72.31
811.872	80.98
812.046	74.17
812.22	68.53
812.394	64.27
812.568	67.03
812.742	62.48
812.916	73.31
813.09	72.14
813.264	71.57
813.438	76.29
813.612	70.19
813.786	66.55
813.96	69.76
814.134	74.16
814.308	70.28
814.482	74.48
814.656	74.34
814.83	65.7
815.003	68.18
815.177	73.5
815.351	81.63
815.525	90.88
815.698	92.7
815.872	77.83
816.046	65.74
816.219	59.41
816.393	49.06
816.567	50.3
816.74	64.16
816.914	71.54
817.088	69.2
817.261	67.2
817.435	73.22
817.608	56.88
817.782	56.73
817.955	65.09
818.129	71.01
818.302	78.58
818.475	89.71
818.649	88.12
818.822	76.4
818.996	88.48
819.169	82.54
819.342	81.67
819.516	85.03
819.689	87.61
819.862	72.82
820.035	70.48
820.209	62.77
820.382	53.81
820.555	47.55
820.728	52.21
820.901	38.22
821.075	47.84
821.248	53.22
821.421	60.53
821.594	51.15
821.767	61.97
821.94	60.11
822.113	58.45
822.286	60.22
822.459	63.9
822.632	64.49
822.805	58.93
822.978	71.12
823.151	66.95
823.324	55.51
823.496	52.16
823.669	63.35
823.842	60.78
824.015	64.06
824.188	75.08
824.361	75.27
824.533	65.53
824.706	54.77
824.879	56.08
825.051	64.31
825.224	68.75
825.397	62.15
825.569	66.45
825.742	72.78
825.915	70.06
826.087	49.94
826.26	51.15
826.432	42.45
826.605	32.94
826.777	33.98
826.95	48.06
827.122	53.91
827.295	75.83
827.467	86.71
827.64	79.44
827.812	91.33
827.984	95.95
828.157	74.32
828.329	69.9
828.501	69.87
828.674	52.94
828.846	35.67
829.018	32.32
829.19	30.11
829.363	25.47
829.535	36.68
829.707	50.7
829.879	45.37
830.051	48.82
830.223	58.3
830.395	60.69
830.568	66.17
830.74	65.81
830.912	62.93
831.084	64.96
831.256	48.53
831.428	35.09
831.6	33.55
831.772	26.46
831.943	25.14
832.115	42.21
832.287	49.27
832.459	57.89
832.631	69.12
832.803	68.04
832.975	63.66
833.146	55.18
833.318	56.13
833.49	58.17
833.662	68.19
833.833	65.16
834.005	72.21
834.177	75.73
834.348	62.12
834.52	45.65
834.692	42.05
834.863	42.66
835.035	46.66
835.206	50.75
835.378	59.93
835.549	57.56
835.721	58.37
835.892	49.4
836.064	50.9
836.235	47.89
836.407	55.91
836.578	53.77
836.749	40.18
836.921	40.97
837.092	36.55
837.264	39.9
837.435	38.21
837.606	61.55
837.777	53.45
837.949	62.02
838.12	57.4
838.291	52.22
838.462	50.25
838.633	57
838.805	44.05
838.976	46.1
839.147	55.54
839.318	47.14
839.489	29.99
839.66	50.94
839.831	49.53
840.002	48.44
840.173	45.34
840.344	48.46
840.515	37.54
840.686	39.46
840.857	33.74
841.028	37.75
841.199	41.21
841.369	34.37
841.54	10.76
841.711	22.47
841.882	38.92
842.053	34.98
842.223	51.03
842.394	63.16
842.565	46.99
842.736	56.76
842.906	64.01
843.077	58.56
843.248	75.6
843.418	85.76
843.589	82.07
843.759	93.42
843.93	96.43
844.101	78.53
844.271	94.04
844.442	106.14
844.612	90.97
844.783	106.86
844.953	102.1
845.123	84.71
845.294	81.93
845.464	92
845.635	54.31
845.805	43.97
845.975	68.88
846.146	38.58
846.316	26.85
846.486	48.5
846.656	45.3
846.827	50.53
846.997	55.88
847.167	46.99
847.337	49.6
847.507	49.37
847.677	45.32
847.848	50.16
848.018	58.68
848.188	54.39
848.358	55.91
848.528	59.48
848.698	22.44
848.868	50.56
849.038	25.88
849.208	36.44
849.378	48.73
849.548	61.78
849.718	11.31
849.887	43.46
850.057	12.15
850.227	-11.93
850.397	22.73
850.567	18.64
850.737	32.03
850.906	17.76
851.076	7.51
851.246	-12.14
851.415	-10.12
851.585	-15.57
851.755	17.63
851.924	47.38
852.094	75.81
852.264	62.77
852.433	46.46
852.603	17.89
852.772	-5
852.942	13.1
853.111	1.42
853.281	12.46
853.45	20.5
853.62	20.11
853.789	3.43
853.959	18.69
854.128	15.38
854.297	35.32
854.467	28.49
854.636	41.5
854.805	38.22
854.975	38.46
855.144	34.75
855.313	52.73
855.482	34.11
855.652	22.24
855.821	14.31
855.99	19.23
856.159	7.98
856.328	0.36
856.497	16.22
856.667	29.32
856.836	47.4
857.005	45.97
857.174	38.71
857.343	15.32
857.512	15.31
857.681	1.01
857.85	6.69
858.019	-3.27
858.188	44.32
858.356	50.01
858.525	22.68
858.694	40.12
858.863	28.03
859.032	21.04
859.201	-13.48
859.369	11.42
859.538	22.78
859.707	19.55
859.876	44.27
860.044	59.36
860.213	65.56
860.382	60.14
860.55	63.16
860.719	64.81
860.888	49.3
861.056	9.86
861.225	-12.85
861.393	21.92
861.562	-22.46
861.73	-12.1
861.899	-1.42
862.067	-7.98
862.236	-36.79
862.404	-7.62
862.572	-24.14
862.741	-19.88
862.909	-11.28
863.078	1.01
863.246	2.01
863.414	40.24
863.582	39.43
863.751	50.74
863.919	57.64
864.087	42.74
864.255	16.82
864.424	-12.46
864.592	7.79
864.76	-20.5
864.928	6.29
865.096	11.27
865.264	22.4
865.432	12.18
865.6	37.87
865.768	-23.67
865.936	-19.71
866.104	-19.88
866.272	-62.84
866.44	-42.07
866.608	12.6
866.776	19.47
866.944	41.6
867.112	41.59
867.28	49.46
867.448	49.15
867.615	31.94
867.783	21.12
867.951	40.34
868.119	53.4
868.286	43.31
868.454	41.5
868.622	41.19
868.789	30.56
868.957	28.2
869.125	40.45
869.292	34.73
869.46	33.35
869.627	2.72
869.795	-14.14
869.963	-16.02
870.13	-3.83
870.298	-0.38
870.465	37.65
870.632	30.88
870.8	37.27
870.967	47.11
871.135	21.43
871.302	-16.64
871.469	-13.83
871.637	-46.55
871.804	-33.53
871.971	-9.28
872.139	36.02
872.306	10.31
872.473	-21.81
872.64	-92.84
872.807	-146.91
872.975	-491.8
873.142	-94.87
873.309	-41.45
873.476	16.86
873.643	62.47
873.81	70.75
873.977	28.08
874.144	102.24
874.311	69.43
874.478	29.54
874.645	-17.19
874.812	46.66
874.979	31.03
875.146	-16.5
875.313	4.99
875.48	41.93
875.647	47.15
875.813	5.23
875.98	16.21
876.147	-22.39
876.314	35.19
876.481	77.79
876.647	82.28
876.814	79.9
876.981	86.23
877.147	65.74
877.314	44.63
877.481	29.34
877.647	28.55
877.814	33.47
877.98	48.04
878.147	61.4
878.314	79.83
878.48	87.5
878.647	67.16
878.813	73.02
878.979	85.98
879.146	75.44
879.312	70.47
879.479	69.21
879.645	54.4
879.811	22.44
879.978	20.89
880.144	32.2
880.31	46.68
880.477	49.42
880.643	22.3
880.809	-26.05
880.975	-89.34
881.142	-213.12
881.308	576.45
881.474	726.98
881.64	-88.76
881.806	-105.35
881.972	-0.54
882.138	30.08
882.304	57.63
882.47	31.28
882.636	35.58
882.802	14.31
882.968	2.17
883.134	13.55
883.3	16.51
883.466	38.04
883.632	50.66
883.798	23.48
883.964	17.97
884.129	-340.17
884.295	-8.62
884.461	-109.94
884.627	-24.22
884.793	-18
884.958	33.06
885.124	4.19
885.29	7.42
885.455	-57.95
885.621	-41.7
885.787	-62.55
885.952	-49.94
886.118	13.4
886.283	49.69
886.449	41.17
886.614	75.18
886.78	70.22
886.945	28.33
887.111	-22.35
887.276	-48
887.442	-161.25
887.607	-127.42
887.773	-35.86
887.938	-14.11
888.103	7.24
888.269	29.97
888.434	33.81
888.599	21.56
888.764	34.54
888.93	35.02
889.095	30.54
889.26	-5.53
889.425	-13.04
889.59	-36.23
889.756	-44.04
889.921	-46.88
890.086	2.7
890.251	172.42
890.416	36.89
890.581	39.32
890.746	74.43
890.911	51.1
891.076	7.55
891.241	20.47
891.406	24.18
891.571	64.39
891.736	51.13
891.901	84.19
892.065	88.97
892.23	89.96
892.395	31.7
892.56	46.29
892.725	28.27
892.889	107.24
893.054	78.41
893.219	21.69
893.384	-58.81
893.548	-127.98
893.713	-271.25
893.878	-417.47
