Data from Ofra_PS_T2_2A_2GT41_Reflection_1.txt Node
Date: Wed Jul 21 17:04:43 EDT 2021
User: Adam
Spectrometer: FLMT01687
Trigger mode: 0
Integration Time (sec): 1.100000E0
Scans to average: 2
Electric dark correction enabled: true
Nonlinearity correction enabled: false
Boxcar width: 2
XAxis mode: Wavelengths
Number of Pixels in Spectrum: 3648
>>>>>Begin Spectral Data<<<<<
179.494	543.8
179.716	593.18
179.937	576.97
180.158	587.19
180.38	897.97
180.601	339.64
180.823	145.72
181.044	48.22
181.265	2.02
181.486	41.76
181.708	49.13
181.929	-12.76
182.15	105.99
182.372	123.73
182.593	31.45
182.814	19.15
183.035	75.17
183.257	9.18
183.478	-54.2
183.699	-5.67
183.92	-54.83
184.141	-79.92
184.363	-87.77
184.584	-49.46
184.805	-42.48
185.026	0.3
185.247	33.06
185.468	31.2
185.689	25.23
185.91	46.96
186.132	56.27
186.353	28.38
186.574	80.05
186.795	59.76
187.016	16.6
187.237	0.3
187.458	1.66
187.679	-24.82
187.9	7.7
188.121	16.43
188.342	37.33
188.563	45.77
188.784	68.36
189.005	75.59
189.226	107.39
189.447	82.95
189.667	-11.53
189.888	-231.9
190.109	-1043.83
190.33	-576.61
190.551	-1056.42
190.772	-209.14
190.993	-93.02
191.214	-88.37
191.434	-59.41
191.655	7.02
191.876	-36.72
192.097	-122.68
192.318	-121.06
192.538	-203.15
192.759	-156.46
192.98	-50.03
193.201	10.8
193.421	6.42
193.642	38.94
193.863	50.59
194.083	32.01
194.304	-0.37
194.525	5.1
194.745	-18.82
194.966	-53.78
195.187	-61.4
195.407	-49.67
195.628	-93.91
195.848	-94.12
196.069	-54.08
196.29	-6.4
196.51	-46.36
196.731	-34.84
196.951	-60.63
197.172	-79.92
197.392	-100.82
197.613	-79.69
197.833	-131.27
198.054	-88.19
198.274	-37.33
198.495	-41.72
198.715	-13.95
198.936	-20.11
199.156	-27.2
199.377	-99.34
199.597	-97.03
199.817	-113.55
200.038	-23.08
200.258	-47.25
200.479	14.91
200.699	29.73
200.919	92.04
201.14	37.44
201.36	16.25
201.58	21.35
201.801	41.87
202.021	1.34
202.241	-2.79
202.461	-1.72
202.682	-63.17
202.902	-125.63
203.122	-87.53
203.342	-81.44
203.563	-40.77
203.783	-3.07
204.003	-32.94
204.223	-31
204.443	23.88
204.663	-12.04
204.884	-24.65
205.104	13.84
205.324	25.29
205.544	33.29
205.764	60.6
205.984	72.01
206.204	63.85
206.424	56.08
206.644	18.76
206.864	29.07
207.084	-13.76
207.304	-7.47
207.525	-100.23
207.745	-37.66
207.964	-20.74
208.184	-55.8
208.404	-91.9
208.624	-89.39
208.844	-79.04
209.064	-322.75
209.284	-337.24
209.504	-156.43
209.724	-27.28
209.944	-22.06
210.164	9.94
210.384	14.61
210.604	-16.37
210.823	-73.93
211.043	-85.11
211.263	-84.46
211.483	-77.39
211.703	-101.35
211.922	-75.32
212.142	-22.56
212.362	-9.92
212.582	-24.3
212.801	-25.24
213.021	-43.6
213.241	-57.63
213.461	-99.07
213.68	-101.78
213.9	-71.08
214.12	-44.23
214.339	-85.61
214.559	-59.59
214.779	-34.67
214.998	-40.59
215.218	-84.93
215.438	-52.15
215.657	-43.78
215.877	-32.41
216.096	-4.83
216.316	9.96
216.535	-5.37
216.755	-9.08
216.974	-80.95
217.194	-105.9
217.413	-112.08
217.633	-122.08
217.852	-242.37
218.072	-88.75
218.291	-55.25
218.511	-16.35
218.73	-37.8
218.95	-22.57
219.169	-32.06
219.389	-75.59
219.608	-53
219.827	-44.4
220.047	-25.11
220.266	-14.36
220.485	-6.89
220.705	-18.38
220.924	-29.4
221.143	7.81
221.363	-14.52
221.582	-5.43
221.801	-12.1
222.021	2.73
222.24	-91.31
222.459	-19.58
222.678	-8.38
222.897	-19.9
223.117	-47.49
223.336	-18.95
223.555	-51.64
223.774	-38.09
223.993	-17.45
224.213	29.8
224.432	-3.61
224.651	43.73
224.87	31.6
225.089	33.37
225.308	23.85
225.527	44.17
225.746	38.05
225.965	39.93
226.184	27.25
226.404	34.55
226.623	1.93
226.842	2.04
227.061	15.82
227.28	20.89
227.499	3.48
227.718	24.51
227.936	6.05
228.155	-2.6
228.374	-28.39
228.593	-2.69
228.812	6.99
229.031	7.75
229.25	-34.54
229.469	-26.96
229.688	-21.32
229.907	-11.41
230.125	-1.36
230.344	8.42
230.563	18.63
230.782	35.38
231.001	-37.09
231.22	-30.31
231.438	-7.32
231.657	12.62
231.876	-14.6
232.095	30.1
232.313	30.66
232.532	30.3
232.751	-13.92
232.969	-0.27
233.188	-35.02
233.407	37.35
233.625	31.94
233.844	32.5
234.063	8.84
234.281	20.92
234.5	-12.49
234.719	-6.98
234.937	7.96
235.156	14.04
235.374	7.77
235.593	-8.39
235.811	-26.75
236.03	-48.64
236.249	-108.48
236.467	-86.73
236.686	-18.15
236.904	-5.73
237.123	-5.06
237.341	11.15
237.559	7.89
237.778	-13.05
237.996	-9.91
238.215	-2.28
238.433	17.88
238.652	17.78
238.87	-4.28
239.088	-11.04
239.307	-10.61
239.525	-34.19
239.743	-42.53
239.962	-12.39
240.18	-23.6
240.398	-60.61
240.617	-78.65
240.835	-78.19
241.053	-79.19
241.271	-24.1
241.49	0.45
241.708	-22.05
241.926	-58.5
242.144	-16.86
242.363	-91.75
242.581	-115.28
242.799	-36.23
243.017	10.24
243.235	-22.29
243.453	0.21
243.672	7.75
243.89	-0.75
244.108	-4.64
244.326	25.19
244.544	40.22
244.762	40.59
244.98	52.83
245.198	48.81
245.416	23.18
245.634	3.56
245.852	-20.62
246.07	-46.15
246.288	-56.3
246.506	-73.18
246.724	-87.33
246.942	-80.41
247.16	-30.69
247.378	-15.55
247.596	2.1
247.814	15.67
248.032	5.62
248.25	0.69
248.468	1.91
248.685	0.44
248.903	22.99
249.121	38.81
249.339	15.62
249.557	8.99
249.775	25.97
249.992	-28.51
250.21	-36.8
250.428	-25.85
250.646	-47.86
250.863	-78.26
251.081	-30.19
251.299	-34.47
251.517	-22.75
251.734	0.48
251.952	-15.56
252.17	-24.33
252.387	-1.12
252.605	-4.92
252.823	-8.58
253.04	22.93
253.258	35.8
253.475	27.82
253.693	36.07
253.911	45.33
254.128	42.32
254.346	43.83
254.563	17.09
254.781	4.19
254.998	-16.86
255.216	-20.68
255.433	-10.65
255.651	50.91
255.868	71.44
256.086	69.43
256.303	32
256.521	16.21
256.738	-6.89
256.956	-43.6
257.173	-48.12
257.39	-44.19
257.608	-48.86
257.825	18.9
258.043	66.26
258.26	57.79
258.477	85.6
258.695	68.87
258.912	-6.21
259.129	-8.95
259.346	-49.62
259.564	-94.69
259.781	-82.76
259.998	-20.75
260.216	12.64
260.433	46.55
260.65	55.88
260.867	60.05
261.084	25.73
261.302	5.84
261.519	2.67
261.736	-43.29
261.953	-65.69
262.17	-22.94
262.387	-51.22
262.604	-79.89
262.822	-60.26
263.039	-39.96
263.256	-64.19
263.473	-41.64
263.69	-14.63
263.907	17.15
264.124	20.81
264.341	21.56
264.558	9
264.775	18.68
264.992	17.31
265.209	10.15
265.426	35.04
265.643	40.77
265.86	40.56
266.077	29.52
266.294	18.7
266.51	-37.25
266.727	-39.87
266.944	-36.2
267.161	-32.24
267.378	-6.93
267.595	17.06
267.812	-9.04
268.028	-21.09
268.245	-1.53
268.462	-32.45
268.679	-39.11
268.896	17.99
269.112	15.16
269.329	4.34
269.546	6.05
269.763	0.01
269.979	-26.18
270.196	-32.37
270.413	-51.59
270.629	-53.61
270.846	-55.35
271.063	-38.74
271.279	-31.31
271.496	-35.26
271.712	-6.93
271.929	26.76
272.146	16.26
272.362	29.75
272.579	54.68
272.795	50.4
273.012	24.49
273.228	30.13
273.445	-2.34
273.661	-26.75
273.878	-51.41
274.094	-41.93
274.311	-93
274.527	-14.25
274.744	-1.32
274.96	-2.17
275.177	9.92
275.393	38.78
275.609	23.49
275.826	26.54
276.042	21.43
276.259	-12.74
276.475	9.44
276.691	6.7
276.908	-14.06
277.124	-2.88
277.34	9.12
277.557	-28.57
277.773	-12
277.989	-8.08
278.205	-10.02
278.422	6.73
278.638	16.74
278.854	18.35
279.07	31.03
279.286	27.11
279.503	2.19
279.719	-14.54
279.935	-29.27
280.151	-38.64
280.367	-18.2
280.583	-24.52
280.799	0.39
281.016	-27.63
281.232	-3.79
281.448	-10.84
281.664	7.06
281.88	-36.02
282.096	2.06
282.312	6.34
282.528	22.45
282.744	37.68
282.96	52.65
283.176	42.75
283.392	37.36
283.608	22.41
283.824	15.79
284.04	14.94
284.256	10.59
284.471	-10.11
284.687	-12.9
284.903	-2.26
285.119	15.69
285.335	0.89
285.551	20.22
285.767	1.26
285.982	-5.45
286.198	-34.8
286.414	11.34
286.63	13.67
286.846	32.97
287.061	10.74
287.277	24.58
287.493	-8.36
287.709	-3.54
287.924	-27.38
288.14	3.78
288.356	17.13
288.571	32.64
288.787	23.48
289.003	40
289.218	25.32
289.434	-12.55
289.65	-8.49
289.865	-18.33
290.081	-4.33
290.296	-12.01
290.512	3.06
290.727	-18.71
290.943	-24.01
291.159	-27.54
291.374	-21.37
291.59	-41.77
291.805	-22.64
292.021	0.8
292.236	-1.53
292.451	14.64
292.667	25.66
292.882	29.17
293.098	6.02
293.313	-24.36
293.529	-51.07
293.744	-61.53
293.959	-60.78
294.175	-45.61
294.39	-13.04
294.605	3.21
294.821	24.67
295.036	36.13
295.251	34.78
295.467	38.94
295.682	21.36
295.897	-24.04
296.112	-41.2
296.328	-30.57
296.543	-80.76
296.758	-66.54
296.973	-2.52
297.188	22.14
297.404	-8.32
297.619	-2.34
297.834	2.9
298.049	-28.39
298.264	-58.8
298.479	1.52
298.694	2.64
298.909	3.66
299.125	10.24
299.34	26.08
299.555	-0.86
299.77	16.08
299.985	-16.04
300.2	-65.05
300.415	-91.81
300.63	-65.05
300.845	-75.77
301.06	-74.74
301.275	-38.07
301.49	-14.28
301.704	-26.26
301.919	-42.89
302.134	-36.34
302.349	-35.29
302.564	-102.9
302.779	-115.86
302.994	-82.72
303.209	-76.08
303.423	-21.72
303.638	34.73
303.853	-9.62
304.068	-7.77
304.283	2.16
304.497	-7.42
304.712	-14.4
304.927	9.04
305.142	-0.13
305.356	4.35
305.571	-5.65
305.786	-14.94
306	-29.07
306.215	-19.73
306.43	-45.45
306.644	-36.11
306.859	2.18
307.074	23.5
307.288	-9.46
307.503	-20.91
307.717	-25.24
307.932	-32.1
308.147	-49.93
308.361	-20.94
308.576	-20.46
308.79	-64.4
309.005	-54.48
309.219	-38.71
309.434	-55.02
309.648	-40.63
309.863	4.1
310.077	-6.5
310.292	-9.54
310.506	-7.76
310.72	2.36
310.935	-25.68
311.149	-12.8
311.364	6.4
311.578	15.82
311.792	-2.96
312.007	19.94
312.221	8.5
312.435	12.48
312.649	5.45
312.864	23.35
313.078	31.42
313.292	73.44
313.507	44.45
313.721	84.29
313.935	46.87
314.149	28
314.363	16.01
314.578	25.26
314.792	13.91
315.006	12.39
315.22	12.91
315.434	9.82
315.648	7.87
315.862	5.67
316.077	5.12
316.291	-8.97
316.505	15.77
316.719	-26.95
316.933	-20.77
317.147	-19.29
317.361	-50.02
317.575	-87.46
317.789	-74.84
318.003	-153.22
318.217	-116.33
318.431	-27.71
318.645	1.57
318.859	3.72
319.073	30.95
319.287	19.73
319.5	-12.57
319.714	-46.64
319.928	-65.63
320.142	-115.52
320.356	-85.65
320.57	-35.85
320.784	-26.4
320.997	-47.3
321.211	-18.23
321.425	-64.09
321.639	-82.2
321.853	-38.84
322.066	-15.03
322.28	-4.09
322.494	9.79
322.707	13.45
322.921	15.56
323.135	16.53
323.349	15.98
323.562	-8.08
323.776	-17.23
323.989	-23.1
324.203	-38.42
324.417	-48.49
324.63	-47.61
324.844	-52.22
325.057	-43.32
325.271	-29.07
325.485	5.75
325.698	21.14
325.912	37.92
326.125	2.24
326.339	2.74
326.552	-26.19
326.766	-9.95
326.979	-2.31
327.193	38.03
327.406	26.33
327.619	20.98
327.833	22.23
328.046	-0.45
328.26	-32.64
328.473	-10.84
328.686	-27.8
328.9	-36.95
329.113	-18.4
329.326	-40.71
329.54	-44.18
329.753	-57.45
329.966	-82.95
330.179	-93.27
330.393	-52.45
330.606	-35.3
330.819	-8.93
331.032	9.94
331.246	15.76
331.459	41.42
331.672	28.04
331.885	22.09
332.098	3.21
332.311	2.3
332.525	-29.52
332.738	-0.68
332.951	13.54
333.164	40.21
333.377	49.25
333.59	47.1
333.803	35.31
334.016	37.74
334.229	13.53
334.442	12.06
334.655	23.11
334.868	36.18
335.081	22.65
335.294	28.71
335.507	24.45
335.72	15.23
335.933	-2.03
336.146	-3.98
336.359	-2.38
336.572	-25.2
336.785	-50.23
336.997	-33.21
337.21	-10.57
337.423	-18.46
337.636	-26.01
337.849	-5.33
338.062	-17.92
338.274	-24.69
338.487	-25.7
338.7	-16.29
338.913	-48.12
339.125	-55.63
339.338	-97.75
339.551	-68.4
339.763	-26.24
339.976	-7.66
340.189	1.02
340.402	21.66
340.614	13.15
340.827	-1.58
341.039	-6.96
341.252	-3.73
341.465	0.48
341.677	-16.89
341.89	-55.16
342.102	-28.13
342.315	-40.01
342.527	-85.19
342.74	-49.61
342.952	-17.3
343.165	-24.49
343.377	-6.81
343.59	1.71
343.802	7.01
344.015	2.39
344.227	13.01
344.44	13.36
344.652	28.49
344.864	11.5
345.077	41.31
345.289	37.34
345.502	35.53
345.714	23.55
345.926	33.76
346.139	11.7
346.351	29.21
346.563	32.31
346.775	33.49
346.988	13.85
347.2	15.82
347.412	-39
347.624	-55.03
347.837	-68.05
348.049	-25.89
348.261	-2.24
348.473	15.3
348.685	5.41
348.897	7.17
349.11	-22.26
349.322	-54.63
349.534	-34.87
349.746	-18.38
349.958	-6.88
350.17	-0.89
350.382	11.79
350.594	1.05
350.806	6.7
351.018	3.44
351.23	11.52
351.442	-23.3
351.654	-15.31
351.866	-19.44
352.078	-23.33
352.29	-8.66
352.502	7.19
352.714	9.49
352.926	9
353.138	9.21
353.35	-2.3
353.561	4.5
353.773	-15.89
353.985	-10.03
354.197	-17.55
354.409	-21.26
354.621	-23.34
354.832	-12.06
355.044	-28.27
355.256	-32.97
355.468	-16.93
355.679	-31.1
355.891	-36.33
356.103	-32.76
356.314	-11.64
356.526	-19.2
356.738	-16.24
356.949	-25.1
357.161	1.61
357.373	-9.01
357.584	-10.79
357.796	4.16
358.008	4.93
358.219	8.12
358.431	13.22
358.642	16.98
358.854	19.03
359.065	22.49
359.277	-6.97
359.488	-11.89
359.7	-24.43
359.911	-34.47
360.123	-17.73
360.334	-27.45
360.546	-36.04
360.757	-37.98
360.969	-33.14
361.18	-36.74
361.391	-16.95
361.603	-32.14
361.814	-18.53
362.025	-23.33
362.237	-27.09
362.448	-7.68
362.659	9.36
362.871	0.97
363.082	-2.84
363.293	-6.35
363.504	-27.1
363.716	-42.25
363.927	-38.13
364.138	-51.56
364.349	-63.99
364.56	-49.22
364.772	-40.98
364.983	-17.1
365.194	-10.97
365.405	-1.11
365.616	5.33
365.827	5.65
366.038	-34.43
366.25	-36.1
366.461	-57.98
366.672	-25.26
366.883	-15.86
367.094	5.45
367.305	-3.5
367.516	2.79
367.727	-27.5
367.938	-39.06
368.149	-42.13
368.36	-24.45
368.571	-22.08
368.781	-33.34
368.992	-39.74
369.203	-57.01
369.414	-76.56
369.625	-83.91
369.836	-68.15
370.047	-86.21
370.258	-65.09
370.468	-63.41
370.679	-71.92
370.89	-66.55
371.101	-34.25
371.312	-35.37
371.522	-27.68
371.733	-13.15
371.944	-5.21
372.155	-2.39
372.365	-13.32
372.576	-7.48
372.787	-8.9
372.997	-19.63
373.208	-30.73
373.419	3.25
373.629	-34.55
373.84	-42.16
374.05	-48.49
374.261	-41.9
374.472	-61.37
374.682	3.24
374.893	5.67
375.103	39.54
375.314	39.48
375.524	33.89
375.735	16.5
375.945	27.35
376.156	-4.4
376.366	-8.81
376.577	-9.01
376.787	-9.52
376.997	-2.38
377.208	3.48
377.418	3.28
377.629	5.21
377.839	0.59
378.049	-8.94
378.26	6.55
378.47	9.78
378.68	6.08
378.89	1.54
379.101	4.77
379.311	-29.06
379.521	-54.03
379.732	-49.38
379.942	-36.15
380.152	-52.94
380.362	-23.19
380.572	-17.44
380.783	-6
380.993	-0.43
381.203	7.69
381.413	19.17
381.623	30.79
381.833	23.2
382.043	12.12
382.253	3.24
382.463	-2.3
382.674	-15.16
382.884	-23.79
383.094	-20.53
383.304	-14.27
383.514	-12.68
383.724	1.38
383.934	-1.39
384.144	-9.73
384.353	-11.82
384.563	-15.03
384.773	-14.32
384.983	-21.99
385.193	-6.37
385.403	-5.22
385.613	-4.7
385.823	-14.61
386.033	-8.11
386.242	-17.6
386.452	-17.48
386.662	-24.51
386.872	-15.36
387.082	-19.3
387.291	-23.4
387.501	-26.57
387.711	-13.08
387.921	-19.1
388.13	-14.59
388.34	-5.08
388.55	-10.56
388.759	-11.79
388.969	-1.51
389.179	-1.98
389.388	-2.37
389.598	5.7
389.807	-1.1
390.017	-10.71
390.227	-7.69
390.436	-9.87
390.646	-7.98
390.855	-3.26
391.065	0.66
391.274	-4.31
391.484	-3.05
391.693	-1.91
391.903	-2.01
392.112	3.61
392.322	8.45
392.531	12.89
392.74	12.43
392.95	8.99
393.159	6.54
393.369	5.78
393.578	2.84
393.787	0.79
393.997	4.25
394.206	1.66
394.415	1.49
394.625	1.19
394.834	0.49
395.043	0.08
395.252	2.22
395.462	3.95
395.671	5.11
395.88	6.66
396.089	6.96
396.298	5.61
396.508	4.37
396.717	3.72
396.926	4.19
397.135	4.11
397.344	4.81
397.553	5.88
397.762	7.05
397.971	6.9
398.181	7.31
398.39	6.58
398.599	5.89
398.808	5.36
399.017	5.95
399.226	6.74
399.435	7.79
399.644	7.73
399.853	7.74
400.062	7.33
400.27	6.58
400.479	6.08
400.688	5.7
400.897	5.46
401.106	5.34
401.315	5.3
401.524	5.31
401.733	5.84
401.941	6.21
402.15	6.03
402.359	5.91
402.568	6.52
402.777	6.45
402.985	6.29
403.194	6.5
403.403	6.64
403.612	6.08
403.82	6.04
404.029	6.24
404.238	6.12
404.446	6.17
404.655	5.99
404.864	5.95
405.072	5.74
405.281	5.85
405.489	5.69
405.698	5.74
405.906	5.77
406.115	5.8
406.324	5.78
406.532	5.88
406.741	6
406.949	5.98
407.158	5.97
407.366	5.92
407.574	6.02
407.783	6.06
407.991	5.82
408.2	5.92
408.408	5.89
408.617	5.79
408.825	5.55
409.033	5.78
409.242	5.83
409.45	5.83
409.658	5.74
409.867	5.95
410.075	5.76
410.283	5.62
410.491	5.64
410.7	5.5
410.908	5.43
411.116	5.7
411.324	5.68
411.533	5.56
411.741	5.79
411.949	5.79
412.157	5.57
412.365	5.52
412.573	5.49
412.781	5.47
412.99	5.37
413.198	5.53
413.406	5.59
413.614	5.57
413.822	5.41
414.03	5.32
414.238	5.09
414.446	5.05
414.654	4.89
414.862	5.01
415.07	5.15
415.278	5.43
415.486	5.25
415.694	5.45
415.902	5.29
416.109	5.1
416.317	4.9
416.525	4.9
416.733	4.96
416.941	5.06
417.149	5.26
417.357	5.43
417.564	5.62
417.772	5.79
417.98	5.71
418.188	5.63
418.395	5.47
418.603	5.59
418.811	5.11
419.019	5.16
419.226	5.29
419.434	5.46
419.642	5.05
419.849	5.29
420.057	5.25
420.265	5.15
420.472	4.77
420.68	5.06
420.887	4.9
421.095	4.91
421.302	4.93
421.51	5.22
421.717	5.09
421.925	5.17
422.132	5.07
422.34	4.75
422.547	4.69
422.755	4.58
422.962	4.58
423.17	4.46
423.377	4.59
423.585	4.6
423.792	4.61
423.999	4.73
424.207	4.8
424.414	5
424.621	4.95
424.829	4.94
425.036	4.9
425.243	5.01
425.451	4.78
425.658	4.6
425.865	4.82
426.072	4.74
426.28	4.91
426.487	4.97
426.694	5.11
426.901	4.81
427.108	4.75
427.315	4.58
427.523	4.72
427.73	4.71
427.937	4.8
428.144	4.83
428.351	4.87
428.558	5.06
428.765	4.85
428.972	4.81
429.179	4.89
429.386	5.13
429.593	4.74
429.8	4.9
430.007	5.14
430.214	5.24
430.421	5
430.628	5.03
430.835	5.09
431.042	5.17
431.249	5.15
431.456	5.08
431.662	5.15
431.869	5.17
432.076	5.16
432.283	5.1
432.49	5.13
432.697	5.22
432.903	5.03
433.11	4.93
433.317	4.94
433.524	5.16
433.73	5.09
433.937	5.43
434.144	5.47
434.35	5.52
434.557	5.3
434.764	5.37
434.97	5.23
435.177	5.34
435.384	5.28
435.59	5.44
435.797	5.57
436.003	5.61
436.21	5.54
436.416	5.74
436.623	5.79
436.829	5.89
437.036	6.05
437.242	6.1
437.449	6
437.655	6.04
437.862	5.92
438.068	5.86
438.275	5.9
438.481	6.01
438.687	5.9
438.894	5.93
439.1	5.89
439.307	6.11
439.513	6.05
439.719	6.05
439.926	6.12
440.132	6.1
440.338	5.9
440.544	5.97
440.751	6.06
440.957	6.04
441.163	5.98
441.369	6.01
441.575	5.81
441.782	5.77
441.988	5.67
442.194	5.74
442.4	5.69
442.606	6.05
442.812	6.13
443.018	6.23
443.224	6.28
443.431	6.48
443.637	6.15
443.843	6.04
444.049	6.08
444.255	6
444.461	6.01
444.667	6.02
444.873	6.17
445.079	6.14
445.284	6.26
445.49	6.02
445.696	6.03
445.902	5.95
446.108	5.86
446.314	5.76
446.52	5.83
446.726	6.02
446.931	5.98
447.137	6.1
447.343	6.21
447.549	6.17
447.755	6.09
447.96	6.19
448.166	6.08
448.372	6.04
448.578	6.13
448.783	6.07
448.989	6.13
449.195	6.32
449.4	6.36
449.606	6.33
449.812	6.32
450.017	6.22
450.223	6.12
450.428	6.02
450.634	6.13
450.84	6.26
451.045	6.21
451.251	6.2
451.456	6.49
451.662	6.55
451.867	6.6
452.073	6.65
452.278	6.77
452.483	6.74
452.689	6.5
452.894	6.46
453.1	6.5
453.305	6.37
453.51	6.22
453.716	6.27
453.921	6.33
454.127	6.37
454.332	6.39
454.537	6.38
454.742	6.38
454.948	6.34
455.153	6.25
455.358	6.31
455.563	6.54
455.769	6.62
455.974	6.61
456.179	6.53
456.384	6.5
456.589	6.37
456.795	6.27
457	6.21
457.205	6.42
457.41	6.48
457.615	6.42
457.82	6.52
458.025	6.59
458.23	6.39
458.435	6.35
458.64	6.31
458.845	6.44
459.05	6.47
459.255	6.58
459.46	6.58
459.665	6.67
459.87	6.56
460.075	6.5
460.28	6.47
460.485	6.52
460.69	6.47
460.895	6.33
461.099	6.25
461.304	6.29
461.509	6.24
461.714	6.19
461.919	6.45
462.123	6.43
462.328	6.56
462.533	6.55
462.738	6.62
462.942	6.37
463.147	6.5
463.352	6.5
463.556	6.55
463.761	6.63
463.966	6.72
464.17	6.73
464.375	6.52
464.58	6.49
464.784	6.41
464.989	6.36
465.193	6.37
465.398	6.49
465.602	6.61
465.807	6.66
466.011	6.73
466.216	6.78
466.42	6.83
466.625	6.84
466.829	6.89
467.034	6.95
467.238	7.07
467.443	7.05
467.647	6.93
467.851	7.02
468.056	7.06
468.26	6.95
468.464	6.94
468.669	7.07
468.873	7.02
469.077	7.03
469.282	7.07
469.486	7.05
469.69	7
469.894	6.85
470.099	6.83
470.303	6.91
470.507	6.82
470.711	6.83
470.915	6.84
471.119	6.79
471.324	6.66
471.528	6.79
471.732	6.79
471.936	6.81
472.14	6.8
472.344	6.85
472.548	6.87
472.752	6.9
472.956	7.08
473.16	7.12
473.364	7.11
473.568	7.07
473.772	7.16
473.976	7.06
474.18	7.05
474.384	7.07
474.588	7.04
474.792	6.88
474.995	6.91
475.199	6.98
475.403	7.03
475.607	7.09
475.811	7.12
476.015	7.19
476.218	7.24
476.422	7.13
476.626	7.18
476.83	7.32
477.033	7.26
477.237	7.13
477.441	7.22
477.644	7.2
477.848	7.14
478.052	7.12
478.255	7.22
478.459	7.28
478.663	7.44
478.866	7.49
479.07	7.53
479.273	7.67
479.477	7.6
479.681	7.5
479.884	7.48
480.088	7.44
480.291	7.34
480.495	7.4
480.698	7.4
480.901	7.46
481.105	7.61
481.308	7.61
481.512	7.56
481.715	7.59
481.919	7.55
482.122	7.51
482.325	7.51
482.529	7.56
482.732	7.59
482.935	7.48
483.138	7.39
483.342	7.47
483.545	7.53
483.748	7.54
483.952	7.69
484.155	7.84
484.358	7.86
484.561	7.76
484.764	7.74
484.967	7.82
485.171	7.92
485.374	7.84
485.577	7.97
485.78	7.99
485.983	7.94
486.186	7.73
486.389	7.78
486.592	7.74
486.795	7.82
486.998	7.77
487.201	7.9
487.404	7.91
487.607	8.01
487.81	8
488.013	8.05
488.216	7.96
488.419	7.97
488.622	7.89
488.825	7.87
489.028	7.86
489.231	7.88
489.433	7.84
489.636	7.82
489.839	7.85
490.042	7.91
490.245	7.94
490.447	8.02
490.65	8.08
490.853	8.02
491.056	8
491.258	8.08
491.461	8.15
491.664	8.19
491.866	8.2
492.069	8.33
492.272	8.28
492.474	8.31
492.677	8.42
492.879	8.59
493.082	8.67
493.285	8.86
493.487	8.87
493.69	8.86
493.892	8.75
494.095	8.72
494.297	8.69
494.5	8.75
494.702	8.77
494.905	8.93
495.107	8.95
495.309	9.01
495.512	9.16
495.714	9.29
495.917	9.39
496.119	9.49
496.321	9.62
496.524	9.64
496.726	9.66
496.928	9.71
497.13	9.73
497.333	9.77
497.535	9.78
497.737	9.85
497.939	9.85
498.142	9.92
498.344	9.98
498.546	10
498.748	10.09
498.95	10.24
499.152	10.23
499.355	10.22
499.557	10.42
499.759	10.51
499.961	10.47
500.163	10.59
500.365	10.68
500.567	10.65
500.769	10.6
500.971	10.68
501.173	10.68
501.375	10.67
501.577	10.69
501.779	10.71
501.981	10.77
502.183	10.78
502.385	10.81
502.587	10.77
502.788	10.85
502.99	10.92
503.192	11
503.394	10.96
503.596	10.96
503.798	11.03
503.999	11
504.201	11.02
504.403	11.14
504.605	11.19
504.806	11.08
505.008	11.09
505.21	11.15
505.411	11.18
505.613	11.21
505.815	11.25
506.016	11.22
506.218	11.17
506.42	11.08
506.621	11.08
506.823	11.09
507.024	11.04
507.226	11.1
507.427	11.11
507.629	11.18
507.83	11.18
508.032	11.22
508.233	11.25
508.435	11.3
508.636	11.33
508.838	11.26
509.039	11.23
509.24	11.17
509.442	11.14
509.643	11.01
509.845	11.11
510.046	11.23
510.247	11.25
510.448	11.3
510.65	11.34
510.851	11.38
511.052	11.28
511.254	11.24
511.455	11.25
511.656	11.27
511.857	11.28
512.058	11.34
512.26	11.31
512.461	11.27
512.662	11.29
512.863	11.17
513.064	11.08
513.265	11.12
513.466	11.16
513.667	11.1
513.868	11.16
514.069	11.25
514.27	11.31
514.471	11.23
514.672	11.24
514.873	11.16
515.074	11.12
515.275	10.93
515.476	10.93
515.677	10.98
515.878	11.09
516.079	11.12
516.28	11.28
516.481	11.41
516.682	11.39
516.882	11.33
517.083	11.29
517.284	11.22
517.485	11.18
517.686	11.2
517.886	11.2
518.087	11.29
518.288	11.36
518.488	11.3
518.689	11.28
518.89	11.23
519.091	11.23
519.291	11.23
519.492	11.32
519.692	11.38
519.893	11.52
520.094	11.53
520.294	11.47
520.495	11.42
520.695	11.41
520.896	11.35
521.096	11.36
521.297	11.41
521.497	11.4
521.698	11.4
521.898	11.37
522.099	11.35
522.299	11.42
522.499	11.44
522.7	11.43
522.9	11.48
523.101	11.53
523.301	11.5
523.501	11.52
523.702	11.54
523.902	11.59
524.102	11.63
524.302	11.62
524.503	11.65
524.703	11.66
524.903	11.69
525.103	11.65
525.304	11.77
525.504	11.82
525.704	11.91
525.904	11.89
526.104	11.88
526.304	11.83
526.504	11.85
526.705	11.84
526.905	11.89
527.105	11.9
527.305	11.9
527.505	11.83
527.705	11.76
527.905	11.76
528.105	11.82
528.305	11.76
528.505	11.83
528.705	11.97
528.905	11.88
529.105	11.84
529.304	11.92
529.504	12.01
529.704	11.95
529.904	12.05
530.104	12.08
530.304	12.14
530.503	12.09
530.703	12.03
530.903	12.01
531.103	12.04
531.303	11.99
531.502	12.01
531.702	12.1
531.902	12.13
532.101	12.1
532.301	12.13
532.501	12.14
532.7	12.13
532.9	12.12
533.1	12.19
533.299	12.21
533.499	12.2
533.698	12.21
533.898	12.3
534.097	12.32
534.297	12.36
534.496	12.39
534.696	12.47
534.895	12.5
535.095	12.55
535.294	12.51
535.494	12.46
535.693	12.46
535.892	12.52
536.092	12.46
536.291	12.48
536.491	12.62
536.69	12.63
536.889	12.54
537.088	12.56
537.288	12.67
537.487	12.69
537.686	12.69
537.886	12.81
538.085	12.88
538.284	12.94
538.483	12.89
538.682	12.93
538.882	12.89
539.081	12.93
539.28	12.84
539.479	12.93
539.678	12.93
539.877	13.06
540.076	13.03
540.275	13.06
540.474	13.06
540.673	13.12
540.872	13.09
541.071	13.15
541.27	13.22
541.469	13.25
541.668	13.26
541.867	13.27
542.066	13.39
542.265	13.43
542.464	13.45
542.663	13.51
542.862	13.66
543.06	13.64
543.259	13.68
543.458	13.72
543.657	13.79
543.856	13.72
544.054	13.73
544.253	13.71
544.452	13.79
544.651	13.84
544.849	13.84
545.048	13.91
545.247	13.92
545.445	13.96
545.644	13.95
545.843	13.95
546.041	13.99
546.24	14.1
546.438	14.16
546.637	14.19
546.836	14.33
547.034	14.34
547.233	14.34
547.431	14.32
547.63	14.33
547.828	14.38
548.027	14.46
548.225	14.48
548.423	14.49
548.622	14.61
548.82	14.6
549.019	14.65
549.217	14.79
549.415	14.86
549.614	14.91
549.812	14.92
550.01	14.89
550.209	14.91
550.407	14.97
550.605	15.03
550.803	15.14
551.002	15.28
551.2	15.36
551.398	15.48
551.596	15.57
551.794	15.65
551.993	15.72
552.191	15.75
552.389	15.81
552.587	15.88
552.785	15.95
552.983	15.99
553.181	16.12
553.379	16.13
553.577	16.16
553.775	16.23
553.973	16.3
554.171	16.35
554.369	16.36
554.567	16.36
554.765	16.42
554.963	16.46
555.161	16.4
555.359	16.51
555.557	16.7
555.755	16.85
555.952	17
556.15	17.18
556.348	17.26
556.546	17.3
556.744	17.29
556.941	17.28
557.139	17.34
557.337	17.42
557.535	17.42
557.732	17.57
557.93	17.78
558.128	17.81
558.325	17.96
558.523	18.02
558.721	18.06
558.918	17.98
559.116	18.11
559.313	18.07
559.511	18.21
559.708	18.21
559.906	18.29
560.104	18.28
560.301	18.4
560.498	18.4
560.696	18.5
560.893	18.54
561.091	18.63
561.288	18.72
561.486	18.76
561.683	18.82
561.88	18.97
562.078	19.09
562.275	19.12
562.473	19.25
562.67	19.38
562.867	19.38
563.064	19.41
563.262	19.48
563.459	19.55
563.656	19.55
563.853	19.66
564.051	19.76
564.248	19.88
564.445	20.01
564.642	20.08
564.839	20.27
565.036	20.4
565.234	20.54
565.431	20.6
565.628	20.68
565.825	20.69
566.022	20.78
566.219	20.73
566.416	20.76
566.613	20.84
566.81	20.93
567.007	20.85
567.204	20.9
567.401	20.94
567.598	21.01
567.795	21.07
567.991	21.17
568.188	21.27
568.385	21.34
568.582	21.31
568.779	21.21
568.976	21.31
569.172	21.36
569.369	21.29
569.566	21.4
569.763	21.51
569.96	21.46
570.156	21.37
570.353	21.48
570.55	21.52
570.746	21.56
570.943	21.7
571.14	21.78
571.336	21.84
571.533	21.87
571.729	21.89
571.926	21.88
572.123	21.96
572.319	22
572.516	21.93
572.712	21.96
572.909	22
573.105	21.98
573.302	22.02
573.498	22.17
573.695	22.14
573.891	22.15
574.087	22.19
574.284	22.13
574.48	22.01
574.677	21.97
574.873	21.99
575.069	22
575.266	22.05
575.462	22.04
575.658	22.12
575.854	22.14
576.051	22.04
576.247	21.97
576.443	22.03
576.639	22.05
576.835	21.99
577.032	22.02
577.228	22.12
577.424	22.08
577.62	22
577.816	22.08
578.012	22.08
578.208	21.99
578.404	22.07
578.6	22.06
578.796	21.98
578.993	22.05
579.189	22
579.384	21.81
579.58	21.73
579.776	21.67
579.972	21.68
580.168	21.63
580.364	21.72
580.56	21.79
580.756	21.78
580.952	21.66
581.148	21.73
581.343	21.66
581.539	21.62
581.735	21.63
581.931	21.64
582.127	21.64
582.322	21.71
582.518	21.66
582.714	21.58
582.909	21.49
583.105	21.42
583.301	21.3
583.496	21.41
583.692	21.42
583.888	21.49
584.083	21.49
584.279	21.5
584.474	21.36
584.67	21.31
584.866	21.25
585.061	21.08
585.257	21.17
585.452	21.17
585.648	21.12
585.843	21.13
586.039	21.22
586.234	21.1
586.429	21.11
586.625	21.2
586.82	21.12
587.015	21.15
587.211	21.09
587.406	21.05
587.601	21
587.797	21.02
587.992	20.98
588.187	21.05
588.383	21
588.578	20.96
588.773	21.02
588.968	21.04
589.163	21.09
589.359	21.1
589.554	21.11
589.749	21.1
589.944	21.1
590.139	21.03
590.334	21.11
590.529	21.1
590.724	21.04
590.919	21.15
591.114	21.08
591.309	21.13
591.504	21.2
591.699	21.19
591.894	21.17
592.089	21.22
592.284	21.14
592.479	21.21
592.674	21.25
592.869	21.19
593.064	21.28
593.259	21.42
593.454	21.45
593.648	21.47
593.843	21.46
594.038	21.49
594.233	21.41
594.428	21.32
594.622	21.37
594.817	21.48
595.012	21.48
595.206	21.51
595.401	21.64
595.596	21.7
595.79	21.73
595.985	21.89
596.18	22.05
596.374	22.07
596.569	22.08
596.763	22.06
596.958	22.02
597.153	21.96
597.347	21.94
597.542	22.07
597.736	22.2
597.931	22.27
598.125	22.31
598.319	22.49
598.514	22.48
598.708	22.52
598.903	22.52
599.097	22.48
599.291	22.4
599.486	22.37
599.68	22.32
599.874	22.46
600.069	22.56
600.263	22.51
600.457	22.55
600.651	22.62
600.846	22.53
601.04	22.51
601.234	22.62
601.428	22.66
601.622	22.78
601.817	22.77
602.011	22.94
602.205	23
602.399	23
602.593	22.9
602.787	22.95
602.981	22.84
603.175	22.77
603.369	22.71
603.563	22.79
603.757	22.87
603.951	22.86
604.145	22.87
604.339	23.03
604.533	22.87
604.727	22.7
604.921	22.63
605.115	22.67
605.309	22.64
605.502	22.66
605.696	22.65
605.89	22.63
606.084	22.52
606.278	22.42
606.471	22.29
606.665	22.21
606.859	22.13
607.053	22.15
607.246	22.08
607.44	22.14
607.634	22.11
607.827	22.2
608.021	22.08
608.214	22.12
608.408	22.08
608.602	22.06
608.795	21.95
608.989	22
609.182	21.81
609.376	21.76
609.569	21.64
609.763	21.58
609.956	21.39
610.15	21.36
610.343	21.26
610.537	21.22
610.73	21.21
610.923	21.2
611.117	21.21
611.31	21.24
611.504	21.23
611.697	21.05
611.89	21.02
612.083	20.9
612.277	20.81
612.47	20.68
612.663	20.71
612.856	20.66
613.05	20.55
613.243	20.48
613.436	20.46
613.629	20.41
613.822	20.31
614.015	20.25
614.209	20.14
614.402	20.13
614.595	20
614.788	19.94
614.981	19.9
615.174	19.8
615.367	19.65
615.56	19.52
615.753	19.55
615.946	19.47
616.139	19.52
616.332	19.56
616.525	19.65
616.718	19.61
616.911	19.6
617.103	19.62
617.296	19.56
617.489	19.48
617.682	19.33
617.875	19.29
618.067	19.2
618.26	19.14
618.453	19.17
618.646	19.2
618.838	19.21
619.031	19.26
619.224	19.26
619.417	19.2
619.609	19.27
619.802	19.21
619.994	19.1
620.187	19.04
620.38	19.03
620.572	18.91
620.765	18.92
620.957	18.77
621.15	18.72
621.342	18.68
621.535	18.66
621.727	18.61
621.92	18.64
622.112	18.62
622.305	18.55
622.497	18.51
622.69	18.51
622.882	18.52
623.074	18.54
623.267	18.56
623.459	18.5
623.651	18.47
623.844	18.51
624.036	18.45
624.228	18.36
624.42	18.41
624.613	18.49
624.805	18.4
624.997	18.38
625.189	18.38
625.381	18.38
625.574	18.25
625.766	18.21
625.958	18.22
626.15	18.28
626.342	18.23
626.534	18.18
626.726	18.17
626.918	18.22
627.11	18.1
627.302	18.01
627.494	18.04
627.686	18.07
627.878	17.98
628.07	18.02
628.262	18.01
628.454	17.98
628.646	17.99
628.838	18
629.029	17.94
629.221	17.99
629.413	17.94
629.605	17.81
629.797	17.71
629.989	17.65
630.18	17.53
630.372	17.48
630.564	17.49
630.755	17.53
630.947	17.59
631.139	17.46
631.33	17.37
631.522	17.43
631.714	17.4
631.905	17.3
632.097	17.4
632.289	17.43
632.48	17.32
632.672	17.24
632.863	17.12
633.055	17.07
633.246	17.09
633.438	17.02
633.629	16.97
633.821	17.03
634.012	16.92
634.203	16.75
634.395	16.74
634.586	16.82
634.777	16.78
634.969	16.79
635.16	16.83
635.351	16.77
635.543	16.62
635.734	16.6
635.925	16.6
636.117	16.63
636.308	16.63
636.499	16.62
636.69	16.47
636.881	16.37
637.073	16.35
637.264	16.25
637.455	16.2
637.646	16.31
637.837	16.35
638.028	16.21
638.219	16.28
638.41	16.21
638.601	16.13
638.792	16.07
638.983	16.05
639.174	15.96
639.365	15.98
639.556	15.91
639.747	15.91
639.938	15.93
640.129	15.9
640.32	15.82
640.511	15.89
640.701	15.94
640.892	15.92
641.083	15.88
641.274	15.94
641.465	15.87
641.655	15.69
641.846	15.53
642.037	15.43
642.228	15.3
642.418	15.23
642.609	15.23
642.8	15.32
642.99	15.19
643.181	15.27
643.372	15.26
643.562	15.16
643.753	15.08
643.943	15.17
644.134	15.01
644.324	15.01
644.515	15
644.705	14.99
644.896	14.94
645.086	15.01
645.277	14.91
645.467	14.92
645.658	14.83
645.848	14.81
646.038	14.73
646.229	14.73
646.419	14.57
646.61	14.57
646.8	14.54
646.99	14.51
647.18	14.43
647.371	14.55
647.561	14.45
647.751	14.43
647.941	14.37
648.132	14.45
648.322	14.38
648.512	14.48
648.702	14.46
648.892	14.5
649.082	14.45
649.272	14.36
649.462	14.21
649.653	14.12
649.843	13.98
650.033	13.93
650.223	13.96
650.413	13.96
650.603	13.99
650.793	14.02
650.983	13.91
651.172	13.9
651.362	13.88
651.552	13.76
651.742	13.68
651.932	13.71
652.122	13.68
652.312	13.71
652.502	13.75
652.691	13.79
652.881	13.78
653.071	13.77
653.261	13.67
653.45	13.57
653.64	13.61
653.83	13.47
654.019	13.38
654.209	13.37
654.399	13.38
654.588	13.27
654.778	13.24
654.968	13.21
655.157	13.18
655.347	13.08
655.536	12.97
655.726	12.9
655.915	12.71
656.105	12.56
656.294	12.52
656.484	12.43
656.673	12.37
656.863	12.38
657.052	12.24
657.241	12.12
657.431	11.9
657.62	11.83
657.809	11.63
657.999	11.53
658.188	11.43
658.377	11.45
658.567	11.31
658.756	11.22
658.945	11.14
659.134	11.02
659.324	10.93
659.513	10.87
659.702	10.79
659.891	10.78
660.08	10.71
660.269	10.64
660.458	10.46
660.648	10.43
660.837	10.26
661.026	10.24
661.215	10.09
661.404	10
661.593	9.98
661.782	9.82
661.971	9.71
662.16	9.67
662.349	9.62
662.538	9.35
662.726	9.38
662.915	9.22
663.104	9.04
663.293	9
663.482	9.1
663.671	9.08
663.86	9.02
664.048	9.04
664.237	9.02
664.426	8.81
664.615	8.71
664.803	8.69
664.992	8.58
665.181	8.49
665.369	8.42
665.558	8.37
665.747	8.34
665.935	8.38
666.124	8.35
666.312	8.43
666.501	8.31
666.69	8.17
666.878	8.08
667.067	7.93
667.255	7.87
667.444	8.19
667.632	8.28
667.82	8.31
668.009	8.33
668.197	8.35
668.386	8.12
668.574	8.22
668.762	8.18
668.951	8.21
669.139	8.16
669.327	7.98
669.516	7.92
669.704	7.89
669.892	7.9
670.08	7.94
670.269	7.96
670.457	7.9
670.645	7.84
670.833	7.91
671.021	7.81
671.21	7.9
671.398	8.03
671.586	7.97
671.774	7.84
671.962	7.92
672.15	7.99
672.338	7.82
672.526	7.92
672.714	7.79
672.902	7.81
673.09	7.86
673.278	8.03
673.466	8.12
673.654	8.38
673.842	8.34
674.03	8.37
674.218	8.25
674.405	8.27
674.593	8.24
674.781	8.32
674.969	8.34
675.157	8.58
675.344	8.74
675.532	8.86
675.72	8.93
675.908	8.91
676.095	8.83
676.283	8.79
676.471	8.92
676.658	9.01
676.846	9.05
677.033	9.2
677.221	9.23
677.409	9.04
677.596	9
677.784	9.1
677.971	9.12
678.159	9.22
678.346	9.33
678.534	9.43
678.721	9.6
678.909	9.47
679.096	9.42
679.283	9.73
679.471	9.85
679.658	9.82
679.846	10.1
680.033	10.41
680.22	10.32
680.408	10.28
680.595	10.3
680.782	10.18
680.969	10.17
681.157	10.26
681.344	10.37
681.531	10.38
681.718	10.42
681.905	10.5
682.093	10.63
682.28	10.82
682.467	11.15
682.654	11.44
682.841	11.46
683.028	11.56
683.215	11.8
683.402	11.77
683.589	11.88
683.776	12.11
683.963	12.06
684.15	12.02
684.337	12.28
684.524	12.33
684.711	12.6
684.898	12.83
685.085	13.08
685.271	13.28
685.458	13.56
685.645	13.52
685.832	13.98
686.019	14.19
686.205	14.47
686.392	14.81
686.579	15.14
686.766	15.31
686.952	15.62
687.139	15.99
687.326	16.02
687.512	16.2
687.699	16.55
687.886	16.82
688.072	16.82
688.259	17.3
688.445	17.75
688.632	17.9
688.818	18.33
689.005	18.84
689.191	19.26
689.378	19.64
689.564	20.19
689.751	20.38
689.937	20.65
690.124	21.1
690.31	21.47
690.496	21.85
690.683	22.34
690.869	22.89
691.055	23.2
691.242	23.83
691.428	24.2
691.614	24.7
691.8	25.3
691.987	25.97
692.173	26.38
692.359	26.91
692.545	27.62
692.731	28.13
692.918	28.5
693.104	29.05
693.29	29.77
693.476	30.36
693.662	30.89
693.848	31.43
694.034	32.13
694.22	32.58
694.406	32.95
694.592	33.59
694.778	34.24
694.964	34.64
695.15	35.28
695.336	35.87
695.522	36.59
695.708	37.16
695.894	38.02
696.08	38.66
696.265	39.49
696.451	40.16
696.637	40.91
696.823	41.36
697.009	41.83
697.194	42.24
697.38	42.49
697.566	43.16
697.751	43.72
697.937	44.6
698.123	45.18
698.308	46.13
698.494	46.72
698.68	47.3
698.865	47.68
699.051	48.47
699.236	48.58
699.422	49.01
699.607	49.47
699.793	50.08
699.978	50.45
700.164	51.29
700.349	51.89
700.535	52.43
700.72	52.86
700.906	53.65
701.091	54.09
701.276	54.68
701.462	55.72
701.647	56.72
701.832	57.13
702.018	57.87
702.203	58.39
702.388	58.34
702.573	58.66
702.759	59.48
702.944	59.7
703.129	59.92
703.314	60.75
703.499	61.27
703.684	61.37
703.87	62.37
704.055	63.3
704.24	63.81
704.425	64.35
704.61	65.09
704.795	65.31
704.98	65.69
705.165	65.92
705.35	66.33
705.535	66.57
705.72	66.93
705.905	67.6
706.09	68.75
706.275	69.17
706.459	69.68
706.644	70.35
706.829	70.72
707.014	70.41
707.199	70.72
707.384	71.12
707.568	71.16
707.753	71.67
707.938	72.24
708.123	72.66
708.307	73.11
708.492	73.59
708.677	73.78
708.861	74.01
709.046	74.41
709.231	75.11
709.415	75.68
709.6	75.81
709.784	75.83
709.969	76.12
710.153	76.08
710.338	76.3
710.522	76.5
710.707	77.29
710.891	77.51
711.076	77.65
711.26	77.79
711.445	78.57
711.629	79.08
711.813	79.49
711.998	80.28
712.182	80.14
712.366	80.4
712.551	80.51
712.735	81
712.919	80.77
713.103	81.71
713.288	81.77
713.472	82.13
713.656	82.82
713.84	82.99
714.024	83.62
714.208	83.7
714.393	84.37
714.577	84.27
714.761	85.1
714.945	84.89
715.129	85.22
715.313	85.23
715.497	85.22
715.681	85.95
715.865	85.98
716.049	86.38
716.233	86.27
716.417	86.69
716.601	86.15
716.785	86.32
716.968	86.7
717.152	87.03
717.336	87.15
717.52	87.02
717.704	87.59
717.888	88.06
718.071	88.2
718.255	88.21
718.439	88.41
718.622	88.65
718.806	88.74
718.99	88.48
719.174	88.54
719.357	88.97
719.541	89.29
719.724	89.25
719.908	90.25
720.092	90.89
720.275	91.26
720.459	90.8
720.642	90.61
720.826	90.25
721.009	90.13
721.193	89.75
721.376	90.51
721.559	91.09
721.743	91.77
721.926	92.13
722.11	92.67
722.293	92.06
722.476	91.78
722.66	91.69
722.843	91.81
723.026	91.61
723.21	91.79
723.393	92.39
723.576	92.57
723.759	91.91
723.942	92.39
724.126	92.29
724.309	92.13
724.492	92.39
724.675	93
724.858	93.59
725.041	94.82
725.224	95.19
725.407	95.09
725.59	95.71
725.774	94.99
725.957	94.45
726.14	93.9
726.322	94.11
726.505	94.02
726.688	95.04
726.871	95.1
727.054	96.18
727.237	95.75
727.42	95.65
727.603	95.65
727.786	96.43
727.968	96.33
728.151	97.06
728.334	97.09
728.517	97
728.699	96.7
728.882	96.16
729.065	96.15
729.248	96.32
729.43	96.78
729.613	97.52
729.796	98.57
729.978	97.63
730.161	97.32
730.343	96.76
730.526	96.48
730.708	95.44
730.891	96.29
731.073	96.95
731.256	97.24
731.438	97.74
731.621	99.14
731.803	99.6
731.986	99.52
732.168	99.21
732.35	98.24
732.533	97.31
732.715	97.41
732.898	97.28
733.08	97.68
733.262	98.69
733.444	99.29
733.627	99.08
733.809	100.27
733.991	100.74
734.173	99.53
734.355	99.13
734.538	99.58
734.72	98.47
734.902	98.82
735.084	100.06
735.266	100.29
735.448	100.5
735.63	100.68
735.812	100.07
735.994	100.48
736.176	100.67
736.358	100.4
736.54	101.73
736.722	100.96
736.904	100.6
737.086	100.56
737.268	102.02
737.45	101.86
737.632	102.51
737.814	102.05
737.995	102.37
738.177	101.02
738.359	100.02
738.541	100.29
738.723	100.54
738.904	100.58
739.086	100.88
739.268	101.38
739.449	101.79
739.631	101.38
739.813	101.46
739.994	100.93
740.176	101.41
740.358	101.11
740.539	102.52
740.721	102.54
740.902	103.76
741.084	103.41
741.265	103.11
741.447	102.67
741.628	103.06
741.81	101.64
741.991	102.71
742.172	103.94
742.354	104.46
742.535	104.01
742.717	104.79
742.898	104.14
743.079	103.88
743.261	103.78
743.442	102.94
743.623	103.44
743.804	103.79
743.986	103.64
744.167	102.83
744.348	104.06
744.529	103.74
744.71	102.36
744.891	102.11
745.073	101.17
745.254	100.22
745.435	100.1
745.616	100.41
745.797	99.7
745.978	100.04
746.159	100.63
746.34	100.43
746.521	102.47
746.702	102.6
746.883	102.53
747.064	102.22
747.245	102.65
747.426	99.72
747.606	99.87
747.787	100.78
747.968	100.7
748.149	101.55
748.33	102.46
748.51	103.37
748.691	102.36
748.872	103.69
749.053	101.88
749.233	101.62
749.414	100.29
749.595	99.85
749.775	97.93
749.956	98.15
750.137	97.53
750.317	98.4
750.498	101.18
750.678	101.16
750.859	102.29
751.04	102.97
751.22	101.66
751.4	100.15
751.581	99.85
751.761	99.75
751.942	101.08
752.122	101.56
752.303	100.71
752.483	101.24
752.663	99.7
752.844	97.72
753.024	99.06
753.204	100.91
753.385	101.06
753.565	101.14
753.745	101.51
753.925	99.77
754.106	98.42
754.286	98.56
754.466	98.42
754.646	99.5
754.826	99.92
755.006	97.76
755.187	98.04
755.367	99.49
755.547	99.27
755.727	99.81
755.907	102.14
756.087	103.44
756.267	102.44
756.447	100.97
756.627	99.61
756.807	99.5
756.987	97.28
757.167	97.54
757.346	98.12
757.526	97.65
757.706	98.99
757.886	100.69
758.066	101.42
758.246	103.67
758.425	105.1
758.605	103.89
758.785	103.34
758.965	103.99
759.144	101.22
759.324	100.75
759.504	100.59
759.683	100.65
759.863	97.87
760.043	98.47
760.222	97.47
760.402	97.08
760.581	95.86
760.761	97.93
760.94	96.02
761.12	98.23
761.299	97.92
761.479	98.51
761.658	96.19
761.838	97.97
762.017	97.21
762.197	98.7
762.376	98.43
762.555	99.97
762.735	99.33
762.914	96.39
763.093	95.91
763.273	94.63
763.452	93.1
763.631	93.3
763.81	95.39
763.99	93.59
764.169	95.21
764.348	95.39
764.527	95.25
764.706	96.23
764.885	98.27
765.064	97.04
765.243	98.49
765.423	99.87
765.602	99.52
765.781	96.46
765.96	96.67
766.139	94.23
766.318	95.15
766.497	93.76
766.676	95.74
766.854	97.17
767.033	98.71
767.212	96.04
767.391	97.47
767.57	97
767.749	96.27
767.928	96.75
768.106	95.93
768.285	93.05
768.464	94.14
768.643	91.52
768.821	90.4
769	92.41
769.179	94.03
769.357	92.84
769.536	94.14
769.715	94.39
769.893	95.91
770.072	95.33
770.25	96.33
770.429	97.04
770.607	97.39
770.786	95.65
770.964	98.22
771.143	97.03
771.321	98.11
771.5	98.92
771.678	97.03
771.857	95.48
772.035	96.84
772.213	95.33
772.392	92.49
772.57	94.36
772.748	93.69
772.927	91.93
773.105	91.32
773.283	92.51
773.461	91.23
773.64	92.11
773.818	92.19
773.996	93.41
774.174	92.97
774.352	91.81
774.531	88.28
774.709	90.94
774.887	90.23
775.065	91.05
775.243	92.45
775.421	95.17
775.599	92.89
775.777	90.64
775.955	89.05
776.133	88.01
776.311	88.15
776.489	87.73
776.667	89.91
776.844	90.17
777.022	89.5
777.2	90.37
777.378	88.97
777.556	88.79
777.734	90.52
777.911	93.69
778.089	90.3
778.267	91.51
778.445	88.81
778.622	88.1
778.8	85.19
778.978	89.01
779.155	86.97
779.333	88.45
779.511	88.15
779.688	91.32
779.866	86
780.043	84.59
780.221	85.89
780.398	83.21
780.576	84.77
780.753	86.93
780.931	86.19
781.108	84.86
781.286	90.4
781.463	84.58
781.64	82.15
781.818	85.43
781.995	85.57
782.172	83.89
782.35	87.51
782.527	90.39
782.704	89.78
782.882	91.11
783.059	88.11
783.236	87.44
783.413	86.96
783.59	89.19
783.768	86.26
783.945	91.09
784.122	90.73
784.299	93
784.476	89.69
784.653	88.65
784.83	85.28
785.007	80.98
785.184	80.26
785.361	80.58
785.538	87.37
785.715	89.58
785.892	93.02
786.069	92.93
786.246	94.06
786.423	91.87
786.6	88.19
786.776	91.4
786.953	91.41
787.13	94.76
787.307	95.18
787.484	94.3
787.66	89.98
787.837	88.39
788.014	83.66
788.191	78.84
788.367	76.24
788.544	76.6
788.721	76.28
788.897	80.22
789.074	83.51
789.25	85.39
789.427	86.46
789.603	89.95
789.78	87.74
789.956	86.59
790.133	86.2
790.309	87.25
790.486	87.63
790.662	86.59
790.839	86.75
791.015	86.5
791.192	83.9
791.368	83.29
791.544	80.64
791.721	82.08
791.897	83.46
792.073	83.4
792.249	76.27
792.426	80.22
792.602	79.51
792.778	78.92
792.954	78.07
793.13	80.42
793.307	74.74
793.483	66.1
793.659	66.1
793.835	68.39
794.011	66.16
794.187	68.82
794.363	73.6
794.539	75.17
794.715	71.44
794.891	70.38
795.067	68.72
795.243	72.26
795.419	70.67
795.595	72.51
795.771	76.56
795.947	79.81
796.122	76.15
796.298	81.14
796.474	82.37
796.65	83.03
796.826	80.42
797.001	79.14
797.177	74.7
797.353	74.24
797.529	76.6
797.704	78.84
797.88	81.89
798.056	77.79
798.231	78.78
798.407	75.41
798.582	72.74
798.758	74.94
798.934	81.5
799.109	76.02
799.285	75.47
799.46	80.26
799.636	80.54
799.811	81.03
799.986	85.46
800.162	87.76
800.337	85.56
800.513	77.63
800.688	72.66
800.863	82.54
801.039	78.87
801.214	76.33
801.389	86.25
801.565	86.47
801.74	71.01
801.915	74.22
802.09	76.14
802.265	74.96
802.441	75.67
802.616	80.04
802.791	81.16
802.966	79.11
803.141	76.22
803.316	74.74
803.491	75
803.666	77.24
803.841	77.88
804.016	76.96
804.191	79.63
804.366	74.32
804.541	69.29
804.716	64.43
804.891	64.37
805.066	67.54
805.241	71.1
805.416	69.86
805.591	75.81
805.765	76.46
805.94	76.93
806.115	69.87
806.29	68.65
806.464	72.16
806.639	68.56
806.814	62.99
806.989	65.75
807.163	69.64
807.338	60.57
807.512	58.88
807.687	48.07
807.862	62.76
808.036	64.29
808.211	69.89
808.385	81.23
808.56	98.47
808.734	100.12
808.909	93.51
809.083	91.63
809.258	86.04
809.432	86.45
809.606	69.07
809.781	69.13
809.955	70.7
810.13	76.41
810.304	64.13
810.478	67.19
810.652	79.09
810.827	77.53
811.001	67.58
811.175	66.33
811.349	67
811.524	52.26
811.698	40.88
811.872	40.2
812.046	48.49
812.22	49.81
812.394	56.05
812.568	65
812.742	66.28
812.916	58.69
813.09	56.19
813.264	55.76
813.438	55.78
813.612	53.16
813.786	49.94
813.96	53.15
814.134	53.57
814.308	57.81
814.482	56.75
814.656	56.07
814.83	65.62
815.003	58.86
815.177	59.33
815.351	66.17
815.525	67.2
815.698	53.6
815.872	57.86
816.046	48.92
816.219	52.18
816.393	67.77
816.567	79.55
816.74	76.87
816.914	76.07
817.088	76.61
817.261	64.49
817.435	49.9
817.608	54.58
817.782	57.23
817.955	63.74
818.129	59.86
818.302	67.69
818.475	71.03
818.649	73.74
818.822	55.34
818.996	69.25
819.169	69.7
819.342	67.3
819.516	69.59
819.689	69.16
819.862	54.82
820.035	46.87
820.209	44.32
820.382	43.53
820.555	52.36
820.728	50.23
820.901	51.52
821.075	49.22
821.248	50.03
821.421	28.72
821.594	28.67
821.767	50.49
821.94	67.99
822.113	51.93
822.286	59.48
822.459	72.32
822.632	66.66
822.805	41.98
822.978	37.76
823.151	40.22
823.324	23.63
823.496	1.59
823.669	7.46
823.842	18.75
824.015	11.3
824.188	17.34
824.361	31.23
824.533	31.49
824.706	41.11
824.879	52.57
825.051	64.38
825.224	59.49
825.397	64.92
825.569	52.78
825.742	56.24
825.915	60.75
826.087	68.41
826.26	59.1
826.432	66.38
826.605	54.47
826.777	38.82
826.95	39.24
827.122	21.55
827.295	25.7
827.467	40
827.64	15.2
827.812	6.66
827.984	29.1
828.157	18.34
828.329	-23.36
828.501	-4.71
828.674	23.19
828.846	3.96
829.018	22.15
829.19	9.62
829.363	25.45
829.535	15.71
829.707	16.34
829.879	1.21
830.051	19.43
830.223	13.9
830.395	-0.41
830.568	-23.76
830.74	-39.07
830.912	-8.49
831.084	-21.29
831.256	-15.93
831.428	13.23
831.6	9.45
831.772	-41.59
831.943	-33.56
832.115	-2.92
832.287	14.2
832.459	26.23
832.631	53.38
832.803	72.04
832.975	82.28
833.146	67.9
833.318	59.04
833.49	64.59
833.662	38.56
833.833	13.84
834.005	19.99
834.177	39.93
834.348	26.2
834.52	19.19
834.692	24.53
834.863	11.27
835.035	-18.08
835.206	-65.39
835.378	-29.45
835.549	-27.77
835.721	-17.32
835.892	1.15
836.064	14.09
836.235	10.21
836.407	39.95
836.578	8.53
836.749	12.64
836.921	-22.88
837.092	-54.95
837.264	-69.32
837.435	-65.52
837.606	-29.72
837.777	14.56
837.949	32.23
838.12	31.65
838.291	41.22
838.462	41.65
838.633	21.21
838.805	17.05
838.976	33.14
839.147	4.85
839.318	-33.72
839.489	-85
839.66	-45.13
839.831	-44.68
840.002	-41.57
840.173	-52.78
840.344	-3.56
840.515	-83.77
840.686	-150.69
840.857	-136.63
841.028	-138.86
841.199	-104.49
841.369	-104.88
841.54	-76.65
841.711	-20.5
841.882	9.02
842.053	-3.12
842.223	8.75
842.394	20.34
842.565	8.42
842.736	13.77
842.906	28.37
843.077	31.9
843.248	45.49
843.418	47.29
843.589	52.39
843.759	78.88
843.93	103.89
844.101	60.78
844.271	68.12
844.442	62.32
844.612	63
844.783	42.2
844.953	3.13
845.123	-26.93
845.294	-45.61
845.464	-275.75
845.635	-158.52
845.805	-50.82
845.975	-8.74
846.146	-37.44
846.316	-23.95
846.486	-7.15
846.656	20.86
846.827	16.21
846.997	16.11
847.167	33.88
847.337	15.71
847.507	-45.85
847.677	-25.07
847.848	16.41
848.018	25.94
848.188	33.17
848.358	25.06
848.528	7.38
848.698	-14.52
848.868	-95.14
849.038	-190.91
849.208	-53.27
849.378	-33.47
849.548	-11.04
849.718	4.88
849.887	26.99
850.057	15.94
850.227	-0.78
850.397	-23.53
850.567	-108.99
850.737	-337.72
850.906	-1132.19
851.076	-834.18
851.246	-397.25
851.415	-23.94
851.585	3.86
851.755	-19.85
851.924	19.76
852.094	-0.4
852.264	-85.56
852.433	-934.38
852.603	-167.02
852.772	-151.45
852.942	-70.79
853.111	-40.24
853.281	31.29
853.45	71.03
853.62	7.29
853.789	-7.95
853.959	-1.1
854.128	-69.26
854.297	-97.4
854.467	-111.4
854.636	-100.14
854.805	-55.66
854.975	-88.2
855.144	-170.07
855.313	-56.47
855.482	-361.13
855.652	-130.9
855.821	-33.07
855.99	-0.34
856.159	14.87
856.328	28.42
856.497	-0.76
856.667	11.85
856.836	45.39
857.005	-9.55
857.174	-47.45
857.343	-72
857.512	-69.31
857.681	-116.19
857.85	-137.23
858.019	-60.24
858.188	-47.18
858.356	-71.94
858.525	-130.87
858.694	-89.86
858.863	-170.93
859.032	-99.61
859.201	-146.92
859.369	-75.7
859.538	-106.54
859.707	-100.58
859.876	-117.2
860.044	-75.65
860.213	7.95
860.382	6.38
860.55	14.87
860.719	49.14
860.888	52.2
861.056	16.84
861.225	19.27
861.393	51.87
861.562	12.83
861.73	-84.33
861.899	-390.97
862.067	-4064.66
862.236	-283.59
862.404	-402.81
862.572	-222.55
862.741	-64.8
862.909	-48.91
863.078	-157.15
863.246	-111.53
863.414	-74.4
863.582	-44.29
863.751	-49.82
863.919	-30.6
864.087	13.83
864.255	-15.58
864.424	-363.25
864.592	-47.8
864.76	-129.64
864.928	-422.2
865.096	-234.95
865.264	-133.36
865.432	-1594.89
865.6	-29.88
865.768	-79.02
865.936	-104.5
866.104	-98.16
866.272	-219.3
866.44	-421.56
866.608	819.97
866.776	386.58
866.944	3187.79
867.112	-470.23
867.28	-224.3
867.448	-98.98
867.615	-25.36
867.783	-29.35
867.951	-50.97
868.119	-2.86
868.286	41.77
868.454	-92.02
868.622	-153.16
868.789	-195.02
868.957	-3362.5
869.125	-2730.92
869.292	-190.11
869.46	-188.36
869.627	-22.07
869.795	-44.5
869.963	-23.2
870.13	11.23
870.298	8.61
870.465	-78.5
870.632	-77.48
870.8	-69.72
870.967	-139.53
871.135	-207.12
871.302	-178.1
871.469	-181.14
871.637	-182.47
871.804	-83.82
871.971	-65.76
872.139	-216.16
872.306	7.94
872.473	-52.98
872.64	-348.82
872.807	-231.74
872.975	-82.74
873.142	-458.09
873.309	3347.97
873.476	-85.59
873.643	-4.1
873.81	19.31
873.977	47.04
874.144	25.14
874.311	-74.76
874.478	-118.43
874.645	-177.47
874.812	-110.71
874.979	-41.4
875.146	-51.42
875.313	-86.61
875.48	-18.06
875.647	-29.31
875.813	-72.44
875.98	-42.18
876.147	-69.39
876.314	-135.88
876.481	1145.25
876.647	-1152.53
876.814	477.07
876.981	-24.13
877.147	13.47
877.314	24.21
877.481	50.76
877.647	48.87
877.814	27.95
877.98	-29.72
878.147	14.28
878.314	52.85
878.48	3.48
878.647	-2.01
878.813	59.21
878.979	33.19
879.146	-24.55
879.312	-24.77
879.479	-64.74
879.645	-161.44
879.811	-357.65
879.978	-961.64
880.144	-263.69
880.31	-132.88
880.477	-453.12
880.643	-404.49
880.809	-192.76
880.975	-181.81
881.142	-1142.5
881.308	-141.75
881.474	-91.41
881.64	-86.75
881.806	-171.17
881.972	-75.27
882.138	-135.51
882.304	-237.68
882.47	-338.13
882.636	-1081.76
882.802	-369.67
882.968	-98.72
883.134	-18.48
883.3	-14.47
883.466	21.61
883.632	40.05
883.798	8.24
883.964	-33.34
884.129	-38.74
884.295	-5.33
884.461	-24.06
884.627	-7.53
884.793	24.85
884.958	71.49
885.124	2.18
885.29	-63.88
885.455	-72.69
885.621	-33.59
885.787	-114.85
885.952	-98.81
886.118	-76.53
886.283	-75.96
886.449	-164.7
886.614	-250.13
886.78	-409.52
886.945	1730.74
887.111	-759.39
887.276	-676.56
887.442	-847.95
887.607	-435.73
887.773	-291.32
887.938	-205.16
888.103	-295.28
888.269	-148.12
888.434	-61.49
888.599	1.48
888.764	79.74
888.93	108.98
889.095	62.35
889.26	10.08
889.425	44.76
889.59	67.38
889.756	6.47
889.921	-0.37
890.086	65.27
890.251	39.24
890.416	-83.01
890.581	-957.66
890.746	146.7
890.911	393.47
891.076	159.54
891.241	-263.99
891.406	53.48
891.571	42
891.736	-165.02
891.901	-368.81
892.065	395.33
892.23	107.32
892.395	185.47
892.56	199.35
892.725	-60.74
892.889	-592.07
893.054	-165.54
893.219	-29.11
893.384	11.84
893.548	-25
893.713	-28.55
893.878	7.59
