Data from Ofra_2a_PS_2CX10_Reflection_2.txt Node
Date: Tue Jul 20 09:37:22 EDT 2021
User: Adam
Spectrometer: FLMT01687
Trigger mode: 0
Integration Time (sec): 9.450000E-1
Scans to average: 3
Electric dark correction enabled: true
Nonlinearity correction enabled: false
Boxcar width: 3
XAxis mode: Wavelengths
Number of Pixels in Spectrum: 3648
>>>>>Begin Spectral Data<<<<<
179.494	613.61
179.716	376.67
179.937	452.2
180.158	1534.77
180.38	-461.92
180.601	-97.49
180.823	-45.55
181.044	-39.94
181.265	-151.32
181.486	3.91
181.708	-175
181.929	-119.19
182.15	-166.48
182.372	-8.21
182.593	18.92
182.814	279.49
183.035	253.62
183.257	91.97
183.478	86.99
183.699	76.24
183.92	64.24
184.141	66.3
184.363	53.58
184.584	41.95
184.805	44.7
185.026	49.85
185.247	42.33
185.468	44.42
185.689	55.98
185.91	59.13
186.132	58.45
186.353	42.51
186.574	32.13
186.795	17.46
187.016	9.93
187.237	6.28
187.458	-7.23
187.679	-14.04
187.9	12.55
188.121	31.29
188.342	58.07
188.563	65.44
188.784	65.25
189.005	75.49
189.226	65.15
189.447	67.7
189.667	50.83
189.888	54.64
190.109	61.07
190.33	49.19
190.551	33.25
190.772	36.36
190.993	32.61
191.214	29.33
191.434	25.99
191.655	34
191.876	43.51
192.097	48.11
192.318	60.16
192.538	62.09
192.759	69.48
192.98	60
193.201	64.2
193.421	59.28
193.642	67.47
193.863	66.43
194.083	67.57
194.304	65.91
194.525	74.16
194.745	42.82
194.966	33.81
195.187	38.15
195.407	22.44
195.628	18.79
195.848	14.84
196.069	11.72
196.29	21.45
196.51	24.88
196.731	22.45
196.951	34.23
197.172	44.47
197.392	44.37
197.613	37.84
197.833	45.22
198.054	47.14
198.274	31.01
198.495	26.11
198.715	13.54
198.936	-3.8
199.156	1.42
199.377	6.66
199.597	10.24
199.817	23.19
200.038	32.64
200.258	40.41
200.479	42.59
200.699	37.36
200.919	28.53
201.14	29.86
201.36	35.47
201.58	42.3
201.801	32.53
202.021	34.91
202.241	41.81
202.461	50.63
202.682	53.3
202.902	46.65
203.122	44.33
203.342	61.13
203.563	72.38
203.783	77.25
204.003	75.3
204.223	72.36
204.443	73.31
204.663	78.07
204.884	72.07
205.104	62.88
205.324	53.91
205.544	50.73
205.764	43.73
205.984	54.72
206.204	54.79
206.424	53.28
206.644	47.61
206.864	48.22
207.084	57.7
207.304	66.14
207.525	56.66
207.745	54.41
207.964	52.41
208.184	51.44
208.404	40.22
208.624	20.6
208.844	-3.67
209.064	7.05
209.284	-2.54
209.504	-3.96
209.724	-27.99
209.944	-6.28
210.164	-4.77
210.384	5.11
210.604	-3.53
210.823	8.77
211.043	9.58
211.263	40.26
211.483	35.6
211.703	50.53
211.922	54.42
212.142	62.63
212.362	62.65
212.582	66.59
212.801	56.65
213.021	60.8
213.241	54.8
213.461	47.23
213.68	43.42
213.9	57.8
214.12	43.83
214.339	43.96
214.559	47.67
214.779	47.36
214.998	47.73
215.218	51.17
215.438	46.02
215.657	53.85
215.877	54.05
216.096	43.89
216.316	50.26
216.535	55.44
216.755	38.67
216.974	39.09
217.194	41.85
217.413	54.95
217.633	52.42
217.852	35.99
218.072	40.6
218.291	56.27
218.511	45.6
218.73	41.95
218.95	32.22
219.169	41.66
219.389	46.03
219.608	50.67
219.827	47.43
220.047	65.04
220.266	57.96
220.485	55.07
220.705	38.12
220.924	36.87
221.143	27.21
221.363	23.39
221.582	23.08
221.801	20.53
222.021	23.68
222.24	29.51
222.459	30.8
222.678	22.64
222.897	11.36
223.117	7.61
223.336	13.09
223.555	-3.66
223.774	12.37
223.993	23.45
224.213	24.37
224.432	44.08
224.651	50.03
224.87	53.51
225.089	76.56
225.308	72.16
225.527	68.09
225.746	84.27
225.965	68.71
226.184	68.86
226.404	64.31
226.623	56.91
226.842	36.82
227.061	37.76
227.28	40.04
227.499	41.69
227.718	32.53
227.936	26.69
228.155	23.62
228.374	21.83
228.593	18.04
228.812	10.26
229.031	1.42
229.25	14.82
229.469	31.29
229.688	33.07
229.907	44.59
230.125	45.45
230.344	58.49
230.563	62.68
230.782	50.22
231.001	41.51
231.22	43.44
231.438	39.27
231.657	49.58
231.876	36.59
232.095	29.04
232.313	42.31
232.532	46.52
232.751	48.15
232.969	50.4
233.188	39.12
233.407	40.39
233.625	42.56
233.844	36.29
234.063	37.66
234.281	36.44
234.5	45.45
234.719	50.78
234.937	56.89
235.156	54.68
235.374	62.79
235.593	59.1
235.811	53.34
236.03	35.24
236.249	31.94
236.467	39.63
236.686	60.66
236.904	54.7
237.123	61.8
237.341	60.87
237.559	70.74
237.778	70.07
237.996	61.66
238.215	45.45
238.433	46.59
238.652	41.11
238.87	42.12
239.088	33.53
239.307	34.95
239.525	35.54
239.743	32.36
239.962	38.46
240.18	37.55
240.398	38.53
240.617	37.23
240.835	42.08
241.053	51.3
241.271	52.06
241.49	37.92
241.708	34.11
241.926	23.75
242.144	36.77
242.363	23.99
242.581	13.13
242.799	10.21
243.017	13.86
243.235	12.64
243.453	20.6
243.672	12.78
243.89	14.78
244.108	14.97
244.326	16.02
244.544	29.6
244.762	32.43
244.98	34.38
245.198	24.49
245.416	30.69
245.634	46.59
245.852	59.43
246.07	55.73
246.288	64.48
246.506	69.66
246.724	78.87
246.942	69.57
247.16	50.67
247.378	40.32
247.596	47.58
247.814	38.79
248.032	34.86
248.25	23.73
248.468	32.73
248.685	36.62
248.903	29.5
249.121	19.55
249.339	29.46
249.557	30.95
249.775	24.52
249.992	17.18
250.21	16.66
250.428	19.95
250.646	28.34
250.863	34.65
251.081	33.16
251.299	62.08
251.517	82.82
251.734	83.48
251.952	90.12
252.17	77.15
252.387	63.5
252.605	68.78
252.823	51.59
253.04	55.64
253.258	49.97
253.475	38.52
253.693	47.06
253.911	38.98
254.128	30.26
254.346	26.96
254.563	12.77
254.781	10.02
254.998	14.2
255.216	11.71
255.433	17.95
255.651	22.86
255.868	38.46
256.086	55.84
256.303	59.28
256.521	53.41
256.738	39.97
256.956	30.88
257.173	31.7
257.39	26.46
257.608	22.26
257.825	26.76
258.043	31.03
258.26	27.05
258.477	32.8
258.695	38.65
258.912	43.63
259.129	36.64
259.346	41.18
259.564	40.03
259.781	64.14
259.998	57.58
260.216	47.08
260.433	39.62
260.65	43.22
260.867	28.15
261.084	25.63
261.302	19.24
261.519	16.05
261.736	15.99
261.953	9.32
262.17	11.91
262.387	14.7
262.604	11.22
262.822	6.81
263.039	10.1
263.256	9.84
263.473	14.04
263.69	11.8
263.907	20.77
264.124	25.75
264.341	20.14
264.558	24.7
264.775	28.71
264.992	30.41
265.209	38.11
265.426	31.85
265.643	28.48
265.86	30.92
266.077	36.92
266.294	43.31
266.51	53.52
266.727	45.27
266.944	3.67
267.161	2.88
267.378	-6.82
267.595	-18.53
267.812	-34.36
268.028	-49.28
268.245	-40.14
268.462	0.24
268.679	-2.17
268.896	-7.1
269.112	7.46
269.329	9.9
269.546	9.57
269.763	21.99
269.979	23.87
270.196	29.16
270.413	46.89
270.629	39.59
270.846	46.43
271.063	46.65
271.279	46.42
271.496	40.74
271.712	37.62
271.929	30.5
272.146	35.83
272.362	13.97
272.579	18
272.795	0.94
273.012	11.67
273.228	16.62
273.445	20.33
273.661	9.05
273.878	22.96
274.094	30.97
274.311	41.16
274.527	40.35
274.744	50.29
274.96	47.89
275.177	57.04
275.393	62.12
275.609	59.17
275.826	58.41
276.042	76.26
276.259	62.97
276.475	55.01
276.691	56.66
276.908	47.72
277.124	43.71
277.34	39.67
277.557	30.3
277.773	28.82
277.989	24.64
278.205	0.8
278.422	3.63
278.638	6.22
278.854	10.46
279.07	0.54
279.286	-2.9
279.503	5.75
279.719	37.27
279.935	22.36
280.151	25.75
280.367	19.06
280.583	24.69
280.799	30.25
281.016	31.43
281.232	14.45
281.448	28.34
281.664	25.41
281.88	33.71
282.096	26.3
282.312	17.74
282.528	11.11
282.744	12.76
282.96	9.06
283.176	11.27
283.392	13.51
283.608	19.3
283.824	18.43
284.04	22.53
284.256	24.48
284.471	30.67
284.687	29.04
284.903	25.37
285.119	15.9
285.335	27.02
285.551	39.81
285.767	44.88
285.982	50.34
286.198	54.84
286.414	54.61
286.63	63.08
286.846	57.22
287.061	46.32
287.277	53.03
287.493	45.58
287.709	45.73
287.924	48.45
288.14	44.27
288.356	48.95
288.571	49.93
288.787	40.9
289.003	40.11
289.218	40.19
289.434	32.55
289.65	35.87
289.865	36.96
290.081	35.92
290.296	36.47
290.512	43.09
290.727	51.04
290.943	51.8
291.159	52.88
291.374	58.87
291.59	61.81
291.805	60.27
292.021	45.04
292.236	28.52
292.451	31.03
292.667	40.3
292.882	33.09
293.098	32.04
293.313	33.45
293.529	39.47
293.744	44.03
293.959	43.71
294.175	38.61
294.39	53.73
294.605	47.44
294.821	44.82
295.036	46.12
295.251	34.77
295.467	23.79
295.682	22.57
295.897	14.43
296.112	18.2
296.328	30.24
296.543	25.16
296.758	26.71
296.973	36.88
297.188	30.37
297.404	34.53
297.619	37.51
297.834	30.49
298.049	36.62
298.264	42.3
298.479	30.67
298.694	31.49
298.909	31.68
299.125	30.21
299.34	23.67
299.555	21.86
299.77	18.05
299.985	19.85
300.2	30.13
300.415	27.65
300.63	20.09
300.845	30.53
301.06	23.14
301.275	29.58
301.49	35.74
301.704	25.75
301.919	22.71
302.134	24.5
302.349	12.89
302.564	27.79
302.779	21.96
302.994	19.95
303.209	21.3
303.423	31.64
303.638	33.81
303.853	40.14
304.068	38.67
304.283	33.13
304.497	32.96
304.712	30.93
304.927	26.7
305.142	31.73
305.356	34.78
305.571	32.65
305.786	42.5
306	34.82
306.215	41.57
306.43	43.35
306.644	37.12
306.859	36.97
307.074	27.55
307.288	24.6
307.503	30.55
307.717	33.13
307.932	31.27
308.147	35.85
308.361	30.01
308.576	38.75
308.79	36.32
309.005	37.28
309.219	33.18
309.434	31.59
309.648	15.03
309.863	22.77
310.077	11.92
310.292	17.6
310.506	30.43
310.72	38.86
310.935	40.29
311.149	50.94
311.364	47.37
311.578	50.09
311.792	42.1
312.007	32.23
312.221	26.66
312.435	26.21
312.649	22.68
312.864	17.88
313.078	31.86
313.292	35.29
313.507	38.37
313.721	37.92
313.935	49.71
314.149	41.99
314.363	48.53
314.578	43.12
314.792	40.83
315.006	34.46
315.22	42.43
315.434	26.28
315.648	26.85
315.862	25.34
316.077	31.64
316.291	33.94
316.505	40.88
316.719	26.25
316.933	36.28
317.147	32.91
317.361	28.79
317.575	25.96
317.789	32.72
318.003	36.35
318.217	38.37
318.431	38.91
318.645	41.55
318.859	34.63
319.073	32.59
319.287	30.33
319.5	29.79
319.714	28.71
319.928	31.12
320.142	35.05
320.356	40.8
320.57	31.77
320.784	35.67
320.997	37.89
321.211	44.9
321.425	35.22
321.639	26.97
321.853	28.25
322.066	36.29
322.28	29.06
322.494	24.69
322.707	20.52
322.921	22.43
323.135	35.45
323.349	39.72
323.562	39.39
323.776	35.58
323.989	40.25
324.203	42.07
324.417	39.57
324.63	24.21
324.844	6.04
325.057	10.55
325.271	7.31
325.485	-0.04
325.698	-1.43
325.912	9.77
326.125	20.22
326.339	34.18
326.552	35
326.766	47.41
326.979	47.03
327.193	51.68
327.406	52.36
327.619	52.32
327.833	46.92
328.046	33.48
328.26	24.66
328.473	24.95
328.686	21.61
328.9	15.16
329.113	17.61
329.326	26.44
329.54	27.28
329.753	34.2
329.966	39.85
330.179	43.83
330.393	52.68
330.606	51.2
330.819	46.15
331.032	50.8
331.246	49.42
331.459	43.75
331.672	45.77
331.885	38.57
332.098	44.86
332.311	43.57
332.525	49.07
332.738	54.11
332.951	52.81
333.164	40.26
333.377	37.9
333.59	35.43
333.803	41.76
334.016	29.89
334.229	8.23
334.442	16.62
334.655	36.58
334.868	41.31
335.081	49.25
335.294	39.38
335.507	47.77
335.72	46.68
335.933	51.42
336.146	44.08
336.359	46.2
336.572	40.72
336.785	46.99
336.997	41.76
337.21	52.97
337.423	48.24
337.636	53.58
337.849	49.95
338.062	47.4
338.274	47.39
338.487	46.66
338.7	43.02
338.913	44.77
339.125	36.21
339.338	29.24
339.551	34.29
339.763	27.32
339.976	22.8
340.189	20.48
340.402	16.39
340.614	16.8
340.827	14.34
341.039	9.73
341.252	19.38
341.465	12.66
341.677	8.35
341.89	13.67
342.102	23.72
342.315	35.02
342.527	29.77
342.74	29.04
342.952	37.18
343.165	45.08
343.377	40.32
343.59	38.33
343.802	33.36
344.015	42.25
344.227	36.44
344.44	40.39
344.652	38.52
344.864	38.08
345.077	31.46
345.289	36.2
345.502	30.92
345.714	24.24
345.926	23.64
346.139	20.31
346.351	13.32
346.563	23.76
346.775	24.91
346.988	22.93
347.2	30.68
347.412	30.45
347.624	35.87
347.837	39.11
348.049	36.47
348.261	32.11
348.473	28.68
348.685	32.38
348.897	32.4
349.11	30.6
349.322	22.53
349.534	23.05
349.746	28.89
349.958	30.35
350.17	24.49
350.382	17.1
350.594	12.8
350.806	24.64
351.018	26.85
351.23	30.66
351.442	32.44
351.654	35.24
351.866	41.74
352.078	42.99
352.29	47.37
352.502	46.96
352.714	41.12
352.926	38.57
353.138	40.07
353.35	26.14
353.561	24.45
353.773	20.81
353.985	21.87
354.197	22.34
354.409	27.29
354.621	25.61
354.832	24.72
355.044	32.55
355.256	28.99
355.468	20.21
355.679	15.69
355.891	13.46
356.103	10.29
356.314	15.3
356.526	10.46
356.738	6.69
356.949	11.34
357.161	8.75
357.373	12.09
357.584	18.89
357.796	23.63
358.008	29.27
358.219	39.31
358.431	47.24
358.642	45.96
358.854	40.77
359.065	29.57
359.277	27.9
359.488	22.53
359.7	21.55
359.911	14.59
360.123	22.94
360.334	23.54
360.546	22.61
360.757	23.56
360.969	25.32
361.18	19.02
361.391	17.68
361.603	21.16
361.814	21.02
362.025	29.6
362.237	34.67
362.448	31.51
362.659	26.02
362.871	28.52
363.082	25.26
363.293	32.55
363.504	29.99
363.716	23.4
363.927	24.84
364.138	32.13
364.349	36.67
364.56	37.16
364.772	35.37
364.983	27.42
365.194	27.94
365.405	30.56
365.616	24.84
365.827	16.33
366.038	15.08
366.25	12.14
366.461	22.91
366.672	24.68
366.883	19.05
367.094	24.32
367.305	22.77
367.516	23.58
367.727	26.61
367.938	24.79
368.149	28.59
368.36	33.05
368.571	33.86
368.781	33.32
368.992	30.15
369.203	23.09
369.414	18.91
369.625	16.92
369.836	19.32
370.047	14.2
370.258	11.68
370.468	10.63
370.679	14.68
370.89	23.78
371.101	21.23
371.312	16.82
371.522	19.79
371.733	17.84
371.944	25.66
372.155	20.36
372.365	14.17
372.576	10.05
372.787	8.91
372.997	10.68
373.208	17.17
373.419	9.7
373.629	16.74
373.84	21.46
374.05	31.2
374.261	27.44
374.472	26.14
374.682	24.62
374.893	17.74
375.103	19.34
375.314	17.1
375.524	12.85
375.735	13.68
375.945	15.6
376.156	16.67
376.366	22.54
376.577	22.48
376.787	24.41
376.997	30.62
377.208	31.52
377.418	27.62
377.629	24.53
377.839	30.79
378.049	30.54
378.26	32.22
378.47	29.32
378.68	30.32
378.89	30.19
379.101	29.7
379.311	23.06
379.521	28.86
379.732	23.55
379.942	26.14
380.152	30.86
380.362	30.86
380.572	33.5
380.783	30.03
380.993	25.01
381.203	24.3
381.413	24.62
381.623	24.1
381.833	19.54
382.043	15.33
382.253	21.2
382.463	23.08
382.674	26.28
382.884	21.97
383.094	20.08
383.304	23.06
383.514	27.4
383.724	26.16
383.934	25.33
384.144	24.31
384.353	24.38
384.563	18.24
384.773	22.78
384.983	22.5
385.193	22.63
385.403	22.65
385.613	16.14
385.823	17.22
386.033	20.69
386.242	14.4
386.452	13.45
386.662	14.65
386.872	11.86
387.082	13.89
387.291	13.44
387.501	13.25
387.711	13.55
387.921	10.8
388.13	7.25
388.34	4.86
388.55	7.78
388.759	5.28
388.969	3.81
389.179	5.68
389.388	7.15
389.598	7.33
389.807	10.58
390.017	8.55
390.227	10.12
390.436	10.02
390.646	10.44
390.855	9.79
391.065	9.54
391.274	6.63
391.484	7.69
391.693	7.57
391.903	6.75
392.112	4.99
392.322	5.9
392.531	5.83
392.74	5.57
392.95	5.63
393.159	5.32
393.369	6.01
393.578	5.84
393.787	5.38
393.997	6.5
394.206	6.98
394.415	6.67
394.625	5.76
394.834	5.28
395.043	6.19
395.252	6.84
395.462	6.05
395.671	6.22
395.88	6.4
396.089	6.88
396.298	7.16
396.508	6.66
396.717	5.95
396.926	5.59
397.135	5.08
397.344	4.41
397.553	4.31
397.762	4.11
397.971	4.15
398.181	3.92
398.39	4.14
398.599	4.46
398.808	4.73
399.017	4.84
399.226	5.07
399.435	4.71
399.644	4.58
399.853	4.52
400.062	4.43
400.27	4.21
400.479	4.14
400.688	4.17
400.897	4.53
401.106	4.75
401.315	4.54
401.524	4.74
401.733	5.04
401.941	4.96
402.15	4.58
402.359	4.55
402.568	4.48
402.777	4.53
402.985	4.34
403.194	4.11
403.403	3.97
403.612	4.05
403.82	3.92
404.029	3.81
404.238	3.8
404.446	3.8
404.655	3.63
404.864	3.63
405.072	3.72
405.281	3.57
405.489	3.76
405.698	3.71
405.906	3.64
406.115	3.8
406.324	3.79
406.532	3.78
406.741	3.9
406.949	3.71
407.158	3.77
407.366	3.82
407.574	3.74
407.783	3.76
407.991	3.66
408.2	3.61
408.408	3.66
408.617	3.68
408.825	3.64
409.033	3.61
409.242	3.5
409.45	3.56
409.658	3.58
409.867	3.56
410.075	3.46
410.283	3.43
410.491	3.47
410.7	3.54
410.908	3.53
411.116	3.46
411.324	3.43
411.533	3.37
411.741	3.4
411.949	3.4
412.157	3.46
412.365	3.44
412.573	3.48
412.781	3.5
412.99	3.68
413.198	3.7
413.406	3.68
413.614	3.68
413.822	3.7
414.03	3.57
414.238	3.68
414.446	3.52
414.654	3.44
414.862	3.33
415.07	3.31
415.278	3.15
415.486	3.31
415.694	3.12
415.902	3.07
416.109	3.18
416.317	3.16
416.525	3.19
416.733	3.36
416.941	3.26
417.149	3.43
417.357	3.56
417.564	3.5
417.772	3.55
417.98	3.42
418.188	3.25
418.395	3.25
418.603	3.11
418.811	2.97
419.019	2.89
419.226	3
419.434	2.93
419.642	2.99
419.849	3.02
420.057	3
420.265	3.1
420.472	3.12
420.68	3.07
420.887	3.22
421.095	3.21
421.302	3.22
421.51	3.35
421.717	3.36
421.925	3.32
422.132	3.25
422.34	3.18
422.547	3.15
422.755	3.14
422.962	3
423.17	2.94
423.377	2.99
423.585	2.96
423.792	2.89
423.999	2.85
424.207	2.7
424.414	2.77
424.621	2.75
424.829	2.74
425.036	2.73
425.243	2.75
425.451	2.89
425.658	3.07
425.865	2.97
426.072	3.02
426.28	3.04
426.487	3.04
426.694	3.02
426.901	2.87
427.108	2.79
427.315	2.8
427.523	2.83
427.73	2.86
427.937	2.96
428.144	3
428.351	3.12
428.558	3.1
428.765	3.1
428.972	2.97
429.179	2.92
429.386	2.94
429.593	2.96
429.8	2.93
430.007	3
430.214	3.13
430.421	3.2
430.628	3.08
430.835	2.96
431.042	2.95
431.249	2.95
431.456	2.99
431.662	2.91
431.869	3.02
432.076	3.13
432.283	3.14
432.49	3.18
432.697	3.13
432.903	3.11
433.11	3.13
433.317	3.06
433.524	2.98
433.73	3.04
433.937	2.93
434.144	3.07
434.35	3.06
434.557	3.01
434.764	2.98
434.97	3.13
435.177	3.08
435.384	3.2
435.59	3.16
435.797	3.2
436.003	3.26
436.21	3.23
436.416	3.16
436.623	3.28
436.829	3.26
437.036	3.28
437.242	3.21
437.449	3.22
437.655	3.28
437.862	3.28
438.068	3.29
438.275	3.32
438.481	3.33
438.687	3.45
438.894	3.47
439.1	3.5
439.307	3.53
439.513	3.46
439.719	3.47
439.926	3.55
440.132	3.48
440.338	3.5
440.544	3.45
440.751	3.43
440.957	3.39
441.163	3.39
441.369	3.3
441.575	3.31
441.782	3.29
441.988	3.38
442.194	3.4
442.4	3.45
442.606	3.48
442.812	3.49
443.018	3.54
443.224	3.57
443.431	3.56
443.637	3.54
443.843	3.58
444.049	3.55
444.255	3.57
444.461	3.56
444.667	3.54
444.873	3.53
445.079	3.59
445.284	3.49
445.49	3.46
445.696	3.47
445.902	3.51
446.108	3.53
446.314	3.58
446.52	3.59
446.726	3.68
446.931	3.71
447.137	3.74
447.343	3.7
447.549	3.7
447.755	3.6
447.96	3.59
448.166	3.64
448.372	3.64
448.578	3.65
448.783	3.61
448.989	3.63
449.195	3.66
449.4	3.69
449.606	3.64
449.812	3.64
450.017	3.6
450.223	3.64
450.428	3.68
450.634	3.74
450.84	3.75
451.045	3.75
451.251	3.83
451.456	3.8
451.662	3.79
451.867	3.78
452.073	3.69
452.278	3.69
452.483	3.71
452.689	3.66
452.894	3.73
453.1	3.69
453.305	3.68
453.51	3.75
453.716	3.77
453.921	3.75
454.127	3.77
454.332	3.73
454.537	3.82
454.742	3.8
454.948	3.8
455.153	3.81
455.358	3.88
455.563	3.92
455.769	3.91
455.974	3.9
456.179	3.9
456.384	3.87
456.589	3.86
456.795	3.81
457	3.81
457.205	3.79
457.41	3.76
457.615	3.81
457.82	3.9
458.025	3.88
458.23	3.89
458.435	3.84
458.64	3.97
458.845	3.98
459.05	3.99
459.255	3.94
459.46	3.95
459.665	4
459.87	4
460.075	3.96
460.28	4.02
460.485	4.02
460.69	3.98
460.895	4.03
461.099	3.98
461.304	3.97
461.509	3.93
461.714	3.87
461.919	3.85
462.123	3.89
462.328	3.86
462.533	3.87
462.738	3.91
462.942	3.97
463.147	4.03
463.352	4.08
463.556	4.1
463.761	4.09
463.966	4.13
464.17	4.16
464.375	4.15
464.58	4.1
464.784	4.12
464.989	4.08
465.193	4.13
465.398	4.12
465.602	4.09
465.807	4.08
466.011	4.13
466.216	4.1
466.42	4.18
466.625	4.23
466.829	4.22
467.034	4.27
467.238	4.34
467.443	4.38
467.647	4.4
467.851	4.4
468.056	4.36
468.26	4.42
468.464	4.41
468.669	4.39
468.873	4.37
469.077	4.4
469.282	4.38
469.486	4.45
469.69	4.43
469.894	4.47
470.099	4.53
470.303	4.52
470.507	4.53
470.711	4.53
470.915	4.52
471.119	4.57
471.324	4.54
471.528	4.52
471.732	4.56
471.936	4.62
472.14	4.63
472.344	4.63
472.548	4.69
472.752	4.75
472.956	4.79
473.16	4.78
473.364	4.75
473.568	4.8
473.772	4.87
473.976	4.83
474.18	4.83
474.384	4.81
474.588	4.82
474.792	4.78
474.995	4.78
475.199	4.73
475.403	4.73
475.607	4.75
475.811	4.75
476.015	4.83
476.218	4.86
476.422	4.86
476.626	4.86
476.83	4.85
477.033	4.85
477.237	4.91
477.441	4.87
477.644	4.91
477.848	4.93
478.052	4.96
478.255	5
478.459	5.04
478.663	5.01
478.866	5.04
479.07	5.06
479.273	5.12
479.477	5.18
479.681	5.15
479.884	5.12
480.088	5.14
480.291	5.17
480.495	5.18
480.698	5.15
480.901	5.15
481.105	5.17
481.308	5.18
481.512	5.21
481.715	5.18
481.919	5.17
482.122	5.16
482.325	5.12
482.529	5.22
482.732	5.23
482.935	5.26
483.138	5.3
483.342	5.34
483.545	5.37
483.748	5.42
483.952	5.37
484.155	5.42
484.358	5.37
484.561	5.37
484.764	5.36
484.967	5.39
485.171	5.35
485.374	5.4
485.577	5.41
485.78	5.42
485.983	5.45
486.186	5.43
486.389	5.41
486.592	5.49
486.795	5.45
486.998	5.42
487.201	5.45
487.404	5.47
487.607	5.54
487.81	5.56
488.013	5.53
488.216	5.55
488.419	5.6
488.622	5.61
488.825	5.59
489.028	5.58
489.231	5.6
489.433	5.59
489.636	5.59
489.839	5.63
490.042	5.63
490.245	5.72
490.447	5.73
490.65	5.73
490.853	5.81
491.056	5.83
491.258	5.87
491.461	5.88
491.664	5.85
491.866	5.89
492.069	5.91
492.272	5.91
492.474	5.93
492.677	5.91
492.879	5.95
493.082	5.99
493.285	6.06
493.487	6.09
493.69	6.11
493.892	6.23
494.095	6.27
494.297	6.33
494.5	6.4
494.702	6.41
494.905	6.49
495.107	6.54
495.309	6.48
495.512	6.57
495.714	6.64
495.917	6.65
496.119	6.72
496.321	6.79
496.524	6.83
496.726	6.94
496.928	6.98
497.13	7.04
497.333	7.11
497.535	7.16
497.737	7.17
497.939	7.26
498.142	7.28
498.344	7.29
498.546	7.34
498.748	7.36
498.95	7.37
499.152	7.4
499.355	7.4
499.557	7.48
499.759	7.57
499.961	7.57
500.163	7.64
500.365	7.69
500.567	7.71
500.769	7.77
500.971	7.76
501.173	7.78
501.375	7.8
501.577	7.8
501.779	7.81
501.981	7.84
502.183	7.81
502.385	7.82
502.587	7.8
502.788	7.8
502.99	7.82
503.192	7.85
503.394	7.88
503.596	7.9
503.798	7.95
503.999	7.99
504.201	8.01
504.403	8.01
504.605	8.02
504.806	8
505.008	8.02
505.21	8
505.411	7.99
505.613	8.01
505.815	8.03
506.016	8.03
506.218	8.04
506.42	8.05
506.621	8.05
506.823	8.07
507.024	8.04
507.226	8.03
507.427	7.96
507.629	7.96
507.83	7.9
508.032	7.9
508.233	7.87
508.435	7.87
508.636	7.84
508.838	7.89
509.039	7.88
509.24	7.89
509.442	7.84
509.643	7.82
509.845	7.83
510.046	7.83
510.247	7.82
510.448	7.79
510.65	7.8
510.851	7.84
511.052	7.85
511.254	7.81
511.455	7.82
511.656	7.81
511.857	7.84
512.058	7.83
512.26	7.78
512.461	7.79
512.662	7.77
512.863	7.76
513.064	7.76
513.265	7.75
513.466	7.74
513.667	7.78
513.868	7.76
514.069	7.8
514.27	7.81
514.471	7.79
514.672	7.79
514.873	7.85
515.074	7.85
515.275	7.85
515.476	7.85
515.677	7.84
515.878	7.87
516.079	7.86
516.28	7.83
516.481	7.83
516.682	7.83
516.882	7.82
517.083	7.83
517.284	7.82
517.485	7.83
517.686	7.82
517.886	7.8
518.087	7.83
518.288	7.85
518.488	7.83
518.689	7.82
518.89	7.86
519.091	7.87
519.291	7.88
519.492	7.85
519.692	7.87
519.893	7.87
520.094	7.9
520.294	7.85
520.495	7.87
520.695	7.89
520.896	7.89
521.096	7.87
521.297	7.9
521.497	7.91
521.698	7.9
521.898	7.9
522.099	7.89
522.299	7.89
522.499	7.88
522.7	7.88
522.9	7.85
523.101	7.89
523.301	7.9
523.501	7.92
523.702	7.91
523.902	7.94
524.102	7.94
524.302	7.96
524.503	7.95
524.703	7.97
524.903	7.97
525.103	8.01
525.304	8
525.504	7.98
525.704	7.97
525.904	7.99
526.104	7.99
526.304	7.99
526.504	7.98
526.705	8
526.905	8.07
527.105	8.11
527.305	8.1
527.505	8.1
527.705	8.11
527.905	8.13
528.105	8.12
528.305	8.09
528.505	8.09
528.705	8.11
528.905	8.09
529.105	8.11
529.304	8.12
529.504	8.13
529.704	8.15
529.904	8.16
530.104	8.17
530.304	8.19
530.503	8.18
530.703	8.21
530.903	8.22
531.103	8.22
531.303	8.25
531.502	8.25
531.702	8.23
531.902	8.24
532.101	8.24
532.301	8.25
532.501	8.27
532.7	8.24
532.9	8.27
533.1	8.3
533.299	8.35
533.499	8.36
533.698	8.38
533.898	8.36
534.097	8.41
534.297	8.42
534.496	8.43
534.696	8.42
534.895	8.48
535.095	8.5
535.294	8.54
535.494	8.53
535.693	8.56
535.892	8.55
536.092	8.58
536.291	8.56
536.491	8.55
536.69	8.57
536.889	8.56
537.088	8.59
537.288	8.64
537.487	8.65
537.686	8.68
537.886	8.7
538.085	8.75
538.284	8.76
538.483	8.79
538.682	8.79
538.882	8.8
539.081	8.79
539.28	8.83
539.479	8.82
539.678	8.9
539.877	8.91
540.076	8.93
540.275	8.97
540.474	8.99
540.673	9.01
540.872	9.03
541.071	9.03
541.27	9.03
541.469	9.08
541.668	9.11
541.867	9.13
542.066	9.19
542.265	9.21
542.464	9.24
542.663	9.29
542.862	9.26
543.06	9.28
543.259	9.29
543.458	9.27
543.657	9.31
543.856	9.36
544.054	9.4
544.253	9.46
544.452	9.46
544.651	9.51
544.849	9.56
545.048	9.57
545.247	9.58
545.445	9.55
545.644	9.57
545.843	9.65
546.041	9.68
546.24	9.76
546.438	9.81
546.637	9.89
546.836	9.97
547.034	10.01
547.233	10.06
547.431	10.12
547.63	10.17
547.828	10.21
548.027	10.22
548.225	10.26
548.423	10.31
548.622	10.34
548.82	10.41
549.019	10.39
549.217	10.48
549.415	10.55
549.614	10.59
549.812	10.62
550.01	10.67
550.209	10.68
550.407	10.76
550.605	10.78
550.803	10.81
551.002	10.86
551.2	10.97
551.398	11.01
551.596	11.1
551.794	11.18
551.993	11.2
552.191	11.29
552.389	11.4
552.587	11.41
552.785	11.49
552.983	11.53
553.181	11.57
553.379	11.64
553.577	11.69
553.775	11.74
553.973	11.83
554.171	11.91
554.369	11.98
554.567	12.05
554.765	12.14
554.963	12.22
555.161	12.28
555.359	12.34
555.557	12.39
555.755	12.47
555.952	12.55
556.15	12.6
556.348	12.69
556.546	12.76
556.744	12.82
556.941	12.92
557.139	12.99
557.337	13.06
557.535	13.17
557.732	13.24
557.93	13.29
558.128	13.38
558.325	13.46
558.523	13.53
558.721	13.62
558.918	13.69
559.116	13.73
559.313	13.85
559.511	13.89
559.708	14
559.906	14.12
560.104	14.26
560.301	14.33
560.498	14.44
560.696	14.55
560.893	14.69
561.091	14.76
561.288	14.84
561.486	14.87
561.683	15.01
561.88	15.11
562.078	15.2
562.275	15.28
562.473	15.3
562.67	15.35
562.867	15.5
563.064	15.56
563.262	15.7
563.459	15.76
563.656	15.9
563.853	16.02
564.051	16.12
564.248	16.16
564.445	16.23
564.642	16.29
564.839	16.39
565.036	16.51
565.234	16.65
565.431	16.78
565.628	16.89
565.825	17
566.022	17.04
566.219	17.09
566.416	17.12
566.613	17.19
566.81	17.24
567.007	17.27
567.204	17.37
567.401	17.49
567.598	17.58
567.795	17.61
567.991	17.66
568.188	17.72
568.385	17.86
568.582	17.94
568.779	18.02
568.976	18.12
569.172	18.25
569.369	18.29
569.566	18.38
569.763	18.42
569.96	18.43
570.156	18.46
570.353	18.49
570.55	18.55
570.746	18.62
570.943	18.7
571.14	18.76
571.336	18.82
571.533	18.9
571.729	18.99
571.926	19.01
572.123	19.06
572.319	19.08
572.516	19.11
572.712	19.18
572.909	19.21
573.105	19.22
573.302	19.23
573.498	19.27
573.695	19.33
573.891	19.37
574.087	19.37
574.284	19.37
574.48	19.39
574.677	19.5
574.873	19.53
575.069	19.54
575.266	19.56
575.462	19.64
575.658	19.67
575.854	19.67
576.051	19.65
576.247	19.68
576.443	19.7
576.639	19.73
576.835	19.69
577.032	19.73
577.228	19.79
577.424	19.82
577.62	19.81
577.816	19.82
578.012	19.76
578.208	19.79
578.404	19.84
578.6	19.85
578.796	19.89
578.993	19.92
579.189	19.89
579.384	19.93
579.58	19.95
579.776	19.9
579.972	19.88
580.168	19.84
580.364	19.83
580.56	19.85
580.756	19.83
580.952	19.83
581.148	19.84
581.343	19.79
581.539	19.77
581.735	19.75
581.931	19.74
582.127	19.79
582.322	19.76
582.518	19.72
582.714	19.72
582.909	19.71
583.105	19.72
583.301	19.7
583.496	19.61
583.692	19.63
583.888	19.6
584.083	19.6
584.279	19.65
584.474	19.62
584.67	19.6
584.866	19.67
585.061	19.68
585.257	19.69
585.452	19.66
585.648	19.65
585.843	19.67
586.039	19.68
586.234	19.64
586.429	19.57
586.625	19.58
586.82	19.57
587.015	19.54
587.211	19.59
587.406	19.59
587.601	19.6
587.797	19.63
587.992	19.65
588.187	19.68
588.383	19.75
588.578	19.68
588.773	19.7
588.968	19.79
589.163	19.8
589.359	19.78
589.554	19.84
589.749	19.83
589.944	19.86
590.139	19.87
590.334	19.83
590.529	19.9
590.724	19.93
590.919	19.96
591.114	19.94
591.309	20.01
591.504	20.05
591.699	20.1
591.894	20.14
592.089	20.21
592.284	20.21
592.479	20.24
592.674	20.27
592.869	20.32
593.064	20.39
593.259	20.42
593.454	20.46
593.648	20.5
593.843	20.56
594.038	20.63
594.233	20.71
594.428	20.76
594.622	20.8
594.817	20.83
595.012	20.89
595.206	20.98
595.401	21.06
595.596	21.11
595.79	21.15
595.985	21.28
596.18	21.44
596.374	21.52
596.569	21.64
596.763	21.72
596.958	21.75
597.153	21.83
597.347	21.87
597.542	21.86
597.736	21.97
597.931	22.01
598.125	22.06
598.319	22.15
598.514	22.19
598.708	22.27
598.903	22.4
599.097	22.45
599.291	22.51
599.486	22.6
599.68	22.64
599.874	22.74
600.069	22.77
600.263	22.77
600.457	22.83
600.651	22.9
600.846	22.89
601.04	22.95
601.234	23.04
601.428	23.02
601.622	23.02
601.817	23.05
602.011	23.05
602.205	23.15
602.399	23.17
602.593	23.1
602.787	23.18
602.981	23.26
603.175	23.28
603.369	23.31
603.563	23.26
603.757	23.26
603.951	23.25
604.145	23.28
604.339	23.27
604.533	23.28
604.727	23.27
604.921	23.3
605.115	23.24
605.309	23.29
605.502	23.23
605.696	23.16
605.89	23.11
606.084	23.03
606.278	23.01
606.471	23.01
606.665	22.93
606.859	22.91
607.053	22.91
607.246	22.82
607.44	22.76
607.634	22.67
607.827	22.6
608.021	22.5
608.214	22.43
608.408	22.36
608.602	22.34
608.795	22.29
608.989	22.27
609.182	22.28
609.376	22.28
609.569	22.22
609.763	22.17
609.956	22.06
610.15	22.03
610.343	21.96
610.537	21.85
610.73	21.77
610.923	21.73
611.117	21.65
611.31	21.67
611.504	21.64
611.697	21.53
611.89	21.46
612.083	21.37
612.277	21.27
612.47	21.22
612.663	21.11
612.856	20.98
613.05	20.92
613.243	20.83
613.436	20.79
613.629	20.71
613.822	20.65
614.015	20.54
614.209	20.51
614.402	20.47
614.595	20.42
614.788	20.32
614.981	20.23
615.174	20.11
615.367	20.07
615.56	19.99
615.753	19.89
615.946	19.84
616.139	19.79
616.332	19.69
616.525	19.63
616.718	19.57
616.911	19.57
617.103	19.57
617.296	19.48
617.489	19.44
617.682	19.46
617.875	19.41
618.067	19.36
618.26	19.26
618.453	19.17
618.646	19.17
618.838	19.15
619.031	19.13
619.224	19.13
619.417	19.12
619.609	19.09
619.802	19.08
619.994	18.98
620.187	18.95
620.38	18.86
620.572	18.88
620.765	18.81
620.957	18.74
621.15	18.69
621.342	18.78
621.535	18.77
621.727	18.77
621.92	18.69
622.112	18.72
622.305	18.71
622.497	18.7
622.69	18.61
622.882	18.56
623.074	18.54
623.267	18.54
623.459	18.47
623.651	18.46
623.844	18.39
624.036	18.37
624.228	18.38
624.42	18.37
624.613	18.33
624.805	18.32
624.997	18.33
625.189	18.37
625.381	18.28
625.574	18.26
625.766	18.22
625.958	18.21
626.15	18.22
626.342	18.19
626.534	18.11
626.726	18.14
626.918	18.06
627.11	18.07
627.302	18.03
627.494	17.98
627.686	17.9
627.878	17.88
628.07	17.86
628.262	17.84
628.454	17.8
628.646	17.76
628.838	17.69
629.029	17.65
629.221	17.64
629.413	17.61
629.605	17.57
629.797	17.54
629.989	17.54
630.18	17.5
630.372	17.55
630.564	17.56
630.755	17.51
630.947	17.46
631.139	17.38
631.33	17.31
631.522	17.33
631.714	17.26
631.905	17.22
632.097	17.18
632.289	17.14
632.48	17.13
632.672	17.1
632.863	17.04
633.055	17.01
633.246	17.01
633.438	17
633.629	17.08
633.821	17.09
634.012	17.07
634.203	17.13
634.395	17.12
634.586	17.1
634.777	17.04
634.969	17
635.16	16.97
635.351	16.96
635.543	16.88
635.734	16.85
635.925	16.86
636.117	16.89
636.308	16.86
636.499	16.83
636.69	16.89
636.881	16.93
637.073	16.92
637.264	16.9
637.455	16.92
637.646	16.95
637.837	17
638.028	16.99
638.219	16.91
638.41	16.94
638.601	16.91
638.792	16.86
638.983	16.79
639.174	16.74
639.365	16.69
639.556	16.69
639.747	16.68
639.938	16.7
640.129	16.65
640.32	16.65
640.511	16.62
640.701	16.57
640.892	16.56
641.083	16.54
641.274	16.47
641.465	16.49
641.655	16.53
641.846	16.49
642.037	16.58
642.228	16.53
642.418	16.45
642.609	16.47
642.8	16.38
642.99	16.34
643.181	16.35
643.372	16.27
643.562	16.27
643.753	16.26
643.943	16.2
644.134	16.2
644.324	16.16
644.515	16.08
644.705	16.05
644.896	16.02
645.086	16.03
645.277	16.11
645.467	16.13
645.658	16.13
645.848	16.2
646.038	16.16
646.229	16.19
646.419	16.2
646.61	16.07
646.8	16.08
646.99	16.05
647.18	15.97
647.371	15.96
647.561	15.92
647.751	15.87
647.941	15.88
648.132	15.8
648.322	15.82
648.512	15.81
648.702	15.75
648.892	15.78
649.082	15.78
649.272	15.7
649.462	15.71
649.653	15.67
649.843	15.62
650.033	15.6
650.223	15.56
650.413	15.55
650.603	15.54
650.793	15.47
650.983	15.44
651.172	15.42
651.362	15.41
651.552	15.29
651.742	15.17
651.932	15.14
652.122	15.15
652.312	15.01
652.502	14.97
652.691	14.89
652.881	14.88
653.071	14.84
653.261	14.75
653.45	14.64
653.64	14.63
653.83	14.5
654.019	14.4
654.209	14.31
654.399	14.19
654.588	14.11
654.778	14.05
654.968	13.91
655.157	13.83
655.347	13.73
655.536	13.55
655.726	13.47
655.915	13.3
656.105	13.12
656.294	13.04
656.484	12.92
656.673	12.82
656.863	12.73
657.052	12.58
657.241	12.49
657.431	12.37
657.62	12.17
657.809	12.02
657.999	11.83
658.188	11.68
658.377	11.57
658.567	11.42
658.756	11.28
658.945	11.16
659.134	11.02
659.324	10.86
659.513	10.69
659.702	10.48
659.891	10.33
660.08	10.21
660.269	10.14
660.458	10.01
660.648	9.93
660.837	9.86
661.026	9.75
661.215	9.56
661.404	9.42
661.593	9.26
661.782	9.14
661.971	8.95
662.16	8.8
662.349	8.71
662.538	8.7
662.726	8.58
662.915	8.48
663.104	8.29
663.293	8.27
663.482	8.19
663.671	8.09
663.86	7.96
664.048	7.89
664.237	7.78
664.426	7.79
664.615	7.66
664.803	7.55
664.992	7.53
665.181	7.46
665.369	7.39
665.558	7.31
665.747	7.28
665.935	7.23
666.124	7.23
666.312	7.12
666.501	7.05
666.69	7.04
666.878	6.97
667.067	6.92
667.255	6.93
667.444	6.9
667.632	6.86
667.82	6.81
668.009	6.76
668.197	6.76
668.386	6.68
668.574	6.64
668.762	6.53
668.951	6.51
669.139	6.54
669.327	6.53
669.516	6.56
669.704	6.61
669.892	6.58
670.08	6.59
670.269	6.59
670.457	6.55
670.645	6.59
670.833	6.57
671.021	6.5
671.21	6.58
671.398	6.63
671.586	6.65
671.774	6.69
671.962	6.66
672.15	6.72
672.338	6.77
672.526	6.72
672.714	6.72
672.902	6.69
673.09	6.69
673.278	6.69
673.466	6.76
673.654	6.78
673.842	6.83
674.03	6.96
674.218	7
674.405	7.08
674.593	7.18
674.781	7.15
674.969	7.18
675.157	7.23
675.344	7.23
675.532	7.32
675.72	7.39
675.908	7.39
676.095	7.55
676.283	7.57
676.471	7.66
676.658	7.71
676.846	7.82
677.033	7.87
677.221	8
677.409	7.98
677.596	8.18
677.784	8.21
677.971	8.26
678.159	8.3
678.346	8.32
678.534	8.33
678.721	8.36
678.909	8.37
679.096	8.43
679.283	8.52
679.471	8.64
679.658	8.74
679.846	8.93
680.033	9.09
680.22	9.1
680.408	9.18
680.595	9.25
680.782	9.32
680.969	9.4
681.157	9.41
681.344	9.51
681.531	9.73
681.718	9.9
681.905	10.03
682.093	10.17
682.28	10.36
682.467	10.49
682.654	10.54
682.841	10.69
683.028	10.86
683.215	11
683.402	11.08
683.589	11.2
683.776	11.39
683.963	11.57
684.15	11.64
684.337	11.77
684.524	11.97
684.711	12.16
684.898	12.32
685.085	12.5
685.271	12.83
685.458	13.16
685.645	13.41
685.832	13.67
686.019	13.96
686.205	14.29
686.392	14.61
686.579	14.76
686.766	15
686.952	15.41
687.139	15.71
687.326	16.05
687.512	16.37
687.699	16.76
687.886	17.11
688.072	17.51
688.259	17.84
688.445	18.2
688.632	18.66
688.818	19.14
689.005	19.58
689.191	20.14
689.378	20.55
689.564	21.04
689.751	21.76
689.937	22.26
690.124	22.75
690.31	23.19
690.496	23.69
690.683	24.23
690.869	24.79
691.055	25.3
691.242	25.85
691.428	26.46
691.614	27.13
691.8	27.73
691.987	28.5
692.173	29.18
692.359	29.76
692.545	30.5
692.731	31.21
692.918	31.94
693.104	32.7
693.29	33.31
693.476	33.82
693.662	34.57
693.848	34.93
694.034	35.48
694.22	36.09
694.406	36.82
694.592	37.51
694.778	38.33
694.964	39
695.15	40.01
695.336	41.02
695.522	41.81
695.708	42.57
695.894	43.39
696.08	44.04
696.265	44.69
696.451	45.37
696.637	45.85
696.823	46.46
697.009	47.09
697.194	47.6
697.38	48.22
697.566	48.92
697.751	49.58
697.937	50.2
698.123	50.77
698.308	51.33
698.494	51.98
698.68	52.61
698.865	53.19
699.051	53.67
699.236	54.27
699.422	54.84
699.607	55.39
699.793	55.9
699.978	56.51
700.164	57.07
700.349	57.65
700.535	58.17
700.72	58.82
700.906	59.4
701.091	59.88
701.276	60.37
701.462	60.88
701.647	61.37
701.832	61.83
702.018	62.26
702.203	62.64
702.388	63.1
702.573	63.5
702.759	63.92
702.944	64.45
703.129	64.89
703.314	65.24
703.499	65.64
703.684	66.11
703.87	66.65
704.055	67.03
704.24	67.41
704.425	67.98
704.61	68.23
704.795	68.69
704.98	69.09
705.165	69.43
705.35	69.71
705.535	70.04
705.72	70.24
705.905	70.62
706.09	70.98
706.275	71.31
706.459	71.59
706.644	71.82
706.829	71.97
707.014	72.16
707.199	72.44
707.384	72.82
707.568	73.1
707.753	73.46
707.938	73.8
708.123	73.94
708.307	74.41
708.492	74.57
708.677	74.78
708.861	74.8
709.046	74.64
709.231	75.15
709.415	75.46
709.6	75.52
709.784	75.98
709.969	75.86
710.153	76.31
710.338	76.67
710.522	76.43
710.707	76.4
710.891	76.67
711.076	76.46
711.26	76.79
711.445	76.78
711.629	77.17
711.813	77.25
711.998	77.64
712.182	77.76
712.366	78.25
712.551	78.65
712.735	78.65
712.919	78.72
713.103	79.03
713.288	79.18
713.472	79.25
713.656	79.2
713.84	78.86
714.024	79.48
714.208	79.41
714.393	79.59
714.577	79.72
714.761	79.9
714.945	80.12
715.129	80.51
715.313	80.43
715.497	80.86
715.681	80.96
715.865	80.99
716.049	81.19
716.233	81.38
716.417	81.49
716.601	81.58
716.785	81.54
716.968	81.59
717.152	81.74
717.336	81.76
717.52	81.9
717.704	82.08
717.888	82.25
718.071	82.42
718.255	82.68
718.439	82.7
718.622	82.86
718.806	82.64
718.99	82.75
719.174	82.55
719.357	82.65
719.541	83.12
719.724	83.34
719.908	83.27
720.092	83.66
720.275	83.62
720.459	83.82
720.642	83.77
720.826	83.42
721.009	83.3
721.193	83.49
721.376	83.33
721.559	83.22
721.743	83.28
721.926	83.18
722.11	83.39
722.293	83.33
722.476	83.23
722.66	83.46
722.843	83.66
723.026	84.02
723.21	84.01
723.393	83.92
723.576	84.08
723.759	84.28
723.942	84.34
724.126	84.46
724.309	84.25
724.492	84.86
724.675	85.03
724.858	85.65
725.041	85.72
725.224	86.08
725.407	85.96
725.59	85.96
725.774	85.77
725.957	85.86
726.14	85.51
726.322	85.29
726.505	85.24
726.688	85.5
726.871	85.66
727.054	85.82
727.237	85.69
727.42	86.3
727.603	86.88
727.786	87.04
727.968	87.19
728.151	87.29
728.334	87.16
728.517	87.44
728.699	87.34
728.882	87.61
729.065	87.56
729.248	87.55
729.43	87.46
729.613	87.59
729.796	87.49
729.978	87.49
730.161	87.52
730.343	87.63
730.526	88.08
730.708	88.79
730.891	89.24
731.073	89.41
731.256	89.44
731.438	89.36
731.621	89.74
731.803	89.51
731.986	89.29
732.168	89.01
732.35	89.22
732.533	89.38
732.715	89.3
732.898	89.28
733.08	89.52
733.262	89.59
733.444	89.69
733.627	89.85
733.809	89.84
733.991	89.73
734.173	89.53
734.355	89.73
734.538	89.62
734.72	89.92
734.902	89.62
735.084	89.76
735.266	89.95
735.448	90.1
735.63	89.82
735.812	90.07
735.994	89.65
736.176	89.95
736.358	90.15
736.54	90.04
736.722	89.68
736.904	90.11
737.086	89.82
737.268	90.45
737.45	90.65
737.632	90.39
737.814	90.55
737.995	91.28
738.177	91.45
738.359	91.92
738.541	91.26
738.723	91.21
738.904	90.8
739.086	90.98
739.268	90.94
739.449	90.77
739.631	90.66
739.813	90.97
739.994	91.03
740.176	91.6
740.358	91.86
740.539	91.73
740.721	91.54
740.902	91.7
741.084	92.2
741.265	92.23
741.447	92.01
741.628	91.44
741.81	91.59
741.991	91.89
742.172	91.59
742.354	91.64
742.535	91.62
742.717	91.56
742.898	92.26
743.079	91.94
743.261	91.72
743.442	92.12
743.623	91.59
743.804	91.63
743.986	91.72
744.167	91.38
744.348	91.56
744.529	91.02
744.71	90.42
744.891	90.49
745.073	90.65
745.254	90.97
745.435	90.83
745.616	90.65
745.797	90.8
745.978	91.48
746.159	91.32
746.34	91.2
746.521	90.53
746.702	90.15
746.883	90.64
747.064	90.75
747.245	90.67
747.426	91.03
747.606	90.91
747.787	91.58
747.968	92.1
748.149	91.99
748.33	92.83
748.51	92.41
748.691	92.29
748.872	92.4
749.053	92.29
749.233	92.04
749.414	91.76
749.595	90.64
749.775	90.9
749.956	90.35
750.137	89.87
750.317	89.35
750.498	89.97
750.678	89.97
750.859	89.62
751.04	89.31
751.22	89.37
751.4	90.28
751.581	90.71
751.761	90.6
751.942	90.53
752.122	91.43
752.303	92.04
752.483	92.77
752.663	92.72
752.844	92.11
753.024	91.75
753.204	91.94
753.385	91.41
753.565	90.01
753.745	89.14
753.925	88.09
754.106	88.73
754.286	88.78
754.466	87.77
754.646	88.26
754.826	89.58
755.006	89.66
755.187	89.99
755.367	89.78
755.547	89.5
755.727	89.97
755.907	89.47
756.087	89.01
756.267	89.07
756.447	89.11
756.627	89.03
756.807	89.9
756.987	90.44
757.167	90.85
757.346	90.94
757.526	91.3
757.706	91.26
757.886	91.11
758.066	90.61
758.246	90.03
758.425	90.19
758.605	89.89
758.785	89.81
758.965	89.34
759.144	89.72
759.324	89.22
759.504	89.35
759.683	88.53
759.863	88.63
760.043	89.07
760.222	89.13
760.402	89.32
760.581	88.5
760.761	88.08
760.94	87.79
761.12	87.38
761.299	86.81
761.479	87.6
761.658	86.78
761.838	87.87
762.017	88.04
762.197	89.13
762.376	89.33
762.555	89.11
762.735	87.71
762.914	88.63
763.093	88.41
763.273	89.21
763.452	88.2
763.631	87.78
763.81	88.05
763.99	89.23
764.169	88.16
764.348	88.78
764.527	88.14
764.706	88.76
764.885	89.79
765.064	90.07
765.243	89.22
765.423	90.53
765.602	89.67
765.781	89.71
765.96	89.5
766.139	88.3
766.318	88.58
766.497	89.41
766.676	88.9
766.854	88.52
767.033	88.76
767.212	88.04
767.391	88.67
767.57	88.16
767.749	87.72
767.928	87.06
768.106	87.5
768.285	87.1
768.464	87.82
768.643	88.45
768.821	88.19
769	88.28
769.179	87.76
769.357	87.53
769.536	86.94
769.715	87.44
769.893	86.87
770.072	87.21
770.25	86.77
770.429	87.62
770.607	87.66
770.786	88.48
770.964	87.21
771.143	87.06
771.321	86.23
771.5	86.29
771.678	87.1
771.857	87.13
772.035	86.73
772.213	87.27
772.392	87.33
772.57	87.97
772.748	87.89
772.927	86.83
773.105	87.17
773.283	86.23
773.461	86.3
773.64	85.64
773.818	84.52
773.996	85.02
774.174	85.77
774.352	85.57
774.531	85.78
774.709	85.67
774.887	85.27
775.065	85.86
775.243	85.53
775.421	84.03
775.599	83.66
775.777	84.7
775.955	84.64
776.133	85.26
776.311	84.45
776.489	83.52
776.667	84.25
776.844	84.47
777.022	83.79
777.2	84.23
777.378	84.6
777.556	86.08
777.734	87.07
777.911	87.44
778.089	86.83
778.267	87.62
778.445	86.71
778.622	85.97
778.8	85.01
778.978	84.81
779.155	83.55
779.333	82.7
779.511	81.84
779.688	81.14
779.866	80.28
780.043	80.82
780.221	81.16
780.398	82.27
780.576	82.95
780.753	82.3
780.931	83.8
781.108	84.72
781.286	84.71
781.463	84.29
781.64	84.95
781.818	85.4
781.995	85.57
782.172	85.18
782.35	83.69
782.527	83.68
782.704	82.59
782.882	82.31
783.059	82.13
783.236	83.87
783.413	82.68
783.59	84.12
783.768	82.57
783.945	84.94
784.122	83.83
784.299	84.38
784.476	83.24
784.653	84.14
784.83	83.29
785.007	84.71
785.184	82.34
785.361	80.54
785.538	82
785.715	81
785.892	80.42
786.069	81.18
786.246	80.64
786.423	81.9
786.6	83.74
786.776	81.43
786.953	82.44
787.13	83.97
787.307	83.58
787.484	83.81
787.66	84.04
787.837	84.88
788.014	85.29
788.191	83.85
788.367	83.2
788.544	82.79
788.721	82.21
788.897	83.51
789.074	82.19
789.25	82.79
789.427	84.09
789.603	85.93
789.78	86.65
789.956	87.78
790.133	86.13
790.309	86.89
790.486	88.62
790.662	89.18
790.839	87.25
791.015	88.29
791.192	88.54
791.368	91.5
791.544	90.87
791.721	87.4
791.897	87.69
792.073	87.24
792.249	88.2
792.426	88.79
792.602	85.66
792.778	86.7
792.954	89.23
793.13	88.93
793.307	88.39
793.483	85.4
793.659	85.78
793.835	84.93
794.011	83.82
794.187	79.77
794.363	78.26
794.539	78
794.715	77.27
794.891	73.31
795.067	74.91
795.243	73.93
795.419	77.72
795.595	76.64
795.771	77.85
795.947	78.12
796.122	80.82
796.298	79.94
796.474	82.24
796.65	83.02
796.826	86.86
797.001	87.23
797.177	89.02
797.353	91.4
797.529	91.36
797.704	89.45
797.88	86.04
798.056	86.86
798.231	84.85
798.407	83.78
798.582	80.55
798.758	81.03
798.934	80.49
799.109	78.83
799.285	77.37
799.46	75.92
799.636	78.7
799.811	80.26
799.986	80.65
800.162	81.12
800.337	81.91
800.513	82.5
800.688	85.29
800.863	82.58
801.039	80.37
801.214	80.31
801.389	81.76
801.565	84.53
801.74	84.06
801.915	83.34
802.09	82.03
802.265	83.34
802.441	85.19
802.616	85.52
802.791	87.04
802.966	87.14
803.141	85.67
803.316	91.91
803.491	92.33
803.666	90.27
803.841	91.73
804.016	87.4
804.191	84.93
804.366	86.55
804.541	81.18
804.716	77.68
804.891	80.5
805.066	76.39
805.241	76.78
805.416	76.77
805.591	79.55
805.765	83.48
805.94	85.28
806.115	79.38
806.29	79.7
806.464	78.34
806.639	80.37
806.814	76.63
806.989	72.83
807.163	73.3
807.338	72.61
807.512	71.14
807.687	73.08
807.862	71.22
808.036	70.2
808.211	73.17
808.385	72.97
808.56	76.4
808.734	76.21
808.909	75.86
809.083	77.46
809.258	83.71
809.432	80.59
809.606	81.03
809.781	79.67
809.955	80.8
810.13	85.31
810.304	81.27
810.478	77.73
810.652	80.59
810.827	81.22
811.001	80.14
811.175	78.39
811.349	73.4
811.524	73.98
811.698	71
811.872	71.88
812.046	70.05
812.22	68.42
812.394	73.6
812.568	78.51
812.742	76.96
812.916	76.82
813.09	72.03
813.264	72.37
813.438	80.05
813.612	78.11
813.786	81.38
813.96	86.7
814.134	92.24
814.308	90.25
814.482	90.18
814.656	88.49
814.83	87.49
815.003	83.13
815.177	84.52
815.351	80.58
815.525	84.61
815.698	80.07
815.872	76.78
816.046	77.86
816.219	80.16
816.393	78.34
816.567	77.12
816.74	76.77
816.914	85.9
817.088	84.7
817.261	82.91
817.435	75.6
817.608	74.95
817.782	84.05
817.955	84.28
818.129	84.43
818.302	89.34
818.475	93.8
818.649	93.17
818.822	95.63
818.996	91.09
819.169	89.7
819.342	80.69
819.516	80.76
819.689	79.03
819.862	79.41
820.035	77.04
820.209	72.63
820.382	73.69
820.555	80.87
820.728	73.85
820.901	70.72
821.075	73.93
821.248	74.25
821.421	76.21
821.594	75.95
821.767	71.84
821.94	71.05
822.113	72.98
822.286	76.91
822.459	81.41
822.632	85.49
822.805	86.8
822.978	83.01
823.151	94.05
823.324	85.83
823.496	74.49
823.669	73.33
823.842	73.78
824.015	74.08
824.188	72.82
824.361	60.32
824.533	68.26
824.706	80.26
824.879	74.59
825.051	76.01
825.224	75.05
825.397	73.4
825.569	79.83
825.742	76.41
825.915	70.49
826.087	70.79
826.26	70.62
826.432	69.76
826.605	77.86
826.777	78.88
826.95	70.49
827.122	79.3
827.295	80.69
827.467	72.77
827.64	64.31
827.812	60.25
827.984	62.03
828.157	71.53
828.329	63.69
828.501	67
828.674	66.57
828.846	71.78
829.018	67.92
829.19	60.69
829.363	59.41
829.535	68.06
829.707	59.12
829.879	67.23
830.051	67.53
830.223	68.35
830.395	71.14
830.568	72.75
830.74	64.6
830.912	65.54
831.084	56.68
831.256	55.1
831.428	60.04
831.6	64.57
831.772	69.8
831.943	76.82
832.115	76.76
832.287	81.83
832.459	86.95
832.631	88.06
832.803	86.15
832.975	80.59
833.146	74.49
833.318	71.18
833.49	73.87
833.662	68.45
833.833	68.46
834.005	70.84
834.177	77.97
834.348	79.66
834.52	90.12
834.692	93.89
834.863	98.1
835.035	85.14
835.206	87.82
835.378	76.95
835.549	76.61
835.721	72.31
835.892	66.27
836.064	72.41
836.235	82.54
836.407	79.9
836.578	83.45
836.749	87.79
836.921	92.91
837.092	111.12
837.264	100.08
837.435	86.28
837.606	83.9
837.777	70.19
837.949	55.83
838.12	53.5
838.291	52.77
838.462	55.75
838.633	59.12
838.805	53.28
838.976	64.59
839.147	61.42
839.318	57.63
839.489	46.59
839.66	52.61
839.831	49.16
840.002	56.11
840.173	57.2
840.344	74.68
840.515	72.15
840.686	78.82
840.857	78.11
841.028	81
841.199	79.67
841.369	78.64
841.54	79.5
841.711	93.86
841.882	94.79
842.053	88.62
842.223	110.02
842.394	98.33
842.565	100.56
842.736	107.91
842.906	109.31
843.077	83.32
843.248	84.79
843.418	76.16
843.589	88.7
843.759	89.43
843.93	88
844.101	79.54
844.271	96.33
844.442	100.85
844.612	106.26
844.783	80.6
844.953	71.2
845.123	67.25
845.294	63.94
845.464	71.3
845.635	75.72
845.805	75.41
845.975	85.36
846.146	87.92
846.316	103.59
846.486	101.83
846.656	99.01
846.827	93.17
846.997	103.04
847.167	104.83
847.337	105.4
847.507	96.28
847.677	105.24
847.848	112.14
848.018	111.75
848.188	99.88
848.358	110.39
848.528	109.29
848.698	92.38
848.868	67.45
849.038	60.65
849.208	71.9
849.378	60.77
849.548	55.8
849.718	73.34
849.887	85.33
850.057	93.58
850.227	83.61
850.397	73.83
850.567	96.91
850.737	89.7
850.906	63.31
851.076	68.73
851.246	78.99
851.415	96.67
851.585	91.65
851.755	95.64
851.924	108.25
852.094	104.91
852.264	101.49
852.433	106.56
852.603	107.56
852.772	100.59
852.942	76.51
853.111	71.5
853.281	80.76
853.45	81.36
853.62	65.43
853.789	54.32
853.959	66.11
854.128	55.41
854.297	61.85
854.467	59.12
854.636	61.08
854.805	73.05
854.975	78.42
855.144	84.93
855.313	102.15
855.482	85.14
855.652	82.83
855.821	78.04
855.99	70.76
856.159	84.11
856.328	67.58
856.497	60.56
856.667	61.19
856.836	64.76
857.005	71.27
857.174	80.02
857.343	70.81
857.512	63.2
857.681	67.18
857.85	81.21
858.019	72.21
858.188	69.74
858.356	60.38
858.525	45.66
858.694	61.3
858.863	61.43
859.032	61.27
859.201	71.05
859.369	56.84
859.538	53.18
859.707	66.68
859.876	71.44
860.044	85.93
860.213	74.98
860.382	58.4
860.55	77.03
860.719	86.43
860.888	88.27
861.056	79.21
861.225	59.76
861.393	69.34
861.562	68.25
861.73	57.94
861.899	37.53
862.067	41.29
862.236	47.95
862.404	48.26
862.572	54.14
862.741	64.37
862.909	64.63
863.078	60.22
863.246	70.32
863.414	65
863.582	69.06
863.751	51.18
863.919	60.95
864.087	58.01
864.255	64.69
864.424	55.55
864.592	61.03
864.76	81.85
864.928	73.55
865.096	65.1
865.264	66.72
865.432	61.21
865.6	44.81
865.768	35.97
865.936	2.71
866.104	17.66
866.272	16.47
866.44	-15.19
866.608	-18.14
866.776	32.72
866.944	15.39
867.112	6.52
867.28	-6.18
867.448	17.25
867.615	43.26
867.783	38.36
867.951	39.66
868.119	76.75
868.286	89.98
868.454	82.06
868.622	72.04
868.789	93.57
868.957	110.34
869.125	92.84
869.292	91.46
869.46	88.55
869.627	75.67
869.795	84.78
869.963	60.56
870.13	50.38
870.298	53.9
870.465	43.19
870.632	52.7
870.8	55.47
870.967	46.71
871.135	41.57
871.302	41.8
871.469	38.12
871.637	34.9
871.804	40.69
871.971	43.59
872.139	57.99
872.306	74.52
872.473	78.88
872.64	85.06
872.807	106.43
872.975	135.61
873.142	125.53
873.309	138.25
873.476	156.01
873.643	174.41
873.81	150.04
873.977	68.59
874.144	23.9
874.311	18.44
874.478	-22.59
874.645	-25.32
874.812	30.66
874.979	18.45
875.146	37.44
875.313	44.88
875.48	119.91
875.647	137.71
875.813	139.57
875.98	85.32
876.147	135.3
876.314	124.73
876.481	102.71
876.647	75.67
876.814	83.28
876.981	84.71
877.147	79.14
877.314	43.31
877.481	54.51
877.647	69.47
877.814	77.85
877.98	110.18
878.147	78.62
878.314	67.64
878.48	75.15
878.647	94.14
878.813	75.43
878.979	58.86
879.146	32.72
879.312	60.11
879.479	71.55
879.645	66.95
879.811	50.24
879.978	70.65
880.144	97.76
880.31	109.76
880.477	75.61
880.643	145.92
880.809	166.58
880.975	132.82
881.142	102.83
881.308	102.24
881.474	133.8
881.64	95.54
881.806	70.05
881.972	73.89
882.138	74.29
882.304	19.26
882.47	32.38
882.636	5.48
882.802	55.68
882.968	52.61
883.134	38.27
883.3	32.86
883.466	82.93
883.632	39.63
883.798	50.31
883.964	43.1
884.129	61.78
884.295	40.81
884.461	55.44
884.627	75.12
884.793	87.47
884.958	63.52
885.124	58.95
885.29	34.03
885.455	40.85
885.621	31.6
885.787	18.63
885.952	22.64
886.118	36.84
886.283	55.28
886.449	46.55
886.614	53.99
886.78	63.11
886.945	45.33
887.111	30.02
887.276	44.18
887.442	23.42
887.607	45.87
887.773	29.43
887.938	23.55
888.103	50.13
888.269	53.9
888.434	48.77
888.599	59.19
888.764	65.05
888.93	84.77
889.095	83.07
889.26	121.49
889.425	134.91
889.59	89.83
889.756	90.77
889.921	74.86
890.086	73.34
890.251	54.25
890.416	6.17
890.581	-10.58
890.746	-16.97
890.911	-36.45
891.076	-41.62
891.241	-30.27
891.406	37.74
891.571	49.43
891.736	56.11
891.901	109.25
892.065	115.09
892.23	88.81
892.395	72.14
892.56	57.63
892.725	51.62
892.889	34.77
893.054	-13.1
893.219	-45.14
893.384	-60.25
893.548	-255.83
893.713	414.6
893.878	206.52
