Data from Ofra_2a_PS_6EV18_Reflection_2.txt Node
Date: Tue Jul 20 09:53:06 EDT 2021
User: Adam
Spectrometer: FLMT01687
Trigger mode: 0
Integration Time (sec): 9.450000E-1
Scans to average: 3
Electric dark correction enabled: true
Nonlinearity correction enabled: false
Boxcar width: 3
XAxis mode: Wavelengths
Number of Pixels in Spectrum: 3648
>>>>>Begin Spectral Data<<<<<
179.494	1165.68
179.716	770.16
179.937	729.12
180.158	3074.61
180.38	-1429.94
180.601	-192.84
180.823	-25.41
181.044	50.3
181.265	80.5
181.486	79.96
181.708	1175
181.929	-19.42
182.15	-933.52
182.372	215.43
182.593	52.31
182.814	240.87
183.035	126.55
183.257	62.11
183.478	64.2
183.699	68.58
183.92	53.21
184.141	52.33
184.363	50.67
184.584	33.1
184.805	40.66
185.026	29.33
185.247	15.99
185.468	30.21
185.689	17.91
185.91	12.14
186.132	20.09
186.353	6.97
186.574	13.18
186.795	-5.47
187.016	0.83
187.237	14.66
187.458	-3.73
187.679	-22.2
187.9	-5.37
188.121	-4.41
188.342	33.03
188.563	23.6
188.784	7.91
189.005	22.35
189.226	30.38
189.447	20.91
189.667	30
189.888	31.68
190.109	29.48
190.33	33.7
190.551	33.69
190.772	35.26
190.993	33.16
191.214	26.25
191.434	29.23
191.655	40.44
191.876	32.2
192.097	21.96
192.318	19.72
192.538	20.39
192.759	25.4
192.98	20.35
193.201	20.31
193.421	36.24
193.642	42.8
193.863	46.23
194.083	50.66
194.304	48.36
194.525	46.57
194.745	24.55
194.966	14.32
195.187	17.04
195.407	18.63
195.628	20.42
195.848	17.58
196.069	19.14
196.29	28.01
196.51	23.53
196.731	41.63
196.951	33.56
197.172	29.37
197.392	33.64
197.613	23.63
197.833	25.37
198.054	30.07
198.274	1.26
198.495	13.68
198.715	-1.8
198.936	-4.32
199.156	3.99
199.377	2.03
199.597	-6.58
199.817	14.73
200.038	14.34
200.258	37.1
200.479	35.28
200.699	48.57
200.919	42.89
201.14	46.55
201.36	53.02
201.58	58.77
201.801	46.59
202.021	40.62
202.241	38.55
202.461	39.57
202.682	41.15
202.902	30.92
203.122	21.33
203.342	25.69
203.563	36.79
203.783	29.88
204.003	34.65
204.223	35.52
204.443	39.16
204.663	43.06
204.884	37.4
205.104	33.25
205.324	42.27
205.544	48.32
205.764	43.15
205.984	42.67
206.204	39.18
206.424	39.77
206.644	28.71
206.864	21.9
207.084	21.02
207.304	21.62
207.525	14.71
207.745	15.64
207.964	14.09
208.184	11.79
208.404	2.73
208.624	-13.2
208.844	-26.34
209.064	-16.29
209.284	-13.77
209.504	-21.33
209.724	-29.79
209.944	-18.79
210.164	-5.35
210.384	9.02
210.604	-8.28
210.823	-7.7
211.043	-12.65
211.263	1.48
211.483	4.87
211.703	2.15
211.922	4.23
212.142	27.33
212.362	28.38
212.582	34.04
212.801	28.87
213.021	33.54
213.241	43.65
213.461	35.71
213.68	30.03
213.9	36.42
214.12	22.54
214.339	26.77
214.559	31.56
214.779	34.03
214.998	34.37
215.218	33.85
215.438	42.17
215.657	51.06
215.877	51.8
216.096	53.89
216.316	48.15
216.535	50.94
216.755	31.38
216.974	15.26
217.194	9.94
217.413	24.79
217.633	8.45
217.852	-5.89
218.072	1.24
218.291	31.77
218.511	32.9
218.73	25.04
218.95	11.44
219.169	15.97
219.389	13.29
219.608	14.36
219.827	-2.77
220.047	-4.04
220.266	8.42
220.485	13.71
220.705	9.11
220.924	10.41
221.143	-0.75
221.363	-3.54
221.582	-7.35
221.801	8.77
222.021	10.29
222.24	5.18
222.459	7.07
222.678	3.63
222.897	11.54
223.117	12.97
223.336	0.58
223.555	-13.04
223.774	-1.53
223.993	5.56
224.213	7.21
224.432	1.41
224.651	-0.37
224.87	-3.42
225.089	2.78
225.308	-2.76
225.527	-11.65
225.746	-6.3
225.965	-6.32
226.184	-11.86
226.404	-18.18
226.623	-14.92
226.842	-13.88
227.061	-5.34
227.28	-0.86
227.499	14.06
227.718	17.7
227.936	12.47
228.155	17.14
228.374	19.31
228.593	17.84
228.812	12.26
229.031	-0.45
229.25	8.6
229.469	23.99
229.688	25.91
229.907	19.03
230.125	18.72
230.344	19.08
230.563	26.09
230.782	12.77
231.001	13.63
231.22	13.26
231.438	27.41
231.657	35.82
231.876	33.7
232.095	30.51
232.313	40.48
232.532	36.51
232.751	32.78
232.969	40.34
233.188	38.03
233.407	41.88
233.625	49.5
233.844	45.63
234.063	46.71
234.281	34.22
234.5	28.12
234.719	26.94
234.937	29.79
235.156	18.82
235.374	16.21
235.593	10
235.811	7.97
236.03	-19.85
236.249	-4.19
236.467	11.52
236.686	16.76
236.904	12.83
237.123	17.16
237.341	20.66
237.559	27.6
237.778	13.73
237.996	10.13
238.215	8.74
238.433	11.01
238.652	6.16
238.87	5.04
239.088	3.08
239.307	12.72
239.525	-2.49
239.743	-9.76
239.962	-0.41
240.18	-0.17
240.398	11.27
240.617	20.4
240.835	21.76
241.053	40.4
241.271	50.37
241.49	33.85
241.708	38.15
241.926	23.98
242.144	14.75
242.363	4.9
242.581	-1.89
242.799	-18.34
243.017	-6.15
243.235	-13.14
243.453	3.17
243.672	13.74
243.89	16.06
244.108	30.54
244.326	32.34
244.544	35.04
244.762	35.56
244.98	31.55
245.198	13.67
245.416	15.97
245.634	10.37
245.852	26.84
246.07	27.3
246.288	30.26
246.506	35.72
246.724	51.25
246.942	52.17
247.16	43.29
247.378	32.22
247.596	33.84
247.814	19.14
248.032	19.65
248.25	5.26
248.468	8.49
248.685	14.1
248.903	4.44
249.121	6.44
249.339	20.38
249.557	16.84
249.775	5.26
249.992	-6.24
250.21	-12.61
250.428	-0.93
250.646	-3.12
250.863	-3.67
251.081	-7.11
251.299	21.75
251.517	37.34
251.734	41.71
251.952	43.41
252.17	29.47
252.387	29.53
252.605	35.67
252.823	27.2
253.04	24.1
253.258	18.28
253.475	17.43
253.693	38.94
253.911	44
254.128	31.9
254.346	28.6
254.563	16.58
254.781	14.84
254.998	9.79
255.216	4.21
255.433	1.72
255.651	10.12
255.868	14.72
256.086	32.62
256.303	38.47
256.521	47.75
256.738	43.1
256.956	36.77
257.173	24.79
257.39	33.05
257.608	31.05
257.825	27.44
258.043	29.52
258.26	33.09
258.477	39.67
258.695	43.7
258.912	43.68
259.129	29.26
259.346	34.96
259.564	39.98
259.781	50.39
259.998	44.98
260.216	57.44
260.433	53.3
260.65	65.98
260.867	53.5
261.084	45.26
261.302	29.91
261.519	15.11
261.736	3.93
261.953	8.6
262.17	9.14
262.387	11.61
262.604	4.56
262.822	6.23
263.039	20.3
263.256	13.89
263.473	3
263.69	16.21
263.907	32.57
264.124	26.36
264.341	18.49
264.558	23.7
264.775	34.72
264.992	36.3
265.209	29.15
265.426	16.48
265.643	21.55
265.86	26.38
266.077	26.26
266.294	19.49
266.51	25.18
266.727	20.77
266.944	15.58
267.161	6.19
267.378	14.15
267.595	5.37
267.812	4.72
268.028	3.96
268.245	2.8
268.462	20.49
268.679	26.68
268.896	20.39
269.112	31.77
269.329	38.08
269.546	31.01
269.763	41.92
269.979	31.57
270.196	35.53
270.413	35.12
270.629	23.36
270.846	22.8
271.063	31.7
271.279	20.64
271.496	13.49
271.712	1.77
271.929	1.79
272.146	6.59
272.362	-18.92
272.579	-22.77
272.795	-15.18
273.012	-1.8
273.228	-0.08
273.445	5.49
273.661	-2.7
273.878	18.22
274.094	17.7
274.311	13.59
274.527	11.58
274.744	14.5
274.96	10.55
275.177	18.02
275.393	13.07
275.609	20.85
275.826	19.8
276.042	30.51
276.259	25.06
276.475	25.92
276.691	30.89
276.908	28.01
277.124	21.69
277.34	15.82
277.557	9.86
277.773	12.2
277.989	9.37
278.205	-2.5
278.422	8.61
278.638	17.89
278.854	23.25
279.07	13.87
279.286	23.23
279.503	29.58
279.719	39.8
279.935	29.08
280.151	27
280.367	23.74
280.583	25.93
280.799	30.71
281.016	30.74
281.232	21.09
281.448	16.76
281.664	15.04
281.88	23.51
282.096	34.49
282.312	10.52
282.528	2.26
282.744	6.31
282.96	15.21
283.176	15.71
283.392	22.82
283.608	20.11
283.824	32.02
284.04	37.86
284.256	33.61
284.471	35.34
284.687	36.21
284.903	25.01
285.119	12.19
285.335	11.19
285.551	11.15
285.767	19.18
285.982	6.91
286.198	0.89
286.414	24.59
286.63	34.88
286.846	31.91
287.061	39.11
287.277	37.74
287.493	50.53
287.709	44.8
287.924	36.97
288.14	33.46
288.356	37.95
288.571	9.35
288.787	15.85
289.003	17.77
289.218	23.81
289.434	15.38
289.65	18.43
289.865	17.44
290.081	22.31
290.296	24.15
290.512	24.25
290.727	25.32
290.943	24.44
291.159	16.13
291.374	17.28
291.59	15.04
291.805	12.46
292.021	-5.4
292.236	-7.04
292.451	-4.37
292.667	0.89
292.882	0.26
293.098	4.6
293.313	-3.24
293.529	6.56
293.744	3.91
293.959	7.61
294.175	6.66
294.39	10.01
294.605	20.13
294.821	21.74
295.036	22.71
295.251	31.1
295.467	21.15
295.682	26.87
295.897	22.28
296.112	26.71
296.328	29.74
296.543	23.44
296.758	24.68
296.973	30.75
297.188	22.97
297.404	30.21
297.619	25.43
297.834	28.73
298.049	31.73
298.264	23.18
298.479	18.32
298.694	28.79
298.909	15.43
299.125	17.84
299.34	17.8
299.555	22.28
299.77	18.15
299.985	13.74
300.2	4.39
300.415	12.82
300.63	4.91
300.845	4.12
301.06	1.24
301.275	7.2
301.49	21.28
301.704	22.82
301.919	20.74
302.134	20.15
302.349	7.76
302.564	3.04
302.779	9.42
302.994	-4.73
303.209	-7.64
303.423	4.29
303.638	16.33
303.853	20.93
304.068	35.04
304.283	32.03
304.497	36.25
304.712	38.11
304.927	20.04
305.142	14.21
305.356	20.98
305.571	15.65
305.786	13.47
306	15.82
306.215	15.93
306.43	32.21
306.644	28.05
306.859	25.68
307.074	15.81
307.288	17.02
307.503	8.22
307.717	1.15
307.932	4.48
308.147	5.2
308.361	1.8
308.576	0.66
308.79	0.39
309.005	-0.51
309.219	13.31
309.434	5.17
309.648	6.84
309.863	11.52
310.077	11.37
310.292	9.6
310.506	28.29
310.72	17.4
310.935	20.78
311.149	24.81
311.364	32.68
311.578	34.55
311.792	28.25
312.007	17.4
312.221	23.63
312.435	21.02
312.649	19.99
312.864	0.81
313.078	10.33
313.292	24.8
313.507	30.92
313.721	31.95
313.935	48.92
314.149	40.59
314.363	54.52
314.578	75.94
314.792	69.55
315.006	71.8
315.22	74.19
315.434	60.72
315.648	51.63
315.862	37.26
316.077	25.56
316.291	33.07
316.505	35.24
316.719	9.99
316.933	14.92
317.147	20.85
317.361	30.19
317.575	30.62
317.789	27.1
318.003	21.87
318.217	37.07
318.431	32.46
318.645	37.96
318.859	24.36
319.073	21.34
319.287	18.36
319.5	17.34
319.714	12.55
319.928	18.65
320.142	15.82
320.356	33
320.57	27.66
320.784	32.71
320.997	35.76
321.211	32.02
321.425	22.92
321.639	21.98
321.853	10.9
322.066	17.02
322.28	15.03
322.494	12.69
322.707	12.78
322.921	17.29
323.135	19.95
323.349	20.25
323.562	17.83
323.776	24.83
323.989	20.82
324.203	26.28
324.417	21.12
324.63	12.8
324.844	10.4
325.057	12.59
325.271	-4.49
325.485	-2.96
325.698	-6.96
325.912	6.87
326.125	10.98
326.339	8.97
326.552	5.31
326.766	11.43
326.979	14.21
327.193	13.2
327.406	0.01
327.619	-10.52
327.833	-8.11
328.046	0.43
328.26	-0.84
328.473	-0.64
328.686	7.69
328.9	6.95
329.113	13.93
329.326	23.39
329.54	2
329.753	8.35
329.966	10.79
330.179	6.16
330.393	11.14
330.606	14.39
330.819	15.73
331.032	24.28
331.246	21
331.459	17.09
331.672	16.1
331.885	0.29
332.098	-3.64
332.311	-21.4
332.525	0.57
332.738	1.05
332.951	4.07
333.164	-2.05
333.377	4.54
333.59	16.04
333.803	29.35
334.016	14.77
334.229	19.97
334.442	22.96
334.655	41.86
334.868	53.95
335.081	44.52
335.294	33.38
335.507	38.36
335.72	22.74
335.933	30.48
336.146	23.55
336.359	16.52
336.572	12.06
336.785	17.78
336.997	20.04
337.21	25.52
337.423	16.76
337.636	12.15
337.849	12.15
338.062	21.95
338.274	23.03
338.487	15.19
338.7	25.11
338.913	12.12
339.125	14.14
339.338	17.82
339.551	15.99
339.763	14.94
339.976	15.3
340.189	10.13
340.402	17.43
340.614	20.22
340.827	9.09
341.039	8.36
341.252	9.36
341.465	8.62
341.677	-3.95
341.89	-1.47
342.102	0.98
342.315	17.91
342.527	11.37
342.74	14.47
342.952	19.94
343.165	42.5
343.377	45.37
343.59	37.04
343.802	29
344.015	28.01
344.227	19.86
344.44	10.73
344.652	6.66
344.864	8.82
345.077	10.85
345.289	14.17
345.502	13.1
345.714	14.56
345.926	20.01
346.139	13.81
346.351	4.13
346.563	5.45
346.775	1.85
346.988	5.59
347.2	10.15
347.412	14.48
347.624	21.4
347.837	24.44
348.049	22.61
348.261	17.45
348.473	12.63
348.685	17.51
348.897	10.89
349.11	9.66
349.322	-4.6
349.534	-7.75
349.746	5.43
349.958	12.81
350.17	10.73
350.382	6.69
350.594	6.47
350.806	18.96
351.018	24.32
351.23	24.54
351.442	28.17
351.654	28.77
351.866	39.5
352.078	32.98
352.29	35.18
352.502	35.63
352.714	29.72
352.926	23.91
353.138	18.77
353.35	7.72
353.561	8.93
353.773	8.86
353.985	14.03
354.197	14.21
354.409	18.2
354.621	19.18
354.832	16.83
355.044	27.39
355.256	21.04
355.468	10.24
355.679	17.24
355.891	16.45
356.103	20.24
356.314	20.78
356.526	12.16
356.738	6.79
356.949	15.75
357.161	8.92
357.373	9.6
357.584	10.84
357.796	15.28
358.008	19.31
358.219	33.41
358.431	26.79
358.642	23.58
358.854	18.23
359.065	15.51
359.277	12.87
359.488	1.65
359.7	1.35
359.911	-1.3
360.123	11.71
360.334	14.73
360.546	0.07
360.757	6.57
360.969	20.92
361.18	14.53
361.391	15.94
361.603	15.72
361.814	18.95
362.025	28.29
362.237	27.86
362.448	22.37
362.659	17.64
362.871	20.26
363.082	20.42
363.293	20.27
363.504	20.4
363.716	18.92
363.927	14.27
364.138	18.06
364.349	21.11
364.56	12.59
364.772	13.46
364.983	10.26
365.194	11.32
365.405	13.53
365.616	12.75
365.827	9.48
366.038	28.88
366.25	22.17
366.461	23.66
366.672	26.56
366.883	29.73
367.094	32.87
367.305	30.61
367.516	19.74
367.727	18.47
367.938	22.85
368.149	10.81
368.36	12.35
368.571	11.78
368.781	13.95
368.992	12.17
369.203	16
369.414	11.95
369.625	21.12
369.836	20.27
370.047	17.72
370.258	12.36
370.468	11.38
370.679	2.92
370.89	3.71
371.101	-4.48
371.312	-8.59
371.522	-3.43
371.733	-10.33
371.944	-3.52
372.155	-4.92
372.365	-1.02
372.576	-0.06
372.787	-3.18
372.997	-9.4
373.208	3.89
373.419	-0.7
373.629	8.09
373.84	2.13
374.05	11.29
374.261	9.08
374.472	8.1
374.682	0.78
374.893	-1.59
375.103	-2.21
375.314	-1.66
375.524	-7.2
375.735	0.97
375.945	7.07
376.156	19.45
376.366	22.24
376.577	22.12
376.787	22.79
376.997	28.9
377.208	22.73
377.418	15.6
377.629	4.05
377.839	6
378.049	6.08
378.26	7.91
378.47	9.74
378.68	13.51
378.89	11.13
379.101	2.84
379.311	1.78
379.521	-0.16
379.732	-6.94
379.942	-11.04
380.152	-2.47
380.362	6.53
380.572	17.39
380.783	15.37
380.993	21.47
381.203	19.77
381.413	16.38
381.623	9.05
381.833	3.39
382.043	-1.87
382.253	-2.1
382.463	-0.84
382.674	4.79
382.884	12.06
383.094	11.9
383.304	9.82
383.514	14.91
383.724	13.53
383.934	12.82
384.144	15.91
384.353	10.29
384.563	9.69
384.773	10.65
384.983	10.37
385.193	13.63
385.403	10.35
385.613	6.57
385.823	7.24
386.033	7.2
386.242	10.53
386.452	7.78
386.662	6.53
386.872	3.74
387.082	3.98
387.291	4.38
387.501	6.91
387.711	5.6
387.921	6.66
388.13	5.81
388.34	8.39
388.55	11.29
388.759	12.11
388.969	6.54
389.179	6.99
389.388	6.03
389.598	3.15
389.807	1.91
390.017	0.06
390.227	-2.53
390.436	-0.64
390.646	-0.19
390.855	-0.23
391.065	1.94
391.274	0.61
391.484	2.21
391.693	4.42
391.903	5.53
392.112	2.75
392.322	4.2
392.531	3.17
392.74	3.27
392.95	2.46
393.159	2.94
393.369	2.57
393.578	3.88
393.787	2.7
393.997	3.76
394.206	5.19
394.415	4.92
394.625	3.54
394.834	2.63
395.043	2.81
395.252	3.38
395.462	2.92
395.671	2.28
395.88	2.02
396.089	2.38
396.298	3.51
396.508	3.68
396.717	3.28
396.926	2.72
397.135	2.9
397.344	3.01
397.553	3.12
397.762	2.77
397.971	2.29
398.181	1.98
398.39	2.55
398.599	2.71
398.808	2.82
399.017	3.01
399.226	3.1
399.435	3.27
399.644	3.16
399.853	2.99
400.062	2.73
400.27	2.71
400.479	2.53
400.688	2.5
400.897	2.38
401.106	2.57
401.315	2.5
401.524	2.56
401.733	2.82
401.941	2.7
402.15	2.56
402.359	2.69
402.568	2.72
402.777	2.68
402.985	2.69
403.194	2.45
403.403	2.26
403.612	2.36
403.82	2.31
404.029	2.29
404.238	2.39
404.446	2.29
404.655	2.12
404.864	2.21
405.072	2.15
405.281	1.91
405.489	1.91
405.698	1.81
405.906	1.82
406.115	1.88
406.324	1.85
406.532	1.84
406.741	2.06
406.949	1.97
407.158	1.99
407.366	2.03
407.574	2.07
407.783	2.06
407.991	2.02
408.2	1.91
408.408	1.96
408.617	1.92
408.825	1.83
409.033	1.83
409.242	1.81
409.45	1.84
409.658	1.87
409.867	1.86
410.075	1.85
410.283	1.85
410.491	1.78
410.7	1.85
410.908	1.79
411.116	1.72
411.324	1.79
411.533	1.73
411.741	1.82
411.949	1.89
412.157	1.93
412.365	1.95
412.573	2.03
412.781	1.95
412.99	2.04
413.198	2.02
413.406	1.91
413.614	1.83
413.822	1.82
414.03	1.71
414.238	1.78
414.446	1.73
414.654	1.67
414.862	1.73
415.07	1.82
415.278	1.78
415.486	1.89
415.694	1.8
415.902	1.76
416.109	1.8
416.317	1.76
416.525	1.74
416.733	1.84
416.941	1.77
417.149	1.92
417.357	1.93
417.564	1.88
417.772	1.93
417.98	1.9
418.188	1.75
418.395	1.76
418.603	1.62
418.811	1.58
419.019	1.59
419.226	1.65
419.434	1.53
419.642	1.54
419.849	1.52
420.057	1.53
420.265	1.55
420.472	1.53
420.68	1.41
420.887	1.58
421.095	1.65
421.302	1.74
421.51	1.76
421.717	1.86
421.925	1.78
422.132	1.77
422.34	1.65
422.547	1.65
422.755	1.54
422.962	1.54
423.17	1.47
423.377	1.59
423.585	1.65
423.792	1.64
423.999	1.57
424.207	1.51
424.414	1.54
424.621	1.71
424.829	1.69
425.036	1.62
425.243	1.68
425.451	1.72
425.658	1.85
425.865	1.78
426.072	1.6
426.28	1.57
426.487	1.57
426.694	1.58
426.901	1.52
427.108	1.49
427.315	1.47
427.523	1.48
427.73	1.49
427.937	1.55
428.144	1.5
428.351	1.61
428.558	1.57
428.765	1.54
428.972	1.51
429.179	1.47
429.386	1.49
429.593	1.44
429.8	1.45
430.007	1.49
430.214	1.56
430.421	1.65
430.628	1.6
430.835	1.53
431.042	1.55
431.249	1.54
431.456	1.5
431.662	1.49
431.869	1.53
432.076	1.6
432.283	1.61
432.49	1.61
432.697	1.57
432.903	1.57
433.11	1.6
433.317	1.54
433.524	1.49
433.73	1.55
433.937	1.58
434.144	1.68
434.35	1.68
434.557	1.64
434.764	1.6
434.97	1.69
435.177	1.61
435.384	1.64
435.59	1.56
435.797	1.59
436.003	1.58
436.21	1.55
436.416	1.45
436.623	1.55
436.829	1.55
437.036	1.62
437.242	1.66
437.449	1.73
437.655	1.79
437.862	1.83
438.068	1.84
438.275	1.83
438.481	1.81
438.687	1.79
438.894	1.73
439.1	1.75
439.307	1.76
439.513	1.71
439.719	1.7
439.926	1.68
440.132	1.65
440.338	1.69
440.544	1.65
440.751	1.63
440.957	1.61
441.163	1.65
441.369	1.66
441.575	1.65
441.782	1.63
441.988	1.67
442.194	1.74
442.4	1.79
442.606	1.8
442.812	1.82
443.018	1.86
443.224	1.83
443.431	1.86
443.637	1.8
443.843	1.77
444.049	1.77
444.255	1.73
444.461	1.75
444.667	1.77
444.873	1.73
445.079	1.75
445.284	1.76
445.49	1.71
445.696	1.78
445.902	1.82
446.108	1.83
446.314	1.93
446.52	1.95
446.726	1.95
446.931	2.02
447.137	2
447.343	1.96
447.549	1.97
447.755	1.85
447.96	1.86
448.166	1.9
448.372	1.86
448.578	1.9
448.783	1.91
448.989	1.93
449.195	1.95
449.4	1.96
449.606	1.91
449.812	1.93
450.017	1.88
450.223	1.85
450.428	1.87
450.634	1.91
450.84	1.9
451.045	1.93
451.251	1.94
451.456	1.91
451.662	1.94
451.867	1.88
452.073	1.92
452.278	1.94
452.483	1.96
452.689	1.96
452.894	2
453.1	1.96
453.305	1.99
453.51	1.97
453.716	1.95
453.921	1.92
454.127	1.87
454.332	1.88
454.537	1.91
454.742	1.91
454.948	1.89
455.153	1.87
455.358	1.9
455.563	1.97
455.769	1.98
455.974	1.91
456.179	1.91
456.384	1.95
456.589	1.96
456.795	1.88
457	1.89
457.205	1.81
457.41	1.87
457.615	1.88
457.82	1.87
458.025	1.86
458.23	1.93
458.435	1.87
458.64	1.96
458.845	1.97
459.05	1.95
459.255	1.95
459.46	1.96
459.665	1.99
459.87	2.04
460.075	2.03
460.28	2.02
460.485	2.07
460.69	2
460.895	2.05
461.099	2.01
461.304	2.02
461.509	1.95
461.714	2.01
461.919	1.94
462.123	2
462.328	1.95
462.533	1.99
462.738	1.95
462.942	2.03
463.147	1.96
463.352	2.05
463.556	2.05
463.761	2.1
463.966	2.1
464.17	2.17
464.375	2.13
464.58	2.11
464.784	2.09
464.989	2.08
465.193	2.08
465.398	2.1
465.602	2.04
465.807	2.07
466.011	2.17
466.216	2.17
466.42	2.21
466.625	2.21
466.829	2.23
467.034	2.29
467.238	2.33
467.443	2.25
467.647	2.25
467.851	2.24
468.056	2.26
468.26	2.22
468.464	2.17
468.669	2.18
468.873	2.24
469.077	2.27
469.282	2.28
469.486	2.3
469.69	2.33
469.894	2.4
470.099	2.43
470.303	2.42
470.507	2.37
470.711	2.37
470.915	2.38
471.119	2.37
471.324	2.34
471.528	2.37
471.732	2.4
471.936	2.5
472.14	2.46
472.344	2.47
472.548	2.54
472.752	2.58
472.956	2.56
473.16	2.51
473.364	2.47
473.568	2.55
473.772	2.58
473.976	2.54
474.18	2.52
474.384	2.5
474.588	2.55
474.792	2.53
474.995	2.49
475.199	2.5
475.403	2.5
475.607	2.51
475.811	2.54
476.015	2.57
476.218	2.6
476.422	2.65
476.626	2.64
476.83	2.68
477.033	2.69
477.237	2.74
477.441	2.73
477.644	2.75
477.848	2.74
478.052	2.75
478.255	2.73
478.459	2.76
478.663	2.72
478.866	2.72
479.07	2.73
479.273	2.78
479.477	2.83
479.681	2.85
479.884	2.8
480.088	2.82
480.291	2.88
480.495	2.88
480.698	2.86
480.901	2.85
481.105	2.88
481.308	2.89
481.512	2.91
481.715	2.9
481.919	2.93
482.122	2.94
482.325	2.96
482.529	3.02
482.732	3.09
482.935	3.1
483.138	3.11
483.342	3.15
483.545	3.16
483.748	3.17
483.952	3.17
484.155	3.2
484.358	3.2
484.561	3.24
484.764	3.22
484.967	3.24
485.171	3.19
485.374	3.21
485.577	3.19
485.78	3.19
485.983	3.16
486.186	3.17
486.389	3.17
486.592	3.21
486.795	3.14
486.998	3.14
487.201	3.17
487.404	3.22
487.607	3.2
487.81	3.22
488.013	3.21
488.216	3.23
488.419	3.23
488.622	3.18
488.825	3.12
489.028	3.12
489.231	3.09
489.433	3.1
489.636	3.09
489.839	3.07
490.042	3.11
490.245	3.14
490.447	3.12
490.65	3.19
490.853	3.18
491.056	3.19
491.258	3.23
491.461	3.21
491.664	3.18
491.866	3.24
492.069	3.22
492.272	3.23
492.474	3.24
492.677	3.21
492.879	3.26
493.082	3.33
493.285	3.31
493.487	3.25
493.69	3.23
493.892	3.28
494.095	3.3
494.297	3.26
494.5	3.25
494.702	3.27
494.905	3.34
495.107	3.37
495.309	3.32
495.512	3.32
495.714	3.38
495.917	3.39
496.119	3.42
496.321	3.45
496.524	3.45
496.726	3.47
496.928	3.5
497.13	3.5
497.333	3.5
497.535	3.49
497.737	3.47
497.939	3.5
498.142	3.52
498.344	3.52
498.546	3.58
498.748	3.59
498.95	3.57
499.152	3.55
499.355	3.57
499.557	3.6
499.759	3.65
499.961	3.63
500.163	3.68
500.365	3.67
500.567	3.73
500.769	3.77
500.971	3.75
501.173	3.74
501.375	3.74
501.577	3.75
501.779	3.83
501.981	3.85
502.183	3.87
502.385	3.93
502.587	3.92
502.788	3.94
502.99	3.94
503.192	3.98
503.394	4.01
503.596	4.02
503.798	4.09
503.999	4.14
504.201	4.17
504.403	4.25
504.605	4.28
504.806	4.28
505.008	4.3
505.21	4.28
505.411	4.31
505.613	4.35
505.815	4.36
506.016	4.37
506.218	4.41
506.42	4.45
506.621	4.49
506.823	4.51
507.024	4.52
507.226	4.51
507.427	4.52
507.629	4.57
507.83	4.59
508.032	4.65
508.233	4.69
508.435	4.73
508.636	4.74
508.838	4.8
509.039	4.81
509.24	4.85
509.442	4.79
509.643	4.83
509.845	4.86
510.046	4.89
510.247	4.94
510.448	4.97
510.65	5
510.851	5.09
511.052	5.11
511.254	5.13
511.455	5.19
511.656	5.18
511.857	5.22
512.058	5.27
512.26	5.28
512.461	5.32
512.662	5.32
512.863	5.34
513.064	5.34
513.265	5.34
513.466	5.37
513.667	5.42
513.868	5.44
514.069	5.51
514.27	5.52
514.471	5.57
514.672	5.59
514.873	5.61
515.074	5.6
515.275	5.58
515.476	5.56
515.677	5.59
515.878	5.59
516.079	5.64
516.28	5.63
516.481	5.64
516.682	5.67
516.882	5.68
517.083	5.66
517.284	5.67
517.485	5.64
517.686	5.63
517.886	5.65
518.087	5.66
518.288	5.65
518.488	5.7
518.689	5.7
518.89	5.74
519.091	5.75
519.291	5.75
519.492	5.77
519.692	5.82
519.893	5.8
520.094	5.8
520.294	5.78
520.495	5.81
520.695	5.82
520.896	5.82
521.096	5.83
521.297	5.83
521.497	5.83
521.698	5.84
521.898	5.86
522.099	5.85
522.299	5.88
522.499	5.9
522.7	5.91
522.9	5.92
523.101	5.95
523.301	5.95
523.501	5.99
523.702	5.99
523.902	5.98
524.102	5.99
524.302	6
524.503	6.01
524.703	6.02
524.903	6.04
525.103	6.07
525.304	6.08
525.504	6.1
525.704	6.11
525.904	6.11
526.104	6.13
526.304	6.13
526.504	6.13
526.705	6.15
526.905	6.18
527.105	6.2
527.305	6.21
527.505	6.21
527.705	6.2
527.905	6.2
528.105	6.2
528.305	6.18
528.505	6.2
528.705	6.23
528.905	6.2
529.105	6.23
529.304	6.25
529.504	6.22
529.704	6.24
529.904	6.25
530.104	6.23
530.304	6.26
530.503	6.27
530.703	6.29
530.903	6.35
531.103	6.36
531.303	6.37
531.502	6.38
531.702	6.42
531.902	6.42
532.101	6.42
532.301	6.41
532.501	6.44
532.7	6.45
532.9	6.5
533.1	6.48
533.299	6.51
533.499	6.53
533.698	6.58
533.898	6.59
534.097	6.61
534.297	6.6
534.496	6.62
534.696	6.64
534.895	6.71
535.095	6.74
535.294	6.73
535.494	6.73
535.693	6.79
535.892	6.81
536.092	6.83
536.291	6.81
536.491	6.84
536.69	6.88
536.889	6.89
537.088	6.88
537.288	6.91
537.487	6.93
537.686	6.99
537.886	6.99
538.085	7.04
538.284	7.07
538.483	7.11
538.682	7.11
538.882	7.11
539.081	7.08
539.28	7.09
539.479	7.08
539.678	7.13
539.877	7.17
540.076	7.24
540.275	7.29
540.474	7.31
540.673	7.35
540.872	7.43
541.071	7.43
541.27	7.44
541.469	7.44
541.668	7.51
541.867	7.57
542.066	7.62
542.265	7.63
542.464	7.65
542.663	7.74
542.862	7.79
543.06	7.8
543.259	7.83
543.458	7.82
543.657	7.85
543.856	7.91
544.054	7.89
544.253	7.9
544.452	7.89
544.651	7.91
544.849	7.97
545.048	8.03
545.247	8.06
545.445	8.07
545.644	8.15
545.843	8.22
546.041	8.28
546.24	8.36
546.438	8.43
546.637	8.53
546.836	8.6
547.034	8.63
547.233	8.72
547.431	8.78
547.63	8.83
547.828	8.82
548.027	8.81
548.225	8.91
548.423	8.98
548.622	9.01
548.82	9.07
549.019	9.08
549.217	9.2
549.415	9.3
549.614	9.28
549.812	9.33
550.01	9.36
550.209	9.43
550.407	9.53
550.605	9.54
550.803	9.6
551.002	9.68
551.2	9.78
551.398	9.85
551.596	9.92
551.794	9.98
551.993	10.05
552.191	10.15
552.389	10.25
552.587	10.28
552.785	10.41
552.983	10.49
553.181	10.56
553.379	10.69
553.577	10.78
553.775	10.85
553.973	10.97
554.171	10.99
554.369	11.05
554.567	11.14
554.765	11.18
554.963	11.21
555.161	11.32
555.359	11.37
555.557	11.48
555.755	11.58
555.952	11.61
556.15	11.74
556.348	11.86
556.546	11.96
556.744	12.06
556.941	12.11
557.139	12.19
557.337	12.33
557.535	12.4
557.732	12.49
557.93	12.57
558.128	12.68
558.325	12.82
558.523	12.91
558.721	13.03
558.918	13.12
559.116	13.19
559.313	13.3
559.511	13.37
559.708	13.46
559.906	13.56
560.104	13.67
560.301	13.76
560.498	13.84
560.696	13.94
560.893	14.04
561.091	14.14
561.288	14.26
561.486	14.36
561.683	14.47
561.88	14.6
562.078	14.68
562.275	14.77
562.473	14.86
562.67	14.94
562.867	15.05
563.064	15.18
563.262	15.36
563.459	15.5
563.656	15.65
563.853	15.77
564.051	15.89
564.248	15.98
564.445	16.07
564.642	16.13
564.839	16.24
565.036	16.32
565.234	16.5
565.431	16.57
565.628	16.73
565.825	16.87
566.022	16.94
566.219	17.02
566.416	17.15
566.613	17.22
566.81	17.33
567.007	17.34
567.204	17.39
567.401	17.54
567.598	17.61
567.795	17.67
567.991	17.76
568.188	17.84
568.385	17.96
568.582	18.09
568.779	18.16
568.976	18.28
569.172	18.35
569.369	18.4
569.566	18.48
569.763	18.56
569.96	18.59
570.156	18.64
570.353	18.68
570.55	18.77
570.746	18.86
570.943	18.94
571.14	19
571.336	19.04
571.533	19.1
571.729	19.17
571.926	19.23
572.123	19.25
572.319	19.23
572.516	19.31
572.712	19.37
572.909	19.45
573.105	19.48
573.302	19.5
573.498	19.54
573.695	19.64
573.891	19.64
574.087	19.67
574.284	19.68
574.48	19.68
574.677	19.73
574.873	19.78
575.069	19.82
575.266	19.86
575.462	19.93
575.658	19.97
575.854	20.04
576.051	20.06
576.247	20.08
576.443	20.12
576.639	20.11
576.835	20.05
577.032	20.05
577.228	20.02
577.424	20.03
577.62	20.05
577.816	20.03
578.012	20.06
578.208	20.11
578.404	20.13
578.6	20.18
578.796	20.19
578.993	20.21
579.189	20.18
579.384	20.17
579.58	20.18
579.776	20.15
579.972	20.14
580.168	20.12
580.364	20.12
580.56	20.13
580.756	20.09
580.952	20.02
581.148	20.03
581.343	20.05
581.539	20
581.735	19.95
581.931	19.98
582.127	20.01
582.322	20.09
582.518	20.09
582.714	20.03
582.909	20.03
583.105	20.01
583.301	19.94
583.496	19.87
583.692	19.83
583.888	19.79
584.083	19.91
584.279	19.95
584.474	19.97
584.67	20.03
584.866	20.07
585.061	20.1
585.257	20.09
585.452	19.95
585.648	19.92
585.843	19.96
586.039	19.94
586.234	19.89
586.429	19.85
586.625	19.86
586.82	19.83
587.015	19.81
587.211	19.8
587.406	19.83
587.601	19.88
587.797	19.9
587.992	19.94
588.187	20.04
588.383	20.05
588.578	20.03
588.773	20.02
588.968	20.08
589.163	20.14
589.359	20.14
589.554	20.14
589.749	20.17
589.944	20.23
590.139	20.27
590.334	20.19
590.529	20.23
590.724	20.27
590.919	20.32
591.114	20.34
591.309	20.36
591.504	20.4
591.699	20.48
591.894	20.49
592.089	20.53
592.284	20.54
592.479	20.61
592.674	20.65
592.869	20.72
593.064	20.84
593.259	20.86
593.454	20.91
593.648	20.99
593.843	21.07
594.038	21.15
594.233	21.21
594.428	21.28
594.622	21.39
594.817	21.44
595.012	21.53
595.206	21.59
595.401	21.63
595.596	21.71
595.79	21.72
595.985	21.82
596.18	21.93
596.374	21.95
596.569	22.03
596.763	22.17
596.958	22.24
597.153	22.35
597.347	22.38
597.542	22.44
597.736	22.53
597.931	22.63
598.125	22.69
598.319	22.71
598.514	22.77
598.708	22.83
598.903	22.89
599.097	22.95
599.291	23.02
599.486	23.08
599.68	23.15
599.874	23.25
600.069	23.29
600.263	23.32
600.457	23.33
600.651	23.35
600.846	23.34
601.04	23.4
601.234	23.48
601.428	23.49
601.622	23.58
601.817	23.7
602.011	23.72
602.205	23.74
602.399	23.78
602.593	23.78
602.787	23.86
602.981	23.86
603.175	23.85
603.369	23.86
603.563	23.95
603.757	23.97
603.951	23.95
604.145	23.96
604.339	23.97
604.533	23.94
604.727	23.95
604.921	23.89
605.115	23.83
605.309	23.84
605.502	23.8
605.696	23.73
605.89	23.73
606.084	23.66
606.278	23.59
606.471	23.55
606.665	23.46
606.859	23.39
607.053	23.4
607.246	23.36
607.44	23.34
607.634	23.33
607.827	23.24
608.021	23.19
608.214	23.17
608.408	23.06
608.602	22.95
608.795	22.84
608.989	22.78
609.182	22.73
609.376	22.63
609.569	22.51
609.763	22.51
609.956	22.46
610.15	22.42
610.343	22.37
610.537	22.3
610.73	22.29
610.923	22.25
611.117	22.08
611.31	21.98
611.504	21.96
611.697	21.85
611.89	21.75
612.083	21.66
612.277	21.54
612.47	21.48
612.663	21.46
612.856	21.3
613.05	21.27
613.243	21.24
613.436	21.16
613.629	21.13
613.822	21.07
614.015	20.97
614.209	20.97
614.402	20.87
614.595	20.75
614.788	20.65
614.981	20.61
615.174	20.47
615.367	20.39
615.56	20.26
615.753	20.19
615.946	20.15
616.139	20.08
616.332	19.97
616.525	20
616.718	19.94
616.911	19.9
617.103	19.85
617.296	19.8
617.489	19.8
617.682	19.78
617.875	19.67
618.067	19.62
618.26	19.59
618.453	19.52
618.646	19.5
618.838	19.42
619.031	19.39
619.224	19.41
619.417	19.38
619.609	19.34
619.802	19.33
619.994	19.23
620.187	19.22
620.38	19.15
620.572	19.1
620.765	19.03
620.957	18.94
621.15	18.86
621.342	18.88
621.535	18.84
621.727	18.85
621.92	18.79
622.112	18.81
622.305	18.82
622.497	18.79
622.69	18.71
622.882	18.71
623.074	18.64
623.267	18.59
623.459	18.58
623.651	18.57
623.844	18.61
624.036	18.63
624.228	18.58
624.42	18.59
624.613	18.6
624.805	18.56
624.997	18.53
625.189	18.5
625.381	18.47
625.574	18.41
625.766	18.37
625.958	18.35
626.15	18.34
626.342	18.3
626.534	18.27
626.726	18.22
626.918	18.23
627.11	18.19
627.302	18.18
627.494	18.17
627.686	18.13
627.878	18.07
628.07	18.04
628.262	17.98
628.454	17.92
628.646	17.88
628.838	17.78
629.029	17.73
629.221	17.7
629.413	17.65
629.605	17.59
629.797	17.6
629.989	17.55
630.18	17.51
630.372	17.52
630.564	17.47
630.755	17.45
630.947	17.45
631.139	17.37
631.33	17.35
631.522	17.31
631.714	17.22
631.905	17.2
632.097	17.17
632.289	17.08
632.48	17.06
632.672	16.98
632.863	16.97
633.055	17
633.246	16.99
633.438	16.96
633.629	17.01
633.821	17.03
634.012	17.05
634.203	17.07
634.395	17.06
634.586	17.02
634.777	16.99
634.969	16.94
635.16	16.85
635.351	16.85
635.543	16.78
635.734	16.71
635.925	16.75
636.117	16.79
636.308	16.79
636.499	16.82
636.69	16.86
636.881	16.9
637.073	16.88
637.264	16.82
637.455	16.78
637.646	16.8
637.837	16.8
638.028	16.8
638.219	16.77
638.41	16.84
638.601	16.87
638.792	16.82
638.983	16.75
639.174	16.76
639.365	16.64
639.556	16.6
639.747	16.56
639.938	16.55
640.129	16.56
640.32	16.53
640.511	16.49
640.701	16.47
640.892	16.47
641.083	16.43
641.274	16.38
641.465	16.34
641.655	16.34
641.846	16.28
642.037	16.3
642.228	16.29
642.418	16.26
642.609	16.25
642.8	16.25
642.99	16.23
643.181	16.28
643.372	16.25
643.562	16.19
643.753	16.16
643.943	16.11
644.134	16.12
644.324	16.14
644.515	16.1
644.705	16.14
644.896	16.13
645.086	16.13
645.277	16.12
645.467	16.07
645.658	16.04
645.848	15.99
646.038	15.97
646.229	15.95
646.419	15.96
646.61	15.9
646.8	15.87
646.99	15.85
647.18	15.85
647.371	15.78
647.561	15.77
647.751	15.75
647.941	15.72
648.132	15.7
648.322	15.68
648.512	15.65
648.702	15.63
648.892	15.61
649.082	15.57
649.272	15.53
649.462	15.52
649.653	15.49
649.843	15.41
650.033	15.4
650.223	15.35
650.413	15.38
650.603	15.39
650.793	15.35
650.983	15.33
651.172	15.31
651.362	15.25
651.552	15.22
651.742	15.08
651.932	15.1
652.122	15.05
652.312	14.86
652.502	14.85
652.691	14.83
652.881	14.77
653.071	14.69
653.261	14.57
653.45	14.48
653.64	14.52
653.83	14.42
654.019	14.23
654.209	14.11
654.399	14.01
654.588	13.89
654.778	13.78
654.968	13.59
655.157	13.46
655.347	13.37
655.536	13.24
655.726	13.12
655.915	12.99
656.105	12.84
656.294	12.71
656.484	12.6
656.673	12.5
656.863	12.35
657.052	12.24
657.241	12.09
657.431	11.95
657.62	11.78
657.809	11.56
657.999	11.39
658.188	11.27
658.377	11.13
658.567	10.94
658.756	10.79
658.945	10.65
659.134	10.5
659.324	10.35
659.513	10.1
659.702	9.88
659.891	9.73
660.08	9.58
660.269	9.47
660.458	9.37
660.648	9.22
660.837	9.14
661.026	9.05
661.215	8.89
661.404	8.75
661.593	8.58
661.782	8.39
661.971	8.26
662.16	8.12
662.349	7.94
662.538	7.86
662.726	7.69
662.915	7.58
663.104	7.41
663.293	7.31
663.482	7.18
663.671	7.11
663.86	7.01
664.048	6.96
664.237	6.86
664.426	6.82
664.615	6.71
664.803	6.64
664.992	6.6
665.181	6.5
665.369	6.42
665.558	6.36
665.747	6.4
665.935	6.37
666.124	6.36
666.312	6.23
666.501	6.19
666.69	6.14
666.878	6.1
667.067	6.03
667.255	6
667.444	5.99
667.632	6.01
667.82	5.93
668.009	5.94
668.197	5.98
668.386	5.89
668.574	5.81
668.762	5.76
668.951	5.7
669.139	5.74
669.327	5.74
669.516	5.69
669.704	5.7
669.892	5.75
670.08	5.75
670.269	5.77
670.457	5.76
670.645	5.76
670.833	5.76
671.021	5.78
671.21	5.85
671.398	5.86
671.586	5.88
671.774	5.95
671.962	6
672.15	6
672.338	6.1
672.526	6.09
672.714	6.08
672.902	6.16
673.09	6.24
673.278	6.2
673.466	6.33
673.654	6.32
673.842	6.37
674.03	6.52
674.218	6.56
674.405	6.64
674.593	6.77
674.781	6.79
674.969	6.85
675.157	6.94
675.344	6.96
675.532	7.07
675.72	7.04
675.908	7.11
676.095	7.28
676.283	7.37
676.471	7.45
676.658	7.62
676.846	7.74
677.033	7.9
677.221	7.98
677.409	7.99
677.596	8.12
677.784	8.23
677.971	8.27
678.159	8.33
678.346	8.41
678.534	8.53
678.721	8.67
678.909	8.74
679.096	8.81
679.283	8.91
679.471	8.99
679.658	9.09
679.846	9.17
680.033	9.26
680.22	9.33
680.408	9.42
680.595	9.53
680.782	9.65
680.969	9.71
681.157	9.81
681.344	9.98
681.531	10.14
681.718	10.3
681.905	10.45
682.093	10.67
682.28	10.88
682.467	11.03
682.654	11.11
682.841	11.24
683.028	11.49
683.215	11.7
683.402	11.75
683.589	11.88
683.776	12.08
683.963	12.27
684.15	12.54
684.337	12.65
684.524	12.83
684.711	13.13
684.898	13.42
685.085	13.68
685.271	13.99
685.458	14.28
685.645	14.52
685.832	14.77
686.019	15.1
686.205	15.43
686.392	15.82
686.579	16.14
686.766	16.39
686.952	16.92
687.139	17.31
687.326	17.73
687.512	18.12
687.699	18.47
687.886	18.85
688.072	19.34
688.259	19.73
688.445	20.18
688.632	20.61
688.818	20.98
689.005	21.51
689.191	22.08
689.378	22.6
689.564	23
689.751	23.65
689.937	24.16
690.124	24.85
690.31	25.36
690.496	25.85
690.683	26.43
690.869	27.05
691.055	27.68
691.242	28.25
691.428	28.9
691.614	29.54
691.8	30.15
691.987	30.8
692.173	31.55
692.359	32.29
692.545	32.98
692.731	33.59
692.918	34.38
693.104	35.14
693.29	35.9
693.476	36.51
693.662	37.03
693.848	37.71
694.034	38.17
694.22	38.84
694.406	39.5
694.592	40.07
694.778	40.7
694.964	41.3
695.15	42.04
695.336	43.01
695.522	43.54
695.708	44.23
695.894	45
696.08	45.75
696.265	46.44
696.451	47.11
696.637	47.67
696.823	48.32
697.009	49.03
697.194	49.63
697.38	50.23
697.566	50.93
697.751	51.44
697.937	52.02
698.123	52.69
698.308	53.1
698.494	53.64
698.68	54.33
698.865	54.92
699.051	55.53
699.236	56.2
699.422	56.64
699.607	57.27
699.793	57.71
699.978	57.99
700.164	58.5
700.349	58.98
700.535	59.43
700.72	59.98
700.906	60.41
701.091	60.99
701.276	61.58
701.462	62.08
701.647	62.57
701.832	63.03
702.018	63.35
702.203	63.72
702.388	63.94
702.573	64.46
702.759	64.69
702.944	65.03
703.129	65.36
703.314	65.88
703.499	66.35
703.684	66.89
703.87	67.23
704.055	67.56
704.24	67.99
704.425	68.59
704.61	68.78
704.795	69.08
704.98	69.42
705.165	69.52
705.35	69.87
705.535	70.28
705.72	70.38
705.905	70.78
706.09	70.98
706.275	71.14
706.459	71.57
706.644	72.01
706.829	72.16
707.014	72.4
707.199	72.52
707.384	72.9
707.568	73.34
707.753	73.61
707.938	73.81
708.123	73.93
708.307	74.32
708.492	74.58
708.677	74.77
708.861	74.66
709.046	74.79
709.231	74.88
709.415	75.08
709.6	74.92
709.784	75.13
709.969	75.41
710.153	75.9
710.338	76.08
710.522	76.22
710.707	76.12
710.891	76.5
711.076	76.57
711.26	76.75
711.445	76.74
711.629	77.05
711.813	77.12
711.998	77.5
712.182	77.51
712.366	77.83
712.551	77.99
712.735	78.11
712.919	78.39
713.103	78.67
713.288	78.98
713.472	79.34
713.656	79.31
713.84	79.38
714.024	79.79
714.208	79.47
714.393	79.65
714.577	79.69
714.761	79.96
714.945	80.1
715.129	80.37
715.313	80.29
715.497	80.51
715.681	80.69
715.865	80.83
716.049	80.94
716.233	81.37
716.417	81.47
716.601	81.61
716.785	81.96
716.968	82.06
717.152	82.19
717.336	82.1
717.52	81.92
717.704	82.02
717.888	82.06
718.071	82.01
718.255	81.92
718.439	81.96
718.622	82.2
718.806	82.17
718.99	82.3
719.174	82.41
719.357	82.6
719.541	82.68
719.724	82.74
719.908	82.78
720.092	83.28
720.275	83.34
720.459	83.4
720.642	83.69
720.826	83.96
721.009	84
721.193	83.95
721.376	83.74
721.559	83.35
721.743	83.54
721.926	83.2
722.11	83.27
722.293	83.02
722.476	83.05
722.66	83.41
722.843	84.05
723.026	84.24
723.21	84.48
723.393	84.46
723.576	84.83
723.759	85.15
723.942	85.19
724.126	85.26
724.309	85.28
724.492	85.06
724.675	85.2
724.858	85.39
725.041	85.17
725.224	85.27
725.407	85.14
725.59	85.1
725.774	85.31
725.957	85.67
726.14	85.99
726.322	86.26
726.505	86.72
726.688	86.74
726.871	86.88
727.054	87.29
727.237	87.06
727.42	87.43
727.603	87.51
727.786	87.14
727.968	87.53
728.151	87.82
728.334	88.14
728.517	88.57
728.699	88.46
728.882	89.05
729.065	89.22
729.248	89.12
729.43	89.26
729.613	89.02
729.796	88.97
729.978	89.04
730.161	89.5
730.343	89.79
730.526	89.91
730.708	90.47
730.891	90.74
731.073	90.83
731.256	90.94
731.438	90.64
731.621	90.94
731.803	91.1
731.986	90.97
732.168	91.29
732.35	91.77
732.533	92.32
732.715	92.18
732.898	92.13
733.08	92.71
733.262	92.71
733.444	92.39
733.627	92.17
733.809	91.94
733.991	92.23
734.173	91.95
734.355	91.95
734.538	91.65
734.72	92.59
734.902	92.57
735.084	92.61
735.266	92.3
735.448	92.65
735.63	92.63
735.812	92.85
735.994	92.16
736.176	92.44
736.358	92.74
736.54	93.09
736.722	93.17
736.904	93.43
737.086	93.49
737.268	93.62
737.45	93.93
737.632	93.5
737.814	93.54
737.995	93.51
738.177	93.63
738.359	94.28
738.541	94.28
738.723	94.32
738.904	94.61
739.086	94.87
739.268	95.72
739.449	95.42
739.631	95.34
739.813	95.6
739.994	95.95
740.176	96.06
740.358	96.3
740.539	95.65
740.721	95.97
740.902	96.04
741.084	96.11
741.265	95.91
741.447	95.58
741.628	95.21
741.81	95.36
741.991	95.35
742.172	95.49
742.354	95.98
742.535	95.5
742.717	96.08
742.898	96.9
743.079	97.02
743.261	97.3
743.442	97.31
743.623	97.3
743.804	97.99
743.986	97.36
744.167	96.55
744.348	96.82
744.529	96.53
744.71	96.29
744.891	95.79
745.073	95.82
745.254	96.48
745.435	96.49
745.616	96.38
745.797	95.77
745.978	96.1
746.159	96.09
746.34	96.16
746.521	95.77
746.702	95.98
746.883	95.97
747.064	96.47
747.245	96.83
747.426	97.05
747.606	96.79
747.787	97.61
747.968	97.76
748.149	97.87
748.33	98.4
748.51	97.64
748.691	97.65
748.872	97.26
749.053	96.12
749.233	95.98
749.414	95.31
749.595	94.95
749.775	95.04
749.956	94.78
750.137	95.14
750.317	95.98
750.498	95.92
750.678	96.83
750.859	96.42
751.04	96.14
751.22	95.5
751.4	95.39
751.581	95.91
751.761	96.84
751.942	96.86
752.122	96.52
752.303	96.57
752.483	97.88
752.663	99.08
752.844	98.07
753.024	97.1
753.204	96.91
753.385	97.24
753.565	96.5
753.745	95.95
753.925	94.16
754.106	94.21
754.286	94.46
754.466	94.17
754.646	94.45
754.826	95.2
755.006	94.61
755.187	95.46
755.367	95.82
755.547	95.7
755.727	95.62
755.907	96.01
756.087	96.09
756.267	96.45
756.447	96
756.627	95.31
756.807	95.96
756.987	96.73
757.167	96.64
757.346	96.31
757.526	97.16
757.706	97.24
757.886	97.7
758.066	96.53
758.246	96.11
758.425	95.9
758.605	96.29
758.785	95.54
758.965	94.92
759.144	94.64
759.324	95.66
759.504	94.87
759.683	94.44
759.863	93.93
760.043	93.91
760.222	94.22
760.402	94.91
760.581	94.26
760.761	93.64
760.94	93.03
761.12	93.26
761.299	93.03
761.479	93.62
761.658	92.66
761.838	92.88
762.017	93.57
762.197	94.1
762.376	93.98
762.555	93.93
762.735	92.82
762.914	93.04
763.093	92.5
763.273	92.02
763.452	92.36
763.631	92.13
763.81	92.81
763.99	93.42
764.169	93.4
764.348	93.98
764.527	93.83
764.706	93.47
764.885	93.37
765.064	93.07
765.243	92.48
765.423	93.45
765.602	92.29
765.781	92.56
765.96	93.11
766.139	93.13
766.318	93.46
766.497	94.76
766.676	95.1
766.854	95.3
767.033	95.22
767.212	93.66
767.391	93.88
767.57	92.78
767.749	91.53
767.928	89.45
768.106	89.53
768.285	90.44
768.464	91.78
768.643	92.12
768.821	92.95
769	93.79
769.179	93.42
769.357	92.38
769.536	91.02
769.715	90.29
769.893	89.79
770.072	89.44
770.25	89.63
770.429	91.24
770.607	92.82
770.786	93.22
770.964	93.05
771.143	92.07
771.321	91.11
771.5	89.43
771.678	89.11
771.857	87.63
772.035	87.67
772.213	88.05
772.392	88.71
772.57	89.39
772.748	89.8
772.927	89.42
773.105	90.95
773.283	89.77
773.461	89.35
773.64	89.53
773.818	88.43
773.996	88.51
774.174	88.47
774.352	88.16
774.531	88.36
774.709	89.8
774.887	89.32
775.065	90.2
775.243	91.25
775.421	91.49
775.599	89.84
775.777	90.4
775.955	88.74
776.133	87.68
776.311	87.22
776.489	86.35
776.667	86.02
776.844	87.01
777.022	86.31
777.2	86.54
777.378	87.86
777.556	88.74
777.734	88.52
777.911	89.65
778.089	88.06
778.267	89.16
778.445	89.14
778.622	88.42
778.8	87.66
778.978	86.63
779.155	84.21
779.333	83.9
779.511	83.37
779.688	82.47
779.866	81.55
780.043	82.79
780.221	84.19
780.398	85.22
780.576	85.69
780.753	85.06
780.931	86.48
781.108	89.05
781.286	87.52
781.463	87.08
781.64	86.3
781.818	86.86
781.995	89.37
782.172	89.6
782.35	88.14
782.527	89.63
782.704	89.73
782.882	90.41
783.059	89.41
783.236	87.62
783.413	87.49
783.59	85.39
783.768	84.43
783.945	84.22
784.122	84.34
784.299	86.59
784.476	87.74
784.653	86.53
784.83	87.99
785.007	86.99
785.184	87.34
785.361	87.19
785.538	86.09
785.715	85.34
785.892	84.1
786.069	85.26
786.246	83.75
786.423	84.12
786.6	83.19
786.776	83.14
786.953	83.14
787.13	85.7
787.307	85.61
787.484	87.95
787.66	85.19
787.837	85.76
788.014	85.09
788.191	85.1
788.367	82.28
788.544	80.21
788.721	79.57
788.897	83.44
789.074	82.58
789.25	83.45
789.427	82.71
789.603	85.88
789.78	87.48
789.956	87.76
790.133	85.34
790.309	85.31
790.486	87.16
790.662	88.97
790.839	88.98
791.015	89.43
791.192	90.71
791.368	92.49
791.544	92.86
791.721	90.15
791.897	88.17
792.073	85.28
792.249	86.44
792.426	86.08
792.602	84.88
792.778	84.9
792.954	84.67
793.13	85.58
793.307	83.68
793.483	82.42
793.659	83.5
793.835	83.3
794.011	83.52
794.187	82.56
794.363	82.99
794.539	86.11
794.715	84.72
794.891	81.02
795.067	81.06
795.243	81.6
795.419	84.91
795.595	82.16
795.771	81.39
795.947	81.06
796.122	82.06
796.298	80.14
796.474	78.19
796.65	78.6
796.826	80.27
797.001	81.07
797.177	83.16
797.353	83.95
797.529	85.81
797.704	87.72
797.88	84.41
798.056	86.72
798.231	88
798.407	88.14
798.582	87.66
798.758	86.35
798.934	86.15
799.109	84.41
799.285	81.59
799.46	81.75
799.636	83.21
799.811	83.75
799.986	85.68
800.162	86.12
800.337	88.3
800.513	88.66
800.688	87.9
800.863	85.7
801.039	83.04
801.214	82.96
801.389	79.33
801.565	80.87
801.74	79.39
801.915	78.45
802.09	78.08
802.265	80.45
802.441	80.64
802.616	85.56
802.791	84.83
802.966	86.03
803.141	82.11
803.316	85.15
803.491	88.11
803.666	84.87
803.841	81.84
804.016	81.45
804.191	81.32
804.366	83.83
804.541	80.08
804.716	73.78
804.891	76.69
805.066	77.25
805.241	77.48
805.416	76
805.591	78.68
805.765	78.66
805.94	83.09
806.115	80.63
806.29	82.53
806.464	77.63
806.639	76.84
806.814	70.94
806.989	70.07
807.163	69.72
807.338	69.43
807.512	63.71
807.687	66.25
807.862	70.17
808.036	72.47
808.211	76.04
808.385	74.38
808.56	79.46
808.734	83.01
808.909	84.77
809.083	81.39
809.258	88.44
809.432	82.62
809.606	78.39
809.781	72.01
809.955	76.3
810.13	78.16
810.304	78.19
810.478	74.39
810.652	86.24
810.827	87.62
811.001	88.99
811.175	80.73
811.349	79.07
811.524	78.2
811.698	77.93
811.872	73.28
812.046	72.89
812.22	72.71
812.394	78.08
812.568	77.23
812.742	76.21
812.916	72.93
813.09	67.3
813.264	66.22
813.438	67.62
813.612	60.62
813.786	62.02
813.96	66.03
814.134	68.49
814.308	70.48
814.482	74.04
814.656	73.49
814.83	75.59
815.003	80.1
815.177	82.57
815.351	83.29
815.525	82.8
815.698	81.16
815.872	81.26
816.046	81.47
816.219	77.98
816.393	68.35
816.567	65.59
816.74	68.04
816.914	71.96
817.088	69.48
817.261	65.44
817.435	61.3
817.608	68.35
817.782	72.83
817.955	69.25
818.129	64.92
818.302	66.45
818.475	75.35
818.649	76.36
818.822	76.1
818.996	75.39
819.169	75.93
819.342	70.64
819.516	73.35
819.689	69.55
819.862	69.9
820.035	69.72
820.209	66.35
820.382	62.7
820.555	67.6
820.728	55.23
820.901	61.58
821.075	65.78
821.248	65.45
821.421	68.37
821.594	76.24
821.767	75.34
821.94	78.94
822.113	78.37
822.286	79.6
822.459	82.51
822.632	83.16
822.805	77.72
822.978	72.65
823.151	75.5
823.324	64.52
823.496	60.37
823.669	60.12
823.842	59.61
824.015	56.43
824.188	70.8
824.361	71.83
824.533	88.81
824.706	97.77
824.879	93.17
825.051	92.74
825.224	88.25
825.397	77.5
825.569	79.39
825.742	72.39
825.915	70.26
826.087	66.05
826.26	67.93
826.432	73.39
826.605	63.49
826.777	58.21
826.95	54.49
827.122	51.31
827.295	51.53
827.467	39.99
827.64	33.83
827.812	36.34
827.984	42.32
828.157	41.92
828.329	41.35
828.501	43.57
828.674	47.7
828.846	59.6
829.018	65.15
829.19	61.74
829.363	67.6
829.535	60.72
829.707	54.53
829.879	53.61
830.051	45.62
830.223	39.92
830.395	35.49
830.568	37.12
830.74	42.68
830.912	51.62
831.084	50.71
831.256	44.31
831.428	48.69
831.6	51.05
831.772	46.01
831.943	51.02
832.115	52
832.287	55.27
832.459	65.82
832.631	68.54
832.803	76.65
832.975	80.03
833.146	74.44
833.318	69.8
833.49	79.02
833.662	78.76
833.833	78.59
834.005	69.43
834.177	75.44
834.348	72.27
834.52	76.43
834.692	73.46
834.863	71.68
835.035	71.12
835.206	71.72
835.378	64.8
835.549	64.88
835.721	62.34
835.892	55.98
836.064	59.43
836.235	60.83
836.407	57.63
836.578	62.34
836.749	69.88
836.921	66.77
837.092	75.34
837.264	61.79
837.435	48.17
837.606	57.76
837.777	45.75
837.949	36.94
838.12	32.68
838.291	43
838.462	52.41
838.633	54.61
838.805	52.92
838.976	56.79
839.147	57.05
839.318	62.18
839.489	43.81
839.66	57.59
839.831	57.21
840.002	53.57
840.173	66.96
840.344	80.55
840.515	82.83
840.686	84.21
840.857	68.47
841.028	80.78
841.199	95.07
841.369	83.2
841.54	77.31
841.711	73.62
841.882	68.54
842.053	61.47
842.223	56.21
842.394	40.69
842.565	54.68
842.736	55.55
842.906	56.78
843.077	64.66
843.248	77.72
843.418	74.45
843.589	83.72
843.759	80.49
843.93	84.37
844.101	80.3
844.271	81.31
844.442	76.11
844.612	67.36
844.783	33.32
844.953	25.2
845.123	31.46
845.294	27.44
845.464	39.64
845.635	33.43
845.805	46.85
845.975	58.33
846.146	56.19
846.316	60.33
846.486	58.67
846.656	61.97
846.827	66.56
846.997	73.38
847.167	76.8
847.337	82.61
847.507	72.64
847.677	79.48
847.848	85.38
848.018	77.39
848.188	63.47
848.358	80.81
848.528	71.17
848.698	60.48
848.868	55.16
849.038	52.89
849.208	69.05
849.378	70.04
849.548	67.95
849.718	65.43
849.887	59.83
850.057	64.14
850.227	48.05
850.397	32.31
850.567	48.29
850.737	39.54
850.906	46.09
851.076	66.78
851.246	65.23
851.415	71.06
851.585	70.04
851.755	63.29
851.924	70.18
852.094	72.05
852.264	60.61
852.433	67.85
852.603	74.7
852.772	85.69
852.942	68.4
853.111	61.6
853.281	57.19
853.45	60.42
853.62	42.27
853.789	34.55
853.959	31.14
854.128	25.12
854.297	21.46
854.467	26.85
854.636	22.62
854.805	35.81
854.975	44.95
855.144	44.02
855.313	57.35
855.482	60.66
855.652	52.29
855.821	47.8
855.99	41.59
856.159	43.71
856.328	36.64
856.497	34.9
856.667	36.92
856.836	35.33
857.005	39.13
857.174	53.57
857.343	42.78
857.512	41.02
857.681	43.99
857.85	43.86
858.019	49.08
858.188	53.02
858.356	25.67
858.525	38.47
858.694	56.62
858.863	49.38
859.032	48.65
859.201	67.08
859.369	57.02
859.538	55.87
859.707	60.65
859.876	54.82
860.044	50.71
860.213	44.04
860.382	41.72
860.55	61.8
860.719	87.7
860.888	79.73
861.056	83.28
861.225	101.45
861.393	108.01
861.562	76.3
861.73	55.65
861.899	23.51
862.067	34.59
862.236	38.3
862.404	34.05
862.572	32.7
862.741	43.53
862.909	42.75
863.078	41.12
863.246	33.87
863.414	28.6
863.582	19.93
863.751	12.14
863.919	10.8
864.087	14.89
864.255	16.1
864.424	20.04
864.592	32.45
864.76	43.43
864.928	51.05
865.096	48.44
865.264	53.4
865.432	57.38
865.6	37.78
865.768	14.25
865.936	14.64
866.104	-0.62
866.272	12.67
866.44	-33.51
866.608	-15.58
866.776	36.31
866.944	43.93
867.112	22.94
867.28	3.88
867.448	9.02
867.615	51.55
867.783	20.23
867.951	14.44
868.119	35.84
868.286	49.84
868.454	52.54
868.622	61.6
868.789	57.6
868.957	76.49
869.125	64.28
869.292	60.15
869.46	47.52
869.627	44.54
869.795	43.8
869.963	46.02
870.13	62.78
870.298	67.98
870.465	57.73
870.632	79.23
870.8	68.88
870.967	56.77
871.135	50.92
871.302	27.83
871.469	18.41
871.637	15.02
871.804	20.67
871.971	26.39
872.139	30.93
872.306	24.74
872.473	15.92
872.64	26.06
872.807	31.63
872.975	52.05
873.142	27.71
873.309	35
873.476	7.8
873.643	54.79
873.81	36.42
873.977	92.31
874.144	87.91
874.311	57.34
874.478	-6.71
874.645	-1.57
874.812	8.54
874.979	-5.73
875.146	-99.39
875.313	-181.15
875.48	-36.11
875.647	-45.26
875.813	-26.82
875.98	-1.15
876.147	40.55
876.314	45.21
876.481	30.76
876.647	19.88
876.814	39.71
876.981	30.79
877.147	15.88
877.314	16.44
877.481	33.53
877.647	53.45
877.814	46.19
877.98	52.55
878.147	64.29
878.314	82.39
878.48	64.21
878.647	81.99
878.813	83.65
878.979	92.61
879.146	53.57
879.312	68.07
879.479	59.12
879.645	49.25
879.811	27.55
879.978	13.12
880.144	39.56
880.31	19.01
880.477	14.11
880.643	5.34
880.809	91.34
880.975	47.53
881.142	70.75
881.308	46.36
881.474	120.86
881.64	57.67
881.806	49.42
881.972	93.31
882.138	140.28
882.304	79.05
882.47	70.52
882.636	-1.53
882.802	-36.67
882.968	-133.35
883.134	-455.44
883.3	-192.99
883.466	-26.01
883.632	-29.78
883.798	-11.9
883.964	19.94
884.129	40.45
884.295	29.21
884.461	12.74
884.627	-19.42
884.793	2.89
884.958	6.93
885.124	-20.79
885.29	13.66
885.455	11.84
885.621	0.78
885.787	-8.37
885.952	-33.23
886.118	-17.22
886.283	18.31
886.449	-21.8
886.614	15.71
886.78	24.1
886.945	22.23
887.111	60.02
887.276	35.64
887.442	32.33
887.607	36.47
887.773	10.86
887.938	18.89
888.103	37.32
888.269	15.27
888.434	14.59
888.599	14.26
888.764	42.61
888.93	31.26
889.095	15.91
889.26	39.54
889.425	79.09
889.59	70.91
889.756	75.66
889.921	44.94
890.086	88.34
890.251	73.83
890.416	36.59
890.581	-15.54
890.746	-31.85
890.911	-98.45
891.076	-115.65
891.241	-140.2
891.406	-31.52
891.571	-14.13
891.736	-12.32
891.901	37.1
892.065	59.36
892.23	58.7
892.395	19.88
892.56	12.43
892.725	5.23
892.889	-1.32
893.054	-81.18
893.219	-129.49
893.384	-251.35
893.548	-555.83
893.713	977.48
893.878	524.46
