Data from Ofra_2a_PS_OCX5J_Reflection_1.txt Node
Date: Tue Jul 20 09:26:42 EDT 2021
User: Adam
Spectrometer: FLMT01687
Trigger mode: 0
Integration Time (sec): 9.450000E-1
Scans to average: 3
Electric dark correction enabled: true
Nonlinearity correction enabled: false
Boxcar width: 3
XAxis mode: Wavelengths
Number of Pixels in Spectrum: 3648
>>>>>Begin Spectral Data<<<<<
179.494	579.29
179.716	459.95
179.937	521.43
180.158	2135.55
180.38	-957.85
180.601	-281.69
180.823	-84.32
181.044	-78.39
181.265	-84.09
181.486	0.29
181.708	-477.17
181.929	-85.93
182.15	-44.89
182.372	123.01
182.593	129.02
182.814	63.62
183.035	-16.84
183.257	-1.68
183.478	-22.05
183.699	-28.09
183.92	-15.94
184.141	-15.56
184.363	-28.32
184.584	-26.29
184.805	-9.44
185.026	-35.29
185.247	-42.52
185.468	-31.37
185.689	-13.44
185.91	-16.82
186.132	-14.04
186.353	-55.85
186.574	-35.42
186.795	-45.44
187.016	-52.79
187.237	-54.32
187.458	-55.41
187.679	-79.54
187.9	-30.18
188.121	-18.59
188.342	3.65
188.563	2.77
188.784	-7.12
189.005	-9.28
189.226	8.48
189.447	0.69
189.667	3.86
189.888	11.21
190.109	6.84
190.33	6.79
190.551	1.29
190.772	-7.28
190.993	11.29
191.214	-2.99
191.434	-19.63
191.655	-3.15
191.876	-2.29
192.097	5.04
192.318	10.92
192.538	-1.39
192.759	5.52
192.98	3.3
193.201	-0.06
193.421	6.08
193.642	10.53
193.863	-0.09
194.083	-12.56
194.304	-37.51
194.525	-0.29
194.745	-3.85
194.966	-3.53
195.187	-4.44
195.407	-0.44
195.628	3.56
195.848	21.23
196.069	3.73
196.29	-12.15
196.51	-20.61
196.731	-13.64
196.951	-19.47
197.172	-37.22
197.392	-13.11
197.613	-15.19
197.833	-5.28
198.054	-12.37
198.274	-37.99
198.495	-46.47
198.715	-30.92
198.936	-59.34
199.156	-37.53
199.377	-37.43
199.597	-39.65
199.817	-28.92
200.038	-24.93
200.258	-35.79
200.479	-21.83
200.699	-24.09
200.919	-26.62
201.14	-18.77
201.36	-30.78
201.58	-19.58
201.801	-16.59
202.021	-13.01
202.241	-15.46
202.461	-18.44
202.682	-21.37
202.902	-9.17
203.122	-8.06
203.342	9.95
203.563	4.63
203.783	5.52
204.003	13.72
204.223	23.41
204.443	26.3
204.663	27.32
204.884	6.16
205.104	2.03
205.324	13.87
205.544	15.21
205.764	8.63
205.984	6.84
206.204	-9.11
206.424	4.47
206.644	-7.73
206.864	-17.57
207.084	-2.21
207.304	-10.29
207.525	-18
207.745	-18.89
207.964	-19.95
208.184	-0.89
208.404	-4.04
208.624	-38.86
208.844	-40.87
209.064	-9.05
209.284	-2.88
209.504	-6.11
209.724	-46.01
209.944	-41.36
210.164	-30.44
210.384	-14.79
210.604	-52.12
210.823	-32.17
211.043	-41.5
211.263	-8.26
211.483	-5.53
211.703	11.24
211.922	7.83
212.142	11.82
212.362	13.22
212.582	10.78
212.801	5.34
213.021	1.24
213.241	-10.09
213.461	-20.79
213.68	-22.32
213.9	-26.15
214.12	-24.64
214.339	-8.88
214.559	0.33
214.779	-0.74
214.998	7.77
215.218	1.93
215.438	2.09
215.657	13.25
215.877	0.77
216.096	-0.44
216.316	-5.78
216.535	-7.55
216.755	-18.16
216.974	-30.34
217.194	-37.98
217.413	-14.08
217.633	-21.63
217.852	-18.42
218.072	-40.45
218.291	3.34
218.511	15.43
218.73	16.7
218.95	0.16
219.169	2.8
219.389	0.87
219.608	28.34
219.827	25.91
220.047	32.91
220.266	22.54
220.485	22.66
220.705	12.63
220.924	12.9
221.143	-1.01
221.363	-16.9
221.582	-20.16
221.801	-17.89
222.021	-13.9
222.24	-13.33
222.459	-18.85
222.678	-45.05
222.897	-47.21
223.117	-50.03
223.336	-45.4
223.555	-61.34
223.774	-52.47
223.993	-38.1
224.213	-18.06
224.432	-6.02
224.651	-3.96
224.87	-9.43
225.089	12.59
225.308	5.8
225.527	4.05
225.746	6.49
225.965	-4.61
226.184	-1.52
226.404	-9.18
226.623	-11.73
226.842	-12.61
227.061	-15.77
227.28	-10.31
227.499	10.69
227.718	8.96
227.936	4.96
228.155	7.57
228.374	11.57
228.593	12.19
228.812	-5.66
229.031	-24.54
229.25	-19.38
229.469	-5.35
229.688	-7.25
229.907	-17.59
230.125	-9.69
230.344	8.34
230.563	21.89
230.782	15.09
231.001	21.74
231.22	17.87
231.438	21.76
231.657	15.59
231.876	15.42
232.095	10.88
232.313	10.56
232.532	5.18
232.751	5.55
232.969	9.05
233.188	11.23
233.407	1.48
233.625	-3.74
233.844	3.74
234.063	6.11
234.281	-0.72
234.5	-0.88
234.719	-3.67
234.937	-4.21
235.156	-7.9
235.374	-22.05
235.593	-29.73
235.811	-43.94
236.03	-39.96
236.249	-24.53
236.467	-21.3
236.686	-13.38
236.904	-3.1
237.123	3.92
237.341	20.34
237.559	12.56
237.778	20.13
237.996	17.14
238.215	19.66
238.433	22.25
238.652	20.95
238.87	11.79
239.088	4.42
239.307	-0.91
239.525	-1.25
239.743	-8.64
239.962	-4.64
240.18	-7.97
240.398	-4.92
240.617	9.68
240.835	3.83
241.053	9.96
241.271	14.57
241.49	1.04
241.708	-1.05
241.926	-20.24
242.144	-24.69
242.363	-26.19
242.581	-28.19
242.799	-30.91
243.017	-13.16
243.235	-20.15
243.453	-5.73
243.672	-14.8
243.89	1.94
244.108	1
244.326	-5.01
244.544	-14.94
244.762	-8.58
244.98	-2.84
245.198	-11.7
245.416	-19.29
245.634	-3.05
245.852	1.51
246.07	-5.16
246.288	-3.87
246.506	-0.64
246.724	17.61
246.942	16.19
247.16	6.08
247.378	-5.49
247.596	5.22
247.814	3.55
248.032	1.4
248.25	-11.38
248.468	-13.64
248.685	-17.97
248.903	-17.26
249.121	-21.1
249.339	-17.23
249.557	-14.56
249.775	-16.42
249.992	-4.68
250.21	-16.84
250.428	-7.99
250.646	-15.22
250.863	-16.16
251.081	-31.9
251.299	-17.37
251.517	-32.05
251.734	-13.77
251.952	-9.6
252.17	-21.75
252.387	-10.37
252.605	4.18
252.823	-10.68
253.04	-24.03
253.258	-19.48
253.475	-25.48
253.693	-3.23
253.911	-15.33
254.128	-15.47
254.346	-12.45
254.563	-11.3
254.781	-13.44
254.998	-7.47
255.216	-6.06
255.433	-3.86
255.651	-8.57
255.868	2.05
256.086	10.76
256.303	3.72
256.521	-17
256.738	-26.43
256.956	-35.08
257.173	-20.02
257.39	-21.58
257.608	-28.47
257.825	-21.54
258.043	0.59
258.26	-5.02
258.477	7.15
258.695	5.72
258.912	7.04
259.129	12.6
259.346	8.54
259.564	-6.76
259.781	9.02
259.998	-0.06
260.216	7.82
260.433	4.29
260.65	2.57
260.867	-13.43
261.084	-4.99
261.302	-20.42
261.519	-28.16
261.736	-46.27
261.953	-45.34
262.17	-35.16
262.387	-28.01
262.604	-49.46
262.822	-36.69
263.039	-32.83
263.256	-29.15
263.473	-29
263.69	-39.16
263.907	-41.02
264.124	-37.86
264.341	-27.18
264.558	-18.26
264.775	-13.14
264.992	-10.03
265.209	4.49
265.426	9.53
265.643	18.31
265.86	1.37
266.077	-2.1
266.294	-2.63
266.51	0.64
266.727	-18.96
266.944	-32.6
267.161	-40.64
267.378	-32.21
267.595	-38.62
267.812	-47.5
268.028	-45.13
268.245	-23.13
268.462	-17.16
268.679	-7.89
268.896	-7.28
269.112	2.56
269.329	11.07
269.546	-0.37
269.763	-7.99
269.979	-9.21
270.196	-13.88
270.413	-17.6
270.629	-20.96
270.846	-13.23
271.063	-3.89
271.279	2.41
271.496	-2.9
271.712	3.82
271.929	14.75
272.146	26.85
272.362	7.52
272.579	-4.61
272.795	-17.4
273.012	-8.14
273.228	-11.57
273.445	-17.63
273.661	-24.89
273.878	-9.37
274.094	-3.45
274.311	2.56
274.527	-10.63
274.744	-13.91
274.96	-9.58
275.177	-6.64
275.393	-12.76
275.609	-16.38
275.826	-15.5
276.042	8.47
276.259	5.64
276.475	-4.88
276.691	-5.65
276.908	-3.85
277.124	-1.93
277.34	-1.98
277.557	-10.44
277.773	-13.07
277.989	-11.63
278.205	-23.13
278.422	-23.22
278.638	-21.22
278.854	-34.64
279.07	-38.18
279.286	-29.41
279.503	-32.74
279.719	-14.5
279.935	-25.5
280.151	-14.7
280.367	0.51
280.583	2.58
280.799	5.15
281.016	12.4
281.232	5.73
281.448	5.84
281.664	-15.54
281.88	-12.96
282.096	-8.11
282.312	-27.67
282.528	-41.3
282.744	-39.84
282.96	-21.17
283.176	-5.4
283.392	-0.25
283.608	6.99
283.824	8.85
284.04	10.89
284.256	15.21
284.471	14.95
284.687	10.81
284.903	-2.73
285.119	-21.01
285.335	-11.87
285.551	-9.06
285.767	-13.76
285.982	-20.31
286.198	-20.91
286.414	-8.51
286.63	1.99
286.846	1.92
287.061	2.75
287.277	0.41
287.493	4.31
287.709	5.37
287.924	-0.38
288.14	-0.62
288.356	2.62
288.571	-6.03
288.787	-5.3
289.003	-2.01
289.218	-10.08
289.434	2.74
289.65	3.79
289.865	4.77
290.081	5.64
290.296	7.16
290.512	6.32
290.727	16.76
290.943	8.62
291.159	-0.97
291.374	-0.64
291.59	-3.3
291.805	-6.53
292.021	-23.08
292.236	-20.66
292.451	-11.35
292.667	14.58
292.882	6.41
293.098	14
293.313	13.49
293.529	18.68
293.744	19.91
293.959	15.88
294.175	-6.43
294.39	-11.31
294.605	-11.15
294.821	-9.71
295.036	-6.2
295.251	-18.59
295.467	-27.63
295.682	-17.23
295.897	-6.91
296.112	-7.47
296.328	-5.23
296.543	-10.72
296.758	-8.99
296.973	-4.93
297.188	-7.68
297.404	-9.39
297.619	-22.86
297.834	-17.75
298.049	-14.35
298.264	-12.31
298.479	-19.9
298.694	-15.31
298.909	-11.63
299.125	1.45
299.34	-4.42
299.555	-1.39
299.77	-2.93
299.985	-2.84
300.2	-4.22
300.415	-5.07
300.63	-9.32
300.845	-3.39
301.06	-4.42
301.275	1.09
301.49	10.39
301.704	9.11
301.919	4.18
302.134	-5.59
302.349	-15.84
302.564	-28.39
302.779	-41.24
302.994	-57.93
303.209	-73.02
303.423	-63.92
303.638	-53.2
303.853	-34.96
304.068	-19.54
304.283	-15.67
304.497	-9.88
304.712	1.58
304.927	2.67
305.142	-5.26
305.356	-6.96
305.571	-2.8
305.786	0.89
306	-3.42
306.215	-7.28
306.43	-4.16
306.644	2.22
306.859	-3.75
307.074	-10.87
307.288	-10.86
307.503	-2.6
307.717	-5.64
307.932	-9.67
308.147	-9.58
308.361	-1.48
308.576	3.75
308.79	4.8
309.005	4.45
309.219	8.52
309.434	4.43
309.648	-6.65
309.863	-11.03
310.077	-12.26
310.292	-9.39
310.506	4.24
310.72	-0.3
310.935	9.23
311.149	21.94
311.364	25.34
311.578	22.8
311.792	13.91
312.007	5.06
312.221	4.79
312.435	2.72
312.649	-44.45
312.864	-56.71
313.078	-49.87
313.292	-41.78
313.507	-40.97
313.721	-42.47
313.935	-34.21
314.149	4.33
314.363	10.59
314.578	10.99
314.792	2.08
315.006	0.42
315.22	3.01
315.434	-7.77
315.648	-5.57
315.862	1.76
316.077	-3.25
316.291	6.43
316.505	4.21
316.719	-10.5
316.933	-2.39
317.147	-2.77
317.361	-15.66
317.575	-16
317.789	-13.05
318.003	-8.08
318.217	-3.34
318.431	-4.96
318.645	-1.52
318.859	-12.32
319.073	-3.76
319.287	-3.03
319.5	-5.17
319.714	-0.67
319.928	3.58
320.142	0.17
320.356	19.41
320.57	9.95
320.784	7.02
320.997	12.71
321.211	12.15
321.425	9.26
321.639	9.76
321.853	0.03
322.066	0.43
322.28	-0.18
322.494	-8.21
322.707	-10.11
322.921	-14.46
323.135	-16.57
323.349	-15.29
323.562	-17.46
323.776	-12.28
323.989	-7.97
324.203	-4.7
324.417	-6.55
324.63	-8.37
324.844	-16.93
325.057	-8.7
325.271	-31.28
325.485	-28.39
325.698	-30.11
325.912	-14.68
326.125	-13.5
326.339	-0.64
326.552	-6.57
326.766	4.44
326.979	3.19
327.193	-1.67
327.406	-13.42
327.619	-28.77
327.833	-32.51
328.046	-19.16
328.26	-26.27
328.473	-25.23
328.686	-18.96
328.9	-27.89
329.113	-15.67
329.326	-13.24
329.54	-22.62
329.753	-14.13
329.966	-12.64
330.179	-14.71
330.393	1.73
330.606	4.48
330.819	4.22
331.032	2.77
331.246	-0.88
331.459	0.48
331.672	0.1
331.885	-2.42
332.098	-3.7
332.311	-13.32
332.525	-2.78
332.738	-3.3
332.951	-9.48
333.164	-11.93
333.377	-23.25
333.59	-19.89
333.803	-8.52
334.016	-18.61
334.229	-7.72
334.442	6.42
334.655	7.75
334.868	10.88
335.081	13.79
335.294	4.63
335.507	6.23
335.72	-7.6
335.933	-8.51
336.146	-7.4
336.359	-5.47
336.572	-14.53
336.785	-4.29
336.997	-4.43
337.21	7.9
337.423	-3.31
337.636	2.21
337.849	-3.19
338.062	-0.86
338.274	-4.65
338.487	-4.92
338.7	-6.94
338.913	-8.92
339.125	-10.55
339.338	3
339.551	3.8
339.763	5.24
339.976	4.9
340.189	-0.29
340.402	5.89
340.614	7.09
340.827	-9.8
341.039	-12.9
341.252	-17.05
341.465	-19.2
341.677	-14.75
341.89	-13.74
342.102	-7.72
342.315	4.81
342.527	4.91
342.74	3.21
342.952	7.42
343.165	10.13
343.377	14.34
343.59	13
343.802	10.94
344.015	19.46
344.227	10.37
344.44	6.8
344.652	-3.64
344.864	-4.83
345.077	-15.08
345.289	-14.21
345.502	-26.66
345.714	-19.59
345.926	-25.82
346.139	-16.88
346.351	-38.67
346.563	-27.63
346.775	-38.21
346.988	-30.77
347.2	-15.77
347.412	-11.24
347.624	-10.12
347.837	-5.53
348.049	-11.93
348.261	-10.38
348.473	-17.34
348.685	-16.41
348.897	-18.26
349.11	-16.97
349.322	-15.14
349.534	-20.67
349.746	-14.77
349.958	-4.13
350.17	-19.74
350.382	-16.34
350.594	-18.59
350.806	-13.05
351.018	-2.75
351.23	4.54
351.442	1.4
351.654	9.75
351.866	14.01
352.078	12.92
352.29	14.25
352.502	13.98
352.714	6.54
352.926	2.71
353.138	-0.18
353.35	-16.45
353.561	-16.12
353.773	-10.73
353.985	-6.78
354.197	-5.6
354.409	-5.6
354.621	-2.61
354.832	-3.29
355.044	-2.01
355.256	-16.01
355.468	-28.34
355.679	-19.6
355.891	-15.47
356.103	-16.97
356.314	-9.59
356.526	-10.46
356.738	-16.59
356.949	-14.96
357.161	-25.65
357.373	-25.73
357.584	-16.74
357.796	-12.1
358.008	-5.2
358.219	11.25
358.431	11.4
358.642	13.31
358.854	16.4
359.065	8.45
359.277	-1.48
359.488	-6.61
359.7	-2.87
359.911	0.17
360.123	2.11
360.334	2.72
360.546	-5.47
360.757	0.02
360.969	6.76
361.18	-1.82
361.391	-1.8
361.603	-10.35
361.814	-7.81
362.025	-1.32
362.237	2.06
362.448	-4.65
362.659	-21.09
362.871	-18.59
363.082	-1.29
363.293	-4.81
363.504	-6.29
363.716	-2.74
363.927	-3.41
364.138	12.32
364.349	15.2
364.56	6.32
364.772	5.3
364.983	2.05
365.194	-4.18
365.405	-3.16
365.616	-13.11
365.827	-15.6
366.038	-8.38
366.25	1.93
366.461	9.02
366.672	9.15
366.883	17.77
367.094	15.21
367.305	17.81
367.516	10.85
367.727	4.12
367.938	1.24
368.149	0.58
368.36	-5.34
368.571	3.8
368.781	-0.31
368.992	2.31
369.203	0.02
369.414	-2.08
369.625	1.36
369.836	4.57
370.047	1.33
370.258	-3.09
370.468	-7.77
370.679	-12.88
370.89	-5.9
371.101	-9.25
371.312	-20.21
371.522	-20.35
371.733	-26.89
371.944	-22.59
372.155	-22.82
372.365	-26.5
372.576	-22.77
372.787	-21.94
372.997	-22.75
373.208	-13.16
373.419	-6.67
373.629	-2.37
373.84	-10.62
374.05	-12.86
374.261	-9.23
374.472	-9.75
374.682	-14.84
374.893	-22.7
375.103	-18.78
375.314	-13.47
375.524	-8.83
375.735	-6.46
375.945	-3.74
376.156	0.7
376.366	0.13
376.577	-3.59
376.787	-3.51
376.997	-8.9
377.208	-5.04
377.418	-10.08
377.629	-11.76
377.839	-5.69
378.049	5.28
378.26	8.67
378.47	9.26
378.68	2.79
378.89	-1
379.101	-5.77
379.311	-12.55
379.521	-13.36
379.732	-19.86
379.942	-17.48
380.152	-8.75
380.362	-1.3
380.572	5.1
380.783	6.83
380.993	5.65
381.203	3.64
381.413	2.71
381.623	-1.1
381.833	-2.32
382.043	-9.62
382.253	-9.15
382.463	-8.29
382.674	-0.83
382.884	-4.14
383.094	-4.4
383.304	-4.74
383.514	0.55
383.724	0.93
383.934	0.25
384.144	1.42
384.353	4.23
384.563	-0.47
384.773	-1.42
384.983	-1.27
385.193	2.29
385.403	-0.62
385.613	-8.51
385.823	-10.87
386.033	-9.6
386.242	-9.38
386.452	-9.87
386.662	-11.06
386.872	-13.68
387.082	-6.94
387.291	-5.77
387.501	-1.19
387.711	-0.13
387.921	0.49
388.13	-1.79
388.34	-0.96
388.55	-0.56
388.759	-1.31
388.969	-4.35
389.179	-2.27
389.388	-1.2
389.598	-0.48
389.807	0.11
390.017	-0.76
390.227	0.29
390.436	0.54
390.646	-0.13
390.855	-0.46
391.065	-0.13
391.274	0.7
391.484	1.73
391.693	1.64
391.903	0.81
392.112	0.6
392.322	2.97
392.531	3.06
392.74	1.82
392.95	1.27
393.159	1.86
393.369	2.79
393.578	2.53
393.787	1.15
393.997	2.57
394.206	3.16
394.415	3.05
394.625	2.22
394.834	1.78
395.043	1.79
395.252	2.19
395.462	0.8
395.671	1.2
395.88	1.37
396.089	1.42
396.298	1.45
396.508	1.79
396.717	1.46
396.926	1.35
397.135	1.02
397.344	1.1
397.553	1.56
397.762	2.23
397.971	1.98
398.181	2.07
398.39	2.27
398.599	2.56
398.808	2.64
399.017	2.85
399.226	2.76
399.435	2.87
399.644	2.63
399.853	2.77
400.062	2.61
400.27	2.63
400.479	2.43
400.688	2.2
400.897	2.26
401.106	2.47
401.315	2.3
401.524	2.44
401.733	2.49
401.941	2.47
402.15	2.45
402.359	2.35
402.568	2.21
402.777	2.2
402.985	2.07
403.194	2.09
403.403	1.97
403.612	2.05
403.82	2.17
404.029	2.24
404.238	2.38
404.446	2.34
404.655	2.15
404.864	2.14
405.072	2.18
405.281	2.05
405.489	2.17
405.698	2.02
405.906	2.01
406.115	2.2
406.324	2.17
406.532	2.22
406.741	2.31
406.949	2.13
407.158	2.25
407.366	2.29
407.574	2.22
407.783	2.26
407.991	2.1
408.2	1.97
408.408	2.04
408.617	1.96
408.825	1.92
409.033	1.9
409.242	1.86
409.45	1.88
409.658	1.95
409.867	1.91
410.075	1.92
410.283	1.94
410.491	1.97
410.7	2.06
410.908	2.1
411.116	2.01
411.324	2.11
411.533	2.01
411.741	1.96
411.949	1.98
412.157	1.94
412.365	1.87
412.573	2.01
412.781	1.97
412.99	2.06
413.198	2.06
413.406	1.91
413.614	1.87
413.822	1.94
414.03	1.75
414.238	1.76
414.446	1.68
414.654	1.68
414.862	1.7
415.07	1.77
415.278	1.68
415.486	1.82
415.694	1.7
415.902	1.75
416.109	1.78
416.317	1.84
416.525	1.85
416.733	1.92
416.941	1.88
417.149	2.03
417.357	2.05
417.564	2.06
417.772	2.02
417.98	1.97
418.188	1.83
418.395	1.78
418.603	1.64
418.811	1.54
419.019	1.51
419.226	1.55
419.434	1.57
419.642	1.58
419.849	1.64
420.057	1.69
420.265	1.82
420.472	1.78
420.68	1.71
420.887	1.67
421.095	1.84
421.302	1.83
421.51	1.92
421.717	1.93
421.925	1.89
422.132	1.87
422.34	1.85
422.547	1.68
422.755	1.64
422.962	1.5
423.17	1.35
423.377	1.47
423.585	1.48
423.792	1.55
423.999	1.57
424.207	1.53
424.414	1.51
424.621	1.56
424.829	1.47
425.036	1.36
425.243	1.38
425.451	1.42
425.658	1.49
425.865	1.5
426.072	1.45
426.28	1.52
426.487	1.62
426.694	1.53
426.901	1.47
427.108	1.43
427.315	1.44
427.523	1.51
427.73	1.51
427.937	1.54
428.144	1.56
428.351	1.66
428.558	1.57
428.765	1.48
428.972	1.48
429.179	1.4
429.386	1.42
429.593	1.43
429.8	1.41
430.007	1.56
430.214	1.63
430.421	1.65
430.628	1.55
430.835	1.51
431.042	1.53
431.249	1.48
431.456	1.43
431.662	1.41
431.869	1.46
432.076	1.59
432.283	1.58
432.49	1.5
432.697	1.61
432.903	1.69
433.11	1.82
433.317	1.8
433.524	1.76
433.73	1.76
433.937	1.82
434.144	1.85
434.35	1.77
434.557	1.74
434.764	1.66
434.97	1.7
435.177	1.71
435.384	1.77
435.59	1.72
435.797	1.7
436.003	1.63
436.21	1.69
436.416	1.66
436.623	1.68
436.829	1.62
437.036	1.65
437.242	1.68
437.449	1.74
437.655	1.74
437.862	1.75
438.068	1.82
438.275	1.81
438.481	1.84
438.687	1.86
438.894	1.79
439.1	1.81
439.307	1.83
439.513	1.83
439.719	1.93
439.926	1.9
440.132	1.87
440.338	1.93
440.544	1.87
440.751	1.91
440.957	1.84
441.163	1.79
441.369	1.77
441.575	1.78
441.782	1.76
441.988	1.73
442.194	1.73
442.4	1.78
442.606	1.76
442.812	1.77
443.018	1.79
443.224	1.8
443.431	1.88
443.637	1.84
443.843	1.82
444.049	1.88
444.255	1.86
444.461	1.89
444.667	1.89
444.873	1.89
445.079	1.98
445.284	1.96
445.49	1.9
445.696	1.91
445.902	1.92
446.108	1.91
446.314	1.93
446.52	1.9
446.726	1.97
446.931	1.97
447.137	1.97
447.343	1.95
447.549	1.98
447.755	1.96
447.96	1.96
448.166	1.94
448.372	2.01
448.578	2.01
448.783	2.05
448.989	2.04
449.195	2.05
449.4	2.05
449.606	2.02
449.812	2.01
450.017	2.05
450.223	2.04
450.428	2.06
450.634	2.1
450.84	2.1
451.045	2.13
451.251	2.13
451.456	2.08
451.662	2.05
451.867	2.09
452.073	2.04
452.278	2
452.483	2.03
452.689	2.04
452.894	2.07
453.1	2.03
453.305	1.94
453.51	1.99
453.716	2.04
453.921	2.04
454.127	1.99
454.332	1.97
454.537	2.07
454.742	2.11
454.948	2.07
455.153	2.07
455.358	2.08
455.563	2.13
455.769	2.16
455.974	2.09
456.179	2.05
456.384	2.08
456.589	2.11
456.795	2.06
457	2.04
457.205	2
457.41	2.02
457.615	2.1
457.82	2.15
458.025	2.11
458.23	2.14
458.435	2.11
458.64	2.19
458.845	2.15
459.05	2.14
459.255	2.03
459.46	2.06
459.665	2.1
459.87	2.12
460.075	2.09
460.28	2.14
460.485	2.16
460.69	2.21
460.895	2.26
461.099	2.25
461.304	2.23
461.509	2.22
461.714	2.23
461.919	2.2
462.123	2.27
462.328	2.24
462.533	2.25
462.738	2.26
462.942	2.34
463.147	2.31
463.352	2.33
463.556	2.32
463.761	2.3
463.966	2.36
464.17	2.42
464.375	2.38
464.58	2.38
464.784	2.41
464.989	2.38
465.193	2.41
465.398	2.37
465.602	2.32
465.807	2.31
466.011	2.34
466.216	2.31
466.42	2.35
466.625	2.33
466.829	2.37
467.034	2.44
467.238	2.46
467.443	2.47
467.647	2.52
467.851	2.49
468.056	2.51
468.26	2.47
468.464	2.4
468.669	2.41
468.873	2.39
469.077	2.42
469.282	2.45
469.486	2.48
469.69	2.49
469.894	2.55
470.099	2.54
470.303	2.52
470.507	2.48
470.711	2.49
470.915	2.53
471.119	2.59
471.324	2.57
471.528	2.59
471.732	2.64
471.936	2.69
472.14	2.67
472.344	2.63
472.548	2.63
472.752	2.66
472.956	2.71
473.16	2.72
473.364	2.7
473.568	2.76
473.772	2.81
473.976	2.79
474.18	2.8
474.384	2.77
474.588	2.8
474.792	2.8
474.995	2.75
475.199	2.78
475.403	2.8
475.607	2.83
475.811	2.83
476.015	2.83
476.218	2.86
476.422	2.89
476.626	2.84
476.83	2.85
477.033	2.85
477.237	2.88
477.441	2.91
477.644	2.92
477.848	2.95
478.052	2.99
478.255	2.96
478.459	2.99
478.663	2.98
478.866	3
479.07	3.01
479.273	2.98
479.477	3
479.681	2.99
479.884	2.97
480.088	2.99
480.291	2.96
480.495	2.99
480.698	2.99
480.901	3.02
481.105	3.11
481.308	3.11
481.512	3.13
481.715	3.13
481.919	3.16
482.122	3.19
482.325	3.12
482.529	3.1
482.732	3.11
482.935	3.1
483.138	3.09
483.342	3.08
483.545	3.08
483.748	3.19
483.952	3.19
484.155	3.21
484.358	3.19
484.561	3.2
484.764	3.2
484.967	3.24
485.171	3.19
485.374	3.22
485.577	3.24
485.78	3.27
485.983	3.29
486.186	3.32
486.389	3.27
486.592	3.31
486.795	3.27
486.998	3.25
487.201	3.26
487.404	3.29
487.607	3.3
487.81	3.34
488.013	3.3
488.216	3.3
488.419	3.32
488.622	3.27
488.825	3.24
489.028	3.21
489.231	3.17
489.433	3.17
489.636	3.18
489.839	3.18
490.042	3.24
490.245	3.23
490.447	3.21
490.65	3.24
490.853	3.24
491.056	3.26
491.258	3.26
491.461	3.22
491.664	3.24
491.866	3.28
492.069	3.26
492.272	3.25
492.474	3.26
492.677	3.24
492.879	3.26
493.082	3.27
493.285	3.31
493.487	3.33
493.69	3.35
493.892	3.4
494.095	3.39
494.297	3.44
494.5	3.48
494.702	3.46
494.905	3.48
495.107	3.46
495.309	3.39
495.512	3.44
495.714	3.44
495.917	3.41
496.119	3.41
496.321	3.43
496.524	3.44
496.726	3.49
496.928	3.49
497.13	3.49
497.333	3.51
497.535	3.54
497.737	3.53
497.939	3.55
498.142	3.56
498.344	3.57
498.546	3.63
498.748	3.63
498.95	3.62
499.152	3.58
499.355	3.6
499.557	3.64
499.759	3.65
499.961	3.6
500.163	3.66
500.365	3.68
500.567	3.73
500.769	3.78
500.971	3.78
501.173	3.79
501.375	3.81
501.577	3.83
501.779	3.84
501.981	3.86
502.183	3.81
502.385	3.81
502.587	3.82
502.788	3.81
502.99	3.77
503.192	3.83
503.394	3.88
503.596	3.94
503.798	4
503.999	4.02
504.201	4.06
504.403	4.08
504.605	4.1
504.806	4.09
505.008	4.09
505.21	4.1
505.411	4.18
505.613	4.22
505.815	4.28
506.016	4.3
506.218	4.31
506.42	4.39
506.621	4.38
506.823	4.34
507.024	4.33
507.226	4.33
507.427	4.35
507.629	4.4
507.83	4.36
508.032	4.42
508.233	4.47
508.435	4.46
508.636	4.48
508.838	4.48
509.039	4.48
509.24	4.51
509.442	4.47
509.643	4.47
509.845	4.51
510.046	4.52
510.247	4.56
510.448	4.59
510.65	4.58
510.851	4.64
511.052	4.66
511.254	4.74
511.455	4.72
511.656	4.67
511.857	4.66
512.058	4.7
512.26	4.67
512.461	4.7
512.662	4.66
512.863	4.71
513.064	4.73
513.265	4.79
513.466	4.82
513.667	4.9
513.868	4.88
514.069	4.93
514.27	4.93
514.471	4.97
514.672	4.94
514.873	4.97
515.074	4.94
515.275	4.97
515.476	4.96
515.677	4.98
515.878	5.02
516.079	5.06
516.28	5.05
516.481	5.05
516.682	5.06
516.882	5.07
517.083	5.09
517.284	5.08
517.485	5.11
517.686	5.12
517.886	5.12
518.087	5.15
518.288	5.19
518.488	5.21
518.689	5.2
518.89	5.23
519.091	5.24
519.291	5.29
519.492	5.28
519.692	5.3
519.893	5.31
520.094	5.37
520.294	5.36
520.495	5.37
520.695	5.39
520.896	5.42
521.096	5.45
521.297	5.46
521.497	5.46
521.698	5.5
521.898	5.54
522.099	5.53
522.299	5.54
522.499	5.54
522.7	5.54
522.9	5.53
523.101	5.51
523.301	5.51
523.501	5.53
523.702	5.56
523.902	5.57
524.102	5.59
524.302	5.62
524.503	5.67
524.703	5.71
524.903	5.74
525.103	5.76
525.304	5.76
525.504	5.76
525.704	5.77
525.904	5.76
526.104	5.78
526.304	5.78
526.504	5.78
526.705	5.82
526.905	5.86
527.105	5.88
527.305	5.89
527.505	5.92
527.705	5.93
527.905	5.94
528.105	5.95
528.305	5.96
528.505	5.98
528.705	6.02
528.905	6
529.105	6.05
529.304	6.1
529.504	6.12
529.704	6.12
529.904	6.16
530.104	6.16
530.304	6.21
530.503	6.2
530.703	6.23
530.903	6.23
531.103	6.27
531.303	6.29
531.502	6.27
531.702	6.29
531.902	6.31
532.101	6.3
532.301	6.34
532.501	6.34
532.7	6.36
532.9	6.43
533.1	6.43
533.299	6.48
533.499	6.51
533.698	6.55
533.898	6.56
534.097	6.58
534.297	6.58
534.496	6.56
534.696	6.56
534.895	6.58
535.095	6.59
535.294	6.63
535.494	6.65
535.693	6.7
535.892	6.77
536.092	6.79
536.291	6.82
536.491	6.87
536.69	6.91
536.889	6.92
537.088	6.92
537.288	6.96
537.487	7
537.686	7.04
537.886	7.06
538.085	7.08
538.284	7.13
538.483	7.19
538.682	7.23
538.882	7.22
539.081	7.23
539.28	7.22
539.479	7.24
539.678	7.27
539.877	7.27
540.076	7.28
540.275	7.33
540.474	7.35
540.673	7.4
540.872	7.47
541.071	7.53
541.27	7.55
541.469	7.59
541.668	7.65
541.867	7.7
542.066	7.76
542.265	7.77
542.464	7.79
542.663	7.84
542.862	7.87
543.06	7.89
543.259	7.94
543.458	7.96
543.657	7.98
543.856	8.03
544.054	8.07
544.253	8.12
544.452	8.14
544.651	8.18
544.849	8.22
545.048	8.27
545.247	8.3
545.445	8.3
545.644	8.34
545.843	8.38
546.041	8.45
546.24	8.52
546.438	8.61
546.637	8.71
546.836	8.81
547.034	8.86
547.233	8.94
547.431	8.95
547.63	9.02
547.828	9.07
548.027	9.08
548.225	9.16
548.423	9.21
548.622	9.3
548.82	9.37
549.019	9.42
549.217	9.48
549.415	9.57
549.614	9.61
549.812	9.7
550.01	9.74
550.209	9.84
550.407	9.93
550.605	10.02
550.803	10.1
551.002	10.17
551.2	10.24
551.398	10.29
551.596	10.35
551.794	10.41
551.993	10.42
552.191	10.54
552.389	10.62
552.587	10.67
552.785	10.81
552.983	10.87
553.181	10.9
553.379	11.03
553.577	11.07
553.775	11.15
553.973	11.27
554.171	11.3
554.369	11.42
554.567	11.53
554.765	11.61
554.963	11.7
555.161	11.79
555.359	11.88
555.557	11.99
555.755	12.08
555.952	12.17
556.15	12.24
556.348	12.36
556.546	12.46
556.744	12.55
556.941	12.64
557.139	12.74
557.337	12.85
557.535	12.97
557.732	13.01
557.93	13.11
558.128	13.18
558.325	13.28
558.523	13.36
558.721	13.47
558.918	13.58
559.116	13.67
559.313	13.8
559.511	13.89
559.708	13.99
559.906	14.1
560.104	14.2
560.301	14.29
560.498	14.41
560.696	14.46
560.893	14.61
561.091	14.67
561.288	14.8
561.486	14.89
561.683	15.01
561.88	15.09
562.078	15.22
562.275	15.3
562.473	15.43
562.67	15.47
562.867	15.59
563.064	15.66
563.262	15.8
563.459	15.9
563.656	16.04
563.853	16.13
564.051	16.2
564.248	16.25
564.445	16.36
564.642	16.44
564.839	16.57
565.036	16.62
565.234	16.75
565.431	16.87
565.628	16.91
565.825	17.01
566.022	17.1
566.219	17.12
566.416	17.24
566.613	17.31
566.81	17.4
567.007	17.56
567.204	17.65
567.401	17.74
567.598	17.8
567.795	17.86
567.991	17.95
568.188	18
568.385	18.04
568.582	18.08
568.779	18.18
568.976	18.28
569.172	18.34
569.369	18.37
569.566	18.41
569.763	18.55
569.96	18.62
570.156	18.61
570.353	18.66
570.55	18.71
570.746	18.81
570.943	18.93
571.14	18.94
571.336	18.94
571.533	18.98
571.729	19.08
571.926	19.09
572.123	19.08
572.319	19.13
572.516	19.14
572.712	19.16
572.909	19.23
573.105	19.28
573.302	19.35
573.498	19.43
573.695	19.45
573.891	19.49
574.087	19.55
574.284	19.53
574.48	19.5
574.677	19.51
574.873	19.49
575.069	19.53
575.266	19.54
575.462	19.58
575.658	19.64
575.854	19.67
576.051	19.67
576.247	19.71
576.443	19.7
576.639	19.72
576.835	19.76
577.032	19.75
577.228	19.74
577.424	19.79
577.62	19.78
577.816	19.75
578.012	19.74
578.208	19.73
578.404	19.75
578.6	19.77
578.796	19.78
578.993	19.78
579.189	19.8
579.384	19.78
579.58	19.81
579.776	19.81
579.972	19.77
580.168	19.76
580.364	19.79
580.56	19.78
580.756	19.76
580.952	19.74
581.148	19.69
581.343	19.7
581.539	19.63
581.735	19.55
581.931	19.51
582.127	19.54
582.322	19.5
582.518	19.52
582.714	19.51
582.909	19.52
583.105	19.51
583.301	19.51
583.496	19.45
583.692	19.43
583.888	19.44
584.083	19.5
584.279	19.52
584.474	19.52
584.67	19.5
584.866	19.55
585.061	19.55
585.257	19.49
585.452	19.41
585.648	19.38
585.843	19.38
586.039	19.39
586.234	19.38
586.429	19.35
586.625	19.34
586.82	19.32
587.015	19.33
587.211	19.39
587.406	19.46
587.601	19.46
587.797	19.46
587.992	19.48
588.187	19.52
588.383	19.54
588.578	19.46
588.773	19.39
588.968	19.45
589.163	19.5
589.359	19.54
589.554	19.52
589.749	19.52
589.944	19.58
590.139	19.65
590.334	19.64
590.529	19.66
590.724	19.67
590.919	19.75
591.114	19.76
591.309	19.8
591.504	19.82
591.699	19.84
591.894	19.93
592.089	19.99
592.284	19.97
592.479	20.04
592.674	20.07
592.869	20.12
593.064	20.2
593.259	20.18
593.454	20.2
593.648	20.25
593.843	20.3
594.038	20.4
594.233	20.47
594.428	20.5
594.622	20.57
594.817	20.66
595.012	20.74
595.206	20.78
595.401	20.77
595.596	20.83
595.79	20.86
595.985	20.92
596.18	20.99
596.374	21.08
596.569	21.17
596.763	21.28
596.958	21.35
597.153	21.45
597.347	21.51
597.542	21.62
597.736	21.67
597.931	21.77
598.125	21.85
598.319	21.91
598.514	21.99
598.708	22.06
598.903	22.09
599.097	22.17
599.291	22.19
599.486	22.25
599.68	22.3
599.874	22.39
600.069	22.43
600.263	22.44
600.457	22.46
600.651	22.5
600.846	22.51
601.04	22.51
601.234	22.53
601.428	22.57
601.622	22.63
601.817	22.7
602.011	22.75
602.205	22.8
602.399	22.9
602.593	22.92
602.787	22.99
602.981	23.01
603.175	22.98
603.369	23.01
603.563	23
603.757	22.95
603.951	22.92
604.145	22.87
604.339	22.92
604.533	22.88
604.727	22.82
604.921	22.79
605.115	22.82
605.309	22.84
605.502	22.85
605.696	22.76
605.89	22.8
606.084	22.82
606.278	22.76
606.471	22.69
606.665	22.66
606.859	22.63
607.053	22.55
607.246	22.46
607.44	22.38
607.634	22.35
607.827	22.31
608.021	22.24
608.214	22.18
608.408	22.16
608.602	22.15
608.795	22.08
608.989	22.05
609.182	22
609.376	21.93
609.569	21.84
609.763	21.83
609.956	21.69
610.15	21.66
610.343	21.63
610.537	21.54
610.73	21.49
610.923	21.4
611.117	21.25
611.31	21.27
611.504	21.19
611.697	21.07
611.89	21
612.083	20.91
612.277	20.81
612.47	20.81
612.663	20.72
612.856	20.64
613.05	20.59
613.243	20.5
613.436	20.44
613.629	20.43
613.822	20.31
614.015	20.24
614.209	20.2
614.402	20.15
614.595	20.07
614.788	19.99
614.981	19.91
615.174	19.86
615.367	19.8
615.56	19.7
615.753	19.59
615.946	19.59
616.139	19.59
616.332	19.51
616.525	19.47
616.718	19.35
616.911	19.3
617.103	19.27
617.296	19.23
617.489	19.15
617.682	19.16
617.875	19.09
618.067	19.08
618.26	19.04
618.453	18.94
618.646	18.88
618.838	18.82
619.031	18.74
619.224	18.74
619.417	18.71
619.609	18.71
619.802	18.72
619.994	18.7
620.187	18.67
620.38	18.64
620.572	18.59
620.765	18.57
620.957	18.48
621.15	18.42
621.342	18.42
621.535	18.36
621.727	18.34
621.92	18.29
622.112	18.25
622.305	18.26
622.497	18.26
622.69	18.17
622.882	18.21
623.074	18.16
623.267	18.13
623.459	18.11
623.651	18.13
623.844	18.1
624.036	18.15
624.228	18.1
624.42	18.04
624.613	18.01
624.805	17.99
624.997	17.9
625.189	17.9
625.381	17.83
625.574	17.77
625.766	17.79
625.958	17.79
626.15	17.8
626.342	17.8
626.534	17.74
626.726	17.73
626.918	17.71
627.11	17.65
627.302	17.61
627.494	17.53
627.686	17.53
627.878	17.47
628.07	17.42
628.262	17.37
628.454	17.33
628.646	17.3
628.838	17.26
629.029	17.16
629.221	17.13
629.413	17.04
629.605	17.02
629.797	17.06
629.989	17.04
630.18	17.01
630.372	16.99
630.564	17
630.755	17
630.947	16.94
631.139	16.85
631.33	16.85
631.522	16.8
631.714	16.75
631.905	16.68
632.097	16.64
632.289	16.63
632.48	16.6
632.672	16.5
632.863	16.48
633.055	16.5
633.246	16.51
633.438	16.51
633.629	16.51
633.821	16.53
634.012	16.53
634.203	16.54
634.395	16.51
634.586	16.47
634.777	16.44
634.969	16.46
635.16	16.4
635.351	16.36
635.543	16.27
635.734	16.28
635.925	16.31
636.117	16.32
636.308	16.24
636.499	16.26
636.69	16.36
636.881	16.43
637.073	16.35
637.264	16.28
637.455	16.3
637.646	16.32
637.837	16.27
638.028	16.2
638.219	16.14
638.41	16.18
638.601	16.17
638.792	16.09
638.983	16
639.174	16.02
639.365	15.92
639.556	15.92
639.747	15.86
639.938	15.87
640.129	15.87
640.32	15.86
640.511	15.77
640.701	15.76
640.892	15.68
641.083	15.63
641.274	15.56
641.465	15.48
641.655	15.47
641.846	15.45
642.037	15.47
642.228	15.49
642.418	15.4
642.609	15.37
642.8	15.39
642.99	15.39
643.181	15.38
643.372	15.3
643.562	15.28
643.753	15.35
643.943	15.32
644.134	15.31
644.324	15.28
644.515	15.22
644.705	15.2
644.896	15.16
645.086	15.08
645.277	15.09
645.467	15.07
645.658	15.02
645.848	15.01
646.038	15.01
646.229	14.96
646.419	15
646.61	14.92
646.8	14.84
646.99	14.8
647.18	14.76
647.371	14.75
647.561	14.74
647.751	14.62
647.941	14.65
648.132	14.65
648.322	14.67
648.512	14.7
648.702	14.65
648.892	14.68
649.082	14.75
649.272	14.7
649.462	14.7
649.653	14.67
649.843	14.59
650.033	14.57
650.223	14.56
650.413	14.54
650.603	14.54
650.793	14.49
650.983	14.49
651.172	14.5
651.362	14.44
651.552	14.38
651.742	14.29
651.932	14.25
652.122	14.2
652.312	14.06
652.502	13.97
652.691	13.92
652.881	13.85
653.071	13.79
653.261	13.66
653.45	13.6
653.64	13.62
653.83	13.53
654.019	13.4
654.209	13.28
654.399	13.19
654.588	13.14
654.778	13.03
654.968	12.88
655.157	12.77
655.347	12.64
655.536	12.51
655.726	12.45
655.915	12.31
656.105	12.17
656.294	12.03
656.484	11.96
656.673	11.88
656.863	11.74
657.052	11.51
657.241	11.37
657.431	11.23
657.62	11
657.809	10.83
657.999	10.72
658.188	10.57
658.377	10.46
658.567	10.29
658.756	10.15
658.945	10.06
659.134	9.84
659.324	9.65
659.513	9.47
659.702	9.29
659.891	9.07
660.08	8.92
660.269	8.83
660.458	8.71
660.648	8.55
660.837	8.44
661.026	8.28
661.215	8.2
661.404	8.06
661.593	7.88
661.782	7.75
661.971	7.6
662.16	7.41
662.349	7.28
662.538	7.19
662.726	6.99
662.915	6.88
663.104	6.71
663.293	6.61
663.482	6.5
663.671	6.46
663.86	6.38
664.048	6.3
664.237	6.23
664.426	6.16
664.615	6.05
664.803	5.97
664.992	5.88
665.181	5.75
665.369	5.69
665.558	5.56
665.747	5.56
665.935	5.49
666.124	5.43
666.312	5.33
666.501	5.3
666.69	5.23
666.878	5.13
667.067	5.04
667.255	4.96
667.444	5
667.632	4.95
667.82	4.87
668.009	4.85
668.197	4.86
668.386	4.8
668.574	4.82
668.762	4.71
668.951	4.65
669.139	4.67
669.327	4.61
669.516	4.59
669.704	4.58
669.892	4.58
670.08	4.6
670.269	4.65
670.457	4.63
670.645	4.68
670.833	4.69
671.021	4.67
671.21	4.7
671.398	4.69
671.586	4.68
671.774	4.67
671.962	4.69
672.15	4.68
672.338	4.7
672.526	4.73
672.714	4.73
672.902	4.75
673.09	4.82
673.278	4.81
673.466	4.86
673.654	4.92
673.842	4.92
674.03	5.01
674.218	5.09
674.405	5.08
674.593	5.13
674.781	5.16
674.969	5.18
675.157	5.2
675.344	5.22
675.532	5.25
675.72	5.24
675.908	5.3
676.095	5.4
676.283	5.42
676.471	5.49
676.658	5.54
676.846	5.58
677.033	5.7
677.221	5.78
677.409	5.8
677.596	5.94
677.784	5.97
677.971	6.04
678.159	6.12
678.346	6.22
678.534	6.24
678.721	6.28
678.909	6.28
679.096	6.31
679.283	6.4
679.471	6.49
679.658	6.53
679.846	6.68
680.033	6.86
680.22	7
680.408	7.13
680.595	7.21
680.782	7.24
680.969	7.31
681.157	7.38
681.344	7.42
681.531	7.53
681.718	7.68
681.905	7.83
682.093	8.04
682.28	8.17
682.467	8.31
682.654	8.41
682.841	8.55
683.028	8.74
683.215	8.86
683.402	8.9
683.589	9.13
683.776	9.3
683.963	9.48
684.15	9.65
684.337	9.78
684.524	9.96
684.711	10.32
684.898	10.58
685.085	10.84
685.271	11.22
685.458	11.58
685.645	11.85
685.832	12.25
686.019	12.51
686.205	12.68
686.392	12.98
686.579	13.18
686.766	13.46
686.952	13.88
687.139	14.19
687.326	14.53
687.512	15
687.699	15.42
687.886	15.82
688.072	16.17
688.259	16.56
688.445	16.95
688.632	17.48
688.818	17.91
689.005	18.42
689.191	18.89
689.378	19.3
689.564	19.81
689.751	20.41
689.937	20.86
690.124	21.36
690.31	21.81
690.496	22.41
690.683	23.04
690.869	23.53
691.055	24.19
691.242	24.69
691.428	25.35
691.614	25.94
691.8	26.53
691.987	27.2
692.173	27.89
692.359	28.38
692.545	29.1
692.731	29.79
692.918	30.49
693.104	31.17
693.29	31.87
693.476	32.37
693.662	33.04
693.848	33.57
694.034	34.1
694.22	34.71
694.406	35.32
694.592	35.82
694.778	36.54
694.964	37.02
695.15	37.79
695.336	38.43
695.522	39.12
695.708	39.75
695.894	40.45
696.08	41.04
696.265	41.72
696.451	42.34
696.637	42.92
696.823	43.54
697.009	44.09
697.194	44.67
697.38	45.19
697.566	45.74
697.751	46.27
697.937	46.93
698.123	47.3
698.308	47.81
698.494	48.25
698.68	48.86
698.865	49.38
699.051	49.82
699.236	50.17
699.422	50.67
699.607	51.11
699.793	51.62
699.978	51.95
700.164	52.42
700.349	52.91
700.535	53.37
700.72	53.91
700.906	54.34
701.091	54.66
701.276	55.02
701.462	55.36
701.647	55.67
701.832	56.06
702.018	56.2
702.203	56.65
702.388	57.05
702.573	57.64
702.759	58.01
702.944	58.46
703.129	58.76
703.314	59.36
703.499	59.62
703.684	60.21
703.87	60.44
704.055	60.71
704.24	61
704.425	61.29
704.61	61.3
704.795	61.58
704.98	61.65
705.165	61.9
705.35	62.25
705.535	62.49
705.72	62.72
705.905	63.06
706.09	63.36
706.275	63.48
706.459	64.01
706.644	64.25
706.829	64.46
707.014	64.66
707.199	64.96
707.384	65.2
707.568	65.55
707.753	65.45
707.938	65.65
708.123	65.88
708.307	66.29
708.492	66.51
708.677	66.56
708.861	66.79
709.046	66.88
709.231	67.09
709.415	67.25
709.6	67.23
709.784	67.36
709.969	67.68
710.153	67.94
710.338	68.16
710.522	68.1
710.707	68.07
710.891	68.24
711.076	68.22
711.26	68.45
711.445	68.37
711.629	68.88
711.813	69.19
711.998	69.42
712.182	69.7
712.366	70.03
712.551	70.04
712.735	70.23
712.919	70.13
713.103	70.14
713.288	70.46
713.472	70.48
713.656	70.17
713.84	70.29
714.024	70.61
714.208	70.54
714.393	70.89
714.577	70.83
714.761	71.03
714.945	71.6
715.129	71.58
715.313	71.61
715.497	71.83
715.681	71.96
715.865	71.99
716.049	71.86
716.233	72.06
716.417	72.33
716.601	72.37
716.785	72.42
716.968	72.33
717.152	72.51
717.336	72.73
717.52	72.62
717.704	72.78
717.888	72.97
718.071	73.04
718.255	73.25
718.439	73.22
718.622	73.41
718.806	73.31
718.99	73.58
719.174	73.44
719.357	73.63
719.541	73.72
719.724	73.91
719.908	73.97
720.092	74.4
720.275	74.3
720.459	74.32
720.642	74.19
720.826	74.25
721.009	74.38
721.193	74.3
721.376	74.01
721.559	74
721.743	73.93
721.926	73.88
722.11	74.04
722.293	73.77
722.476	73.82
722.66	73.94
722.843	74.18
723.026	74.53
723.21	74.71
723.393	74.55
723.576	74.75
723.759	74.88
723.942	75.11
724.126	74.95
724.309	75.15
724.492	75.42
724.675	75.52
724.858	75.98
725.041	75.89
725.224	76.11
725.407	76.15
725.59	75.83
725.774	75.93
725.957	76.18
726.14	75.88
726.322	76
726.505	76.4
726.688	76.71
726.871	76.92
727.054	76.82
727.237	76.7
727.42	77.08
727.603	77.45
727.786	77.21
727.968	77.17
728.151	77.35
728.334	77.39
728.517	77.37
728.699	77.64
728.882	77.8
729.065	77.66
729.248	77.69
729.43	77.55
729.613	77.59
729.796	77.94
729.978	77.9
730.161	78.16
730.343	78.36
730.526	78.38
730.708	78.56
730.891	78.86
731.073	78.91
731.256	78.93
731.438	78.92
731.621	79.3
731.803	79.51
731.986	79.81
732.168	79.64
732.35	79.84
732.533	79.76
732.715	79.59
732.898	79.63
733.08	79.81
733.262	79.89
733.444	80.47
733.627	80.35
733.809	80.53
733.991	81.08
734.173	80.51
734.355	80.61
734.538	80.19
734.72	79.84
734.902	79.82
735.084	79.69
735.266	78.97
735.448	79.57
735.63	79.26
735.812	79.91
735.994	79.83
736.176	79.84
736.358	80.21
736.54	80.66
736.722	80.55
736.904	80.72
737.086	80.53
737.268	80.77
737.45	80.91
737.632	80.42
737.814	80.13
737.995	80.36
738.177	80.6
738.359	80.64
738.541	80.48
738.723	80.62
738.904	80.91
739.086	81.04
739.268	80.9
739.449	81.18
739.631	81.47
739.813	81.55
739.994	81.39
740.176	81.42
740.358	81.41
740.539	81.48
740.721	81.48
740.902	81.06
741.084	81.41
741.265	81.56
741.447	81.57
741.628	81.64
741.81	81.66
741.991	81.27
742.172	80.94
742.354	81.28
742.535	81.79
742.717	81.64
742.898	82.19
743.079	81.97
743.261	82.44
743.442	83.04
743.623	82.91
743.804	82.34
743.986	82.29
744.167	81.71
744.348	81.89
744.529	81.34
744.71	80.94
744.891	80.9
745.073	80.91
745.254	81.18
745.435	80.73
745.616	80.88
745.797	80.75
745.978	81.39
746.159	80.99
746.34	81.5
746.521	81.77
746.702	81.94
746.883	81.85
747.064	81.63
747.245	82.47
747.426	83.08
747.606	82.54
747.787	82.14
747.968	83.29
748.149	83.17
748.33	83.82
748.51	82.4
748.691	82.08
748.872	82.02
749.053	82
749.233	80.86
749.414	80.88
749.595	80.75
749.775	82
749.956	81.74
750.137	81.73
750.317	81.73
750.498	82.29
750.678	82.52
750.859	82.72
751.04	81.69
751.22	81.49
751.4	82.23
751.581	82.49
751.761	82.43
751.942	82.1
752.122	81.44
752.303	81.8
752.483	82.79
752.663	82.72
752.844	81.84
753.024	82.11
753.204	82.06
753.385	82.78
753.565	81.7
753.745	81.3
753.925	80.49
754.106	81.65
754.286	81.33
754.466	80.91
754.646	80.54
754.826	81.63
755.006	81.01
755.187	81.73
755.367	80.69
755.547	81.03
755.727	81.75
755.907	82.03
756.087	82.27
756.267	83.3
756.447	83.02
756.627	83.64
756.807	83.55
756.987	83.9
757.167	83.59
757.346	82.86
757.526	82.41
757.706	82.37
757.886	82.52
758.066	82.41
758.246	82.43
758.425	82.64
758.605	82.29
758.785	82.11
758.965	81.37
759.144	81.82
759.324	81.92
759.504	81.42
759.683	80.79
759.863	81.22
760.043	80.46
760.222	80.28
760.402	80.06
760.581	79.77
760.761	79.35
760.94	79.34
761.12	79.17
761.299	79.54
761.479	80.37
761.658	79.15
761.838	79.16
762.017	79.98
762.197	80.41
762.376	80.21
762.555	80.74
762.735	80.35
762.914	80.76
763.093	81.25
763.273	80.49
763.452	80.1
763.631	79.58
763.81	79.42
763.99	79.79
764.169	80.61
764.348	80.55
764.527	80.58
764.706	81.59
764.885	82.56
765.064	82.65
765.243	82.38
765.423	82.44
765.602	80.97
765.781	81.14
765.96	80.68
766.139	79.64
766.318	79.14
766.497	80.02
766.676	80.6
766.854	80.69
767.033	79.72
767.212	79.14
767.391	79.8
767.57	79.77
767.749	78.56
767.928	77.45
768.106	78.98
768.285	79.81
768.464	80.29
768.643	80.79
768.821	81.57
769	81.62
769.179	81.42
769.357	80.65
769.536	81.19
769.715	80.9
769.893	80.95
770.072	80.12
770.25	80.18
770.429	80.9
770.607	81.06
770.786	81.26
770.964	80.76
771.143	79.61
771.321	79.65
771.5	80.17
771.678	79.42
771.857	78.42
772.035	78.47
772.213	79.1
772.392	79.83
772.57	80.23
772.748	79.14
772.927	79.34
773.105	80.36
773.283	79.09
773.461	79.02
773.64	79.05
773.818	77.96
773.996	78
774.174	78
774.352	77.77
774.531	77.36
774.709	77.29
774.887	76.47
775.065	76.94
775.243	78.38
775.421	77.89
775.599	77.43
775.777	78.39
775.955	77.51
776.133	77.46
776.311	77.62
776.489	76.43
776.667	76.92
776.844	76.67
777.022	76.78
777.2	77.7
777.378	78.32
777.556	79.41
777.734	79.04
777.911	79.38
778.089	79.06
778.267	78.86
778.445	78.38
778.622	76.64
778.8	75.22
778.978	74.02
779.155	72.66
779.333	72.25
779.511	72.89
779.688	72.67
779.866	73.8
780.043	74.18
780.221	77.05
780.398	78.27
780.576	78.14
780.753	76.48
780.931	77.05
781.108	77.32
781.286	77.43
781.463	77
781.64	75.58
781.818	75.92
781.995	77.09
782.172	75.43
782.35	74.94
782.527	74.96
782.704	73.52
782.882	75.41
783.059	74.72
783.236	74.34
783.413	74.96
783.59	74.4
783.768	72.94
783.945	74.07
784.122	73.15
784.299	73.39
784.476	72.34
784.653	73.04
784.83	72.41
785.007	72.56
785.184	72.6
785.361	71.63
785.538	73.51
785.715	73.54
785.892	72.11
786.069	73.04
786.246	71.65
786.423	73.02
786.6	73.68
786.776	71.49
786.953	70.71
787.13	72.35
787.307	72.88
787.484	74.3
787.66	71.03
787.837	71.85
788.014	73.39
788.191	74.18
788.367	73.54
788.544	74.3
788.721	75.52
788.897	76.59
789.074	75.72
789.25	75.14
789.427	74.22
789.603	76.01
789.78	77
789.956	75.95
790.133	75.72
790.309	74.3
790.486	76.29
790.662	77.47
790.839	76.23
791.015	75.7
791.192	77.07
791.368	78.64
791.544	79.37
791.721	76.62
791.897	78.04
792.073	76.95
792.249	76.74
792.426	76.2
792.602	74.69
792.778	74.38
792.954	74.97
793.13	75.29
793.307	72.97
793.483	71.47
793.659	72.35
793.835	69.73
794.011	70.1
794.187	68.96
794.363	67.37
794.539	69.45
794.715	67.77
794.891	63.87
795.067	67.08
795.243	67.45
795.419	70.29
795.595	68.79
795.771	69.19
795.947	69.01
796.122	70.73
796.298	67.71
796.474	67.69
796.65	65.66
796.826	69.2
797.001	69.71
797.177	70.84
797.353	72.19
797.529	77.03
797.704	75.1
797.88	77.11
798.056	75.96
798.231	74.36
798.407	72.27
798.582	71.33
798.758	67.85
798.934	69.14
799.109	66.5
799.285	67.07
799.46	67.03
799.636	70.08
799.811	71.09
799.986	71.78
800.162	69.78
800.337	71.04
800.513	67.93
800.688	71.51
800.863	73.01
801.039	69.46
801.214	68.7
801.389	71.16
801.565	72.48
801.74	73.82
801.915	71.47
802.09	68.45
802.265	68.65
802.441	70.33
802.616	72.52
802.791	69.19
802.966	67.27
803.141	65.17
803.316	66.15
803.491	67.12
803.666	66.68
803.841	68.58
804.016	69.45
804.191	70.5
804.366	67.15
804.541	67.08
804.716	67.25
804.891	68.88
805.066	62.25
805.241	60.75
805.416	60.5
805.591	62.99
805.765	62.77
805.94	63.41
806.115	59.33
806.29	62.68
806.464	61.31
806.639	60.86
806.814	62.82
806.989	57.95
807.163	55.75
807.338	57.79
807.512	53.84
807.687	55.15
807.862	58.44
808.036	58.67
808.211	66.12
808.385	65.39
808.56	68.88
808.734	70.51
808.909	71.44
809.083	65.79
809.258	68.44
809.432	64.18
809.606	68.54
809.781	65.41
809.955	67.49
810.13	70.23
810.304	71.71
810.478	71.24
810.652	75.56
810.827	76.74
811.001	74.2
811.175	70.88
811.349	66.7
811.524	65.56
811.698	63.12
811.872	64.03
812.046	59.75
812.22	59.68
812.394	60.45
812.568	66.68
812.742	67.94
812.916	69.06
813.09	65.27
813.264	65.07
813.438	72.84
813.612	77.75
813.786	75.18
813.96	74.41
814.134	74.36
814.308	70.87
814.482	73.37
814.656	70.6
814.83	64.64
815.003	65.92
815.177	69.36
815.351	70.31
815.525	71.71
815.698	67.13
815.872	62.55
816.046	64
816.219	61.2
816.393	56.47
816.567	53.07
816.74	52.69
816.914	59.34
817.088	56.97
817.261	56.41
817.435	53.83
817.608	55.77
817.782	54.58
817.955	57.99
818.129	58.26
818.302	68.08
818.475	69.07
818.649	68.64
818.822	70.85
818.996	67.15
819.169	69.09
819.342	63.26
819.516	60.7
819.689	60.2
819.862	61.48
820.035	59.64
820.209	63.32
820.382	55.55
820.555	54.51
820.728	45.55
820.901	47.2
821.075	48.58
821.248	44.66
821.421	41.82
821.594	46.59
821.767	47.47
821.94	52.94
822.113	56.11
822.286	53.91
822.459	63.73
822.632	70.79
822.805	70.29
822.978	68.61
823.151	67.82
823.324	62.76
823.496	55.74
823.669	50.26
823.842	51.44
824.015	52.15
824.188	54.65
824.361	58.36
824.533	59.41
824.706	78.23
824.879	81.51
825.051	74.16
825.224	69.22
825.397	68.97
825.569	65.86
825.742	64.26
825.915	55.03
826.087	50.23
826.26	49.43
826.432	44.58
826.605	39.2
826.777	43.31
826.95	41.28
827.122	45.42
827.295	45.91
827.467	47.66
827.64	51.26
827.812	53.74
827.984	53.78
828.157	56.15
828.329	61.1
828.501	62.93
828.674	57.81
828.846	55.96
829.018	53.55
829.19	44.96
829.363	43.09
829.535	37.1
829.707	35.55
829.879	38.67
830.051	33.28
830.223	26.31
830.395	25.46
830.568	31.62
830.74	36.6
830.912	33.39
831.084	35.48
831.256	44.74
831.428	54.14
831.6	57.54
831.772	53
831.943	53.49
832.115	60.24
832.287	57.9
832.459	41.39
832.631	39.61
832.803	45.24
832.975	47.89
833.146	48.46
833.318	39.67
833.49	43.62
833.662	53.87
833.833	57.09
834.005	52.5
834.177	51.08
834.348	43.16
834.52	47.72
834.692	54.72
834.863	50.65
835.035	45.15
835.206	46.07
835.378	43.54
835.549	43.36
835.721	37.52
835.892	26.14
836.064	30.19
836.235	40.45
836.407	38.72
836.578	36.87
836.749	38.47
836.921	37.92
837.092	49.08
837.264	45.84
837.435	29.53
837.606	23.96
837.777	23.13
837.949	20.86
838.12	20.41
838.291	23.25
838.462	24.67
838.633	32.06
838.805	37.37
838.976	38.29
839.147	37.99
839.318	30.87
839.489	26.57
839.66	33.53
839.831	28.01
840.002	24.65
840.173	26.72
840.344	40.77
840.515	53.84
840.686	63.74
840.857	55.33
841.028	63.75
841.199	70.29
841.369	63.35
841.54	47.26
841.711	48.07
841.882	35.69
842.053	24.58
842.223	9.95
842.394	13.74
842.565	32.37
842.736	34.84
842.906	31.51
843.077	35.83
843.248	50.29
843.418	52.96
843.589	57.55
843.759	38.06
843.93	43.67
844.101	34.36
844.271	25.35
844.442	9.06
844.612	-5.13
844.783	-19.9
844.953	-5.99
845.123	-10.04
845.294	-8.96
845.464	5.85
845.635	16.64
845.805	34.09
845.975	42.8
846.146	42.6
846.316	62.25
846.486	55.48
846.656	65.5
846.827	65.56
846.997	65.33
847.167	63.44
847.337	63.56
847.507	56.35
847.677	72.03
847.848	64.25
848.018	53.59
848.188	52.91
848.358	68.07
848.528	54.45
848.698	51.53
848.868	19.62
849.038	19.01
849.208	30
849.378	24.87
849.548	11.33
849.718	10.18
849.887	7.54
850.057	18.14
850.227	28.35
850.397	24.04
850.567	23.15
850.737	21.45
850.906	39.19
851.076	39.45
851.246	41.83
851.415	44.3
851.585	44.94
851.755	48.54
851.924	56.18
852.094	46.4
852.264	43.77
852.433	52.49
852.603	42.57
852.772	47.2
852.942	43.83
853.111	39.32
853.281	44.13
853.45	47.28
853.62	33.99
853.789	36.94
853.959	37.59
854.128	26.7
854.297	22.53
854.467	13.96
854.636	14.65
854.805	22.84
854.975	28.39
855.144	21.1
855.313	18.9
855.482	24.13
855.652	30.65
855.821	39.48
855.99	45.01
856.159	24.23
856.328	36.21
856.497	33.21
856.667	30.8
856.836	28.02
857.005	18.07
857.174	16.97
857.343	22.89
857.512	18.61
857.681	20.88
857.85	21.51
858.019	21.08
858.188	23.59
858.356	13.54
858.525	14.58
858.694	23.27
858.863	36.73
859.032	41.65
859.201	34.61
859.369	35.73
859.538	39.26
859.707	44.16
859.876	50.52
860.044	48.59
860.213	24.34
860.382	36.86
860.55	44.84
860.719	48.01
860.888	35.23
861.056	25.48
861.225	36.86
861.393	52.79
861.562	53.84
861.73	36.26
861.899	17.95
862.067	33.1
862.236	33.43
862.404	23.24
862.572	6.31
862.741	-1.25
862.909	-8.23
863.078	-3.43
863.246	-10.72
863.414	-14.53
863.582	-16.93
863.751	11.91
863.919	31.39
864.087	41.06
864.255	43.46
864.424	44.85
864.592	47.43
864.76	56.55
864.928	67.72
865.096	49.22
865.264	50.28
865.432	58.15
865.6	44.79
865.768	30.23
865.936	5.3
866.104	-27.07
866.272	-18.08
866.44	-42.27
866.608	-40.52
866.776	-9.96
866.944	-8.69
867.112	-10.27
867.28	-31.04
867.448	-16.81
867.615	-0.92
867.783	-18.35
867.951	-15.9
868.119	-13.37
868.286	14.35
868.454	12.15
868.622	-0.79
868.789	11.21
868.957	23.2
869.125	18
869.292	34.04
869.46	28.83
869.627	43.61
869.795	47.35
869.963	29.31
870.13	27.74
870.298	17.47
870.465	-20.74
870.632	-41.14
870.8	-29.41
870.967	-18.25
871.135	8.52
871.302	5.74
871.469	-1.08
871.637	-2.83
871.804	2.64
871.971	-1.51
872.139	1.43
872.306	-17.58
872.473	-34.87
872.64	-24.55
872.807	-28.1
872.975	-0.14
873.142	-19.32
873.309	-30.03
873.476	-62.38
873.643	1.32
873.81	10.76
873.977	36.39
874.144	-4.53
874.311	37
874.478	-13.02
874.645	-9.11
874.812	-12.91
874.979	-46.15
875.146	-135.1
875.313	-187.82
875.48	-134.45
875.647	-148.28
875.813	-98.6
875.98	-59.6
876.147	9.83
876.314	41.84
876.481	19.54
876.647	24.1
876.814	32.01
876.981	19.12
877.147	14.08
877.314	14.53
877.481	13.7
877.647	35.13
877.814	8.56
877.98	-9.9
878.147	1.04
878.314	-2.76
878.48	-0.84
878.647	22.5
878.813	4.46
878.979	12.78
879.146	11.94
879.312	14.46
879.479	15.69
879.645	-2.47
879.811	-29.73
879.978	-36.95
880.144	-46.6
880.31	-58.84
880.477	-65.04
880.643	-259.74
880.809	-93.44
880.975	-100.36
881.142	-54.92
881.308	-76
881.474	-35.76
881.64	-52.31
881.806	7
881.972	-4.99
882.138	39.1
882.304	6.51
882.47	10.43
882.636	-64.42
882.802	-78.82
882.968	-135.6
883.134	-296.86
883.3	-185.05
883.466	-87.58
883.632	-65.46
883.798	-45.59
883.964	-52.46
884.129	-42.13
884.295	-30.08
884.461	-75.02
884.627	-114.74
884.793	-62.71
884.958	-41.12
885.124	-90.18
885.29	-53.26
885.455	-54.18
885.621	-41.28
885.787	-38.28
885.952	-56.53
886.118	-70.19
886.283	-31.52
886.449	-75.57
886.614	-71.84
886.78	-18.27
886.945	-47.89
887.111	-58.09
887.276	-46.45
887.442	-45.35
887.607	-55.38
887.773	-36.18
887.938	-76.33
888.103	-3.64
888.269	7.12
888.434	-0.9
888.599	16.78
888.764	25.65
888.93	28.24
889.095	25.97
889.26	18.1
889.425	7.65
889.59	14.66
889.756	21.3
889.921	10.73
890.086	-2.3
890.251	4.62
890.416	-29.85
890.581	-33.97
890.746	-70.48
890.911	-145.12
891.076	-156.51
891.241	-199.6
891.406	-104.57
891.571	-89.62
891.736	-59.54
891.901	11.51
892.065	34.69
892.23	24.84
892.395	14.74
892.56	-4.65
892.725	2.8
892.889	-6.6
893.054	-68.12
893.219	-95.96
893.384	-125.75
893.548	-264.17
893.713	90.35
893.878	72.28
