Data from Ofra_2a_PS_2H517_Reflection_2.txt Node
Date: Tue Jul 20 09:45:36 EDT 2021
User: Adam
Spectrometer: FLMT01687
Trigger mode: 0
Integration Time (sec): 9.450000E-1
Scans to average: 3
Electric dark correction enabled: true
Nonlinearity correction enabled: false
Boxcar width: 3
XAxis mode: Wavelengths
Number of Pixels in Spectrum: 3648
>>>>>Begin Spectral Data<<<<<
179.494	1125.44
179.716	669.19
179.937	691.21
180.158	2294.53
180.38	-1355.23
180.601	-254.83
180.823	-35.75
181.044	12.55
181.265	-23.68
181.486	90.07
181.708	-71.74
181.929	161.16
182.15	207.95
182.372	52.53
182.593	-42.64
182.814	189.52
183.035	-48.97
183.257	-13.4
183.478	-3.44
183.699	31.18
183.92	47.07
184.141	35.48
184.363	54.42
184.584	48.94
184.805	57.58
185.026	83.19
185.247	53.52
185.468	38.86
185.689	33.23
185.91	10.61
186.132	17.4
186.353	-12.56
186.574	-5.15
186.795	-15.54
187.016	-10.86
187.237	-7.33
187.458	-18.63
187.679	-41.58
187.9	-18.1
188.121	-32.04
188.342	5.81
188.563	-2.48
188.784	1.22
189.005	28.5
189.226	35.54
189.447	20.2
189.667	25.99
189.888	34.12
190.109	32.07
190.33	23.78
190.551	-2.42
190.772	-6.69
190.993	19.48
191.214	12.8
191.434	1
191.655	13.53
191.876	17.82
192.097	22.25
192.318	24.7
192.538	15.96
192.759	22.24
192.98	10.02
193.201	19.17
193.421	16.61
193.642	18.46
193.863	13.35
194.083	2.57
194.304	10.85
194.525	35.4
194.745	1.69
194.966	9.84
195.187	19.33
195.407	12.4
195.628	17.9
195.848	3.88
196.069	-5.46
196.29	11.56
196.51	8.19
196.731	12
196.951	24.08
197.172	25.56
197.392	36.7
197.613	20.08
197.833	12.68
198.054	8.83
198.274	-12.16
198.495	-9.82
198.715	-22.14
198.936	-29.4
199.156	-1.08
199.377	3.45
199.597	-3.13
199.817	3.46
200.038	13.04
200.258	35.91
200.479	39.83
200.699	41.86
200.919	30.29
201.14	41.71
201.36	48.82
201.58	28.57
201.801	18.53
202.021	15.78
202.241	9.25
202.461	14.04
202.682	16.61
202.902	14.36
203.122	20.4
203.342	40.83
203.563	37.5
203.783	44.08
204.003	46.24
204.223	49.85
204.443	53.15
204.663	50.37
204.884	29.98
205.104	23.99
205.324	30.85
205.544	33.91
205.764	15.4
205.984	4.58
206.204	3.07
206.424	10.26
206.644	11.13
206.864	5.09
207.084	30.04
207.304	28.36
207.525	28.69
207.745	25.99
207.964	25.27
208.184	25.75
208.404	16.39
208.624	-32.53
208.844	-49.29
209.064	-34.88
209.284	-22.73
209.504	-31
209.724	-54.92
209.944	-52.66
210.164	-30.31
210.384	-6.56
210.604	-15.81
210.823	-25.01
211.043	-19.75
211.263	-5.07
211.483	-7.44
211.703	-3.51
211.922	5.18
212.142	18.2
212.362	26.86
212.582	21.18
212.801	20.39
213.021	27.05
213.241	14.13
213.461	7.74
213.68	2.38
213.9	3.91
214.12	10.08
214.339	15.29
214.559	21.8
214.779	38.05
214.998	25.86
215.218	34.88
215.438	46.11
215.657	49.87
215.877	46.94
216.096	40.7
216.316	33.64
216.535	48.25
216.755	36.36
216.974	16.73
217.194	8.19
217.413	33.06
217.633	30.63
217.852	28.28
218.072	10.66
218.291	27.17
218.511	24.55
218.73	21.69
218.95	6.67
219.169	1.5
219.389	4.17
219.608	7.22
219.827	-11.06
220.047	0.98
220.266	7.04
220.485	3.03
220.705	-0.05
220.924	1.03
221.143	14.05
221.363	20.54
221.582	10.71
221.801	15.94
222.021	18.63
222.24	26.92
222.459	16.13
222.678	-1.66
222.897	-1.82
223.117	-2.77
223.336	7.14
223.555	0.19
223.774	19.41
223.993	34.43
224.213	34.96
224.432	42.78
224.651	50.77
224.87	51.45
225.089	65.56
225.308	56.26
225.527	54.94
225.746	56.27
225.965	47.1
226.184	35.18
226.404	16.58
226.623	3.21
226.842	-5.71
227.061	4.13
227.28	13.43
227.499	17.76
227.718	19.74
227.936	21.91
228.155	25.88
228.374	24.95
228.593	22.09
228.812	11.13
229.031	-0.05
229.25	11.14
229.469	7.67
229.688	5.26
229.907	14.61
230.125	16.01
230.344	29.22
230.563	39.46
230.782	29.68
231.001	37.24
231.22	39.62
231.438	26.96
231.657	23.49
231.876	19.57
232.095	16.58
232.313	17.79
232.532	25.53
232.751	28.84
232.969	39.37
233.188	32
233.407	32.82
233.625	25.74
233.844	36.97
234.063	26.8
234.281	12.53
234.5	10.25
234.719	15.16
234.937	17.27
235.156	18.53
235.374	9.77
235.593	-1.68
235.811	2.83
236.03	-15.79
236.249	-15.99
236.467	0.95
236.686	4.57
236.904	-8.85
237.123	4.51
237.341	7.5
237.559	18.79
237.778	21.38
237.996	13.39
238.215	5.36
238.433	20.58
238.652	10.71
238.87	9.67
239.088	-1.43
239.307	2.32
239.525	-12.65
239.743	-14.58
239.962	-24.42
240.18	-0.68
240.398	2.84
240.617	11.65
240.835	7.21
241.053	13.56
241.271	20.63
241.49	21.32
241.708	9.79
241.926	-7.79
242.144	-9.94
242.363	-9.62
242.581	-0.71
242.799	-5.69
243.017	-1.98
243.235	-15.17
243.453	-1.91
243.672	2.17
243.89	8.12
244.108	13.38
244.326	15.31
244.544	19.03
244.762	24.53
244.98	21.77
245.198	12.92
245.416	12.45
245.634	16.99
245.852	13.69
246.07	12
246.288	9.91
246.506	11.05
246.724	27.84
246.942	25.75
247.16	18.77
247.378	13.83
247.596	15.69
247.814	9.2
248.032	2.87
248.25	-13.53
248.468	-3.71
248.685	-6.73
248.903	-7.33
249.121	-11.66
249.339	-4.41
249.557	4.43
249.775	0.65
249.992	-9.38
250.21	-11.18
250.428	-0.13
250.646	5.93
250.863	2.25
251.081	2.67
251.299	4.69
251.517	20.22
251.734	17.55
251.952	10.37
252.17	-15.12
252.387	-2.42
252.605	4.3
252.823	-0.44
253.04	-15.61
253.258	-13.42
253.475	-1.26
253.693	18.18
253.911	16.15
254.128	7.03
254.346	12.65
254.563	12.42
254.781	9.81
254.998	5.8
255.216	-0.83
255.433	1.83
255.651	1.55
255.868	-0.8
256.086	0.78
256.303	6.61
256.521	-10.64
256.738	-7.95
256.956	-8.96
257.173	1.56
257.39	8.49
257.608	9.01
257.825	5.9
258.043	21.8
258.26	12.43
258.477	18.85
258.695	10.14
258.912	9
259.129	7.01
259.346	9.14
259.564	5.22
259.781	25.82
259.998	13.17
260.216	19.85
260.433	23.95
260.65	23.22
260.867	11.04
261.084	10.45
261.302	6.74
261.519	-4.05
261.736	-3.98
261.953	-15.45
262.17	-6.63
262.387	-5.75
262.604	-22.14
262.822	-20.08
263.039	-14.15
263.256	-11.79
263.473	-14.47
263.69	-8.68
263.907	-2.75
264.124	4.51
264.341	-1.48
264.558	11.51
264.775	15.22
264.992	24.15
265.209	21.84
265.426	25.01
265.643	28.15
265.86	32.13
266.077	24.36
266.294	21.56
266.51	19.97
266.727	15
266.944	4.97
267.161	-14.27
267.378	-21.81
267.595	-26.63
267.812	-35.38
268.028	-29.82
268.245	-25.64
268.462	-13.52
268.679	1.92
268.896	3.9
269.112	23.13
269.329	31.88
269.546	27.65
269.763	34.48
269.979	32.32
270.196	38.52
270.413	37
270.629	33.07
270.846	32.02
271.063	42.45
271.279	30.18
271.496	20.74
271.712	12.31
271.929	13.31
272.146	11.06
272.362	-7.15
272.579	-21.99
272.795	-20.23
273.012	-11.75
273.228	-15.61
273.445	-11.08
273.661	-22.58
273.878	-3.27
274.094	5.25
274.311	14.64
274.527	16.98
274.744	16.87
274.96	9.19
275.177	30.4
275.393	37.13
275.609	29.56
275.826	21.08
276.042	27.73
276.259	33.92
276.475	27.72
276.691	18.02
276.908	11.24
277.124	5.33
277.34	6.71
277.557	0.96
277.773	-11.02
277.989	-9
278.205	-17.19
278.422	-18.19
278.638	1.64
278.854	5.99
279.07	-6.15
279.286	0.55
279.503	2.36
279.719	20.39
279.935	12.44
280.151	17.34
280.367	10.75
280.583	27.16
280.799	30.67
281.016	33.05
281.232	28.78
281.448	33.89
281.664	14.61
281.88	23.63
282.096	16.09
282.312	4.27
282.528	-5.13
282.744	-8.66
282.96	6.14
283.176	17.05
283.392	15.61
283.608	25.67
283.824	28.07
284.04	28.41
284.256	28.9
284.471	23.2
284.687	22.11
284.903	22.52
285.119	7.37
285.335	19.79
285.551	24.83
285.767	20.79
285.982	11.52
286.198	10.48
286.414	13.58
286.63	23.29
286.846	13.92
287.061	18.31
287.277	24.36
287.493	27.05
287.709	23.25
287.924	23.08
288.14	19.19
288.356	14.56
288.571	6.59
288.787	16.15
289.003	22.51
289.218	20.28
289.434	9.74
289.65	11.21
289.865	22.6
290.081	23.52
290.296	14.72
290.512	18.51
290.727	22.44
290.943	28.54
291.159	26.5
291.374	21.87
291.59	16.87
291.805	12.7
292.021	2.17
292.236	4.68
292.451	2.6
292.667	5.18
292.882	4.6
293.098	2.25
293.313	3.3
293.529	5.92
293.744	0.3
293.959	6.43
294.175	6.25
294.39	10.16
294.605	17.82
294.821	13.14
295.036	15.31
295.251	10.84
295.467	-3.99
295.682	2.38
295.897	1.7
296.112	1.65
296.328	5.38
296.543	-1.39
296.758	9.48
296.973	18.88
297.188	11.3
297.404	20.21
297.619	12.66
297.834	16.12
298.049	17.47
298.264	18.59
298.479	4.58
298.694	10.9
298.909	0.12
299.125	11.21
299.34	9.56
299.555	12.45
299.77	4.85
299.985	8.37
300.2	5.61
300.415	4.28
300.63	-3.63
300.845	2.37
301.06	-2.07
301.275	1.47
301.49	10.4
301.704	10.91
301.919	5.9
302.134	-0.24
302.349	-8.3
302.564	-7.5
302.779	-9.55
302.994	-22.31
303.209	-19.91
303.423	1.44
303.638	17.7
303.853	23.77
304.068	22.02
304.283	18.38
304.497	19.54
304.712	19.73
304.927	11
305.142	8.21
305.356	4.72
305.571	7.34
305.786	10.2
306	13.24
306.215	3.37
306.43	14.55
306.644	13.73
306.859	14.16
307.074	8.67
307.288	6.44
307.503	9.53
307.717	13.54
307.932	10.9
308.147	12.92
308.361	15.24
308.576	18.31
308.79	13.57
309.005	21.8
309.219	26.52
309.434	23.63
309.648	18.02
309.863	20.3
310.077	10.82
310.292	19.67
310.506	22.74
310.72	22.62
310.935	14.99
311.149	16.38
311.364	16.48
311.578	26.06
311.792	19.45
312.007	4.42
312.221	9.43
312.435	20.05
312.649	31.29
312.864	24.61
313.078	33.01
313.292	36.56
313.507	44.6
313.721	43.71
313.935	48.86
314.149	37.25
314.363	40.34
314.578	46.26
314.792	50.41
315.006	54.63
315.22	58.47
315.434	45
315.648	44.24
315.862	37.36
316.077	26.1
316.291	23.12
316.505	16.82
316.719	-10.49
316.933	-6.98
317.147	-3.49
317.361	2
317.575	2.07
317.789	7.79
318.003	5.83
318.217	19.13
318.431	22.44
318.645	22.54
318.859	16.68
319.073	14.23
319.287	11.8
319.5	10.59
319.714	9.22
319.928	14.87
320.142	20.44
320.356	27.32
320.57	25.86
320.784	31.52
320.997	42.49
321.211	47.07
321.425	29.42
321.639	29.35
321.853	25.46
322.066	24.72
322.28	23.06
322.494	19.24
322.707	15.38
322.921	27.05
323.135	26.68
323.349	28.04
323.562	36.29
323.776	35.3
323.989	27.84
324.203	28.43
324.417	18.52
324.63	10.52
324.844	-5.36
325.057	-10.14
325.271	-11.62
325.485	-4.49
325.698	-11.11
325.912	6.33
326.125	8
326.339	22.9
326.552	27.46
326.766	28.76
326.979	24.65
327.193	30.22
327.406	25.7
327.619	6.37
327.833	0.52
328.046	-8.97
328.26	-19.92
328.473	-24.47
328.686	-19.78
328.9	-26.13
329.113	-3.36
329.326	9.15
329.54	18.2
329.753	15.54
329.966	21.97
330.179	19.75
330.393	21.46
330.606	22.07
330.819	24.4
331.032	18.76
331.246	29.68
331.459	28.68
331.672	28.5
331.885	27.98
332.098	28.77
332.311	-0.75
332.525	6.71
332.738	2.88
332.951	9.13
333.164	6.13
333.377	-13.91
333.59	-8.89
333.803	12.34
334.016	5.85
334.229	-1.26
334.442	8
334.655	11.61
334.868	30.53
335.081	29.1
335.294	20.05
335.507	36.01
335.72	34.18
335.933	27.49
336.146	28.44
336.359	27.07
336.572	24.76
336.785	31.78
336.997	8.26
337.21	18.92
337.423	16.35
337.636	21.28
337.849	18.7
338.062	13.63
338.274	5.13
338.487	15.58
338.7	8.73
338.913	6.09
339.125	-0.62
339.338	2.86
339.551	2.31
339.763	5.97
339.976	10.03
340.189	10.66
340.402	6.25
340.614	11.57
340.827	-0.77
341.039	4.05
341.252	2.86
341.465	-6.65
341.677	-14.15
341.89	-4.67
342.102	-3.74
342.315	11.93
342.527	-0.04
342.74	-0.04
342.952	2.62
343.165	11.3
343.377	12.5
343.59	13.99
343.802	16.29
344.015	26.9
344.227	23.33
344.44	26.63
344.652	28.33
344.864	25.23
345.077	16.1
345.289	14.7
345.502	10.14
345.714	12.85
345.926	11.31
346.139	10.49
346.351	-5.08
346.563	5.58
346.775	-5.03
346.988	3.27
347.2	7.73
347.412	4.76
347.624	5.43
347.837	6.24
348.049	5.5
348.261	2.72
348.473	-6.06
348.685	-5.76
348.897	-1.81
349.11	-2.26
349.322	9.49
349.534	0.89
349.746	13.39
349.958	20.09
350.17	14.37
350.382	5.06
350.594	4.91
350.806	7.64
351.018	20.39
351.23	20.3
351.442	12.74
351.654	17.99
351.866	26.62
352.078	21.63
352.29	21.76
352.502	20.64
352.714	26.91
352.926	31.54
353.138	30.46
353.35	21.19
353.561	20.31
353.773	12.13
353.985	11.45
354.197	-2.44
354.409	-3.8
354.621	-5.36
354.832	-6.85
355.044	4.24
355.256	5.24
355.468	-0.94
355.679	2.79
355.891	6.31
356.103	6.65
356.314	16
356.526	2.77
356.738	0.85
356.949	-4.16
357.161	1.49
357.373	-1.55
357.584	10.13
357.796	10.74
358.008	20.15
358.219	27.38
358.431	32.16
358.642	23.68
358.854	23.27
359.065	14.53
359.277	1.82
359.488	-1.61
359.7	-4.62
359.911	-5.2
360.123	4.71
360.334	4.48
360.546	-7.65
360.757	6.84
360.969	11.25
361.18	10.35
361.391	14.89
361.603	16.49
361.814	22.12
362.025	30.41
362.237	27.09
362.448	22.92
362.659	15.02
362.871	14.8
363.082	12.46
363.293	16.05
363.504	20.89
363.716	15.91
363.927	13.78
364.138	26.13
364.349	26.51
364.56	23.46
364.772	11.75
364.983	7.21
365.194	12.34
365.405	16.75
365.616	1.29
365.827	-5.22
366.038	2.27
366.25	14.54
366.461	14.78
366.672	19.38
366.883	19.45
367.094	26.15
367.305	28.8
367.516	22.49
367.727	18.89
367.938	13.65
368.149	8.81
368.36	6.26
368.571	9.14
368.781	7.42
368.992	7.94
369.203	10.62
369.414	9.13
369.625	3.84
369.836	3.28
370.047	-3.29
370.258	-8.55
370.468	-8.35
370.679	-7.91
370.89	2.02
371.101	4.1
371.312	3.19
371.522	5.43
371.733	2.91
371.944	7.03
372.155	-4.83
372.365	-11.92
372.576	-13.65
372.787	-17.59
372.997	-16.06
373.208	-12.12
373.419	-10.08
373.629	5.96
373.84	1.91
374.05	1.25
374.261	4.88
374.472	4.83
374.682	2.74
374.893	-7.23
375.103	-15.98
375.314	-9.54
375.524	-1.05
375.735	1.34
375.945	4.25
376.156	14.76
376.366	19.14
376.577	22.25
376.787	23.04
376.997	22.71
377.208	17.32
377.418	16.81
377.629	12.57
377.839	13.42
378.049	15.25
378.26	21.24
378.47	21.8
378.68	24.03
378.89	21.82
379.101	16.11
379.311	12.07
379.521	13.69
379.732	0.59
379.942	-0.44
380.152	6.44
380.362	8.02
380.572	15.86
380.783	17.47
380.993	12.05
381.203	17.41
381.413	16.65
381.623	11.89
381.833	9.83
382.043	1.94
382.253	3.31
382.463	4.61
382.674	3.96
382.884	-0.53
383.094	0.85
383.304	-0.86
383.514	6.77
383.724	4.61
383.934	3.65
384.144	8.21
384.353	9.64
384.563	7.88
384.773	10.95
384.983	8.74
385.193	9.8
385.403	14.94
385.613	6
385.823	4.82
386.033	6.08
386.242	1.73
386.452	0.63
386.662	-1.15
386.872	-5.87
387.082	-0.7
387.291	0.96
387.501	1.53
387.711	3.23
387.921	4.94
388.13	5.61
388.34	3.68
388.55	5.74
388.759	5.16
388.969	2.95
389.179	3.79
389.388	1.59
389.598	0.84
389.807	1.75
390.017	-0.35
390.227	0.01
390.436	0.63
390.646	1.33
390.855	1.47
391.065	1.97
391.274	0.93
391.484	3.07
391.693	3.1
391.903	2.18
392.112	1.47
392.322	2.6
392.531	2.8
392.74	4.01
392.95	3.09
393.159	3.47
393.369	3.95
393.578	3.98
393.787	3.27
393.997	4.18
394.206	3.86
394.415	3.6
394.625	2.55
394.834	1.67
395.043	2.09
395.252	2.95
395.462	2.49
395.671	3.26
395.88	3.69
396.089	4.46
396.298	5.19
396.508	4.36
396.717	3.85
396.926	3.77
397.135	3.15
397.344	2.92
397.553	2.99
397.762	3.05
397.971	3.41
398.181	3.17
398.39	3.03
398.599	3.12
398.808	3.33
399.017	3.5
399.226	3.84
399.435	3.64
399.644	3.86
399.853	3.82
400.062	3.83
400.27	3.79
400.479	3.58
400.688	3.34
400.897	3.61
401.106	3.63
401.315	3.53
401.524	3.6
401.733	3.61
401.941	3.53
402.15	3.12
402.359	3.06
402.568	3.02
402.777	3.18
402.985	3.2
403.194	3.13
403.403	2.89
403.612	3.16
403.82	3.17
404.029	3.16
404.238	3.31
404.446	3.24
404.655	3.09
404.864	3.21
405.072	3.14
405.281	3.04
405.489	3.03
405.698	2.84
405.906	2.85
406.115	2.96
406.324	2.95
406.532	3.09
406.741	3.11
406.949	3.04
407.158	3.07
407.366	3.05
407.574	3.02
407.783	2.98
407.991	2.82
408.2	2.75
408.408	2.82
408.617	2.77
408.825	2.79
409.033	2.78
409.242	2.77
409.45	2.84
409.658	2.89
409.867	2.88
410.075	2.84
410.283	2.74
410.491	2.71
410.7	2.78
410.908	2.76
411.116	2.71
411.324	2.73
411.533	2.63
411.741	2.64
411.949	2.72
412.157	2.75
412.365	2.75
412.573	2.75
412.781	2.74
412.99	2.89
413.198	2.97
413.406	2.87
413.614	2.82
413.822	2.76
414.03	2.74
414.238	2.75
414.446	2.71
414.654	2.68
414.862	2.66
415.07	2.69
415.278	2.68
415.486	2.73
415.694	2.63
415.902	2.56
416.109	2.55
416.317	2.49
416.525	2.51
416.733	2.56
416.941	2.48
417.149	2.65
417.357	2.73
417.564	2.79
417.772	2.89
417.98	2.72
418.188	2.64
418.395	2.64
418.603	2.43
418.811	2.32
419.019	2.22
419.226	2.22
419.434	2.21
419.642	2.31
419.849	2.34
420.057	2.44
420.265	2.51
420.472	2.43
420.68	2.38
420.887	2.42
421.095	2.43
421.302	2.47
421.51	2.49
421.717	2.47
421.925	2.49
422.132	2.43
422.34	2.47
422.547	2.37
422.755	2.3
422.962	2.19
423.17	2.14
423.377	2.29
423.585	2.38
423.792	2.35
423.999	2.35
424.207	2.28
424.414	2.38
424.621	2.54
424.829	2.35
425.036	2.25
425.243	2.37
425.451	2.4
425.658	2.49
425.865	2.32
426.072	2.25
426.28	2.3
426.487	2.37
426.694	2.29
426.901	2.24
427.108	2.26
427.315	2.37
427.523	2.3
427.73	2.38
427.937	2.34
428.144	2.27
428.351	2.35
428.558	2.26
428.765	2.15
428.972	2.1
429.179	2.01
429.386	2.04
429.593	2
429.8	1.94
430.007	2.06
430.214	2.15
430.421	2.22
430.628	2.15
430.835	2.09
431.042	2.2
431.249	2.16
431.456	2.13
431.662	2.16
431.869	2.2
432.076	2.29
432.283	2.22
432.49	2.16
432.697	2.2
432.903	2.22
433.11	2.25
433.317	2.25
433.524	2.21
433.73	2.34
433.937	2.38
434.144	2.45
434.35	2.36
434.557	2.23
434.764	2.18
434.97	2.2
435.177	2.18
435.384	2.24
435.59	2.17
435.797	2.25
436.003	2.32
436.21	2.31
436.416	2.32
436.623	2.38
436.829	2.32
437.036	2.35
437.242	2.33
437.449	2.38
437.655	2.44
437.862	2.43
438.068	2.39
438.275	2.41
438.481	2.47
438.687	2.54
438.894	2.5
439.1	2.46
439.307	2.54
439.513	2.52
439.719	2.5
439.926	2.48
440.132	2.45
440.338	2.51
440.544	2.57
440.751	2.56
440.957	2.52
441.163	2.54
441.369	2.5
441.575	2.48
441.782	2.42
441.988	2.36
442.194	2.38
442.4	2.43
442.606	2.47
442.812	2.51
443.018	2.59
443.224	2.61
443.431	2.64
443.637	2.59
443.843	2.6
444.049	2.54
444.255	2.47
444.461	2.44
444.667	2.45
444.873	2.46
445.079	2.47
445.284	2.46
445.49	2.42
445.696	2.46
445.902	2.45
446.108	2.43
446.314	2.45
446.52	2.5
446.726	2.58
446.931	2.67
447.137	2.69
447.343	2.69
447.549	2.68
447.755	2.68
447.96	2.64
448.166	2.63
448.372	2.62
448.578	2.64
448.783	2.65
448.989	2.68
449.195	2.67
449.4	2.66
449.606	2.56
449.812	2.59
450.017	2.57
450.223	2.55
450.428	2.61
450.634	2.68
450.84	2.66
451.045	2.71
451.251	2.73
451.456	2.7
451.662	2.65
451.867	2.58
452.073	2.51
452.278	2.53
452.483	2.53
452.689	2.5
452.894	2.49
453.1	2.49
453.305	2.51
453.51	2.51
453.716	2.51
453.921	2.51
454.127	2.51
454.332	2.54
454.537	2.63
454.742	2.6
454.948	2.58
455.153	2.56
455.358	2.64
455.563	2.65
455.769	2.66
455.974	2.58
456.179	2.58
456.384	2.56
456.589	2.64
456.795	2.5
457	2.5
457.205	2.45
457.41	2.5
457.615	2.57
457.82	2.63
458.025	2.59
458.23	2.69
458.435	2.64
458.64	2.73
458.845	2.67
459.05	2.63
459.255	2.61
459.46	2.62
459.665	2.66
459.87	2.69
460.075	2.67
460.28	2.71
460.485	2.78
460.69	2.76
460.895	2.77
461.099	2.74
461.304	2.74
461.509	2.67
461.714	2.67
461.919	2.6
462.123	2.68
462.328	2.66
462.533	2.66
462.738	2.69
462.942	2.77
463.147	2.8
463.352	2.82
463.556	2.82
463.761	2.82
463.966	2.84
464.17	2.86
464.375	2.81
464.58	2.77
464.784	2.78
464.989	2.74
465.193	2.73
465.398	2.78
465.602	2.75
465.807	2.78
466.011	2.89
466.216	2.89
466.42	2.97
466.625	2.97
466.829	2.96
467.034	2.97
467.238	3.02
467.443	3
467.647	3.03
467.851	3.01
468.056	3.03
468.26	2.98
468.464	3.01
468.669	3
468.873	2.95
469.077	2.98
469.282	2.99
469.486	3.03
469.69	3.08
469.894	3.13
470.099	3.14
470.303	3.16
470.507	3.14
470.711	3.11
470.915	3.14
471.119	3.14
471.324	3.09
471.528	3.12
471.732	3.16
471.936	3.2
472.14	3.23
472.344	3.21
472.548	3.25
472.752	3.29
472.956	3.34
473.16	3.34
473.364	3.31
473.568	3.35
473.772	3.43
473.976	3.42
474.18	3.39
474.384	3.34
474.588	3.36
474.792	3.4
474.995	3.36
475.199	3.34
475.403	3.35
475.607	3.36
475.811	3.4
476.015	3.45
476.218	3.46
476.422	3.5
476.626	3.47
476.83	3.51
477.033	3.53
477.237	3.52
477.441	3.51
477.644	3.51
477.848	3.5
478.052	3.52
478.255	3.51
478.459	3.58
478.663	3.6
478.866	3.58
479.07	3.61
479.273	3.6
479.477	3.59
479.681	3.62
479.884	3.55
480.088	3.55
480.291	3.57
480.495	3.57
480.698	3.6
480.901	3.64
481.105	3.65
481.308	3.65
481.512	3.68
481.715	3.69
481.919	3.69
482.122	3.72
482.325	3.71
482.529	3.75
482.732	3.78
482.935	3.8
483.138	3.81
483.342	3.84
483.545	3.79
483.748	3.81
483.952	3.78
484.155	3.8
484.358	3.79
484.561	3.82
484.764	3.81
484.967	3.85
485.171	3.87
485.374	3.89
485.577	3.9
485.78	3.91
485.983	3.9
486.186	3.9
486.389	3.91
486.592	3.92
486.795	3.94
486.998	3.96
487.201	3.98
487.404	3.97
487.607	3.94
487.81	3.96
488.013	3.93
488.216	3.92
488.419	3.89
488.622	3.83
488.825	3.84
489.028	3.86
489.231	3.82
489.433	3.84
489.636	3.81
489.839	3.86
490.042	3.9
490.245	3.94
490.447	3.93
490.65	3.96
490.853	3.96
491.056	3.98
491.258	3.96
491.461	3.92
491.664	3.86
491.866	3.92
492.069	3.9
492.272	3.9
492.474	3.88
492.677	3.87
492.879	3.91
493.082	3.97
493.285	3.96
493.487	3.96
493.69	3.97
493.892	4.03
494.095	4
494.297	4.04
494.5	4.03
494.702	4.05
494.905	4.06
495.107	4.1
495.309	4.04
495.512	4.08
495.714	4.05
495.917	4.09
496.119	4.1
496.321	4.14
496.524	4.11
496.726	4.14
496.928	4.2
497.13	4.22
497.333	4.19
497.535	4.19
497.737	4.19
497.939	4.22
498.142	4.24
498.344	4.2
498.546	4.22
498.748	4.21
498.95	4.2
499.152	4.18
499.355	4.2
499.557	4.24
499.759	4.27
499.961	4.3
500.163	4.37
500.365	4.39
500.567	4.42
500.769	4.42
500.971	4.44
501.173	4.47
501.375	4.45
501.577	4.45
501.779	4.46
501.981	4.5
502.183	4.49
502.385	4.49
502.587	4.47
502.788	4.48
502.99	4.47
503.192	4.51
503.394	4.53
503.596	4.57
503.798	4.64
503.999	4.62
504.201	4.67
504.403	4.72
504.605	4.78
504.806	4.8
505.008	4.77
505.21	4.76
505.411	4.84
505.613	4.85
505.815	4.87
506.016	4.86
506.218	4.86
506.42	4.92
506.621	4.95
506.823	4.98
507.024	5
507.226	5.03
507.427	5.02
507.629	5.06
507.83	5.05
508.032	5.11
508.233	5.13
508.435	5.17
508.636	5.16
508.838	5.24
509.039	5.25
509.24	5.3
509.442	5.25
509.643	5.23
509.845	5.22
510.046	5.25
510.247	5.24
510.448	5.28
510.65	5.3
510.851	5.36
511.052	5.39
511.254	5.43
511.455	5.42
511.656	5.42
511.857	5.43
512.058	5.49
512.26	5.5
512.461	5.55
512.662	5.55
512.863	5.53
513.064	5.55
513.265	5.56
513.466	5.59
513.667	5.58
513.868	5.56
514.069	5.59
514.27	5.65
514.471	5.7
514.672	5.72
514.873	5.72
515.074	5.74
515.275	5.73
515.476	5.77
515.677	5.79
515.878	5.82
516.079	5.86
516.28	5.83
516.481	5.86
516.682	5.92
516.882	5.88
517.083	5.88
517.284	5.87
517.485	5.87
517.686	5.88
517.886	5.86
518.087	5.87
518.288	5.89
518.488	5.94
518.689	5.93
518.89	5.97
519.091	5.99
519.291	6.03
519.492	6.02
519.692	6.04
519.893	6.02
520.094	6.05
520.294	6.04
520.495	6.06
520.695	6.08
520.896	6.09
521.096	6.11
521.297	6.14
521.497	6.18
521.698	6.2
521.898	6.2
522.099	6.21
522.299	6.21
522.499	6.22
522.7	6.23
522.9	6.22
523.101	6.25
523.301	6.27
523.501	6.3
523.702	6.35
523.902	6.36
524.102	6.38
524.302	6.38
524.503	6.37
524.703	6.41
524.903	6.39
525.103	6.4
525.304	6.39
525.504	6.38
525.704	6.39
525.904	6.4
526.104	6.38
526.304	6.4
526.504	6.39
526.705	6.46
526.905	6.51
527.105	6.54
527.305	6.56
527.505	6.59
527.705	6.61
527.905	6.62
528.105	6.59
528.305	6.57
528.505	6.59
528.705	6.6
528.905	6.59
529.105	6.61
529.304	6.63
529.504	6.65
529.704	6.69
529.904	6.72
530.104	6.72
530.304	6.78
530.503	6.79
530.703	6.82
530.903	6.85
531.103	6.87
531.303	6.9
531.502	6.88
531.702	6.88
531.902	6.89
532.101	6.92
532.301	6.9
532.501	6.94
532.7	6.92
532.9	6.97
533.1	6.98
533.299	7.02
533.499	7.03
533.698	7.07
533.898	7.07
534.097	7.13
534.297	7.16
534.496	7.19
534.696	7.19
534.895	7.23
535.095	7.27
535.294	7.29
535.494	7.3
535.693	7.34
535.892	7.36
536.092	7.4
536.291	7.39
536.491	7.4
536.69	7.42
536.889	7.43
537.088	7.42
537.288	7.47
537.487	7.5
537.686	7.55
537.886	7.55
538.085	7.61
538.284	7.65
538.483	7.72
538.682	7.72
538.882	7.73
539.081	7.74
539.28	7.78
539.479	7.78
539.678	7.8
539.877	7.81
540.076	7.82
540.275	7.86
540.474	7.88
540.673	7.95
540.872	7.99
541.071	8.02
541.27	8.03
541.469	8.09
541.668	8.15
541.867	8.2
542.066	8.24
542.265	8.27
542.464	8.34
542.663	8.43
542.862	8.46
543.06	8.5
543.259	8.54
543.458	8.57
543.657	8.62
543.856	8.63
544.054	8.64
544.253	8.68
544.452	8.67
544.651	8.69
544.849	8.72
545.048	8.75
545.247	8.78
545.445	8.81
545.644	8.85
545.843	8.9
546.041	8.96
546.24	9.06
546.438	9.1
546.637	9.17
546.836	9.24
547.034	9.3
547.233	9.39
547.431	9.41
547.63	9.45
547.828	9.5
548.027	9.5
548.225	9.56
548.423	9.62
548.622	9.64
548.82	9.72
549.019	9.77
549.217	9.85
549.415	9.95
549.614	10
549.812	10.03
550.01	10.1
550.209	10.16
550.407	10.23
550.605	10.3
550.803	10.34
551.002	10.41
551.2	10.56
551.398	10.62
551.596	10.66
551.794	10.73
551.993	10.74
552.191	10.87
552.389	10.95
552.587	10.97
552.785	11.07
552.983	11.18
553.181	11.21
553.379	11.32
553.577	11.4
553.775	11.46
553.973	11.52
554.171	11.59
554.369	11.67
554.567	11.77
554.765	11.81
554.963	11.86
555.161	11.94
555.359	12.01
555.557	12.12
555.755	12.2
555.952	12.31
556.15	12.42
556.348	12.53
556.546	12.63
556.744	12.75
556.941	12.8
557.139	12.92
557.337	13.02
557.535	13.1
557.732	13.16
557.93	13.26
558.128	13.31
558.325	13.42
558.523	13.47
558.721	13.58
558.918	13.68
559.116	13.76
559.313	13.9
559.511	14.03
559.708	14.11
559.906	14.2
560.104	14.27
560.301	14.36
560.498	14.45
560.696	14.48
560.893	14.57
561.091	14.69
561.288	14.8
561.486	14.91
561.683	15.05
561.88	15.18
562.078	15.25
562.275	15.36
562.473	15.45
562.67	15.52
562.867	15.59
563.064	15.69
563.262	15.81
563.459	15.95
563.656	16.06
563.853	16.15
564.051	16.25
564.248	16.39
564.445	16.44
564.642	16.51
564.839	16.59
565.036	16.72
565.234	16.82
565.431	16.9
565.628	16.94
565.825	17.06
566.022	17.11
566.219	17.18
566.416	17.26
566.613	17.32
566.81	17.41
567.007	17.56
567.204	17.63
567.401	17.81
567.598	17.89
567.795	17.93
567.991	18.04
568.188	18.09
568.385	18.15
568.582	18.24
568.779	18.29
568.976	18.38
569.172	18.49
569.369	18.57
569.566	18.61
569.763	18.69
569.96	18.7
570.156	18.73
570.353	18.79
570.55	18.82
570.746	18.82
570.943	18.97
571.14	19.01
571.336	19.05
571.533	19.12
571.729	19.14
571.926	19.23
572.123	19.28
572.319	19.27
572.516	19.31
572.712	19.31
572.909	19.35
573.105	19.46
573.302	19.44
573.498	19.56
573.695	19.64
573.891	19.69
574.087	19.77
574.284	19.8
574.48	19.76
574.677	19.79
574.873	19.78
575.069	19.8
575.266	19.79
575.462	19.82
575.658	19.86
575.854	19.89
576.051	19.92
576.247	19.9
576.443	19.91
576.639	19.92
576.835	19.93
577.032	19.91
577.228	19.9
577.424	19.95
577.62	19.96
577.816	19.98
578.012	19.98
578.208	20
578.404	20.03
578.6	20.05
578.796	20.02
578.993	20
579.189	19.99
579.384	19.98
579.58	19.94
579.776	19.92
579.972	19.91
580.168	19.85
580.364	19.85
580.56	19.81
580.756	19.81
580.952	19.83
581.148	19.81
581.343	19.81
581.539	19.83
581.735	19.83
581.931	19.84
582.127	19.8
582.322	19.72
582.518	19.68
582.714	19.65
582.909	19.58
583.105	19.54
583.301	19.47
583.496	19.42
583.692	19.45
583.888	19.42
584.083	19.4
584.279	19.44
584.474	19.36
584.67	19.37
584.866	19.39
585.061	19.35
585.257	19.38
585.452	19.37
585.648	19.35
585.843	19.37
586.039	19.34
586.234	19.28
586.429	19.31
586.625	19.27
586.82	19.24
587.015	19.2
587.211	19.22
587.406	19.26
587.601	19.3
587.797	19.24
587.992	19.22
588.187	19.25
588.383	19.26
588.578	19.25
588.773	19.24
588.968	19.31
589.163	19.38
589.359	19.4
589.554	19.41
589.749	19.43
589.944	19.49
590.139	19.49
590.334	19.45
590.529	19.48
590.724	19.53
590.919	19.55
591.114	19.56
591.309	19.52
591.504	19.55
591.699	19.57
591.894	19.52
592.089	19.55
592.284	19.53
592.479	19.55
592.674	19.65
592.869	19.74
593.064	19.81
593.259	19.88
593.454	19.86
593.648	19.94
593.843	20.02
594.038	20.02
594.233	20.07
594.428	20.14
594.622	20.23
594.817	20.3
595.012	20.37
595.206	20.43
595.401	20.46
595.596	20.5
595.79	20.54
595.985	20.6
596.18	20.69
596.374	20.78
596.569	20.89
596.763	21.01
596.958	21.1
597.153	21.14
597.347	21.21
597.542	21.31
597.736	21.37
597.931	21.45
598.125	21.5
598.319	21.53
598.514	21.62
598.708	21.68
598.903	21.7
599.097	21.74
599.291	21.77
599.486	21.81
599.68	21.87
599.874	21.98
600.069	22.02
600.263	22.05
600.457	22.08
600.651	22.12
600.846	22.14
601.04	22.17
601.234	22.19
601.428	22.21
601.622	22.28
601.817	22.4
602.011	22.47
602.205	22.5
602.399	22.49
602.593	22.45
602.787	22.51
602.981	22.5
603.175	22.38
603.369	22.34
603.563	22.37
603.757	22.38
603.951	22.42
604.145	22.41
604.339	22.41
604.533	22.45
604.727	22.4
604.921	22.35
605.115	22.31
605.309	22.29
605.502	22.25
605.696	22.17
605.89	22.18
606.084	22.13
606.278	22.13
606.471	22.09
606.665	22.01
606.859	21.93
607.053	21.88
607.246	21.81
607.44	21.79
607.634	21.73
607.827	21.61
608.021	21.51
608.214	21.48
608.408	21.39
608.602	21.3
608.795	21.21
608.989	21.15
609.182	21.13
609.376	21.11
609.569	20.99
609.763	21
609.956	20.94
610.15	20.84
610.343	20.79
610.537	20.73
610.73	20.7
610.923	20.67
611.117	20.5
611.31	20.4
611.504	20.36
611.697	20.26
611.89	20.15
612.083	20.02
612.277	19.94
612.47	19.92
612.663	19.87
612.856	19.79
613.05	19.7
613.243	19.66
613.436	19.6
613.629	19.54
613.822	19.45
614.015	19.39
614.209	19.34
614.402	19.24
614.595	19.14
614.788	19.07
614.981	19.01
615.174	18.95
615.367	18.83
615.56	18.74
615.753	18.69
615.946	18.66
616.139	18.62
616.332	18.55
616.525	18.5
616.718	18.44
616.911	18.36
617.103	18.29
617.296	18.18
617.489	18.15
617.682	18.11
617.875	18.04
618.067	17.98
618.26	17.95
618.453	17.92
618.646	17.91
618.838	17.81
619.031	17.75
619.224	17.73
619.417	17.77
619.609	17.7
619.802	17.68
619.994	17.65
620.187	17.66
620.38	17.64
620.572	17.63
620.765	17.57
620.957	17.51
621.15	17.48
621.342	17.47
621.535	17.41
621.727	17.33
621.92	17.3
622.112	17.25
622.305	17.25
622.497	17.18
622.69	17.13
622.882	17.12
623.074	17.12
623.267	17.01
623.459	17
623.651	17
623.844	17
624.036	16.99
624.228	16.93
624.42	16.92
624.613	16.95
624.805	16.94
624.997	16.89
625.189	16.9
625.381	16.83
625.574	16.8
625.766	16.76
625.958	16.72
626.15	16.71
626.342	16.68
626.534	16.62
626.726	16.62
626.918	16.58
627.11	16.52
627.302	16.48
627.494	16.41
627.686	16.38
627.878	16.38
628.07	16.33
628.262	16.33
628.454	16.28
628.646	16.23
628.838	16.21
629.029	16.15
629.221	16.09
629.413	16.04
629.605	16.01
629.797	16.03
629.989	16.04
630.18	15.99
630.372	15.94
630.564	15.9
630.755	15.89
630.947	15.85
631.139	15.78
631.33	15.72
631.522	15.69
631.714	15.69
631.905	15.68
632.097	15.68
632.289	15.62
632.48	15.58
632.672	15.52
632.863	15.51
633.055	15.49
633.246	15.48
633.438	15.46
633.629	15.48
633.821	15.45
634.012	15.48
634.203	15.48
634.395	15.43
634.586	15.42
634.777	15.35
634.969	15.33
635.16	15.34
635.351	15.35
635.543	15.32
635.734	15.28
635.925	15.27
636.117	15.3
636.308	15.25
636.499	15.26
636.69	15.27
636.881	15.28
637.073	15.34
637.264	15.31
637.455	15.3
637.646	15.3
637.837	15.29
638.028	15.26
638.219	15.23
638.41	15.23
638.601	15.2
638.792	15.13
638.983	15.11
639.174	15.1
639.365	15.01
639.556	14.98
639.747	14.96
639.938	14.97
640.129	15.01
640.32	15
640.511	15
640.701	14.98
640.892	15
641.083	14.91
641.274	14.87
641.465	14.84
641.655	14.87
641.846	14.8
642.037	14.77
642.228	14.73
642.418	14.69
642.609	14.69
642.8	14.67
642.99	14.62
643.181	14.65
643.372	14.66
643.562	14.6
643.753	14.62
643.943	14.53
644.134	14.5
644.324	14.5
644.515	14.45
644.705	14.44
644.896	14.43
645.086	14.42
645.277	14.49
645.467	14.45
645.658	14.37
645.848	14.33
646.038	14.28
646.229	14.21
646.419	14.22
646.61	14.15
646.8	14.16
646.99	14.16
647.18	14.12
647.371	14.11
647.561	14.11
647.751	14.04
647.941	14.01
648.132	14.05
648.322	14.06
648.512	14.12
648.702	14.12
648.892	14.17
649.082	14.16
649.272	14.09
649.462	14.02
649.653	13.96
649.843	13.88
650.033	13.83
650.223	13.78
650.413	13.78
650.603	13.81
650.793	13.7
650.983	13.7
651.172	13.64
651.362	13.58
651.552	13.51
651.742	13.43
651.932	13.39
652.122	13.37
652.312	13.24
652.502	13.21
652.691	13.22
652.881	13.16
653.071	13.03
653.261	12.93
653.45	12.83
653.64	12.83
653.83	12.72
654.019	12.54
654.209	12.46
654.399	12.44
654.588	12.35
654.778	12.28
654.968	12.07
655.157	11.96
655.347	11.88
655.536	11.72
655.726	11.56
655.915	11.38
656.105	11.28
656.294	11.23
656.484	11.12
656.673	11.02
656.863	10.91
657.052	10.76
657.241	10.69
657.431	10.51
657.62	10.32
657.809	10.18
657.999	10.04
658.188	9.88
658.377	9.84
658.567	9.67
658.756	9.54
658.945	9.41
659.134	9.3
659.324	9.15
659.513	8.99
659.702	8.76
659.891	8.6
660.08	8.46
660.269	8.37
660.458	8.24
660.648	8.1
660.837	8.06
661.026	8.04
661.215	7.96
661.404	7.9
661.593	7.79
661.782	7.68
661.971	7.54
662.16	7.38
662.349	7.19
662.538	7.1
662.726	7
662.915	6.86
663.104	6.68
663.293	6.6
663.482	6.49
663.671	6.42
663.86	6.33
664.048	6.23
664.237	6.18
664.426	6.19
664.615	6.1
664.803	6.06
664.992	6.05
665.181	5.96
665.369	5.9
665.558	5.87
665.747	5.88
665.935	5.9
666.124	5.9
666.312	5.83
666.501	5.77
666.69	5.76
666.878	5.69
667.067	5.65
667.255	5.61
667.444	5.58
667.632	5.57
667.82	5.62
668.009	5.63
668.197	5.67
668.386	5.6
668.574	5.52
668.762	5.49
668.951	5.48
669.139	5.47
669.327	5.44
669.516	5.41
669.704	5.42
669.892	5.49
670.08	5.49
670.269	5.46
670.457	5.45
670.645	5.54
670.833	5.53
671.021	5.54
671.21	5.6
671.398	5.63
671.586	5.7
671.774	5.69
671.962	5.68
672.15	5.72
672.338	5.78
672.526	5.78
672.714	5.84
672.902	5.9
673.09	6
673.278	6.04
673.466	6.17
673.654	6.19
673.842	6.23
674.03	6.33
674.218	6.32
674.405	6.4
674.593	6.42
674.781	6.42
674.969	6.51
675.157	6.58
675.344	6.65
675.532	6.8
675.72	6.81
675.908	6.9
676.095	7.01
676.283	7.06
676.471	7.12
676.658	7.17
676.846	7.18
677.033	7.28
677.221	7.39
677.409	7.45
677.596	7.59
677.784	7.67
677.971	7.73
678.159	7.86
678.346	7.91
678.534	7.97
678.721	8.05
678.909	8.1
679.096	8.21
679.283	8.29
679.471	8.4
679.658	8.54
679.846	8.67
680.033	8.77
680.22	8.84
680.408	8.96
680.595	9.01
680.782	9.05
680.969	9.09
681.157	9.13
681.344	9.25
681.531	9.3
681.718	9.36
681.905	9.51
682.093	9.75
682.28	9.96
682.467	10.09
682.654	10.2
682.841	10.44
683.028	10.6
683.215	10.79
683.402	10.76
683.589	10.91
683.776	11.04
683.963	11.14
684.15	11.25
684.337	11.39
684.524	11.58
684.711	11.85
684.898	12.03
685.085	12.27
685.271	12.59
685.458	12.84
685.645	13.11
685.832	13.3
686.019	13.58
686.205	13.78
686.392	14.1
686.579	14.25
686.766	14.57
686.952	14.93
687.139	15.2
687.326	15.59
687.512	16.05
687.699	16.29
687.886	16.66
688.072	17.05
688.259	17.42
688.445	17.81
688.632	18.19
688.818	18.49
689.005	19.12
689.191	19.66
689.378	20.03
689.564	20.49
689.751	21.06
689.937	21.41
690.124	21.91
690.31	22.3
690.496	22.84
690.683	23.43
690.869	23.99
691.055	24.53
691.242	25.15
691.428	25.89
691.614	26.6
691.8	27.14
691.987	27.84
692.173	28.57
692.359	29.34
692.545	30
692.731	30.59
692.918	31.18
693.104	31.86
693.29	32.51
693.476	33
693.662	33.63
693.848	34.3
694.034	34.91
694.22	35.67
694.406	36.41
694.592	37.12
694.778	37.89
694.964	38.45
695.15	39.25
695.336	40.08
695.522	40.75
695.708	41.41
695.894	42.1
696.08	42.77
696.265	43.47
696.451	44.19
696.637	44.76
696.823	45.37
697.009	46.09
697.194	46.76
697.38	47.4
697.566	48.09
697.751	48.67
697.937	49.32
698.123	50.01
698.308	50.49
698.494	50.99
698.68	51.57
698.865	52.19
699.051	52.75
699.236	53.4
699.422	53.95
699.607	54.57
699.793	55.05
699.978	55.7
700.164	56.24
700.349	56.82
700.535	57.33
700.72	57.86
700.906	58.38
701.091	58.94
701.276	59.36
701.462	59.91
701.647	60.3
701.832	60.75
702.018	61.13
702.203	61.52
702.388	61.9
702.573	62.39
702.759	62.61
702.944	63.11
703.129	63.51
703.314	63.89
703.499	64.26
703.684	64.87
703.87	65.29
704.055	65.82
704.24	66.15
704.425	66.53
704.61	66.87
704.795	67.38
704.98	67.5
705.165	67.79
705.35	68.16
705.535	68.62
705.72	68.9
705.905	69.19
706.09	69.26
706.275	69.63
706.459	70.04
706.644	70.39
706.829	70.54
707.014	70.87
707.199	71.13
707.384	71.35
707.568	71.87
707.753	72.07
707.938	72.28
708.123	72.25
708.307	72.69
708.492	72.89
708.677	73.48
708.861	73.51
709.046	73.47
709.231	73.65
709.415	74.09
709.6	74.05
709.784	74.43
709.969	74.62
710.153	74.98
710.338	75.41
710.522	75.41
710.707	75.38
710.891	75.52
711.076	75.54
711.26	75.58
711.445	75.7
711.629	76.07
711.813	76.36
711.998	76.61
712.182	76.96
712.366	77.23
712.551	77.35
712.735	77.42
712.919	77.45
713.103	77.51
713.288	77.83
713.472	77.7
713.656	77.69
713.84	77.77
714.024	78.12
714.208	78.02
714.393	78.22
714.577	78.44
714.761	78.77
714.945	78.96
715.129	79.39
715.313	79.47
715.497	79.82
715.681	80
715.865	80.14
716.049	79.99
716.233	80.47
716.417	80.54
716.601	80.48
716.785	80.46
716.968	80.52
717.152	80.53
717.336	80.75
717.52	80.53
717.704	80.79
717.888	80.87
718.071	81
718.255	81.07
718.439	81.02
718.622	81.28
718.806	81.23
718.99	81.05
719.174	81.07
719.357	81.5
719.541	81.76
719.724	82.03
719.908	82.01
720.092	82.36
720.275	82.56
720.459	82.47
720.642	82.13
720.826	82.01
721.009	81.96
721.193	82.02
721.376	81.96
721.559	81.87
721.743	81.87
721.926	81.84
722.11	81.96
722.293	81.76
722.476	81.69
722.66	81.92
722.843	82.19
723.026	82.49
723.21	82.58
723.393	82.89
723.576	83.13
723.759	83.51
723.942	83.5
724.126	83.17
724.309	83.42
724.492	83.79
724.675	83.71
724.858	83.98
725.041	83.83
725.224	83.92
725.407	83.87
725.59	83.67
725.774	83.46
725.957	83.86
726.14	83.87
726.322	84.03
726.505	84.41
726.688	84.83
726.871	85
727.054	85.06
727.237	84.54
727.42	84.65
727.603	84.66
727.786	84.46
727.968	84.54
728.151	84.81
728.334	85.07
728.517	85.33
728.699	85.45
728.882	86.01
729.065	86.25
729.248	86.19
729.43	85.94
729.613	86.05
729.796	86.05
729.978	86.17
730.161	85.95
730.343	85.65
730.526	85.68
730.708	86.26
730.891	86.51
731.073	86.46
731.256	86.81
731.438	86.93
731.621	87.71
731.803	88.04
731.986	88.01
732.168	87.69
732.35	88.18
732.533	88
732.715	88.29
732.898	87.92
733.08	88.21
733.262	88.04
733.444	88.33
733.627	88.32
733.809	88.24
733.991	88.19
734.173	88.11
734.355	88.25
734.538	88.37
734.72	88.93
734.902	88.57
735.084	88.41
735.266	88.35
735.448	88.55
735.63	88.38
735.812	88.58
735.994	87.93
736.176	88.49
736.358	88.87
736.54	88.92
736.722	88.72
736.904	88.96
737.086	88.51
737.268	89.09
737.45	88.74
737.632	88.65
737.814	88.3
737.995	88.55
738.177	88.82
738.359	89.34
738.541	88.7
738.723	88.98
738.904	88.76
739.086	89.35
739.268	89.74
739.449	89.7
739.631	90.14
739.813	90.47
739.994	90.77
740.176	91
740.358	91.11
740.539	90.57
740.721	89.75
740.902	88.96
741.084	89.15
741.265	88.79
741.447	88.67
741.628	88.36
741.81	88.79
741.991	89.58
742.172	89.91
742.354	90.17
742.535	90.43
742.717	90.39
742.898	90.84
743.079	90.53
743.261	90.32
743.442	90.68
743.623	90.43
743.804	90.3
743.986	90.35
744.167	89.96
744.348	89.96
744.529	89.49
744.71	89.05
744.891	89.19
745.073	89.15
745.254	89.49
745.435	89.3
745.616	89.27
745.797	89.05
745.978	89.18
746.159	88.6
746.34	88.74
746.521	88.67
746.702	88.33
746.883	88.7
747.064	88.76
747.245	89.49
747.426	89.7
747.606	89.35
747.787	89.79
747.968	90.37
748.149	90.35
748.33	91.38
748.51	89.89
748.691	90.35
748.872	90.33
749.053	89.87
749.233	90.07
749.414	89.7
749.595	88.72
749.775	89.07
749.956	87.73
750.137	87.86
750.317	87.57
750.498	87.33
750.678	87.75
750.859	87.94
751.04	88.19
751.22	88.54
751.4	88.36
751.581	88.16
751.761	87.78
751.942	87.43
752.122	87.54
752.303	87.15
752.483	87.62
752.663	88.42
752.844	88.36
753.024	88.48
753.204	88.34
753.385	88.17
753.565	88.31
753.745	87.37
753.925	86.27
754.106	86.62
754.286	86.02
754.466	86.23
754.646	85.98
754.826	86.16
755.006	86.71
755.187	86.99
755.367	86.71
755.547	87.17
755.727	86.64
755.907	87.71
756.087	87.74
756.267	87.59
756.447	87.36
756.627	87.71
756.807	87.82
756.987	88.45
757.167	87.04
757.346	86.69
757.526	86.92
757.706	87.44
757.886	87.27
758.066	87.01
758.246	87.17
758.425	88.96
758.605	89.38
758.785	89.35
758.965	88.44
759.144	89.09
759.324	89.3
759.504	89.08
759.683	87.78
759.863	87.11
760.043	86.95
760.222	86.79
760.402	86.78
760.581	85.6
760.761	84.7
760.94	84.39
761.12	84.64
761.299	84.17
761.479	85.48
761.658	84.83
761.838	86.47
762.017	87.07
762.197	87.86
762.376	87.7
762.555	88.15
762.735	87.07
762.914	87.51
763.093	87.02
763.273	86.34
763.452	85.52
763.631	84.35
763.81	84.76
763.99	84.81
764.169	83.48
764.348	83.23
764.527	83.39
764.706	83.79
764.885	85.49
765.064	85.46
765.243	85.14
765.423	87.04
765.602	86.01
765.781	86.14
765.96	86.01
766.139	84.7
766.318	84.68
766.497	85.53
766.676	84.8
766.854	85.39
767.033	85.48
767.212	84.66
767.391	84.98
767.57	84.9
767.749	84.62
767.928	83.47
768.106	83.96
768.285	84.04
768.464	84.52
768.643	86
768.821	85.63
769	86.36
769.179	86.43
769.357	86.44
769.536	85.71
769.715	85.1
769.893	83.46
770.072	83.08
770.25	81.98
770.429	82.57
770.607	82.26
770.786	82.47
770.964	82.36
771.143	82.44
771.321	81.33
771.5	80.37
771.678	79.99
771.857	79.5
772.035	79.14
772.213	79.09
772.392	80.28
772.57	81.43
772.748	82.12
772.927	81.82
773.105	83.2
773.283	82.96
773.461	83.36
773.64	81.6
773.818	80.62
773.996	80.71
774.174	80.95
774.352	79.55
774.531	79.22
774.709	79.66
774.887	79.84
775.065	80.26
775.243	81.77
775.421	80.91
775.599	81.11
775.777	81.84
775.955	80.93
776.133	80.54
776.311	80.44
776.489	78.49
776.667	79.11
776.844	78.94
777.022	79.05
777.2	79.28
777.378	80.59
777.556	81.32
777.734	82.1
777.911	82.84
778.089	83.05
778.267	83.41
778.445	82.08
778.622	80.64
778.8	80.05
778.978	80.12
779.155	78.1
779.333	76.56
779.511	76.2
779.688	75.88
779.866	75.45
780.043	75.71
780.221	75.21
780.398	75.96
780.576	76.12
780.753	74.9
780.931	77.11
781.108	79.42
781.286	78.55
781.463	79.05
781.64	79
781.818	78.89
781.995	80.62
782.172	79.72
782.35	77.01
782.527	78.9
782.704	77.55
782.882	78.75
783.059	78.85
783.236	78.01
783.413	78.71
783.59	78.8
783.768	78.46
783.945	78.85
784.122	78.86
784.299	80.71
784.476	80.25
784.653	78.95
784.83	79.03
785.007	77.22
785.184	77.86
785.361	76.31
785.538	75.39
785.715	74.63
785.892	73.66
786.069	74.42
786.246	74.87
786.423	74.79
786.6	74.78
786.776	74.36
786.953	75.39
787.13	77.57
787.307	77.7
787.484	79.69
787.66	78.44
787.837	79.84
788.014	80.03
788.191	79.27
788.367	78.7
788.544	80.16
788.721	78.54
788.897	79.15
789.074	78.02
789.25	78.72
789.427	79.32
789.603	79.44
789.78	78.1
789.956	76.47
790.133	76.22
790.309	74.87
790.486	75.13
790.662	76.87
790.839	77.83
791.015	77.94
791.192	80.68
791.368	81.29
791.544	82.74
791.721	79.65
791.897	78.54
792.073	76.53
792.249	76.55
792.426	75.85
792.602	75.58
792.778	74.98
792.954	76.53
793.13	76.52
793.307	77.05
793.483	76.47
793.659	77.57
793.835	77.05
794.011	76.7
794.187	73.96
794.363	72.27
794.539	71.41
794.715	70.03
794.891	66.45
795.067	67.86
795.243	69.41
795.419	73.28
795.595	73.62
795.771	74.34
795.947	73.57
796.122	76.28
796.298	73
796.474	73.14
796.65	73.04
796.826	75.61
797.001	76.1
797.177	77.96
797.353	78.83
797.529	80.78
797.704	78.8
797.88	75.97
798.056	76.4
798.231	73.62
798.407	76
798.582	73.11
798.758	72.27
798.934	70.93
799.109	70.68
799.285	70.68
799.46	72.02
799.636	71.66
799.811	73.22
799.986	75.17
800.162	76.09
800.337	77.37
800.513	73.03
800.688	76.59
800.863	75.91
801.039	73.04
801.214	70.54
801.389	72.81
801.565	76.51
801.74	78.89
801.915	77.68
802.09	76.15
802.265	77.92
802.441	78.23
802.616	77.16
802.791	73.44
802.966	71.63
803.141	68.2
803.316	71.39
803.491	68.69
803.666	69.11
803.841	68.61
804.016	67.4
804.191	69.01
804.366	69.37
804.541	66.71
804.716	65.7
804.891	70.21
805.066	71.1
805.241	68.12
805.416	65.18
805.591	68.56
805.765	66.94
805.94	71.76
806.115	63.77
806.29	62.45
806.464	68.03
806.639	67.51
806.814	64.57
806.989	63.51
807.163	58.79
807.338	64.18
807.512	60.58
807.687	57.73
807.862	60.81
808.036	60.27
808.211	63.92
808.385	63.04
808.56	64.95
808.734	68.6
808.909	68.25
809.083	66.32
809.258	71.26
809.432	66.49
809.606	71.57
809.781	70.15
809.955	72.57
810.13	76
810.304	73.76
810.478	74.88
810.652	80.27
810.827	78.57
811.001	77.15
811.175	70.73
811.349	67.17
811.524	67.53
811.698	63.83
811.872	63.29
812.046	63.27
812.22	62.57
812.394	69.17
812.568	72.61
812.742	75.93
812.916	76.52
813.09	71.88
813.264	71.09
813.438	74.67
813.612	74.83
813.786	78.17
813.96	78.42
814.134	77.6
814.308	75.64
814.482	73.86
814.656	76.86
814.83	75.24
815.003	75.06
815.177	77.09
815.351	79.08
815.525	77.34
815.698	77.55
815.872	74.56
816.046	73.28
816.219	71.26
816.393	59.17
816.567	54.75
816.74	60.83
816.914	64.49
817.088	61.44
817.261	60.78
817.435	54.73
817.608	61.52
817.782	63.89
817.955	60.66
818.129	60.87
818.302	59.78
818.475	60.22
818.649	59.54
818.822	63.43
818.996	60.35
819.169	64.84
819.342	60.89
819.516	58.47
819.689	57.05
819.862	56.28
820.035	50.39
820.209	47.96
820.382	42.54
820.555	41.59
820.728	39.63
820.901	41.92
821.075	47.44
821.248	50.14
821.421	48.79
821.594	54.27
821.767	53.89
821.94	49.01
822.113	54.1
822.286	56.13
822.459	63.84
822.632	65.58
822.805	58.17
822.978	61.58
823.151	75.07
823.324	62.82
823.496	53.18
823.669	44.82
823.842	49.48
824.015	51.8
824.188	49.28
824.361	44.74
824.533	51.39
824.706	58.41
824.879	65.69
825.051	67.22
825.224	66.44
825.397	62.36
825.569	63
825.742	60.69
825.915	57.63
826.087	48.66
826.26	48.29
826.432	55.37
826.605	61.87
826.777	59.97
826.95	53.15
827.122	57.49
827.295	68.07
827.467	55.91
827.64	43.93
827.812	38.62
827.984	42.17
828.157	53.82
828.329	49.76
828.501	47.27
828.674	54.96
828.846	58.28
829.018	57.28
829.19	54.8
829.363	45.7
829.535	49.68
829.707	43.05
829.879	47.76
830.051	45.44
830.223	40.88
830.395	37.71
830.568	48.8
830.74	50.44
830.912	55.36
831.084	50.9
831.256	56.64
831.428	60.89
831.6	60.71
831.772	45
831.943	45.6
832.115	53.58
832.287	51.55
832.459	44.93
832.631	60.1
832.803	68.94
832.975	79.72
833.146	69.39
833.318	51.22
833.49	53.85
833.662	57.66
833.833	45.01
834.005	43.84
834.177	50.39
834.348	53.91
834.52	61.86
834.692	67.08
834.863	62
835.035	64.04
835.206	64.05
835.378	52.14
835.549	56.9
835.721	49.05
835.892	42.59
836.064	47.59
836.235	48.11
836.407	41
836.578	44.66
836.749	40.5
836.921	42.47
837.092	47.23
837.264	42.32
837.435	29.63
837.606	32.84
837.777	26.62
837.949	27.78
838.12	27.86
838.291	29.14
838.462	34.4
838.633	45.97
838.805	51.2
838.976	58.49
839.147	49.82
839.318	49.6
839.489	46.18
839.66	48.44
839.831	42.23
840.002	28.91
840.173	24.01
840.344	33.23
840.515	33.39
840.686	40.1
840.857	33.65
841.028	34.09
841.199	37.51
841.369	32.81
841.54	39.35
841.711	46.85
841.882	35.48
842.053	24.47
842.223	21.08
842.394	30
842.565	48.15
842.736	37.6
842.906	38.47
843.077	45.59
843.248	55.24
843.418	55.28
843.589	65.25
843.759	58.41
843.93	71.35
844.101	60.06
844.271	60.68
844.442	57.58
844.612	51.45
844.783	20.65
844.953	21.97
845.123	23.88
845.294	18.86
845.464	30.54
845.635	20.09
845.805	47.2
845.975	57.44
846.146	41.06
846.316	25.98
846.486	42.47
846.656	43.8
846.827	52.24
846.997	45.29
847.167	49.97
847.337	65.92
847.507	65.57
847.677	71.09
847.848	64.47
848.018	64.07
848.188	51.33
848.358	63.72
848.528	56.15
848.698	36.32
848.868	-4.81
849.038	14.18
849.208	11.59
849.378	2.73
849.548	-8.82
849.718	-10.9
849.887	0.82
850.057	18.92
850.227	14.21
850.397	24.29
850.567	34.77
850.737	23.89
850.906	20.87
851.076	30.73
851.246	40.18
851.415	39.73
851.585	24.35
851.755	22.83
851.924	43.94
852.094	44.1
852.264	30.6
852.433	36.99
852.603	50.53
852.772	55.35
852.942	55.17
853.111	46.25
853.281	48.43
853.45	47
853.62	32.89
853.789	16.94
853.959	20.89
854.128	12.23
854.297	9.05
854.467	-2.27
854.636	-0.59
854.805	11.68
854.975	17.67
855.144	11.64
855.313	19.93
855.482	26.28
855.652	36.64
855.821	51.97
855.99	56.45
856.159	49.67
856.328	55.48
856.497	48.34
856.667	45.47
856.836	42.62
857.005	34.91
857.174	35.75
857.343	26.22
857.512	12.17
857.681	10.65
857.85	11.6
858.019	17.4
858.188	12.3
858.356	-11.3
858.525	8.67
858.694	29.12
858.863	17.46
859.032	18.15
859.201	-2.41
859.369	10.31
859.538	12.65
859.707	19.64
859.876	25.64
860.044	42.11
860.213	29.91
860.382	33.29
860.55	37.34
860.719	49.72
860.888	50.74
861.056	40.52
861.225	53.72
861.393	68.21
861.562	58.39
861.73	61.72
861.899	53.59
862.067	55.44
862.236	53.4
862.404	33.04
862.572	22.05
862.741	27.55
862.909	19.19
863.078	13.95
863.246	7.63
863.414	1.71
863.582	5.91
863.751	16.63
863.919	32.81
864.087	40.34
864.255	48.09
864.424	42.19
864.592	38.62
864.76	49.19
864.928	57.93
865.096	47.53
865.264	45.61
865.432	37.14
865.6	22.88
865.768	29.27
865.936	20.4
866.104	17.43
866.272	18.29
866.44	-27.43
866.608	-27.58
866.776	12.2
866.944	-15.37
867.112	-49.04
867.28	-98.85
867.448	-47.07
867.615	-11.68
867.783	-22.09
867.951	-27.09
868.119	17.69
868.286	36.73
868.454	37.45
868.622	18.2
868.789	40.1
868.957	50.24
869.125	30.5
869.292	25.41
869.46	29.22
869.627	9.94
869.795	2.97
869.963	-10.43
870.13	0.25
870.298	8.16
870.465	-28.05
870.632	-25.52
870.8	2.95
870.967	29.89
871.135	23.95
871.302	30.42
871.469	38.37
871.637	53.62
871.804	56.46
871.971	55.63
872.139	51.75
872.306	54.06
872.473	36.79
872.64	24.7
872.807	7.55
872.975	15.12
873.142	24.62
873.309	28.9
873.476	35.49
873.643	130.02
873.81	196.4
873.977	152.99
874.144	137.24
874.311	86.88
874.478	24.87
874.645	52.76
874.812	33.71
874.979	-11.11
875.146	-44.09
875.313	-88.09
875.48	9.76
875.647	37.5
875.813	-22.99
875.98	-36.61
876.147	34.75
876.314	56.92
876.481	54.85
876.647	41.2
876.814	47.38
876.981	41.54
877.147	40.71
877.314	32.61
877.481	37.35
877.647	56.92
877.814	47.86
877.98	73.26
878.147	75.34
878.314	58.68
878.48	57.3
878.647	67.37
878.813	48.79
878.979	55.22
879.146	13.62
879.312	21.37
879.479	49.5
879.645	18.98
879.811	-3.32
879.978	-3.22
880.144	-0.62
880.31	1.29
880.477	-18.35
880.643	-47.86
880.809	105.98
880.975	87.66
881.142	52.04
881.308	29.32
881.474	84.06
881.64	53.76
881.806	17.48
881.972	21.41
882.138	16.39
882.304	-17.96
882.47	7.56
882.636	-59.41
882.802	-36.1
882.968	-84.53
883.134	-336.35
883.3	-149.03
883.466	-4.8
883.632	-20.99
883.798	11.3
883.964	-17.4
884.129	14.85
884.295	19.65
884.461	8.44
884.627	-41.24
884.793	-1.69
884.958	-17.51
885.124	-31.38
885.29	-19.33
885.455	-17.55
885.621	-0.38
885.787	-8.04
885.952	-23.11
886.118	-19.21
886.283	14.09
886.449	0.3
886.614	28.27
886.78	27.15
886.945	8.16
887.111	18
887.276	-4.84
887.442	-11.06
887.607	-22.98
887.773	-35.1
887.938	-64.37
888.103	-20.06
888.269	-15.34
888.434	3.25
888.599	18.2
888.764	21.99
888.93	28.9
889.095	18.24
889.26	57.87
889.425	70.46
889.59	68.03
889.756	53.89
889.921	43.33
890.086	56.52
890.251	55.36
890.416	9.14
890.581	-2.82
890.746	-19.89
890.911	-61.67
891.076	-84.82
891.241	-87.26
891.406	-15.06
891.571	-6.44
891.736	-6.05
891.901	17
892.065	46.75
892.23	39.53
892.395	17.91
892.56	7.78
892.725	7.82
892.889	-38.77
893.054	-109.39
893.219	-180.49
893.384	-258.3
893.548	-683.33
893.713	1118.32
893.878	622.83
