Data from Ofra_1a_PS_1GT42_Reflection_1.txt Node
Date: Tue Jul 20 10:45:13 EDT 2021
User: Adam
Spectrometer: FLMT01687
Trigger mode: 0
Integration Time (sec): 1.004000E0
Scans to average: 2
Electric dark correction enabled: true
Nonlinearity correction enabled: false
Boxcar width: 2
XAxis mode: Wavelengths
Number of Pixels in Spectrum: 3648
>>>>>Begin Spectral Data<<<<<
179.494	-5.58
179.716	-127.48
179.937	423.75
180.158	-967.52
180.38	173.14
180.601	137.46
180.823	50.13
181.044	76.15
181.265	242.24
181.486	41.21
181.708	5.47
181.929	9990.91
182.15	-67
182.372	-599.51
182.593	-171.87
182.814	233.11
183.035	26.48
183.257	55.67
183.478	7.61
183.699	-16.34
183.92	-74.15
184.141	-40.12
184.363	-48.82
184.584	-70.72
184.805	-34.11
185.026	14.84
185.247	19.74
185.468	2.81
185.689	13.37
185.91	-19.56
186.132	-17.91
186.353	-18.97
186.574	-13.46
186.795	-10.7
187.016	35.83
187.237	42.48
187.458	20.56
187.679	-6.2
187.9	7.56
188.121	-19.58
188.342	-11.56
188.563	17.34
188.784	59.48
189.005	51.06
189.226	31.86
189.447	16.07
189.667	9.77
189.888	-9.91
190.109	-33.39
190.33	-9.55
190.551	-5.2
190.772	-52.47
190.993	-59.92
191.214	-61.76
191.434	-89.55
191.655	-107.32
191.876	17.69
192.097	28.51
192.318	40.77
192.538	-12.74
192.759	3.35
192.98	3.92
193.201	-5.63
193.421	-15.96
193.642	9.85
193.863	2.68
194.083	-27.54
194.304	-30.96
194.525	-35.33
194.745	-34.47
194.966	-19.16
195.187	-3.9
195.407	-17.06
195.628	0.43
195.848	-10.91
196.069	-37.3
196.29	-19.35
196.51	-37.03
196.731	-42.66
196.951	-48.36
197.172	-24.77
197.392	-53.49
197.613	-1.38
197.833	-0.12
198.054	16.4
198.274	3.79
198.495	16.43
198.715	8.92
198.936	15.57
199.156	4.78
199.377	4.67
199.597	0.08
199.817	-1.49
200.038	-25.59
200.258	6.44
200.479	15.3
200.699	26.36
200.919	13.96
201.14	29.55
201.36	33.74
201.58	2.17
201.801	-24
202.021	-44.73
202.241	-67.26
202.461	-73.85
202.682	-26.31
202.902	2.6
203.122	21.24
203.342	19.79
203.563	20.12
203.783	-13.58
204.003	-21.81
204.223	-5.21
204.443	-18.08
204.663	-45.95
204.884	3.46
205.104	-17.83
205.324	-25.12
205.544	-27.03
205.764	5.99
205.984	-1.18
206.204	11.76
206.424	-29.29
206.644	-30.21
206.864	-80.11
207.084	-55.6
207.304	-84.86
207.525	-57.45
207.745	-11.14
207.964	-6.24
208.184	9.18
208.404	15.65
208.624	17.23
208.844	-21.07
209.064	-6.24
209.284	-11.47
209.504	-10.23
209.724	1.99
209.944	1.2
210.164	-14.46
210.384	-23.02
210.604	-72.08
210.823	-88.18
211.043	-54.45
211.263	-133.91
211.483	-84.77
211.703	-40.55
211.922	-81.84
212.142	-65.98
212.362	-0.88
212.582	-17.98
212.801	-34.49
213.021	-40.31
213.241	-51.58
213.461	-49.66
213.68	-19.73
213.9	-19.72
214.12	-9.63
214.339	-14.65
214.559	-10.84
214.779	-19.2
214.998	-17.14
215.218	-1.19
215.438	19.33
215.657	-0.56
215.877	-13.29
216.096	15.19
216.316	4.99
216.535	6.17
216.755	-3.69
216.974	-9
217.194	-27.69
217.413	-12.49
217.633	-33.16
217.852	2.68
218.072	8.04
218.291	-11.59
218.511	-16.46
218.73	-25.76
218.95	-43.3
219.169	-43.45
219.389	-19.89
219.608	-29.99
219.827	-11
220.047	-4.64
220.266	-24.35
220.485	-25.63
220.705	5.23
220.924	-11.07
221.143	12.65
221.363	21.09
221.582	23.15
221.801	12.72
222.021	7.25
222.24	-26.79
222.459	-9.7
222.678	1.23
222.897	-6.16
223.117	12.6
223.336	27.18
223.555	22.86
223.774	30.39
223.993	44.55
224.213	64.59
224.432	46.08
224.651	22.56
224.87	8.38
225.089	5.75
225.308	-6.24
225.527	-20.17
225.746	-1.63
225.965	-13.82
226.184	-31.34
226.404	-40.19
226.623	-10.29
226.842	-13.43
227.061	-2.39
227.28	13.67
227.499	19.75
227.718	9.32
227.936	7.51
228.155	9.9
228.374	-3.57
228.593	5.79
228.812	18.64
229.031	27.88
229.25	12.38
229.469	21.21
229.688	17.49
229.907	8.51
230.125	0.07
230.344	0.76
230.563	5.89
230.782	-0.38
231.001	5.38
231.22	2.09
231.438	28.97
231.657	27.19
231.876	30.08
232.095	31.12
232.313	22.36
232.532	11.41
232.751	-0.5
232.969	5.15
233.188	-10
233.407	-0.27
233.625	-1.15
233.844	-4.47
234.063	-11.86
234.281	-6.51
234.5	-4.55
234.719	-8.93
234.937	-15.44
235.156	-29.19
235.374	-13.78
235.593	-2.25
235.811	12.99
236.03	23.82
236.249	31.15
236.467	20.78
236.686	8.99
236.904	1.54
237.123	-11.79
237.341	-7.43
237.559	-19.01
237.778	14.05
237.996	-15.91
238.215	-61.17
238.433	-131.36
238.652	-34.12
238.87	-56.15
239.088	-47.91
239.307	5.94
239.525	11.39
239.743	-4.5
239.962	-20.49
240.18	6.21
240.398	-5.01
240.617	-25.42
240.835	-26.02
241.053	-26.04
241.271	-32.01
241.49	-18.33
241.708	-16.04
241.926	-16.71
242.144	-9.54
242.363	-22.35
242.581	-72.21
242.799	-62.89
243.017	-45.1
243.235	-25.64
243.453	-33.72
243.672	-26.63
243.89	-13.53
244.108	-5.46
244.326	17.26
244.544	28.2
244.762	25.37
244.98	29.92
245.198	23.05
245.416	-2.13
245.634	-12.83
245.852	-32.79
246.07	-30.11
246.288	-18.51
246.506	-4.09
246.724	-0.29
246.942	16.94
247.16	22.29
247.378	19.95
247.596	24.83
247.814	39.64
248.032	38.98
248.25	48.43
248.468	36.44
248.685	24.6
248.903	19.73
249.121	21.99
249.339	6.32
249.557	4.07
249.775	4.6
249.992	1.26
250.21	7.32
250.428	23.87
250.646	20.06
250.863	12.77
251.081	18.77
251.299	5.76
251.517	-10.43
251.734	-8.13
251.952	3.03
252.17	-0.45
252.387	-11.64
252.605	-18.43
252.823	-42.07
253.04	-48.32
253.258	-32.21
253.475	-16.81
253.693	-18.93
253.911	-10.74
254.128	-0.64
254.346	12.88
254.563	17.95
254.781	39.81
254.998	33.95
255.216	-4.58
255.433	-57.06
255.651	-47.76
255.868	-62.45
256.086	-41.98
256.303	-28.17
256.521	-13.71
256.738	-33.56
256.956	-34.15
257.173	-48.2
257.39	-27.36
257.608	-36.02
257.825	-28.44
258.043	-9.5
258.26	-3.51
258.477	-3.7
258.695	-2.36
258.912	-18.02
259.129	-56.9
259.346	-60.49
259.564	-74.79
259.781	-70.55
259.998	-12.21
260.216	12.84
260.433	1.99
260.65	-1.65
260.867	8.04
261.084	-0.83
261.302	0.79
261.519	37.75
261.736	59.21
261.953	45.88
262.17	61
262.387	44.84
262.604	33.54
262.822	34.4
263.039	32.19
263.256	7.76
263.473	-1.41
263.69	-10.09
263.907	-22.91
264.124	-34.28
264.341	-4.62
264.558	15.44
264.775	14.59
264.992	14.66
265.209	-2.79
265.426	-12.83
265.643	-23.71
265.86	-47.73
266.077	-54.03
266.294	-5.69
266.51	12.21
266.727	-1.28
266.944	22.17
267.161	27.9
267.378	25.96
267.595	1.66
267.812	3.58
268.028	-19.28
268.245	-32.77
268.462	-24.08
268.679	-10.61
268.896	6.42
269.112	8.17
269.329	-7.81
269.546	-4.24
269.763	2.63
269.979	-3.92
270.196	4.88
270.413	5.52
270.629	-14.45
270.846	-31.95
271.063	-30.89
271.279	-25.48
271.496	-27.52
271.712	-14.44
271.929	-3.51
272.146	-14.63
272.362	-18.19
272.579	-17.89
272.795	-26.22
273.012	-46.27
273.228	-32.57
273.445	-25.41
273.661	-20.51
273.878	-34.19
274.094	-25.88
274.311	-19.01
274.527	-60.48
274.744	-31
274.96	-0.43
275.177	10.55
275.393	3.56
275.609	17.7
275.826	7.52
276.042	-9.52
276.259	-18.72
276.475	-14.14
276.691	-20.64
276.908	-18.74
277.124	1.19
277.34	9.12
277.557	-6.42
277.773	7.94
277.989	1.41
278.205	-1.63
278.422	-19.56
278.638	-17.46
278.854	-33.79
279.07	-26.15
279.286	-32.37
279.503	-3.99
279.719	4.77
279.935	15.98
280.151	15.92
280.367	14.48
280.583	2.28
280.799	-1
281.016	-29.83
281.232	-30.65
281.448	-41.42
281.664	-20.66
281.88	-15.84
282.096	0.57
282.312	1.66
282.528	14.62
282.744	5.7
282.96	-12.08
283.176	-14.8
283.392	-35.68
283.608	-39.92
283.824	-65.83
284.04	-102.86
284.256	-50.47
284.471	-25.26
284.687	-20.55
284.903	-6.16
285.119	11.97
285.335	14.02
285.551	9.69
285.767	-1.97
285.982	-5.03
286.198	-21.29
286.414	-61.49
286.63	-56.24
286.846	-43.58
287.061	-35.03
287.277	-30.79
287.493	-16.93
287.709	-39.08
287.924	-29.78
288.14	-24.3
288.356	-14.49
288.571	-23.01
288.787	-34.14
289.003	-26
289.218	-34.8
289.434	-29.95
289.65	-9.85
289.865	3.54
290.081	13.64
290.296	15.35
290.512	10.46
290.727	3.51
290.943	3.97
291.159	-3.35
291.374	-19.28
291.59	-14.8
291.805	-22.63
292.021	-20.17
292.236	-29.18
292.451	-17.57
292.667	0.95
292.882	18.17
293.098	8.76
293.313	2.29
293.529	8.39
293.744	-1.46
293.959	5.16
294.175	19.07
294.39	2.59
294.605	4.69
294.821	-0.23
295.036	-9.3
295.251	-4.08
295.467	-4.12
295.682	-5.73
295.897	-11.62
296.112	-9.8
296.328	-6.96
296.543	6.46
296.758	15.73
296.973	10.2
297.188	1.29
297.404	-35.49
297.619	-63.84
297.834	-91.59
298.049	-93.07
298.264	-71.3
298.479	-48.31
298.694	-1.73
298.909	12.26
299.125	14.11
299.34	21.88
299.555	19.19
299.77	24.62
299.985	16.2
300.2	23.93
300.415	23.31
300.63	28.9
300.845	14.2
301.06	19.09
301.275	11.23
301.49	3.26
301.704	1.97
301.919	-5.48
302.134	-16.83
302.349	-6.39
302.564	2.96
302.779	-10.32
302.994	6.02
303.209	11.93
303.423	1.6
303.638	-3.93
303.853	-18
304.068	-26.26
304.283	-28.33
304.497	-37.79
304.712	-37.14
304.927	-13.97
305.142	-7.55
305.356	-10.5
305.571	-5.82
305.786	-4.94
306	-2.1
306.215	-21.01
306.43	-21.96
306.644	-36.01
306.859	-56.21
307.074	-48.32
307.288	-17.35
307.503	7.82
307.717	12.41
307.932	23.66
308.147	21.69
308.361	2.02
308.576	-38.38
308.79	-25.05
309.005	-58.94
309.219	-50.74
309.434	-40.03
309.648	-29.02
309.863	-31.14
310.077	-17.99
310.292	2.11
310.506	-19.79
310.72	-0.71
310.935	14.4
311.149	9.67
311.364	0.08
311.578	18.53
311.792	13.68
312.007	-5.45
312.221	0.62
312.435	-13.79
312.649	2.81
312.864	-39.17
313.078	-49.57
313.292	-54.54
313.507	-57.25
313.721	-80.86
313.935	-49.45
314.149	-20.78
314.363	-18.34
314.578	-20.17
314.792	-36.01
315.006	-51.43
315.22	-67.29
315.434	-62.22
315.648	-51.9
315.862	-25.69
316.077	-16.02
316.291	-9.96
316.505	-19.6
316.719	-17.84
316.933	-21.52
317.147	-19.55
317.361	-33.37
317.575	-13.76
317.789	-26.76
318.003	-18.5
318.217	-14.62
318.431	-20.72
318.645	-8.83
318.859	4.88
319.073	8.38
319.287	8.26
319.5	24.09
319.714	12.3
319.928	11.88
320.142	6.54
320.356	-3.28
320.57	-24.3
320.784	-17.76
320.997	-34.51
321.211	-17.73
321.425	-17.13
321.639	-7.99
321.853	6.37
322.066	15.75
322.28	3.22
322.494	15.5
322.707	19.17
322.921	-6.1
323.135	-12.63
323.349	-13.72
323.562	-11.29
323.776	-17.1
323.989	2.34
324.203	-8.54
324.417	3.39
324.63	-19.21
324.844	-19.9
325.057	-48.46
325.271	-33.18
325.485	-43.66
325.698	-19.18
325.912	-5.4
326.125	8.86
326.339	10.62
326.552	2.96
326.766	-2.51
326.979	-8.76
327.193	-5.93
327.406	-28.65
327.619	-16.9
327.833	-30.84
328.046	-25.95
328.26	-36.36
328.473	-16.95
328.686	-19.85
328.9	-5.44
329.113	-10.95
329.326	-4.64
329.54	4.13
329.753	13.57
329.966	9.22
330.179	20.5
330.393	15.47
330.606	7.49
330.819	-13.07
331.032	-18.89
331.246	-18.81
331.459	-20.4
331.672	-23.66
331.885	-22.09
332.098	-10.95
332.311	-22.24
332.525	-2.32
332.738	-11.3
332.951	-11.14
333.164	-13.7
333.377	-17.68
333.59	-35.32
333.803	-28.74
334.016	-19.96
334.229	-17.07
334.442	-6.76
334.655	-0.99
334.868	-2.65
335.081	-9.93
335.294	-22.97
335.507	-16.06
335.72	-13.59
335.933	-12.51
336.146	-5.45
336.359	12.11
336.572	11.06
336.785	1.91
336.997	-7.81
337.21	-11.04
337.423	-31.49
337.636	-27.68
337.849	-16.01
338.062	0.06
338.274	14.12
338.487	-5.37
338.7	-24.24
338.913	-26.34
339.125	-53.45
339.338	-67.24
339.551	-42.55
339.763	-34.47
339.976	-25.6
340.189	-25.48
340.402	-13.72
340.614	-11.64
340.827	-5.01
341.039	-3.72
341.252	-1.22
341.465	-8.44
341.677	-8.35
341.89	-15.86
342.102	-14.93
342.315	-3.63
342.527	6.24
342.74	-7.5
342.952	1.82
343.165	-11.6
343.377	-4.11
343.59	1.35
343.802	9.8
344.015	8.6
344.227	15.7
344.44	-2.21
344.652	7.77
344.864	13.81
345.077	20.49
345.289	20.43
345.502	34.6
345.714	5.78
345.926	4.19
346.139	-0.87
346.351	5.35
346.563	8.1
346.775	27.28
346.988	30.18
347.2	19.59
347.412	18.01
347.624	12.69
347.837	1.01
348.049	-9.56
348.261	-9.05
348.473	-20.92
348.685	-22.88
348.897	-21.66
349.11	-16.01
349.322	-0.53
349.534	-0.09
349.746	-2.57
349.958	-4.37
350.17	-10.11
350.382	-29.97
350.594	-29.81
350.806	-6.54
351.018	0.87
351.23	17.14
351.442	26.94
351.654	30.27
351.866	13.39
352.078	19.7
352.29	8.34
352.502	3.95
352.714	-10.17
352.926	-7.59
353.138	-12.15
353.35	-28.95
353.561	-23.59
353.773	-15.34
353.985	-9.72
354.197	-5.69
354.409	2.01
354.621	-18.61
354.832	-18.6
355.044	-41.92
355.256	-56.61
355.468	-66.98
355.679	-21.55
355.891	-18.63
356.103	-11.56
356.314	-14.25
356.526	-23.41
356.738	-37.72
356.949	-41.74
357.161	-28.73
357.373	-21.62
357.584	-4
357.796	6.65
358.008	15.01
358.219	9.47
358.431	6.53
358.642	10
358.854	6.1
359.065	-9.29
359.277	-1.4
359.488	-4.32
359.7	-2.81
359.911	-18.88
360.123	-2.38
360.334	-0.38
360.546	-2.72
360.757	-14.63
360.969	-11.63
361.18	-11.9
361.391	-10.63
361.603	-6.34
361.814	9.85
362.025	14.35
362.237	7.15
362.448	7.36
362.659	1.08
362.871	-30.17
363.082	-23.32
363.293	-15.08
363.504	-31.25
363.716	-27.31
363.927	9.11
364.138	-25.06
364.349	-32.98
364.56	-37.7
364.772	-9.73
364.983	-15.24
365.194	6.63
365.405	11.91
365.616	19.14
365.827	4.01
366.038	11.11
366.25	13.23
366.461	13.9
366.672	9.3
366.883	2.45
367.094	-14.03
367.305	-20.93
367.516	-25.65
367.727	-28.5
367.938	-22.5
368.149	-17.28
368.36	-26.71
368.571	-48.62
368.781	-49.92
368.992	-37.36
369.203	-39.14
369.414	-37.08
369.625	-35.62
369.836	-5.82
370.047	-12.9
370.258	-0.97
370.468	-6.16
370.679	9.81
370.89	-2.08
371.101	-4.42
371.312	-14.58
371.522	1.43
371.733	-11.78
371.944	-26.28
372.155	-21.29
372.365	-8.03
372.576	-24.44
372.787	-8.06
372.997	-5.99
373.208	-9.68
373.419	-21.21
373.629	-12.6
373.84	-17.05
374.05	-13.65
374.261	-19.12
374.472	-13.02
374.682	-8.57
374.893	-16.81
375.103	-10.1
375.314	0.59
375.524	-1.77
375.735	2.41
375.945	8.2
376.156	0.28
376.366	-3.72
376.577	8.45
376.787	9.37
376.997	4.54
377.208	8.97
377.418	7.6
377.629	8.07
377.839	9.3
378.049	17.76
378.26	8.21
378.47	9.31
378.68	0.05
378.89	-2.5
379.101	2.74
379.311	8.79
379.521	0.45
379.732	4.17
379.942	4.27
380.152	-19.93
380.362	-11.68
380.572	7.77
380.783	7.24
380.993	9.95
381.203	22.41
381.413	19.95
381.623	15.3
381.833	10.89
382.043	-1.8
382.253	-2.8
382.463	7.75
382.674	5.65
382.884	12.63
383.094	16.04
383.304	17.04
383.514	6.73
383.724	1.46
383.934	-3.92
384.144	2.04
384.353	3.67
384.563	8.72
384.773	12.9
384.983	10.02
385.193	0.75
385.403	1.58
385.613	-0.82
385.823	0.47
386.033	0.88
386.242	2.61
386.452	-2.29
386.662	0.88
386.872	-0.45
387.082	-2.62
387.291	-6.62
387.501	-3.97
387.711	-4.83
387.921	-1.89
388.13	2.89
388.34	6.15
388.55	-0.59
388.759	-7.69
388.969	-13.25
389.179	-11.13
389.388	-8.89
389.598	-8.7
389.807	-9.8
390.017	-7.63
390.227	-14.05
390.436	-10.61
390.646	-5.22
390.855	-0.45
391.065	2.05
391.274	5.05
391.484	2.69
391.693	0.57
391.903	0.65
392.112	-0.71
392.322	-2.75
392.531	-2.14
392.74	-4.06
392.95	-3.2
393.159	-2.77
393.369	-1
393.578	-2.25
393.787	-0.74
393.997	-0.62
394.206	-1.38
394.415	-0.87
394.625	0.17
394.834	0.71
395.043	0.81
395.252	3.62
395.462	3.46
395.671	3.92
395.88	4.54
396.089	4.49
396.298	3.39
396.508	3.16
396.717	2.5
396.926	1.89
397.135	1.89
397.344	1.67
397.553	1.26
397.762	2.33
397.971	2.17
398.181	1.57
398.39	0.67
398.599	1.87
398.808	1.56
399.017	2.02
399.226	1.9
399.435	2.4
399.644	2.3
399.853	2.72
400.062	2.7
400.27	2.89
400.479	3.25
400.688	3.09
400.897	2.5
401.106	2.41
401.315	2.55
401.524	2.36
401.733	2.02
401.941	2.37
402.15	2.42
402.359	2.49
402.568	2.46
402.777	2.71
402.985	2.24
403.194	2.29
403.403	2.31
403.612	2.25
403.82	2.12
404.029	2.29
404.238	2.39
404.446	2.48
404.655	2.62
404.864	2.61
405.072	2.63
405.281	2.52
405.489	2.44
405.698	2.63
405.906	2.78
406.115	2.65
406.324	2.62
406.532	2.81
406.741	2.67
406.949	2.6
407.158	2.85
407.366	2.71
407.574	2.63
407.783	2.69
407.991	2.63
408.2	2.61
408.408	2.66
408.617	2.46
408.825	2.28
409.033	2.36
409.242	2.32
409.45	2.32
409.658	2.41
409.867	2.45
410.075	2.51
410.283	2.46
410.491	2.39
410.7	2.27
410.908	2.42
411.116	2.45
411.324	2.43
411.533	2.44
411.741	2.55
411.949	2.4
412.157	2.26
412.365	2.28
412.573	2.45
412.781	2.34
412.99	2.27
413.198	2.38
413.406	2.45
413.614	2.44
413.822	2.58
414.03	2.64
414.238	2.62
414.446	2.55
414.654	2.43
414.862	2.28
415.07	2.19
415.278	2.13
415.486	2.04
415.694	2.06
415.902	2.16
416.109	2.16
416.317	2.19
416.525	2.17
416.733	2.12
416.941	2.02
417.149	2
417.357	1.99
417.564	2.02
417.772	2.14
417.98	2.34
418.188	2.35
418.395	2.18
418.603	2.14
418.811	2.04
419.019	1.84
419.226	1.89
419.434	1.88
419.642	1.77
419.849	1.78
420.057	1.91
420.265	1.87
420.472	1.96
420.68	2.05
420.887	1.98
421.095	1.94
421.302	2.05
421.51	2
421.717	2.07
421.925	2.08
422.132	2.13
422.34	1.94
422.547	1.77
422.755	1.83
422.962	1.89
423.17	1.53
423.377	1.61
423.585	1.83
423.792	1.84
423.999	1.88
424.207	2.01
424.414	2.09
424.621	2.21
424.829	2.24
425.036	2.21
425.243	2.37
425.451	2.34
425.658	2.14
425.865	2.08
426.072	2.01
426.28	2.09
426.487	1.97
426.694	1.9
426.901	1.9
427.108	1.92
427.315	1.79
427.523	1.87
427.73	2.1
427.937	1.96
428.144	1.92
428.351	1.9
428.558	2.04
428.765	1.91
428.972	1.97
429.179	1.83
429.386	1.89
429.593	1.74
429.8	1.75
430.007	1.8
430.214	2.09
430.421	2.19
430.628	2.25
430.835	2.22
431.042	2.19
431.249	2.08
431.456	1.98
431.662	2.08
431.869	2.26
432.076	2.34
432.283	2.52
432.49	2.48
432.697	2.39
432.903	2.37
433.11	2.41
433.317	2.37
433.524	2.41
433.73	2.38
433.937	2.44
434.144	2.26
434.35	2.25
434.557	2.34
434.764	2.35
434.97	2.17
435.177	2.41
435.384	2.36
435.59	2.32
435.797	2.45
436.003	2.5
436.21	2.43
436.416	2.58
436.623	2.55
436.829	2.52
437.036	2.57
437.242	2.58
437.449	2.65
437.655	2.68
437.862	2.67
438.068	2.57
438.275	2.68
438.481	2.53
438.687	2.52
438.894	2.6
439.1	2.7
439.307	2.75
439.513	2.78
439.719	2.93
439.926	3.02
440.132	3.08
440.338	3.02
440.544	3.09
440.751	2.94
440.957	2.85
441.163	2.78
441.369	2.74
441.575	2.63
441.782	2.74
441.988	2.76
442.194	2.69
442.4	2.72
442.606	2.82
442.812	2.83
443.018	2.82
443.224	3.02
443.431	2.97
443.637	2.93
443.843	2.93
444.049	2.99
444.255	2.98
444.461	2.95
444.667	2.96
444.873	2.92
445.079	2.84
445.284	2.77
445.49	2.74
445.696	2.73
445.902	2.74
446.108	2.84
446.314	2.84
446.52	3
446.726	3.09
446.931	3.04
447.137	3.01
447.343	3.15
447.549	3.15
447.755	3.08
447.96	3.2
448.166	3.21
448.372	3.06
448.578	2.98
448.783	3.03
448.989	3.03
449.195	3.05
449.4	3.25
449.606	3.26
449.812	3.2
450.017	3.17
450.223	3.11
450.428	3.02
450.634	3.05
450.84	3.06
451.045	3.12
451.251	3.19
451.456	3.18
451.662	3.24
451.867	3.31
452.073	3.27
452.278	3.23
452.483	3.19
452.689	3.16
452.894	3.28
453.1	3.28
453.305	3.39
453.51	3.5
453.716	3.44
453.921	3.31
454.127	3.32
454.332	3.23
454.537	3.2
454.742	3.22
454.948	3.17
455.153	3.19
455.358	3.21
455.563	3.3
455.769	3.29
455.974	3.29
456.179	3.23
456.384	3.25
456.589	3.05
456.795	3.11
457	3.18
457.205	3.19
457.41	3.2
457.615	3.26
457.82	3.25
458.025	3.33
458.23	3.36
458.435	3.4
458.64	3.51
458.845	3.6
459.05	3.48
459.255	3.44
459.46	3.43
459.665	3.36
459.87	3.26
460.075	3.39
460.28	3.5
460.485	3.48
460.69	3.47
460.895	3.55
461.099	3.42
461.304	3.25
461.509	3.22
461.714	3.34
461.919	3.34
462.123	3.39
462.328	3.43
462.533	3.43
462.738	3.33
462.942	3.27
463.147	3.33
463.352	3.49
463.556	3.58
463.761	3.53
463.966	3.52
464.17	3.59
464.375	3.65
464.58	3.6
464.784	3.68
464.989	3.79
465.193	3.77
465.398	3.68
465.602	3.88
465.807	3.9
466.011	3.91
466.216	3.88
466.42	3.95
466.625	3.91
466.829	3.88
467.034	3.94
467.238	3.97
467.443	3.9
467.647	3.83
467.851	3.88
468.056	3.85
468.26	3.9
468.464	3.97
468.669	3.97
468.873	4.04
469.077	4.05
469.282	4.02
469.486	4.02
469.69	4.02
469.894	3.97
470.099	3.93
470.303	3.85
470.507	3.83
470.711	3.86
470.915	3.94
471.119	4.03
471.324	4.15
471.528	4.23
471.732	4.3
471.936	4.26
472.14	4.22
472.344	4.3
472.548	4.28
472.752	4.22
472.956	4.24
473.16	4.23
473.364	4.22
473.568	4.2
473.772	4.17
473.976	4.23
474.18	4.32
474.384	4.28
474.588	4.33
474.792	4.37
474.995	4.36
475.199	4.29
475.403	4.32
475.607	4.33
475.811	4.44
476.015	4.39
476.218	4.34
476.422	4.35
476.626	4.31
476.83	4.31
477.033	4.4
477.237	4.51
477.441	4.48
477.644	4.54
477.848	4.52
478.052	4.49
478.255	4.55
478.459	4.52
478.663	4.65
478.866	4.63
479.07	4.58
479.273	4.6
479.477	4.69
479.681	4.62
479.884	4.68
480.088	4.78
480.291	4.7
480.495	4.69
480.698	4.71
480.901	4.71
481.105	4.74
481.308	4.78
481.512	4.81
481.715	4.84
481.919	4.92
482.122	4.88
482.325	4.96
482.529	4.93
482.732	4.82
482.935	4.73
483.138	4.74
483.342	4.73
483.545	4.81
483.748	4.94
483.952	5.04
484.155	5.09
484.358	5.07
484.561	5.03
484.764	4.94
484.967	4.92
485.171	4.9
485.374	4.84
485.577	4.91
485.78	4.95
485.983	4.85
486.186	4.82
486.389	4.85
486.592	4.79
486.795	4.81
486.998	4.88
487.201	4.89
487.404	5.02
487.607	5.04
487.81	5.03
488.013	5.02
488.216	5.06
488.419	4.92
488.622	4.92
488.825	4.94
489.028	4.96
489.231	4.94
489.433	4.97
489.636	4.97
489.839	4.99
490.042	5
490.245	4.99
490.447	4.97
490.65	5.01
490.853	4.98
491.056	4.97
491.258	4.99
491.461	5.02
491.664	4.97
491.866	4.98
492.069	5.05
492.272	5.05
492.474	5.05
492.677	5.09
492.879	5.05
493.082	4.98
493.285	5.01
493.487	4.99
493.69	4.95
493.892	4.98
494.095	4.98
494.297	4.99
494.5	5.03
494.702	5.04
494.905	5.12
495.107	5.15
495.309	5.13
495.512	5.09
495.714	5.11
495.917	5.11
496.119	5.15
496.321	5.17
496.524	5.15
496.726	5.13
496.928	5.07
497.13	4.98
497.333	4.92
497.535	4.95
497.737	4.98
497.939	4.97
498.142	4.99
498.344	5.02
498.546	5.08
498.748	5.08
498.95	5.14
499.152	5.12
499.355	5.17
499.557	5.17
499.759	5.3
499.961	5.23
500.163	5.31
500.365	5.32
500.567	5.28
500.769	5.19
500.971	5.3
501.173	5.25
501.375	5.29
501.577	5.3
501.779	5.28
501.981	5.25
502.183	5.26
502.385	5.26
502.587	5.29
502.788	5.31
502.99	5.31
503.192	5.41
503.394	5.33
503.596	5.31
503.798	5.32
503.999	5.3
504.201	5.24
504.403	5.29
504.605	5.38
504.806	5.43
505.008	5.5
505.21	5.58
505.411	5.58
505.613	5.59
505.815	5.56
506.016	5.56
506.218	5.54
506.42	5.54
506.621	5.55
506.823	5.55
507.024	5.6
507.226	5.66
507.427	5.73
507.629	5.73
507.83	5.84
508.032	5.77
508.233	5.74
508.435	5.75
508.636	5.77
508.838	5.73
509.039	5.73
509.24	5.79
509.442	5.77
509.643	5.69
509.845	5.7
510.046	5.81
510.247	5.81
510.448	5.85
510.65	5.92
510.851	5.95
511.052	5.9
511.254	5.94
511.455	5.91
511.656	5.93
511.857	5.9
512.058	5.97
512.26	5.96
512.461	6.02
512.662	6.01
512.863	5.94
513.064	5.92
513.265	5.92
513.466	5.95
513.667	5.99
513.868	6.06
514.069	6.04
514.27	6.07
514.471	6
514.672	6.04
514.873	6.03
515.074	6.13
515.275	6.1
515.476	6.16
515.677	6.16
515.878	6.24
516.079	6.2
516.28	6.24
516.481	6.22
516.682	6.19
516.882	6.16
517.083	6.11
517.284	6.11
517.485	6.1
517.686	6.15
517.886	6.13
518.087	6.21
518.288	6.2
518.488	6.18
518.689	6.14
518.89	6.18
519.091	6.2
519.291	6.22
519.492	6.24
519.692	6.24
519.893	6.3
520.094	6.18
520.294	6.18
520.495	6.17
520.695	6.19
520.896	6.17
521.096	6.25
521.297	6.27
521.497	6.33
521.698	6.35
521.898	6.39
522.099	6.4
522.299	6.44
522.499	6.38
522.7	6.4
522.9	6.36
523.101	6.37
523.301	6.37
523.501	6.43
523.702	6.4
523.902	6.42
524.102	6.46
524.302	6.46
524.503	6.45
524.703	6.45
524.903	6.41
525.103	6.35
525.304	6.37
525.504	6.41
525.704	6.44
525.904	6.46
526.104	6.48
526.304	6.49
526.504	6.48
526.705	6.46
526.905	6.48
527.105	6.47
527.305	6.52
527.505	6.44
527.705	6.42
527.905	6.47
528.105	6.5
528.305	6.45
528.505	6.53
528.705	6.59
528.905	6.56
529.105	6.57
529.304	6.59
529.504	6.63
529.704	6.62
529.904	6.63
530.104	6.62
530.304	6.61
530.503	6.62
530.703	6.66
530.903	6.7
531.103	6.79
531.303	6.81
531.502	6.85
531.702	6.83
531.902	6.92
532.101	6.85
532.301	6.87
532.501	6.96
532.7	7.04
532.9	7.03
533.1	7.09
533.299	7.11
533.499	7
533.698	6.97
533.898	6.91
534.097	6.9
534.297	6.9
534.496	6.95
534.696	6.94
534.895	6.95
535.095	7.02
535.294	7.04
535.494	7.04
535.693	7.07
535.892	7.15
536.092	7.13
536.291	7.14
536.491	7.19
536.69	7.21
536.889	7.14
537.088	7.14
537.288	7.11
537.487	7.13
537.686	7.12
537.886	7.16
538.085	7.18
538.284	7.24
538.483	7.19
538.682	7.23
538.882	7.33
539.081	7.35
539.28	7.37
539.479	7.45
539.678	7.45
539.877	7.4
540.076	7.4
540.275	7.41
540.474	7.37
540.673	7.44
540.872	7.44
541.071	7.53
541.27	7.53
541.469	7.59
541.668	7.59
541.867	7.64
542.066	7.65
542.265	7.77
542.464	7.79
542.663	7.86
542.862	7.96
543.06	8.04
543.259	8.08
543.458	8.17
543.657	8.19
543.856	8.23
544.054	8.24
544.253	8.26
544.452	8.26
544.651	8.3
544.849	8.29
545.048	8.35
545.247	8.35
545.445	8.34
545.644	8.34
545.843	8.32
546.041	8.29
546.24	8.31
546.438	8.4
546.637	8.44
546.836	8.49
547.034	8.59
547.233	8.67
547.431	8.69
547.63	8.73
547.828	8.79
548.027	8.79
548.225	8.79
548.423	8.8
548.622	8.82
548.82	8.84
549.019	8.86
549.217	8.95
549.415	9.03
549.614	9.2
549.812	9.22
550.01	9.26
550.209	9.33
550.407	9.41
550.605	9.34
550.803	9.4
551.002	9.5
551.2	9.49
551.398	9.56
551.596	9.65
551.794	9.78
551.993	9.81
552.191	9.92
552.389	9.93
552.587	9.96
552.785	10.01
552.983	10.14
553.181	10.16
553.379	10.23
553.577	10.33
553.775	10.37
553.973	10.43
554.171	10.53
554.369	10.59
554.567	10.72
554.765	10.76
554.963	10.79
555.161	10.86
555.359	10.98
555.557	11
555.755	11.11
555.952	11.22
556.15	11.26
556.348	11.22
556.546	11.33
556.744	11.36
556.941	11.41
557.139	11.51
557.337	11.69
557.535	11.73
557.732	11.82
557.93	11.92
558.128	11.98
558.325	12.05
558.523	12.16
558.721	12.26
558.918	12.37
559.116	12.49
559.313	12.57
559.511	12.69
559.708	12.78
559.906	12.88
560.104	12.91
560.301	12.98
560.498	12.99
560.696	13.07
560.893	13.09
561.091	13.2
561.288	13.28
561.486	13.36
561.683	13.45
561.88	13.55
562.078	13.64
562.275	13.75
562.473	13.81
562.67	13.91
562.867	14.02
563.064	14.09
563.262	14.11
563.459	14.23
563.656	14.36
563.853	14.36
564.051	14.46
564.248	14.59
564.445	14.7
564.642	14.78
564.839	14.91
565.036	15.03
565.234	15.11
565.431	15.17
565.628	15.12
565.825	15.2
566.022	15.29
566.219	15.33
566.416	15.43
566.613	15.6
566.81	15.75
567.007	15.76
567.204	15.9
567.401	15.98
567.598	16.03
567.795	16.07
567.991	16.17
568.188	16.25
568.385	16.25
568.582	16.3
568.779	16.35
568.976	16.43
569.172	16.48
569.369	16.62
569.566	16.64
569.763	16.6
569.96	16.59
570.156	16.59
570.353	16.6
570.55	16.68
570.746	16.86
570.943	16.98
571.14	17.03
571.336	17.09
571.533	17.15
571.729	17.2
571.926	17.2
572.123	17.31
572.319	17.33
572.516	17.41
572.712	17.33
572.909	17.31
573.105	17.32
573.302	17.35
573.498	17.35
573.695	17.44
573.891	17.57
574.087	17.57
574.284	17.63
574.48	17.67
574.677	17.64
574.873	17.64
575.069	17.71
575.266	17.72
575.462	17.73
575.658	17.84
575.854	17.87
576.051	17.83
576.247	17.77
576.443	17.79
576.639	17.75
576.835	17.7
577.032	17.68
577.228	17.77
577.424	17.77
577.62	17.78
577.816	17.77
578.012	17.81
578.208	17.79
578.404	17.79
578.6	17.86
578.796	17.96
578.993	17.95
579.189	17.95
579.384	18
579.58	18.03
579.776	17.96
579.972	17.98
580.168	17.92
580.364	17.83
580.56	17.73
580.756	17.72
580.952	17.69
581.148	17.74
581.343	17.77
581.539	17.92
581.735	17.92
581.931	17.9
582.127	17.84
582.322	17.84
582.518	17.7
582.714	17.63
582.909	17.63
583.105	17.62
583.301	17.6
583.496	17.62
583.692	17.61
583.888	17.65
584.083	17.6
584.279	17.56
584.474	17.51
584.67	17.5
584.866	17.42
585.061	17.48
585.257	17.59
585.452	17.58
585.648	17.57
585.843	17.6
586.039	17.57
586.234	17.61
586.429	17.58
586.625	17.69
586.82	17.75
587.015	17.84
587.211	17.82
587.406	17.85
587.601	17.82
587.797	17.77
587.992	17.68
588.187	17.61
588.383	17.62
588.578	17.68
588.773	17.75
588.968	17.85
589.163	17.94
589.359	17.89
589.554	17.82
589.749	17.76
589.944	17.78
590.139	17.73
590.334	17.91
590.529	17.98
590.724	18.14
590.919	18.12
591.114	18.17
591.309	18.17
591.504	18.17
591.699	18.05
591.894	18.09
592.089	18.16
592.284	18.18
592.479	18.18
592.674	18.33
592.869	18.36
593.064	18.39
593.259	18.46
593.454	18.54
593.648	18.53
593.843	18.52
594.038	18.52
594.233	18.53
594.428	18.64
594.622	18.74
594.817	18.91
595.012	19
595.206	19.08
595.401	19.13
595.596	19.13
595.79	19.15
595.985	19.18
596.18	19.31
596.374	19.37
596.569	19.52
596.763	19.64
596.958	19.76
597.153	19.77
597.347	19.76
597.542	19.79
597.736	19.84
597.931	19.86
598.125	19.97
598.319	20.03
598.514	20.07
598.708	20.1
598.903	20.23
599.097	20.25
599.291	20.37
599.486	20.53
599.68	20.6
599.874	20.68
600.069	20.82
600.263	20.94
600.457	20.9
600.651	20.92
600.846	20.9
601.04	20.84
601.234	20.88
601.428	20.98
601.622	21.05
601.817	21.06
602.011	21.16
602.205	21.1
602.399	21.03
602.593	21
602.787	21
602.981	20.9
603.175	21.01
603.369	21.04
603.563	21.15
603.757	21.23
603.951	21.28
604.145	21.22
604.339	21.27
604.533	21.22
604.727	21.12
604.921	21.1
605.115	21
605.309	20.91
605.502	20.86
605.696	20.9
605.89	20.92
606.084	20.96
606.278	20.98
606.471	20.92
606.665	20.79
606.859	20.75
607.053	20.62
607.246	20.56
607.44	20.49
607.634	20.48
607.827	20.41
608.021	20.43
608.214	20.33
608.408	20.37
608.602	20.33
608.795	20.26
608.989	20.18
609.182	20.17
609.376	20.16
609.569	20.06
609.763	20.02
609.956	19.98
610.15	19.87
610.343	19.75
610.537	19.65
610.73	19.59
610.923	19.6
611.117	19.6
611.31	19.45
611.504	19.51
611.697	19.5
611.89	19.34
612.083	19.21
612.277	19.21
612.47	18.99
612.663	18.87
612.856	18.81
613.05	18.87
613.243	18.77
613.436	18.8
613.629	18.77
613.822	18.77
614.015	18.58
614.209	18.61
614.402	18.53
614.595	18.48
614.788	18.37
614.981	18.3
615.174	18.13
615.367	18.05
615.56	17.91
615.753	17.85
615.946	17.82
616.139	17.75
616.332	17.8
616.525	17.75
616.718	17.72
616.911	17.69
617.103	17.72
617.296	17.56
617.489	17.49
617.682	17.47
617.875	17.4
618.067	17.44
618.26	17.41
618.453	17.41
618.646	17.33
618.838	17.29
619.031	17.13
619.224	17.12
619.417	17.17
619.609	17.16
619.802	17.12
619.994	17.13
620.187	17.07
620.38	16.96
620.572	16.96
620.765	16.96
620.957	16.93
621.15	16.96
621.342	16.9
621.535	16.89
621.727	16.82
621.92	16.83
622.112	16.79
622.305	16.85
622.497	16.76
622.69	16.73
622.882	16.73
623.074	16.76
623.267	16.71
623.459	16.66
623.651	16.66
623.844	16.61
624.036	16.62
624.228	16.63
624.42	16.62
624.613	16.61
624.805	16.58
624.997	16.44
625.189	16.39
625.381	16.34
625.574	16.33
625.766	16.25
625.958	16.31
626.15	16.27
626.342	16.28
626.534	16.22
626.726	16.22
626.918	16.1
627.11	16.07
627.302	16.09
627.494	16.05
627.686	16.02
627.878	16.04
628.07	16.06
628.262	16.06
628.454	16.08
628.646	16.08
628.838	16.13
629.029	16.14
629.221	16.09
629.413	16.07
629.605	15.98
629.797	15.85
629.989	15.71
630.18	15.68
630.372	15.66
630.564	15.66
630.755	15.69
630.947	15.72
631.139	15.65
631.33	15.56
631.522	15.51
631.714	15.46
631.905	15.41
632.097	15.4
632.289	15.36
632.48	15.32
632.672	15.32
632.863	15.24
633.055	15.16
633.246	15.26
633.438	15.28
633.629	15.3
633.821	15.38
634.012	15.4
634.203	15.24
634.395	15.19
634.586	15.14
634.777	15.04
634.969	15.06
635.16	15.06
635.351	15.04
635.543	14.99
635.734	14.98
635.925	15.04
636.117	15.09
636.308	15.11
636.499	15.12
636.69	15.16
636.881	15.03
637.073	15.07
637.264	15.06
637.455	15.02
637.646	14.98
637.837	14.97
638.028	14.78
638.219	14.86
638.41	14.89
638.601	14.93
638.792	14.97
638.983	15.02
639.174	14.91
639.365	14.91
639.556	14.8
639.747	14.68
639.938	14.74
640.129	14.77
640.32	14.73
640.511	14.81
640.701	14.84
640.892	14.74
641.083	14.59
641.274	14.54
641.465	14.48
641.655	14.46
641.846	14.44
642.037	14.47
642.228	14.4
642.418	14.3
642.609	14.29
642.8	14.26
642.99	14.28
643.181	14.3
643.372	14.32
643.562	14.29
643.753	14.26
643.943	14.16
644.134	14.12
644.324	14.13
644.515	14.15
644.705	14.13
644.896	14.14
645.086	14.14
645.277	14.09
645.467	14.08
645.658	14
645.848	13.96
646.038	13.95
646.229	13.98
646.419	13.86
646.61	13.88
646.8	13.91
646.99	13.91
647.18	13.81
647.371	13.8
647.561	13.78
647.751	13.77
647.941	13.72
648.132	13.72
648.322	13.72
648.512	13.73
648.702	13.8
648.892	13.76
649.082	13.74
649.272	13.74
649.462	13.72
649.653	13.61
649.843	13.58
650.033	13.57
650.223	13.57
650.413	13.63
650.603	13.66
650.793	13.68
650.983	13.69
651.172	13.69
651.362	13.56
651.552	13.47
651.742	13.39
651.932	13.35
652.122	13.28
652.312	13.18
652.502	13.15
652.691	13.13
652.881	13
653.071	12.86
653.261	12.9
653.45	12.83
653.64	12.78
653.83	12.77
654.019	12.74
654.209	12.7
654.399	12.57
654.588	12.47
654.778	12.33
654.968	12.31
655.157	12.14
655.347	12.01
655.536	11.94
655.726	11.86
655.915	11.72
656.105	11.61
656.294	11.54
656.484	11.44
656.673	11.36
656.863	11.31
657.052	11.22
657.241	11.19
657.431	11.11
657.62	10.94
657.809	10.74
657.999	10.67
658.188	10.42
658.377	10.23
658.567	10.18
658.756	10.08
658.945	9.9
659.134	9.77
659.324	9.69
659.513	9.45
659.702	9.3
659.891	9.18
660.08	9.09
660.269	8.96
660.458	8.91
660.648	8.81
660.837	8.69
661.026	8.56
661.215	8.42
661.404	8.29
661.593	8.14
661.782	8
661.971	7.87
662.16	7.8
662.349	7.69
662.538	7.74
662.726	7.61
662.915	7.61
663.104	7.57
663.293	7.55
663.482	7.35
663.671	7.34
663.86	7.24
664.048	7.24
664.237	7.11
664.426	7.08
664.615	7.04
664.803	6.96
664.992	6.79
665.181	6.79
665.369	6.63
665.558	6.56
665.747	6.64
665.935	6.52
666.124	6.48
666.312	6.54
666.501	6.56
666.69	6.47
666.878	6.53
667.067	6.41
667.255	6.37
667.444	6.35
667.632	6.39
667.82	6.44
668.009	6.51
668.197	6.49
668.386	6.39
668.574	6.23
668.762	6.13
668.951	6.15
669.139	6.13
669.327	6.18
669.516	6.29
669.704	6.35
669.892	6.29
670.08	6.32
670.269	6.41
670.457	6.38
670.645	6.31
670.833	6.42
671.021	6.6
671.21	6.58
671.398	6.65
671.586	6.71
671.774	6.8
671.962	6.65
672.15	6.66
672.338	6.64
672.526	6.7
672.714	6.7
672.902	6.86
673.09	7.01
673.278	7.11
673.466	7.13
673.654	7.02
673.842	7.06
674.03	7.08
674.218	7.09
674.405	7.2
674.593	7.44
674.781	7.41
674.969	7.4
675.157	7.46
675.344	7.52
675.532	7.54
675.72	7.63
675.908	7.61
676.095	7.56
676.283	7.69
676.471	7.79
676.658	7.88
676.846	8.05
677.033	8.14
677.221	8.24
677.409	8.29
677.596	8.37
677.784	8.52
677.971	8.6
678.159	8.58
678.346	8.49
678.534	8.59
678.721	8.56
678.909	8.76
679.096	8.73
679.283	8.85
679.471	8.87
679.658	8.9
679.846	8.95
680.033	9.23
680.22	9.52
680.408	9.52
680.595	9.66
680.782	9.7
680.969	9.75
681.157	9.64
681.344	9.77
681.531	9.74
681.718	9.89
681.905	9.98
682.093	10.18
682.28	10.32
682.467	10.65
682.654	10.72
682.841	10.88
683.028	10.87
683.215	11.06
683.402	11.14
683.589	11.3
683.776	11.4
683.963	11.74
684.15	11.9
684.337	12.08
684.524	12.39
684.711	12.62
684.898	12.71
685.085	12.84
685.271	13.14
685.458	13.13
685.645	13.26
685.832	13.52
686.019	13.82
686.205	14.07
686.392	14.48
686.579	14.86
686.766	15.16
686.952	15.38
687.139	15.72
687.326	16.12
687.512	16.29
687.699	16.63
687.886	16.99
688.072	17.27
688.259	17.55
688.445	18.2
688.632	18.68
688.818	19.17
689.005	19.45
689.191	19.93
689.378	20.32
689.564	20.75
689.751	21.31
689.937	22
690.124	22.52
690.31	22.71
690.496	23.42
690.683	23.86
690.869	24.3
691.055	24.8
691.242	25.61
691.428	25.86
691.614	26.42
691.8	26.95
691.987	27.8
692.173	28.44
692.359	29.24
692.545	30.2
692.731	30.96
692.918	31.34
693.104	31.87
693.29	32.33
693.476	32.85
693.662	33.57
693.848	34.31
694.034	34.95
694.22	35.68
694.406	36.09
694.592	36.71
694.778	37.12
694.964	37.77
695.15	38.41
695.336	38.98
695.522	39.5
695.708	40.46
695.894	41.41
696.08	42.23
696.265	43.17
696.451	43.86
696.637	44.41
696.823	44.65
697.009	45.23
697.194	45.83
697.38	46.47
697.566	47.06
697.751	47.77
697.937	48.32
698.123	48.89
698.308	49.52
698.494	50.27
698.68	51.12
698.865	51.79
699.051	52.27
699.236	52.91
699.422	53.28
699.607	53.86
699.793	54.46
699.978	55.01
700.164	55.32
700.349	55.93
700.535	56.03
700.72	56.24
700.906	56.8
701.091	57.37
701.276	57.64
701.462	58.36
701.647	59.06
701.832	59.36
702.018	60.09
702.203	60.76
702.388	60.9
702.573	61.18
702.759	61.73
702.944	61.93
703.129	61.89
703.314	62.37
703.499	62.9
703.684	63.25
703.87	63.69
704.055	64.49
704.24	65.25
704.425	65.45
704.61	65.78
704.795	66.04
704.98	66.08
705.165	66.07
705.35	66.16
705.535	66.55
705.72	66.33
705.905	67.01
706.09	67.47
706.275	68.08
706.459	68.5
706.644	68.9
706.829	68.99
707.014	69.2
707.199	69.45
707.384	69.46
707.568	69.89
707.753	70.25
707.938	70.28
708.123	70.46
708.307	70.71
708.492	71.01
708.677	70.97
708.861	71.23
709.046	70.95
709.231	71.01
709.415	71.27
709.6	71.35
709.784	71.75
709.969	72.39
710.153	72.27
710.338	72.94
710.522	73.47
710.707	73.45
710.891	73.44
711.076	74.11
711.26	74.07
711.445	74.06
711.629	74.31
711.813	74.8
711.998	74.72
712.182	74.41
712.366	74.98
712.551	75.3
712.735	75.24
712.919	75.8
713.103	76.27
713.288	76.2
713.472	76.36
713.656	76.07
713.84	75.77
714.024	75.98
714.208	75.87
714.393	75.52
714.577	76.11
714.761	76.33
714.945	76.02
715.129	76.19
715.313	76.64
715.497	76.6
715.681	76.56
715.865	76.71
716.049	76.65
716.233	76.42
716.417	76.84
716.601	77.2
716.785	77.65
716.968	78.05
717.152	78.16
717.336	78.08
717.52	78.46
717.704	78.36
717.888	78.42
718.071	78.4
718.255	78.57
718.439	78.38
718.622	78.23
718.806	78.08
718.99	78.1
719.174	77.95
719.357	78.12
719.541	78.27
719.724	78.37
719.908	78.8
720.092	79.01
720.275	78.84
720.459	78.9
720.642	79.36
720.826	79.39
721.009	79.32
721.193	79.02
721.376	79.49
721.559	79.49
721.743	80
721.926	80.24
722.11	80.79
722.293	81.18
722.476	80.47
722.66	80.53
722.843	80.67
723.026	81.06
723.21	80.27
723.393	80.92
723.576	80.7
723.759	81.1
723.942	81
724.126	81.4
724.309	81.22
724.492	81.39
724.675	81.25
724.858	81.56
725.041	81.77
725.224	82.18
725.407	82.22
725.59	82.05
725.774	81.47
725.957	81.49
726.14	81.52
726.322	81.72
726.505	81.69
726.688	81.76
726.871	81.8
727.054	81.75
727.237	81.68
727.42	81.41
727.603	81.46
727.786	81.27
727.968	81.1
728.151	80.82
728.334	81.69
728.517	82.53
728.699	83.15
728.882	82.9
729.065	83.21
729.248	82.95
729.43	82.22
729.613	81.96
729.796	83.17
729.978	83.11
730.161	83.3
730.343	83.37
730.526	83.26
730.708	82.69
730.891	83.46
731.073	83.54
731.256	84.34
731.438	84.97
731.621	85.08
731.803	84.65
731.986	84.65
732.168	83.91
732.35	83.65
732.533	83.76
732.715	83.51
732.898	83
733.08	83.79
733.262	83.76
733.444	84.48
733.627	85.03
733.809	85.9
733.991	85.82
734.173	85.45
734.355	84.82
734.538	84.43
734.72	84.58
734.902	85.15
735.084	85.89
735.266	86.11
735.448	86.82
735.63	86.74
735.812	86.13
735.994	86
736.176	86.29
736.358	86.21
736.54	86.68
736.722	86.29
736.904	86.1
737.086	85.16
737.268	85.16
737.45	85.03
737.632	86.12
737.814	87.09
737.995	87.96
738.177	88.1
738.359	87.7
738.541	87.37
738.723	86.78
738.904	86.38
739.086	86.72
739.268	86.71
739.449	86.29
739.631	85.78
739.813	85.44
739.994	85.01
740.176	85.58
740.358	86.08
740.539	85.85
740.721	87.06
740.902	86.52
741.084	86.98
741.265	87.3
741.447	88.32
741.628	88.41
741.81	88.84
741.991	88.46
742.172	87.92
742.354	88.04
742.535	87.39
742.717	86.77
742.898	87.03
743.079	87.3
743.261	87.21
743.442	85.94
743.623	86.73
743.804	85.46
743.986	85.98
744.167	85.47
744.348	86.71
744.529	85.84
744.71	85.87
744.891	85.43
745.073	86.17
745.254	85.99
745.435	86.74
745.616	87.75
745.797	86.2
745.978	85.31
746.159	85.15
746.34	85.56
746.521	85.65
746.702	86.73
746.883	86.91
747.064	87.03
747.245	87.66
747.426	87.13
747.606	87.09
747.787	87.7
747.968	87.17
748.149	85.47
748.33	84.76
748.51	84.52
748.691	84.17
748.872	85.51
749.053	85.77
749.233	86.6
749.414	87.41
749.595	88.13
749.775	87.48
749.956	88.31
750.137	87.71
750.317	85.98
750.498	85.25
750.678	86.06
750.859	85.26
751.04	85.3
751.22	86.15
751.4	86.39
751.581	86.09
751.761	86.01
751.942	86.72
752.122	86.2
752.303	86.02
752.483	85.8
752.663	86.71
752.844	86.87
753.024	89.45
753.204	89.74
753.385	89.48
753.565	89.3
753.745	88.31
753.925	85.06
754.106	85.13
754.286	84.84
754.466	84.53
754.646	84.17
754.826	85.65
755.006	85.28
755.187	86.3
755.367	84.88
755.547	85.33
755.727	85.41
755.907	84.76
756.087	84.15
756.267	84.4
756.447	86.31
756.627	86.39
756.807	88.09
756.987	87.31
757.167	88.56
757.346	86.59
757.526	86.63
757.706	85.47
757.886	86.54
758.066	86.84
758.246	86.46
758.425	85.54
758.605	84.85
758.785	84.69
758.965	84.16
759.144	84.83
759.324	85.81
759.504	87.55
759.683	87.16
759.863	87.36
760.043	87.49
760.222	88.02
760.402	86.35
760.581	86.46
760.761	85.88
760.94	85.59
761.12	84.07
761.299	85.56
761.479	85.43
761.658	85.44
761.838	86.19
762.017	86.75
762.197	85.04
762.376	86.1
762.555	86.07
762.735	85.73
762.914	85.48
763.093	86.69
763.273	86.33
763.452	86.75
763.631	85.79
763.81	85.41
763.99	85.38
764.169	84.47
764.348	83.39
764.527	83.59
764.706	83.94
764.885	83.21
765.064	83.77
765.243	84.18
765.423	84.1
765.602	84.67
765.781	83.1
765.96	83.03
766.139	82.9
766.318	84.34
766.497	82.65
766.676	84.12
766.854	84.34
767.033	85.03
767.212	84.37
767.391	86.41
767.57	88.3
767.749	85.4
767.928	84.2
768.106	82.87
768.285	81.48
768.464	79.91
768.643	81.06
768.821	81.34
769	81.72
769.179	82.6
769.357	83.41
769.536	83.11
769.715	81.82
769.893	81.95
770.072	81.51
770.25	79.5
770.429	81.12
770.607	84.27
770.786	83.92
770.964	84.03
771.143	84.66
771.321	80.84
771.5	79.34
771.678	78.29
771.857	77.31
772.035	78.65
772.213	82.25
772.392	81.66
772.57	82.19
772.748	83.61
772.927	82.56
773.105	82.42
773.283	83.15
773.461	84.33
773.64	82.86
773.818	81.73
773.996	82.25
774.174	82.67
774.352	80.94
774.531	80.87
774.709	81.24
774.887	78.49
775.065	78.79
775.243	79.22
775.421	80.29
775.599	81.6
775.777	81.34
775.955	79.14
776.133	80.08
776.311	77.48
776.489	78.16
776.667	78.56
776.844	79.39
777.022	79.29
777.2	82.9
777.378	79.51
777.556	82.31
777.734	84.01
777.911	84.63
778.089	85.48
778.267	86.36
778.445	87.83
778.622	86.46
778.8	82.67
778.978	80.84
779.155	83.48
779.333	81.76
779.511	81.48
779.688	83.45
779.866	83.73
780.043	82.88
780.221	83.86
780.398	84.28
780.576	84.3
780.753	83.97
780.931	83.37
781.108	81.78
781.286	83.53
781.463	82.29
781.64	80.36
781.818	81.93
781.995	80.87
782.172	79.03
782.35	80.87
782.527	80.11
782.704	77.67
782.882	76.47
783.059	74.82
783.236	75.69
783.413	76.57
783.59	77.61
783.768	78.69
783.945	78.75
784.122	76.97
784.299	78.57
784.476	78.43
784.653	77.67
784.83	76.86
785.007	77.8
785.184	77.53
785.361	77.28
785.538	77.6
785.715	80.47
785.892	79.31
786.069	79.33
786.246	76.4
786.423	76.79
786.6	76.09
786.776	73.14
786.953	70.39
787.13	73.21
787.307	72.54
787.484	69.87
787.66	73.33
787.837	76.29
788.014	75.93
788.191	73.07
788.367	75.25
788.544	73.6
788.721	71.54
788.897	71.21
789.074	76.53
789.25	75.71
789.427	75.88
789.603	73.21
789.78	70.19
789.956	68.38
790.133	64.04
790.309	64.12
790.486	66.89
790.662	68.42
790.839	68.58
791.015	72.91
791.192	73.33
791.368	70.9
791.544	73.69
791.721	73.06
791.897	71.7
792.073	69.84
792.249	72.01
792.426	70.2
792.602	70.08
792.778	70.77
792.954	74.1
793.13	74.62
793.307	74.82
793.483	72.38
793.659	73.99
793.835	74.91
794.011	72.2
794.187	71.31
794.363	72.42
794.539	72.29
794.715	70.37
794.891	70.47
795.067	71.4
795.243	70.91
795.419	69.49
795.595	75.08
795.771	76.06
795.947	74.62
796.122	72.11
796.298	69.77
796.474	69.29
796.65	70.58
796.826	72.94
797.001	74.85
797.177	74.3
797.353	67.73
797.529	68.64
797.704	69.67
797.88	72.62
798.056	74.56
798.231	77.07
798.407	77.28
798.582	75.43
798.758	75.54
798.934	76.54
799.109	72.49
799.285	71.04
799.46	67.67
799.636	63.02
799.811	61.76
799.986	63.05
800.162	56.83
800.337	58.52
800.513	61.45
800.688	62.12
800.863	70.39
801.039	74.75
801.214	75.7
801.389	71.46
801.565	69.3
801.74	61.6
801.915	62.34
802.09	62.56
802.265	62.8
802.441	63.83
802.616	65.5
802.791	64.42
802.966	64.31
803.141	71.78
803.316	76.16
803.491	77.07
803.666	84.39
803.841	81.15
804.016	76.53
804.191	70.6
804.366	65.38
804.541	59.33
804.716	57.58
804.891	62.03
805.066	67.38
805.241	65.51
805.416	69.53
805.591	74.76
805.765	74.43
805.94	73.21
806.115	74.37
806.29	68.31
806.464	65.54
806.639	66.65
806.814	64.88
806.989	67.54
807.163	68.93
807.338	68.94
807.512	62.45
807.687	65.51
807.862	69.2
808.036	73.27
808.211	76.15
808.385	83.66
808.56	75.62
808.734	59.76
808.909	57.07
809.083	54.17
809.258	53.34
809.432	53.4
809.606	65.29
809.781	69.44
809.955	74.3
810.13	63.75
810.304	67.17
810.478	67.64
810.652	60.85
810.827	59.18
811.001	68.82
811.175	68.1
811.349	69.01
811.524	78.26
811.698	78.28
811.872	76.66
812.046	74.12
812.22	73.9
812.394	69.12
812.568	69.38
812.742	69.41
812.916	72.06
813.09	65.94
813.264	60.98
813.438	55.8
813.612	57.23
813.786	57.48
813.96	63.57
814.134	62.38
814.308	71.21
814.482	63.7
814.656	60.12
814.83	55.09
815.003	71.35
815.177	60.11
815.351	68
815.525	72.09
815.698	66.7
815.872	44.74
816.046	47.82
816.219	40.79
816.393	35.13
816.567	43.68
816.74	52.57
816.914	63.15
817.088	69.42
817.261	67.79
817.435	71.26
817.608	74.22
817.782	59.82
817.955	51.17
818.129	51.92
818.302	53.94
818.475	54.18
818.649	56.33
818.822	56.88
818.996	70.15
819.169	65.31
819.342	60.14
819.516	68.05
819.689	71.1
819.862	64.31
820.035	70.14
820.209	62.9
820.382	52.68
820.555	46.93
820.728	46.61
820.901	33.97
821.075	39.94
821.248	42.19
821.421	53.05
821.594	43.88
821.767	46.14
821.94	51.85
822.113	58.09
822.286	55.44
822.459	68.47
822.632	71.28
822.805	72.32
822.978	72.89
823.151	66.63
823.324	54.8
823.496	44.78
823.669	49.92
823.842	50.57
824.015	55.49
824.188	51.28
824.361	57.52
824.533	53.73
824.706	58.29
824.879	52.16
825.051	61.53
825.224	58.06
825.397	54.51
825.569	42.29
825.742	62.43
825.915	67.83
826.087	65.81
826.26	58.42
826.432	63.71
826.605	44.85
826.777	47.25
826.95	55.62
827.122	53.23
827.295	56.24
827.467	56.44
827.64	42.19
827.812	34.79
827.984	23.9
828.157	7.53
828.329	18.71
828.501	11.18
828.674	22.85
828.846	23.73
829.018	34.41
829.19	19.74
829.363	28.51
829.535	26.41
829.707	30.91
829.879	30.9
830.051	43.31
830.223	50.31
830.395	42.15
830.568	50.39
830.74	58.57
830.912	56.51
831.084	46.35
831.256	43.67
831.428	39.8
831.6	20.38
831.772	15.6
831.943	4.09
832.115	-8.72
832.287	-12.84
832.459	13.6
832.631	19.37
832.803	42.32
832.975	58.38
833.146	56.7
833.318	56.17
833.49	53.94
833.662	54.6
833.833	45.85
834.005	50.21
834.177	54.14
834.348	55.56
834.52	44.65
834.692	41.84
834.863	48.13
835.035	43.3
835.206	38.78
835.378	46.48
835.549	36.84
835.721	36.65
835.892	45.5
836.064	49.82
836.235	44.37
836.407	54.6
836.578	56.01
836.749	53.74
836.921	45.06
837.092	38.53
837.264	42.25
837.435	22.34
837.606	19.8
837.777	18.62
837.949	34.13
838.12	26.59
838.291	35.77
838.462	41.24
838.633	42.67
838.805	17.78
838.976	18.14
839.147	38.83
839.318	40.93
839.489	35.87
839.66	55.12
839.831	46.99
840.002	28.62
840.173	22.32
840.344	32.18
840.515	13.16
840.686	34.2
840.857	38.01
841.028	35.75
841.199	29.22
841.369	41.34
841.54	18.84
841.711	49.11
841.882	54
842.053	61.11
842.223	46.1
842.394	43.08
842.565	23.04
842.736	18.87
842.906	8.8
843.077	31.06
843.248	55.85
843.418	39.62
843.589	33.16
843.759	49.88
843.93	42.94
844.101	15.06
844.271	35.34
844.442	55.37
844.612	44.86
844.783	42.67
844.953	37.13
845.123	26.33
845.294	2.05
845.464	-21.22
845.635	-27.17
845.805	-17.57
845.975	1.72
846.146	23.01
846.316	29.08
846.486	14.71
846.656	-1.05
846.827	4.28
846.997	11.84
847.167	16.03
847.337	28.03
847.507	41.1
847.677	35.71
847.848	43.77
848.018	47.5
848.188	64.29
848.358	66.74
848.528	71.36
848.698	37.45
848.868	49.52
849.038	29.22
849.208	39.92
849.378	47.02
849.548	66.03
849.718	38.19
849.887	57.18
850.057	9.62
850.227	10.86
850.397	25.05
850.567	32.25
850.737	20.74
850.906	17.13
851.076	-7.06
851.246	-4.47
851.415	10.32
851.585	10.3
851.755	27.95
851.924	58.55
852.094	38.6
852.264	14.2
852.433	32.35
852.603	19.73
852.772	32.35
852.942	67.14
853.111	73.36
853.281	52.72
853.45	41.51
853.62	31.67
853.789	-0.14
853.959	10.25
854.128	6.8
854.297	22.17
854.467	22.42
854.636	39.52
854.805	22.49
854.975	31.95
855.144	24.17
855.313	31.43
855.482	4.66
855.652	24.57
855.821	-20.11
855.99	2.87
856.159	-4.93
856.328	3.14
856.497	19.77
856.667	27.44
856.836	30.2
857.005	24.85
857.174	31.63
857.343	4.93
857.512	21.4
857.681	-8.06
857.85	0.95
858.019	-29.98
858.188	-20.86
858.356	1.02
858.525	34.09
858.694	36.2
858.863	38.73
859.032	40.75
859.201	25.81
859.369	11.18
859.538	19.47
859.707	21.72
859.876	38.85
860.044	57.19
860.213	60.81
860.382	52.53
860.55	31.01
860.719	35.29
860.888	20.63
861.056	6.58
861.225	2.51
861.393	28.89
861.562	0.14
861.73	0.67
861.899	-4.2
862.067	6.54
862.236	10.3
862.404	38.64
862.572	40.43
862.741	7.97
862.909	0.52
863.078	-19.86
863.246	-53.41
863.414	-20.6
863.582	-6.21
863.751	-22.19
863.919	1.95
864.087	30.38
864.255	4.85
864.424	17.74
864.592	42.33
864.76	16.54
864.928	18.31
865.096	26.26
865.264	17.85
865.432	-5.06
865.6	4.55
865.768	-11.89
865.936	-10.52
866.104	13.45
866.272	1.69
866.44	34.44
866.608	31.85
866.776	40.76
866.944	41.02
867.112	42.44
867.28	19.91
867.448	16.82
867.615	23.77
867.783	6.81
867.951	4.53
868.119	-0.6
868.286	-46.54
868.454	-25.25
868.622	-11.37
868.789	-11.98
868.957	2.55
869.125	17.45
869.292	-16.11
869.46	2.82
869.627	-20.39
869.795	-38.01
869.963	-27.58
870.13	-5.24
870.298	-19.57
870.465	1.94
870.632	7.22
870.8	18.43
870.967	17.25
871.135	7.55
871.302	1.34
871.469	18.49
871.637	-22.88
871.804	-11.04
871.971	-14.41
872.139	-14.86
872.306	-45.27
872.473	-32.59
872.64	-101.95
872.807	-76.12
872.975	-206.58
873.142	-81.57
873.309	-66.5
873.476	1.16
873.643	30.66
873.81	27.1
873.977	44.06
874.144	85.81
874.311	47.87
874.478	-0.86
874.645	-24.46
874.812	32.98
874.979	37.19
875.146	45.02
875.313	7.39
875.48	63.37
875.647	30.9
875.813	-19.73
875.98	-45.87
876.147	-99.64
876.314	-105.22
876.481	-84
876.647	9.88
876.814	38.96
876.981	57.75
877.147	66.47
877.314	63.8
877.481	37.46
877.647	-6.45
877.814	-2.61
877.98	9.35
878.147	39.27
878.314	47.95
878.48	66.68
878.647	41.75
878.813	55.36
878.979	17.41
879.146	25.17
879.312	60.07
879.479	67.82
879.645	29.86
879.811	5.31
879.978	11.49
880.144	-2.55
880.31	-34.36
880.477	-4.91
880.643	-12.97
880.809	-100.83
880.975	-109
881.142	-150.38
881.308	477.39
881.474	520.56
881.64	-43.29
881.806	-6.95
881.972	51.68
882.138	20.65
882.304	27.28
882.47	18.93
882.636	-23.17
882.802	-26.09
882.968	-15.73
883.134	0.86
883.3	-21.93
883.466	-57.62
883.632	-23.77
883.798	-90.55
883.964	-142.59
884.129	-642.36
884.295	-16.15
884.461	-69.35
884.627	-9.45
884.793	-14.43
884.958	8.89
885.124	-13.39
885.29	-73.71
885.455	-146.48
885.621	-94.41
885.787	-90.42
885.952	-102.03
886.118	-5.34
886.283	-13.41
886.449	-35.56
886.614	-28.52
886.78	4.08
886.945	-54.97
887.111	-47.31
887.276	-43.09
887.442	-136.37
887.607	-91.3
887.773	-39.76
887.938	-27.43
888.103	-31.17
888.269	3.48
888.434	-6.62
888.599	-30.97
888.764	-26.26
888.93	-20.87
889.095	-40.75
889.26	-73.11
889.425	-77.62
889.59	-148.06
889.756	-116.15
889.921	-55.06
890.086	-55.73
890.251	5.88
890.416	21.84
890.581	0.25
890.746	22.98
890.911	16.23
891.076	0.38
891.241	-20.31
891.406	-16.97
891.571	-42.22
891.736	-127.69
891.901	-24.45
892.065	-10.54
892.23	16.07
892.395	-45.95
892.56	-16.69
892.725	-52.05
892.889	-74.67
893.054	1.93
893.219	12.99
893.384	-17.5
893.548	-59.83
893.713	-64.37
893.878	-218.22
