Data from Ofra_2a_PS_6CX18_Reflection_3.txt Node
Date: Tue Jul 20 09:52:21 EDT 2021
User: Adam
Spectrometer: FLMT01687
Trigger mode: 0
Integration Time (sec): 9.450000E-1
Scans to average: 3
Electric dark correction enabled: true
Nonlinearity correction enabled: false
Boxcar width: 3
XAxis mode: Wavelengths
Number of Pixels in Spectrum: 3648
>>>>>Begin Spectral Data<<<<<
179.494	885.21
179.716	406.78
179.937	522.53
180.158	1813.67
180.38	-885.76
180.601	-73.51
180.823	-13.08
181.044	65.84
181.265	-182.18
181.486	50.53
181.708	-1564.13
181.929	43.37
182.15	96.02
182.372	-46.66
182.593	-66.87
182.814	443.86
183.035	327.38
183.257	185.78
183.478	93.99
183.699	87
183.92	66.47
184.141	58.92
184.363	44.71
184.584	33.99
184.805	45.81
185.026	30.34
185.247	2.59
185.468	21.28
185.689	41.82
185.91	38.1
186.132	36.06
186.353	26.41
186.574	35.16
186.795	23.11
187.016	16.68
187.237	12.55
187.458	7.17
187.679	-13.16
187.9	1.69
188.121	9.25
188.342	43.94
188.563	59.8
188.784	56.85
189.005	64.45
189.226	70.83
189.447	57.76
189.667	52.37
189.888	55.04
190.109	39.18
190.33	33.7
190.551	29.96
190.772	24.09
190.993	37.3
191.214	32.94
191.434	29
191.655	38.44
191.876	37.41
192.097	41.88
192.318	48.82
192.538	49.98
192.759	50.98
192.98	40.3
193.201	52.08
193.421	52.7
193.642	42.16
193.863	36.62
194.083	24.48
194.304	30.3
194.525	51.44
194.745	23.74
194.966	27.55
195.187	44.94
195.407	40.91
195.628	38.54
195.848	41.76
196.069	37.04
196.29	31.03
196.51	22.96
196.731	18.31
196.951	11.94
197.172	9.63
197.392	15.21
197.613	5.89
197.833	15.52
198.054	14.77
198.274	6.37
198.495	25.61
198.715	6.81
198.936	6.62
199.156	27.18
199.377	25.24
199.597	35.68
199.817	42.24
200.038	29.4
200.258	35.98
200.479	37.65
200.699	23.1
200.919	13.35
201.14	13.03
201.36	9.25
201.58	10.9
201.801	15.27
202.021	22.42
202.241	26.88
202.461	37.15
202.682	46.31
202.902	42.96
203.122	44.48
203.342	56.76
203.563	50.55
203.783	57.47
204.003	53.84
204.223	39.46
204.443	37.92
204.663	41.38
204.884	36.73
205.104	33.35
205.324	38.45
205.544	38.8
205.764	48.6
205.984	55.23
206.204	54.61
206.424	43.29
206.644	43.2
206.864	39.89
207.084	44.63
207.304	39.89
207.525	45.57
207.745	43.46
207.964	49.96
208.184	45.38
208.404	37.44
208.624	20.25
208.844	14.19
209.064	7.99
209.284	18.67
209.504	20.75
209.724	23.19
209.944	24.87
210.164	25.91
210.384	49.57
210.604	54.45
210.823	36.44
211.043	27.95
211.263	28.96
211.483	29.57
211.703	45.6
211.922	40.35
212.142	40.94
212.362	45.04
212.582	48.9
212.801	44.3
213.021	50.08
213.241	38.05
213.461	34.49
213.68	32.12
213.9	34.94
214.12	33.21
214.339	40
214.559	52.42
214.779	60.88
214.998	51.64
215.218	54.89
215.438	50.46
215.657	50.87
215.877	47.52
216.096	32.06
216.316	25.91
216.535	31.7
216.755	21.62
216.974	24.01
217.194	24.25
217.413	33.82
217.633	32.06
217.852	42.59
218.072	36.38
218.291	46.93
218.511	43.83
218.73	39.4
218.95	33.73
219.169	51.01
219.389	42.21
219.608	63.77
219.827	62.96
220.047	78.91
220.266	79.92
220.485	82.95
220.705	53.15
220.924	49.58
221.143	31.54
221.363	34.91
221.582	27.85
221.801	25.37
222.021	13.75
222.24	25.97
222.459	30.2
222.678	23.43
222.897	20.19
223.117	10.85
223.336	-2.39
223.555	-3.22
223.774	-2.55
223.993	14.06
224.213	30.22
224.432	30.94
224.651	46.33
224.87	61.33
225.089	63.63
225.308	66.77
225.527	56.03
225.746	47.06
225.965	39.41
226.184	29.8
226.404	12.33
226.623	17.3
226.842	2.59
227.061	16.99
227.28	23.62
227.499	31.87
227.718	31.37
227.936	35.09
228.155	28.05
228.374	34.84
228.593	21.08
228.812	19.27
229.031	10.93
229.25	21.57
229.469	28.46
229.688	40.04
229.907	36.57
230.125	45.32
230.344	47.6
230.563	59.03
230.782	48.51
231.001	52.28
231.22	49.02
231.438	45.55
231.657	45.55
231.876	43.63
232.095	37.26
232.313	43.51
232.532	36.03
232.751	37.57
232.969	45.6
233.188	40.49
233.407	37.18
233.625	33.54
233.844	36.59
234.063	36.51
234.281	26
234.5	22.02
234.719	17.29
234.937	21.47
235.156	25.2
235.374	15.22
235.593	13.16
235.811	23.03
236.03	19.88
236.249	38.3
236.467	30.97
236.686	33.99
236.904	34.88
237.123	38.49
237.341	36.27
237.559	41.88
237.778	41.08
237.996	42.54
238.215	38.84
238.433	42.62
238.652	36.06
238.87	42.3
239.088	36.05
239.307	32.97
239.525	24.17
239.743	19.91
239.962	14.95
240.18	25.68
240.398	13.34
240.617	19.85
240.835	21.24
241.053	29.36
241.271	38.35
241.49	28.24
241.708	25.58
241.926	22.13
242.144	26.33
242.363	22.25
242.581	28.52
242.799	15.08
243.017	24.73
243.235	20.77
243.453	28.36
243.672	27.87
243.89	32.88
244.108	32.3
244.326	27.19
244.544	33.43
244.762	42.9
244.98	34.34
245.198	24.09
245.416	24.08
245.634	26.71
245.852	49.15
246.07	57.23
246.288	43.81
246.506	61.59
246.724	72.48
246.942	68.64
247.16	69.34
247.378	45.71
247.596	31.98
247.814	25.52
248.032	22.56
248.25	22.65
248.468	26.12
248.685	20.67
248.903	29.45
249.121	31.83
249.339	49.3
249.557	49.17
249.775	25.08
249.992	19.09
250.21	13.49
250.428	14.7
250.646	20
250.863	10.04
251.081	14.15
251.299	41.53
251.517	47.92
251.734	46.73
251.952	47.11
252.17	34.14
252.387	29.85
252.605	17.19
252.823	-0.11
253.04	-7.25
253.258	-4.65
253.475	2.09
253.693	21.41
253.911	30.93
254.128	35.76
254.346	36.45
254.563	40.57
254.781	43.28
254.998	41.38
255.216	33.71
255.433	36.2
255.651	31.43
255.868	37.92
256.086	30.88
256.303	37.93
256.521	33.14
256.738	40.95
256.956	30.32
257.173	30.32
257.39	28.33
257.608	35.92
257.825	23.67
258.043	28.96
258.26	28.27
258.477	35.16
258.695	36.4
258.912	46.85
259.129	27.42
259.346	35.71
259.564	38.36
259.781	39.22
259.998	34.14
260.216	40.16
260.433	27.98
260.65	41.48
260.867	28.83
261.084	25.94
261.302	13.19
261.519	4.01
261.736	-6.27
261.953	2.13
262.17	6.5
262.387	6.66
262.604	-1.01
262.822	16.72
263.039	29.84
263.256	34.98
263.473	29.92
263.69	34.16
263.907	47.88
264.124	39.94
264.341	33.58
264.558	30.73
264.775	31.7
264.992	24.04
265.209	28.93
265.426	23.05
265.643	29.81
265.86	24.61
266.077	24.99
266.294	27.53
266.51	40.15
266.727	35.73
266.944	32.25
267.161	28
267.378	43.26
267.595	28.3
267.812	12.35
268.028	8.96
268.245	10.71
268.462	21.85
268.679	25.57
268.896	14.23
269.112	27.44
269.329	37.68
269.546	31.33
269.763	33.82
269.979	32
270.196	35.11
270.413	43.8
270.629	43.14
270.846	39.84
271.063	39.19
271.279	34.7
271.496	29.91
271.712	22.11
271.929	27.74
272.146	26.91
272.362	19.03
272.579	23.99
272.795	15.68
273.012	13.52
273.228	20.53
273.445	11.29
273.661	7.01
273.878	15.87
274.094	13.62
274.311	22.77
274.527	26.26
274.744	23.3
274.96	28.85
275.177	30.45
275.393	32.53
275.609	46.7
275.826	40.25
276.042	46.42
276.259	44.5
276.475	42.09
276.691	46.41
276.908	37.2
277.124	30.33
277.34	29.94
277.557	35.08
277.773	27.87
277.989	25.07
278.205	3.85
278.422	9.81
278.638	12.04
278.854	15.82
279.07	-0.41
279.286	9.09
279.503	15.06
279.719	42.3
279.935	43.01
280.151	47.42
280.367	51.06
280.583	56.05
280.799	56.01
281.016	51.77
281.232	43.45
281.448	33.35
281.664	24.72
281.88	35.04
282.096	41.87
282.312	38.04
282.528	37.41
282.744	33.6
282.96	47.43
283.176	48.94
283.392	54.8
283.608	47.83
283.824	46.4
284.04	44.82
284.256	51.96
284.471	47.43
284.687	43.57
284.903	29.75
285.119	13.3
285.335	14.28
285.551	24.35
285.767	27.61
285.982	25.55
286.198	21.55
286.414	23.95
286.63	42.73
286.846	44.36
287.061	38.88
287.277	33.17
287.493	34.38
287.709	33.81
287.924	41.69
288.14	37.49
288.356	39.11
288.571	28.6
288.787	27.77
289.003	24.52
289.218	34.84
289.434	32.86
289.65	40.43
289.865	50.02
290.081	48.35
290.296	47.75
290.512	56.71
290.727	63.8
290.943	49.46
291.159	39.9
291.374	34.47
291.59	27.6
291.805	28.84
292.021	16.66
292.236	8.04
292.451	21.96
292.667	24.59
292.882	15.24
293.098	15.65
293.313	10.03
293.529	10.39
293.744	6.8
293.959	7.69
294.175	7.2
294.39	15.74
294.605	30.84
294.821	26.01
295.036	36.86
295.251	39.24
295.467	34.51
295.682	29.71
295.897	21.92
296.112	23.24
296.328	29.81
296.543	29.15
296.758	26.5
296.973	38.46
297.188	36.41
297.404	37.63
297.619	36.49
297.834	40.53
298.049	29.76
298.264	33.32
298.479	12.86
298.694	23.63
298.909	28.93
299.125	25.53
299.34	17.31
299.555	23.31
299.77	18.64
299.985	24.33
300.2	22.92
300.415	23.48
300.63	19.41
300.845	30.56
301.06	22.8
301.275	30.93
301.49	34.44
301.704	24.24
301.919	18.6
302.134	20.35
302.349	2.15
302.564	10.32
302.779	2.09
302.994	-8.14
303.209	-1.8
303.423	10.27
303.638	14.03
303.853	34.39
304.068	29.98
304.283	34.58
304.497	41.61
304.712	41.62
304.927	28.36
305.142	27
305.356	26.22
305.571	26.2
305.786	13.39
306	25.42
306.215	24.95
306.43	42.14
306.644	44.45
306.859	42.6
307.074	39.45
307.288	52.9
307.503	41.23
307.717	42.35
307.932	36.19
308.147	34.32
308.361	34.14
308.576	35.33
308.79	33.45
309.005	39.26
309.219	42.92
309.434	39.86
309.648	36.04
309.863	32.38
310.077	27.79
310.292	22.57
310.506	26.99
310.72	22.59
310.935	31.46
311.149	32.84
311.364	40.25
311.578	42.37
311.792	40.31
312.007	31.98
312.221	33.85
312.435	28.16
312.649	-1.15
312.864	-10.04
313.078	6.01
313.292	4.58
313.507	26.14
313.721	20.7
313.935	34.06
314.149	59.23
314.363	60.91
314.578	74.37
314.792	78.82
315.006	70.86
315.22	72.81
315.434	58.86
315.648	56.08
315.862	52.18
316.077	35.75
316.291	43.51
316.505	40.08
316.719	21.99
316.933	32.69
317.147	28.86
317.361	27.64
317.575	36.79
317.789	30.93
318.003	29.05
318.217	42.33
318.431	40.25
318.645	42.59
318.859	33.1
319.073	22.27
319.287	20.36
319.5	15.94
319.714	10.35
319.928	10.53
320.142	14.34
320.356	37.63
320.57	38.26
320.784	41.87
320.997	47.91
321.211	49.66
321.425	49.01
321.639	38.82
321.853	25.95
322.066	30.27
322.28	34.89
322.494	31.6
322.707	32.04
322.921	29.13
323.135	44.18
323.349	42.26
323.562	39.69
323.776	36.61
323.989	32.83
324.203	37.87
324.417	37.27
324.63	27.67
324.844	29.28
325.057	33.43
325.271	25.27
325.485	34.89
325.698	32.16
325.912	36.05
326.125	42.21
326.339	46.84
326.552	46.72
326.766	57.93
326.979	59.94
327.193	62.91
327.406	60.84
327.619	38.87
327.833	38.28
328.046	35.54
328.26	22.53
328.473	27.79
328.686	33.38
328.9	29.16
329.113	35.94
329.326	31.5
329.54	33.55
329.753	39.28
329.966	32.65
330.179	25.49
330.393	28.38
330.606	41.85
330.819	45.99
331.032	46.72
331.246	48.34
331.459	47.97
331.672	51.3
331.885	44.06
332.098	41.71
332.311	31.67
332.525	29.37
332.738	23.88
332.951	21.36
333.164	8.15
333.377	12.91
333.59	19.68
333.803	23.27
334.016	20.67
334.229	33.49
334.442	49.14
334.655	59.57
334.868	63.74
335.081	56.52
335.294	57.3
335.507	52.43
335.72	36.91
335.933	33.79
336.146	28.83
336.359	22.23
336.572	17.98
336.785	20.49
336.997	13.7
337.21	21.8
337.423	10.61
337.636	14.41
337.849	17.93
338.062	24.09
338.274	26.19
338.487	33.56
338.7	31.6
338.913	31.42
339.125	36.03
339.338	44.33
339.551	42.38
339.763	37.54
339.976	35.41
340.189	34.98
340.402	38.58
340.614	38.82
340.827	27.94
341.039	26.4
341.252	26.19
341.465	24.34
341.677	13.99
341.89	12.3
342.102	9.58
342.315	16.75
342.527	13.99
342.74	19.77
342.952	23.52
343.165	39.8
343.377	45.74
343.59	50.92
343.802	48.04
344.015	46.03
344.227	32.4
344.44	30.55
344.652	30.75
344.864	26.38
345.077	17.65
345.289	12
345.502	12.77
345.714	13.14
345.926	14.6
346.139	13.57
346.351	-6.67
346.563	6.68
346.775	12.96
346.988	16.75
347.2	26.22
347.412	17.82
347.624	21.14
347.837	32.39
348.049	28.2
348.261	25.62
348.473	17.69
348.685	21.63
348.897	21.18
349.11	21.83
349.322	14.47
349.534	8.36
349.746	14.99
349.958	18.75
350.17	26.46
350.382	24.32
350.594	34.5
350.806	49.59
351.018	55.5
351.23	52.02
351.442	49.11
351.654	43.21
351.866	54.79
352.078	38.09
352.29	38.02
352.502	33.7
352.714	32.22
352.926	33.83
353.138	25.74
353.35	15.71
353.561	14.84
353.773	13.14
353.985	12.97
354.197	11.62
354.409	17.27
354.621	19.24
354.832	18.26
355.044	37.64
355.256	31.38
355.468	38.84
355.679	37.67
355.891	27.99
356.103	32.5
356.314	37.51
356.526	27.65
356.738	23.2
356.949	21.34
357.161	9.78
357.373	17.4
357.584	22.93
357.796	18.2
358.008	16.43
358.219	33.22
358.431	29.4
358.642	36.19
358.854	32.22
359.065	25.66
359.277	18.3
359.488	11.21
359.7	10.53
359.911	17.03
360.123	29.17
360.334	28.02
360.546	21.45
360.757	36.85
360.969	48.86
361.18	34.92
361.391	28.75
361.603	22.54
361.814	22.34
362.025	27.01
362.237	23.24
362.448	22.6
362.659	23.02
362.871	23.26
363.082	26.23
363.293	28.75
363.504	33.79
363.716	28.36
363.927	30.31
364.138	32.96
364.349	35.29
364.56	28.09
364.772	31.33
364.983	20.21
365.194	18.76
365.405	14.85
365.616	17.68
365.827	14.42
366.038	24.57
366.25	21.44
366.461	33.95
366.672	33.25
366.883	35.35
367.094	34.11
367.305	29.54
367.516	29.47
367.727	27.76
367.938	27.75
368.149	34.82
368.36	27.46
368.571	24.78
368.781	24.45
368.992	18.94
369.203	16.29
369.414	12.57
369.625	11.68
369.836	12.78
370.047	14.58
370.258	16.59
370.468	14.89
370.679	15.02
370.89	26.02
371.101	20.91
371.312	22.82
371.522	24.55
371.733	21.11
371.944	27.83
372.155	25.32
372.365	7.2
372.576	4.99
372.787	6
372.997	6.07
373.208	12.71
373.419	14.88
373.629	26.12
373.84	32.26
374.05	43.8
374.261	33.51
374.472	31.49
374.682	20.15
374.893	7.26
375.103	2.73
375.314	0.6
375.524	-0.39
375.735	7.34
375.945	12.04
376.156	25.56
376.366	34.05
376.577	34.77
376.787	42.89
376.997	44.95
377.208	39.77
377.418	35.51
377.629	28.32
377.839	30.26
378.049	32.05
378.26	32.46
378.47	32.44
378.68	30.09
378.89	24.21
379.101	18.21
379.311	13.82
379.521	9.11
379.732	-2.52
379.942	-2.84
380.152	8.61
380.362	14.07
380.572	21.52
380.783	23.63
380.993	21.78
381.203	25.41
381.413	24.79
381.623	25.58
381.833	22.56
382.043	17.52
382.253	21.38
382.463	27.98
382.674	32.79
382.884	27.72
383.094	21.56
383.304	25.78
383.514	27.87
383.724	20
383.934	15.38
384.144	13.18
384.353	15.58
384.563	15.54
384.773	15.59
384.983	15.62
385.193	18.63
385.403	19.64
385.613	15.73
385.823	14.5
386.033	13.03
386.242	11.48
386.452	9.27
386.662	10.43
386.872	11.88
387.082	10.77
387.291	9.67
387.501	13.1
387.711	13.37
387.921	14.69
388.13	11.09
388.34	12.82
388.55	14.52
388.759	13.83
388.969	10.98
389.179	13.33
389.388	11.41
389.598	8.95
389.807	7.05
390.017	6.47
390.227	4.64
390.436	4.9
390.646	3.27
390.855	4.81
391.065	7.1
391.274	4.94
391.484	5.72
391.693	9.75
391.903	8.92
392.112	7.96
392.322	8.87
392.531	8.71
392.74	7.89
392.95	8.98
393.159	6.73
393.369	6.55
393.578	7.08
393.787	5.69
393.997	6.35
394.206	7.2
394.415	6.87
394.625	6.13
394.834	5.98
395.043	6.07
395.252	6.05
395.462	6.11
395.671	6.82
395.88	6.86
396.089	7.42
396.298	7.72
396.508	7.42
396.717	6.85
396.926	6.62
397.135	5.6
397.344	4.83
397.553	5.17
397.762	4.79
397.971	4.52
398.181	4.22
398.39	3.98
398.599	4.32
398.808	4.67
399.017	4.6
399.226	4.8
399.435	4.63
399.644	5.09
399.853	4.97
400.062	4.83
400.27	4.8
400.479	4.4
400.688	4.44
400.897	4.72
401.106	4.95
401.315	4.87
401.524	5.02
401.733	4.85
401.941	5.02
402.15	4.85
402.359	4.72
402.568	4.57
402.777	4.63
402.985	4.53
403.194	4.64
403.403	4.55
403.612	4.56
403.82	4.51
404.029	4.43
404.238	4.51
404.446	4.4
404.655	4.19
404.864	4.16
405.072	4.14
405.281	4.08
405.489	4.07
405.698	3.95
405.906	3.92
406.115	4.14
406.324	4.08
406.532	4.14
406.741	4.24
406.949	4.23
407.158	4.3
407.366	4.39
407.574	4.31
407.783	4.26
407.991	4.18
408.2	4.17
408.408	4.17
408.617	4.14
408.825	4.16
409.033	4.14
409.242	4.18
409.45	4.19
409.658	4.1
409.867	4.07
410.075	4.03
410.283	3.89
410.491	3.83
410.7	3.88
410.908	3.88
411.116	3.86
411.324	3.86
411.533	3.77
411.741	3.79
411.949	3.85
412.157	3.84
412.365	3.9
412.573	3.95
412.781	3.94
412.99	4.06
413.198	4.13
413.406	4.08
413.614	4.11
413.822	4.01
414.03	3.91
414.238	3.98
414.446	3.89
414.654	3.79
414.862	3.78
415.07	3.71
415.278	3.63
415.486	3.78
415.694	3.66
415.902	3.66
416.109	3.71
416.317	3.69
416.525	3.85
416.733	3.95
416.941	3.82
417.149	4
417.357	3.97
417.564	3.9
417.772	3.93
417.98	3.74
418.188	3.62
418.395	3.64
418.603	3.46
418.811	3.43
419.019	3.52
419.226	3.54
419.434	3.46
419.642	3.47
419.849	3.43
420.057	3.46
420.265	3.51
420.472	3.46
420.68	3.44
420.887	3.51
421.095	3.61
421.302	3.66
421.51	3.77
421.717	3.77
421.925	3.76
422.132	3.69
422.34	3.67
422.547	3.56
422.755	3.6
422.962	3.47
423.17	3.39
423.377	3.47
423.585	3.5
423.792	3.44
423.999	3.48
424.207	3.37
424.414	3.37
424.621	3.45
424.829	3.31
425.036	3.28
425.243	3.37
425.451	3.37
425.658	3.44
425.865	3.46
426.072	3.47
426.28	3.59
426.487	3.55
426.694	3.5
426.901	3.43
427.108	3.47
427.315	3.5
427.523	3.55
427.73	3.57
427.937	3.7
428.144	3.76
428.351	3.91
428.558	3.84
428.765	3.78
428.972	3.75
429.179	3.65
429.386	3.68
429.593	3.63
429.8	3.67
430.007	3.77
430.214	3.78
430.421	3.76
430.628	3.7
430.835	3.65
431.042	3.69
431.249	3.64
431.456	3.58
431.662	3.66
431.869	3.74
432.076	3.92
432.283	3.91
432.49	3.91
432.697	3.91
432.903	3.94
433.11	3.99
433.317	4
433.524	3.84
433.73	3.87
433.937	3.87
434.144	3.97
434.35	3.97
434.557	3.93
434.764	3.92
434.97	4.11
435.177	4.1
435.384	4.23
435.59	4.17
435.797	4.21
436.003	4.2
436.21	4.17
436.416	4.11
436.623	4.18
436.829	4.11
437.036	4.11
437.242	4.11
437.449	4.15
437.655	4.18
437.862	4.21
438.068	4.2
438.275	4.2
438.481	4.3
438.687	4.39
438.894	4.35
439.1	4.35
439.307	4.36
439.513	4.35
439.719	4.4
439.926	4.37
440.132	4.36
440.338	4.4
440.544	4.43
440.751	4.49
440.957	4.52
441.163	4.54
441.369	4.52
441.575	4.54
441.782	4.49
441.988	4.5
442.194	4.51
442.4	4.56
442.606	4.58
442.812	4.64
443.018	4.69
443.224	4.8
443.431	4.81
443.637	4.79
443.843	4.79
444.049	4.74
444.255	4.72
444.461	4.67
444.667	4.61
444.873	4.66
445.079	4.66
445.284	4.6
445.49	4.61
445.696	4.67
445.902	4.71
446.108	4.72
446.314	4.73
446.52	4.76
446.726	4.87
446.931	4.95
447.137	4.92
447.343	4.88
447.549	4.88
447.755	4.85
447.96	4.85
448.166	4.87
448.372	4.85
448.578	4.85
448.783	4.85
448.989	4.94
449.195	4.99
449.4	5.02
449.606	4.95
449.812	5
450.017	5.01
450.223	5.05
450.428	5.06
450.634	5.09
450.84	5.11
451.045	5.14
451.251	5.17
451.456	5.18
451.662	5.21
451.867	5.18
452.073	5.15
452.278	5.18
452.483	5.19
452.689	5.2
452.894	5.24
453.1	5.22
453.305	5.26
453.51	5.3
453.716	5.32
453.921	5.35
454.127	5.31
454.332	5.35
454.537	5.43
454.742	5.46
454.948	5.46
455.153	5.46
455.358	5.51
455.563	5.55
455.769	5.54
455.974	5.5
456.179	5.45
456.384	5.47
456.589	5.46
456.795	5.4
457	5.44
457.205	5.42
457.41	5.43
457.615	5.51
457.82	5.59
458.025	5.59
458.23	5.68
458.435	5.63
458.64	5.72
458.845	5.71
459.05	5.75
459.255	5.69
459.46	5.71
459.665	5.74
459.87	5.82
460.075	5.79
460.28	5.87
460.485	5.88
460.69	5.88
460.895	5.91
461.099	5.89
461.304	5.9
461.509	5.88
461.714	5.89
461.919	5.86
462.123	5.95
462.328	6
462.533	6.03
462.738	6.02
462.942	6.13
463.147	6.17
463.352	6.23
463.556	6.22
463.761	6.2
463.966	6.27
464.17	6.32
464.375	6.27
464.58	6.26
464.784	6.31
464.989	6.34
465.193	6.39
465.398	6.42
465.602	6.46
465.807	6.57
466.011	6.6
466.216	6.65
466.42	6.7
466.625	6.72
466.829	6.74
467.034	6.75
467.238	6.76
467.443	6.81
467.647	6.78
467.851	6.76
468.056	6.73
468.26	6.69
468.464	6.71
468.669	6.73
468.873	6.69
469.077	6.73
469.282	6.77
469.486	6.85
469.69	6.87
469.894	6.93
470.099	6.96
470.303	6.96
470.507	6.98
470.711	7.02
470.915	7.09
471.119	7.13
471.324	7.09
471.528	7.07
471.732	7.15
471.936	7.22
472.14	7.19
472.344	7.19
472.548	7.24
472.752	7.29
472.956	7.38
473.16	7.36
473.364	7.3
473.568	7.34
473.772	7.36
473.976	7.34
474.18	7.33
474.384	7.26
474.588	7.31
474.792	7.36
474.995	7.38
475.199	7.41
475.403	7.43
475.607	7.5
475.811	7.56
476.015	7.63
476.218	7.65
476.422	7.7
476.626	7.69
476.83	7.7
477.033	7.68
477.237	7.64
477.441	7.62
477.644	7.66
477.848	7.64
478.052	7.63
478.255	7.67
478.459	7.75
478.663	7.81
478.866	7.83
479.07	7.84
479.273	7.88
479.477	7.91
479.681	7.89
479.884	7.83
480.088	7.82
480.291	7.82
480.495	7.81
480.698	7.77
480.901	7.77
481.105	7.82
481.308	7.84
481.512	7.85
481.715	7.8
481.919	7.82
482.122	7.84
482.325	7.87
482.529	7.91
482.732	7.95
482.935	7.95
483.138	7.99
483.342	8.01
483.545	8
483.748	8
483.952	7.96
484.155	7.97
484.358	8.01
484.561	8.05
484.764	8.02
484.967	8.09
485.171	8.09
485.374	8.11
485.577	8.11
485.78	8.1
485.983	8.1
486.186	8.1
486.389	8.04
486.592	8.04
486.795	8.02
486.998	7.98
487.201	7.98
487.404	8.04
487.607	8.07
487.81	8.1
488.013	8.12
488.216	8.11
488.419	8.15
488.622	8.14
488.825	8.06
489.028	8.05
489.231	8.04
489.433	7.98
489.636	7.94
489.839	7.91
490.042	7.92
490.245	7.94
490.447	7.94
490.65	7.96
490.853	8.02
491.056	8.07
491.258	8.1
491.461	8.09
491.664	8.05
491.866	8.02
492.069	8.01
492.272	7.97
492.474	7.94
492.677	7.9
492.879	7.91
493.082	7.94
493.285	7.96
493.487	7.96
493.69	7.95
493.892	7.98
494.095	7.96
494.297	7.97
494.5	7.97
494.702	7.96
494.905	7.96
495.107	7.95
495.309	7.9
495.512	7.96
495.714	7.97
495.917	7.95
496.119	8.01
496.321	8.01
496.524	8.06
496.726	8.05
496.928	8.04
497.13	8.03
497.333	8.08
497.535	8.04
497.737	8.04
497.939	8.01
498.142	7.99
498.344	7.98
498.546	8
498.748	7.94
498.95	7.91
499.152	7.86
499.355	7.84
499.557	7.91
499.759	7.94
499.961	7.9
500.163	7.95
500.365	7.94
500.567	7.96
500.769	7.98
500.971	7.94
501.173	7.89
501.375	7.89
501.577	7.86
501.779	7.92
501.981	7.92
502.183	7.89
502.385	7.87
502.587	7.86
502.788	7.84
502.99	7.83
503.192	7.81
503.394	7.84
503.596	7.84
503.798	7.9
503.999	7.91
504.201	7.94
504.403	7.98
504.605	7.97
504.806	7.93
505.008	7.96
505.21	7.93
505.411	7.96
505.613	7.99
505.815	7.99
506.016	8.02
506.218	8.03
506.42	8.01
506.621	8.02
506.823	8.02
507.024	8
507.226	8
507.427	7.97
507.629	7.97
507.83	7.92
508.032	7.94
508.233	7.93
508.435	7.9
508.636	7.86
508.838	7.88
509.039	7.89
509.24	7.94
509.442	7.89
509.643	7.87
509.845	7.89
510.046	7.89
510.247	7.93
510.448	7.96
510.65	7.98
510.851	8.04
511.052	8.06
511.254	8.05
511.455	8.06
511.656	8
511.857	7.95
512.058	7.94
512.26	7.91
512.461	7.9
512.662	7.87
512.863	7.86
513.064	7.85
513.265	7.89
513.466	7.92
513.667	7.92
513.868	7.92
514.069	7.96
514.27	7.97
514.471	7.98
514.672	7.94
514.873	7.89
515.074	7.89
515.275	7.89
515.476	7.91
515.677	7.92
515.878	7.95
516.079	7.97
516.28	7.94
516.481	7.93
516.682	7.95
516.882	7.91
517.083	7.9
517.284	7.85
517.485	7.85
517.686	7.83
517.886	7.84
518.087	7.8
518.288	7.81
518.488	7.83
518.689	7.85
518.89	7.89
519.091	7.92
519.291	7.91
519.492	7.95
519.692	7.94
519.893	7.92
520.094	7.92
520.294	7.88
520.495	7.9
520.695	7.93
520.896	7.91
521.096	7.91
521.297	7.91
521.497	7.91
521.698	7.95
521.898	7.96
522.099	7.94
522.299	7.94
522.499	7.94
522.7	7.97
522.9	7.95
523.101	7.93
523.301	7.91
523.501	7.95
523.702	7.94
523.902	7.97
524.102	7.94
524.302	7.96
524.503	7.98
524.703	7.99
524.903	7.98
525.103	8.02
525.304	8.04
525.504	8.05
525.704	8.05
525.904	8.03
526.104	8.04
526.304	8.01
526.504	7.99
526.705	7.98
526.905	7.99
527.105	7.99
527.305	7.97
527.505	7.96
527.705	7.96
527.905	7.93
528.105	7.91
528.305	7.93
528.505	7.95
528.705	7.95
528.905	7.94
529.105	7.94
529.304	7.98
529.504	8
529.704	7.97
529.904	7.97
530.104	7.98
530.304	7.98
530.503	7.99
530.703	7.96
530.903	7.93
531.103	7.94
531.303	7.98
531.502	7.96
531.702	7.94
531.902	7.93
532.101	7.95
532.301	7.93
532.501	7.94
532.7	7.9
532.9	7.92
533.1	7.91
533.299	7.94
533.499	7.95
533.698	7.99
533.898	7.99
534.097	8
534.297	8.02
534.496	8.03
534.696	8.01
534.895	8.02
535.095	8.03
535.294	8
535.494	8.02
535.693	8.02
535.892	8.02
536.092	8.01
536.291	8
536.491	8
536.69	8.03
536.889	8.01
537.088	8
537.288	8.03
537.487	8.05
537.686	8.04
537.886	8.02
538.085	8.03
538.284	8.05
538.483	8.09
538.682	8.07
538.882	8.09
539.081	8.11
539.28	8.11
539.479	8.14
539.678	8.15
539.877	8.16
540.076	8.19
540.275	8.19
540.474	8.19
540.673	8.23
540.872	8.23
541.071	8.25
541.27	8.21
541.469	8.21
541.668	8.23
541.867	8.25
542.066	8.25
542.265	8.25
542.464	8.26
542.663	8.35
542.862	8.37
543.06	8.4
543.259	8.41
543.458	8.43
543.657	8.46
543.856	8.47
544.054	8.44
544.253	8.42
544.452	8.4
544.651	8.41
544.849	8.39
545.048	8.42
545.247	8.42
545.445	8.41
545.644	8.45
545.843	8.47
546.041	8.51
546.24	8.56
546.438	8.59
546.637	8.62
546.836	8.63
547.034	8.63
547.233	8.68
547.431	8.68
547.63	8.73
547.828	8.73
548.027	8.72
548.225	8.77
548.423	8.83
548.622	8.84
548.82	8.89
549.019	8.87
549.217	8.92
549.415	9
549.614	9
549.812	9.01
550.01	9
550.209	9.04
550.407	9.12
550.605	9.12
550.803	9.12
551.002	9.16
551.2	9.22
551.398	9.27
551.596	9.31
551.794	9.33
551.993	9.34
552.191	9.42
552.389	9.47
552.587	9.47
552.785	9.54
552.983	9.57
553.181	9.59
553.379	9.66
553.577	9.71
553.775	9.76
553.973	9.85
554.171	9.86
554.369	9.86
554.567	9.92
554.765	9.97
554.963	9.98
555.161	10.03
555.359	9.99
555.557	10.06
555.755	10.1
555.952	10.13
556.15	10.17
556.348	10.26
556.546	10.3
556.744	10.39
556.941	10.46
557.139	10.54
557.337	10.63
557.535	10.69
557.732	10.74
557.93	10.8
558.128	10.86
558.325	10.92
558.523	10.98
558.721	11.03
558.918	11.06
559.116	11.11
559.313	11.22
559.511	11.25
559.708	11.3
559.906	11.36
560.104	11.44
560.301	11.51
560.498	11.55
560.696	11.61
560.893	11.68
561.091	11.75
561.288	11.84
561.486	11.87
561.683	11.95
561.88	12.02
562.078	12.03
562.275	12.14
562.473	12.19
562.67	12.23
562.867	12.31
563.064	12.4
563.262	12.5
563.459	12.59
563.656	12.67
563.853	12.74
564.051	12.77
564.248	12.8
564.445	12.82
564.642	12.89
564.839	12.97
565.036	13.03
565.234	13.12
565.431	13.21
565.628	13.33
565.825	13.4
566.022	13.44
566.219	13.49
566.416	13.52
566.613	13.59
566.81	13.63
567.007	13.64
567.204	13.7
567.401	13.76
567.598	13.77
567.795	13.84
567.991	13.87
568.188	13.93
568.385	13.99
568.582	14.08
568.779	14.16
568.976	14.28
569.172	14.34
569.369	14.39
569.566	14.48
569.763	14.54
569.96	14.52
570.156	14.54
570.353	14.55
570.55	14.59
570.746	14.63
570.943	14.69
571.14	14.74
571.336	14.8
571.533	14.86
571.729	14.88
571.926	14.91
572.123	14.95
572.319	14.96
572.516	14.99
572.712	15.05
572.909	15.08
573.105	15.18
573.302	15.19
573.498	15.23
573.695	15.25
573.891	15.28
574.087	15.29
574.284	15.27
574.48	15.26
574.677	15.32
574.873	15.38
575.069	15.41
575.266	15.41
575.462	15.47
575.658	15.58
575.854	15.59
576.051	15.61
576.247	15.62
576.443	15.65
576.639	15.7
576.835	15.61
577.032	15.56
577.228	15.58
577.424	15.61
577.62	15.61
577.816	15.65
578.012	15.65
578.208	15.76
578.404	15.8
578.6	15.75
578.796	15.73
578.993	15.71
579.189	15.66
579.384	15.65
579.58	15.6
579.776	15.55
579.972	15.56
580.168	15.55
580.364	15.53
580.56	15.53
580.756	15.52
580.952	15.54
581.148	15.55
581.343	15.57
581.539	15.6
581.735	15.66
581.931	15.65
582.127	15.65
582.322	15.65
582.518	15.62
582.714	15.6
582.909	15.56
583.105	15.49
583.301	15.51
583.496	15.5
583.692	15.48
583.888	15.44
584.083	15.46
584.279	15.48
584.474	15.5
584.67	15.45
584.866	15.46
585.061	15.49
585.257	15.56
585.452	15.54
585.648	15.52
585.843	15.55
586.039	15.56
586.234	15.54
586.429	15.51
586.625	15.47
586.82	15.43
587.015	15.41
587.211	15.43
587.406	15.44
587.601	15.46
587.797	15.49
587.992	15.5
588.187	15.58
588.383	15.63
588.578	15.59
588.773	15.63
588.968	15.66
589.163	15.67
589.359	15.71
589.554	15.72
589.749	15.78
589.944	15.83
590.139	15.83
590.334	15.83
590.529	15.9
590.724	15.91
590.919	15.97
591.114	15.92
591.309	15.96
591.504	15.99
591.699	16.02
591.894	16.01
592.089	16
592.284	15.94
592.479	16
592.674	16.02
592.869	16.08
593.064	16.2
593.259	16.26
593.454	16.32
593.648	16.38
593.843	16.43
594.038	16.47
594.233	16.51
594.428	16.51
594.622	16.51
594.817	16.6
595.012	16.65
595.206	16.7
595.401	16.77
595.596	16.87
595.79	16.91
595.985	16.98
596.18	17.03
596.374	17.11
596.569	17.16
596.763	17.2
596.958	17.2
597.153	17.26
597.347	17.32
597.542	17.36
597.736	17.42
597.931	17.51
598.125	17.57
598.319	17.61
598.514	17.63
598.708	17.67
598.903	17.79
599.097	17.81
599.291	17.84
599.486	17.91
599.68	17.94
599.874	18.01
600.069	18.03
600.263	18.02
600.457	18.07
600.651	18.14
600.846	18.13
601.04	18.16
601.234	18.25
601.428	18.28
601.622	18.24
601.817	18.27
602.011	18.27
602.205	18.29
602.399	18.31
602.593	18.32
602.787	18.38
602.981	18.46
603.175	18.42
603.369	18.46
603.563	18.52
603.757	18.51
603.951	18.47
604.145	18.44
604.339	18.41
604.533	18.41
604.727	18.34
604.921	18.29
605.115	18.28
605.309	18.27
605.502	18.25
605.696	18.2
605.89	18.24
606.084	18.27
606.278	18.24
606.471	18.23
606.665	18.2
606.859	18.16
607.053	18.14
607.246	18.03
607.44	17.97
607.634	17.94
607.827	17.81
608.021	17.71
608.214	17.66
608.408	17.6
608.602	17.54
608.795	17.49
608.989	17.46
609.182	17.55
609.376	17.51
609.569	17.46
609.763	17.49
609.956	17.45
610.15	17.42
610.343	17.36
610.537	17.24
610.73	17.24
610.923	17.2
611.117	17.1
611.31	17.07
611.504	17.04
611.697	16.98
611.89	16.96
612.083	16.9
612.277	16.84
612.47	16.79
612.663	16.68
612.856	16.54
613.05	16.48
613.243	16.41
613.436	16.34
613.629	16.3
613.822	16.21
614.015	16.2
614.209	16.22
614.402	16.15
614.595	16.08
614.788	16.01
614.981	15.93
615.174	15.94
615.367	15.89
615.56	15.82
615.753	15.79
615.946	15.82
616.139	15.76
616.332	15.75
616.525	15.73
616.718	15.71
616.911	15.71
617.103	15.68
617.296	15.61
617.489	15.64
617.682	15.6
617.875	15.56
618.067	15.48
618.26	15.42
618.453	15.35
618.646	15.33
618.838	15.27
619.031	15.25
619.224	15.25
619.417	15.22
619.609	15.18
619.802	15.21
619.994	15.18
620.187	15.14
620.38	15.09
620.572	15.03
620.765	15.06
620.957	15.03
621.15	15
621.342	14.98
621.535	14.99
621.727	14.96
621.92	14.94
622.112	14.92
622.305	14.88
622.497	14.81
622.69	14.79
622.882	14.77
623.074	14.74
623.267	14.72
623.459	14.66
623.651	14.67
623.844	14.7
624.036	14.73
624.228	14.72
624.42	14.73
624.613	14.74
624.805	14.71
624.997	14.7
625.189	14.7
625.381	14.66
625.574	14.61
625.766	14.61
625.958	14.58
626.15	14.62
626.342	14.6
626.534	14.51
626.726	14.51
626.918	14.49
627.11	14.43
627.302	14.4
627.494	14.35
627.686	14.31
627.878	14.29
628.07	14.21
628.262	14.21
628.454	14.18
628.646	14.16
628.838	14.15
629.029	14.08
629.221	14.08
629.413	14.11
629.605	14.07
629.797	14.08
629.989	14.08
630.18	14.02
630.372	14.04
630.564	14.04
630.755	13.98
630.947	13.97
631.139	13.88
631.33	13.82
631.522	13.78
631.714	13.8
631.905	13.74
632.097	13.71
632.289	13.63
632.48	13.62
632.672	13.56
632.863	13.58
633.055	13.53
633.246	13.55
633.438	13.53
633.629	13.6
633.821	13.66
634.012	13.66
634.203	13.68
634.395	13.7
634.586	13.67
634.777	13.7
634.969	13.65
635.16	13.57
635.351	13.57
635.543	13.53
635.734	13.52
635.925	13.54
636.117	13.52
636.308	13.5
636.499	13.5
636.69	13.55
636.881	13.6
637.073	13.58
637.264	13.54
637.455	13.52
637.646	13.49
637.837	13.51
638.028	13.49
638.219	13.41
638.41	13.38
638.601	13.36
638.792	13.33
638.983	13.3
639.174	13.29
639.365	13.23
639.556	13.21
639.747	13.22
639.938	13.22
640.129	13.24
640.32	13.24
640.511	13.25
640.701	13.23
640.892	13.26
641.083	13.2
641.274	13.17
641.465	13.18
641.655	13.18
641.846	13.12
642.037	13.1
642.228	13.07
642.418	13.06
642.609	13.1
642.8	13.01
642.99	13.04
643.181	13.04
643.372	13.07
643.562	13.04
643.753	13.03
643.943	12.98
644.134	13.01
644.324	12.94
644.515	12.91
644.705	12.89
644.896	12.89
645.086	12.88
645.277	12.91
645.467	12.89
645.658	12.88
645.848	12.87
646.038	12.8
646.229	12.81
646.419	12.79
646.61	12.73
646.8	12.71
646.99	12.7
647.18	12.7
647.371	12.74
647.561	12.68
647.751	12.67
647.941	12.67
648.132	12.67
648.322	12.68
648.512	12.66
648.702	12.62
648.892	12.66
649.082	12.63
649.272	12.58
649.462	12.52
649.653	12.49
649.843	12.48
650.033	12.45
650.223	12.39
650.413	12.44
650.603	12.45
650.793	12.42
650.983	12.4
651.172	12.37
651.362	12.36
651.552	12.33
651.742	12.2
651.932	12.18
652.122	12.18
652.312	12.08
652.502	12.07
652.691	12.07
652.881	12.07
653.071	12.04
653.261	11.99
653.45	11.96
653.64	11.95
653.83	11.89
654.019	11.76
654.209	11.7
654.399	11.65
654.588	11.6
654.778	11.53
654.968	11.44
655.157	11.33
655.347	11.29
655.536	11.08
655.726	11.01
655.915	10.84
656.105	10.78
656.294	10.68
656.484	10.63
656.673	10.58
656.863	10.57
657.052	10.45
657.241	10.38
657.431	10.24
657.62	10.13
657.809	10.02
657.999	9.93
658.188	9.8
658.377	9.81
658.567	9.74
658.756	9.7
658.945	9.63
659.134	9.5
659.324	9.39
659.513	9.33
659.702	9.18
659.891	9.08
660.08	9.02
660.269	9
660.458	8.93
660.648	8.83
660.837	8.83
661.026	8.82
661.215	8.81
661.404	8.7
661.593	8.64
661.782	8.55
661.971	8.52
662.16	8.38
662.349	8.26
662.538	8.22
662.726	8.17
662.915	8.09
663.104	8.09
663.293	8
663.482	7.95
663.671	7.95
663.86	7.84
664.048	7.8
664.237	7.77
664.426	7.77
664.615	7.74
664.803	7.73
664.992	7.75
665.181	7.74
665.369	7.67
665.558	7.64
665.747	7.64
665.935	7.7
666.124	7.65
666.312	7.52
666.501	7.49
666.69	7.46
666.878	7.39
667.067	7.39
667.255	7.4
667.444	7.47
667.632	7.5
667.82	7.52
668.009	7.54
668.197	7.59
668.386	7.54
668.574	7.48
668.762	7.39
668.951	7.39
669.139	7.37
669.327	7.43
669.516	7.44
669.704	7.39
669.892	7.37
670.08	7.41
670.269	7.44
670.457	7.43
670.645	7.37
670.833	7.4
671.021	7.38
671.21	7.42
671.398	7.44
671.586	7.47
671.774	7.5
671.962	7.49
672.15	7.47
672.338	7.56
672.526	7.55
672.714	7.57
672.902	7.57
673.09	7.67
673.278	7.73
673.466	7.82
673.654	7.85
673.842	7.88
674.03	7.91
674.218	7.93
674.405	7.9
674.593	7.93
674.781	7.88
674.969	7.87
675.157	7.99
675.344	8.11
675.532	8.22
675.72	8.23
675.908	8.23
676.095	8.35
676.283	8.36
676.471	8.36
676.658	8.35
676.846	8.32
677.033	8.45
677.221	8.58
677.409	8.6
677.596	8.78
677.784	8.8
677.971	8.8
678.159	8.89
678.346	8.88
678.534	8.94
678.721	8.96
678.909	8.95
679.096	9.04
679.283	9.11
679.471	9.19
679.658	9.19
679.846	9.21
680.033	9.3
680.22	9.35
680.408	9.4
680.595	9.47
680.782	9.46
680.969	9.58
681.157	9.64
681.344	9.72
681.531	9.77
681.718	9.82
681.905	9.93
682.093	10.08
682.28	10.22
682.467	10.28
682.654	10.33
682.841	10.46
683.028	10.56
683.215	10.57
683.402	10.57
683.589	10.58
683.776	10.7
683.963	10.76
684.15	10.83
684.337	10.9
684.524	11.08
684.711	11.22
684.898	11.36
685.085	11.51
685.271	11.69
685.458	11.89
685.645	12.04
685.832	12.17
686.019	12.38
686.205	12.55
686.392	12.74
686.579	12.88
686.766	13.04
686.952	13.36
687.139	13.49
687.326	13.74
687.512	14.03
687.699	14.24
687.886	14.47
688.072	14.76
688.259	15.02
688.445	15.33
688.632	15.66
688.818	15.85
689.005	16.38
689.191	16.74
689.378	17.08
689.564	17.33
689.751	17.83
689.937	18.14
690.124	18.61
690.31	18.86
690.496	19.28
690.683	19.62
690.869	20.09
691.055	20.5
691.242	20.97
691.428	21.44
691.614	21.91
691.8	22.44
691.987	23.12
692.173	23.71
692.359	24.29
692.545	24.88
692.731	25.51
692.918	26.11
693.104	26.58
693.29	27.14
693.476	27.64
693.662	28.17
693.848	28.66
694.034	29.19
694.22	29.66
694.406	30.34
694.592	30.87
694.778	31.57
694.964	32.19
695.15	32.88
695.336	33.58
695.522	34.26
695.708	34.87
695.894	35.52
696.08	36.08
696.265	36.65
696.451	37.44
696.637	37.97
696.823	38.63
697.009	39.3
697.194	40.01
697.38	40.51
697.566	41.07
697.751	41.51
697.937	42.16
698.123	42.84
698.308	43.41
698.494	43.89
698.68	44.65
698.865	45.43
699.051	46.01
699.236	46.62
699.422	47.16
699.607	47.65
699.793	48.19
699.978	48.62
700.164	49.07
700.349	49.64
700.535	50.11
700.72	50.67
700.906	51.24
701.091	51.86
701.276	52.43
701.462	53.15
701.647	53.51
701.832	54.01
702.018	54.38
702.203	54.9
702.388	55.25
702.573	55.98
702.759	56.31
702.944	57.03
703.129	57.48
703.314	58.11
703.499	58.6
703.684	59.22
703.87	59.55
704.055	59.99
704.24	60.25
704.425	60.79
704.61	61.07
704.795	61.65
704.98	61.94
705.165	62.2
705.35	62.49
705.535	63.02
705.72	63.28
705.905	63.63
706.09	63.65
706.275	63.95
706.459	64.47
706.644	64.73
706.829	65.09
707.014	65.25
707.199	65.56
707.384	66.06
707.568	66.51
707.753	66.7
707.938	67.06
708.123	67.06
708.307	67.78
708.492	68.01
708.677	68.26
708.861	68.23
709.046	68.34
709.231	68.73
709.415	69.09
709.6	68.94
709.784	69.33
709.969	69.71
710.153	70.23
710.338	70.58
710.522	70.62
710.707	70.61
710.891	70.99
711.076	71
711.26	71.13
711.445	71.19
711.629	71.52
711.813	71.66
711.998	72.01
712.182	72.1
712.366	72.37
712.551	72.53
712.735	72.6
712.919	72.69
713.103	72.97
713.288	73.4
713.472	73.57
713.656	73.51
713.84	73.65
714.024	73.96
714.208	73.82
714.393	73.96
714.577	74.05
714.761	74.24
714.945	74.68
715.129	74.77
715.313	74.95
715.497	75.47
715.681	75.7
715.865	75.62
716.049	75.89
716.233	76.26
716.417	76.51
716.601	76.75
716.785	76.65
716.968	76.65
717.152	76.99
717.336	76.98
717.52	76.77
717.704	76.85
717.888	76.83
718.071	77.01
718.255	77.09
718.439	76.95
718.622	77.34
718.806	77.3
718.99	77.44
719.174	77.37
719.357	77.72
719.541	78.19
719.724	78.31
719.908	78.15
720.092	78.45
720.275	78.61
720.459	78.82
720.642	78.6
720.826	78.42
721.009	78.71
721.193	78.72
721.376	78.75
721.559	78.65
721.743	78.8
721.926	78.74
722.11	78.83
722.293	78.4
722.476	78.22
722.66	78.29
722.843	78.35
723.026	78.34
723.21	78.86
723.393	79.06
723.576	79.35
723.759	79.8
723.942	79.8
724.126	79.93
724.309	79.86
724.492	79.66
724.675	79.63
724.858	80.16
725.041	80.09
725.224	80.36
725.407	80.17
725.59	80.53
725.774	80.59
725.957	80.88
726.14	80.63
726.322	80.67
726.505	81.27
726.688	81.81
726.871	82.15
727.054	82.56
727.237	82
727.42	82.64
727.603	82.93
727.786	82.59
727.968	82.57
728.151	82.31
728.334	82.18
728.517	82.66
728.699	82.67
728.882	83.03
729.065	82.9
729.248	82.99
729.43	82.96
729.613	82.96
729.796	82.99
729.978	82.75
730.161	82.93
730.343	83.3
730.526	83.28
730.708	83.93
730.891	84.31
731.073	84.48
731.256	84.36
731.438	84.54
731.621	84.64
731.803	84.67
731.986	84.52
732.168	84.19
732.35	84.45
732.533	85.01
732.715	84.74
732.898	84.72
733.08	85.23
733.262	84.69
733.444	85.14
733.627	85.25
733.809	85.13
733.991	85.07
734.173	85.05
734.355	85.21
734.538	85.64
734.72	85.74
734.902	85.53
735.084	85.8
735.266	85.72
735.448	85.96
735.63	85.45
735.812	86.09
735.994	85.86
736.176	86.23
736.358	86.26
736.54	86.67
736.722	86.5
736.904	86.99
737.086	86.55
737.268	86.92
737.45	86.77
737.632	86.17
737.814	85.98
737.995	86.53
738.177	86.51
738.359	86.89
738.541	86.38
738.723	86.36
738.904	86.61
739.086	86.67
739.268	87.05
739.449	86.88
739.631	87
739.813	87.77
739.994	88.28
740.176	88.78
740.358	89.1
740.539	88.48
740.721	88.47
740.902	87.73
741.084	87.53
741.265	87.35
741.447	86.9
741.628	86.81
741.81	86.93
741.991	87.52
742.172	87.71
742.354	87.92
742.535	88.33
742.717	88.7
742.898	89.17
743.079	89.17
743.261	89.01
743.442	89.81
743.623	89.54
743.804	89.05
743.986	88.61
744.167	88.15
744.348	87.95
744.529	87.69
744.71	86.62
744.891	86.49
745.073	86.65
745.254	87.05
745.435	86.87
745.616	86.87
745.797	86.56
745.978	87.77
746.159	87.76
746.34	87.59
746.521	87.48
746.702	87.47
746.883	87.78
747.064	87.77
747.245	87.47
747.426	87.64
747.606	87.46
747.787	87.84
747.968	88.37
748.149	88.56
748.33	89.19
748.51	88.67
748.691	88.87
748.872	88.87
749.053	88.68
749.233	88.4
749.414	88.03
749.595	87.63
749.775	87.98
749.956	87.08
750.137	87.14
750.317	87.16
750.498	87.26
750.678	87.34
750.859	87.73
751.04	87.47
751.22	87.73
751.4	88.2
751.581	87.98
751.761	88.04
751.942	88.21
752.122	87.75
752.303	87.85
752.483	89.07
752.663	89.24
752.844	89.18
753.024	89.39
753.204	89.44
753.385	89.24
753.565	88.94
753.745	87.56
753.925	86.39
754.106	86.91
754.286	87.07
754.466	86.79
754.646	87.14
754.826	87.01
755.006	87.4
755.187	88.41
755.367	88.4
755.547	87.58
755.727	87.41
755.907	87.66
756.087	88.51
756.267	88.53
756.447	88.31
756.627	87.78
756.807	88.26
756.987	88.5
757.167	88.75
757.346	87.98
757.526	88.1
757.706	88.56
757.886	88.54
758.066	88.68
758.246	88.75
758.425	88.53
758.605	89.11
758.785	88.92
758.965	87.98
759.144	88.69
759.324	89.07
759.504	89.38
759.683	89.15
759.863	88.51
760.043	89.01
760.222	89.28
760.402	89.38
760.581	89.24
760.761	88.12
760.94	87.44
761.12	87.92
761.299	87.31
761.479	88.54
761.658	87.56
761.838	87.63
762.017	88.75
762.197	89.43
762.376	89.52
762.555	90.44
762.735	88.12
762.914	88.31
763.093	87.22
763.273	86.95
763.452	86.37
763.631	85.42
763.81	85.14
763.99	86.85
764.169	86.81
764.348	87.47
764.527	86.67
764.706	86.87
764.885	88.53
765.064	88.37
765.243	87.52
765.423	88.68
765.602	88.35
765.781	88.83
765.96	88.93
766.139	87.82
766.318	89.13
766.497	89.39
766.676	88.68
766.854	88.23
767.033	87.97
767.212	88.03
767.391	87.35
767.57	86.01
767.749	85.78
767.928	85.32
768.106	85.3
768.285	85.81
768.464	86.13
768.643	86.99
768.821	87.1
769	87.54
769.179	85.56
769.357	84.97
769.536	84.43
769.715	84.66
769.893	84.54
770.072	84.02
770.25	84.39
770.429	86.66
770.607	88.45
770.786	88.59
770.964	88.07
771.143	88.09
771.321	88.19
771.5	86.77
771.678	86.83
771.857	86.32
772.035	86.79
772.213	86.88
772.392	87.65
772.57	87.83
772.748	87.73
772.927	87.08
773.105	86.77
773.283	85.19
773.461	84.74
773.64	83.32
773.818	82.97
773.996	84.07
774.174	84.78
774.352	84.95
774.531	85.33
774.709	86.47
774.887	86.36
775.065	86.29
775.243	86.42
775.421	86.15
775.599	84.67
775.777	84.99
775.955	83.09
776.133	82.6
776.311	82.5
776.489	82.36
776.667	82.02
776.844	82.52
777.022	83.02
777.2	83.77
777.378	85.94
777.556	87.03
777.734	87.22
777.911	87.19
778.089	87.25
778.267	85.65
778.445	84.5
778.622	82.54
778.8	81.45
778.978	80.3
779.155	80.17
779.333	79.25
779.511	80.11
779.688	78.86
779.866	79.38
780.043	79.5
780.221	80.49
780.398	80.75
780.576	81.29
780.753	81.4
780.931	83.86
781.108	84.64
781.286	83.67
781.463	83.28
781.64	83.63
781.818	82.67
781.995	83.85
782.172	84.33
782.35	83.32
782.527	85.05
782.704	84.38
782.882	83.78
783.059	83.46
783.236	82.84
783.413	83.08
783.59	81.84
783.768	81.3
783.945	83.15
784.122	82.69
784.299	84.16
784.476	83.03
784.653	81.08
784.83	80.75
785.007	81.89
785.184	80.57
785.361	80.82
785.538	80.25
785.715	80.74
785.892	80.75
786.069	81.79
786.246	78.31
786.423	79.16
786.6	79.37
786.776	80.65
786.953	80.43
787.13	83.23
787.307	84.58
787.484	86.74
787.66	84.61
787.837	85.79
788.014	84.36
788.191	84.5
788.367	81.82
788.544	79.71
788.721	79.84
788.897	81.83
789.074	80.79
789.25	82.74
789.427	83.28
789.603	87.78
789.78	90.93
789.956	90.75
790.133	91.41
790.309	91.64
790.486	93.06
790.662	92.34
790.839	89.65
791.015	88.84
791.192	87.22
791.368	87.42
791.544	87.62
791.721	84.08
791.897	84.35
792.073	82.67
792.249	83.73
792.426	85.65
792.602	83.3
792.778	81.63
792.954	83.08
793.13	84.75
793.307	84.41
793.483	82.4
793.659	83.67
793.835	82.89
794.011	82.96
794.187	80.14
794.363	79.14
794.539	78.97
794.715	78.91
794.891	72.87
795.067	74.39
795.243	75.41
795.419	80.5
795.595	78.88
795.771	79.93
795.947	78.87
796.122	81.71
796.298	82.05
796.474	83.58
796.65	80.51
796.826	83.86
797.001	83.65
797.177	83.29
797.353	85.76
797.529	84.53
797.704	82.44
797.88	80.37
798.056	78.92
798.231	78.27
798.407	80.94
798.582	78.88
798.758	79.42
798.934	78.1
799.109	78.94
799.285	80.45
799.46	78.71
799.636	77.53
799.811	81.16
799.986	80.07
800.162	81.3
800.337	81.85
800.513	78.03
800.688	81.19
800.863	83.1
801.039	78.2
801.214	79.87
801.389	79.53
801.565	82.81
801.74	83.19
801.915	84.01
802.09	82.43
802.265	83.98
802.441	82.69
802.616	85.72
802.791	84.68
802.966	85.03
803.141	80.76
803.316	82.31
803.491	81.85
803.666	84.38
803.841	82.36
804.016	81.09
804.191	82.85
804.366	85.31
804.541	81.83
804.716	76.86
804.891	76.86
805.066	77.79
805.241	76.85
805.416	76.29
805.591	77.36
805.765	83.3
805.94	89.35
806.115	85.84
806.29	83.5
806.464	82.61
806.639	80.82
806.814	76.46
806.989	70.07
807.163	68.59
807.338	70.52
807.512	69.11
807.687	68.58
807.862	72.27
808.036	72.03
808.211	78.82
808.385	81.2
808.56	80.49
808.734	83.74
808.909	83.05
809.083	81.42
809.258	89.48
809.432	85.59
809.606	82.96
809.781	82.44
809.955	84
810.13	87.44
810.304	83.93
810.478	80.11
810.652	80.64
810.827	82.52
811.001	82.38
811.175	76.09
811.349	76.58
811.524	78.77
811.698	79.39
811.872	81.63
812.046	79.41
812.22	79.18
812.394	84.28
812.568	81.27
812.742	78.34
812.916	73.6
813.09	67.37
813.264	65.98
813.438	73.48
813.612	68.27
813.786	74.57
813.96	80.85
814.134	82.7
814.308	83.3
814.482	87.07
814.656	83.21
814.83	87.88
815.003	84.71
815.177	81.53
815.351	84.2
815.525	83.21
815.698	78.79
815.872	75.29
816.046	73.53
816.219	74.73
816.393	69.44
816.567	65.23
816.74	73.56
816.914	80.56
817.088	81.57
817.261	81.87
817.435	79.45
817.608	83
817.782	92.9
817.955	86.83
818.129	86.39
818.302	85.3
818.475	85.33
818.649	85.36
818.822	88.53
818.996	87.66
819.169	86.89
819.342	85.59
819.516	85.77
819.689	85.9
819.862	84.02
820.035	80.62
820.209	74.53
820.382	73.93
820.555	72.92
820.728	69.06
820.901	64.22
821.075	68.3
821.248	71.68
821.421	70.4
821.594	71.08
821.767	69.74
821.94	64.55
822.113	70.36
822.286	75.47
822.459	74.23
822.632	78.46
822.805	77.49
822.978	78.28
823.151	84.9
823.324	75.69
823.496	62.88
823.669	65.45
823.842	72.69
824.015	72.8
824.188	72.92
824.361	72.84
824.533	85.39
824.706	104.15
824.879	106.66
825.051	103.91
825.224	100.72
825.397	97.08
825.569	102.37
825.742	97.91
825.915	89.34
826.087	74.58
826.26	66.6
826.432	68.13
826.605	67.59
826.777	60.67
826.95	60.95
827.122	59.62
827.295	71.18
827.467	64.61
827.64	61.43
827.812	65.51
827.984	70.24
828.157	66.14
828.329	67.82
828.501	64.97
828.674	63.56
828.846	65.46
829.018	56.39
829.19	57.46
829.363	65.33
829.535	69.01
829.707	69.79
829.879	81.07
830.051	81.58
830.223	74.67
830.395	69.54
830.568	65.06
830.74	63.72
830.912	63.85
831.084	60.81
831.256	54
831.428	58.42
831.6	55.45
831.772	47.58
831.943	49.73
832.115	62.38
832.287	53.66
832.459	63.03
832.631	68.54
832.803	82.98
832.975	101.85
833.146	91.78
833.318	76.86
833.49	86.03
833.662	77.16
833.833	82.03
834.005	71.81
834.177	73.36
834.348	80.78
834.52	83.69
834.692	84.04
834.863	88.35
835.035	81.54
835.206	81.65
835.378	77.74
835.549	67.68
835.721	67.17
835.892	67.07
836.064	73.67
836.235	73.32
836.407	75.7
836.578	75.96
836.749	82.09
836.921	83.86
837.092	92.54
837.264	79.67
837.435	71.26
837.606	73.07
837.777	62.13
837.949	51.87
838.12	52
838.291	53.43
838.462	62.22
838.633	68.1
838.805	60.55
838.976	64.16
839.147	66.1
839.318	56.25
839.489	52.76
839.66	47.78
839.831	38.19
840.002	37.8
840.173	45.22
840.344	48.19
840.515	63.27
840.686	57.13
840.857	58.01
841.028	77.2
841.199	84.77
841.369	72.52
841.54	71.35
841.711	65.31
841.882	62.7
842.053	63.64
842.223	53.28
842.394	45.68
842.565	66.59
842.736	64.66
842.906	83.08
843.077	84.69
843.248	92.91
843.418	89.23
843.589	100.7
843.759	96.09
843.93	108.84
844.101	94.08
844.271	90.78
844.442	83.62
844.612	80.68
844.783	52.38
844.953	40.45
845.123	35.11
845.294	42.76
845.464	50.36
845.635	53.46
845.805	56.02
845.975	61.13
846.146	59.53
846.316	80.48
846.486	83.22
846.656	91.43
846.827	95.08
846.997	106.34
847.167	108.87
847.337	123.56
847.507	104.48
847.677	93.84
847.848	84.75
848.018	67.98
848.188	54.93
848.358	60.57
848.528	39.61
848.698	23.95
848.868	21.4
849.038	44.19
849.208	61.36
849.378	57.9
849.548	56.8
849.718	53.88
849.887	71.65
850.057	71.71
850.227	55.49
850.397	39.54
850.567	56.12
850.737	48.34
850.906	61.26
851.076	67.49
851.246	70.97
851.415	78.54
851.585	77.23
851.755	80.7
851.924	89.29
852.094	84.49
852.264	74.38
852.433	81.31
852.603	92.74
852.772	99.93
852.942	71.87
853.111	75.01
853.281	71.4
853.45	72
853.62	61.73
853.789	50.5
853.959	50.03
854.128	48.3
854.297	39.05
854.467	39.92
854.636	34.59
854.805	41.8
854.975	41
855.144	52.34
855.313	68.48
855.482	63.59
855.652	65.16
855.821	70.97
855.99	74.59
856.159	69.43
856.328	52.26
856.497	49.92
856.667	53.29
856.836	43.98
857.005	31.21
857.174	41.69
857.343	46
857.512	42.58
857.681	38
857.85	34.88
858.019	49.84
858.188	69.82
858.356	43.95
858.525	38.87
858.694	59.06
858.863	54.56
859.032	48.18
859.201	40.47
859.369	37.62
859.538	36.99
859.707	44.63
859.876	30.5
860.044	41.92
860.213	44.19
860.382	58.22
860.55	79.94
860.719	85.64
860.888	71.92
861.056	89.52
861.225	90.79
861.393	106.58
861.562	80.52
861.73	60.08
861.899	38.67
862.067	65.09
862.236	62.41
862.404	50.97
862.572	49.56
862.741	48.19
862.909	50.25
863.078	48.18
863.246	42.27
863.414	43.34
863.582	42.59
863.751	28.27
863.919	43.8
864.087	43.07
864.255	49.66
864.424	52.09
864.592	47.93
864.76	64.43
864.928	73.6
865.096	62.93
865.264	65.14
865.432	79.51
865.6	70.14
865.768	61.23
865.936	52.96
866.104	55.83
866.272	73.64
866.44	53.83
866.608	40.65
866.776	53.74
866.944	58.49
867.112	37.49
867.28	3.06
867.448	18.89
867.615	34.37
867.783	23.6
867.951	43.79
868.119	55.59
868.286	61.98
868.454	63.37
868.622	52.8
868.789	69.36
868.957	74.04
869.125	53.24
869.292	62.42
869.46	64.36
869.627	74.27
869.795	80.75
869.963	65.9
870.13	71.39
870.298	79.27
870.465	65.97
870.632	82
870.8	83.53
870.967	69.79
871.135	66.48
871.302	61.46
871.469	55.7
871.637	46.85
871.804	40.74
871.971	27.85
872.139	32.55
872.306	30.13
872.473	24.54
872.64	29.39
872.807	48.94
872.975	59.32
873.142	68.43
873.309	76.23
873.476	99.06
873.643	85.99
873.81	77.55
873.977	5.64
874.144	13.74
874.311	-30.24
874.478	-31.74
874.645	-17.51
874.812	11.61
874.979	2.9
875.146	-1.73
875.313	-33.19
875.48	59.04
875.647	40.31
875.813	22.8
875.98	-11.84
876.147	32.4
876.314	33.38
876.481	23.48
876.647	31.42
876.814	44.87
876.981	43.06
877.147	50.75
877.314	41.09
877.481	58.22
877.647	89.54
877.814	65.9
877.98	93.36
878.147	87.38
878.314	85.44
878.48	86.1
878.647	94.61
878.813	66.18
878.979	109.16
879.146	75.06
879.312	104.49
879.479	101.1
879.645	81.64
879.811	67.04
879.978	69.71
880.144	55.13
880.31	47.48
880.477	-2.62
880.643	-70.04
880.809	54.54
880.975	9.53
881.142	13.14
881.308	32.42
881.474	73.22
881.64	42.89
881.806	42.93
881.972	76.58
882.138	98.65
882.304	74.4
882.47	56.04
882.636	11.25
882.802	14
882.968	-31.3
883.134	-258.51
883.3	-83.1
883.466	13.04
883.632	-8.92
883.798	19.14
883.964	47.54
884.129	68.82
884.295	59.03
884.461	53.85
884.627	35.68
884.793	57.1
884.958	23.61
885.124	5.54
885.29	11.18
885.455	28.74
885.621	28.6
885.787	31.07
885.952	29.36
886.118	53.98
886.283	50.77
886.449	38.24
886.614	72.79
886.78	80.25
886.945	69.22
887.111	60.47
887.276	53.35
887.442	52.11
887.607	74.28
887.773	34.49
887.938	49.94
888.103	54.46
888.269	75.63
888.434	97.92
888.599	97.61
888.764	82.9
888.93	79.83
889.095	83.58
889.26	108.98
889.425	111.9
889.59	78.29
889.756	93.45
889.921	88.17
890.086	124.82
890.251	75.87
890.416	21.9
890.581	20.15
890.746	-8.93
890.911	-43.81
891.076	-51.76
891.241	-67.97
891.406	24.98
891.571	62.45
891.736	38.86
891.901	93.92
892.065	107.76
892.23	94.84
892.395	55.71
892.56	50.84
892.725	64.85
892.889	52.88
893.054	18.58
893.219	-11.98
893.384	-14.35
893.548	64.17
893.713	29.95
893.878	120.11
