Data from Ofra_2a_PS_9CX6_Reflection_3.txt Node
Date: Tue Jul 20 09:59:29 EDT 2021
User: Adam
Spectrometer: FLMT01687
Trigger mode: 0
Integration Time (sec): 9.450000E-1
Scans to average: 3
Electric dark correction enabled: true
Nonlinearity correction enabled: false
Boxcar width: 3
XAxis mode: Wavelengths
Number of Pixels in Spectrum: 3648
>>>>>Begin Spectral Data<<<<<
179.494	1115.38
179.716	679.93
179.937	803.3
180.158	3057.81
180.38	-1609.3
180.601	-380.67
180.823	-197.53
181.044	-190.44
181.265	-270.33
181.486	76.17
181.708	647.83
181.929	23.26
182.15	352.27
182.372	-58.12
182.593	-115.75
182.814	594.01
183.035	159.5
183.257	66.14
183.478	62.05
183.699	59.62
183.92	50.84
184.141	51.84
184.363	34.01
184.584	33.05
184.805	54.2
185.026	73.52
185.247	54.28
185.468	48.9
185.689	58.92
185.91	54.13
186.132	70.19
186.353	42.38
186.574	32.14
186.795	29.85
187.016	41.64
187.237	40.87
187.458	41.59
187.679	15.47
187.9	31.31
188.121	53.82
188.342	53.78
188.563	67.85
188.784	51.91
189.005	58.44
189.226	63.63
189.447	59.35
189.667	50.72
189.888	47.59
190.109	20.09
190.33	17.45
190.551	8.41
190.772	-4.81
190.993	7.37
191.214	3.62
191.434	-4.75
191.655	11.15
191.876	23.23
192.097	21.42
192.318	29.08
192.538	28.93
192.759	28.93
192.98	29.39
193.201	29.78
193.421	25.97
193.642	35.06
193.863	42.81
194.083	35.64
194.304	30.68
194.525	57.18
194.745	48.09
194.966	51.11
195.187	58.14
195.407	36.43
195.628	34.55
195.848	45.44
196.069	33.18
196.29	29.82
196.51	20.9
196.731	26.66
196.951	43.04
197.172	40.94
197.392	21.95
197.613	9.98
197.833	16.52
198.054	25.86
198.274	4.95
198.495	-5.28
198.715	-18.04
198.936	-16.57
199.156	8.39
199.377	12.39
199.597	-7.49
199.817	5.25
200.038	24.08
200.258	37.3
200.479	47.48
200.699	40.29
200.919	25.95
201.14	24.71
201.36	22.26
201.58	23.89
201.801	9.37
202.021	0.58
202.241	13.09
202.461	24.7
202.682	32.88
202.902	33.16
203.122	28.33
203.342	49.31
203.563	56.82
203.783	46.38
204.003	41.63
204.223	41.19
204.443	38.3
204.663	34.46
204.884	15.17
205.104	14.91
205.324	25.59
205.544	38.17
205.764	37.64
205.984	43.87
206.204	55.52
206.424	54.46
206.644	51.12
206.864	33.76
207.084	39.93
207.304	33.73
207.525	17.79
207.745	11.44
207.964	27.08
208.184	23.88
208.404	33.19
208.624	10.63
208.844	5.84
209.064	32.57
209.284	47.27
209.504	45.48
209.724	21.83
209.944	23.69
210.164	24.33
210.384	37.06
210.604	1.84
210.823	-12.94
211.043	-25.09
211.263	1.06
211.483	0.37
211.703	13.4
211.922	18.86
212.142	25.72
212.362	29.35
212.582	29.16
212.801	27.03
213.021	36.21
213.241	25.48
213.461	21.77
213.68	35.78
213.9	41.59
214.12	43.95
214.339	40.46
214.559	44.25
214.779	46.2
214.998	41.62
215.218	50.58
215.438	45.84
215.657	39.51
215.877	42.78
216.096	34.73
216.316	37.5
216.535	50.79
216.755	23.33
216.974	22.07
217.194	21.74
217.413	33.77
217.633	32.47
217.852	20.22
218.072	5.17
218.291	35.34
218.511	25.11
218.73	24
218.95	16.43
219.169	21.53
219.389	22.88
219.608	27.76
219.827	12.4
220.047	31.45
220.266	42.46
220.485	43.08
220.705	33.62
220.924	44.34
221.143	31.5
221.363	37.3
221.582	29.69
221.801	37.15
222.021	39.8
222.24	38.29
222.459	31.9
222.678	28.43
222.897	17.76
223.117	17.64
223.336	6.13
223.555	-5.88
223.774	10.2
223.993	14.02
224.213	13.17
224.432	20.74
224.651	21.55
224.87	24.51
225.089	26.61
225.308	28.65
225.527	25.34
225.746	34.26
225.965	26.58
226.184	26.85
226.404	23.32
226.623	50.76
226.842	40.39
227.061	46.03
227.28	56.04
227.499	53.04
227.718	55.05
227.936	43.12
228.155	23.63
228.374	23.28
228.593	22.35
228.812	22.96
229.031	18.63
229.25	18.04
229.469	38.18
229.688	44.86
229.907	35.23
230.125	32.98
230.344	34.58
230.563	35.93
230.782	23.28
231.001	18.02
231.22	15.61
231.438	27.38
231.657	31.32
231.876	27.08
232.095	28.87
232.313	41.43
232.532	42.19
232.751	39.81
232.969	44.64
233.188	45.67
233.407	46.73
233.625	40.21
233.844	37.5
234.063	30.31
234.281	29.99
234.5	28.92
234.719	25.54
234.937	30.85
235.156	33.67
235.374	29.52
235.593	26.78
235.811	23.95
236.03	15.53
236.249	14.66
236.467	3.87
236.686	2.46
236.904	7.13
237.123	15.28
237.341	24.61
237.559	25.2
237.778	26.17
237.996	35.7
238.215	36.31
238.433	40.7
238.652	37.02
238.87	34.69
239.088	29.51
239.307	29.84
239.525	15.23
239.743	6.73
239.962	1.81
240.18	10.25
240.398	15.74
240.617	20.92
240.835	17.41
241.053	33.69
241.271	47.28
241.49	35.66
241.708	33.37
241.926	14.07
242.144	15.11
242.363	17.72
242.581	18.91
242.799	-3.42
243.017	13.78
243.235	6.26
243.453	26.28
243.672	20.46
243.89	28.94
244.108	35.77
244.326	38.97
244.544	45.45
244.762	45.13
244.98	41.32
245.198	32.29
245.416	23.22
245.634	22.19
245.852	29.75
246.07	14.85
246.288	5.34
246.506	14.73
246.724	35.87
246.942	35.87
247.16	25.22
247.378	23.93
247.596	32.82
247.814	15.04
248.032	-1.3
248.25	-13.62
248.468	-9.28
248.685	-7.88
248.903	-4.78
249.121	-12.58
249.339	12.48
249.557	14.48
249.775	10.57
249.992	3.3
250.21	3.71
250.428	4.76
250.646	10.5
250.863	4.2
251.081	4.05
251.299	19.13
251.517	42.51
251.734	39.95
251.952	47.96
252.17	44.33
252.387	42.58
252.605	45.63
252.823	29.9
253.04	18.82
253.258	14.2
253.475	3.8
253.693	14.84
253.911	15.34
254.128	11.78
254.346	20.09
254.563	16.62
254.781	20.08
254.998	24.06
255.216	23.82
255.433	29.48
255.651	34.82
255.868	42.42
256.086	39.36
256.303	37.18
256.521	28.97
256.738	25.41
256.956	18.4
257.173	18.87
257.39	18.02
257.608	18.23
257.825	13.85
258.043	26.95
258.26	22.47
258.477	27.51
258.695	33.06
258.912	41.03
259.129	42.15
259.346	53.78
259.564	39.63
259.781	47.35
259.998	43.99
260.216	44.92
260.433	33.96
260.65	45.01
260.867	17.69
261.084	26.35
261.302	28.59
261.519	21.5
261.736	8.71
261.953	0.86
262.17	3.92
262.387	22.98
262.604	10.09
262.822	2.14
263.039	9.2
263.256	3.71
263.473	7.62
263.69	0.65
263.907	-7.96
264.124	-0.92
264.341	-4.18
264.558	4.86
264.775	24.46
264.992	23.19
265.209	28.33
265.426	30.73
265.643	36.68
265.86	31.96
266.077	25.96
266.294	19.94
266.51	17.06
266.727	0.06
266.944	-15.1
267.161	-25.21
267.378	-10.31
267.595	-15.21
267.812	-24.6
268.028	-2.85
268.245	10.58
268.462	25.09
268.679	21.87
268.896	14.93
269.112	29.77
269.329	39.46
269.546	25.57
269.763	35.12
269.979	29.87
270.196	35.98
270.413	39.93
270.629	32.58
270.846	34.2
271.063	38.68
271.279	28.93
271.496	20.76
271.712	15.02
271.929	16.9
272.146	23.99
272.362	-11.29
272.579	-5.89
272.795	2.71
273.012	17.96
273.228	21.42
273.445	15.84
273.661	11.28
273.878	31.7
274.094	31.28
274.311	28.09
274.527	21.22
274.744	22.96
274.96	26.96
275.177	34.05
275.393	39.86
275.609	46.84
275.826	50.32
276.042	61.24
276.259	54.32
276.475	49.22
276.691	47.22
276.908	46.65
277.124	46.83
277.34	37.19
277.557	33.75
277.773	35.56
277.989	40.11
278.205	32.92
278.422	29.03
278.638	34.06
278.854	39.11
279.07	33.23
279.286	41.95
279.503	44.06
279.719	52.86
279.935	46.2
280.151	38.57
280.367	40.32
280.583	43.13
280.799	37.83
281.016	34.04
281.232	29.46
281.448	32.81
281.664	23.02
281.88	21.66
282.096	25.45
282.312	21
282.528	19.34
282.744	14.66
282.96	15.26
283.176	18.87
283.392	18.58
283.608	27.79
283.824	18.16
284.04	22.3
284.256	23.46
284.471	27.77
284.687	33.56
284.903	31.29
285.119	5.94
285.335	16.31
285.551	15.3
285.767	12.57
285.982	10.28
286.198	1.93
286.414	22.94
286.63	38.25
286.846	36.11
287.061	42.4
287.277	45.87
287.493	44.88
287.709	44.61
287.924	44.97
288.14	44.77
288.356	57.87
288.571	58.99
288.787	57.91
289.003	63.61
289.218	63.67
289.434	57.89
289.65	58.81
289.865	51.88
290.081	48.81
290.296	45.19
290.512	43.03
290.727	44.28
290.943	34.18
291.159	28.61
291.374	23.23
291.59	14.41
291.805	10.85
292.021	-9.05
292.236	-4.31
292.451	3.61
292.667	3.59
292.882	1.46
293.098	-3.39
293.313	-10.75
293.529	6.78
293.744	13.98
293.959	11.37
294.175	9.32
294.39	19.45
294.605	33.63
294.821	39.35
295.036	33.19
295.251	33.31
295.467	27.07
295.682	28.25
295.897	20.44
296.112	12.64
296.328	14.61
296.543	14.08
296.758	9.16
296.973	17.87
297.188	16.76
297.404	21.09
297.619	26.94
297.834	35.37
298.049	32.77
298.264	29.2
298.479	21.9
298.694	31.49
298.909	22.5
299.125	26.08
299.34	18.95
299.555	20.96
299.77	14.14
299.985	14.87
300.2	7.15
300.415	10.76
300.63	1.35
300.845	1.31
301.06	4.92
301.275	18.82
301.49	15.38
301.704	16.79
301.919	14.06
302.134	8.95
302.349	2.71
302.564	-9.65
302.779	-15.69
302.994	-0.22
303.209	-0.99
303.423	16.51
303.638	35.68
303.853	53.09
304.068	56.42
304.283	53.32
304.497	47.59
304.712	49.28
304.927	38.82
305.142	35.75
305.356	32.62
305.571	34.1
305.786	32.91
306	33.44
306.215	28.33
306.43	41.88
306.644	37.13
306.859	36.14
307.074	32.24
307.288	34.01
307.503	18.84
307.717	18.55
307.932	9.47
308.147	9.16
308.361	7.29
308.576	11.34
308.79	8.87
309.005	20.39
309.219	19.47
309.434	21.13
309.648	15.34
309.863	20.16
310.077	22.2
310.292	25.99
310.506	37.46
310.72	47.73
310.935	47.93
311.149	53.42
311.364	54.32
311.578	48.29
311.792	44.8
312.007	32.02
312.221	21.56
312.435	20.35
312.649	23.53
312.864	11.72
313.078	20.08
313.292	24.02
313.507	30.26
313.721	41.11
313.935	60.79
314.149	37.62
314.363	44.45
314.578	57.98
314.792	62.76
315.006	65.43
315.22	63.85
315.434	47.16
315.648	61.08
315.862	60.51
316.077	50.13
316.291	49.34
316.505	48.82
316.719	34.6
316.933	44.61
317.147	34.36
317.361	35.28
317.575	33.53
317.789	25.9
318.003	35.66
318.217	44.76
318.431	48.69
318.645	51.37
318.859	39.69
319.073	35.32
319.287	32.81
319.5	28.92
319.714	29.99
319.928	24.52
320.142	25.39
320.356	35.16
320.57	36.67
320.784	40.01
320.997	41.45
321.211	41.86
321.425	30.64
321.639	30.49
321.853	23.2
322.066	19.62
322.28	17.83
322.494	7
322.707	-1.1
322.921	9.1
323.135	10.24
323.349	14.08
323.562	17.2
323.776	16.55
323.989	18.08
324.203	28.51
324.417	12.76
324.63	6
324.844	0.47
325.057	10.47
325.271	6.67
325.485	9.04
325.698	4.41
325.912	23.92
326.125	29.12
326.339	38.22
326.552	33.09
326.766	40.67
326.979	43.31
327.193	37.18
327.406	38.08
327.619	28.02
327.833	22.49
328.046	12.85
328.26	3.19
328.473	9.76
328.686	15.83
328.9	0.15
329.113	0.78
329.326	9.24
329.54	7.06
329.753	8.79
329.966	7.65
330.179	9.31
330.393	17.57
330.606	25.97
330.819	15.9
331.032	26.14
331.246	31.5
331.459	26.83
331.672	32.02
331.885	33.25
332.098	35.46
332.311	41.98
332.525	33.55
332.738	36.42
332.951	45.79
333.164	45.11
333.377	41.05
333.59	42.13
333.803	40.12
334.016	35.38
334.229	34.45
334.442	22.36
334.655	19.06
334.868	40.78
335.081	43.34
335.294	46.79
335.507	56.69
335.72	44.36
335.933	53.7
336.146	57
336.359	42.01
336.572	30.83
336.785	35.08
336.997	29.48
337.21	32.42
337.423	25.48
337.636	25.44
337.849	27.41
338.062	28.93
338.274	21.87
338.487	20.74
338.7	26.67
338.913	21.25
339.125	11.94
339.338	16.8
339.551	21.43
339.763	17.37
339.976	17.32
340.189	14.26
340.402	21.13
340.614	26.39
340.827	14.96
341.039	17.17
341.252	22.02
341.465	20.38
341.677	13.57
341.89	11.22
342.102	16.67
342.315	30.17
342.527	27.08
342.74	27.39
342.952	31.02
343.165	50.33
343.377	53.6
343.59	41.48
343.802	42.52
344.015	46.27
344.227	43.96
344.44	42.93
344.652	33.09
344.864	26.01
345.077	28.38
345.289	20.96
345.502	13.9
345.714	12.69
345.926	8.44
346.139	16.41
346.351	-1.31
346.563	8.49
346.775	6.36
346.988	6.04
347.2	4.74
347.412	7.92
347.624	6.61
347.837	19.16
348.049	18.29
348.261	16.91
348.473	9.33
348.685	19.28
348.897	20.93
349.11	16.21
349.322	15.94
349.534	8.41
349.746	12.02
349.958	25.58
350.17	24.76
350.382	24.54
350.594	27.92
350.806	37.65
351.018	41.31
351.23	44.78
351.442	35.94
351.654	30.59
351.866	33.26
352.078	31.25
352.29	29.91
352.502	25.56
352.714	21.17
352.926	29.96
353.138	28.06
353.35	26.08
353.561	16.71
353.773	8.9
353.985	13.3
354.197	10.11
354.409	11.49
354.621	16.59
354.832	11.86
355.044	26.38
355.256	28.09
355.468	24.13
355.679	30.18
355.891	26.77
356.103	25.02
356.314	25.75
356.526	16.34
356.738	11.98
356.949	18.01
357.161	14.63
357.373	11.81
357.584	22.46
357.796	17.49
358.008	20.83
358.219	35.23
358.431	34.71
358.642	36.23
358.854	39.39
359.065	33.92
359.277	30.11
359.488	25.75
359.7	18.73
359.911	16.25
360.123	20.48
360.334	19.09
360.546	5.41
360.757	20.82
360.969	27.1
361.18	25.97
361.391	28.61
361.603	27.49
361.814	28.18
362.025	36.66
362.237	28.64
362.448	29.41
362.659	22.17
362.871	20.49
363.082	22.64
363.293	22.66
363.504	20.84
363.716	20.74
363.927	16.59
364.138	20.09
364.349	21.9
364.56	20.29
364.772	22.55
364.983	25.95
365.194	32.75
365.405	36.53
365.616	30.32
365.827	26.05
366.038	23.2
366.25	21.04
366.461	17.59
366.672	16.01
366.883	23.08
367.094	30.42
367.305	34.4
367.516	36.52
367.727	29.45
367.938	26.96
368.149	27.61
368.36	19.72
368.571	18.72
368.781	9.09
368.992	10.08
369.203	8.75
369.414	8.34
369.625	3.91
369.836	6.37
370.047	3.65
370.258	3.82
370.468	0.76
370.679	-3.81
370.89	12.44
371.101	13.97
371.312	18.7
371.522	25.51
371.733	20.78
371.944	23.47
372.155	24.98
372.365	9.49
372.576	7.06
372.787	-1.92
372.997	-6.02
373.208	-3
373.419	-7.36
373.629	-0.44
373.84	4.18
374.05	7.1
374.261	4.64
374.472	9.31
374.682	15.23
374.893	8.64
375.103	16.44
375.314	12.17
375.524	13.71
375.735	17.78
375.945	14.16
376.156	14.27
376.366	20.21
376.577	15.53
376.787	17.75
376.997	16.51
377.208	9.49
377.418	7.72
377.629	9.86
377.839	10.57
378.049	16.69
378.26	8.79
378.47	13.55
378.68	15.37
378.89	22.7
379.101	15.84
379.311	7.77
379.521	9.98
379.732	6.81
379.942	1.61
380.152	12.24
380.362	9.61
380.572	14.86
380.783	17.91
380.993	15.36
381.203	25.7
381.413	30.25
381.623	24.73
381.833	20.89
382.043	15.58
382.253	17.98
382.463	18.06
382.674	16.47
382.884	12.97
383.094	13.63
383.304	11.08
383.514	16.98
383.724	16.31
383.934	12.88
384.144	15.08
384.353	12.66
384.563	9.68
384.773	15.25
384.983	14.24
385.193	16.97
385.403	18.18
385.613	14.29
385.823	15.98
386.033	17.7
386.242	15.13
386.452	11.86
386.662	13.52
386.872	10.96
387.082	8.75
387.291	6.38
387.501	7.06
387.711	7.7
387.921	6.79
388.13	3.22
388.34	4.14
388.55	8.76
388.759	9.85
388.969	8.34
389.179	11.31
389.388	11.93
389.598	9.85
389.807	9.03
390.017	6.85
390.227	5.81
390.436	6.27
390.646	3.69
390.855	3.71
391.065	4.67
391.274	4.14
391.484	4.23
391.693	4.48
391.903	5.18
392.112	4.33
392.322	6.8
392.531	7.88
392.74	7.38
392.95	6.94
393.159	7.83
393.369	6.71
393.578	6.54
393.787	4.89
393.997	5.02
394.206	5.27
394.415	5.31
394.625	3.39
394.834	2.5
395.043	3.3
395.252	4.59
395.462	3.75
395.671	4.26
395.88	4.61
396.089	6
396.298	6.53
396.508	5.85
396.717	4.6
396.926	4.08
397.135	3.29
397.344	3.1
397.553	3.14
397.762	3.29
397.971	3.27
398.181	3.2
398.39	4.15
398.599	4.98
398.808	4.97
399.017	4.86
399.226	4.88
399.435	5.1
399.644	5.19
399.853	4.91
400.062	4.23
400.27	4.19
400.479	4.1
400.688	4.21
400.897	4.23
401.106	4.19
401.315	4.04
401.524	4.25
401.733	4.53
401.941	4.41
402.15	4.05
402.359	3.99
402.568	4.12
402.777	3.98
402.985	3.95
403.194	3.68
403.403	3.48
403.612	3.58
403.82	3.6
404.029	3.48
404.238	3.66
404.446	3.61
404.655	3.6
404.864	3.67
405.072	3.72
405.281	3.53
405.489	3.62
405.698	3.49
405.906	3.49
406.115	3.5
406.324	3.46
406.532	3.44
406.741	3.59
406.949	3.41
407.158	3.52
407.366	3.5
407.574	3.44
407.783	3.38
407.991	3.25
408.2	3.16
408.408	3.23
408.617	3.12
408.825	3.12
409.033	3.08
409.242	3.16
409.45	3.25
409.658	3.27
409.867	3.2
410.075	3.17
410.283	3.08
410.491	3.04
410.7	3.02
410.908	2.98
411.116	2.92
411.324	2.99
411.533	2.96
411.741	2.92
411.949	2.97
412.157	3.01
412.365	2.93
412.573	2.97
412.781	2.87
412.99	2.93
413.198	3.02
413.406	2.98
413.614	2.91
413.822	2.92
414.03	2.88
414.238	3.02
414.446	2.97
414.654	3
414.862	2.98
415.07	3.1
415.278	3.02
415.486	3.08
415.694	3.02
415.902	2.98
416.109	2.98
416.317	2.94
416.525	2.9
416.733	2.95
416.941	2.84
417.149	2.86
417.357	2.87
417.564	2.78
417.772	2.89
417.98	2.81
418.188	2.71
418.395	2.76
418.603	2.54
418.811	2.53
419.019	2.57
419.226	2.57
419.434	2.44
419.642	2.48
419.849	2.52
420.057	2.64
420.265	2.62
420.472	2.53
420.68	2.46
420.887	2.63
421.095	2.65
421.302	2.59
421.51	2.65
421.717	2.69
421.925	2.67
422.132	2.59
422.34	2.53
422.547	2.52
422.755	2.48
422.962	2.33
423.17	2.27
423.377	2.37
423.585	2.36
423.792	2.28
423.999	2.26
424.207	2.21
424.414	2.28
424.621	2.34
424.829	2.27
425.036	2.28
425.243	2.35
425.451	2.37
425.658	2.45
425.865	2.5
426.072	2.46
426.28	2.49
426.487	2.53
426.694	2.49
426.901	2.48
427.108	2.49
427.315	2.42
427.523	2.47
427.73	2.43
427.937	2.45
428.144	2.49
428.351	2.58
428.558	2.54
428.765	2.47
428.972	2.46
429.179	2.45
429.386	2.5
429.593	2.38
429.8	2.34
430.007	2.4
430.214	2.51
430.421	2.51
430.628	2.41
430.835	2.35
431.042	2.47
431.249	2.47
431.456	2.45
431.662	2.47
431.869	2.52
432.076	2.63
432.283	2.62
432.49	2.53
432.697	2.55
432.903	2.58
433.11	2.57
433.317	2.51
433.524	2.43
433.73	2.48
433.937	2.53
434.144	2.56
434.35	2.46
434.557	2.42
434.764	2.45
434.97	2.61
435.177	2.53
435.384	2.55
435.59	2.49
435.797	2.6
436.003	2.64
436.21	2.62
436.416	2.51
436.623	2.62
436.829	2.66
437.036	2.67
437.242	2.66
437.449	2.65
437.655	2.69
437.862	2.73
438.068	2.75
438.275	2.74
438.481	2.79
438.687	2.8
438.894	2.79
439.1	2.83
439.307	2.84
439.513	2.83
439.719	2.84
439.926	2.82
440.132	2.75
440.338	2.78
440.544	2.75
440.751	2.78
440.957	2.71
441.163	2.72
441.369	2.72
441.575	2.73
441.782	2.74
441.988	2.74
442.194	2.77
442.4	2.78
442.606	2.8
442.812	2.79
443.018	2.83
443.224	2.85
443.431	2.86
443.637	2.78
443.843	2.88
444.049	2.81
444.255	2.77
444.461	2.75
444.667	2.74
444.873	2.72
445.079	2.79
445.284	2.69
445.49	2.72
445.696	2.81
445.902	2.87
446.108	2.87
446.314	2.94
446.52	2.93
446.726	3
446.931	3.05
447.137	3.04
447.343	3
447.549	2.99
447.755	2.95
447.96	2.94
448.166	2.95
448.372	2.91
448.578	2.92
448.783	2.9
448.989	2.96
449.195	2.97
449.4	2.99
449.606	2.94
449.812	3
450.017	2.98
450.223	2.99
450.428	2.96
450.634	2.99
450.84	2.99
451.045	3.01
451.251	3.05
451.456	3.07
451.662	3.04
451.867	3.03
452.073	3.03
452.278	3.09
452.483	3.05
452.689	2.95
452.894	2.96
453.1	2.96
453.305	2.96
453.51	2.96
453.716	2.89
453.921	2.98
454.127	3
454.332	3
454.537	3.07
454.742	3.11
454.948	3.09
455.153	3.1
455.358	3.15
455.563	3.23
455.769	3.22
455.974	3.19
456.179	3.07
456.384	3.09
456.589	3.1
456.795	2.99
457	2.92
457.205	2.87
457.41	2.89
457.615	3.03
457.82	3.04
458.025	3.03
458.23	3.09
458.435	3.09
458.64	3.19
458.845	3.17
459.05	3.1
459.255	3.06
459.46	3.09
459.665	3.1
459.87	3.08
460.075	3.06
460.28	3.13
460.485	3.18
460.69	3.15
460.895	3.18
461.099	3.18
461.304	3.23
461.509	3.14
461.714	3.08
461.919	3.01
462.123	3.09
462.328	3.02
462.533	3.03
462.738	3
462.942	3.12
463.147	3.14
463.352	3.2
463.556	3.15
463.761	3.16
463.966	3.21
464.17	3.21
464.375	3.12
464.58	3.13
464.784	3.12
464.989	3.14
465.193	3.21
465.398	3.15
465.602	3.2
465.807	3.25
466.011	3.29
466.216	3.31
466.42	3.39
466.625	3.42
466.829	3.5
467.034	3.54
467.238	3.55
467.443	3.54
467.647	3.55
467.851	3.52
468.056	3.48
468.26	3.41
468.464	3.37
468.669	3.4
468.873	3.41
469.077	3.42
469.282	3.42
469.486	3.46
469.69	3.51
469.894	3.61
470.099	3.65
470.303	3.65
470.507	3.61
470.711	3.64
470.915	3.65
471.119	3.63
471.324	3.56
471.528	3.56
471.732	3.58
471.936	3.63
472.14	3.64
472.344	3.65
472.548	3.71
472.752	3.77
472.956	3.79
473.16	3.8
473.364	3.83
473.568	3.85
473.772	3.89
473.976	3.88
474.18	3.86
474.384	3.85
474.588	3.89
474.792	3.88
474.995	3.88
475.199	3.87
475.403	3.89
475.607	3.89
475.811	3.91
476.015	3.98
476.218	4.03
476.422	4.05
476.626	4.06
476.83	4.09
477.033	4.13
477.237	4.17
477.441	4.17
477.644	4.21
477.848	4.23
478.052	4.28
478.255	4.3
478.459	4.37
478.663	4.36
478.866	4.33
479.07	4.34
479.273	4.34
479.477	4.37
479.681	4.38
479.884	4.28
480.088	4.32
480.291	4.37
480.495	4.4
480.698	4.41
480.901	4.37
481.105	4.42
481.308	4.48
481.512	4.49
481.715	4.56
481.919	4.56
482.122	4.56
482.325	4.63
482.529	4.65
482.732	4.67
482.935	4.67
483.138	4.61
483.342	4.64
483.545	4.67
483.748	4.67
483.952	4.68
484.155	4.75
484.358	4.76
484.561	4.8
484.764	4.81
484.967	4.85
485.171	4.85
485.374	4.82
485.577	4.8
485.78	4.81
485.983	4.82
486.186	4.79
486.389	4.76
486.592	4.79
486.795	4.87
486.998	4.88
487.201	4.87
487.404	4.9
487.607	4.93
487.81	4.98
488.013	4.94
488.216	4.9
488.419	4.88
488.622	4.87
488.825	4.84
489.028	4.82
489.231	4.81
489.433	4.82
489.636	4.79
489.839	4.8
490.042	4.8
490.245	4.82
490.447	4.82
490.65	4.84
490.853	4.82
491.056	4.82
491.258	4.88
491.461	4.88
491.664	4.85
491.866	4.88
492.069	4.89
492.272	4.89
492.474	4.93
492.677	4.91
492.879	4.92
493.082	4.99
493.285	5.01
493.487	5.01
493.69	5.06
493.892	5.09
494.095	5.07
494.297	5.14
494.5	5.15
494.702	5.15
494.905	5.19
495.107	5.2
495.309	5.15
495.512	5.22
495.714	5.2
495.917	5.21
496.119	5.26
496.321	5.28
496.524	5.29
496.726	5.36
496.928	5.35
497.13	5.41
497.333	5.41
497.535	5.41
497.737	5.39
497.939	5.4
498.142	5.36
498.344	5.39
498.546	5.39
498.748	5.4
498.95	5.42
499.152	5.43
499.355	5.46
499.557	5.57
499.759	5.62
499.961	5.62
500.163	5.68
500.365	5.7
500.567	5.72
500.769	5.76
500.971	5.75
501.173	5.74
501.375	5.79
501.577	5.81
501.779	5.82
501.981	5.87
502.183	5.89
502.385	5.93
502.587	5.98
502.788	5.98
502.99	6
503.192	6.08
503.394	6.1
503.596	6.16
503.798	6.23
503.999	6.24
504.201	6.28
504.403	6.3
504.605	6.3
504.806	6.34
505.008	6.34
505.21	6.35
505.411	6.42
505.613	6.46
505.815	6.5
506.016	6.57
506.218	6.61
506.42	6.67
506.621	6.68
506.823	6.72
507.024	6.77
507.226	6.81
507.427	6.78
507.629	6.84
507.83	6.79
508.032	6.89
508.233	6.88
508.435	6.9
508.636	6.95
508.838	7.03
509.039	7.06
509.24	7.14
509.442	7.11
509.643	7.14
509.845	7.19
510.046	7.18
510.247	7.23
510.448	7.25
510.65	7.27
510.851	7.3
511.052	7.35
511.254	7.37
511.455	7.4
511.656	7.36
511.857	7.38
512.058	7.41
512.26	7.46
512.461	7.51
512.662	7.53
512.863	7.55
513.064	7.59
513.265	7.65
513.466	7.68
513.667	7.69
513.868	7.69
514.069	7.72
514.27	7.78
514.471	7.81
514.672	7.81
514.873	7.85
515.074	7.88
515.275	7.9
515.476	7.87
515.677	7.88
515.878	7.95
516.079	7.99
516.28	7.98
516.481	8.01
516.682	8.07
516.882	8.09
517.083	8.11
517.284	8.07
517.485	8.1
517.686	8.12
517.886	8.13
518.087	8.13
518.288	8.16
518.488	8.18
518.689	8.22
518.89	8.22
519.091	8.24
519.291	8.26
519.492	8.28
519.692	8.33
519.893	8.36
520.094	8.38
520.294	8.38
520.495	8.39
520.695	8.44
520.896	8.43
521.096	8.48
521.297	8.48
521.497	8.51
521.698	8.53
521.898	8.57
522.099	8.59
522.299	8.64
522.499	8.63
522.7	8.63
522.9	8.66
523.101	8.68
523.301	8.7
523.501	8.72
523.702	8.73
523.902	8.76
524.102	8.82
524.302	8.81
524.503	8.85
524.703	8.9
524.903	8.93
525.103	8.96
525.304	8.95
525.504	8.97
525.704	8.99
525.904	9.02
526.104	9.03
526.304	9.02
526.504	9.04
526.705	9.07
526.905	9.09
527.105	9.12
527.305	9.1
527.505	9.1
527.705	9.11
527.905	9.13
528.105	9.12
528.305	9.13
528.505	9.15
528.705	9.17
528.905	9.19
529.105	9.24
529.304	9.27
529.504	9.32
529.704	9.33
529.904	9.36
530.104	9.41
530.304	9.41
530.503	9.41
530.703	9.45
530.903	9.5
531.103	9.53
531.303	9.58
531.502	9.59
531.702	9.62
531.902	9.67
532.101	9.67
532.301	9.64
532.501	9.69
532.7	9.67
532.9	9.7
533.1	9.72
533.299	9.81
533.499	9.81
533.698	9.88
533.898	9.86
534.097	9.91
534.297	9.96
534.496	9.99
534.696	9.96
534.895	10.04
535.095	10.08
535.294	10.13
535.494	10.17
535.693	10.22
535.892	10.29
536.092	10.33
536.291	10.36
536.491	10.39
536.69	10.44
536.889	10.43
537.088	10.44
537.288	10.49
537.487	10.54
537.686	10.57
537.886	10.59
538.085	10.63
538.284	10.67
538.483	10.71
538.682	10.71
538.882	10.73
539.081	10.76
539.28	10.78
539.479	10.82
539.678	10.91
539.877	10.98
540.076	11.06
540.275	11.12
540.474	11.14
540.673	11.19
540.872	11.23
541.071	11.23
541.27	11.24
541.469	11.28
541.668	11.35
541.867	11.42
542.066	11.48
542.265	11.54
542.464	11.62
542.663	11.69
542.862	11.74
543.06	11.78
543.259	11.84
543.458	11.9
543.657	11.95
543.856	12.01
544.054	12.05
544.253	12.06
544.452	12.08
544.651	12.12
544.849	12.18
545.048	12.24
545.247	12.27
545.445	12.31
545.644	12.4
545.843	12.48
546.041	12.56
546.24	12.6
546.438	12.71
546.637	12.81
546.836	12.91
547.034	12.94
547.233	13
547.431	13.05
547.63	13.12
547.828	13.17
548.027	13.18
548.225	13.26
548.423	13.37
548.622	13.44
548.82	13.55
549.019	13.61
549.217	13.69
549.415	13.82
549.614	13.85
549.812	13.93
550.01	14.06
550.209	14.13
550.407	14.24
550.605	14.33
550.803	14.39
551.002	14.48
551.2	14.6
551.398	14.67
551.596	14.75
551.794	14.84
551.993	14.9
552.191	15.02
552.389	15.17
552.587	15.24
552.785	15.31
552.983	15.37
553.181	15.47
553.379	15.58
553.577	15.64
553.775	15.71
553.973	15.83
554.171	15.91
554.369	16.01
554.567	16.1
554.765	16.17
554.963	16.25
555.161	16.35
555.359	16.43
555.557	16.54
555.755	16.65
555.952	16.76
556.15	16.93
556.348	17.09
556.546	17.2
556.744	17.28
556.941	17.39
557.139	17.52
557.337	17.63
557.535	17.73
557.732	17.83
557.93	17.93
558.128	18.06
558.325	18.17
558.523	18.24
558.721	18.37
558.918	18.49
559.116	18.58
559.313	18.72
559.511	18.84
559.708	18.97
559.906	19.14
560.104	19.25
560.301	19.33
560.498	19.49
560.696	19.6
560.893	19.73
561.091	19.87
561.288	19.98
561.486	20.1
561.683	20.19
561.88	20.3
562.078	20.41
562.275	20.51
562.473	20.6
562.67	20.72
562.867	20.84
563.064	20.99
563.262	21.14
563.459	21.31
563.656	21.46
563.853	21.59
564.051	21.72
564.248	21.9
564.445	22.01
564.642	22.11
564.839	22.19
565.036	22.29
565.234	22.43
565.431	22.55
565.628	22.56
565.825	22.7
566.022	22.77
566.219	22.9
566.416	23.03
566.613	23.19
566.81	23.22
567.007	23.35
567.204	23.46
567.401	23.59
567.598	23.67
567.795	23.73
567.991	23.79
568.188	23.94
568.385	24.05
568.582	24.14
568.779	24.2
568.976	24.32
569.172	24.42
569.369	24.48
569.566	24.57
569.763	24.69
569.96	24.73
570.156	24.79
570.353	24.84
570.55	24.92
570.746	24.97
570.943	25.06
571.14	25.1
571.336	25.18
571.533	25.3
571.729	25.32
571.926	25.34
572.123	25.41
572.319	25.4
572.516	25.4
572.712	25.44
572.909	25.52
573.105	25.61
573.302	25.63
573.498	25.71
573.695	25.74
573.891	25.8
574.087	25.84
574.284	25.81
574.48	25.81
574.677	25.86
574.873	25.88
575.069	25.96
575.266	25.97
575.462	26.01
575.658	26.07
575.854	26.1
576.051	26.14
576.247	26.16
576.443	26.21
576.639	26.24
576.835	26.23
577.032	26.24
577.228	26.29
577.424	26.32
577.62	26.34
577.816	26.35
578.012	26.37
578.208	26.4
578.404	26.41
578.6	26.34
578.796	26.35
578.993	26.35
579.189	26.3
579.384	26.28
579.58	26.27
579.776	26.2
579.972	26.22
580.168	26.23
580.364	26.17
580.56	26.11
580.756	26.11
580.952	26.08
581.148	26.1
581.343	26.12
581.539	26.06
581.735	26.05
581.931	26.09
582.127	26.07
582.322	26.07
582.518	26.04
582.714	26.01
582.909	26.05
583.105	26.04
583.301	26.02
583.496	26.03
583.692	25.99
583.888	25.98
584.083	26
584.279	26
584.474	25.98
584.67	25.99
584.866	25.97
585.061	26
585.257	26.02
585.452	25.93
585.648	25.91
585.843	25.91
586.039	25.91
586.234	25.89
586.429	25.85
586.625	25.78
586.82	25.79
587.015	25.74
587.211	25.76
587.406	25.74
587.601	25.76
587.797	25.72
587.992	25.78
588.187	25.83
588.383	25.87
588.578	25.86
588.773	25.84
588.968	25.86
589.163	25.93
589.359	25.95
589.554	25.92
589.749	25.91
589.944	25.93
590.139	25.96
590.334	25.99
590.529	26.1
590.724	26.15
590.919	26.21
591.114	26.28
591.309	26.31
591.504	26.34
591.699	26.4
591.894	26.42
592.089	26.42
592.284	26.47
592.479	26.52
592.674	26.58
592.869	26.64
593.064	26.65
593.259	26.7
593.454	26.75
593.648	26.83
593.843	26.87
594.038	26.93
594.233	27.02
594.428	27.12
594.622	27.18
594.817	27.25
595.012	27.32
595.206	27.46
595.401	27.54
595.596	27.64
595.79	27.77
595.985	27.82
596.18	27.94
596.374	28.01
596.569	28.09
596.763	28.23
596.958	28.3
597.153	28.34
597.347	28.42
597.542	28.5
597.736	28.59
597.931	28.66
598.125	28.68
598.319	28.73
598.514	28.76
598.708	28.84
598.903	28.91
599.097	28.97
599.291	29.01
599.486	29.1
599.68	29.18
599.874	29.32
600.069	29.39
600.263	29.41
600.457	29.48
600.651	29.57
600.846	29.6
601.04	29.62
601.234	29.66
601.428	29.68
601.622	29.68
601.817	29.72
602.011	29.72
602.205	29.76
602.399	29.82
602.593	29.83
602.787	29.91
602.981	30.02
603.175	29.98
603.369	29.98
603.563	29.98
603.757	29.97
603.951	29.91
604.145	29.88
604.339	29.83
604.533	29.85
604.727	29.83
604.921	29.81
605.115	29.75
605.309	29.79
605.502	29.78
605.696	29.73
605.89	29.7
606.084	29.67
606.278	29.63
606.471	29.57
606.665	29.51
606.859	29.42
607.053	29.36
607.246	29.27
607.44	29.26
607.634	29.14
607.827	29.08
608.021	28.95
608.214	28.89
608.408	28.82
608.602	28.77
608.795	28.64
608.989	28.59
609.182	28.58
609.376	28.49
609.569	28.39
609.763	28.37
609.956	28.27
610.15	28.21
610.343	28.15
610.537	28.05
610.73	28.05
610.923	27.98
611.117	27.85
611.31	27.79
611.504	27.75
611.697	27.67
611.89	27.56
612.083	27.44
612.277	27.32
612.47	27.21
612.663	27.12
612.856	26.96
613.05	26.81
613.243	26.72
613.436	26.64
613.629	26.61
613.822	26.55
614.015	26.43
614.209	26.42
614.402	26.37
614.595	26.32
614.788	26.2
614.981	26.08
615.174	25.96
615.367	25.89
615.56	25.74
615.753	25.7
615.946	25.66
616.139	25.65
616.332	25.63
616.525	25.63
616.718	25.58
616.911	25.57
617.103	25.51
617.296	25.4
617.489	25.27
617.682	25.24
617.875	25.11
618.067	25.01
618.26	24.93
618.453	24.83
618.646	24.73
618.838	24.74
619.031	24.7
619.224	24.71
619.417	24.69
619.609	24.65
619.802	24.72
619.994	24.72
620.187	24.67
620.38	24.62
620.572	24.61
620.765	24.56
620.957	24.51
621.15	24.36
621.342	24.38
621.535	24.36
621.727	24.31
621.92	24.22
622.112	24.28
622.305	24.22
622.497	24.17
622.69	24.06
622.882	24.02
623.074	23.97
623.267	23.96
623.459	23.84
623.651	23.82
623.844	23.86
624.036	23.87
624.228	23.83
624.42	23.85
624.613	23.86
624.805	23.83
624.997	23.81
625.189	23.81
625.381	23.77
625.574	23.69
625.766	23.63
625.958	23.6
626.15	23.61
626.342	23.59
626.534	23.49
626.726	23.47
626.918	23.39
627.11	23.33
627.302	23.28
627.494	23.2
627.686	23.19
627.878	23.17
628.07	23.12
628.262	23.13
628.454	23.12
628.646	23.08
628.838	23.05
629.029	22.93
629.221	22.88
629.413	22.81
629.605	22.81
629.797	22.79
629.989	22.79
630.18	22.8
630.372	22.83
630.564	22.83
630.755	22.8
630.947	22.75
631.139	22.6
631.33	22.51
631.522	22.41
631.714	22.36
631.905	22.33
632.097	22.28
632.289	22.23
632.48	22.28
632.672	22.2
632.863	22.21
633.055	22.16
633.246	22.15
633.438	22.15
633.629	22.22
633.821	22.19
634.012	22.26
634.203	22.29
634.395	22.35
634.586	22.29
634.777	22.27
634.969	22.18
635.16	22.11
635.351	22.11
635.543	22.05
635.734	21.98
635.925	22.05
636.117	22.04
636.308	22.03
636.499	22.05
636.69	22.1
636.881	22.09
637.073	22.07
637.264	21.99
637.455	22.05
637.646	22.09
637.837	22.07
638.028	22.06
638.219	22.04
638.41	22.02
638.601	22.03
638.792	21.94
638.983	21.88
639.174	21.89
639.365	21.82
639.556	21.82
639.747	21.92
639.938	21.88
640.129	21.92
640.32	21.94
640.511	21.94
640.701	21.87
640.892	21.83
641.083	21.74
641.274	21.71
641.465	21.63
641.655	21.57
641.846	21.5
642.037	21.53
642.228	21.48
642.418	21.4
642.609	21.38
642.8	21.39
642.99	21.42
643.181	21.46
643.372	21.41
643.562	21.39
643.753	21.38
643.943	21.29
644.134	21.28
644.324	21.23
644.515	21.14
644.705	21.16
644.896	21.14
645.086	21.09
645.277	21.18
645.467	21.18
645.658	21.13
645.848	21.09
646.038	21.05
646.229	21
646.419	21.06
646.61	21.01
646.8	20.99
646.99	20.96
647.18	20.93
647.371	20.89
647.561	20.87
647.751	20.8
647.941	20.71
648.132	20.68
648.322	20.65
648.512	20.7
648.702	20.63
648.892	20.66
649.082	20.62
649.272	20.57
649.462	20.48
649.653	20.48
649.843	20.41
650.033	20.42
650.223	20.39
650.413	20.37
650.603	20.39
650.793	20.33
650.983	20.27
651.172	20.22
651.362	20.12
651.552	19.98
651.742	19.88
651.932	19.81
652.122	19.77
652.312	19.65
652.502	19.57
652.691	19.51
652.881	19.5
653.071	19.39
653.261	19.29
653.45	19.19
653.64	19.17
653.83	19.03
654.019	18.84
654.209	18.62
654.399	18.54
654.588	18.43
654.778	18.31
654.968	18.12
655.157	17.99
655.347	17.88
655.536	17.74
655.726	17.58
655.915	17.37
656.105	17.16
656.294	16.93
656.484	16.72
656.673	16.58
656.863	16.42
657.052	16.2
657.241	16.04
657.431	15.87
657.62	15.71
657.809	15.51
657.999	15.31
658.188	15.14
658.377	15.02
658.567	14.79
658.756	14.55
658.945	14.37
659.134	14.16
659.324	13.92
659.513	13.64
659.702	13.35
659.891	13.12
660.08	12.95
660.269	12.73
660.458	12.54
660.648	12.35
660.837	12.25
661.026	12.07
661.215	11.92
661.404	11.72
661.593	11.54
661.782	11.33
661.971	11.18
662.16	10.93
662.349	10.73
662.538	10.65
662.726	10.48
662.915	10.32
663.104	10.15
663.293	9.97
663.482	9.82
663.671	9.7
663.86	9.49
664.048	9.37
664.237	9.26
664.426	9.16
664.615	9.04
664.803	8.88
664.992	8.8
665.181	8.67
665.369	8.56
665.558	8.46
665.747	8.46
665.935	8.39
666.124	8.36
666.312	8.27
666.501	8.19
666.69	8.08
666.878	7.97
667.067	7.89
667.255	7.83
667.444	7.78
667.632	7.7
667.82	7.64
668.009	7.65
668.197	7.63
668.386	7.52
668.574	7.47
668.762	7.41
668.951	7.37
669.139	7.41
669.327	7.36
669.516	7.38
669.704	7.34
669.892	7.32
670.08	7.27
670.269	7.32
670.457	7.18
670.645	7.17
670.833	7.12
671.021	7.1
671.21	7.14
671.398	7.16
671.586	7.14
671.774	7.18
671.962	7.15
672.15	7.14
672.338	7.19
672.526	7.16
672.714	7.19
672.902	7.22
673.09	7.29
673.278	7.33
673.466	7.45
673.654	7.5
673.842	7.6
674.03	7.61
674.218	7.63
674.405	7.66
674.593	7.74
674.781	7.71
674.969	7.74
675.157	7.74
675.344	7.86
675.532	7.94
675.72	8.03
675.908	8.09
676.095	8.27
676.283	8.26
676.471	8.37
676.658	8.42
676.846	8.55
677.033	8.65
677.221	8.72
677.409	8.7
677.596	8.93
677.784	9
677.971	9.09
678.159	9.18
678.346	9.23
678.534	9.38
678.721	9.54
678.909	9.59
679.096	9.69
679.283	9.89
679.471	10.1
679.658	10.22
679.846	10.34
680.033	10.47
680.22	10.53
680.408	10.67
680.595	10.7
680.782	10.68
680.969	10.79
681.157	10.93
681.344	11.05
681.531	11.3
681.718	11.48
681.905	11.74
682.093	11.95
682.28	12.23
682.467	12.36
682.654	12.55
682.841	12.75
683.028	12.97
683.215	13.13
683.402	13.36
683.589	13.55
683.776	13.79
683.963	14.04
684.15	14.28
684.337	14.5
684.524	14.78
684.711	15.01
684.898	15.23
685.085	15.57
685.271	15.86
685.458	16.25
685.645	16.61
685.832	16.97
686.019	17.35
686.205	17.73
686.392	18.11
686.579	18.53
686.766	18.86
686.952	19.29
687.139	19.66
687.326	20.16
687.512	20.6
687.699	21.04
687.886	21.37
688.072	21.85
688.259	22.31
688.445	22.78
688.632	23.34
688.818	23.85
689.005	24.5
689.191	25.18
689.378	25.77
689.564	26.31
689.751	27.04
689.937	27.55
690.124	28.26
690.31	28.78
690.496	29.38
690.683	30.02
690.869	30.64
691.055	31.29
691.242	31.93
691.428	32.6
691.614	33.37
691.8	34.06
691.987	34.8
692.173	35.69
692.359	36.35
692.545	37.09
692.731	37.72
692.918	38.35
693.104	39.1
693.29	39.77
693.476	40.34
693.662	41.08
693.848	41.71
694.034	42.46
694.22	43.2
694.406	43.94
694.592	44.64
694.778	45.38
694.964	45.97
695.15	46.74
695.336	47.54
695.522	48.36
695.708	49.01
695.894	49.88
696.08	50.67
696.265	51.37
696.451	52.24
696.637	52.83
696.823	53.39
697.009	54.2
697.194	54.65
697.38	55.13
697.566	55.8
697.751	56.27
697.937	56.98
698.123	57.55
698.308	57.96
698.494	58.57
698.68	59.14
698.865	59.83
699.051	60.44
699.236	61.06
699.422	61.61
699.607	62.1
699.793	62.48
699.978	63.03
700.164	63.51
700.349	63.87
700.535	64.14
700.72	64.55
700.906	65.13
701.091	65.82
701.276	66.34
701.462	66.73
701.647	67.22
701.832	67.62
702.018	68.02
702.203	68.25
702.388	68.46
702.573	68.89
702.759	69.31
702.944	69.81
703.129	70.22
703.314	70.73
703.499	71.18
703.684	71.83
703.87	72.01
704.055	72.28
704.24	72.4
704.425	72.92
704.61	73.12
704.795	73.52
704.98	73.58
705.165	74.02
705.35	74.34
705.535	74.86
705.72	75.03
705.905	75.29
706.09	75.53
706.275	75.87
706.459	76.18
706.644	76.38
706.829	76.43
707.014	76.62
707.199	76.66
707.384	76.93
707.568	77.37
707.753	77.53
707.938	77.72
708.123	77.87
708.307	78.3
708.492	78.72
708.677	79.02
708.861	78.84
709.046	78.8
709.231	78.92
709.415	79.12
709.6	78.99
709.784	79.04
709.969	79.07
710.153	79.53
710.338	79.89
710.522	79.97
710.707	79.81
710.891	79.96
711.076	80.01
711.26	80.38
711.445	80.19
711.629	80.43
711.813	80.64
711.998	81.09
712.182	81.36
712.366	81.98
712.551	81.92
712.735	82.15
712.919	82.15
713.103	82.46
713.288	82.72
713.472	82.8
713.656	82.42
713.84	82.32
714.024	82.61
714.208	82.65
714.393	82.55
714.577	82.64
714.761	82.92
714.945	82.89
715.129	83.14
715.313	83
715.497	83.23
715.681	83.62
715.865	83.63
716.049	83.5
716.233	84.15
716.417	84.38
716.601	84.64
716.785	84.56
716.968	84.25
717.152	84.49
717.336	84.56
717.52	84.43
717.704	84.62
717.888	84.62
718.071	84.77
718.255	85.1
718.439	84.85
718.622	85.45
718.806	85.27
718.99	85.09
719.174	84.8
719.357	84.94
719.541	85.13
719.724	85.42
719.908	85.04
720.092	85.32
720.275	85.35
720.459	85.94
720.642	86.09
720.826	86.02
721.009	85.89
721.193	85.86
721.376	85.89
721.559	86.18
721.743	85.88
721.926	85.5
722.11	85.63
722.293	85.31
722.476	85.3
722.66	85.23
722.843	85.19
723.026	85.56
723.21	85.83
723.393	85.77
723.576	86.26
723.759	86.49
723.942	86.69
724.126	86.48
724.309	86.41
724.492	86.39
724.675	86.69
724.858	87.05
725.041	87.12
725.224	87.24
725.407	87.4
725.59	87.44
725.774	87.55
725.957	87.7
726.14	87.52
726.322	87.46
726.505	87.94
726.688	87.91
726.871	88.26
727.054	88.38
727.237	87.99
727.42	88.22
727.603	88.27
727.786	88.2
727.968	88.53
728.151	88.56
728.334	88.6
728.517	88.84
728.699	89.15
728.882	89.75
729.065	89.5
729.248	89.24
729.43	89.36
729.613	89.55
729.796	89.49
729.978	89.23
730.161	89.1
730.343	89.16
730.526	89.35
730.708	89.72
730.891	89.82
731.073	90.03
731.256	90.3
731.438	90.48
731.621	90.8
731.803	90.91
731.986	90.37
732.168	90.12
732.35	90.41
732.533	90.39
732.715	90.2
732.898	90.01
733.08	90.15
733.262	90.11
733.444	90.32
733.627	90.25
733.809	90.28
733.991	90.41
734.173	90.12
734.355	90.41
734.538	90.85
734.72	91.44
734.902	91.07
735.084	91.62
735.266	91.77
735.448	92.66
735.63	92.19
735.812	92.2
735.994	91.49
736.176	92.11
736.358	91.94
736.54	91.53
736.722	91.03
736.904	91.5
737.086	91.23
737.268	91.35
737.45	90.86
737.632	89.93
737.814	90.21
737.995	90.93
738.177	91.28
738.359	91.61
738.541	91.39
738.723	91.79
738.904	92.11
739.086	92.56
739.268	92.19
739.449	91.85
739.631	91.72
739.813	92.01
739.994	92.24
740.176	92.45
740.358	92.25
740.539	92.17
740.721	92.29
740.902	92.05
741.084	92.15
741.265	91.9
741.447	91.66
741.628	91.25
741.81	91.44
741.991	91.53
742.172	91.72
742.354	92.03
742.535	91.95
742.717	92.15
742.898	92.75
743.079	93.04
743.261	92.94
743.442	93.08
743.623	92.6
743.804	92.59
743.986	92.57
744.167	92.29
744.348	91.96
744.529	91.49
744.71	90.86
744.891	91.59
745.073	91.35
745.254	91.53
745.435	91
745.616	90.71
745.797	90.14
745.978	91.11
746.159	90.09
746.34	90.24
746.521	90.58
746.702	90.3
746.883	90.2
747.064	90.62
747.245	91.36
747.426	92.23
747.606	92.07
747.787	91.89
747.968	93.34
748.149	93.55
748.33	94.14
748.51	92.63
748.691	92.14
748.872	92.29
749.053	92.02
749.233	91.01
749.414	91.09
749.595	90.14
749.775	90.04
749.956	89.92
750.137	89.9
750.317	89.77
750.498	89.91
750.678	89.92
750.859	90.38
751.04	90.35
751.22	89.81
751.4	90.02
751.581	90.01
751.761	90.38
751.942	90.43
752.122	90.39
752.303	90.97
752.483	91.85
752.663	92.34
752.844	91.79
753.024	91.67
753.204	91.51
753.385	91.33
753.565	90.1
753.745	89.81
753.925	88.65
754.106	89.19
754.286	88.82
754.466	88.06
754.646	88.24
754.826	89.03
755.006	88.52
755.187	89.43
755.367	89.42
755.547	89.54
755.727	89.51
755.907	90.21
756.087	90.14
756.267	90.31
756.447	90.68
756.627	90.3
756.807	90.72
756.987	91.93
757.167	91.86
757.346	91.03
757.526	91.4
757.706	90.95
757.886	90.98
758.066	90.1
758.246	89.72
758.425	89.41
758.605	89.94
758.785	89.72
758.965	88.61
759.144	88.71
759.324	89.47
759.504	89.12
759.683	88.55
759.863	88.66
760.043	89.16
760.222	89.24
760.402	89.65
760.581	88.45
760.761	87.19
760.94	86.77
761.12	86.81
761.299	85.95
761.479	86.83
761.658	86.07
761.838	87.22
762.017	88
762.197	89.14
762.376	89.62
762.555	90.13
762.735	88.72
762.914	89.6
763.093	89
763.273	89.38
763.452	88.55
763.631	87.14
763.81	87.06
763.99	88.06
764.169	87.84
764.348	87.87
764.527	87.64
764.706	87.64
764.885	88.63
765.064	87.72
765.243	86.89
765.423	87.46
765.602	87.51
765.781	87.33
765.96	88.12
766.139	88.16
766.318	89.49
766.497	89.9
766.676	90.16
766.854	89.31
767.033	89.01
767.212	88.64
767.391	88.52
767.57	88.18
767.749	88.18
767.928	86.06
768.106	86.6
768.285	86.78
768.464	86.64
768.643	86.96
768.821	87.48
769	87.78
769.179	87.84
769.357	87.42
769.536	87.57
769.715	86.9
769.893	85.48
770.072	83.6
770.25	83.05
770.429	83.61
770.607	84.38
770.786	84.56
770.964	84.99
771.143	85.89
771.321	86.66
771.5	86.39
771.678	86.04
771.857	84.96
772.035	84.09
772.213	83.86
772.392	84.19
772.57	84.44
772.748	83.86
772.927	83.8
773.105	84.89
773.283	85.37
773.461	85.39
773.64	84.52
773.818	84.23
773.996	84.69
774.174	85.17
774.352	84.56
774.531	83.74
774.709	84.63
774.887	84.07
775.065	83.57
775.243	84.67
775.421	84.77
775.599	83.52
775.777	84.21
775.955	83.07
776.133	83.19
776.311	83.47
776.489	83.18
776.667	82.25
776.844	82.72
777.022	82.26
777.2	82.16
777.378	82.94
777.556	83.38
777.734	82.65
777.911	84.22
778.089	83.64
778.267	82.88
778.445	82.87
778.622	82.17
778.8	81.45
778.978	81.01
779.155	79.13
779.333	79
779.511	80.63
779.688	79.1
779.866	79.59
780.043	80.92
780.221	80.82
780.398	81.85
780.576	82.28
780.753	80.28
780.931	81.94
781.108	82.49
781.286	79.07
781.463	78.94
781.64	78.63
781.818	79.27
781.995	81.4
782.172	81.9
782.35	81.65
782.527	83.83
782.704	84.38
782.882	84.06
783.059	82.39
783.236	81.74
783.413	81.93
783.59	79.45
783.768	78.07
783.945	77.95
784.122	78.64
784.299	79.51
784.476	78.84
784.653	77.37
784.83	78.4
785.007	79.14
785.184	78.87
785.361	79.02
785.538	78.88
785.715	79
785.892	78.41
786.069	79.92
786.246	79.83
786.423	81.33
786.6	81.18
786.776	80.83
786.953	80.41
787.13	81.97
787.307	79.82
787.484	81.7
787.66	80.62
787.837	79.69
788.014	79.42
788.191	78.57
788.367	78.51
788.544	78.86
788.721	77.36
788.897	78.64
789.074	77.64
789.25	79.27
789.427	80.62
789.603	80.59
789.78	82.32
789.956	80.9
790.133	78.49
790.309	79.8
790.486	80.49
790.662	82.15
790.839	83.51
791.015	83.11
791.192	86.93
791.368	91.43
791.544	92.18
791.721	90.04
791.897	89
792.073	88.03
792.249	89.35
792.426	88.95
792.602	85.15
792.778	83.26
792.954	83.4
793.13	82.49
793.307	80.44
793.483	77.74
793.659	76.84
793.835	77.51
794.011	77.57
794.187	75.71
794.363	76.83
794.539	76.78
794.715	76.39
794.891	73.27
795.067	72.59
795.243	73.3
795.419	75.63
795.595	74.45
795.771	76.91
795.947	75.4
796.122	78.9
796.298	79.42
796.474	79.93
796.65	79.72
796.826	80.81
797.001	80.63
797.177	84.07
797.353	83.39
797.529	83.29
797.704	83.17
797.88	81.31
798.056	82.27
798.231	81.12
798.407	80.73
798.582	80.43
798.758	80.4
798.934	78.68
799.109	78.93
799.285	79.32
799.46	78.39
799.636	81.32
799.811	81.76
799.986	84.18
800.162	83.91
800.337	82.97
800.513	81.68
800.688	84
800.863	79.76
801.039	78.41
801.214	75.64
801.389	74.58
801.565	79.16
801.74	75.86
801.915	74.46
802.09	72.72
802.265	72.78
802.441	74.05
802.616	75.08
802.791	73.45
802.966	77.57
803.141	75.84
803.316	78.75
803.491	78.7
803.666	76.5
803.841	76.66
804.016	76.19
804.191	74.89
804.366	74.92
804.541	72.76
804.716	68.81
804.891	71.41
805.066	72.74
805.241	69.07
805.416	68.9
805.591	71.01
805.765	73.04
805.94	78.17
806.115	71.29
806.29	72.28
806.464	77.32
806.639	75.31
806.814	69.79
806.989	69.19
807.163	65.91
807.338	70.15
807.512	64.25
807.687	62.93
807.862	64.84
808.036	69.55
808.211	71.25
808.385	72.51
808.56	76.07
808.734	79.39
808.909	75.76
809.083	73.49
809.258	75.18
809.432	69.24
809.606	67.3
809.781	60.69
809.955	65.28
810.13	70.11
810.304	68.19
810.478	67.75
810.652	71.9
810.827	76.68
811.001	80.91
811.175	74.97
811.349	71.92
811.524	72.85
811.698	73.53
811.872	75.06
812.046	71.16
812.22	70.2
812.394	74.61
812.568	80.52
812.742	84.84
812.916	82.6
813.09	81.12
813.264	84.03
813.438	90.27
813.612	85.67
813.786	82.52
813.96	85.48
814.134	85.53
814.308	77.72
814.482	76.39
814.656	73.51
814.83	75.98
815.003	77.54
815.177	73.23
815.351	73.27
815.525	78.59
815.698	75.7
815.872	72.39
816.046	70.75
816.219	64.7
816.393	61.87
816.567	61.94
816.74	65.32
816.914	69.82
817.088	65.41
817.261	66.35
817.435	67.99
817.608	70.74
817.782	72.62
817.955	70.69
818.129	71.8
818.302	77.46
818.475	73.13
818.649	69.36
818.822	72.56
818.996	73.47
819.169	69.95
819.342	68.07
819.516	67.57
819.689	76.6
819.862	78.89
820.035	71.21
820.209	68.02
820.382	65.31
820.555	66.18
820.728	64.74
820.901	61.37
821.075	63.28
821.248	67.61
821.421	65
821.594	68.55
821.767	66.78
821.94	60.47
822.113	57.78
822.286	58.81
822.459	68.17
822.632	68.11
822.805	68.31
822.978	69.17
823.151	79.33
823.324	75.5
823.496	68.04
823.669	57.74
823.842	59.36
824.015	59.87
824.188	60.16
824.361	58.25
824.533	60.32
824.706	68.67
824.879	66.16
825.051	73.84
825.224	80.25
825.397	75.64
825.569	79.83
825.742	81.81
825.915	81.18
826.087	78.21
826.26	77.14
826.432	73.1
826.605	72.52
826.777	72.16
826.95	63.16
827.122	59.97
827.295	66.33
827.467	54.8
827.64	50.92
827.812	54.12
827.984	51.35
828.157	53.08
828.329	50.21
828.501	51.66
828.674	57.7
828.846	59.21
829.018	50.46
829.19	50.4
829.363	57.61
829.535	58.12
829.707	52.9
829.879	46.83
830.051	41.59
830.223	40.23
830.395	31.91
830.568	35.92
830.74	42.25
830.912	45.06
831.084	48.2
831.256	45.71
831.428	54.29
831.6	54.05
831.772	52.1
831.943	51.57
832.115	55.75
832.287	58.92
832.459	70.21
832.631	71.97
832.803	85.38
832.975	86.12
833.146	80.99
833.318	79.33
833.49	91.27
833.662	82.08
833.833	80.07
834.005	80.59
834.177	78.94
834.348	78.08
834.52	85.63
834.692	77.45
834.863	75.77
835.035	70.92
835.206	66.96
835.378	70.53
835.549	68.37
835.721	62.64
835.892	59.31
836.064	61.85
836.235	70.85
836.407	64.95
836.578	58.94
836.749	51.44
836.921	48.1
837.092	51.8
837.264	46.29
837.435	33.97
837.606	38.76
837.777	28.64
837.949	33.68
838.12	30.22
838.291	38.42
838.462	41.95
838.633	39.66
838.805	37.08
838.976	52.09
839.147	57.25
839.318	50.28
839.489	44.26
839.66	56.07
839.831	54.66
840.002	57.62
840.173	62.35
840.344	73.56
840.515	74.23
840.686	77.4
840.857	54
841.028	57.03
841.199	56.92
841.369	47.73
841.54	39.83
841.711	44.32
841.882	32.21
842.053	42.5
842.223	35.46
842.394	38.46
842.565	52.25
842.736	52.62
842.906	58.12
843.077	62.49
843.248	66.56
843.418	67.03
843.589	83.49
843.759	71.26
843.93	81.23
844.101	69.95
844.271	70.71
844.442	70.05
844.612	62.14
844.783	33.93
844.953	35.96
845.123	30.55
845.294	41.16
845.464	42.39
845.635	37.85
845.805	59.3
845.975	55.17
846.146	44.06
846.316	44.29
846.486	51.71
846.656	47.85
846.827	52.05
846.997	58.54
847.167	67.46
847.337	78.48
847.507	77.62
847.677	78.58
847.848	94.13
848.018	88.56
848.188	63.43
848.358	79.48
848.528	81.54
848.698	64.85
848.868	49.75
849.038	56.96
849.208	66.21
849.378	72.79
849.548	62.72
849.718	56.67
849.887	51.4
850.057	53.44
850.227	39.55
850.397	36.84
850.567	53.96
850.737	46.12
850.906	46.39
851.076	55.29
851.246	63.96
851.415	67.69
851.585	72.01
851.755	64.77
851.924	81.88
852.094	79.13
852.264	68.45
852.433	72.76
852.603	82.46
852.772	69.01
852.942	55.6
853.111	46.89
853.281	48.35
853.45	61.14
853.62	49.22
853.789	38.85
853.959	49.29
854.128	42.74
854.297	45.29
854.467	64.63
854.636	62.14
854.805	72.37
854.975	74.03
855.144	75.68
855.313	96.82
855.482	82.45
855.652	68.95
855.821	69.59
855.99	72.72
856.159	70.91
856.328	52.92
856.497	44.15
856.667	57.41
856.836	52.4
857.005	42.36
857.174	48.28
857.343	55.32
857.512	54.76
857.681	58.79
857.85	46.36
858.019	63.81
858.188	62.73
858.356	36.02
858.525	17.17
858.694	26.29
858.863	20.42
859.032	9.64
859.201	-30.71
859.369	4.54
859.538	-7.91
859.707	9.75
859.876	10.93
860.044	22.4
860.213	34.62
860.382	49.68
860.55	61.88
860.719	82.68
860.888	79.94
861.056	97.44
861.225	99.83
861.393	115.25
861.562	93.43
861.73	91.31
861.899	66.95
862.067	65.16
862.236	50.69
862.404	39.81
862.572	30.71
862.741	43.05
862.909	33.87
863.078	34.02
863.246	21.5
863.414	49.08
863.582	50.78
863.751	44.77
863.919	54.92
864.087	54.64
864.255	54.72
864.424	67.71
864.592	52.62
864.76	51.52
864.928	54.27
865.096	53.26
865.264	56.29
865.432	58.91
865.6	45.34
865.768	22.96
865.936	20.42
866.104	28.8
866.272	4.06
866.44	-51.3
866.608	-59.28
866.776	-2.73
866.944	39.68
867.112	6.32
867.28	-6.16
867.448	40.75
867.615	53.06
867.783	39.17
867.951	22.6
868.119	17.29
868.286	38.68
868.454	46.64
868.622	27.89
868.789	41.19
868.957	63.34
869.125	55.38
869.292	54.76
869.46	64.94
869.627	45.29
869.795	37.2
869.963	42.17
870.13	47.86
870.298	43.51
870.465	23.97
870.632	23.81
870.8	33.61
870.967	26.44
871.135	25.61
871.302	25
871.469	21.63
871.637	29.62
871.804	28.12
871.971	31.13
872.139	35.62
872.306	29.59
872.473	1.44
872.64	11.54
872.807	23.09
872.975	48.67
873.142	31.32
873.309	55.46
873.476	165.01
873.643	250.55
873.81	221.27
873.977	123.91
874.144	65.98
874.311	42.24
874.478	-28.98
874.645	-39.64
874.812	-0.32
874.979	-7.93
875.146	-41.22
875.313	-6.07
875.48	50.14
875.647	96.48
875.813	30.8
875.98	-0.13
876.147	49.28
876.314	62.77
876.481	25.23
876.647	44.97
876.814	52.79
876.981	59.52
877.147	50.44
877.314	34.78
877.481	32.57
877.647	41.11
877.814	15.35
877.98	10.13
878.147	15.33
878.314	22.31
878.48	37.83
878.647	62.12
878.813	98.34
878.979	135.43
879.146	93.89
879.312	99.04
879.479	84.07
879.645	54.1
879.811	46.65
879.978	26.98
880.144	32.29
880.31	26.37
880.477	13.11
880.643	59.3
880.809	145.65
880.975	82.59
881.142	93.16
881.308	114.58
881.474	162.14
881.64	107.02
881.806	67.55
881.972	81.57
882.138	108.27
882.304	50.56
882.47	0.21
882.636	-29.42
882.802	7.45
882.968	-43.24
883.134	-220.25
883.3	-132.41
883.466	3.93
883.632	17.05
883.798	7.37
883.964	3.28
884.129	43.48
884.295	45.4
884.461	49.1
884.627	19.33
884.793	25.98
884.958	12.55
885.124	-19.39
885.29	-15.99
885.455	-20.53
885.621	-15.11
885.787	-21.07
885.952	-36.54
886.118	0.12
886.283	29.61
886.449	-3.07
886.614	35.89
886.78	68.68
886.945	55.57
887.111	52.23
887.276	13.11
887.442	15.21
887.607	24.15
887.773	8.47
887.938	-13.93
888.103	37.95
888.269	63.42
888.434	89.76
888.599	76.61
888.764	75.49
888.93	75.55
889.095	72.89
889.26	97.43
889.425	95.75
889.59	63.08
889.756	64
889.921	56.99
890.086	70.48
890.251	47.47
890.416	-17.48
890.581	-7.07
890.746	-1.14
890.911	-22.03
891.076	-35.11
891.241	-15.99
891.406	67.02
891.571	96.97
891.736	58.42
891.901	97.15
892.065	112.48
892.23	106.13
892.395	58.97
892.56	49.38
892.725	29.12
892.889	17.62
893.054	-46.67
893.219	-105.64
893.384	-157.4
893.548	-323.33
893.713	729.7
893.878	373.91
