Data from Ofra_2a_PS_4CX12_Reflection_2.txt Node
Date: Tue Jul 20 09:49:22 EDT 2021
User: Adam
Spectrometer: FLMT01687
Trigger mode: 0
Integration Time (sec): 9.450000E-1
Scans to average: 3
Electric dark correction enabled: true
Nonlinearity correction enabled: false
Boxcar width: 3
XAxis mode: Wavelengths
Number of Pixels in Spectrum: 3648
>>>>>Begin Spectral Data<<<<<
179.494	1008.28
179.716	570.69
179.937	596.15
180.158	1958.2
180.38	-777.03
180.601	-97.86
180.823	-8.01
181.044	74.4
181.265	-68.54
181.486	29.61
181.708	-1183.7
181.929	-175.47
182.15	-427.84
182.372	57.13
182.593	-12.59
182.814	404.64
183.035	245.76
183.257	144
183.478	111.86
183.699	108.12
183.92	95.62
184.141	88.47
184.363	85.18
184.584	67.49
184.805	67.15
185.026	72.02
185.247	42.82
185.468	46.5
185.689	38.03
185.91	29.43
186.132	58.91
186.353	52.54
186.574	53.65
186.795	52.67
187.016	47.11
187.237	61.01
187.458	62.51
187.679	30.72
187.9	42.93
188.121	40.07
188.342	57.45
188.563	62.38
188.784	57.31
189.005	90.2
189.226	85.91
189.447	68.54
189.667	70.33
189.888	61.1
190.109	66.12
190.33	54.07
190.551	19.05
190.772	22.6
190.993	36.92
191.214	27.94
191.434	33.02
191.655	27.98
191.876	45.34
192.097	51.48
192.318	56.1
192.538	56.07
192.759	66.44
192.98	60.46
193.201	75.93
193.421	69.76
193.642	58.12
193.863	68.67
194.083	54.27
194.304	44.31
194.525	57.81
194.745	22.55
194.966	22.92
195.187	40.83
195.407	34.46
195.628	43.92
195.848	49.94
196.069	42.45
196.29	55.8
196.51	59.04
196.731	65.65
196.951	63.11
197.172	44.59
197.392	37.54
197.613	32.25
197.833	30.13
198.054	35.87
198.274	10.88
198.495	14.43
198.715	8.2
198.936	19.86
199.156	31.68
199.377	43.43
199.597	35.37
199.817	60.95
200.038	71.17
200.258	83.96
200.479	85.69
200.699	89.73
200.919	65.51
201.14	66.68
201.36	68.96
201.58	60.81
201.801	61.18
202.021	58.63
202.241	54.38
202.461	72.15
202.682	69.62
202.902	57.38
203.122	50.86
203.342	60.14
203.563	50.37
203.783	50.54
204.003	32.54
204.223	38.42
204.443	38.59
204.663	46.19
204.884	25.18
205.104	34.83
205.324	43.98
205.544	61.51
205.764	71.1
205.984	63.85
206.204	59.93
206.424	64.09
206.644	60.08
206.864	50.18
207.084	63.96
207.304	53
207.525	67.31
207.745	63.13
207.964	80.97
208.184	64.72
208.404	60.6
208.624	38.82
208.844	37.62
209.064	22.54
209.284	30.62
209.504	30.49
209.724	14.58
209.944	14.38
210.164	20.96
210.384	40.05
210.604	36.33
210.823	19.51
211.043	5.26
211.263	29.1
211.483	37.49
211.703	38.9
211.922	21.57
212.142	42.62
212.362	45.32
212.582	43.99
212.801	37.31
213.021	34.97
213.241	27.1
213.461	34.39
213.68	20.66
213.9	27.36
214.12	33.23
214.339	29.89
214.559	32.55
214.779	40.93
214.998	42.03
215.218	41.01
215.438	47.65
215.657	49.57
215.877	48.89
216.096	52.16
216.316	39.9
216.535	39.31
216.755	32.61
216.974	26.04
217.194	18.98
217.413	39.4
217.633	31.74
217.852	38
218.072	42.39
218.291	55.1
218.511	43.11
218.73	44.31
218.95	37.89
219.169	40.83
219.389	28.36
219.608	39.48
219.827	21.66
220.047	32.29
220.266	32.23
220.485	34.01
220.705	31.19
220.924	38.9
221.143	19.65
221.363	32.29
221.582	25.98
221.801	23.56
222.021	20.88
222.24	23.07
222.459	20.23
222.678	28.52
222.897	21.34
223.117	34.91
223.336	43.31
223.555	35.57
223.774	31.03
223.993	49.05
224.213	39.14
224.432	53.03
224.651	44.09
224.87	34.74
225.089	39.33
225.308	43.01
225.527	35.24
225.746	45.35
225.965	28.2
226.184	35.76
226.404	43.55
226.623	47.57
226.842	43.17
227.061	35.86
227.28	46.62
227.499	49.77
227.718	36.93
227.936	24.35
228.155	25.94
228.374	30.13
228.593	36.01
228.812	20.59
229.031	7.21
229.25	14.7
229.469	29.4
229.688	27.46
229.907	30.27
230.125	25.3
230.344	30.76
230.563	43.59
230.782	38.3
231.001	34.84
231.22	37.31
231.438	32.86
231.657	35.28
231.876	38.68
232.095	38.79
232.313	52.18
232.532	49.79
232.751	58.19
232.969	65.31
233.188	71.23
233.407	70.35
233.625	53.11
233.844	51.41
234.063	50.22
234.281	33.22
234.5	27.29
234.719	33.31
234.937	39.9
235.156	44.92
235.374	36.15
235.593	41.53
235.811	56.32
236.03	57.35
236.249	49.43
236.467	40.6
236.686	52.78
236.904	46.62
237.123	48.59
237.341	35.94
237.559	33.39
237.778	33.57
237.996	37.46
238.215	38.68
238.433	44.75
238.652	37.77
238.87	37.7
239.088	39.06
239.307	36
239.525	28.23
239.743	19.26
239.962	17.81
240.18	25.69
240.398	32.74
240.617	38.77
240.835	44.12
241.053	51.79
241.271	59.11
241.49	53.22
241.708	49.41
241.926	39.67
242.144	38.81
242.363	27.75
242.581	35.26
242.799	21.75
243.017	31.87
243.235	29.23
243.453	42.23
243.672	48.58
243.89	52.65
244.108	53.81
244.326	57.42
244.544	64.71
244.762	63.51
244.98	57.18
245.198	46.18
245.416	47.35
245.634	44.76
245.852	52.57
246.07	40
246.288	38.56
246.506	47.19
246.724	59.83
246.942	57.02
247.16	38.16
247.378	34.95
247.596	29.75
247.814	26.65
248.032	25.01
248.25	12.38
248.468	20.17
248.685	35.95
248.903	23.35
249.121	38.69
249.339	36.51
249.557	31.46
249.775	12.77
249.992	1.56
250.21	-13.81
250.428	-9.12
250.646	-5.96
250.863	2.69
251.081	1.39
251.299	25.78
251.517	53.04
251.734	69.13
251.952	71.69
252.17	56.09
252.387	45
252.605	44.72
252.823	42.57
253.04	28.32
253.258	30.4
253.475	22.6
253.693	33.45
253.911	28.73
254.128	29.51
254.346	26.79
254.563	17.15
254.781	17.31
254.998	23.2
255.216	24.73
255.433	29.13
255.651	26.43
255.868	26.25
256.086	36.02
256.303	39.84
256.521	30.09
256.738	19.01
256.956	0.44
257.173	11.79
257.39	21.72
257.608	24.78
257.825	14.54
258.043	30.87
258.26	35.31
258.477	53.7
258.695	47.79
258.912	51.25
259.129	45.04
259.346	54.5
259.564	48.32
259.781	53.94
259.998	58.98
260.216	73.73
260.433	68.18
260.65	73.5
260.867	58.18
261.084	61.15
261.302	61.2
261.519	42.66
261.736	27.95
261.953	39.28
262.17	34.37
262.387	42.91
262.604	32.01
262.822	35.1
263.039	37.56
263.256	39.18
263.473	22.63
263.69	32.24
263.907	26.9
264.124	24.58
264.341	13.33
264.558	19.05
264.775	29.54
264.992	38.59
265.209	37.72
265.426	40.07
265.643	46.22
265.86	49.54
266.077	51.66
266.294	41.78
266.51	38.53
266.727	23.56
266.944	23.83
267.161	22.81
267.378	19.72
267.595	14.06
267.812	9.56
268.028	16.37
268.245	31.2
268.462	32.43
268.679	29.33
268.896	34.46
269.112	43.77
269.329	50.07
269.546	52.42
269.763	49.88
269.979	44
270.196	48.48
270.413	48.71
270.629	48.67
270.846	50.74
271.063	48.34
271.279	51.85
271.496	50.07
271.712	41.38
271.929	44.93
272.146	41.73
272.362	27.09
272.579	19.08
272.795	8.84
273.012	13.45
273.228	10.37
273.445	5.66
273.661	1.29
273.878	14.05
274.094	28.07
274.311	31.24
274.527	34.39
274.744	41.93
274.96	37.78
275.177	51.85
275.393	54.55
275.609	49.18
275.826	56.46
276.042	59.09
276.259	57.68
276.475	53.7
276.691	44.65
276.908	41.66
277.124	39.48
277.34	33.28
277.557	33.72
277.773	26.82
277.989	20.17
278.205	12.98
278.422	13.14
278.638	18.79
278.854	23.66
279.07	25.77
279.286	32.16
279.503	43.94
279.719	54.57
279.935	50.11
280.151	53.84
280.367	47.08
280.583	42.95
280.799	48.94
281.016	44.88
281.232	35.81
281.448	38.33
281.664	27.04
281.88	39.88
282.096	38.45
282.312	34.52
282.528	40.81
282.744	39.6
282.96	34.61
283.176	38.86
283.392	39.92
283.608	40.7
283.824	38.63
284.04	37.03
284.256	43.75
284.471	49.25
284.687	43.73
284.903	31.34
285.119	26.26
285.335	29.77
285.551	41.39
285.767	38
285.982	35.88
286.198	37.89
286.414	51.44
286.63	59.05
286.846	52.6
287.061	57.84
287.277	53.92
287.493	56.65
287.709	58
287.924	62.01
288.14	60.27
288.356	76.36
288.571	60.68
288.787	61.43
289.003	51.45
289.218	50.53
289.434	41.43
289.65	34.64
289.865	28.18
290.081	32.09
290.296	37.82
290.512	48.64
290.727	56.25
290.943	49.11
291.159	51.08
291.374	54.46
291.59	50.76
291.805	59.65
292.021	35.35
292.236	32.32
292.451	33.28
292.667	26.77
292.882	15.92
293.098	11.16
293.313	-3.32
293.529	12.37
293.744	5.88
293.959	11.75
294.175	19.44
294.39	38.16
294.605	46.28
294.821	48.6
295.036	51.11
295.251	50.14
295.467	50.38
295.682	51.74
295.897	35.46
296.112	39.79
296.328	50.26
296.543	44.2
296.758	47.3
296.973	50.21
297.188	45.32
297.404	44.89
297.619	39.42
297.834	32.42
298.049	33.14
298.264	37.8
298.479	26.41
298.694	38.07
298.909	37.49
299.125	41.05
299.34	40.82
299.555	44.11
299.77	39.68
299.985	41.62
300.2	22.93
300.415	20.68
300.63	10.67
300.845	11.09
301.06	9.71
301.275	14.04
301.49	20.38
301.704	24.43
301.919	25.26
302.134	29.82
302.349	27.63
302.564	21.17
302.779	15.86
302.994	5.23
303.209	10.86
303.423	23.74
303.638	30.05
303.853	25.5
304.068	41.21
304.283	40.03
304.497	46.66
304.712	42.37
304.927	31.82
305.142	22.12
305.356	26.86
305.571	21.11
305.786	14.77
306	17.6
306.215	19.44
306.43	33.23
306.644	44.24
306.859	43.59
307.074	45.9
307.288	54.62
307.503	49.19
307.717	45.6
307.932	47.21
308.147	33.69
308.361	34.36
308.576	31.09
308.79	26.31
309.005	23.8
309.219	25.41
309.434	22.49
309.648	25.68
309.863	22.74
310.077	21.07
310.292	30.63
310.506	45.75
310.72	47.27
310.935	40.18
311.149	39.04
311.364	42.39
311.578	42.52
311.792	33.92
312.007	22.87
312.221	29.91
312.435	28.6
312.649	43.68
312.864	40.34
313.078	30.98
313.292	50.26
313.507	55.51
313.721	50.39
313.935	65.59
314.149	43.47
314.363	48.21
314.578	73.56
314.792	60.21
315.006	58.36
315.22	62.88
315.434	50.48
315.648	56.84
315.862	45.99
316.077	34.31
316.291	38.49
316.505	42.19
316.719	19.99
316.933	36.51
317.147	37.61
317.361	50.25
317.575	45.75
317.789	45.7
318.003	41.81
318.217	50.84
318.431	39.44
318.645	38.84
318.859	24.78
319.073	25.75
319.287	26.84
319.5	24.06
319.714	20.02
319.928	28.43
320.142	28.61
320.356	40.01
320.57	31.55
320.784	28.79
320.997	33.01
321.211	34.79
321.425	23.67
321.639	27.72
321.853	15.84
322.066	25.38
322.28	23.25
322.494	17
322.707	15.83
322.921	21.65
323.135	20.32
323.349	26.14
323.562	24.43
323.776	23.84
323.989	28.23
324.203	39.08
324.417	33.12
324.63	29.62
324.844	28.71
325.057	33.12
325.271	30.34
325.485	32.03
325.698	24.51
325.912	35.9
326.125	33.03
326.339	36.17
326.552	38.35
326.766	45.05
326.979	48.2
327.193	46.25
327.406	44.39
327.619	38.6
327.833	43.93
328.046	32.44
328.26	33.81
328.473	22.3
328.686	23.73
328.9	16.71
329.113	25.84
329.326	22.25
329.54	31.15
329.753	27.41
329.966	33.89
330.179	36.03
330.393	40.17
330.606	35.95
330.819	39.19
331.032	35.18
331.246	40.47
331.459	29.78
331.672	29.65
331.885	25.79
332.098	33.18
332.311	21.07
332.525	22
332.738	15.98
332.951	18.48
333.164	10.37
333.377	15.02
333.59	16.31
333.803	24.93
334.016	23.11
334.229	35.12
334.442	45.83
334.655	53.07
334.868	40.82
335.081	47.53
335.294	46.59
335.507	44.78
335.72	31.62
335.933	34.54
336.146	40.37
336.359	40.33
336.572	31.36
336.785	34.41
336.997	35.79
337.21	45
337.423	38.65
337.636	36.25
337.849	43.92
338.062	44.79
338.274	47.12
338.487	45.16
338.7	46.03
338.913	48.83
339.125	45.9
339.338	43.49
339.551	46.42
339.763	39.89
339.976	33.92
340.189	30.71
340.402	28.28
340.614	33.2
340.827	22.06
341.039	23.97
341.252	27.08
341.465	28.62
341.677	16.05
341.89	14.98
342.102	15.87
342.315	28.79
342.527	18.89
342.74	11.45
342.952	10.7
343.165	28.17
343.377	32.25
343.59	36.01
343.802	36.63
344.015	38.74
344.227	37.31
344.44	32.47
344.652	26.62
344.864	25.42
345.077	12.36
345.289	7.43
345.502	13.29
345.714	16.82
345.926	28.24
346.139	28.42
346.351	17.05
346.563	25.49
346.775	28.03
346.988	21.69
347.2	28.34
347.412	29.58
347.624	30.19
347.837	38.25
348.049	34.51
348.261	28.66
348.473	25.45
348.685	34.16
348.897	31.04
349.11	36.02
349.322	40.06
349.534	43.22
349.746	58.73
349.958	58.86
350.17	36.15
350.382	37.29
350.594	32.08
350.806	27.98
351.018	31.14
351.23	26.68
351.442	23.32
351.654	34.39
351.866	35.15
352.078	30.56
352.29	30.92
352.502	26.87
352.714	24.12
352.926	22.54
353.138	18.71
353.35	15.08
353.561	15.24
353.773	17.31
353.985	13.57
354.197	10.64
354.409	17.75
354.621	17.25
354.832	17.94
355.044	25.1
355.256	21.6
355.468	27.41
355.679	28.41
355.891	20.41
356.103	25.51
356.314	23.87
356.526	20.11
356.738	17.38
356.949	18.56
357.161	20.35
357.373	24.12
357.584	27.4
357.796	27.5
358.008	29.98
358.219	37.44
358.431	35.37
358.642	35.31
358.854	37.65
359.065	28.81
359.277	29.05
359.488	24.29
359.7	19.31
359.911	15.18
360.123	16.72
360.334	12.93
360.546	13.52
360.757	16.67
360.969	26.13
361.18	20.53
361.391	23.98
361.603	26.91
361.814	29.82
362.025	30.46
362.237	28.8
362.448	29.85
362.659	31.82
362.871	35.3
363.082	26.43
363.293	26.11
363.504	28.7
363.716	27.93
363.927	25.33
364.138	28.22
364.349	31.83
364.56	35.87
364.772	36.22
364.983	31.33
365.194	36.6
365.405	34.77
365.616	24.42
365.827	18.81
366.038	26.81
366.25	25.1
366.461	36.91
366.672	28.19
366.883	35.43
367.094	40.21
367.305	37.8
367.516	31.79
367.727	29.29
367.938	24.07
368.149	30.65
368.36	24.82
368.571	30.01
368.781	24.52
368.992	25.77
369.203	32.8
369.414	29.11
369.625	27.3
369.836	25.8
370.047	26.38
370.258	20.96
370.468	15.48
370.679	7.15
370.89	12.41
371.101	9.4
371.312	9.78
371.522	0.69
371.733	8.89
371.944	10.66
372.155	4.45
372.365	5.03
372.576	5.96
372.787	5.77
372.997	9.67
373.208	17.7
373.419	18.18
373.629	35.71
373.84	30.52
374.05	31.37
374.261	27.79
374.472	24.89
374.682	15.66
374.893	14.34
375.103	11.54
375.314	13.45
375.524	15.67
375.735	14.74
375.945	19.69
376.156	25.28
376.366	31.11
376.577	26.35
376.787	34.13
376.997	31.2
377.208	26.87
377.418	28.61
377.629	24.63
377.839	25
378.049	30.14
378.26	27.06
378.47	33.33
378.68	40.25
378.89	35.25
379.101	26.79
379.311	18.67
379.521	20.23
379.732	7.18
379.942	0.42
380.152	4.91
380.362	6.99
380.572	18.01
380.783	19.87
380.993	15.86
381.203	27.07
381.413	28.2
381.623	25.64
381.833	26.9
382.043	17.97
382.253	21.9
382.463	22.37
382.674	21.9
382.884	19.88
383.094	18.36
383.304	16.66
383.514	26.32
383.724	23.36
383.934	19.29
384.144	17.44
384.353	18.17
384.563	15.4
384.773	14.95
384.983	13.69
385.193	16.54
385.403	19.93
385.613	19.86
385.823	18.63
386.033	20.3
386.242	22.63
386.452	21.42
386.662	21.37
386.872	16.09
387.082	13.88
387.291	17.41
387.501	17.04
387.711	16.17
387.921	13.73
388.13	11.7
388.34	11.57
388.55	14.5
388.759	9.58
388.969	7.02
389.179	8.61
389.388	9.2
389.598	9.27
389.807	8.88
390.017	6.31
390.227	6.81
390.436	7.37
390.646	6
390.855	6
391.065	4.93
391.274	5.11
391.484	5.73
391.693	6.97
391.903	8.18
392.112	7.97
392.322	9.33
392.531	9.54
392.74	9.07
392.95	8.93
393.159	8.31
393.369	7.17
393.578	7.85
393.787	7.5
393.997	8.1
394.206	8.81
394.415	8.64
394.625	7.77
394.834	6.98
395.043	6.89
395.252	6.71
395.462	6.27
395.671	6.29
395.88	6.12
396.089	6.11
396.298	6.97
396.508	6.24
396.717	5.63
396.926	5.2
397.135	4.31
397.344	4.25
397.553	4.93
397.762	4.57
397.971	4.88
398.181	4.72
398.39	4.92
398.599	5.36
398.808	5.47
399.017	5.41
399.226	5.74
399.435	5.48
399.644	5.69
399.853	5.69
400.062	5.59
400.27	5.51
400.479	5.41
400.688	5.4
400.897	5.48
401.106	5.5
401.315	5.49
401.524	5.71
401.733	5.78
401.941	5.73
402.15	5.32
402.359	5.15
402.568	5.12
402.777	4.89
402.985	4.75
403.194	4.58
403.403	4.4
403.612	4.54
403.82	4.72
404.029	4.65
404.238	4.72
404.446	4.6
404.655	4.54
404.864	4.59
405.072	4.54
405.281	4.32
405.489	4.24
405.698	4.14
405.906	4.1
406.115	4.13
406.324	4.07
406.532	4.12
406.741	4.25
406.949	4.19
407.158	4.33
407.366	4.4
407.574	4.38
407.783	4.39
407.991	4.26
408.2	4.17
408.408	4.3
408.617	4.24
408.825	4.26
409.033	4.26
409.242	4.21
409.45	4.25
409.658	4.23
409.867	4.14
410.075	4.11
410.283	3.99
410.491	3.94
410.7	3.98
410.908	3.99
411.116	3.95
411.324	4.03
411.533	3.97
411.741	4.02
411.949	4.08
412.157	4.08
412.365	3.99
412.573	4.01
412.781	3.92
412.99	3.97
413.198	4
413.406	3.93
413.614	3.92
413.822	4
414.03	3.96
414.238	4.04
414.446	3.96
414.654	3.87
414.862	3.9
415.07	3.98
415.278	3.87
415.486	3.98
415.694	3.9
415.902	3.87
416.109	3.89
416.317	3.83
416.525	3.82
416.733	3.93
416.941	3.81
417.149	3.9
417.357	3.9
417.564	3.9
417.772	3.97
417.98	3.88
418.188	3.75
418.395	3.83
418.603	3.68
418.811	3.69
419.019	3.74
419.226	3.79
419.434	3.71
419.642	3.8
419.849	3.78
420.057	3.79
420.265	3.8
420.472	3.75
420.68	3.61
420.887	3.7
421.095	3.74
421.302	3.8
421.51	3.89
421.717	3.9
421.925	3.81
422.132	3.81
422.34	3.78
422.547	3.69
422.755	3.62
422.962	3.5
423.17	3.52
423.377	3.67
423.585	3.76
423.792	3.69
423.999	3.72
424.207	3.6
424.414	3.68
424.621	3.78
424.829	3.72
425.036	3.61
425.243	3.73
425.451	3.75
425.658	3.82
425.865	3.72
426.072	3.7
426.28	3.7
426.487	3.72
426.694	3.65
426.901	3.56
427.108	3.56
427.315	3.66
427.523	3.6
427.73	3.62
427.937	3.65
428.144	3.69
428.351	3.78
428.558	3.76
428.765	3.7
428.972	3.67
429.179	3.51
429.386	3.49
429.593	3.41
429.8	3.39
430.007	3.48
430.214	3.55
430.421	3.57
430.628	3.64
430.835	3.63
431.042	3.7
431.249	3.69
431.456	3.7
431.662	3.72
431.869	3.81
432.076	3.85
432.283	3.86
432.49	3.78
432.697	3.84
432.903	3.83
433.11	3.78
433.317	3.76
433.524	3.72
433.73	3.78
433.937	3.84
434.144	3.87
434.35	3.86
434.557	3.85
434.764	3.79
434.97	3.89
435.177	3.8
435.384	3.86
435.59	3.83
435.797	3.84
436.003	3.87
436.21	3.89
436.416	3.84
436.623	3.93
436.829	3.91
437.036	3.92
437.242	3.95
437.449	3.99
437.655	3.99
437.862	3.98
438.068	4.02
438.275	4.01
438.481	3.98
438.687	4.04
438.894	3.99
439.1	4.08
439.307	4.08
439.513	4.06
439.719	4.11
439.926	4.14
440.132	4
440.338	4.03
440.544	3.99
440.751	3.98
440.957	3.93
441.163	3.95
441.369	3.94
441.575	4.01
441.782	4.02
441.988	3.97
442.194	4.06
442.4	4.14
442.606	4.13
442.812	4.19
443.018	4.23
443.224	4.23
443.431	4.34
443.637	4.21
443.843	4.22
444.049	4.22
444.255	4.23
444.461	4.17
444.667	4.16
444.873	4.11
445.079	4.23
445.284	4.19
445.49	4.15
445.696	4.18
445.902	4.25
446.108	4.27
446.314	4.35
446.52	4.35
446.726	4.37
446.931	4.42
447.137	4.4
447.343	4.38
447.549	4.41
447.755	4.35
447.96	4.31
448.166	4.34
448.372	4.3
448.578	4.27
448.783	4.28
448.989	4.23
449.195	4.25
449.4	4.3
449.606	4.28
449.812	4.36
450.017	4.34
450.223	4.38
450.428	4.44
450.634	4.42
450.84	4.44
451.045	4.43
451.251	4.46
451.456	4.51
451.662	4.49
451.867	4.5
452.073	4.56
452.278	4.53
452.483	4.51
452.689	4.49
452.894	4.49
453.1	4.48
453.305	4.44
453.51	4.45
453.716	4.46
453.921	4.52
454.127	4.51
454.332	4.57
454.537	4.6
454.742	4.63
454.948	4.58
455.153	4.59
455.358	4.66
455.563	4.66
455.769	4.61
455.974	4.58
456.179	4.54
456.384	4.59
456.589	4.64
456.795	4.54
457	4.57
457.205	4.61
457.41	4.68
457.615	4.76
457.82	4.8
458.025	4.77
458.23	4.83
458.435	4.79
458.64	4.8
458.845	4.75
459.05	4.74
459.255	4.73
459.46	4.69
459.665	4.71
459.87	4.78
460.075	4.78
460.28	4.86
460.485	4.91
460.69	4.86
460.895	5.01
461.099	5.02
461.304	5.03
461.509	4.98
461.714	4.95
461.919	4.87
462.123	4.96
462.328	4.87
462.533	4.88
462.738	4.85
462.942	4.89
463.147	4.86
463.352	4.94
463.556	4.97
463.761	4.97
463.966	5
464.17	5.01
464.375	4.98
464.58	5.01
464.784	5
464.989	4.93
465.193	4.96
465.398	5
465.602	5.01
465.807	5.07
466.011	5.14
466.216	5.14
466.42	5.21
466.625	5.18
466.829	5.18
467.034	5.24
467.238	5.27
467.443	5.26
467.647	5.28
467.851	5.26
468.056	5.29
468.26	5.26
468.464	5.21
468.669	5.2
468.873	5.18
469.077	5.24
469.282	5.31
469.486	5.35
469.69	5.34
469.894	5.41
470.099	5.48
470.303	5.5
470.507	5.46
470.711	5.42
470.915	5.46
471.119	5.52
471.324	5.48
471.528	5.51
471.732	5.53
471.936	5.57
472.14	5.57
472.344	5.57
472.548	5.54
472.752	5.56
472.956	5.56
473.16	5.54
473.364	5.52
473.568	5.57
473.772	5.62
473.976	5.65
474.18	5.66
474.384	5.6
474.588	5.65
474.792	5.68
474.995	5.65
475.199	5.63
475.403	5.64
475.607	5.65
475.811	5.67
476.015	5.68
476.218	5.66
476.422	5.71
476.626	5.7
476.83	5.67
477.033	5.67
477.237	5.7
477.441	5.68
477.644	5.74
477.848	5.7
478.052	5.73
478.255	5.8
478.459	5.87
478.663	5.86
478.866	5.86
479.07	5.83
479.273	5.86
479.477	5.87
479.681	5.84
479.884	5.79
480.088	5.8
480.291	5.85
480.495	5.86
480.698	5.87
480.901	5.85
481.105	5.87
481.308	5.88
481.512	5.89
481.715	5.87
481.919	5.88
482.122	5.87
482.325	5.9
482.529	5.96
482.732	5.97
482.935	5.97
483.138	6.02
483.342	6.03
483.545	6.04
483.748	6.02
483.952	6.03
484.155	6.04
484.358	6.06
484.561	6.02
484.764	6.06
484.967	6.1
485.171	6.09
485.374	6.05
485.577	6.12
485.78	6.11
485.983	6.15
486.186	6.09
486.389	6.04
486.592	6.07
486.795	6.08
486.998	6.06
487.201	6.05
487.404	6.05
487.607	6.06
487.81	6.11
488.013	6.11
488.216	6.1
488.419	6.04
488.622	6.02
488.825	5.99
489.028	5.96
489.231	5.93
489.433	5.91
489.636	5.86
489.839	5.92
490.042	5.94
490.245	5.98
490.447	6.01
490.65	6.06
490.853	6.1
491.056	6.1
491.258	6.08
491.461	6.06
491.664	6
491.866	6.04
492.069	6.02
492.272	5.97
492.474	5.96
492.677	5.96
492.879	5.96
493.082	6
493.285	5.96
493.487	5.92
493.69	5.89
493.892	5.95
494.095	5.92
494.297	5.99
494.5	6.03
494.702	6
494.905	6.01
495.107	6.05
495.309	6
495.512	6.06
495.714	6.02
495.917	6.01
496.119	6.06
496.321	6.12
496.524	6.1
496.726	6.12
496.928	6.09
497.13	6.13
497.333	6.14
497.535	6.12
497.737	6.08
497.939	6.1
498.142	6.07
498.344	6.05
498.546	6.07
498.748	6.01
498.95	6.02
499.152	6.03
499.355	6.06
499.557	6.13
499.759	6.21
499.961	6.17
500.163	6.21
500.365	6.23
500.567	6.22
500.769	6.21
500.971	6.19
501.173	6.15
501.375	6.19
501.577	6.18
501.779	6.18
501.981	6.18
502.183	6.21
502.385	6.21
502.587	6.2
502.788	6.15
502.99	6.16
503.192	6.17
503.394	6.17
503.596	6.17
503.798	6.22
503.999	6.26
504.201	6.27
504.403	6.27
504.605	6.28
504.806	6.29
505.008	6.28
505.21	6.26
505.411	6.27
505.613	6.32
505.815	6.4
506.016	6.42
506.218	6.4
506.42	6.42
506.621	6.43
506.823	6.43
507.024	6.42
507.226	6.38
507.427	6.32
507.629	6.37
507.83	6.33
508.032	6.37
508.233	6.37
508.435	6.39
508.636	6.42
508.838	6.5
509.039	6.52
509.24	6.56
509.442	6.5
509.643	6.52
509.845	6.53
510.046	6.52
510.247	6.57
510.448	6.56
510.65	6.6
510.851	6.64
511.052	6.62
511.254	6.62
511.455	6.64
511.656	6.55
511.857	6.58
512.058	6.57
512.26	6.56
512.461	6.58
512.662	6.58
512.863	6.57
513.064	6.6
513.265	6.56
513.466	6.58
513.667	6.61
513.868	6.61
514.069	6.64
514.27	6.65
514.471	6.69
514.672	6.72
514.873	6.73
515.074	6.7
515.275	6.71
515.476	6.7
515.677	6.75
515.878	6.78
516.079	6.81
516.28	6.78
516.481	6.79
516.682	6.79
516.882	6.76
517.083	6.74
517.284	6.69
517.485	6.7
517.686	6.69
517.886	6.71
518.087	6.72
518.288	6.74
518.488	6.77
518.689	6.8
518.89	6.8
519.091	6.84
519.291	6.88
519.492	6.9
519.692	6.92
519.893	6.91
520.094	6.93
520.294	6.93
520.495	6.91
520.695	6.89
520.896	6.9
521.096	6.86
521.297	6.88
521.497	6.87
521.698	6.88
521.898	6.91
522.099	6.91
522.299	6.9
522.499	6.93
522.7	6.94
522.9	6.95
523.101	6.97
523.301	6.95
523.501	6.98
523.702	7
523.902	7
524.102	7.02
524.302	7.03
524.503	7.03
524.703	7.06
524.903	7.07
525.103	7.08
525.304	7.11
525.504	7.07
525.704	7.05
525.904	7.03
526.104	7.03
526.304	7.01
526.504	7.01
526.705	7.03
526.905	7.03
527.105	7.06
527.305	7.07
527.505	7.08
527.705	7.1
527.905	7.1
528.105	7.09
528.305	7.11
528.505	7.1
528.705	7.11
528.905	7.07
529.105	7.07
529.304	7.12
529.504	7.1
529.704	7.14
529.904	7.14
530.104	7.13
530.304	7.18
530.503	7.18
530.703	7.17
530.903	7.2
531.103	7.17
531.303	7.2
531.502	7.22
531.702	7.22
531.902	7.24
532.101	7.25
532.301	7.25
532.501	7.29
532.7	7.29
532.9	7.32
533.1	7.31
533.299	7.36
533.499	7.33
533.698	7.36
533.898	7.36
534.097	7.35
534.297	7.36
534.496	7.36
534.696	7.32
534.895	7.35
535.095	7.34
535.294	7.31
535.494	7.36
535.693	7.39
535.892	7.41
536.092	7.43
536.291	7.46
536.491	7.47
536.69	7.53
536.889	7.49
537.088	7.44
537.288	7.5
537.487	7.53
537.686	7.55
537.886	7.58
538.085	7.62
538.284	7.67
538.483	7.72
538.682	7.71
538.882	7.72
539.081	7.71
539.28	7.69
539.479	7.67
539.678	7.7
539.877	7.71
540.076	7.71
540.275	7.75
540.474	7.73
540.673	7.8
540.872	7.83
541.071	7.85
541.27	7.86
541.469	7.94
541.668	7.96
541.867	8.01
542.066	8.02
542.265	8.06
542.464	8.08
542.663	8.14
542.862	8.13
543.06	8.19
543.259	8.21
543.458	8.24
543.657	8.24
543.856	8.26
544.054	8.27
544.253	8.26
544.452	8.24
544.651	8.27
544.849	8.29
545.048	8.33
545.247	8.37
545.445	8.36
545.644	8.43
545.843	8.46
546.041	8.52
546.24	8.55
546.438	8.62
546.637	8.69
546.836	8.76
547.034	8.74
547.233	8.82
547.431	8.82
547.63	8.86
547.828	8.86
548.027	8.86
548.225	8.9
548.423	9
548.622	8.99
548.82	9.05
549.019	9.08
549.217	9.16
549.415	9.2
549.614	9.2
549.812	9.23
550.01	9.3
550.209	9.38
550.407	9.43
550.605	9.43
550.803	9.5
551.002	9.59
551.2	9.66
551.398	9.71
551.596	9.7
551.794	9.75
551.993	9.79
552.191	9.87
552.389	9.93
552.587	9.94
552.785	10.02
552.983	10.12
553.181	10.15
553.379	10.23
553.577	10.28
553.775	10.31
553.973	10.42
554.171	10.47
554.369	10.53
554.567	10.59
554.765	10.64
554.963	10.67
555.161	10.76
555.359	10.81
555.557	10.85
555.755	10.92
555.952	11
556.15	11.07
556.348	11.16
556.546	11.23
556.744	11.28
556.941	11.37
557.139	11.45
557.337	11.53
557.535	11.65
557.732	11.74
557.93	11.83
558.128	11.9
558.325	11.98
558.523	12.02
558.721	12.12
558.918	12.17
559.116	12.21
559.313	12.29
559.511	12.37
559.708	12.41
559.906	12.51
560.104	12.61
560.301	12.67
560.498	12.77
560.696	12.82
560.893	12.93
561.091	13.05
561.288	13.16
561.486	13.21
561.683	13.31
561.88	13.39
562.078	13.46
562.275	13.55
562.473	13.61
562.67	13.69
562.867	13.81
563.064	13.94
563.262	14.09
563.459	14.21
563.656	14.33
563.853	14.4
564.051	14.5
564.248	14.56
564.445	14.61
564.642	14.68
564.839	14.8
565.036	14.89
565.234	15.06
565.431	15.13
565.628	15.24
565.825	15.38
566.022	15.47
566.219	15.53
566.416	15.63
566.613	15.71
566.81	15.78
567.007	15.87
567.204	15.93
567.401	16.02
567.598	16.11
567.795	16.16
567.991	16.23
568.188	16.35
568.385	16.42
568.582	16.49
568.779	16.58
568.976	16.68
569.172	16.8
569.369	16.86
569.566	16.87
569.763	16.95
569.96	17.01
570.156	17.04
570.353	17.03
570.55	17.08
570.746	17.13
570.943	17.22
571.14	17.28
571.336	17.32
571.533	17.38
571.729	17.46
571.926	17.51
572.123	17.56
572.319	17.61
572.516	17.67
572.712	17.78
572.909	17.8
573.105	17.89
573.302	17.93
573.498	18
573.695	18.02
573.891	18.04
574.087	18.06
574.284	18.07
574.48	18.03
574.677	18.03
574.873	18.09
575.069	18.17
575.266	18.18
575.462	18.22
575.658	18.32
575.854	18.38
576.051	18.42
576.247	18.4
576.443	18.37
576.639	18.35
576.835	18.3
577.032	18.27
577.228	18.28
577.424	18.35
577.62	18.37
577.816	18.38
578.012	18.43
578.208	18.46
578.404	18.53
578.6	18.53
578.796	18.55
578.993	18.6
579.189	18.6
579.384	18.6
579.58	18.61
579.776	18.57
579.972	18.57
580.168	18.5
580.364	18.44
580.56	18.46
580.756	18.51
580.952	18.53
581.148	18.56
581.343	18.57
581.539	18.58
581.735	18.61
581.931	18.62
582.127	18.57
582.322	18.55
582.518	18.51
582.714	18.51
582.909	18.52
583.105	18.45
583.301	18.42
583.496	18.41
583.692	18.39
583.888	18.37
584.083	18.38
584.279	18.35
584.474	18.41
584.67	18.41
584.866	18.42
585.061	18.44
585.257	18.5
585.452	18.48
585.648	18.49
585.843	18.5
586.039	18.49
586.234	18.5
586.429	18.51
586.625	18.48
586.82	18.48
587.015	18.47
587.211	18.48
587.406	18.51
587.601	18.53
587.797	18.46
587.992	18.49
588.187	18.47
588.383	18.49
588.578	18.44
588.773	18.48
588.968	18.5
589.163	18.6
589.359	18.58
589.554	18.62
589.749	18.66
589.944	18.75
590.139	18.75
590.334	18.78
590.529	18.81
590.724	18.85
590.919	18.94
591.114	18.97
591.309	18.98
591.504	19
591.699	19.03
591.894	19.03
592.089	19.06
592.284	19.02
592.479	19
592.674	19.05
592.869	19.14
593.064	19.24
593.259	19.31
593.454	19.39
593.648	19.46
593.843	19.61
594.038	19.68
594.233	19.72
594.428	19.76
594.622	19.79
594.817	19.86
595.012	19.97
595.206	20.05
595.401	20.12
595.596	20.2
595.79	20.26
595.985	20.36
596.18	20.43
596.374	20.42
596.569	20.46
596.763	20.52
596.958	20.54
597.153	20.64
597.347	20.69
597.542	20.76
597.736	20.87
597.931	20.96
598.125	21.03
598.319	21.11
598.514	21.15
598.708	21.24
598.903	21.31
599.097	21.42
599.291	21.5
599.486	21.54
599.68	21.58
599.874	21.66
600.069	21.71
600.263	21.77
600.457	21.77
600.651	21.77
600.846	21.82
601.04	21.85
601.234	21.88
601.428	21.88
601.622	21.91
601.817	21.97
602.011	22.01
602.205	22.05
602.399	22.12
602.593	22.08
602.787	22.15
602.981	22.17
603.175	22.14
603.369	22.1
603.563	22.1
603.757	22.07
603.951	22.1
604.145	22.08
604.339	22.08
604.533	22.11
604.727	22.13
604.921	22.14
605.115	22.17
605.309	22.22
605.502	22.24
605.696	22.19
605.89	22.16
606.084	22.14
606.278	22.1
606.471	22.05
606.665	21.99
606.859	21.96
607.053	21.92
607.246	21.88
607.44	21.86
607.634	21.8
607.827	21.71
608.021	21.6
608.214	21.57
608.408	21.52
608.602	21.45
608.795	21.38
608.989	21.34
609.182	21.37
609.376	21.3
609.569	21.24
609.763	21.22
609.956	21.15
610.15	21.12
610.343	21.06
610.537	20.92
610.73	20.9
610.923	20.79
611.117	20.71
611.31	20.67
611.504	20.63
611.697	20.56
611.89	20.54
612.083	20.47
612.277	20.35
612.47	20.27
612.663	20.17
612.856	20.06
613.05	19.96
613.243	19.93
613.436	19.85
613.629	19.82
613.822	19.75
614.015	19.7
614.209	19.68
614.402	19.66
614.595	19.57
614.788	19.47
614.981	19.44
615.174	19.4
615.367	19.38
615.56	19.29
615.753	19.26
615.946	19.19
616.139	19.15
616.332	19.09
616.525	19.07
616.718	19.01
616.911	18.96
617.103	18.9
617.296	18.83
617.489	18.84
617.682	18.82
617.875	18.71
618.067	18.67
618.26	18.63
618.453	18.53
618.646	18.54
618.838	18.52
619.031	18.42
619.224	18.46
619.417	18.45
619.609	18.44
619.802	18.45
619.994	18.39
620.187	18.33
620.38	18.31
620.572	18.25
620.765	18.19
620.957	18.1
621.15	18.05
621.342	18.04
621.535	18.02
621.727	17.99
621.92	17.93
622.112	17.94
622.305	17.93
622.497	17.9
622.69	17.86
622.882	17.86
623.074	17.83
623.267	17.8
623.459	17.77
623.651	17.81
623.844	17.88
624.036	17.83
624.228	17.84
624.42	17.84
624.613	17.87
624.805	17.88
624.997	17.83
625.189	17.76
625.381	17.74
625.574	17.69
625.766	17.69
625.958	17.63
626.15	17.59
626.342	17.55
626.534	17.48
626.726	17.49
626.918	17.43
627.11	17.39
627.302	17.42
627.494	17.39
627.686	17.36
627.878	17.33
628.07	17.31
628.262	17.31
628.454	17.25
628.646	17.15
628.838	17.08
629.029	17.04
629.221	17.04
629.413	16.99
629.605	16.93
629.797	16.95
629.989	16.9
630.18	16.89
630.372	16.9
630.564	16.88
630.755	16.81
630.947	16.82
631.139	16.75
631.33	16.76
631.522	16.69
631.714	16.66
631.905	16.58
632.097	16.54
632.289	16.5
632.48	16.42
632.672	16.37
632.863	16.34
633.055	16.3
633.246	16.29
633.438	16.25
633.629	16.28
633.821	16.31
634.012	16.32
634.203	16.36
634.395	16.42
634.586	16.39
634.777	16.4
634.969	16.36
635.16	16.33
635.351	16.29
635.543	16.25
635.734	16.19
635.925	16.24
636.117	16.26
636.308	16.21
636.499	16.22
636.69	16.26
636.881	16.27
637.073	16.25
637.264	16.19
637.455	16.2
637.646	16.18
637.837	16.17
638.028	16.21
638.219	16.2
638.41	16.19
638.601	16.18
638.792	16.11
638.983	16.11
639.174	16.09
639.365	15.98
639.556	15.95
639.747	15.97
639.938	15.96
640.129	16.01
640.32	15.98
640.511	15.98
640.701	15.98
640.892	15.97
641.083	15.93
641.274	15.89
641.465	15.81
641.655	15.81
641.846	15.72
642.037	15.68
642.228	15.66
642.418	15.6
642.609	15.62
642.8	15.62
642.99	15.65
643.181	15.71
643.372	15.74
643.562	15.73
643.753	15.74
643.943	15.72
644.134	15.72
644.324	15.69
644.515	15.64
644.705	15.68
644.896	15.67
645.086	15.65
645.277	15.67
645.467	15.67
645.658	15.62
645.848	15.63
646.038	15.5
646.229	15.49
646.419	15.5
646.61	15.41
646.8	15.4
646.99	15.4
647.18	15.36
647.371	15.37
647.561	15.29
647.751	15.19
647.941	15.17
648.132	15.14
648.322	15.13
648.512	15.12
648.702	15.08
648.892	15.1
649.082	15.1
649.272	15.07
649.462	15
649.653	14.96
649.843	14.91
650.033	14.89
650.223	14.93
650.413	15.01
650.603	15.02
650.793	15.06
650.983	15.06
651.172	15.05
651.362	15
651.552	14.88
651.742	14.73
651.932	14.65
652.122	14.6
652.312	14.4
652.502	14.33
652.691	14.35
652.881	14.28
653.071	14.23
653.261	14.14
653.45	14.05
653.64	14.1
653.83	14.05
654.019	13.87
654.209	13.8
654.399	13.72
654.588	13.67
654.778	13.6
654.968	13.46
655.157	13.28
655.347	13.18
655.536	13.07
655.726	12.97
655.915	12.82
656.105	12.68
656.294	12.56
656.484	12.54
656.673	12.51
656.863	12.43
657.052	12.26
657.241	12.11
657.431	11.98
657.62	11.78
657.809	11.61
657.999	11.44
658.188	11.26
658.377	11.21
658.567	11.05
658.756	10.88
658.945	10.78
659.134	10.63
659.324	10.45
659.513	10.3
659.702	10.12
659.891	10
660.08	9.89
660.269	9.81
660.458	9.71
660.648	9.6
660.837	9.52
661.026	9.46
661.215	9.38
661.404	9.28
661.593	9.12
661.782	9
661.971	8.85
662.16	8.7
662.349	8.51
662.538	8.5
662.726	8.38
662.915	8.32
663.104	8.16
663.293	8.08
663.482	8
663.671	7.94
663.86	7.79
664.048	7.74
664.237	7.7
664.426	7.7
664.615	7.7
664.803	7.64
664.992	7.62
665.181	7.56
665.369	7.5
665.558	7.44
665.747	7.44
665.935	7.4
666.124	7.42
666.312	7.33
666.501	7.32
666.69	7.29
666.878	7.23
667.067	7.21
667.255	7.2
667.444	7.15
667.632	7.17
667.82	7.18
668.009	7.2
668.197	7.23
668.386	7.13
668.574	7.11
668.762	7.13
668.951	7.1
669.139	7.17
669.327	7.17
669.516	7.19
669.704	7.32
669.892	7.31
670.08	7.32
670.269	7.36
670.457	7.32
670.645	7.38
670.833	7.36
671.021	7.33
671.21	7.42
671.398	7.45
671.586	7.52
671.774	7.48
671.962	7.49
672.15	7.56
672.338	7.58
672.526	7.56
672.714	7.62
672.902	7.69
673.09	7.78
673.278	7.77
673.466	7.86
673.654	7.94
673.842	8.01
674.03	8.12
674.218	8.16
674.405	8.21
674.593	8.31
674.781	8.36
674.969	8.42
675.157	8.5
675.344	8.51
675.532	8.54
675.72	8.55
675.908	8.66
676.095	8.74
676.283	8.78
676.471	8.79
676.658	8.85
676.846	8.93
677.033	9.07
677.221	9.16
677.409	9.21
677.596	9.36
677.784	9.46
677.971	9.53
678.159	9.63
678.346	9.7
678.534	9.74
678.721	9.8
678.909	9.83
679.096	9.93
679.283	10.01
679.471	10.07
679.658	10.21
679.846	10.35
680.033	10.46
680.22	10.53
680.408	10.61
680.595	10.75
680.782	10.82
680.969	10.86
681.157	10.87
681.344	10.97
681.531	11.05
681.718	11.17
681.905	11.3
682.093	11.54
682.28	11.71
682.467	11.88
682.654	12.03
682.841	12.15
683.028	12.36
683.215	12.53
683.402	12.52
683.589	12.67
683.776	12.84
683.963	13
684.15	13.16
684.337	13.31
684.524	13.46
684.711	13.75
684.898	13.95
685.085	14.23
685.271	14.48
685.458	14.81
685.645	14.98
685.832	15.25
686.019	15.52
686.205	15.81
686.392	16.01
686.579	16.2
686.766	16.44
686.952	16.81
687.139	17.03
687.326	17.36
687.512	17.71
687.699	18.06
687.886	18.46
688.072	19
688.259	19.38
688.445	19.86
688.632	20.31
688.818	20.71
689.005	21.25
689.191	21.8
689.378	22.14
689.564	22.64
689.751	23.19
689.937	23.63
690.124	24.17
690.31	24.64
690.496	25.16
690.683	25.75
690.869	26.29
691.055	26.93
691.242	27.44
691.428	28.09
691.614	28.77
691.8	29.27
691.987	29.91
692.173	30.59
692.359	31.17
692.545	31.89
692.731	32.56
692.918	33.1
693.104	33.84
693.29	34.5
693.476	34.99
693.662	35.6
693.848	36.08
694.034	36.54
694.22	37.11
694.406	37.77
694.592	38.3
694.778	39.07
694.964	39.56
695.15	40.44
695.336	41.21
695.522	42
695.708	42.63
695.894	43.42
696.08	43.92
696.265	44.67
696.451	45.31
696.637	45.8
696.823	46.34
697.009	47.01
697.194	47.47
697.38	48.06
697.566	48.49
697.751	48.84
697.937	49.59
698.123	50.17
698.308	50.6
698.494	51.07
698.68	51.84
698.865	52.57
699.051	53.31
699.236	53.72
699.422	54.25
699.607	54.75
699.793	55.25
699.978	55.45
700.164	55.97
700.349	56.33
700.535	56.88
700.72	57.31
700.906	57.67
701.091	58.22
701.276	58.71
701.462	59.06
701.647	59.45
701.832	59.64
702.018	59.88
702.203	60.29
702.388	60.52
702.573	61.12
702.759	61.41
702.944	61.92
703.129	62.42
703.314	62.99
703.499	63.47
703.684	63.91
703.87	64.32
704.055	64.75
704.24	65.09
704.425	65.56
704.61	65.78
704.795	65.99
704.98	66.3
705.165	66.39
705.35	66.75
705.535	67.1
705.72	67.26
705.905	67.52
706.09	67.78
706.275	67.92
706.459	68.33
706.644	68.57
706.829	68.74
707.014	68.92
707.199	69.18
707.384	69.53
707.568	69.96
707.753	70.1
707.938	70.41
708.123	70.35
708.307	70.87
708.492	70.98
708.677	71.21
708.861	71.35
709.046	71.44
709.231	71.48
709.415	71.78
709.6	71.64
709.784	71.98
709.969	72.16
710.153	72.37
710.338	72.67
710.522	72.94
710.707	72.62
710.891	72.81
711.076	72.73
711.26	72.78
711.445	72.94
711.629	73.18
711.813	72.96
711.998	73.43
712.182	73.84
712.366	74.37
712.551	74.64
712.735	74.68
712.919	74.66
713.103	75.18
713.288	75.54
713.472	75.42
713.656	75.2
713.84	75.35
714.024	75.88
714.208	75.92
714.393	76.08
714.577	76.2
714.761	76.44
714.945	76.6
715.129	76.63
715.313	76.44
715.497	76.72
715.681	76.82
715.865	76.94
716.049	77.05
716.233	77.47
716.417	77.77
716.601	77.75
716.785	77.89
716.968	77.83
717.152	77.84
717.336	77.9
717.52	77.99
717.704	78.1
717.888	78.29
718.071	78.44
718.255	78.5
718.439	78.42
718.622	78.65
718.806	78.21
718.99	78.06
719.174	78.08
719.357	78.1
719.541	78.38
719.724	78.78
719.908	79.01
720.092	79.52
720.275	79.74
720.459	79.92
720.642	79.79
720.826	79.88
721.009	79.86
721.193	79.6
721.376	79.27
721.559	79.38
721.743	79.2
721.926	79.14
722.11	79.17
722.293	78.89
722.476	78.84
722.66	79.21
722.843	79.18
723.026	79.74
723.21	80.08
723.393	80.39
723.576	80.8
723.759	81.15
723.942	81.28
724.126	81.46
724.309	81.52
724.492	81.68
724.675	81.65
724.858	81.91
725.041	82.01
725.224	81.87
725.407	81.67
725.59	81.67
725.774	81.61
725.957	81.8
726.14	81.55
726.322	81.55
726.505	82.23
726.688	82.77
726.871	82.67
727.054	82.8
727.237	82.34
727.42	82.96
727.603	83.06
727.786	82.91
727.968	82.74
728.151	83.41
728.334	83.57
728.517	83.8
728.699	83.49
728.882	83.76
729.065	83.87
729.248	83.86
729.43	83.54
729.613	83.83
729.796	83.93
729.978	84.37
730.161	84.68
730.343	84.83
730.526	85.15
730.708	85.49
730.891	85.22
731.073	85.43
731.256	85.43
731.438	85.21
731.621	85.52
731.803	85.59
731.986	85.42
732.168	85.85
732.35	86.16
732.533	86.3
732.715	86.36
732.898	86.28
733.08	86.95
733.262	86.94
733.444	86.98
733.627	87.26
733.809	87.32
733.991	87.62
734.173	87.23
734.355	86.99
734.538	87.08
734.72	87.5
734.902	87.17
735.084	87.54
735.266	87.55
735.448	87.83
735.63	87.86
735.812	88.36
735.994	87.77
736.176	87.95
736.358	87.96
736.54	87.94
736.722	88.14
736.904	87.82
737.086	87.41
737.268	87.92
737.45	88.03
737.632	87.44
737.814	87.45
737.995	87.57
738.177	88.12
738.359	88.57
738.541	88.16
738.723	87.93
738.904	88.19
739.086	88.16
739.268	88.7
739.449	88.87
739.631	88.87
739.813	89.31
739.994	89.64
740.176	89.83
740.358	90.03
740.539	89.66
740.721	89
740.902	88.61
741.084	88.74
741.265	88.75
741.447	88.46
741.628	88.19
741.81	88.42
741.991	88.86
742.172	89.3
742.354	89.29
742.535	88.86
742.717	88.82
742.898	89.74
743.079	89.52
743.261	89.68
743.442	89.95
743.623	89.95
743.804	90.7
743.986	90.54
744.167	89.98
744.348	90.54
744.529	90.13
744.71	89.34
744.891	89.74
745.073	89.62
745.254	90.12
745.435	89.8
745.616	89.2
745.797	89.52
745.978	90.3
746.159	89.77
746.34	89.98
746.521	90.09
746.702	89.88
746.883	89.99
747.064	90.02
747.245	90.14
747.426	90.33
747.606	90.02
747.787	90.49
747.968	91.01
748.149	91.23
748.33	91.2
748.51	90.43
748.691	90.2
748.872	90.52
749.053	90.19
749.233	90.44
749.414	89.78
749.595	89.58
749.775	89.83
749.956	89.67
750.137	88.53
750.317	87.89
750.498	88.03
750.678	87.81
750.859	87.53
751.04	87.18
751.22	86.99
751.4	88.02
751.581	88.32
751.761	88.46
751.942	89.53
752.122	89.82
752.303	90.46
752.483	91.84
752.663	92.2
752.844	92.26
753.024	92.14
753.204	91.26
753.385	90.82
753.565	90.28
753.745	89.02
753.925	87.99
754.106	88.24
754.286	87.27
754.466	87.26
754.646	87.08
754.826	87.04
755.006	87
755.187	87.54
755.367	87.84
755.547	88.47
755.727	88.62
755.907	89.79
756.087	89.97
756.267	89.79
756.447	89.62
756.627	88.87
756.807	88.91
756.987	90.27
757.167	89.88
757.346	89.26
757.526	89.65
757.706	89.78
757.886	89.99
758.066	89.98
758.246	88.76
758.425	88.64
758.605	88.94
758.785	88.62
758.965	87.86
759.144	88.22
759.324	88.46
759.504	88.32
759.683	87.98
759.863	88.31
760.043	88.58
760.222	88.99
760.402	89.31
760.581	87.9
760.761	87.32
760.94	87.08
761.12	86.65
761.299	86.21
761.479	86.9
761.658	86.02
761.838	86.9
762.017	88.08
762.197	88.6
762.376	88.93
762.555	89.42
762.735	88.02
762.914	88.45
763.093	88.96
763.273	88.11
763.452	87.5
763.631	87.21
763.81	87.58
763.99	87.22
764.169	86.74
764.348	85.62
764.527	85.45
764.706	85.61
764.885	85.7
765.064	84.79
765.243	84.88
765.423	85.53
765.602	85.4
765.781	84.99
765.96	85.82
766.139	86.57
766.318	86.87
766.497	87.97
766.676	88.17
766.854	88
767.033	88.03
767.212	86.89
767.391	85.54
767.57	85.6
767.749	85.69
767.928	84.14
768.106	84.33
768.285	84.79
768.464	85.66
768.643	85.81
768.821	85.17
769	84.89
769.179	84.3
769.357	84.21
769.536	83.92
769.715	83.88
769.893	83.66
770.072	83.88
770.25	83.64
770.429	84.92
770.607	85.63
770.786	86.96
770.964	85.41
771.143	86.6
771.321	85.86
771.5	86.02
771.678	85.57
771.857	84.23
772.035	82.62
772.213	83.66
772.392	82.67
772.57	84.14
772.748	82.62
772.927	82.69
773.105	84.29
773.283	84.23
773.461	83.73
773.64	83.68
773.818	81.95
773.996	82.97
774.174	83.38
774.352	81.96
774.531	82.13
774.709	82.57
774.887	82.07
775.065	82.52
775.243	83.06
775.421	82.44
775.599	82.22
775.777	82.5
775.955	82.48
776.133	82.51
776.311	82.04
776.489	80.71
776.667	80.63
776.844	81.13
777.022	81.23
777.2	80.87
777.378	81.67
777.556	83.07
777.734	84.31
777.911	86.16
778.089	84.67
778.267	83.72
778.445	83.58
778.622	83.18
778.8	83
778.978	82.72
779.155	80.75
779.333	81.51
779.511	81.44
779.688	79.6
779.866	79.46
780.043	81.11
780.221	81.09
780.398	81.61
780.576	81.94
780.753	82.27
780.931	84.24
781.108	85.31
781.286	81.91
781.463	82.06
781.64	82.05
781.818	82.17
781.995	83.24
782.172	81.93
782.35	80.83
782.527	83.52
782.704	82.9
782.882	83
783.059	82.9
783.236	82.44
783.413	84.33
783.59	83.09
783.768	82.02
783.945	82.08
784.122	81.45
784.299	82.38
784.476	81.93
784.653	80.39
784.83	79.91
785.007	77.93
785.184	77.84
785.361	77.88
785.538	76.5
785.715	75.94
785.892	76.1
786.069	77.78
786.246	77.06
786.423	78.42
786.6	77.99
786.776	77.73
786.953	78.01
787.13	79.29
787.307	80.2
787.484	82.19
787.66	80.14
787.837	80.47
788.014	81.13
788.191	80.31
788.367	78.97
788.544	78.32
788.721	78.93
788.897	80.79
789.074	80.05
789.25	79.02
789.427	79.85
789.603	83.01
789.78	83.78
789.956	83.53
790.133	82.84
790.309	83.47
790.486	86.1
790.662	87.39
790.839	86.1
791.015	85.43
791.192	86.54
791.368	88.16
791.544	88.27
791.721	87
791.897	86.29
792.073	83.55
792.249	84.97
792.426	84.51
792.602	82.83
792.778	82.84
792.954	83.98
793.13	84.68
793.307	84.26
793.483	81.12
793.659	82.08
793.835	80.21
794.011	78.54
794.187	75.32
794.363	75.23
794.539	76.77
794.715	76.16
794.891	69.46
795.067	70.95
795.243	71.83
795.419	73.79
795.595	71.86
795.771	73.47
795.947	75.94
796.122	82.08
796.298	82.09
796.474	85.98
796.65	87.29
796.826	91.16
797.001	90.11
797.177	89.08
797.353	90.8
797.529	89.08
797.704	86.27
797.88	83.66
798.056	82.43
798.231	82.11
798.407	84.01
798.582	82.01
798.758	85.51
798.934	82.98
799.109	83.49
799.285	85.65
799.46	86.43
799.636	84.03
799.811	88.41
799.986	87.41
800.162	89.32
800.337	88.57
800.513	87.96
800.688	89.74
800.863	91.13
801.039	83.32
801.214	80.62
801.389	79.43
801.565	82.61
801.74	79.64
801.915	74.76
802.09	71.96
802.265	73.74
802.441	74.71
802.616	75.85
802.791	74.57
802.966	75.34
803.141	75.05
803.316	79.69
803.491	80.06
803.666	79.24
803.841	81.79
804.016	81.65
804.191	79.69
804.366	82.5
804.541	79.58
804.716	73.12
804.891	79.62
805.066	75.95
805.241	74.42
805.416	77.4
805.591	78.81
805.765	80.24
805.94	87.21
806.115	81.67
806.29	84.28
806.464	83.63
806.639	82.16
806.814	78.18
806.989	74.4
807.163	70.75
807.338	73.01
807.512	66.48
807.687	68.23
807.862	68.49
808.036	69.56
808.211	77.03
808.385	76.67
808.56	75.23
808.734	79.97
808.909	78.34
809.083	77.2
809.258	81.3
809.432	77.61
809.606	81.06
809.781	80.06
809.955	79.56
810.13	81.68
810.304	81.08
810.478	79.3
810.652	82.57
810.827	82.33
811.001	82.77
811.175	80.73
811.349	81.68
811.524	82.95
811.698	84.73
811.872	83.4
812.046	84.98
812.22	81.49
812.394	83.62
812.568	82.4
812.742	81.18
812.916	78.93
813.09	73.62
813.264	70.47
813.438	81.3
813.612	81.19
813.786	82.75
813.96	86.22
814.134	86.33
814.308	86.46
814.482	88.64
814.656	88.89
814.83	89.06
815.003	91.49
815.177	90.44
815.351	97.44
815.525	99.55
815.698	98.02
815.872	90.94
816.046	90.75
816.219	89.85
816.393	82.83
816.567	72.85
816.74	73.53
816.914	74.21
817.088	76
817.261	73.27
817.435	68.53
817.608	72.65
817.782	78.82
817.955	76.36
818.129	79.82
818.302	81.45
818.475	81.5
818.649	85.16
818.822	89.19
818.996	86.31
819.169	85.67
819.342	79.57
819.516	77.46
819.689	79.46
819.862	76.07
820.035	70.93
820.209	68.79
820.382	67.21
820.555	71.34
820.728	68.54
820.901	68.93
821.075	71.16
821.248	72.4
821.421	70.54
821.594	76.2
821.767	71.15
821.94	65.33
822.113	68.09
822.286	73.11
822.459	75.09
822.632	77.27
822.805	72.04
822.978	72.34
823.151	81.17
823.324	74.14
823.496	62.5
823.669	62.71
823.842	65.91
824.015	67.49
824.188	70.94
824.361	69.63
824.533	75.89
824.706	91.9
824.879	91.45
825.051	90.98
825.224	94.59
825.397	87.41
825.569	90.48
825.742	84.37
825.915	78.1
826.087	78.41
826.26	72.65
826.432	71.47
826.605	77.44
826.777	78
826.95	77.55
827.122	87.47
827.295	83.93
827.467	78.44
827.64	69.41
827.812	68.07
827.984	72.4
828.157	78.67
828.329	69.28
828.501	70.78
828.674	75.49
828.846	72.92
829.018	73.49
829.19	60.67
829.363	58.18
829.535	61.65
829.707	61.7
829.879	66.77
830.051	72.09
830.223	63.5
830.395	67.98
830.568	69.76
830.74	63.66
830.912	63.28
831.084	58.8
831.256	53.65
831.428	61.41
831.6	59.25
831.772	56.7
831.943	64.67
832.115	66.09
832.287	66.78
832.459	74.61
832.631	73.86
832.803	83.7
832.975	90.13
833.146	80.71
833.318	83.77
833.49	88.76
833.662	82.7
833.833	82.92
834.005	81.93
834.177	75.73
834.348	75.09
834.52	76.76
834.692	78.03
834.863	82.09
835.035	81.32
835.206	71.89
835.378	76.59
835.549	78.42
835.721	67.38
835.892	67.73
836.064	72.33
836.235	76.21
836.407	75.2
836.578	76.23
836.749	80.41
836.921	88.19
837.092	91.54
837.264	81.66
837.435	67.4
837.606	80.22
837.777	75.65
837.949	66.49
838.12	58
838.291	60.98
838.462	65.21
838.633	66.59
838.805	63.98
838.976	62.43
839.147	60.16
839.318	65.7
839.489	64.63
839.66	69.61
839.831	70.82
840.002	66.85
840.173	71.43
840.344	76.28
840.515	73.74
840.686	76.22
840.857	71.01
841.028	82.99
841.199	83.38
841.369	77.51
841.54	93.91
841.711	102.41
841.882	91.58
842.053	95.22
842.223	98.39
842.394	94.57
842.565	103.7
842.736	86.28
842.906	79.35
843.077	80.85
843.248	92.46
843.418	78.44
843.589	72.06
843.759	67.96
843.93	67.07
844.101	66.71
844.271	63.67
844.442	53.59
844.612	51.09
844.783	44.07
844.953	38.88
845.123	51.44
845.294	62.61
845.464	72.71
845.635	78.43
845.805	88.57
845.975	89.68
846.146	82.5
846.316	96.63
846.486	100.53
846.656	93.52
846.827	85.08
846.997	87.15
847.167	86.02
847.337	101.1
847.507	83
847.677	76.74
847.848	68.43
848.018	60.63
848.188	52.21
848.358	62.42
848.528	57.95
848.698	52.62
848.868	38.68
849.038	53.34
849.208	58.6
849.378	52.32
849.548	60.67
849.718	59.75
849.887	70.18
850.057	63.39
850.227	58.62
850.397	62.1
850.567	80.07
850.737	65.83
850.906	63.27
851.076	53.47
851.246	72.43
851.415	78.04
851.585	71.33
851.755	74.75
851.924	89.61
852.094	93.64
852.264	96.06
852.433	94.79
852.603	104.87
852.772	105.69
852.942	85.36
853.111	81.21
853.281	71.11
853.45	77.47
853.62	76.14
853.789	69.39
853.959	73.4
854.128	65.1
854.297	60.39
854.467	71.32
854.636	75.1
854.805	70.83
854.975	75.79
855.144	85
855.313	100.63
855.482	91.96
855.652	85.05
855.821	87.81
855.99	99.82
856.159	87.72
856.328	75.65
856.497	68.41
856.667	80.84
856.836	73.65
857.005	60.84
857.174	62.51
857.343	66.24
857.512	63.61
857.681	71.17
857.85	53.54
858.019	62.1
858.188	69.54
858.356	49.27
858.525	55.57
858.694	64.51
858.863	62.8
859.032	69.53
859.201	82.2
859.369	76.21
859.538	77.66
859.707	70.07
859.876	83.74
860.044	81.69
860.213	85.9
860.382	79.87
860.55	102.92
860.719	105.76
860.888	99.95
861.056	90.5
861.225	95.29
861.393	92.63
861.562	69.92
861.73	59
861.899	56.88
862.067	60.52
862.236	44.1
862.404	50.42
862.572	55.44
862.741	74.3
862.909	74.44
863.078	74.86
863.246	89.73
863.414	127.33
863.582	128.75
863.751	96.23
863.919	99.43
864.087	93.05
864.255	70.38
864.424	69.23
864.592	59.08
864.76	62.47
864.928	79.13
865.096	59.46
865.264	63.85
865.432	71.38
865.6	59.59
865.768	42.51
865.936	46.68
866.104	44.32
866.272	64.7
866.44	48.94
866.608	68.68
866.776	97.45
866.944	112.62
867.112	81.61
867.28	57.7
867.448	63.92
867.615	75.35
867.783	51.96
867.951	63.06
868.119	86.02
868.286	76.28
868.454	83.13
868.622	86.13
868.789	82.98
868.957	99.37
869.125	78.85
869.292	72.78
869.46	83.48
869.627	72.33
869.795	62.84
869.963	57.87
870.13	66.69
870.298	68.19
870.465	49.06
870.632	54.63
870.8	48.56
870.967	42.42
871.135	46.17
871.302	47.09
871.469	53.58
871.637	73.17
871.804	70.01
871.971	70.66
872.139	79.64
872.306	77.54
872.473	69.76
872.64	95.8
872.807	99.71
872.975	91.7
873.142	99.89
873.309	142.91
873.476	296.57
873.643	320.94
873.81	222.1
873.977	146.92
874.144	168.31
874.311	138
874.478	62.01
874.645	7.09
874.812	23.96
874.979	-0.98
875.146	-23.45
875.313	1.48
875.48	78.22
875.647	66.07
875.813	59.75
875.98	28.59
876.147	78.17
876.314	85.92
876.481	72.82
876.647	66.73
876.814	74.27
876.981	70.4
877.147	69.79
877.314	81.04
877.481	76.82
877.647	78.29
877.814	74.29
877.98	100.13
878.147	108.58
878.314	108.66
878.48	64.24
878.647	84.28
878.813	83.06
878.979	78.17
879.146	49.34
879.312	84.01
879.479	85.5
879.645	85.16
879.811	77.14
879.978	92.84
880.144	141.41
880.31	163.73
880.477	90.19
880.643	147.17
880.809	169.68
880.975	90.73
881.142	63.95
881.308	29.24
881.474	61.19
881.64	48.12
881.806	58.67
881.972	64.72
882.138	87.48
882.304	81.65
882.47	69.29
882.636	45.92
882.802	71.51
882.968	37.65
883.134	-66.03
883.3	12.76
883.466	83.76
883.632	73.57
883.798	115.29
883.964	135.18
884.129	152.62
884.295	118.87
884.461	141.74
884.627	149.19
884.793	129.08
884.958	88.22
885.124	47.83
885.29	15.35
885.455	22.95
885.621	29.39
885.787	21.47
885.952	5.72
886.118	35.09
886.283	51.83
886.449	66.49
886.614	112.06
886.78	94.73
886.945	87.14
887.111	110.77
887.276	65.12
887.442	65.45
887.607	91.3
887.773	45.36
887.938	46.16
888.103	76.41
888.269	60.24
888.434	63.08
888.599	63.53
888.764	46
888.93	57.51
889.095	57.12
889.26	71.84
889.425	97.78
889.59	74.82
889.756	66.48
889.921	79.47
890.086	89.1
890.251	84.06
890.416	56.42
890.581	34.15
890.746	55.11
890.911	59.3
891.076	35.07
891.241	60.24
891.406	63.46
891.571	52.38
891.736	54.21
891.901	68.05
892.065	91.81
892.23	96.19
892.395	53.7
892.56	45.16
892.725	42.79
892.889	41.66
893.054	17.94
893.219	-23.92
893.384	-50.85
893.548	-19.17
893.713	66.09
893.878	29.35
