Data from Ofra_1a_PS_4HS13_Reflection_1.txt Node
Date: Tue Jul 20 10:56:22 EDT 2021
User: Adam
Spectrometer: FLMT01687
Trigger mode: 0
Integration Time (sec): 1.004000E0
Scans to average: 2
Electric dark correction enabled: true
Nonlinearity correction enabled: false
Boxcar width: 2
XAxis mode: Wavelengths
Number of Pixels in Spectrum: 3648
>>>>>Begin Spectral Data<<<<<
179.494	-558.38
179.716	-601.53
179.937	1088.96
180.158	-1347.77
180.38	141.7
180.601	-67.48
180.823	-167.53
181.044	-273.03
181.265	-368.5
181.486	219.12
181.708	-13.46
181.929	14109.09
182.15	-205.36
182.372	817.73
182.593	372.14
182.814	-186.08
183.035	-25.87
183.257	14.68
183.478	22.05
183.699	-0.39
183.92	-52.84
184.141	-33.68
184.363	-28.75
184.584	-26.98
184.805	23.89
185.026	78.5
185.247	71.62
185.468	55.3
185.689	48.8
185.91	16.2
186.132	-0.38
186.353	4.11
186.574	12.99
186.795	14.99
187.016	33.03
187.237	41.99
187.458	36.87
187.679	33.43
187.9	49.16
188.121	59.73
188.342	61.14
188.563	75.71
188.784	85.17
189.005	59.14
189.226	63.69
189.447	47.73
189.667	33.39
189.888	0.75
190.109	1.47
190.33	-20.78
190.551	-10.44
190.772	3.28
190.993	5.47
191.214	-5.46
191.434	-10.88
191.655	52.63
191.876	30.19
192.097	61.31
192.318	77.87
192.538	49.89
192.759	25.27
192.98	38.31
193.201	27.05
193.421	23.54
193.642	40.16
193.863	42.68
194.083	32.61
194.304	29.9
194.525	17.38
194.745	-6.8
194.966	1.03
195.187	-2.7
195.407	-9.06
195.628	-9.54
195.848	12.33
196.069	-17.68
196.29	-11.9
196.51	-3.24
196.731	-6.39
196.951	-35.35
197.172	-8.7
197.392	-19.15
197.613	4.66
197.833	-21.4
198.054	-3.92
198.274	0.36
198.495	15.83
198.715	-11.42
198.936	26.81
199.156	38.7
199.377	29.9
199.597	33.53
199.817	40.51
200.038	34.47
200.258	37.12
200.479	57.5
200.699	40.75
200.919	30.39
201.14	39.71
201.36	27.25
201.58	-10.91
201.801	-21.42
202.021	5.66
202.241	-26.94
202.461	-34.77
202.682	0.69
202.902	18.38
203.122	24.71
203.342	35.68
203.563	20.78
203.783	6.43
204.003	-16.62
204.223	-18.89
204.443	-11.08
204.663	-26.89
204.884	-4.76
205.104	15.9
205.324	38.35
205.544	4.09
205.764	48.83
205.984	41.04
206.204	55.45
206.424	33.79
206.644	41.19
206.864	-10.33
207.084	1.65
207.304	-5.45
207.525	6.02
207.745	13.81
207.964	42.78
208.184	43.63
208.404	27.51
208.624	31.87
208.844	35.61
209.064	40.64
209.284	28.53
209.504	13.06
209.724	-4.72
209.944	-17.55
210.164	-37.15
210.384	-27.48
210.604	-47.77
210.823	-49.73
211.043	-31.68
211.263	-86.56
211.483	-44.91
211.703	1.45
211.922	10.22
212.142	27.68
212.362	46.48
212.582	51.07
212.801	53.62
213.021	50.84
213.241	21.58
213.461	19.78
213.68	10.98
213.9	-1.75
214.12	-1.16
214.339	13.89
214.559	29.82
214.779	45.45
214.998	57.15
215.218	48.32
215.438	53.82
215.657	50.57
215.877	46.22
216.096	61.11
216.316	52.4
216.535	44.72
216.755	31.35
216.974	13.78
217.194	-11.95
217.413	3.18
217.633	0.58
217.852	0.87
218.072	8.38
218.291	4.07
218.511	-9.87
218.73	-24.21
218.95	-48.37
219.169	-39.49
219.389	-18.33
219.608	0.44
219.827	13.53
220.047	35.78
220.266	39.53
220.485	15.84
220.705	33.53
220.924	6.69
221.143	13.58
221.363	-2.04
221.582	13.85
221.801	16.84
222.021	35.78
222.24	37.7
222.459	67.63
222.678	50.6
222.897	35.41
223.117	47.29
223.336	50.24
223.555	51.09
223.774	111.18
223.993	109.57
224.213	94.77
224.432	62.41
224.651	32.3
224.87	12.3
225.089	2.69
225.308	1.93
225.527	9.7
225.746	14.12
225.965	-1.7
226.184	-3.23
226.404	-1.29
226.623	15.03
226.842	22.89
227.061	42.72
227.28	52.15
227.499	59.59
227.718	51.95
227.936	44.53
228.155	38.89
228.374	33.12
228.593	27.39
228.812	32.61
229.031	36.03
229.25	25.06
229.469	28.98
229.688	38.09
229.907	23.56
230.125	24.31
230.344	27.09
230.563	43.23
230.782	46.93
231.001	61.9
231.22	61.1
231.438	90.62
231.657	59.17
231.876	42.09
232.095	42.7
232.313	33.08
232.532	14.32
232.751	-7.18
232.969	-8.64
233.188	-13.24
233.407	-6.92
233.625	-4.96
233.844	17.42
234.063	18.93
234.281	22.73
234.5	28.71
234.719	21.81
234.937	6.14
235.156	5.13
235.374	10.51
235.593	34.18
235.811	49.52
236.03	38.85
236.249	46.87
236.467	47.15
236.686	32.83
236.904	32.69
237.123	46.09
237.341	29.18
237.559	18.1
237.778	29.48
237.996	-28.95
238.215	-81.66
238.433	-87.86
238.652	-30.22
238.87	-49.8
239.088	-15.41
239.307	3.37
239.525	10.42
239.743	5.39
239.962	4.71
240.18	19.54
240.398	27.52
240.617	23.8
240.835	32.08
241.053	28.53
241.271	30.17
241.49	41.6
241.708	38.19
241.926	32.96
242.144	51.23
242.363	49.76
242.581	19.46
242.799	29.46
243.017	22.37
243.235	12.79
243.453	7.13
243.672	31.55
243.89	21.82
244.108	37.39
244.326	43.57
244.544	38.02
244.762	22.23
244.98	25.02
245.198	12.42
245.416	-5.85
245.634	0.89
245.852	-5.68
246.07	13.94
246.288	16.72
246.506	30.55
246.724	28.45
246.942	32.81
247.16	21.14
247.378	15.12
247.596	33.99
247.814	2.73
248.032	12.05
248.25	40.83
248.468	45.61
248.685	41.6
248.903	52.24
249.121	45.35
249.339	32.08
249.557	30.77
249.775	20.01
249.992	17.61
250.21	18.08
250.428	27.03
250.646	22.36
250.863	6.99
251.081	16.93
251.299	20.36
251.517	25.74
251.734	22.8
251.952	35.36
252.17	20.82
252.387	9.28
252.605	-5.79
252.823	-19.09
253.04	-4.04
253.258	12.03
253.475	19.45
253.693	33.06
253.911	46.03
254.128	30.65
254.346	23.96
254.563	35.39
254.781	31.17
254.998	14.85
255.216	14.49
255.433	-5.83
255.651	-24.89
255.868	-30.37
256.086	-5.15
256.303	-0.55
256.521	13.89
256.738	10.12
256.956	2.46
257.173	-12.81
257.39	-6.91
257.608	-10.05
257.825	0.1
258.043	11.59
258.26	10.65
258.477	13.04
258.695	15.58
258.912	6.48
259.129	-8.21
259.346	-25.66
259.564	-32.85
259.781	-36.01
259.998	-22.93
260.216	2.6
260.433	12.28
260.65	6.51
260.867	1.85
261.084	5.4
261.302	-19.8
261.519	-26.75
261.736	-29.43
261.953	-21.47
262.17	3.45
262.387	7.88
262.604	10.33
262.822	18.59
263.039	28.21
263.256	15.98
263.473	12.88
263.69	23.51
263.907	29.55
264.124	15.85
264.341	29.07
264.558	23.08
264.775	18.93
264.992	16.11
265.209	20.58
265.426	-5.6
265.643	18.28
265.86	-3.29
266.077	-19.17
266.294	-18.03
266.51	13.89
266.727	-0.45
266.944	19.86
267.161	26.51
267.378	38.07
267.595	18.42
267.812	21.34
268.028	2.43
268.245	7.05
268.462	-6.94
268.679	26.46
268.896	32.39
269.112	32.52
269.329	22.8
269.546	35.39
269.763	9.05
269.979	-6.37
270.196	15.35
270.413	16.46
270.629	-0.54
270.846	-0.62
271.063	22.7
271.279	12.25
271.496	11.18
271.712	21.99
271.929	28.61
272.146	34.92
272.362	43.46
272.579	37.32
272.795	50.6
273.012	51.57
273.228	42.72
273.445	27.39
273.661	28.13
273.878	9.16
274.094	2.59
274.311	-6.36
274.527	-30.75
274.744	-15.51
274.96	-8.36
275.177	9.26
275.393	29.26
275.609	38.01
275.826	30.33
276.042	30.86
276.259	21.29
276.475	-4.74
276.691	-11.01
276.908	-0.23
277.124	8.44
277.34	-6.58
277.557	-12.67
277.773	-12.09
277.989	-26
278.205	-25.06
278.422	-13.7
278.638	0.46
278.854	2.95
279.07	20.53
279.286	14.98
279.503	28.02
279.719	34.85
279.935	34.73
280.151	20.21
280.367	24.7
280.583	16.74
280.799	5.71
281.016	-13.12
281.232	0.75
281.448	11.18
281.664	0.11
281.88	8.65
282.096	21.22
282.312	22.41
282.528	26.87
282.744	34.56
282.96	10.74
283.176	-6
283.392	-31.16
283.608	-41.4
283.824	-44.21
284.04	-60.41
284.256	-24.43
284.471	-9.01
284.687	2.87
284.903	12.1
285.119	39.62
285.335	54.63
285.551	50.31
285.767	34.94
285.982	32.08
286.198	14.27
286.414	-30.26
286.63	12.32
286.846	31.74
287.061	32.17
287.277	24.79
287.493	35.47
287.709	26.29
287.924	31.88
288.14	41.63
288.356	46.3
288.571	41.29
288.787	27.21
289.003	33.1
289.218	4.39
289.434	0.32
289.65	24.74
289.865	30.43
290.081	29.17
290.296	38.88
290.512	31.96
290.727	20.3
290.943	25.49
291.159	28.17
291.374	13.57
291.59	33.13
291.805	13.43
292.021	5.95
292.236	-1.54
292.451	11.42
292.667	14.55
292.882	39
293.098	57.66
293.313	38.67
293.529	41.53
293.744	13.69
293.959	12.28
294.175	6.68
294.39	15.57
294.605	21.86
294.821	28.79
295.036	35.01
295.251	38
295.467	27.41
295.682	21.06
295.897	10.5
296.112	-3.78
296.328	-5.1
296.543	-5.63
296.758	-6.87
296.973	5.09
297.188	4.56
297.404	-33.71
297.619	-47.68
297.834	-55.21
298.049	-38.48
298.264	-35.79
298.479	-12.49
298.694	14.6
298.909	24.04
299.125	21.62
299.34	39.11
299.555	41.21
299.77	47.34
299.985	41.13
300.2	47.37
300.415	29.92
300.63	34.35
300.845	27.47
301.06	27.33
301.275	13.44
301.49	20.68
301.704	16.57
301.919	0.42
302.134	-0.94
302.349	3.79
302.564	13.13
302.779	10.15
302.994	28.44
303.209	33.96
303.423	34.06
303.638	36.38
303.853	24.12
304.068	-2.8
304.283	0.35
304.497	-15.04
304.712	-8.02
304.927	11.48
305.142	23.45
305.356	34.81
305.571	50.45
305.786	46.76
306	67.62
306.215	63.79
306.43	26.53
306.644	12.83
306.859	2.55
307.074	-7.26
307.288	3.06
307.503	17.62
307.717	11.23
307.932	27.32
308.147	17.43
308.361	22.39
308.576	6.67
308.79	11.78
309.005	-11.11
309.219	3.76
309.434	3.17
309.648	14.49
309.863	15.26
310.077	3.95
310.292	5.55
310.506	-14.58
310.72	-7.17
310.935	3.73
311.149	26.02
311.364	24.94
311.578	37.89
311.792	46.26
312.007	54.74
312.221	37.6
312.435	26.14
312.649	27.8
312.864	-19.45
313.078	-17.31
313.292	-25.32
313.507	-27.32
313.721	-29.88
313.935	8.84
314.149	6.78
314.363	23.62
314.578	32.3
314.792	31.06
315.006	-1.97
315.22	8.28
315.434	15.3
315.648	4.26
315.862	6.04
316.077	23.42
316.291	16.66
316.505	-10.36
316.719	-2.18
316.933	-2.11
317.147	-3.44
317.361	-5.07
317.575	6.46
317.789	13.91
318.003	17.42
318.217	27.81
318.431	30.66
318.645	28.44
318.859	22.99
319.073	26.66
319.287	25.55
319.5	27.83
319.714	17.63
319.928	12.88
320.142	12.54
320.356	8.08
320.57	-6.61
320.784	10.11
320.997	-9.14
321.211	-5.82
321.425	-27.59
321.639	-0.06
321.853	-0.5
322.066	3.66
322.28	-4.71
322.494	6.85
322.707	-4.75
322.921	-2.82
323.135	7.27
323.349	5.21
323.562	7.03
323.776	9.4
323.989	21.43
324.203	12.09
324.417	20.92
324.63	21.67
324.844	7.29
325.057	-13.7
325.271	5.74
325.485	12.18
325.698	15.44
325.912	38.38
326.125	24.53
326.339	26.72
326.552	20.85
326.766	23.22
326.979	8.41
327.193	17.61
327.406	-0.82
327.619	8.51
327.833	2.75
328.046	10.56
328.26	12.89
328.473	17.5
328.686	14.36
328.9	17.58
329.113	19.71
329.326	27.41
329.54	22.39
329.753	20.3
329.966	23.6
330.179	24.74
330.393	15.51
330.606	23.29
330.819	29.5
331.032	25.94
331.246	32.82
331.459	59.31
331.672	55.66
331.885	39.63
332.098	58.06
332.311	30.81
332.525	16.84
332.738	21.6
332.951	23.95
333.164	19.21
333.377	25.45
333.59	12.25
333.803	32.82
334.016	39.38
334.229	34.52
334.442	35.06
334.655	41.66
334.868	19.19
335.081	14.74
335.294	1.99
335.507	13.52
335.72	24.07
335.933	27.85
336.146	30.77
336.359	43.17
336.572	38.74
336.785	12.8
336.997	19.22
337.21	20.23
337.423	3.54
337.636	-11.18
337.849	6.07
338.062	8.03
338.274	18.24
338.487	7.2
338.7	9.02
338.913	21.02
339.125	11.79
339.338	-4.42
339.551	-1.37
339.763	-6.68
339.976	7.38
340.189	7.05
340.402	25.92
340.614	43.64
340.827	45.87
341.039	22
341.252	22.17
341.465	19.88
341.677	24.36
341.89	23.59
342.102	31.82
342.315	43.19
342.527	40.92
342.74	13.27
342.952	31.71
343.165	23.29
343.377	29.64
343.59	27.92
343.802	43.17
344.015	37.2
344.227	41.07
344.44	31.2
344.652	27.52
344.864	22.65
345.077	30.89
345.289	34.34
345.502	44.44
345.714	45.81
345.926	54.67
346.139	29.65
346.351	23.66
346.563	22.7
346.775	31.62
346.988	32.09
347.2	40.27
347.412	40.17
347.624	27.29
347.837	22.98
348.049	14.91
348.261	2.13
348.473	-5.45
348.685	-11.2
348.897	-17.09
349.11	-21.07
349.322	-12.71
349.534	-17.56
349.746	-16.64
349.958	-20.08
350.17	-26.92
350.382	-15.7
350.594	8.77
350.806	37.93
351.018	32.42
351.23	38.7
351.442	51.48
351.654	41.54
351.866	27.02
352.078	39
352.29	43.32
352.502	23.58
352.714	35.04
352.926	23.56
353.138	15.18
353.35	5.25
353.561	22.44
353.773	15.94
353.985	26.89
354.197	21.78
354.409	34.31
354.621	10.51
354.832	4.96
355.044	-4.79
355.256	10.4
355.468	-21.46
355.679	16.69
355.891	26.22
356.103	24.6
356.314	19.72
356.526	31.58
356.738	13.45
356.949	6.97
357.161	16.24
357.373	17.37
357.584	16.74
357.796	20.83
358.008	27.74
358.219	33.65
358.431	27.03
358.642	36.24
358.854	35.69
359.065	18.79
359.277	8.98
359.488	5.91
359.7	-0.54
359.911	-11.47
360.123	1.88
360.334	-5.06
360.546	-0.44
360.757	-6.88
360.969	-3.17
361.18	-6.78
361.391	9.76
361.603	13.21
361.814	25.85
362.025	30.5
362.237	31.08
362.448	18.24
362.659	18.31
362.871	3.96
363.082	4.26
363.293	-0.96
363.504	-11.82
363.716	-11.78
363.927	11.97
364.138	-1.75
364.349	-4.85
364.56	-0.65
364.772	4.22
364.983	5.81
365.194	13.23
365.405	22.85
365.616	33.66
365.827	16.03
366.038	18.45
366.25	23.34
366.461	14.19
366.672	14.98
366.883	24.86
367.094	7.66
367.305	-4.09
367.516	4.79
367.727	-2.91
367.938	0.39
368.149	11.56
368.36	3.52
368.571	-14.87
368.781	-23.41
368.992	-26.21
369.203	-18.59
369.414	-2.4
369.625	10.59
369.836	33.93
370.047	39.53
370.258	42.04
370.468	30.48
370.679	21.96
370.89	3.08
371.101	1.77
371.312	-15.27
371.522	-8.4
371.733	0.09
371.944	-3.38
372.155	-5.59
372.365	-4.81
372.576	-12.45
372.787	-19.85
372.997	-16.86
373.208	-10.79
373.419	-11.19
373.629	-13.66
373.84	-16.42
374.05	-7.11
374.261	-20.7
374.472	-3.4
374.682	3.59
374.893	3.42
375.103	7.99
375.314	13.22
375.524	4.9
375.735	14.37
375.945	25.55
376.156	16.51
376.366	20.18
376.577	23.97
376.787	17.5
376.997	15.7
377.208	19.38
377.418	16.25
377.629	16.72
377.839	16.68
378.049	13.73
378.26	-2
378.47	-2.63
378.68	6.86
378.89	12.23
379.101	12.02
379.311	16.06
379.521	9.84
379.732	7.87
379.942	-5.5
380.152	-12.04
380.362	-9.1
380.572	3.54
380.783	2.5
380.993	9.88
381.203	12.75
381.413	15.31
381.623	4.12
381.833	2.77
382.043	4.26
382.253	14.06
382.463	19.08
382.674	31.28
382.884	36.1
383.094	39.21
383.304	33.83
383.514	32.99
383.724	25.15
383.934	14.07
384.144	9.59
384.353	9.45
384.563	8.89
384.773	14.11
384.983	11.81
385.193	2.52
385.403	2.63
385.613	-0.24
385.823	-6.51
386.033	-0.17
386.242	3.67
386.452	-3.64
386.662	-0.74
386.872	8.95
387.082	5.47
387.291	3.87
387.501	7.26
387.711	9.02
387.921	6.17
388.13	8.9
388.34	12.86
388.55	13.9
388.759	9.9
388.969	4.09
389.179	2.48
389.388	3.48
389.598	0.72
389.807	-2.91
390.017	-0.54
390.227	-1.25
390.436	-1.67
390.646	0.22
390.855	3.73
391.065	4.42
391.274	4.18
391.484	3.34
391.693	2.66
391.903	3.55
392.112	4.4
392.322	1.69
392.531	1.57
392.74	0.36
392.95	-0.39
393.159	0.27
393.369	1.64
393.578	2.61
393.787	2.81
393.997	3.45
394.206	1.66
394.415	2.29
394.625	0.99
394.834	1.27
395.043	0.84
395.252	2.56
395.462	3.49
395.671	4.33
395.88	4.73
396.089	5.44
396.298	4.67
396.508	4.53
396.717	3.86
396.926	3.03
397.135	2.58
397.344	2.18
397.553	1.5
397.762	2.18
397.971	2.82
398.181	3.13
398.39	3.11
398.599	3.31
398.808	3.22
399.017	4.34
399.226	4.06
399.435	4.46
399.644	5.02
399.853	5.19
400.062	4.32
400.27	3.83
400.479	3.51
400.688	3.08
400.897	2.81
401.106	2.87
401.315	3.11
401.524	3.39
401.733	3.23
401.941	3.54
402.15	3.53
402.359	3.61
402.568	3.43
402.777	3.56
402.985	2.94
403.194	2.99
403.403	3.22
403.612	3.15
403.82	2.98
404.029	3.14
404.238	3.08
404.446	3.03
404.655	3.24
404.864	3.55
405.072	3.59
405.281	3.61
405.489	3.39
405.698	3.25
405.906	3.05
406.115	3.03
406.324	2.98
406.532	3.07
406.741	3.12
406.949	3.2
407.158	3.36
407.366	3.37
407.574	3.55
407.783	3.51
407.991	3.39
408.2	3.45
408.408	3.4
408.617	3.09
408.825	3.01
409.033	3.1
409.242	2.94
409.45	2.85
409.658	2.93
409.867	2.97
410.075	2.92
410.283	2.85
410.491	2.77
410.7	2.77
410.908	2.83
411.116	2.91
411.324	2.82
411.533	2.87
411.741	2.94
411.949	2.91
412.157	2.75
412.365	2.93
412.573	3.02
412.781	2.88
412.99	2.82
413.198	2.88
413.406	2.94
413.614	2.98
413.822	3.16
414.03	3.21
414.238	3.18
414.446	3.21
414.654	3.09
414.862	2.99
415.07	2.89
415.278	2.88
415.486	2.59
415.694	2.61
415.902	2.49
416.109	2.51
416.317	2.58
416.525	2.59
416.733	2.5
416.941	2.62
417.149	2.57
417.357	2.6
417.564	2.7
417.772	2.77
417.98	2.71
418.188	2.81
418.395	2.44
418.603	2.34
418.811	2.25
419.019	2.33
419.226	2.36
419.434	2.71
419.642	2.69
419.849	2.77
420.057	2.57
420.265	2.46
420.472	2.29
420.68	2.26
420.887	2.28
421.095	2.48
421.302	2.42
421.51	2.39
421.717	2.45
421.925	2.48
422.132	2.39
422.34	2.32
422.547	2.3
422.755	2.31
422.962	2.35
423.17	2.29
423.377	2.35
423.585	2.49
423.792	2.59
423.999	2.42
424.207	2.31
424.414	2.32
424.621	2.27
424.829	2.22
425.036	2.25
425.243	2.4
425.451	2.51
425.658	2.53
425.865	2.62
426.072	2.61
426.28	2.61
426.487	2.49
426.694	2.45
426.901	2.32
427.108	2.2
427.315	2.12
427.523	2.05
427.73	2.1
427.937	1.88
428.144	1.95
428.351	2.05
428.558	2.2
428.765	2.07
428.972	2.34
429.179	2.21
429.386	2.2
429.593	2.05
429.8	2.06
430.007	2.01
430.214	2.22
430.421	2.26
430.628	2.36
430.835	2.33
431.042	2.28
431.249	2.19
431.456	2.15
431.662	2.22
431.869	2.39
432.076	2.33
432.283	2.47
432.49	2.41
432.697	2.35
432.903	2.22
433.11	2.36
433.317	2.4
433.524	2.44
433.73	2.42
433.937	2.53
434.144	2.28
434.35	2.04
434.557	2
434.764	2.05
434.97	1.91
435.177	2.17
435.384	2.31
435.59	2.27
435.797	2.28
436.003	2.51
436.21	2.42
436.416	2.43
436.623	2.49
436.829	2.47
437.036	2.21
437.242	2.22
437.449	2.06
437.655	2.12
437.862	2.09
438.068	2.17
438.275	2.24
438.481	2.39
438.687	2.28
438.894	2.42
439.1	2.39
439.307	2.51
439.513	2.54
439.719	2.68
439.926	2.58
440.132	2.69
440.338	2.53
440.544	2.5
440.751	2.41
440.957	2.54
441.163	2.39
441.369	2.41
441.575	2.34
441.782	2.4
441.988	2.25
442.194	2.31
442.4	2.28
442.606	2.45
442.812	2.35
443.018	2.37
443.224	2.45
443.431	2.49
443.637	2.41
443.843	2.51
444.049	2.64
444.255	2.6
444.461	2.54
444.667	2.52
444.873	2.49
445.079	2.37
445.284	2.37
445.49	2.42
445.696	2.41
445.902	2.41
446.108	2.44
446.314	2.39
446.52	2.52
446.726	2.57
446.931	2.47
447.137	2.46
447.343	2.53
447.549	2.46
447.755	2.39
447.96	2.42
448.166	2.41
448.372	2.37
448.578	2.27
448.783	2.39
448.989	2.42
449.195	2.52
449.4	2.62
449.606	2.65
449.812	2.52
450.017	2.59
450.223	2.46
450.428	2.37
450.634	2.41
450.84	2.46
451.045	2.43
451.251	2.47
451.456	2.51
451.662	2.49
451.867	2.49
452.073	2.46
452.278	2.43
452.483	2.38
452.689	2.41
452.894	2.48
453.1	2.5
453.305	2.45
453.51	2.53
453.716	2.48
453.921	2.48
454.127	2.45
454.332	2.56
454.537	2.5
454.742	2.5
454.948	2.45
455.153	2.46
455.358	2.41
455.563	2.46
455.769	2.41
455.974	2.47
456.179	2.45
456.384	2.42
456.589	2.39
456.795	2.5
457	2.36
457.205	2.32
457.41	2.34
457.615	2.31
457.82	2.31
458.025	2.33
458.23	2.37
458.435	2.38
458.64	2.4
458.845	2.31
459.05	2.35
459.255	2.35
459.46	2.36
459.665	2.35
459.87	2.34
460.075	2.38
460.28	2.42
460.485	2.46
460.69	2.44
460.895	2.51
461.099	2.36
461.304	2.22
461.509	2.14
461.714	2.15
461.919	2.1
462.123	2.18
462.328	2.24
462.533	2.2
462.738	2.2
462.942	2.22
463.147	2.21
463.352	2.31
463.556	2.41
463.761	2.38
463.966	2.37
464.17	2.45
464.375	2.47
464.58	2.4
464.784	2.41
464.989	2.42
465.193	2.41
465.398	2.39
465.602	2.53
465.807	2.56
466.011	2.5
466.216	2.41
466.42	2.39
466.625	2.36
466.829	2.3
467.034	2.44
467.238	2.57
467.443	2.62
467.647	2.61
467.851	2.72
468.056	2.66
468.26	2.61
468.464	2.6
468.669	2.67
468.873	2.67
469.077	2.69
469.282	2.69
469.486	2.68
469.69	2.65
469.894	2.59
470.099	2.59
470.303	2.62
470.507	2.69
470.711	2.62
470.915	2.68
471.119	2.79
471.324	2.83
471.528	2.78
471.732	2.85
471.936	2.91
472.14	2.78
472.344	2.81
472.548	2.81
472.752	2.84
472.956	2.85
473.16	2.9
473.364	2.9
473.568	2.93
473.772	2.83
473.976	2.85
474.18	2.88
474.384	2.79
474.588	2.83
474.792	2.92
474.995	2.91
475.199	2.89
475.403	2.93
475.607	2.87
475.811	2.83
476.015	2.73
476.218	2.68
476.422	2.63
476.626	2.63
476.83	2.74
477.033	2.84
477.237	2.92
477.441	2.97
477.644	2.99
477.848	2.91
478.052	2.89
478.255	2.95
478.459	2.92
478.663	2.96
478.866	3.03
479.07	2.97
479.273	2.96
479.477	3.02
479.681	3.01
479.884	2.99
480.088	3.07
480.291	3.04
480.495	3.03
480.698	3.05
480.901	3
481.105	2.99
481.308	2.99
481.512	3
481.715	3.01
481.919	3.12
482.122	3.06
482.325	3.1
482.529	3.09
482.732	3.05
482.935	3
483.138	3.02
483.342	3.06
483.545	3.19
483.748	3.24
483.952	3.21
484.155	3.29
484.358	3.27
484.561	3.17
484.764	3.14
484.967	3.14
485.171	3.18
485.374	3.1
485.577	3.15
485.78	3.15
485.983	3.13
486.186	3.04
486.389	3.05
486.592	2.99
486.795	3.04
486.998	3.03
487.201	3.05
487.404	3.18
487.607	3.24
487.81	3.18
488.013	3.18
488.216	3.19
488.419	3.12
488.622	3.07
488.825	3.11
489.028	3.17
489.231	3.18
489.433	3.16
489.636	3.19
489.839	3.23
490.042	3.22
490.245	3.2
490.447	3.13
490.65	3.13
490.853	3.07
491.056	3.04
491.258	3.09
491.461	3.15
491.664	3.12
491.866	3.07
492.069	3.14
492.272	3.09
492.474	3.1
492.677	3.16
492.879	3.16
493.082	3.15
493.285	3.22
493.487	3.21
493.69	3.18
493.892	3.21
494.095	3.14
494.297	3.18
494.5	3.23
494.702	3.25
494.905	3.32
495.107	3.38
495.309	3.33
495.512	3.28
495.714	3.3
495.917	3.3
496.119	3.28
496.321	3.3
496.524	3.27
496.726	3.24
496.928	3.2
497.13	3.24
497.333	3.2
497.535	3.23
497.737	3.21
497.939	3.23
498.142	3.24
498.344	3.29
498.546	3.31
498.748	3.41
498.95	3.45
499.152	3.43
499.355	3.38
499.557	3.43
499.759	3.42
499.961	3.42
500.163	3.44
500.365	3.52
500.567	3.49
500.769	3.49
500.971	3.52
501.173	3.46
501.375	3.51
501.577	3.53
501.779	3.54
501.981	3.56
502.183	3.62
502.385	3.61
502.587	3.61
502.788	3.63
502.99	3.62
503.192	3.64
503.394	3.56
503.596	3.58
503.798	3.6
503.999	3.59
504.201	3.57
504.403	3.67
504.605	3.72
504.806	3.7
505.008	3.73
505.21	3.78
505.411	3.74
505.613	3.75
505.815	3.73
506.016	3.75
506.218	3.78
506.42	3.79
506.621	3.78
506.823	3.82
507.024	3.83
507.226	3.86
507.427	3.89
507.629	3.91
507.83	3.95
508.032	3.96
508.233	3.93
508.435	3.95
508.636	3.96
508.838	4
509.039	4
509.24	4
509.442	4.03
509.643	4.01
509.845	3.99
510.046	4.1
510.247	4.14
510.448	4.11
510.65	4.18
510.851	4.2
511.052	4.15
511.254	4.19
511.455	4.21
511.656	4.17
511.857	4.17
512.058	4.15
512.26	4.09
512.461	4.16
512.662	4.19
512.863	4.12
513.064	4.15
513.265	4.11
513.466	4.13
513.667	4.16
513.868	4.22
514.069	4.21
514.27	4.32
514.471	4.25
514.672	4.28
514.873	4.29
515.074	4.36
515.275	4.29
515.476	4.37
515.677	4.37
515.878	4.4
516.079	4.39
516.28	4.44
516.481	4.45
516.682	4.39
516.882	4.45
517.083	4.41
517.284	4.45
517.485	4.45
517.686	4.51
517.886	4.46
518.087	4.45
518.288	4.43
518.488	4.41
518.689	4.37
518.89	4.42
519.091	4.53
519.291	4.53
519.492	4.56
519.692	4.61
519.893	4.58
520.094	4.55
520.294	4.59
520.495	4.56
520.695	4.6
520.896	4.61
521.096	4.6
521.297	4.62
521.497	4.64
521.698	4.6
521.898	4.59
522.099	4.57
522.299	4.55
522.499	4.58
522.7	4.67
522.9	4.7
523.101	4.72
523.301	4.7
523.501	4.69
523.702	4.64
523.902	4.63
524.102	4.72
524.302	4.8
524.503	4.85
524.703	4.89
524.903	4.92
525.103	4.88
525.304	4.86
525.504	4.9
525.704	4.88
525.904	4.83
526.104	4.84
526.304	4.86
526.504	4.86
526.705	4.85
526.905	4.87
527.105	4.88
527.305	4.89
527.505	4.85
527.705	4.87
527.905	4.95
528.105	4.97
528.305	4.97
528.505	5
528.705	5.07
528.905	5.06
529.105	5.07
529.304	5.07
529.504	5.1
529.704	5.04
529.904	5.03
530.104	5.04
530.304	5.09
530.503	5.11
530.703	5.14
530.903	5.13
531.103	5.17
531.303	5.16
531.502	5.19
531.702	5.24
531.902	5.34
532.101	5.37
532.301	5.39
532.501	5.45
532.7	5.45
532.9	5.44
533.1	5.44
533.299	5.42
533.499	5.36
533.698	5.36
533.898	5.37
534.097	5.42
534.297	5.51
534.496	5.56
534.696	5.58
534.895	5.6
535.095	5.6
535.294	5.61
535.494	5.62
535.693	5.68
535.892	5.71
536.092	5.74
536.291	5.7
536.491	5.75
536.69	5.74
536.889	5.72
537.088	5.69
537.288	5.72
537.487	5.69
537.686	5.71
537.886	5.72
538.085	5.75
538.284	5.83
538.483	5.84
538.682	5.87
538.882	5.92
539.081	5.95
539.28	5.89
539.479	5.91
539.678	5.9
539.877	5.95
540.076	5.96
540.275	6.04
540.474	6.08
540.673	6.12
540.872	6.11
541.071	6.14
541.27	6.16
541.469	6.17
541.668	6.2
541.867	6.28
542.066	6.3
542.265	6.33
542.464	6.35
542.663	6.41
542.862	6.45
543.06	6.52
543.259	6.61
543.458	6.68
543.657	6.75
543.856	6.82
544.054	6.84
544.253	6.85
544.452	6.91
544.651	6.89
544.849	6.84
545.048	6.92
545.247	6.94
545.445	6.94
545.644	7.01
545.843	7.07
546.041	7.07
546.24	7.11
546.438	7.18
546.637	7.14
546.836	7.17
547.034	7.2
547.233	7.24
547.431	7.25
547.63	7.34
547.828	7.35
548.027	7.42
548.225	7.46
548.423	7.55
548.622	7.63
548.82	7.7
549.019	7.76
549.217	7.84
549.415	7.82
549.614	7.92
549.812	7.98
550.01	7.99
550.209	8.04
550.407	8.16
550.605	8.12
550.803	8.2
551.002	8.36
551.2	8.36
551.398	8.47
551.596	8.54
551.794	8.59
551.993	8.59
552.191	8.68
552.389	8.66
552.587	8.79
552.785	8.87
552.983	8.92
553.181	8.95
553.379	8.99
553.577	8.94
553.775	8.98
553.973	9.04
554.171	9.12
554.369	9.21
554.567	9.33
554.765	9.38
554.963	9.46
555.161	9.51
555.359	9.59
555.557	9.71
555.755	9.81
555.952	9.95
556.15	10.08
556.348	10.15
556.546	10.26
556.744	10.28
556.941	10.24
557.139	10.33
557.337	10.44
557.535	10.44
557.732	10.55
557.93	10.74
558.128	10.79
558.325	10.88
558.523	11.02
558.721	11.14
558.918	11.18
559.116	11.35
559.313	11.43
559.511	11.54
559.708	11.61
559.906	11.75
560.104	11.73
560.301	11.85
560.498	11.91
560.696	12.01
560.893	12.01
561.091	12.12
561.288	12.15
561.486	12.18
561.683	12.24
561.88	12.43
562.078	12.55
562.275	12.62
562.473	12.71
562.67	12.82
562.867	12.87
563.064	12.94
563.262	13.04
563.459	13.23
563.656	13.36
563.853	13.39
564.051	13.53
564.248	13.61
564.445	13.65
564.642	13.71
564.839	13.89
565.036	14
565.234	14.11
565.431	14.16
565.628	14.19
565.825	14.24
566.022	14.29
566.219	14.29
566.416	14.39
566.613	14.55
566.81	14.61
567.007	14.67
567.204	14.81
567.401	14.94
567.598	14.97
567.795	15.02
567.991	15.05
568.188	15.07
568.385	15.09
568.582	15.23
568.779	15.31
568.976	15.43
569.172	15.6
569.369	15.64
569.566	15.62
569.763	15.6
569.96	15.59
570.156	15.63
570.353	15.73
570.55	15.8
570.746	15.93
570.943	15.99
571.14	15.95
571.336	15.93
571.533	16
571.729	16.01
571.926	16.06
572.123	16.13
572.319	16.14
572.516	16.14
572.712	16.14
572.909	16.13
573.105	16.24
573.302	16.31
573.498	16.34
573.695	16.46
573.891	16.57
574.087	16.41
574.284	16.39
574.48	16.44
574.677	16.35
574.873	16.35
575.069	16.49
575.266	16.51
575.462	16.49
575.658	16.61
575.854	16.6
576.051	16.59
576.247	16.59
576.443	16.59
576.639	16.48
576.835	16.46
577.032	16.47
577.228	16.52
577.424	16.51
577.62	16.48
577.816	16.45
578.012	16.39
578.208	16.4
578.404	16.39
578.6	16.54
578.796	16.54
578.993	16.58
579.189	16.56
579.384	16.57
579.58	16.49
579.776	16.48
579.972	16.43
580.168	16.38
580.364	16.37
580.56	16.32
580.756	16.32
580.952	16.29
581.148	16.32
581.343	16.31
581.539	16.35
581.735	16.39
581.931	16.39
582.127	16.33
582.322	16.23
582.518	16.16
582.714	16.12
582.909	16.07
583.105	16.04
583.301	16.04
583.496	16.03
583.692	15.9
583.888	15.9
584.083	15.9
584.279	15.79
584.474	15.8
584.67	15.86
584.866	15.85
585.061	15.83
585.257	15.96
585.452	15.95
585.648	15.88
585.843	15.88
586.039	15.83
586.234	15.76
586.429	15.72
586.625	15.8
586.82	15.83
587.015	15.82
587.211	15.84
587.406	15.87
587.601	15.86
587.797	15.89
587.992	15.85
588.187	15.8
588.383	15.77
588.578	15.75
588.773	15.68
588.968	15.78
589.163	15.91
589.359	15.87
589.554	15.85
589.749	15.74
589.944	15.77
590.139	15.68
590.334	15.76
590.529	15.78
590.724	15.99
590.919	15.93
591.114	16.01
591.309	15.97
591.504	15.98
591.699	15.94
591.894	15.98
592.089	16.03
592.284	16.1
592.479	16.16
592.674	16.19
592.869	16.23
593.064	16.26
593.259	16.25
593.454	16.26
593.648	16.25
593.843	16.27
594.038	16.32
594.233	16.4
594.428	16.52
594.622	16.69
594.817	16.78
595.012	16.81
595.206	16.85
595.401	16.95
595.596	16.89
595.79	16.92
595.985	16.88
596.18	17.02
596.374	17
596.569	17.15
596.763	17.27
596.958	17.45
597.153	17.48
597.347	17.53
597.542	17.52
597.736	17.54
597.931	17.53
598.125	17.55
598.319	17.62
598.514	17.72
598.708	17.84
598.903	17.88
599.097	17.94
599.291	17.95
599.486	18.05
599.68	18.1
599.874	18.2
600.069	18.24
600.263	18.35
600.457	18.34
600.651	18.35
600.846	18.33
601.04	18.35
601.234	18.36
601.428	18.34
601.622	18.36
601.817	18.36
602.011	18.38
602.205	18.46
602.399	18.5
602.593	18.64
602.787	18.67
602.981	18.68
603.175	18.66
603.369	18.62
603.563	18.5
603.757	18.58
603.951	18.54
604.145	18.48
604.339	18.55
604.533	18.58
604.727	18.54
604.921	18.62
605.115	18.64
605.309	18.54
605.502	18.44
605.696	18.36
605.89	18.32
606.084	18.28
606.278	18.24
606.471	18.25
606.665	18.21
606.859	18.12
607.053	18
607.246	17.99
607.44	17.86
607.634	17.78
607.827	17.71
608.021	17.63
608.214	17.55
608.408	17.43
608.602	17.39
608.795	17.38
608.989	17.3
609.182	17.24
609.376	17.33
609.569	17.25
609.763	17.11
609.956	17.17
610.15	17.09
610.343	16.96
610.537	16.89
610.73	16.72
610.923	16.6
611.117	16.53
611.31	16.41
611.504	16.37
611.697	16.39
611.89	16.34
612.083	16.22
612.277	16.23
612.47	16.16
612.663	16.06
612.856	15.91
613.05	15.82
613.243	15.66
613.436	15.62
613.629	15.61
613.822	15.56
614.015	15.51
614.209	15.45
614.402	15.3
614.595	15.26
614.788	15.24
614.981	15.12
615.174	15.04
615.367	14.98
615.56	14.83
615.753	14.78
615.946	14.79
616.139	14.79
616.332	14.8
616.525	14.82
616.718	14.74
616.911	14.68
617.103	14.63
617.296	14.5
617.489	14.38
617.682	14.35
617.875	14.31
618.067	14.22
618.26	14.13
618.453	14.1
618.646	14
618.838	13.93
619.031	13.87
619.224	13.92
619.417	13.91
619.609	13.87
619.802	13.82
619.994	13.82
620.187	13.68
620.38	13.64
620.572	13.64
620.765	13.59
620.957	13.46
621.15	13.47
621.342	13.49
621.535	13.44
621.727	13.5
621.92	13.58
622.112	13.61
622.305	13.5
622.497	13.44
622.69	13.33
622.882	13.3
623.074	13.32
623.267	13.31
623.459	13.27
623.651	13.23
623.844	13.22
624.036	13.16
624.228	13.17
624.42	13.16
624.613	13.19
624.805	13.12
624.997	13.08
625.189	12.96
625.381	12.92
625.574	12.85
625.766	12.74
625.958	12.73
626.15	12.79
626.342	12.76
626.534	12.81
626.726	12.91
626.918	12.82
627.11	12.79
627.302	12.76
627.494	12.73
627.686	12.63
627.878	12.65
628.07	12.64
628.262	12.67
628.454	12.58
628.646	12.56
628.838	12.6
629.029	12.5
629.221	12.46
629.413	12.46
629.605	12.44
629.797	12.36
629.989	12.37
630.18	12.37
630.372	12.36
630.564	12.31
630.755	12.25
630.947	12.23
631.139	12.15
631.33	12.09
631.522	12.11
631.714	12.07
631.905	12.05
632.097	12
632.289	11.92
632.48	11.91
632.672	11.9
632.863	11.78
633.055	11.83
633.246	11.96
633.438	11.95
633.629	11.97
633.821	11.97
634.012	11.92
634.203	11.81
634.395	11.77
634.586	11.72
634.777	11.75
634.969	11.82
635.16	11.83
635.351	11.8
635.543	11.82
635.734	11.8
635.925	11.76
636.117	11.73
636.308	11.74
636.499	11.69
636.69	11.75
636.881	11.7
637.073	11.74
637.264	11.71
637.455	11.73
637.646	11.67
637.837	11.72
638.028	11.65
638.219	11.68
638.41	11.74
638.601	11.7
638.792	11.66
638.983	11.7
639.174	11.67
639.365	11.63
639.556	11.55
639.747	11.53
639.938	11.44
640.129	11.38
640.32	11.35
640.511	11.41
640.701	11.47
640.892	11.53
641.083	11.51
641.274	11.39
641.465	11.34
641.655	11.24
641.846	11.21
642.037	11.18
642.228	11.17
642.418	11.09
642.609	11.06
642.8	11.01
642.99	11.01
643.181	11.11
643.372	11.09
643.562	11.05
643.753	11.01
643.943	10.95
644.134	10.81
644.324	10.89
644.515	10.94
644.705	10.95
644.896	11.03
645.086	11.11
645.277	11.06
645.467	11
645.658	10.96
645.848	10.84
646.038	10.69
646.229	10.72
646.419	10.66
646.61	10.71
646.8	10.7
646.99	10.81
647.18	10.73
647.371	10.77
647.561	10.69
647.751	10.72
647.941	10.64
648.132	10.65
648.322	10.54
648.512	10.53
648.702	10.56
648.892	10.63
649.082	10.64
649.272	10.63
649.462	10.63
649.653	10.55
649.843	10.44
650.033	10.41
650.223	10.51
650.413	10.51
650.603	10.53
650.793	10.62
650.983	10.57
651.172	10.45
651.362	10.31
651.552	10.25
651.742	10.13
651.932	10.07
652.122	10.15
652.312	10.23
652.502	10.16
652.691	10.15
652.881	10.14
653.071	10.02
653.261	9.94
653.45	9.82
653.64	9.72
653.83	9.64
654.019	9.46
654.209	9.38
654.399	9.32
654.588	9.18
654.778	9.04
654.968	9.03
655.157	8.94
655.347	8.82
655.536	8.72
655.726	8.59
655.915	8.46
656.105	8.38
656.294	8.3
656.484	8.21
656.673	8.21
656.863	8.18
657.052	7.95
657.241	7.87
657.431	7.79
657.62	7.66
657.809	7.45
657.999	7.44
658.188	7.41
658.377	7.32
658.567	7.24
658.756	7.2
658.945	7.13
659.134	6.98
659.324	6.83
659.513	6.64
659.702	6.5
659.891	6.37
660.08	6.23
660.269	6.11
660.458	6.05
660.648	5.99
660.837	5.91
661.026	5.81
661.215	5.71
661.404	5.67
661.593	5.68
661.782	5.56
661.971	5.39
662.16	5.41
662.349	5.2
662.538	5.05
662.726	4.98
662.915	5.07
663.104	4.95
663.293	5.06
663.482	5.02
663.671	4.98
663.86	4.87
664.048	4.86
664.237	4.78
664.426	4.68
664.615	4.66
664.803	4.61
664.992	4.52
665.181	4.41
665.369	4.32
665.558	4.28
665.747	4.29
665.935	4.28
666.124	4.34
666.312	4.4
666.501	4.35
666.69	4.41
666.878	4.42
667.067	4.4
667.255	4.35
667.444	4.39
667.632	4.44
667.82	4.41
668.009	4.4
668.197	4.49
668.386	4.48
668.574	4.41
668.762	4.49
668.951	4.52
669.139	4.37
669.327	4.35
669.516	4.42
669.704	4.42
669.892	4.47
670.08	4.6
670.269	4.67
670.457	4.65
670.645	4.54
670.833	4.52
671.021	4.64
671.21	4.69
671.398	4.76
671.586	4.85
671.774	5.01
671.962	4.98
672.15	5.02
672.338	5.1
672.526	5.24
672.714	5.17
672.902	5.27
673.09	5.39
673.278	5.48
673.466	5.54
673.654	5.62
673.842	5.73
674.03	5.75
674.218	5.74
674.405	5.72
674.593	5.82
674.781	5.87
674.969	6
675.157	6.1
675.344	6.19
675.532	6.26
675.72	6.26
675.908	6.22
676.095	6.26
676.283	6.36
676.471	6.38
676.658	6.53
676.846	6.6
677.033	6.63
677.221	6.66
677.409	6.7
677.596	6.67
677.784	6.75
677.971	6.77
678.159	6.89
678.346	6.97
678.534	7.06
678.721	7.14
678.909	7.34
679.096	7.45
679.283	7.54
679.471	7.68
679.658	7.82
679.846	7.77
680.033	7.92
680.22	8.13
680.408	8.09
680.595	7.98
680.782	8.1
680.969	8.23
681.157	8.28
681.344	8.42
681.531	8.66
681.718	8.75
681.905	8.74
682.093	8.77
682.28	8.84
682.467	8.87
682.654	9.03
682.841	9.13
683.028	9.24
683.215	9.42
683.402	9.45
683.589	9.55
683.776	9.59
683.963	9.7
684.15	9.94
684.337	10.34
684.524	10.6
684.711	10.89
684.898	10.91
685.085	10.82
685.271	10.97
685.458	10.95
685.645	11.06
685.832	11.45
686.019	11.8
686.205	11.95
686.392	12.3
686.579	12.53
686.766	12.89
686.952	13.06
687.139	13.33
687.326	13.5
687.512	13.59
687.699	13.7
687.886	14.04
688.072	14.27
688.259	14.67
688.445	15.29
688.632	15.56
688.818	16.02
689.005	16.31
689.191	16.68
689.378	17.01
689.564	17.58
689.751	17.91
689.937	18.51
690.124	18.95
690.31	19.2
690.496	19.75
690.683	20.23
690.869	20.5
691.055	20.99
691.242	21.56
691.428	21.98
691.614	22.8
691.8	23.57
691.987	24.21
692.173	25.1
692.359	25.9
692.545	26.33
692.731	27.05
692.918	27.6
693.104	28.12
693.29	28.46
693.476	29.17
693.662	29.68
693.848	30.52
694.034	31.28
694.22	32.16
694.406	32.87
694.592	33.75
694.778	34.38
694.964	35.04
695.15	35.76
695.336	36.39
695.522	37.18
695.708	38.01
695.894	38.74
696.08	39.47
696.265	40.34
696.451	41.1
696.637	41.92
696.823	42.5
697.009	43.39
697.194	44.17
697.38	44.76
697.566	45.15
697.751	46.05
697.937	46.64
698.123	47.18
698.308	47.85
698.494	48.81
698.68	49.6
698.865	50.29
699.051	51.1
699.236	51.81
699.422	52.58
699.607	53.38
699.793	54.25
699.978	54.79
700.164	55.36
700.349	56.01
700.535	56.37
700.72	56.46
700.906	57.21
701.091	57.76
701.276	58.3
701.462	59.21
701.647	60.38
701.832	61.25
702.018	62.12
702.203	62.77
702.388	62.98
702.573	63.23
702.759	63.68
702.944	63.85
703.129	64
703.314	64.64
703.499	65.2
703.684	65.52
703.87	66.26
704.055	66.94
704.24	67.35
704.425	67.76
704.61	68.19
704.795	68.65
704.98	69.1
705.165	69.58
705.35	70.11
705.535	70.42
705.72	70.63
705.905	71.01
706.09	71.6
706.275	71.83
706.459	72.37
706.644	72.73
706.829	73.41
707.014	73.48
707.199	73.87
707.384	74.15
707.568	74.33
707.753	74.43
707.938	74.9
708.123	75.54
708.307	75.93
708.492	76.92
708.677	77.37
708.861	77.61
709.046	77.53
709.231	77.75
709.415	77.76
709.6	78
709.784	78.29
709.969	78.89
710.153	78.79
710.338	79.29
710.522	79.5
710.707	79.93
710.891	79.78
711.076	80.33
711.26	80.54
711.445	81.01
711.629	81.06
711.813	81.53
711.998	82.09
712.182	81.86
712.366	82.04
712.551	82.4
712.735	82.63
712.919	82.89
713.103	83.44
713.288	83.45
713.472	83.69
713.656	84.03
713.84	83.9
714.024	83.93
714.208	84.12
714.393	84.49
714.577	84.45
714.761	84.75
714.945	84.98
715.129	85.26
715.313	85.1
715.497	84.99
715.681	85.29
715.865	85.48
716.049	85.42
716.233	85.59
716.417	86.03
716.601	86.26
716.785	86.6
716.968	86.87
717.152	87.11
717.336	87.71
717.52	87.88
717.704	88.23
717.888	88.78
718.071	88.78
718.255	88.55
718.439	88.31
718.622	88.01
718.806	87.82
718.99	87.9
719.174	87.74
719.357	88.33
719.541	88.8
719.724	88.69
719.908	88.78
720.092	88.82
720.275	88.81
720.459	88.55
720.642	88.68
720.826	89.2
721.009	89.39
721.193	88.93
721.376	89.15
721.559	89.61
721.743	90.01
721.926	90.23
722.11	90.79
722.293	91.81
722.476	91.56
722.66	91.81
722.843	92.25
723.026	92.67
723.21	91.63
723.393	92.34
723.576	91.65
723.759	91.86
723.942	91.57
724.126	91.77
724.309	91.68
724.492	91.94
724.675	91.84
724.858	92.07
725.041	92.55
725.224	92.73
725.407	93.16
725.59	92.81
725.774	92.6
725.957	92.57
726.14	92.65
726.322	93.02
726.505	93.64
726.688	94.25
726.871	94.53
727.054	94.64
727.237	94.53
727.42	94.26
727.603	94.37
727.786	94.04
727.968	93.84
728.151	93.85
728.334	94.27
728.517	94.19
728.699	94.75
728.882	94.92
729.065	94.6
729.248	94.93
729.43	95.42
729.613	95.37
729.796	96.24
729.978	96.31
730.161	96.04
730.343	95.73
730.526	95.86
730.708	94.94
730.891	95.43
731.073	95.9
731.256	96.23
731.438	96.67
731.621	97.16
731.803	97.01
731.986	97.17
732.168	97.36
732.35	97.64
732.533	97.56
732.715	97.93
732.898	97.87
733.08	97.79
733.262	97.73
733.444	98.38
733.627	98.84
733.809	99.46
733.991	100.12
734.173	100.14
734.355	99.75
734.538	99.94
734.72	99.91
734.902	99.49
735.084	99.52
735.266	100.7
735.448	100.5
735.63	100.29
735.812	101.32
735.994	101.04
736.176	100.78
736.358	101.09
736.54	101.75
736.722	100.5
736.904	100.53
737.086	99.85
737.268	100.35
737.45	100.76
737.632	101.28
737.814	102.09
737.995	102.35
738.177	101.41
738.359	100.84
738.541	100.97
738.723	100.83
738.904	101.03
739.086	102.41
739.268	101.83
739.449	101.91
739.631	101.64
739.813	100.83
739.994	99.35
740.176	100.07
740.358	100.17
740.539	99.96
740.721	100.98
740.902	101.96
741.084	102.14
741.265	102.57
741.447	103.31
741.628	104
741.81	104
741.991	104.46
742.172	104.17
742.354	103.54
742.535	102.9
742.717	102.04
742.898	101.21
743.079	102.09
743.261	103.05
743.442	102.75
743.623	103.14
743.804	103.47
743.986	102.36
744.167	101.63
744.348	101.14
744.529	100.87
744.71	100.51
744.891	100.29
745.073	100.14
745.254	100.61
745.435	101.72
745.616	102.12
745.797	102.03
745.978	103.29
746.159	103.54
746.34	103.49
746.521	103.62
746.702	104.28
746.883	103.9
747.064	104.05
747.245	103.43
747.426	102.94
747.606	102.99
747.787	103.39
747.968	102.54
748.149	101.78
748.33	101.64
748.51	100.27
748.691	99.36
748.872	100.84
749.053	100.03
749.233	100.4
749.414	101.88
749.595	102.09
749.775	101.83
749.956	103.25
750.137	102.99
750.317	102.29
750.498	101.91
750.678	101.24
750.859	101.91
751.04	102.37
751.22	101.09
751.4	101.19
751.581	101.89
751.761	101.45
751.942	101.37
752.122	101.87
752.303	101.69
752.483	100.52
752.663	100.84
752.844	99.49
753.024	101.29
753.204	102.1
753.385	102.81
753.565	102.34
753.745	103.9
753.925	102.35
754.106	102.26
754.286	101.4
754.466	101.9
754.646	101.77
754.826	103.55
755.006	102.42
755.187	104.06
755.367	103.01
755.547	102.54
755.727	101.48
755.907	101.12
756.087	99.88
756.267	98.84
756.447	99.49
756.627	100.24
756.807	102.61
756.987	102.76
757.167	103.13
757.346	103.64
757.526	102.85
757.706	101.87
757.886	101.57
758.066	102.96
758.246	100.5
758.425	99.55
758.605	98.28
758.785	97.73
758.965	98.86
759.144	98.93
759.324	101.1
759.504	103.16
759.683	103.69
759.863	102.09
760.043	103.12
760.222	101.85
760.402	99.09
760.581	98.11
760.761	97.74
760.94	97.24
761.12	96.21
761.299	97.63
761.479	98.39
761.658	98.47
761.838	98.92
762.017	99.89
762.197	98.23
762.376	97.74
762.555	97.89
762.735	97.83
762.914	96.55
763.093	97.15
763.273	97.63
763.452	97.03
763.631	95.77
763.81	96.52
763.99	96.87
764.169	97.17
764.348	97.35
764.527	98.22
764.706	97.34
764.885	98.42
765.064	99.84
765.243	99.16
765.423	100.43
765.602	101.17
765.781	97.49
765.96	94.8
766.139	95.36
766.318	95.53
766.497	94.21
766.676	95.72
766.854	98.56
767.033	98.66
767.212	99.52
767.391	101.98
767.57	106.05
767.749	103.62
767.928	104.63
768.106	102.06
768.285	100.27
768.464	97.72
768.643	96.57
768.821	95.36
769	95.39
769.179	95.49
769.357	94.41
769.536	94.56
769.715	93.6
769.893	94.39
770.072	93.98
770.25	92.96
770.429	94.64
770.607	96.41
770.786	94.84
770.964	96.23
771.143	97.92
771.321	95.3
771.5	94.66
771.678	94.47
771.857	92.6
772.035	92.26
772.213	92.59
772.392	90.25
772.57	89.92
772.748	90.1
772.927	89.72
773.105	91.98
773.283	93.05
773.461	93.93
773.64	94.64
773.818	95.59
773.996	95.18
774.174	95.76
774.352	96.27
774.531	95.96
774.709	96.58
774.887	94.62
775.065	95.05
775.243	96.33
775.421	96.81
775.599	97.57
775.777	97.64
775.955	96.02
776.133	93.07
776.311	91.89
776.489	90.11
776.667	89.91
776.844	89.34
777.022	89.85
777.2	91.98
777.378	89.3
777.556	91.62
777.734	94.6
777.911	96.88
778.089	97.14
778.267	99.37
778.445	100.57
778.622	99.38
778.8	92.96
778.978	92.52
779.155	94.07
779.333	93.27
779.511	91.79
779.688	97.22
779.866	95.93
780.043	95.46
780.221	95.55
780.398	97.49
780.576	96.3
780.753	95.17
780.931	95.16
781.108	96.5
781.286	97.1
781.463	95.73
781.64	95.46
781.818	96.47
781.995	93.81
782.172	92.13
782.35	93.7
782.527	95.74
782.704	94.78
782.882	91.48
783.059	93.05
783.236	93.92
783.413	91.41
783.59	89.58
783.768	93.32
783.945	92.3
784.122	90.22
784.299	91.1
784.476	89.93
784.653	87.39
784.83	86.03
785.007	86.54
785.184	85.54
785.361	86.78
785.538	85.77
785.715	86.37
785.892	85.99
786.069	88.2
786.246	88.94
786.423	90.62
786.6	92.15
786.776	95.14
786.953	92.17
787.13	94.36
787.307	94.6
787.484	90.49
787.66	87.42
787.837	87.66
788.014	86.35
788.191	84.17
788.367	83.75
788.544	83.13
788.721	84.77
788.897	84.91
789.074	87.32
789.25	89.61
789.427	91.57
789.603	89.41
789.78	90.72
789.956	88.75
790.133	85.83
790.309	82.65
790.486	86.05
790.662	82.94
790.839	84.9
791.015	87.3
791.192	88.22
791.368	86.32
791.544	88.2
791.721	84.42
791.897	84.46
792.073	84.72
792.249	86.42
792.426	83.58
792.602	87.75
792.778	86.56
792.954	88.16
793.13	84.2
793.307	83.11
793.483	80.14
793.659	84.99
793.835	83.17
794.011	90.58
794.187	95.65
794.363	93.94
794.539	92.9
794.715	93.4
794.891	86.18
795.067	82.43
795.243	88.19
795.419	85.73
795.595	94.6
795.771	91.57
795.947	91.05
796.122	84.24
796.298	84.4
796.474	81.65
796.65	84.44
796.826	82.43
797.001	86.19
797.177	80.17
797.353	76.66
797.529	76.88
797.704	78.3
797.88	76.6
798.056	83.12
798.231	79.3
798.407	81.41
798.582	81.81
798.758	85.01
798.934	86.5
799.109	89.34
799.285	88.2
799.46	84.82
799.636	82.01
799.811	84.01
799.986	80.2
800.162	78.22
800.337	82.16
800.513	86.79
800.688	74.86
800.863	83.97
801.039	86.47
801.214	82.3
801.389	79.38
801.565	82.67
801.74	77.72
801.915	79.14
802.09	75.21
802.265	74.32
802.441	76.4
802.616	77
802.791	77.1
802.966	82.99
803.141	83.33
803.316	84.05
803.491	82.65
803.666	72.37
803.841	71.65
804.016	70.33
804.191	69.31
804.366	71.1
804.541	85.58
804.716	83.71
804.891	85.53
805.066	89.53
805.241	83.65
805.416	86.42
805.591	90.42
805.765	99.2
805.94	92.24
806.115	91.88
806.29	84.96
806.464	84.82
806.639	75.22
806.814	80.21
806.989	90.83
807.163	93.96
807.338	90.84
807.512	95.63
807.687	91.26
807.862	80.46
808.036	83.16
808.211	91.6
808.385	88.46
808.56	85.4
808.734	80.37
808.909	79.93
809.083	75.41
809.258	75.28
809.432	88.35
809.606	102.66
809.781	92.95
809.955	97.81
810.13	98.06
810.304	90.05
810.478	82.84
810.652	77.96
810.827	75.29
811.001	78.49
811.175	77.09
811.349	83.06
811.524	88.17
811.698	88.27
811.872	86.74
812.046	83.69
812.22	83.86
812.394	88.24
812.568	81.89
812.742	75.97
812.916	77.66
813.09	73.52
813.264	67.66
813.438	68.24
813.612	63.95
813.786	64.42
813.96	69.6
814.134	72.23
814.308	75.09
814.482	83.51
814.656	85.72
814.83	80.7
815.003	85.06
815.177	84
815.351	92.6
815.525	96.1
815.698	94.53
815.872	84.47
816.046	89.3
816.219	84.19
816.393	75.43
816.567	76.92
816.74	80.82
816.914	74.7
817.088	72.76
817.261	74.94
817.435	75.27
817.608	74.67
817.782	76
817.955	79.12
818.129	87.24
818.302	99.66
818.475	106.35
818.649	99.96
818.822	92.35
818.996	91.37
819.169	82.88
819.342	86.55
819.516	90.3
819.689	89.38
819.862	94.51
820.035	93.81
820.209	82.67
820.382	73.21
820.555	64.63
820.728	59.14
820.901	53.41
821.075	51.69
821.248	65.47
821.421	75.14
821.594	69.48
821.767	78.79
821.94	78.26
822.113	80.41
822.286	89.15
822.459	93.17
822.632	91.77
822.805	93
822.978	93.44
823.151	87.18
823.324	77.07
823.496	72.32
823.669	83.11
823.842	79.56
824.015	79.39
824.188	75.32
824.361	69.38
824.533	58.5
824.706	60.06
824.879	58.51
825.051	68.27
825.224	79.79
825.397	77.24
825.569	70.03
825.742	73.32
825.915	74.01
826.087	63.52
826.26	62.26
826.432	57.64
826.605	65.95
826.777	64.34
826.95	59.28
827.122	59.77
827.295	83.41
827.467	83.26
827.64	80.56
827.812	97.62
827.984	122.04
828.157	83.45
828.329	74.84
828.501	63.07
828.674	53.42
828.846	38.94
829.018	40.44
829.19	36.75
829.363	38.99
829.535	46.45
829.707	60.1
829.879	61.77
830.051	58.55
830.223	79.08
830.395	70.9
830.568	59.08
830.74	66.2
830.912	74.22
831.084	76.87
831.256	68.25
831.428	58.22
831.6	52.54
831.772	36.46
831.943	13.9
832.115	18.73
832.287	32.04
832.459	42.95
832.631	48.25
832.803	57.1
832.975	62.13
833.146	56.84
833.318	58.2
833.49	67.04
833.662	78.31
833.833	76.7
834.005	81.61
834.177	86.21
834.348	77.47
834.52	70.95
834.692	66.78
834.863	62.86
835.035	55.28
835.206	63.24
835.378	64.28
835.549	62.89
835.721	66.47
835.892	65.24
836.064	57.68
836.235	59.18
836.407	54.09
836.578	55.74
836.749	45.75
836.921	44.3
837.092	35.95
837.264	40.88
837.435	30.64
837.606	51.7
837.777	62.28
837.949	64.1
838.12	70.04
838.291	75.04
838.462	70.42
838.633	65.36
838.805	61.03
838.976	63.62
839.147	66.87
839.318	70.9
839.489	57.6
839.66	66.88
839.831	74.91
840.002	73.28
840.173	72.88
840.344	85.55
840.515	73.86
840.686	54.54
840.857	49.16
841.028	54.58
841.199	68.56
841.369	77.02
841.54	101.54
841.711	119.58
841.882	104.78
842.053	64.5
842.223	58.68
842.394	67.99
842.565	68.84
842.736	63.12
842.906	59.93
843.077	72.74
843.248	73.69
843.418	61.81
843.589	60.37
843.759	68.72
843.93	64.41
844.101	42.22
844.271	61.68
844.442	58.14
844.612	61.77
844.783	54.44
844.953	56.75
845.123	42.74
845.294	50.61
845.464	18.31
845.635	21.85
845.805	52.67
845.975	72.22
846.146	35.5
846.316	59.94
846.486	76.75
846.656	61.29
846.827	58.2
846.997	86.16
847.167	85.92
847.337	67.58
847.507	71.31
847.677	79.4
847.848	75.69
848.018	83.57
848.188	101.89
848.358	80.46
848.528	91.16
848.698	79.92
848.868	66.84
849.038	49.84
849.208	66.72
849.378	48.84
849.548	26.77
849.718	25.37
849.887	51.87
850.057	36.23
850.227	61.8
850.397	95.77
850.567	71.05
850.737	69.21
850.906	90.41
851.076	48.99
851.246	46.92
851.415	63.52
851.585	74.94
851.755	63.53
851.924	83.54
852.094	97.55
852.264	89.25
852.433	67.65
852.603	70.31
852.772	72.35
852.942	68.13
853.111	47.25
853.281	46.08
853.45	39.34
853.62	40.34
853.789	26.43
853.959	68.8
854.128	73.29
854.297	77.44
854.467	61.03
854.636	66.6
854.805	35.6
854.975	26.02
855.144	10.59
855.313	28.64
855.482	34.84
855.652	40.2
855.821	42.45
855.99	65.74
856.159	70.45
856.328	69.2
856.497	74.45
856.667	84.63
856.836	64.38
857.005	40.06
857.174	35.49
857.343	23.41
857.512	18.96
857.681	29.06
857.85	28.79
858.019	7.3
858.188	4.68
858.356	26.38
858.525	31.92
858.694	45.36
858.863	44.3
859.032	52.9
859.201	31.64
859.369	35.16
859.538	51.48
859.707	59.35
859.876	60.91
860.044	81.02
860.213	88.81
860.382	88.61
860.55	85.22
860.719	87.04
860.888	80.51
861.056	54.11
861.225	14.46
861.393	9.04
861.562	-15.68
861.73	-5.05
861.899	1.63
862.067	2.78
862.236	18.46
862.404	34.31
862.572	48.95
862.741	29.94
862.909	42.93
863.078	58.56
863.246	48.62
863.414	55.49
863.582	52.84
863.751	25.4
863.919	14.38
864.087	27.49
864.255	-8.72
864.424	19.79
864.592	63.26
864.76	35.38
864.928	51.29
865.096	81.03
865.264	53.67
865.432	71.04
865.6	132.09
865.768	113.29
865.936	100.24
866.104	138.82
866.272	112.29
866.44	66.95
866.608	41.51
866.776	18.98
866.944	19.47
867.112	51.69
867.28	40.01
867.448	69.87
867.615	74.62
867.783	63.22
867.951	64.71
868.119	128.41
868.286	105.26
868.454	75.11
868.622	75.8
868.789	55.22
868.957	57.19
869.125	83.21
869.292	82.36
869.46	81.63
869.627	111.3
869.795	60.87
869.963	17.76
870.13	44.26
870.298	72.27
870.465	96.63
870.632	109.88
870.8	106.4
870.967	87.03
871.135	90.5
871.302	34.13
871.469	54.1
871.637	59.56
871.804	57.21
871.971	25.48
872.139	24.88
872.306	11.33
872.473	31.78
872.64	8.33
872.807	7.1
872.975	12.92
873.142	32.65
873.309	14.06
873.476	49.38
873.643	67.93
873.81	77.16
873.977	64.53
874.144	64.85
874.311	56.83
874.478	-13.29
874.645	-65.1
874.812	29.34
874.979	59.31
875.146	38.43
875.313	90.36
875.48	89.92
875.647	37.56
875.813	-22.21
875.98	-13.83
876.147	-32.11
876.314	-17.76
876.481	47.47
876.647	86.33
876.814	57.51
876.981	53.99
877.147	78.07
877.314	66.65
877.481	52.35
877.647	92.97
877.814	107.1
877.98	87.04
878.147	95.72
878.314	120.91
878.48	132.92
878.647	122.16
878.813	159.22
878.979	153.07
879.146	146.36
879.312	143.69
879.479	91.1
879.645	57.68
879.811	50.22
879.978	52.2
880.144	33.41
880.31	47.72
880.477	63.79
880.643	51.98
880.809	80.89
880.975	102.22
881.142	116.31
881.308	-9.15
881.474	-55.67
881.64	35.43
881.806	-20.47
881.972	-10.13
882.138	9.12
882.304	23.66
882.47	23.95
882.636	23.57
882.802	25.73
882.968	17.37
883.134	8.42
883.3	-13.6
883.466	20.26
883.632	37.11
883.798	-0.3
883.964	65.91
884.129	548.47
884.295	108.33
884.461	35.83
884.627	28.72
884.793	-2.6
884.958	17.44
885.124	1.62
885.29	-11.01
885.455	40.3
885.621	73.3
885.787	60.57
885.952	43.98
886.118	60.98
886.283	57.62
886.449	60.07
886.614	61.75
886.78	64.32
886.945	100.28
887.111	69.35
887.276	59.14
887.442	2.32
887.607	0.94
887.773	-0.12
887.938	-12.18
888.103	4.72
888.269	39.04
888.434	43.43
888.599	19.65
888.764	53.42
888.93	62.81
889.095	60.97
889.26	53.94
889.425	74.71
889.59	82.55
889.756	59.29
889.921	47.64
890.086	132.07
890.251	137.2
890.416	36.24
890.581	21.22
890.746	66.33
890.911	46.62
891.076	65.22
891.241	88.05
891.406	97.51
891.571	179.07
891.736	286.33
891.901	132.82
892.065	94.69
892.23	85.6
892.395	-3.77
892.56	-28.36
892.725	-30.09
892.889	71.89
893.054	88.47
893.219	95.21
893.384	115.17
893.548	26.57
893.713	-35.31
893.878	-118.96
