Data from Ofra_PS_T2_1A_8HS21_Reflection_1.txt Node
Date: Wed Jul 21 18:14:48 EDT 2021
User: Adam
Spectrometer: FLMT01687
Trigger mode: 0
Integration Time (sec): 1.100000E0
Scans to average: 2
Electric dark correction enabled: true
Nonlinearity correction enabled: false
Boxcar width: 2
XAxis mode: Wavelengths
Number of Pixels in Spectrum: 3648
>>>>>Begin Spectral Data<<<<<
179.494	635.2
179.716	686.59
179.937	615.93
180.158	555.25
180.38	818.12
180.601	197.79
180.823	68.54
181.044	-3.79
181.265	342.65
181.486	108.85
181.708	177.6
181.929	993.88
182.15	-330.99
182.372	163.85
182.593	86.41
182.814	105.16
183.035	158.96
183.257	94.34
183.478	48.94
183.699	78.72
183.92	19.45
184.141	6.47
184.363	-36.28
184.584	-22.76
184.805	-22.9
185.026	22.67
185.247	27.65
185.468	16.57
185.689	1.44
185.91	11.59
186.132	-6.71
186.353	-22.89
186.574	22.02
186.795	58.62
187.016	19.07
187.237	4.39
187.458	13.3
187.679	6.27
187.9	-10.66
188.121	11.58
188.342	24.59
188.563	32.35
188.784	59.81
189.005	81.02
189.226	91.09
189.447	90.89
189.667	56.31
189.888	-130.54
190.109	-601.3
190.33	-327.74
190.551	-911.5
190.772	-207.99
190.993	-171.36
191.214	-166.59
191.434	-116.31
191.655	-13.01
191.876	-44.4
192.097	-121.33
192.318	-150.2
192.538	-212.32
192.759	-155.7
192.98	-29.72
193.201	25.71
193.421	37.39
193.642	25.55
193.863	18.75
194.083	-9.43
194.304	-24.55
194.525	-32.41
194.745	-51.79
194.966	-69.24
195.187	-69.2
195.407	-102.06
195.628	-186.26
195.848	-160.02
196.069	-121.59
196.29	-78.95
196.51	-93.55
196.731	-56.31
196.951	-80.88
197.172	-98.04
197.392	-148.48
197.613	-139.17
197.833	-184.6
198.054	-142.67
198.274	-86.99
198.495	-88.2
198.715	-38.55
198.936	-45.86
199.156	-33.19
199.377	-108.6
199.597	-108.37
199.817	-136.82
200.038	-70.53
200.258	-119.34
200.479	-54.02
200.699	-27.74
200.919	22.29
201.14	-1.5
201.36	-0.12
201.58	19.87
201.801	28.96
202.021	-16.96
202.241	-15.11
202.461	-26.09
202.682	-129.35
202.902	-183.64
203.122	-68.2
203.342	-45.79
203.563	7.51
203.783	33.84
204.003	10.48
204.223	-33.37
204.443	7.1
204.663	-73.8
204.884	-44.73
205.104	-4.32
205.324	22.63
205.544	28.72
205.764	68.71
205.984	51.44
206.204	46.01
206.424	31.04
206.644	-19.09
206.864	-5.63
207.084	-51.34
207.304	-18.2
207.525	-36.87
207.745	20.64
207.964	25.09
208.184	-0.73
208.404	-60.8
208.624	-76.01
208.844	-64.82
209.064	-347.24
209.284	-391.97
209.504	-172.98
209.724	-42.04
209.944	-35.12
210.164	2.13
210.384	19.91
210.604	12.22
210.823	-23.08
211.043	-39.86
211.263	-14.8
211.483	-2.09
211.703	-22.93
211.922	7.33
212.142	49.5
212.362	62.01
212.582	39.44
212.801	20.61
213.021	-12.69
213.241	-40.93
213.461	-64.32
213.68	-62.55
213.9	-36.74
214.12	-16.55
214.339	-47.54
214.559	-40.85
214.779	-20.98
214.998	-20.49
215.218	-57.43
215.438	-40.97
215.657	-42.24
215.877	-41.75
216.096	-30.27
216.316	-13.69
216.535	-6.64
216.755	-4.4
216.974	-71.55
217.194	-111.4
217.413	-90.98
217.633	-136.5
217.852	-248.37
218.072	-123.73
218.291	-69.67
218.511	-38.6
218.73	-49.58
218.95	-37.91
219.169	-39.79
219.389	-76.09
219.608	-61.15
219.827	-39.4
220.047	-28.04
220.266	-18.91
220.485	-20.39
220.705	-21.53
220.924	-32.19
221.143	19.32
221.363	5.12
221.582	26.15
221.801	40.25
222.021	51.53
222.24	-42.04
222.459	30.29
222.678	7.83
222.897	-15.35
223.117	-58.94
223.336	-10.13
223.555	-38.16
223.774	2.73
223.993	-14.04
224.213	19.52
224.432	8.39
224.651	46.4
224.87	11.66
225.089	30.37
225.308	28.33
225.527	27.9
225.746	14.52
225.965	10.53
226.184	-18.48
226.404	7.73
226.623	4.15
226.842	-0.39
227.061	27.09
227.28	31.28
227.499	26.13
227.718	29.17
227.936	32.03
228.155	28.72
228.374	11.73
228.593	9.26
228.812	0.8
229.031	-10.52
229.25	-48.87
229.469	-53.24
229.688	-41.88
229.907	-11.27
230.125	5.46
230.344	19.41
230.563	31.35
230.782	30.36
231.001	-33.8
231.22	-26.91
231.438	-12.08
231.657	-16.05
231.876	-49.89
232.095	3.66
232.313	11.1
232.532	-5.14
232.751	-42.87
232.969	-15
233.188	-71.29
233.407	-33.26
233.625	-20.68
233.844	-13.29
234.063	-9.85
234.281	13.57
234.5	0.54
234.719	11.1
234.937	22.24
235.156	29.7
235.374	19.85
235.593	13.06
235.811	5.71
236.03	6.69
236.249	-34.98
236.467	-7.64
236.686	0.11
236.904	5.28
237.123	-18.07
237.341	-18.51
237.559	-24.35
237.778	-39.62
237.996	-76.57
238.215	-28.13
238.433	-4.11
238.652	-0.91
238.87	-25.03
239.088	-11.66
239.307	-12.17
239.525	-30.59
239.743	-50.43
239.962	-30.86
240.18	-54.14
240.398	-104.26
240.617	-74.89
240.835	-62.55
241.053	-26.98
241.271	24.02
241.49	50.4
241.708	24.15
241.926	10.65
242.144	-16.08
242.363	-36.23
242.581	-66.74
242.799	-45
243.017	-29.55
243.235	-39.93
243.453	-41.53
243.672	-49.12
243.89	-30.4
244.108	-25.82
244.326	-14.58
244.544	-16.29
244.762	-5.52
244.98	-16.32
245.198	-8.17
245.416	-30.43
245.634	-21.33
245.852	-25.76
246.07	-20.95
246.288	-31.33
246.506	-40.15
246.724	-41.55
246.942	-18.27
247.16	1.25
247.378	16.16
247.596	49.76
247.814	54.37
248.032	16.72
248.25	13
248.468	0.63
248.685	3.06
248.903	31.07
249.121	34.7
249.339	12.25
249.557	2.52
249.775	-4.53
249.992	-82.85
250.21	-62.14
250.428	-47.7
250.646	-73.22
250.863	-95.06
251.081	-62.95
251.299	-71.43
251.517	-73.2
251.734	-36.95
251.952	-18.42
252.17	-3.22
252.387	7.87
252.605	-3.47
252.823	6.07
253.04	21.97
253.258	39.87
253.475	29.73
253.693	77.52
253.911	74.05
254.128	73.15
254.346	63.57
254.563	43.08
254.781	8.27
254.998	-8.4
255.216	-20.52
255.433	-4.11
255.651	38.49
255.868	70.46
256.086	69.79
256.303	60.43
256.521	54.7
256.738	24.71
256.956	-16.49
257.173	-36.4
257.39	-46.87
257.608	-99.66
257.825	-9.4
258.043	33.52
258.26	16.02
258.477	52.6
258.695	52.21
258.912	-26.36
259.129	-20.32
259.346	-32.63
259.564	-77.22
259.781	-87.79
259.998	-31.66
260.216	-13.62
260.433	35.09
260.65	25.19
260.867	37.51
261.084	13.31
261.302	-5.67
261.519	-41.92
261.736	-47.49
261.953	-81.81
262.17	-39.49
262.387	-79.09
262.604	-103.53
262.822	-113.64
263.039	-65.86
263.256	-123.82
263.473	-58.81
263.69	-26.89
263.907	12.45
264.124	17
264.341	30.92
264.558	12.28
264.775	29.26
264.992	9.08
265.209	7.38
265.426	16.72
265.643	21.84
265.86	30.25
266.077	30.43
266.294	10.93
266.51	-36.32
266.727	-45.29
266.944	-64.42
267.161	-49.28
267.378	-32.51
267.595	6.55
267.812	3.09
268.028	-3.81
268.245	-6.03
268.462	-29.45
268.679	-39.84
268.896	-4.21
269.112	-15.52
269.329	-5
269.546	3.2
269.763	5.71
269.979	-11.56
270.196	3.35
270.413	-28.43
270.629	-51.79
270.846	-58.71
271.063	-42.52
271.279	-47.86
271.496	-33.43
271.712	3.61
271.929	19.3
272.146	-8.87
272.362	-6.91
272.579	14.14
272.795	11.45
273.012	2.96
273.228	4.91
273.445	-20.09
273.661	-64.99
273.878	-94.93
274.094	-78.36
274.311	-99.66
274.527	-33.42
274.744	-25.75
274.96	-20.16
275.177	-14.42
275.393	3.32
275.609	-1.18
275.826	19.8
276.042	21.02
276.259	15.24
276.475	26.32
276.691	33.88
276.908	8.86
277.124	19.29
277.34	12.64
277.557	-5.78
277.773	-23.6
277.989	-16.76
278.205	-15.19
278.422	5.18
278.638	11.73
278.854	43.97
279.07	46.36
279.286	26.65
279.503	2.75
279.719	-20.09
279.935	-65.31
280.151	-82.06
280.367	-58.48
280.583	-85.39
280.799	-45.54
281.016	-73.36
281.232	-21.9
281.448	-13.67
281.664	17.31
281.88	-22
282.096	6.28
282.312	1.05
282.528	23.58
282.744	14.1
282.96	17.82
283.176	18.04
283.392	8.46
283.608	-8.92
283.824	-7.93
284.04	9.56
284.256	8.96
284.471	4.92
284.687	8.91
284.903	38.22
285.119	41.34
285.335	18.93
285.551	14.15
285.767	5.09
285.982	-12.63
286.198	-38.8
286.414	17.92
286.63	33.57
286.846	49.76
287.061	16.11
287.277	46.51
287.493	14.39
287.709	22.65
287.924	-1.06
288.14	36.14
288.356	20.24
288.571	49.4
288.787	36.19
289.003	31.69
289.218	12.53
289.434	-20.37
289.65	-21.05
289.865	-34.1
290.081	-9.69
290.296	-12.96
290.512	-0.47
290.727	-33.62
290.943	-38.94
291.159	-53.41
291.374	-38.14
291.59	-52.84
291.805	-40.63
292.021	-18.99
292.236	-2.64
292.451	-3.01
292.667	16.67
292.882	37.07
293.098	26.97
293.313	-10.53
293.529	-25.74
293.744	-52.23
293.959	-54.06
294.175	-43.28
294.39	2.64
294.605	20.85
294.821	40.56
295.036	46.69
295.251	56.72
295.467	17.41
295.682	9.03
295.897	-54.5
296.112	-68.41
296.328	-71.84
296.543	-59.89
296.758	-60.55
296.973	4.82
297.188	28.9
297.404	-8.06
297.619	-15.37
297.834	-30.22
298.049	-51.25
298.264	-62.06
298.479	1.15
298.694	10.33
298.909	26.27
299.125	28.77
299.34	28.67
299.555	7.13
299.77	12.13
299.985	-25.92
300.2	-72.25
300.415	-96.4
300.63	-71
300.845	-77.15
301.06	-69.37
301.275	-42.63
301.49	-14.52
301.704	-13.68
301.919	-18.42
302.134	-20.53
302.349	-9.82
302.564	-69.4
302.779	-82.64
302.994	-75.86
303.209	-52.22
303.423	-44.99
303.638	25.86
303.853	-6.04
304.068	-9.14
304.283	-1.54
304.497	-3.25
304.712	-18.2
304.927	-2.38
305.142	-6.1
305.356	-7.18
305.571	-11.55
305.786	-27.81
306	-41.18
306.215	-41.79
306.43	-75.08
306.644	-76.51
306.859	-32.04
307.074	-13.18
307.288	-50.33
307.503	-47.83
307.717	-50.57
307.932	-47.6
308.147	-53.15
308.361	-15.59
308.576	-26.14
308.79	-56.98
309.005	-51.77
309.219	-32.86
309.434	-34.49
309.648	-12.02
309.863	18.51
310.077	21.96
310.292	10.94
310.506	5.3
310.72	3.18
310.935	4.6
311.149	-1.65
311.364	9
311.578	14.82
311.792	8.31
312.007	7.98
312.221	2.7
312.435	9.79
312.649	2.67
312.864	11.7
313.078	12.58
313.292	60.4
313.507	6.97
313.721	41.38
313.935	38.58
314.149	40
314.363	16.41
314.578	28.33
314.792	12.88
315.006	-10.7
315.22	1.84
315.434	-3.03
315.648	6.66
315.862	15.9
316.077	37.21
316.291	28.32
316.505	38.69
316.719	49.3
316.933	-4.25
317.147	-23.48
317.361	-69.78
317.575	-88.3
317.789	-132.71
318.003	-166.75
318.217	-137.35
318.431	-40.42
318.645	3.62
318.859	16.19
319.073	40.74
319.287	28.2
319.5	-11.03
319.714	-39.61
319.928	-58.43
320.142	-72.69
320.356	-19.31
320.57	37.09
320.784	20.73
320.997	-10.67
321.211	-26.27
321.425	-69.34
321.639	-109.89
321.853	-55.64
322.066	-35.04
322.28	-24.99
322.494	-18.7
322.707	-4.66
322.921	-22.93
323.135	-19.72
323.349	-22.6
323.562	-33.81
323.776	-41.46
323.989	-18.05
324.203	-33.55
324.417	-41.07
324.63	-47.7
324.844	-48.5
325.057	-55.55
325.271	-24.31
325.485	2.39
325.698	16.7
325.912	28.6
326.125	5.84
326.339	4.04
326.552	-17.94
326.766	-11.79
326.979	-0.84
327.193	42.98
327.406	31.79
327.619	29.51
327.833	39.16
328.046	9.98
328.26	-30.95
328.473	-8.03
328.686	-40.19
328.9	-55.62
329.113	-19.48
329.326	-35.1
329.54	-22.75
329.753	-27.11
329.966	-31.72
330.179	-27.02
330.393	-18.01
330.606	-32.6
330.819	4.57
331.032	16.19
331.246	12.12
331.459	33.58
331.672	37.63
331.885	21.63
332.098	-1.57
332.311	-14.71
332.525	-64.89
332.738	-47.08
332.951	-11.19
333.164	13.28
333.377	24.56
333.59	42.43
333.803	48.26
334.016	34.1
334.229	33.92
334.442	39.57
334.655	57.66
334.868	41.44
335.081	24.1
335.294	17.19
335.507	-6.12
335.72	-27.27
335.933	-49.74
336.146	-47.43
336.359	-41.49
336.572	-51.32
336.785	-50.52
336.997	-28.94
337.21	-17.88
337.423	-28.82
337.636	-16.24
337.849	-2.23
338.062	-23.85
338.274	-4.44
338.487	-4.38
338.7	-11.74
338.913	-49.55
339.125	-47.74
339.338	-107.16
339.551	-98.21
339.763	-61.83
339.976	-32.29
340.189	-12.65
340.402	5.44
340.614	7.89
340.827	0.27
341.039	-13.44
341.252	-9.99
341.465	-4.76
341.677	-15.07
341.89	-58.39
342.102	-27.85
342.315	-50.56
342.527	-95.67
342.74	-76.24
342.952	-26.47
343.165	-21.01
343.377	13.6
343.59	23.76
343.802	25.75
344.015	25.33
344.227	22.22
344.44	2.46
344.652	-5.78
344.864	-9.24
345.077	13.32
345.289	18.13
345.502	19.04
345.714	15.96
345.926	26.99
346.139	8.36
346.351	12.13
346.563	24.15
346.775	43.05
346.988	29.98
347.2	20.97
347.412	-27.13
347.624	-52.66
347.837	-94.97
348.049	-72.58
348.261	-26.52
348.473	-8.63
348.685	-10.28
348.897	1.34
349.11	-30.55
349.322	-52.88
349.534	-24.41
349.746	-6.2
349.958	-7.86
350.17	16.15
350.382	25.56
350.594	15.9
350.806	11.72
351.018	11.57
351.23	5.58
351.442	-30.69
351.654	-37.49
351.866	-35.47
352.078	-29.39
352.29	-18.52
352.502	5.47
352.714	11.49
352.926	1.86
353.138	0.08
353.35	-2.72
353.561	-16.83
353.773	-23.9
353.985	-5.94
354.197	-1.68
354.409	-3.68
354.621	0.82
354.832	1.07
355.044	-5.33
355.256	-16.47
355.468	-11.09
355.679	-20.78
355.891	-14.24
356.103	-36.45
356.314	-25.63
356.526	-27.25
356.738	-7.83
356.949	-12.42
357.161	2.78
357.373	-5.37
357.584	-8.19
357.796	-7.37
358.008	-11.2
358.219	-0.99
358.431	0.63
358.642	6.52
358.854	13.06
359.065	4.7
359.277	-12.67
359.488	-12.29
359.7	-29.09
359.911	-57.54
360.123	-33.82
360.334	-48.12
360.546	-59.01
360.757	-52.16
360.969	-35.97
361.18	-40.01
361.391	-12.4
361.603	-24.85
361.814	-15.12
362.025	-24.43
362.237	-27.16
362.448	-11.86
362.659	7
362.871	0.37
363.082	3.09
363.293	2.5
363.504	-16.58
363.716	-45.13
363.927	-63.22
364.138	-70.52
364.349	-85.04
364.56	-56.11
364.772	-32.56
364.983	-7.17
365.194	0.45
365.405	16.58
365.616	21.84
365.827	21.01
366.038	-1.15
366.25	-10.63
366.461	-44.59
366.672	-33.86
366.883	-17.87
367.094	-0.69
367.305	-11.05
367.516	-0.96
367.727	-30.02
367.938	-45.78
368.149	-45.58
368.36	-24.37
368.571	-23.17
368.781	-29.34
368.992	-36.77
369.203	-56.46
369.414	-78.21
369.625	-72.86
369.836	-54.21
370.047	-92.46
370.258	-65.16
370.468	-54.99
370.679	-65.32
370.89	-58.93
371.101	-20.38
371.312	-24.25
371.522	-19.35
371.733	-11.69
371.944	-10.89
372.155	-8.18
372.365	-16.61
372.576	-24.23
372.787	-30.96
372.997	-51.39
373.208	-53.84
373.419	-23.58
373.629	-38.86
373.84	-43.83
374.05	-41.1
374.261	-32.34
374.472	-57.28
374.682	-15.91
374.893	-4.54
375.103	20.55
375.314	21.54
375.524	26.05
375.735	28.4
375.945	28.95
376.156	3.77
376.366	4.77
376.577	4.76
376.787	-10.61
376.997	-16.02
377.208	-4.54
377.418	-15.9
377.629	-6.19
377.839	-3.88
378.049	-8.46
378.26	6.8
378.47	8.25
378.68	-1.35
378.89	-8.19
379.101	-3.24
379.311	-39.28
379.521	-59.96
379.732	-59.07
379.942	-52.81
380.152	-75.35
380.362	-39.71
380.572	-32.38
380.783	-25.29
380.993	-12.21
381.203	-3.93
381.413	4.34
381.623	22.92
381.833	23.78
382.043	11.76
382.253	13.42
382.463	12.53
382.674	1.37
382.884	-17.91
383.094	-11.19
383.304	-7.87
383.514	-7.02
383.724	2.63
383.934	2.35
384.144	-12.75
384.353	-17.23
384.563	-24.43
384.773	-24.38
384.983	-29.12
385.193	-9.84
385.403	-5.48
385.613	1.04
385.823	-9.53
386.033	-0.31
386.242	-3.33
386.452	-6.35
386.662	-17.92
386.872	-2.62
387.082	-2.96
387.291	-7.83
387.501	-7.68
387.711	2.1
387.921	-7.14
388.13	-10.65
388.34	-0.83
388.55	-3.9
388.759	-5.86
388.969	-0.83
389.179	-1.3
389.388	-6.75
389.598	-1.5
389.807	-7.68
390.017	-12.23
390.227	-11.83
390.436	-10.32
390.646	-9.86
390.855	-6.88
391.065	-6.13
391.274	-7.09
391.484	-10.19
391.693	-9.49
391.903	-5.9
392.112	-0.73
392.322	2.74
392.531	7.8
392.74	7.35
392.95	2.58
393.159	0.69
393.369	-2.11
393.578	-4.5
393.787	-4.86
393.997	-1.71
394.206	-2.78
394.415	-1.78
394.625	-1.41
394.834	-1.83
395.043	-1.41
395.252	-0.17
395.462	2.37
395.671	3.91
395.88	2.99
396.089	3.81
396.298	3.19
396.508	1.95
396.717	0.43
396.926	1.75
397.135	0.21
397.344	-0.48
397.553	0.78
397.762	2.51
397.971	2.81
398.181	2.89
398.39	3.45
398.599	2.42
398.808	1.95
399.017	1.98
399.226	3
399.435	3.62
399.644	3.66
399.853	2.61
400.062	2.3
400.27	1.84
400.479	1.5
400.688	0.98
400.897	1.32
401.106	1.32
401.315	1.19
401.524	1.01
401.733	1.82
401.941	2.17
402.15	2.39
402.359	2.47
402.568	2.95
402.777	2.81
402.985	2.87
403.194	2.58
403.403	2.45
403.612	2.07
403.82	1.99
404.029	1.99
404.238	1.97
404.446	2.22
404.655	1.92
404.864	1.77
405.072	1.55
405.281	1.67
405.489	1.29
405.698	1.47
405.906	1.33
406.115	1.28
406.324	1.28
406.532	1.53
406.741	1.66
406.949	1.71
407.158	1.64
407.366	1.79
407.574	1.67
407.783	1.72
407.991	1.64
408.2	1.93
408.408	1.78
408.617	1.81
408.825	1.61
409.033	1.72
409.242	1.72
409.45	1.73
409.658	1.63
409.867	1.78
410.075	1.7
410.283	1.45
410.491	1.41
410.7	1.36
410.908	1.32
411.116	1.54
411.324	1.59
411.533	1.51
411.741	1.76
411.949	1.74
412.157	1.53
412.365	1.58
412.573	1.67
412.781	1.53
412.99	1.41
413.198	1.66
413.406	1.7
413.614	1.69
413.822	1.62
414.03	1.67
414.238	1.38
414.446	1.37
414.654	1.15
414.862	1.23
415.07	1.34
415.278	1.46
415.486	1.28
415.694	1.51
415.902	1.48
416.109	1.36
416.317	1.38
416.525	1.36
416.733	1.38
416.941	1.62
417.149	1.57
417.357	1.62
417.564	1.78
417.772	1.85
417.98	1.68
418.188	1.68
418.395	1.79
418.603	1.89
418.811	1.52
419.019	1.49
419.226	1.66
419.434	1.61
419.642	1.41
419.849	1.64
420.057	1.69
420.265	1.65
420.472	1.47
420.68	1.59
420.887	1.53
421.095	1.54
421.302	1.34
421.51	1.63
421.717	1.75
421.925	1.89
422.132	1.74
422.34	1.66
422.547	1.51
422.755	1.3
422.962	1.08
423.17	1.07
423.377	1.28
423.585	1.19
423.792	1.24
423.999	1.27
424.207	1.33
424.414	1.35
424.621	1.29
424.829	1.24
425.036	1.36
425.243	1.45
425.451	1.33
425.658	1.25
425.865	1.45
426.072	1.42
426.28	1.56
426.487	1.52
426.694	1.67
426.901	1.43
427.108	1.32
427.315	1.15
427.523	1.42
427.73	1.41
427.937	1.48
428.144	1.55
428.351	1.51
428.558	1.48
428.765	1.41
428.972	1.39
429.179	1.55
429.386	1.76
429.593	1.62
429.8	1.51
430.007	1.55
430.214	1.54
430.421	1.36
430.628	1.21
430.835	1.19
431.042	1.38
431.249	1.37
431.456	1.39
431.662	1.54
431.869	1.77
432.076	1.69
432.283	1.63
432.49	1.6
432.697	1.65
432.903	1.45
433.11	1.38
433.317	1.41
433.524	1.66
433.73	1.49
433.937	1.65
434.144	1.57
434.35	1.57
434.557	1.29
434.764	1.42
434.97	1.39
435.177	1.52
435.384	1.47
435.59	1.59
435.797	1.77
436.003	1.8
436.21	1.75
436.416	1.92
436.623	1.93
436.829	1.84
437.036	1.97
437.242	1.99
437.449	1.74
437.655	1.8
437.862	1.86
438.068	1.71
438.275	1.78
438.481	2.07
438.687	1.98
438.894	2.02
439.1	2.1
439.307	2.21
439.513	2.09
439.719	2.07
439.926	2.07
440.132	1.87
440.338	1.64
440.544	1.77
440.751	1.66
440.957	1.69
441.163	1.73
441.369	1.85
441.575	1.69
441.782	1.81
441.988	1.64
442.194	1.71
442.4	1.69
442.606	1.97
442.812	2.05
443.018	2.2
443.224	2.3
443.431	2.39
443.637	2.09
443.843	1.94
444.049	1.94
444.255	1.77
444.461	1.73
444.667	1.8
444.873	1.95
445.079	1.86
445.284	1.99
445.49	1.75
445.696	1.56
445.902	1.51
446.108	1.54
446.314	1.53
446.52	1.63
446.726	1.92
446.931	1.91
447.137	1.9
447.343	1.96
447.549	1.93
447.755	1.78
447.96	1.87
448.166	1.79
448.372	1.74
448.578	1.83
448.783	1.84
448.989	1.91
449.195	2.12
449.4	2.13
449.606	2.12
449.812	2.1
450.017	2.06
450.223	1.93
450.428	1.87
450.634	2
450.84	2.13
451.045	2.08
451.251	1.99
451.456	2.25
451.662	2.24
451.867	2.23
452.073	2.21
452.278	2.4
452.483	2.38
452.689	2.32
452.894	2.35
453.1	2.36
453.305	2.31
453.51	2.2
453.716	2.19
453.921	2.12
454.127	2.04
454.332	1.91
454.537	1.84
454.742	1.83
454.948	1.82
455.153	1.94
455.358	2.09
455.563	2.2
455.769	2.28
455.974	2.31
456.179	2.2
456.384	2.18
456.589	2.1
456.795	1.95
457	1.97
457.205	2.18
457.41	2.12
457.615	2.12
457.82	2.2
458.025	2.13
458.23	1.92
458.435	1.92
458.64	1.91
458.845	2.03
459.05	2.06
459.255	2.12
459.46	2.18
459.665	2.17
459.87	2.13
460.075	2.12
460.28	2.17
460.485	2.2
460.69	2.17
460.895	2.03
461.099	1.98
461.304	2.13
461.509	2.15
461.714	2.19
461.919	2.36
462.123	2.32
462.328	2.21
462.533	2.12
462.738	2.24
462.942	2.15
463.147	2.23
463.352	2.22
463.556	2.21
463.761	2.16
463.966	2.19
464.17	2.2
464.375	2.11
464.58	2.18
464.784	2.16
464.989	2.09
465.193	2.11
465.398	2.19
465.602	2.27
465.807	2.25
466.011	2.31
466.216	2.3
466.42	2.32
466.625	2.31
466.829	2.41
467.034	2.49
467.238	2.59
467.443	2.57
467.647	2.45
467.851	2.44
468.056	2.45
468.26	2.39
468.464	2.39
468.669	2.55
468.873	2.63
469.077	2.6
469.282	2.64
469.486	2.71
469.69	2.74
469.894	2.59
470.099	2.65
470.303	2.79
470.507	2.69
470.711	2.55
470.915	2.54
471.119	2.48
471.324	2.33
471.528	2.34
471.732	2.46
471.936	2.55
472.14	2.61
472.344	2.71
472.548	2.74
472.752	2.94
472.956	3.02
473.16	3.02
473.364	2.9
473.568	2.94
473.772	2.79
473.976	2.7
474.18	2.64
474.384	2.69
474.588	2.68
474.792	2.57
474.995	2.64
475.199	2.69
475.403	2.76
475.607	2.76
475.811	2.76
476.015	2.81
476.218	2.86
476.422	2.79
476.626	2.89
476.83	3
477.033	2.95
477.237	2.83
477.441	2.89
477.644	2.87
477.848	2.9
478.052	2.85
478.255	2.95
478.459	2.98
478.663	3.1
478.866	3.1
479.07	3.11
479.273	3.23
479.477	3.24
479.681	3.15
479.884	3.11
480.088	3.14
480.291	3.05
480.495	3.01
480.698	3.04
480.901	3.09
481.105	3.18
481.308	3.19
481.512	3.2
481.715	3.23
481.919	3.25
482.122	3.2
482.325	3.2
482.529	3.23
482.732	3.23
482.935	3.18
483.138	3.15
483.342	3.22
483.545	3.27
483.748	3.28
483.952	3.32
484.155	3.43
484.358	3.4
484.561	3.39
484.764	3.29
484.967	3.38
485.171	3.43
485.374	3.39
485.577	3.5
485.78	3.61
485.983	3.55
486.186	3.44
486.389	3.44
486.592	3.41
486.795	3.38
486.998	3.41
487.201	3.45
487.404	3.51
487.607	3.49
487.81	3.53
488.013	3.58
488.216	3.59
488.419	3.54
488.622	3.52
488.825	3.45
489.028	3.41
489.231	3.33
489.433	3.34
489.636	3.3
489.839	3.32
490.042	3.23
490.245	3.27
490.447	3.34
490.65	3.34
490.853	3.36
491.056	3.4
491.258	3.42
491.461	3.41
491.664	3.52
491.866	3.46
492.069	3.56
492.272	3.52
492.474	3.51
492.677	3.52
492.879	3.59
493.082	3.63
493.285	3.76
493.487	3.75
493.69	3.69
493.892	3.6
494.095	3.52
494.297	3.46
494.5	3.47
494.702	3.51
494.905	3.63
495.107	3.65
495.309	3.66
495.512	3.73
495.714	3.74
495.917	3.75
496.119	3.73
496.321	3.8
496.524	3.79
496.726	3.82
496.928	3.79
497.13	3.81
497.333	3.78
497.535	3.8
497.737	3.73
497.939	3.76
498.142	3.75
498.344	3.71
498.546	3.64
498.748	3.72
498.95	3.79
499.152	3.79
499.355	3.84
499.557	3.95
499.759	4.02
499.961	3.91
500.163	4
500.365	3.96
500.567	4.02
500.769	3.92
500.971	3.9
501.173	3.85
501.375	3.94
501.577	3.83
501.779	3.81
501.981	3.88
502.183	3.86
502.385	3.83
502.587	3.79
502.788	3.85
502.99	3.85
503.192	3.88
503.394	3.87
503.596	3.92
503.798	3.92
503.999	3.95
504.201	3.96
504.403	4.02
504.605	4.07
504.806	4.04
505.008	4.06
505.21	4.17
505.411	4.16
505.613	4.17
505.815	4.21
506.016	4.27
506.218	4.22
506.42	4.21
506.621	4.22
506.823	4.24
507.024	4.18
507.226	4.16
507.427	4.14
507.629	4.19
507.83	4.23
508.032	4.23
508.233	4.34
508.435	4.42
508.636	4.47
508.838	4.42
509.039	4.44
509.24	4.39
509.442	4.37
509.643	4.26
509.845	4.33
510.046	4.42
510.247	4.45
510.448	4.43
510.65	4.53
510.851	4.6
511.052	4.57
511.254	4.56
511.455	4.63
511.656	4.62
511.857	4.67
512.058	4.64
512.26	4.66
512.461	4.61
512.662	4.66
512.863	4.55
513.064	4.56
513.265	4.61
513.466	4.66
513.667	4.65
513.868	4.69
514.069	4.74
514.27	4.76
514.471	4.76
514.672	4.76
514.873	4.81
515.074	4.85
515.275	4.76
515.476	4.74
515.677	4.77
515.878	4.86
516.079	4.84
516.28	4.88
516.481	4.97
516.682	4.98
516.882	4.84
517.083	4.84
517.284	4.81
517.485	4.76
517.686	4.73
517.886	4.74
518.087	4.77
518.288	4.82
518.488	4.82
518.689	4.87
518.89	4.87
519.091	4.89
519.291	4.85
519.492	4.86
519.692	4.88
519.893	4.95
520.094	4.94
520.294	5
520.495	5.02
520.695	5.04
520.896	5.02
521.096	5.08
521.297	5.07
521.497	5.06
521.698	4.98
521.898	4.96
522.099	4.9
522.299	4.94
522.499	4.97
522.7	4.98
522.9	5.01
523.101	5.07
523.301	5.07
523.501	5.07
523.702	5.16
523.902	5.23
524.102	5.29
524.302	5.31
524.503	5.38
524.703	5.35
524.903	5.34
525.103	5.28
525.304	5.39
525.504	5.41
525.704	5.46
525.904	5.44
526.104	5.46
526.304	5.4
526.504	5.38
526.705	5.39
526.905	5.46
527.105	5.44
527.305	5.41
527.505	5.37
527.705	5.34
527.905	5.34
528.105	5.35
528.305	5.35
528.505	5.41
528.705	5.5
528.905	5.44
529.105	5.45
529.304	5.5
529.504	5.59
529.704	5.54
529.904	5.55
530.104	5.56
530.304	5.61
530.503	5.52
530.703	5.47
530.903	5.49
531.103	5.57
531.303	5.55
531.502	5.57
531.702	5.68
531.902	5.77
532.101	5.68
532.301	5.7
532.501	5.69
532.7	5.61
532.9	5.56
533.1	5.61
533.299	5.61
533.499	5.66
533.698	5.7
533.898	5.71
534.097	5.71
534.297	5.81
534.496	5.79
534.696	5.84
534.895	5.93
535.095	6
535.294	5.93
535.494	5.89
535.693	5.9
535.892	5.86
536.092	5.81
536.291	5.8
536.491	5.92
536.69	5.94
536.889	5.89
537.088	5.88
537.288	5.95
537.487	5.95
537.686	5.93
537.886	6.03
538.085	6.08
538.284	6.19
538.483	6.17
538.682	6.27
538.882	6.25
539.081	6.32
539.28	6.18
539.479	6.19
539.678	6.15
539.877	6.26
540.076	6.28
540.275	6.38
540.474	6.45
540.673	6.51
540.872	6.42
541.071	6.47
541.27	6.49
541.469	6.51
541.668	6.52
541.867	6.61
542.066	6.62
542.265	6.67
542.464	6.68
542.663	6.65
542.862	6.72
543.06	6.77
543.259	6.77
543.458	6.83
543.657	6.93
543.856	6.95
544.054	6.93
544.253	6.97
544.452	6.95
544.651	7.02
544.849	6.99
545.048	7.09
545.247	7.1
545.445	7.16
545.644	7.21
545.843	7.2
546.041	7.16
546.24	7.26
546.438	7.36
546.637	7.36
546.836	7.51
547.034	7.6
547.233	7.59
547.431	7.53
547.63	7.54
547.828	7.54
548.027	7.58
548.225	7.68
548.423	7.73
548.622	7.85
548.82	7.85
549.019	7.89
549.217	7.97
549.415	8.05
549.614	8.1
549.812	8.13
550.01	8.12
550.209	8.13
550.407	8.25
550.605	8.25
550.803	8.38
551.002	8.51
551.2	8.56
551.398	8.63
551.596	8.76
551.794	8.85
551.993	8.93
552.191	9.03
552.389	9.11
552.587	9.11
552.785	9.12
552.983	9.2
553.181	9.26
553.379	9.33
553.577	9.4
553.775	9.55
553.973	9.59
554.171	9.63
554.369	9.66
554.567	9.7
554.765	9.71
554.963	9.74
555.161	9.72
555.359	9.75
555.557	9.98
555.755	10.02
555.952	10.17
556.15	10.33
556.348	10.43
556.546	10.41
556.744	10.45
556.941	10.47
557.139	10.6
557.337	10.64
557.535	10.67
557.732	10.87
557.93	11.06
558.128	11.07
558.325	11.19
558.523	11.27
558.721	11.29
558.918	11.31
559.116	11.43
559.313	11.49
559.511	11.7
559.708	11.82
559.906	11.83
560.104	11.92
560.301	12.03
560.498	12.03
560.696	12.12
560.893	12.31
561.091	12.43
561.288	12.56
561.486	12.67
561.683	12.74
561.88	12.8
562.078	12.9
562.275	12.98
562.473	13.06
562.67	13.23
562.867	13.35
563.064	13.46
563.262	13.49
563.459	13.5
563.656	13.6
563.853	13.68
564.051	13.69
564.248	13.89
564.445	14.09
564.642	14.09
564.839	14.2
565.036	14.45
565.234	14.63
565.431	14.73
565.628	14.88
565.825	15.01
566.022	15.02
566.219	15.06
566.416	15.15
566.613	15.27
566.81	15.34
567.007	15.35
567.204	15.35
567.401	15.44
567.598	15.44
567.795	15.47
567.991	15.6
568.188	15.72
568.385	15.84
568.582	15.99
568.779	16.11
568.976	16.25
569.172	16.43
569.369	16.39
569.566	16.4
569.763	16.51
569.96	16.5
570.156	16.52
570.353	16.62
570.55	16.76
570.746	16.75
570.943	16.81
571.14	16.8
571.336	16.9
571.533	16.95
571.729	16.97
571.926	17.11
572.123	17.19
572.319	17.25
572.516	17.29
572.712	17.34
572.909	17.41
573.105	17.49
573.302	17.52
573.498	17.61
573.695	17.59
573.891	17.61
574.087	17.64
574.284	17.66
574.48	17.54
574.677	17.64
574.873	17.72
575.069	17.76
575.266	17.82
575.462	17.88
575.658	18
575.854	18.01
576.051	18.06
576.247	18.04
576.443	18.12
576.639	18.03
576.835	17.99
577.032	17.96
577.228	18.1
577.424	18.13
577.62	18.12
577.816	18.18
578.012	18.19
578.208	18.16
578.404	18.13
578.6	18.22
578.796	18.18
578.993	18.15
579.189	18.14
579.384	18.14
579.58	18.04
579.776	18.09
579.972	18.08
580.168	18.04
580.364	18.07
580.56	18.06
580.756	18.04
580.952	18.08
581.148	18.03
581.343	18.07
581.539	18.23
581.735	18.25
581.931	18.21
582.127	18.34
582.322	18.35
582.518	18.3
582.714	18.21
582.909	18.21
583.105	18.04
583.301	17.96
583.496	17.97
583.692	17.97
583.888	18.01
584.083	18.16
584.279	18.22
584.474	18.13
584.67	18.19
584.866	18.1
585.061	17.98
585.257	18.04
585.452	18.08
585.648	18
585.843	18.06
586.039	18.16
586.234	18.11
586.429	18.13
586.625	18.26
586.82	18.24
587.015	18.19
587.211	18.09
587.406	18.12
587.601	18.03
587.797	18
587.992	17.99
588.187	18.17
588.383	18.12
588.578	18.16
588.773	18.24
588.968	18.31
589.163	18.31
589.359	18.33
589.554	18.37
589.749	18.34
589.944	18.4
590.139	18.34
590.334	18.44
590.529	18.41
590.724	18.56
590.919	18.57
591.114	18.69
591.309	18.71
591.504	18.84
591.699	18.77
591.894	18.82
592.089	18.78
592.284	18.83
592.479	18.87
592.674	18.91
592.869	19.02
593.064	19.16
593.259	19.23
593.454	19.3
593.648	19.36
593.843	19.34
594.038	19.38
594.233	19.33
594.428	19.27
594.622	19.35
594.817	19.48
595.012	19.45
595.206	19.55
595.401	19.67
595.596	19.7
595.79	19.8
595.985	19.91
596.18	20.05
596.374	20.21
596.569	20.37
596.763	20.31
596.958	20.4
597.153	20.5
597.347	20.47
597.542	20.58
597.736	20.72
597.931	20.8
598.125	20.87
598.319	21.02
598.514	20.96
598.708	21.12
598.903	21.17
599.097	21.21
599.291	21.24
599.486	21.27
599.68	21.17
599.874	21.3
600.069	21.27
600.263	21.34
600.457	21.47
600.651	21.57
600.846	21.53
601.04	21.65
601.234	21.62
601.428	21.74
601.622	21.75
601.817	21.8
602.011	21.9
602.205	22.09
602.399	22.02
602.593	22.08
602.787	22.1
602.981	21.98
603.175	21.94
603.369	21.84
603.563	22
603.757	22.1
603.951	22.14
604.145	22.15
604.339	22.26
604.533	21.99
604.727	21.89
604.921	21.9
605.115	21.87
605.309	22.01
605.502	22.12
605.696	22.12
605.89	22.03
606.084	21.97
606.278	21.78
606.471	21.69
606.665	21.58
606.859	21.54
607.053	21.49
607.246	21.47
607.44	21.38
607.634	21.38
607.827	21.41
608.021	21.29
608.214	21.24
608.408	21.21
608.602	21.17
608.795	21.09
608.989	21.05
609.182	20.96
609.376	20.94
609.569	20.8
609.763	20.67
609.956	20.63
610.15	20.58
610.343	20.54
610.537	20.49
610.73	20.45
610.923	20.46
611.117	20.43
611.31	20.4
611.504	20.4
611.697	20.33
611.89	20.17
612.083	20.05
612.277	19.98
612.47	19.82
612.663	19.81
612.856	19.77
613.05	19.68
613.243	19.55
613.436	19.49
613.629	19.38
613.822	19.23
614.015	19.17
614.209	19.02
614.402	19.02
614.595	18.96
614.788	18.93
614.981	18.83
615.174	18.74
615.367	18.6
615.56	18.51
615.753	18.44
615.946	18.43
616.139	18.43
616.332	18.51
616.525	18.4
616.718	18.43
616.911	18.33
617.103	18.31
617.296	18.18
617.489	18.18
617.682	18.12
617.875	18.18
618.067	18.15
618.26	18.02
618.453	18.07
618.646	18.02
618.838	17.94
619.031	18.02
619.224	18
619.417	17.98
619.609	18.05
619.802	17.92
619.994	17.84
620.187	17.84
620.38	17.75
620.572	17.54
620.765	17.68
620.957	17.52
621.15	17.47
621.342	17.41
621.535	17.51
621.727	17.32
621.92	17.33
622.112	17.22
622.305	17.26
622.497	17.12
622.69	17.21
622.882	17.27
623.074	17.37
623.267	17.34
623.459	17.34
623.651	17.26
623.844	17.21
624.036	17.21
624.228	17.1
624.42	17.08
624.613	17.18
624.805	17.09
624.997	17.09
625.189	17.11
625.381	17.14
625.574	17.01
625.766	16.96
625.958	16.89
626.15	16.93
626.342	16.89
626.534	16.9
626.726	16.94
626.918	16.94
627.11	16.79
627.302	16.84
627.494	16.78
627.686	16.76
627.878	16.68
628.07	16.74
628.262	16.59
628.454	16.58
628.646	16.58
628.838	16.61
629.029	16.53
629.221	16.61
629.413	16.51
629.605	16.44
629.797	16.36
629.989	16.34
630.18	16.25
630.372	16.2
630.564	16.18
630.755	16.16
630.947	16.29
631.139	16.15
631.33	16.09
631.522	16.11
631.714	16.12
631.905	15.98
632.097	16.03
632.289	16.15
632.48	16.09
632.672	15.95
632.863	15.8
633.055	15.76
633.246	15.66
633.438	15.6
633.629	15.66
633.821	15.76
634.012	15.73
634.203	15.62
634.395	15.65
634.586	15.67
634.777	15.59
634.969	15.61
635.16	15.74
635.351	15.69
635.543	15.68
635.734	15.8
635.925	15.8
636.117	15.8
636.308	15.77
636.499	15.67
636.69	15.53
636.881	15.47
637.073	15.5
637.264	15.49
637.455	15.5
637.646	15.58
637.837	15.62
638.028	15.52
638.219	15.56
638.41	15.48
638.601	15.39
638.792	15.4
638.983	15.39
639.174	15.31
639.365	15.37
639.556	15.32
639.747	15.28
639.938	15.34
640.129	15.3
640.32	15.25
640.511	15.29
640.701	15.38
640.892	15.28
641.083	15.35
641.274	15.38
641.465	15.38
641.655	15.23
641.846	15.21
642.037	15.14
642.228	15.14
642.418	15.15
642.609	15.21
642.8	15.24
642.99	15.22
643.181	15.22
643.372	15.23
643.562	15.22
643.753	15.08
643.943	15.08
644.134	14.93
644.324	14.86
644.515	14.69
644.705	14.74
644.896	14.7
645.086	14.74
645.277	14.71
645.467	14.81
645.658	14.75
645.848	14.71
646.038	14.73
646.229	14.69
646.419	14.56
646.61	14.57
646.8	14.6
646.99	14.49
647.18	14.43
647.371	14.48
647.561	14.43
647.751	14.43
647.941	14.38
648.132	14.44
648.322	14.44
648.512	14.48
648.702	14.44
648.892	14.45
649.082	14.42
649.272	14.33
649.462	14.18
649.653	14.05
649.843	13.94
650.033	13.9
650.223	13.87
650.413	13.85
650.603	13.91
650.793	14.01
650.983	13.93
651.172	13.88
651.362	13.94
651.552	13.86
651.742	13.72
651.932	13.73
652.122	13.74
652.312	13.81
652.502	13.83
652.691	13.84
652.881	13.72
653.071	13.65
653.261	13.37
653.45	13.22
653.64	13.19
653.83	13.16
654.019	12.98
654.209	12.97
654.399	12.91
654.588	12.75
654.778	12.55
654.968	12.49
655.157	12.36
655.347	12.27
655.536	12.2
655.726	12.2
655.915	12.05
656.105	11.99
656.294	11.87
656.484	11.7
656.673	11.48
656.863	11.47
657.052	11.28
657.241	11.05
657.431	10.84
657.62	10.69
657.809	10.38
657.999	10.24
658.188	10.15
658.377	10
658.567	9.93
658.756	9.88
658.945	9.78
659.134	9.55
659.324	9.47
659.513	9.29
659.702	9.16
659.891	9.06
660.08	8.97
660.269	8.92
660.458	8.72
660.648	8.65
660.837	8.42
661.026	8.43
661.215	8.23
661.404	8.2
661.593	8.08
661.782	7.96
661.971	7.77
662.16	7.68
662.349	7.53
662.538	7.37
662.726	7.31
662.915	7.2
663.104	7.15
663.293	7.13
663.482	7.17
663.671	7.08
663.86	6.99
664.048	6.82
664.237	6.85
664.426	6.58
664.615	6.56
664.803	6.5
664.992	6.49
665.181	6.27
665.369	6.21
665.558	6.08
665.747	6
665.935	6.01
666.124	6.01
666.312	6.05
666.501	6.09
666.69	6.02
666.878	5.92
667.067	5.85
667.255	5.88
667.444	6.06
667.632	6.12
667.82	6.24
668.009	6.32
668.197	6.26
668.386	6.01
668.574	6.15
668.762	5.96
668.951	5.87
669.139	5.92
669.327	5.89
669.516	5.9
669.704	5.97
669.892	6.08
670.08	6.01
670.269	6.05
670.457	5.84
670.645	5.78
670.833	6.02
671.021	6.05
671.21	6.07
671.398	6.34
671.586	6.39
671.774	6.16
671.962	6.26
672.15	6.38
672.338	6.23
672.526	6.37
672.714	6.35
672.902	6.43
673.09	6.51
673.278	6.74
673.466	6.8
673.654	7
673.842	6.91
674.03	6.94
674.218	6.87
674.405	6.86
674.593	6.85
674.781	7.03
674.969	7.09
675.157	7.28
675.344	7.46
675.532	7.54
675.72	7.66
675.908	7.72
676.095	7.74
676.283	7.72
676.471	7.84
676.658	7.87
676.846	7.9
677.033	7.92
677.221	7.99
677.409	7.87
677.596	7.94
677.784	8.01
677.971	8.22
678.159	8.4
678.346	8.58
678.534	8.65
678.721	8.91
678.909	8.76
679.096	8.88
679.283	9.15
679.471	9.27
679.658	9.31
679.846	9.51
680.033	9.62
680.22	9.66
680.408	9.73
680.595	9.8
680.782	9.79
680.969	9.84
681.157	9.85
681.344	9.92
681.531	9.95
681.718	10.08
681.905	10.26
682.093	10.45
682.28	10.69
682.467	10.95
682.654	11.2
682.841	11.31
683.028	11.47
683.215	11.53
683.402	11.49
683.589	11.67
683.776	11.86
683.963	11.86
684.15	12.1
684.337	12.41
684.524	12.6
684.711	12.81
684.898	12.98
685.085	13.22
685.271	13.47
685.458	13.72
685.645	13.82
685.832	14.26
686.019	14.56
686.205	14.85
686.392	15
686.579	15.41
686.766	15.79
686.952	16.07
687.139	16.38
687.326	16.74
687.512	17.05
687.699	17.42
687.886	17.67
688.072	18.07
688.259	18.51
688.445	19
688.632	19.33
688.818	19.95
689.005	20.39
689.191	20.93
689.378	21.55
689.564	22.11
689.751	22.61
689.937	23.04
690.124	23.6
690.31	23.85
690.496	24.34
690.683	24.8
690.869	25.5
691.055	26
691.242	26.8
691.428	27.33
691.614	28.05
691.8	28.9
691.987	29.73
692.173	30.43
692.359	31.33
692.545	32
692.731	32.42
692.918	33.01
693.104	33.63
693.29	34.12
693.476	34.94
693.662	35.69
693.848	36.33
694.034	37.08
694.22	37.58
694.406	38.13
694.592	38.78
694.778	39.39
694.964	39.87
695.15	40.77
695.336	41.31
695.522	42.16
695.708	43.01
695.894	43.82
696.08	44.74
696.265	45.47
696.451	46.17
696.637	46.95
696.823	47.64
697.009	48.08
697.194	48.79
697.38	49.16
697.566	49.48
697.751	50.1
697.937	50.92
698.123	51.54
698.308	52.46
698.494	53.11
698.68	53.72
698.865	54.31
699.051	55.16
699.236	55.59
699.422	56.42
699.607	56.76
699.793	57.16
699.978	57.37
700.164	57.83
700.349	58.32
700.535	58.99
700.72	59.42
700.906	60.31
701.091	60.93
701.276	61.57
701.462	62.48
701.647	63.16
701.832	63.61
702.018	64.16
702.203	64.49
702.388	64.33
702.573	64.76
702.759	65.53
702.944	65.71
703.129	66
703.314	66.67
703.499	66.92
703.684	66.67
703.87	67.53
704.055	68.5
704.24	68.83
704.425	69.73
704.61	70.4
704.795	70.35
704.98	70.52
705.165	70.99
705.35	71.12
705.535	71.27
705.72	71.81
705.905	71.84
706.09	72.21
706.275	72.21
706.459	72.77
706.644	72.82
706.829	73.25
707.014	73.27
707.199	73.85
707.384	74.11
707.568	74.42
707.753	74.56
707.938	74.97
708.123	75.22
708.307	75.45
708.492	75.97
708.677	76.21
708.861	76.5
709.046	76.39
709.231	76.74
709.415	77.02
709.6	77.05
709.784	77.11
709.969	77.39
710.153	77.42
710.338	77.3
710.522	77.6
710.707	77.9
710.891	77.99
711.076	78.06
711.26	78.32
711.445	78.57
711.629	78.67
711.813	78.95
711.998	79.22
712.182	79.33
712.366	79.76
712.551	80.53
712.735	80.75
712.919	80.57
713.103	80.59
713.288	80.48
713.472	79.99
713.656	80.29
713.84	80.48
714.024	81.11
714.208	81.26
714.393	82.01
714.577	82.3
714.761	82.61
714.945	82.48
715.129	82.62
715.313	82.15
715.497	81.86
715.681	82.58
715.865	82.85
716.049	83.18
716.233	83.44
716.417	83.79
716.601	83.34
716.785	83
716.968	82.75
717.152	82.92
717.336	82.96
717.52	83.14
717.704	83.6
717.888	84.38
718.071	84.77
718.255	84.98
718.439	84.59
718.622	84.59
718.806	84.53
718.99	83.89
719.174	83.94
719.357	84.2
719.541	84.01
719.724	83.65
719.908	84.98
720.092	85.22
720.275	85.87
720.459	86.16
720.642	85.85
720.826	85.17
721.009	84.81
721.193	84.26
721.376	84.56
721.559	85.32
721.743	85.77
721.926	86.43
722.11	86.71
722.293	86.28
722.476	85.92
722.66	85.58
722.843	85.34
723.026	84.92
723.21	85.34
723.393	85.88
723.576	85.63
723.759	85.14
723.942	85.56
724.126	85.44
724.309	85.22
724.492	85.36
724.675	85.63
724.858	86.12
725.041	86.63
725.224	86.87
725.407	87.34
725.59	88.33
725.774	88.3
725.957	87.51
726.14	87.35
726.322	87.25
726.505	86.89
726.688	87.59
726.871	88.05
727.054	88.55
727.237	88.46
727.42	88.37
727.603	87.81
727.786	88.53
727.968	88.3
728.151	88.63
728.334	88.99
728.517	89.39
728.699	89.27
728.882	89.3
729.065	89.44
729.248	89.34
729.43	89.38
729.613	89.77
729.796	90.65
729.978	89.64
730.161	89.76
730.343	89.24
730.526	89.61
730.708	88.57
730.891	89.51
731.073	89.42
731.256	89.61
731.438	88.63
731.621	89.51
731.803	89.89
731.986	90.42
732.168	89.77
732.35	90.55
732.533	89.95
732.715	89.53
732.898	89.77
733.08	90.61
733.262	90.79
733.444	91.39
733.627	91.39
733.809	91.37
733.991	91.92
734.173	90.87
734.355	90.76
734.538	91.89
734.72	91.26
734.902	90.91
735.084	92.02
735.266	91.93
735.448	92.29
735.63	92.63
735.812	93.24
735.994	94.43
736.176	94.21
736.358	92.96
736.54	93.71
736.722	92.88
736.904	91.68
737.086	92.8
737.268	94.15
737.45	93.65
737.632	94.11
737.814	93.25
737.995	92.77
738.177	92.87
738.359	92.49
738.541	93.04
738.723	93.76
738.904	94.22
739.086	94.1
739.268	94.56
739.449	94.54
739.631	94.08
739.813	94.63
739.994	93.83
740.176	93.74
740.358	93.27
740.539	94.93
740.721	94.55
740.902	95.25
741.084	95.26
741.265	95.29
741.447	94.21
741.628	94.37
741.81	93.21
741.991	93.26
742.172	93.6
742.354	93.3
742.535	93.13
742.717	94.14
742.898	94.33
743.079	95.78
743.261	96.25
743.442	95.55
743.623	95.95
743.804	96.11
743.986	95.8
744.167	94.81
744.348	94.48
744.529	94.04
744.71	93.24
744.891	92
745.073	92.39
745.254	92.52
745.435	92.98
745.616	92.65
745.797	92.4
745.978	92.64
746.159	92.84
746.34	91.01
746.521	92.85
746.702	92.05
746.883	91.6
747.064	91.66
747.245	92.86
747.426	91.79
747.606	93.02
747.787	94
747.968	94.3
748.149	93.89
748.33	94.95
748.51	95.01
748.691	94.03
748.872	93.86
749.053	93.49
749.233	91.55
749.414	90.85
749.595	90.34
749.775	89.86
749.956	89.78
750.137	90.09
750.317	91.13
750.498	92.84
750.678	92.52
750.859	93.22
751.04	92.87
751.22	91.95
751.4	91.21
751.581	91.07
751.761	91.32
751.942	93.35
752.122	92.76
752.303	91.92
752.483	91.85
752.663	91.4
752.844	89.91
753.024	90.96
753.204	91.71
753.385	91.75
753.565	90.68
753.745	91.08
753.925	90.2
754.106	89.75
754.286	90.42
754.466	91.62
754.646	91.87
754.826	91.33
755.006	90.57
755.187	90.35
755.367	90.29
755.547	90.3
755.727	91.26
755.907	92.4
756.087	94.17
756.267	93.28
756.447	93.53
756.627	91.4
756.807	91.27
756.987	89.47
757.167	90.55
757.346	89.04
757.526	90.11
757.706	90.53
757.886	90.79
758.066	90.61
758.246	92.65
758.425	93.48
758.605	92.4
758.785	92.84
758.965	92.74
759.144	90.46
759.324	90.14
759.504	90.26
759.683	89.51
759.863	87.81
760.043	86.95
760.222	86.99
760.402	87.16
760.581	86.37
760.761	87.81
760.94	87.45
761.12	88.54
761.299	89.5
761.479	89.48
761.658	88.74
761.838	88.73
762.017	88.16
762.197	87.84
762.376	88.79
762.555	90.45
762.735	92.59
762.914	91.11
763.093	90.57
763.273	88.54
763.452	86
763.631	84.97
763.81	85.35
763.99	85.32
764.169	87.8
764.348	88.59
764.527	88.21
764.706	88.96
764.885	90.55
765.064	88.37
765.243	87.84
765.423	88.87
765.602	88.15
765.781	86.87
765.96	85.82
766.139	84.49
766.318	85.01
766.497	84.58
766.676	83.95
766.854	86.46
767.033	87.11
767.212	84.95
767.391	86.79
767.57	86.97
767.749	87.35
767.928	89.63
768.106	89.52
768.285	85.6
768.464	85.66
768.643	83.94
768.821	82.37
769	83.43
769.179	84.17
769.357	83.39
769.536	83.82
769.715	84.55
769.893	86.21
770.072	87.01
770.25	88.51
770.429	88.55
770.607	88.04
770.786	86.29
770.964	87.29
771.143	85.83
771.321	86.62
771.5	87.42
771.678	86.48
771.857	84.9
772.035	84.8
772.213	82.92
772.392	80.48
772.57	81.64
772.748	82.88
772.927	82.07
773.105	83.09
773.283	85.18
773.461	86.34
773.64	86.9
773.818	88.6
773.996	89.28
774.174	87.61
774.352	84.47
774.531	80.94
774.709	81.26
774.887	79.17
775.065	78.95
775.243	78.25
775.421	79.94
775.599	80.43
775.777	79.59
775.955	77.64
776.133	78.1
776.311	79
776.489	76
776.667	77.9
776.844	79.14
777.022	79.09
777.2	78.42
777.378	78.4
777.556	76.33
777.734	78.94
777.911	82.71
778.089	82.54
778.267	84.28
778.445	86.06
778.622	83.72
778.8	79.75
778.978	80.52
779.155	78.88
779.333	77.44
779.511	78.34
779.688	80.27
779.866	78.14
780.043	75.06
780.221	76.34
780.398	74.47
780.576	77.45
780.753	79.23
780.931	82.1
781.108	81.97
781.286	82.83
781.463	79.24
781.64	75.48
781.818	74.64
781.995	75.48
782.172	76.38
782.35	75.53
782.527	79.46
782.704	80.65
782.882	79.77
783.059	79.21
783.236	78.28
783.413	78.77
783.59	79.33
783.768	78.34
783.945	78.9
784.122	80.85
784.299	79.03
784.476	76.53
784.653	77.28
784.83	73.95
785.007	71.68
785.184	71.21
785.361	71.41
785.538	73.36
785.715	76.93
785.892	79.47
786.069	80.98
786.246	84.8
786.423	83.53
786.6	81.08
786.776	81.83
786.953	82.14
787.13	80.6
787.307	79.33
787.484	81.32
787.66	79.85
787.837	77.6
788.014	76.42
788.191	76
788.367	74.03
788.544	75.93
788.721	74.83
788.897	74.63
789.074	76.21
789.25	75.52
789.427	74.54
789.603	75.19
789.78	75.76
789.956	76.14
790.133	75.42
790.309	75.69
790.486	79.69
790.662	80.1
790.839	76.51
791.015	80.03
791.192	75.77
791.368	78.32
791.544	75.53
791.721	75.45
791.897	75.57
792.073	75.76
792.249	67.04
792.426	69.21
792.602	72.92
792.778	72.01
792.954	71.24
793.13	70.95
793.307	64.72
793.483	59.51
793.659	61.07
793.835	65.74
794.011	66.88
794.187	73.05
794.363	70.69
794.539	70.72
794.715	64.4
794.891	64.11
795.067	66.51
795.243	65.9
795.419	60.14
795.595	60.86
795.771	60.78
795.947	57.74
796.122	58.92
796.298	64.25
796.474	65.13
796.65	65.71
796.826	64.38
797.001	66.34
797.177	61.63
797.353	65.48
797.529	67.66
797.704	70.44
797.88	65.07
798.056	63.98
798.231	63.61
798.407	65.88
798.582	63.44
798.758	76.09
798.934	81.22
799.109	77.93
799.285	73.8
799.46	76.67
799.636	68.75
799.811	68.07
799.986	72.6
800.162	72.79
800.337	73.35
800.513	67.97
800.688	66.12
800.863	69.91
801.039	64.95
801.214	60.09
801.389	68.17
801.565	67.81
801.74	54.8
801.915	61.95
802.09	60.65
802.265	65.84
802.441	61.91
802.616	66.91
802.791	67.48
802.966	68.07
803.141	63.87
803.316	67.84
803.491	70.72
803.666	73.3
803.841	66.93
804.016	62.32
804.191	60.92
804.366	56.85
804.541	50.37
804.716	59.16
804.891	58.36
805.066	60.48
805.241	54.67
805.416	56.86
805.591	53.82
805.765	59.14
805.94	65.49
806.115	71.88
806.29	69.84
806.464	74.2
806.639	67.55
806.814	55.46
806.989	47.56
807.163	55.36
807.338	53.29
807.512	59.58
807.687	48.03
807.862	62.14
808.036	62.15
808.211	64.48
808.385	63
808.56	76.87
808.734	80.4
808.909	70.53
809.083	59.93
809.258	66.51
809.432	70.64
809.606	57.89
809.781	62.91
809.955	72.81
810.13	76.68
810.304	68.93
810.478	69.52
810.652	68.58
810.827	64.71
811.001	54.42
811.175	55.32
811.349	48.6
811.524	44.95
811.698	36.77
811.872	46.18
812.046	51.77
812.22	62.92
812.394	66.1
812.568	68.07
812.742	62.42
812.916	58.4
813.09	53.22
813.264	44.62
813.438	54.06
813.612	56.45
813.786	52.98
813.96	60.08
814.134	68.91
814.308	80.18
814.482	81.9
814.656	74.9
814.83	75.43
815.003	76.07
815.177	61.87
815.351	49.28
815.525	56.9
815.698	50.24
815.872	38.79
816.046	32.12
816.219	43.96
816.393	49.7
816.567	60.87
816.74	66.92
816.914	69.07
817.088	70.78
817.261	56.69
817.435	45.23
817.608	45.32
817.782	44.59
817.955	37.68
818.129	48.84
818.302	48.68
818.475	60.9
818.649	56.71
818.822	46.97
818.996	64.21
819.169	60.19
819.342	45.93
819.516	57.04
819.689	69.89
819.862	49.17
820.035	40.32
820.209	44.18
820.382	46.43
820.555	45.26
820.728	39.48
820.901	52.77
821.075	43.83
821.248	38.55
821.421	24.48
821.594	29.28
821.767	43.78
821.94	61.65
822.113	42.39
822.286	49.27
822.459	62.11
822.632	53.19
822.805	41.92
822.978	45.14
823.151	52.97
823.324	33.39
823.496	10.98
823.669	1.14
823.842	6.74
824.015	-25.88
824.188	-30.82
824.361	-27.11
824.533	-16.62
824.706	3.92
824.879	10.66
825.051	21.01
825.224	18.07
825.397	17.18
825.569	-1.01
825.742	16.36
825.915	35.23
826.087	55.59
826.26	50.76
826.432	46.99
826.605	56.52
826.777	38.9
826.95	34.25
827.122	24.55
827.295	41.96
827.467	36.3
827.64	14.95
827.812	12.05
827.984	11.71
828.157	-23.02
828.329	-41.96
828.501	-24.12
828.674	6.08
828.846	-1.31
829.018	26.57
829.19	20.55
829.363	45.55
829.535	31.33
829.707	41.81
829.879	19.1
830.051	13.75
830.223	-9.58
830.395	-34.01
830.568	-43.9
830.74	-48.57
830.912	-32.43
831.084	-55.61
831.256	-31.79
831.428	-28.19
831.6	-37.18
831.772	-49.79
831.943	-31.44
832.115	-17.46
832.287	-6.04
832.459	15.87
832.631	14.57
832.803	36.04
832.975	42.5
833.146	35.83
833.318	29.66
833.49	57.4
833.662	34.18
833.833	9.89
834.005	18.98
834.177	21.79
834.348	29.02
834.52	22.44
834.692	40.77
834.863	9.42
835.035	26.29
835.206	-35.13
835.378	-12.6
835.549	-17.58
835.721	17.97
835.892	-3.68
836.064	12.42
836.235	23.55
836.407	42.88
836.578	-12.07
836.749	-0.87
836.921	-62.94
837.092	-107.52
837.264	-89.15
837.435	-78.81
837.606	-38.52
837.777	6.41
837.949	26.43
838.12	28.08
838.291	43.42
838.462	29.73
838.633	-3.88
838.805	-0.95
838.976	4.3
839.147	-71.69
839.318	-63.01
839.489	-101.94
839.66	-94.28
839.831	-50.98
840.002	-15.94
840.173	-7.56
840.344	58.76
840.515	97.96
840.686	5.03
840.857	-48.84
841.028	-64.72
841.199	-69.55
841.369	-72.39
841.54	-58.36
841.711	-2.58
841.882	4.27
842.053	21.19
842.223	0.87
842.394	13.76
842.565	11.68
842.736	15.74
842.906	14.57
843.077	27.59
843.248	33.62
843.418	18.26
843.589	4.08
843.759	44.71
843.93	6.12
844.101	22.61
844.271	29.81
844.442	36.74
844.612	40.79
844.783	39.76
844.953	4.32
845.123	6.8
845.294	11.96
845.464	-140.9
845.635	-34.55
845.805	14.88
845.975	27.42
846.146	1.7
846.316	-1.18
846.486	11.43
846.656	32.11
846.827	5.74
846.997	4.98
847.167	-5.1
847.337	-20.55
847.507	-58.19
847.677	-21.84
847.848	25.67
848.018	34.76
848.188	33.82
848.358	15.04
848.528	-0.78
848.698	-54.56
848.868	-154.48
849.038	-237.82
849.208	-75.75
849.378	-66.37
849.548	-33.54
849.718	-13.61
849.887	-11.82
850.057	-42.38
850.227	-85.8
850.397	-101.62
850.567	-267.19
850.737	-494.78
850.906	-1111.25
851.076	-750.78
851.246	-419.9
851.415	-44.83
851.585	-48.82
851.755	-105.92
851.924	-48.14
852.094	-114.96
852.264	-180.09
852.433	-1059.62
852.603	-135.4
852.772	-97.61
852.942	-20.45
853.111	-32.87
853.281	-5.04
853.45	6.43
853.62	-44.46
853.789	-54.17
853.959	-70.04
854.128	-81.33
854.297	-112.2
854.467	-133.77
854.636	-162.57
854.805	-47.42
854.975	-65.44
855.144	-152.33
855.313	-15.38
855.482	-344.53
855.652	-238.03
855.821	-158.14
855.99	12.9
856.159	24.03
856.328	33.65
856.497	18.63
856.667	27.04
856.836	21.74
857.005	-15.47
857.174	-25.92
857.343	-47.14
857.512	-51.03
857.681	-90.2
857.85	-108.83
858.019	-61.41
858.188	-53.84
858.356	-67.99
858.525	-97.76
858.694	-72.11
858.863	-149.27
859.032	-83.22
859.201	-95.98
859.369	-1.79
859.538	-0.21
859.707	-13.08
859.876	-25.5
860.044	-14.1
860.213	13.05
860.382	0.71
860.55	1.83
860.719	38.71
860.888	36.65
861.056	4.79
861.225	-21.54
861.393	17.83
861.562	-1.91
861.73	-83.98
861.899	-272.25
862.067	-2289.66
862.236	-180.81
862.404	-342.65
862.572	-179
862.741	-77.19
862.909	-43.6
863.078	-112.16
863.246	-70.3
863.414	-52.93
863.582	-35.75
863.751	-71.18
863.919	-60.99
864.087	-2.1
864.255	-26.8
864.424	-222.71
864.592	28.46
864.76	-33.62
864.928	-296
865.096	-124.52
865.264	-119.95
865.432	-2668.18
865.6	-216.5
865.768	-155.6
865.936	-176.66
866.104	-214.7
866.272	-218.75
866.44	-420.87
866.608	688.59
866.776	323.98
866.944	3141.86
867.112	-591.53
867.28	-275.65
867.448	-95.81
867.615	-23.44
867.783	13.31
867.951	6.65
868.119	75.42
868.286	51.31
868.454	-57.43
868.622	-115.51
868.789	-29.7
868.957	-1785.71
869.125	-1707.89
869.292	-134.4
869.46	-186.88
869.627	-55.64
869.795	-28.21
869.963	4.33
870.13	22.07
870.298	24.33
870.465	-68.7
870.632	-107.78
870.8	-90.55
870.967	-175.43
871.135	-226.22
871.302	-131.84
871.469	-156.19
871.637	-252.31
871.804	-81.8
871.971	-99.8
872.139	-600.47
872.306	-96.88
872.473	-112.04
872.64	-394.42
872.807	-162.99
872.975	25.46
873.142	-170.55
873.309	748.65
873.476	33.96
873.643	101.19
873.81	47.71
873.977	80.67
874.144	55.13
874.311	-61.65
874.478	-148.64
874.645	-133.56
874.812	-114.29
874.979	-79.57
875.146	-55.15
875.313	-55.31
875.48	14.1
875.647	-10.21
875.813	-27.72
875.98	-14.43
876.147	-38.03
876.314	-91.36
876.481	761.98
876.647	-1015.73
876.814	379.79
876.981	5.38
877.147	-38.9
877.314	7.55
877.481	10.37
877.647	25.13
877.814	-17.14
877.98	-26.61
878.147	28.35
878.314	88.95
878.48	51.88
878.647	102.04
878.813	100.63
878.979	48.86
879.146	-15.08
879.312	-21.27
879.479	-104.32
879.645	-215.32
879.811	-356.15
879.978	-683.21
880.144	-162.08
880.31	-104.06
880.477	-286.63
880.643	-361.62
880.809	-162.58
880.975	-122.39
881.142	-650
881.308	-56.45
881.474	42.9
881.64	20.19
881.806	4.64
881.972	-18.05
882.138	-3.73
882.304	11.82
882.47	-113.26
882.636	-590.98
882.802	-126.43
882.968	-45.81
883.134	-50.15
883.3	-11.24
883.466	23.76
883.632	80.66
883.798	58.18
883.964	60.21
884.129	25.47
884.295	55.29
884.461	-48.31
884.627	-54.01
884.793	-71.05
884.958	-1.46
885.124	-96.01
885.29	-170.49
885.455	-368.93
885.621	-93.46
885.787	-192.29
885.952	-111.94
886.118	-84.05
886.283	-43.06
886.449	-146.61
886.614	-135.18
886.78	-262.31
886.945	1462.3
887.111	-864.16
887.276	-733.52
887.442	-1282.73
887.607	-586.32
887.773	-364.33
887.938	-276.76
888.103	-308.67
888.269	-223.49
888.434	-360.54
888.599	-143.84
888.764	-67.58
888.93	-35.81
889.095	-53.48
889.26	-96.07
889.425	-103.83
889.59	-120.62
889.756	-129.29
889.921	-87.5
890.086	-32.13
890.251	2.92
890.416	-131.35
890.581	-1322.58
890.746	191.07
890.911	327.39
891.076	168.8
891.241	-202.24
891.406	96.1
891.571	91.47
891.736	-27.98
891.901	-213.27
892.065	531.87
892.23	160.7
892.395	219.77
892.56	346.24
892.725	-307.81
892.889	-265.85
893.054	-128.08
893.219	-52.65
893.384	14.93
893.548	-28.8
893.713	-54.35
893.878	-9.35
