Data from Ofra_2a_PS_1GT42_Reflection_3.txt Node
Date: Tue Jul 20 09:35:20 EDT 2021
User: Adam
Spectrometer: FLMT01687
Trigger mode: 0
Integration Time (sec): 9.450000E-1
Scans to average: 3
Electric dark correction enabled: true
Nonlinearity correction enabled: false
Boxcar width: 3
XAxis mode: Wavelengths
Number of Pixels in Spectrum: 3648
>>>>>Begin Spectral Data<<<<<
179.494	800.59
179.716	427.02
179.937	406.04
180.158	1194.14
180.38	-403.78
180.601	-42.1
180.823	60.21
181.044	79.18
181.265	-174.76
181.486	-69.22
181.708	-3153.26
181.929	-277.33
182.15	-952.84
182.372	123.19
182.593	42.89
182.814	336.38
183.035	249.48
183.257	137.89
183.478	108.81
183.699	92.14
183.92	71.54
184.141	67.12
184.363	58.22
184.584	50.82
184.805	42.9
185.026	15.41
185.247	19.87
185.468	-4.96
185.689	24.68
185.91	22.05
186.132	31.84
186.353	29.69
186.574	33.05
186.795	28.61
187.016	37.37
187.237	27.09
187.458	29
187.679	-2.31
187.9	20.47
188.121	38.15
188.342	55.87
188.563	72.3
188.784	68.36
189.005	75.58
189.226	82.72
189.447	78.29
189.667	58.41
189.888	57.8
190.109	39.8
190.33	32.82
190.551	18.05
190.772	16.78
190.993	20.15
191.214	29.71
191.434	23.48
191.655	41.16
191.876	49.71
192.097	50.12
192.318	47.11
192.538	49.28
192.759	55.02
192.98	34.69
193.201	41.8
193.421	46.97
193.642	50.85
193.863	65.62
194.083	41.49
194.304	22.61
194.525	49.88
194.745	21.07
194.966	14.7
195.187	18.12
195.407	19.99
195.628	29.14
195.848	39.5
196.069	36.07
196.29	37.44
196.51	29.82
196.731	41.38
196.951	40.74
197.172	36.49
197.392	24.17
197.613	13.74
197.833	10.8
198.054	11.8
198.274	-10.57
198.495	-17.85
198.715	-19.16
198.936	-31.93
199.156	-18.35
199.377	-7.53
199.597	-18.72
199.817	-1.29
200.038	10.81
200.258	13.77
200.479	19.66
200.699	24.71
200.919	5.48
201.14	16.53
201.36	13.68
201.58	13.21
201.801	11.96
202.021	19.56
202.241	16.56
202.461	36.42
202.682	41.27
202.902	39.87
203.122	41.31
203.342	48.98
203.563	45.12
203.783	44.33
204.003	41.33
204.223	41.88
204.443	47.68
204.663	43.15
204.884	39.04
205.104	38.49
205.324	50.5
205.544	52.81
205.764	65.13
205.984	50.73
206.204	55.59
206.424	51.08
206.644	54.3
206.864	48.66
207.084	45.01
207.304	33.97
207.525	32.89
207.745	35.31
207.964	43.17
208.184	23.36
208.404	26.34
208.624	16.62
208.844	0.17
209.064	8.9
209.284	10.55
209.504	6.55
209.724	0.61
209.944	2.91
210.164	6.54
210.384	20.44
210.604	6.26
210.823	-11.17
211.043	-29
211.263	-2.29
211.483	-5.24
211.703	-4.76
211.922	2.32
212.142	16.69
212.362	31.78
212.582	42.65
212.801	35.32
213.021	43.57
213.241	50.47
213.461	57.06
213.68	49.87
213.9	59.35
214.12	56.3
214.339	59.26
214.559	57.54
214.779	61.09
214.998	54.63
215.218	55.5
215.438	48.92
215.657	39.47
215.877	35.95
216.096	29.76
216.316	24.7
216.535	25.44
216.755	16.81
216.974	8.07
217.194	31.1
217.413	33.84
217.633	38.01
217.852	43.38
218.072	40.86
218.291	46.23
218.511	42.75
218.73	27.25
218.95	23.89
219.169	27.5
219.389	26.95
219.608	27.23
219.827	17.55
220.047	15.79
220.266	25.6
220.485	25.51
220.705	11.98
220.924	11.02
221.143	-0.17
221.363	3.68
221.582	7.57
221.801	11.23
222.021	13.96
222.24	16.21
222.459	11.11
222.678	24.04
222.897	4.17
223.117	0.03
223.336	-0.43
223.555	-13.89
223.774	-7.14
223.993	14.44
224.213	20.53
224.432	37.27
224.651	39.45
224.87	36.23
225.089	51.77
225.308	54.63
225.527	53.99
225.746	45.22
225.965	40.02
226.184	35.03
226.404	27.04
226.623	31.07
226.842	26.58
227.061	17.83
227.28	35.38
227.499	38.78
227.718	34.76
227.936	34.58
228.155	27.92
228.374	33.66
228.593	29.77
228.812	13.52
229.031	8.4
229.25	25.25
229.469	36.19
229.688	36.99
229.907	34.91
230.125	35.53
230.344	43.42
230.563	43.74
230.782	35.37
231.001	32.88
231.22	31.02
231.438	32.54
231.657	30.17
231.876	30.38
232.095	27.14
232.313	36.66
232.532	29.77
232.751	34.17
232.969	33.92
233.188	39.37
233.407	39.21
233.625	37.52
233.844	31.96
234.063	33.12
234.281	26.6
234.5	24.4
234.719	20.85
234.937	26.58
235.156	19.65
235.374	16.22
235.593	18.58
235.811	20.4
236.03	13.18
236.249	27.45
236.467	25.18
236.686	50.52
236.904	37.5
237.123	32.98
237.341	32.82
237.559	39.53
237.778	46.58
237.996	44.26
238.215	30.37
238.433	40.09
238.652	35.86
238.87	36.15
239.088	23.64
239.307	13.34
239.525	5.55
239.743	4.94
239.962	-6.58
240.18	2.3
240.398	9.76
240.617	24.03
240.835	31.09
241.053	44.09
241.271	48.19
241.49	52.8
241.708	49.16
241.926	34.13
242.144	39.8
242.363	28.45
242.581	27.78
242.799	15.3
243.017	15.07
243.235	2.94
243.453	2.81
243.672	-13.9
243.89	-5.87
244.108	-4.37
244.326	-5.13
244.544	-4.39
244.762	11.27
244.98	13.89
245.198	8.96
245.416	4.03
245.634	12.38
245.852	19.94
246.07	12.8
246.288	1.04
246.506	11.02
246.724	25.82
246.942	28.25
247.16	16.66
247.378	9.53
247.596	26.82
247.814	22.67
248.032	15.48
248.25	8.67
248.468	23.35
248.685	21.64
248.903	19.13
249.121	22
249.339	26.22
249.557	35.57
249.775	24.83
249.992	11.22
250.21	7.94
250.428	9.33
250.646	3.32
250.863	5.82
251.081	0.24
251.299	20.12
251.517	28.03
251.734	38.8
251.952	46.35
252.17	25.34
252.387	35.88
252.605	40.91
252.823	27.47
253.04	21.57
253.258	14.9
253.475	24.13
253.693	33.36
253.911	28.64
254.128	27.1
254.346	23.5
254.563	20.23
254.781	23.74
254.998	21.33
255.216	24.08
255.433	17.92
255.651	19.32
255.868	25.24
256.086	38.77
256.303	34.8
256.521	17.18
256.738	14.49
256.956	2.38
257.173	-2.47
257.39	9.13
257.608	1.96
257.825	6.44
258.043	14.6
258.26	18.26
258.477	33.29
258.695	44.48
258.912	46.49
259.129	43.48
259.346	48.32
259.564	58.56
259.781	54.94
259.998	51.75
260.216	49.95
260.433	41.36
260.65	42.16
260.867	20.76
261.084	20.05
261.302	11.14
261.519	10.58
261.736	-2.78
261.953	2.15
262.17	5.86
262.387	13.72
262.604	12.43
262.822	13.93
263.039	11.39
263.256	12.75
263.473	2.66
263.69	10.31
263.907	5.72
264.124	5.06
264.341	5.96
264.558	13.64
264.775	19.7
264.992	26.65
265.209	22.4
265.426	20.61
265.643	18.04
265.86	12.87
266.077	9.79
266.294	10.37
266.51	13.01
266.727	4.48
266.944	-39.75
267.161	-35.78
267.378	-33.44
267.595	-33.39
267.812	-48.08
268.028	-43.8
268.245	-24.45
268.462	18.14
268.679	15.27
268.896	16.87
269.112	32.89
269.329	43.85
269.546	38.21
269.763	39.42
269.979	39.16
270.196	42.9
270.413	45.23
270.629	24.45
270.846	23.15
271.063	26.41
271.279	24.85
271.496	16.12
271.712	16.58
271.929	16.01
272.146	26.75
272.362	11.19
272.579	0.21
272.795	-8.3
273.012	10.78
273.228	2.97
273.445	10.41
273.661	11.25
273.878	21.1
274.094	23.91
274.311	27.99
274.527	18.02
274.744	23.31
274.96	21.03
275.177	30.46
275.393	31.41
275.609	41.53
275.826	45.53
276.042	57.07
276.259	54.88
276.475	46.85
276.691	35.67
276.908	27.38
277.124	25.26
277.34	16.69
277.557	12.93
277.773	7.89
277.989	0.81
278.205	-1.23
278.422	13.57
278.638	23.04
278.854	28.98
279.07	24.7
279.286	28.04
279.503	40.64
279.719	44.13
279.935	38.36
280.151	37.02
280.367	36.29
280.583	38.98
280.799	46.7
281.016	46.45
281.232	41.44
281.448	36.9
281.664	19.75
281.88	16.98
282.096	12.72
282.312	-10.49
282.528	-35.46
282.744	-30.62
282.96	-12.26
283.176	3.65
283.392	9.57
283.608	8.03
283.824	13.66
284.04	23.34
284.256	22.4
284.471	26.95
284.687	20.71
284.903	18.08
285.119	9.73
285.335	11.36
285.551	22.58
285.767	37.26
285.982	35.61
286.198	47.34
286.414	45.64
286.63	54.52
286.846	59.54
287.061	60.56
287.277	60.02
287.493	56.65
287.709	51.69
287.924	47.09
288.14	50.9
288.356	48.12
288.571	37.19
288.787	30.46
289.003	33.34
289.218	29.96
289.434	29.55
289.65	26.71
289.865	32.36
290.081	33.96
290.296	28.49
290.512	30.82
290.727	41.56
290.943	34.3
291.159	28.83
291.374	38.62
291.59	33.08
291.805	44.45
292.021	29.31
292.236	17.07
292.451	24.8
292.667	36.17
292.882	15.34
293.098	16.28
293.313	6.26
293.529	13.3
293.744	11.99
293.959	16.35
294.175	5.5
294.39	17.95
294.605	24.66
294.821	26.87
295.036	28.96
295.251	39.65
295.467	28.47
295.682	32.64
295.897	29.16
296.112	32.45
296.328	36.17
296.543	37.23
296.758	33.06
296.973	41.73
297.188	37.06
297.404	38.51
297.619	35.05
297.834	39.26
298.049	38.32
298.264	39.09
298.479	24.18
298.694	24.47
298.909	12.64
299.125	17.33
299.34	11.63
299.555	16.94
299.77	10.88
299.985	17.85
300.2	15.29
300.415	30.5
300.63	29.81
300.845	28.55
301.06	19.72
301.275	27.12
301.49	33.48
301.704	41.87
301.919	31.33
302.134	14.88
302.349	8.51
302.564	4.36
302.779	-1.43
302.994	-10.4
303.209	-24.82
303.423	-11.23
303.638	9.34
303.853	27.68
304.068	26.69
304.283	28.8
304.497	37.97
304.712	40.15
304.927	35.61
305.142	32.58
305.356	30.35
305.571	40.83
305.786	36.89
306	31.03
306.215	31.22
306.43	40.6
306.644	43.29
306.859	43.94
307.074	38.14
307.288	40.81
307.503	37.87
307.717	33.92
307.932	27.19
308.147	21.8
308.361	18.09
308.576	19.86
308.79	16.13
309.005	14.7
309.219	17.06
309.434	15.23
309.648	12.39
309.863	13.33
310.077	8.27
310.292	7.89
310.506	31.69
310.72	27.2
310.935	32.3
311.149	27.29
311.364	33.93
311.578	30.27
311.792	30.82
312.007	11.8
312.221	23.64
312.435	20.11
312.649	-2.39
312.864	-21.56
313.078	-8.08
313.292	-2.31
313.507	8.25
313.721	-4.18
313.935	12.68
314.149	35.37
314.363	34.53
314.578	39.04
314.792	36.71
315.006	27.47
315.22	29.85
315.434	16.07
315.648	19.73
315.862	20.2
316.077	20.62
316.291	17.62
316.505	18.47
316.719	8.63
316.933	18.31
317.147	20.38
317.361	18.44
317.575	9.33
317.789	15.19
318.003	26.44
318.217	34.76
318.431	29.74
318.645	28.83
318.859	31.33
319.073	24.94
319.287	29.96
319.5	30.42
319.714	28.69
319.928	36.8
320.142	45.76
320.356	48.1
320.57	53.56
320.784	46.57
320.997	46.61
321.211	48.22
321.425	41.4
321.639	31.96
321.853	33.62
322.066	38.83
322.28	42.41
322.494	29.47
322.707	26.04
322.921	31.11
323.135	32.93
323.349	29.71
323.562	25.24
323.776	21.71
323.989	25.99
324.203	26.51
324.417	16.17
324.63	6.41
324.844	-0.15
325.057	11.08
325.271	3.79
325.485	9.18
325.698	6.73
325.912	18.57
326.125	25.3
326.339	31.77
326.552	24.83
326.766	33.83
326.979	27.1
327.193	26.57
327.406	15.15
327.619	-4.28
327.833	-5.13
328.046	-12.95
328.26	-20.13
328.473	-2.31
328.686	-1.96
328.9	-8.32
329.113	16.69
329.326	20.24
329.54	29.42
329.753	31.97
329.966	18.4
330.179	32.77
330.393	40.17
330.606	38.18
330.819	38.86
331.032	43.27
331.246	39.98
331.459	52.08
331.672	40.19
331.885	34.34
332.098	36.52
332.311	20.28
332.525	18.91
332.738	25.42
332.951	29.16
333.164	24.53
333.377	12.84
333.59	5.06
333.803	16.23
334.016	4.77
334.229	0.03
334.442	-1.18
334.655	15.9
334.868	37.08
335.081	40.54
335.294	39.35
335.507	44.65
335.72	35.47
335.933	26.15
336.146	21.69
336.359	17.42
336.572	16.73
336.785	24.94
336.997	21.86
337.21	26.7
337.423	23.82
337.636	20.46
337.849	20.21
338.062	14.94
338.274	5.43
338.487	12.94
338.7	17.47
338.913	20.02
339.125	14.8
339.338	15.22
339.551	29.39
339.763	28.86
339.976	22.05
340.189	11.72
340.402	13.41
340.614	16.67
340.827	12.23
341.039	8.91
341.252	7.05
341.465	2.36
341.677	8.92
341.89	8.8
342.102	16.01
342.315	20.38
342.527	12.18
342.74	18.8
342.952	25.62
343.165	34.11
343.377	34.98
343.59	31.54
343.802	32.09
344.015	30.23
344.227	21.59
344.44	26.68
344.652	26.07
344.864	32.85
345.077	26.13
345.289	26.92
345.502	31.56
345.714	30.2
345.926	29.46
346.139	20.44
346.351	6.43
346.563	14.6
346.775	7.72
346.988	11.91
347.2	11.25
347.412	13.71
347.624	19.59
347.837	19.37
348.049	24.92
348.261	26.55
348.473	24.68
348.685	38.88
348.897	31.71
349.11	25.37
349.322	26.24
349.534	15.61
349.746	10.95
349.958	10.66
350.17	3.54
350.382	-1.48
350.594	-5.1
350.806	-0.69
351.018	4.46
351.23	17.33
351.442	18.15
351.654	24.48
351.866	30.25
352.078	33.9
352.29	38.36
352.502	38.7
352.714	41.16
352.926	30.15
353.138	21.49
353.35	19.12
353.561	17.01
353.773	13.03
353.985	16.65
354.197	9.78
354.409	17.68
354.621	16
354.832	13.92
355.044	19.46
355.256	16.4
355.468	13.11
355.679	13.71
355.891	14.95
356.103	17.59
356.314	18.29
356.526	11.97
356.738	12.02
356.949	18.43
357.161	21.21
357.373	23.69
357.584	21.39
357.796	20.61
358.008	27.44
358.219	36.35
358.431	29.2
358.642	18.28
358.854	16.92
359.065	20.4
359.277	22.24
359.488	11.94
359.7	12.16
359.911	5.67
360.123	20.45
360.334	17.94
360.546	3.66
360.757	5.51
360.969	18.74
361.18	13.9
361.391	21.82
361.603	17.21
361.814	20.07
362.025	27.66
362.237	32.25
362.448	30.9
362.659	24.8
362.871	29.74
363.082	30.36
363.293	33.71
363.504	37.85
363.716	32.76
363.927	23.04
364.138	28.12
364.349	28.16
364.56	24.77
364.772	20.61
364.983	12.73
365.194	13.31
365.405	19.86
365.616	17.85
365.827	5.85
366.038	9.99
366.25	12.85
366.461	18.86
366.672	12.23
366.883	15.28
367.094	12.52
367.305	14.05
367.516	11.52
367.727	10.17
367.938	13.44
368.149	16.65
368.36	11.55
368.571	15.97
368.781	19.13
368.992	21.02
369.203	19.65
369.414	15.74
369.625	13.81
369.836	19.48
370.047	18.98
370.258	17.06
370.468	14.25
370.679	12.61
370.89	17.78
371.101	20.38
371.312	15.51
371.522	13.82
371.733	6.13
371.944	9.73
372.155	5.44
372.365	0.66
372.576	2.47
372.787	1.3
372.997	2.12
373.208	20.74
373.419	16.76
373.629	22.95
373.84	20.37
374.05	25.6
374.261	20.67
374.472	25.73
374.682	15.14
374.893	17.02
375.103	11.6
375.314	16.31
375.524	14.88
375.735	17.47
375.945	9.33
376.156	8.7
376.366	11.27
376.577	19.61
376.787	23.71
376.997	22.4
377.208	24.71
377.418	26.72
377.629	26.3
377.839	26.74
378.049	25.98
378.26	23.88
378.47	25.62
378.68	26.14
378.89	27.4
379.101	24.45
379.311	20.74
379.521	21.23
379.732	14.41
379.942	8.62
380.152	9.8
380.362	12.19
380.572	16.5
380.783	18.66
380.993	16.11
381.203	16.57
381.413	22.11
381.623	21.99
381.833	21.57
382.043	13.93
382.253	13.29
382.463	18.43
382.674	19.77
382.884	13.59
383.094	14.72
383.304	15.28
383.514	26.15
383.724	22.8
383.934	19.64
384.144	24.07
384.353	28.58
384.563	22.59
384.773	19.68
384.983	16.84
385.193	19.68
385.403	16.79
385.613	9.03
385.823	6.26
386.033	10.17
386.242	8.72
386.452	8.26
386.662	8.21
386.872	10.91
387.082	12.11
387.291	9.76
387.501	9.65
387.711	11.76
387.921	10.84
388.13	7.92
388.34	5.78
388.55	7.42
388.759	10.03
388.969	6.38
389.179	8.23
389.388	7.74
389.598	8.74
389.807	7.01
390.017	4.49
390.227	3.66
390.436	4.71
390.646	3.11
390.855	4.45
391.065	3.77
391.274	4.33
391.484	6.92
391.693	6.68
391.903	6.41
392.112	6.01
392.322	6.73
392.531	7.11
392.74	5.92
392.95	5.13
393.159	6.33
393.369	6.52
393.578	6.16
393.787	5.48
393.997	6.49
394.206	7.82
394.415	7.79
394.625	5.86
394.834	4.89
395.043	6.07
395.252	6.81
395.462	5.81
395.671	6.42
395.88	6.01
396.089	6.76
396.298	7.16
396.508	6.44
396.717	5.51
396.926	5.31
397.135	4.22
397.344	4.24
397.553	4.37
397.762	4.69
397.971	4.61
398.181	4.11
398.39	4.14
398.599	4.77
398.808	5.18
399.017	5.19
399.226	5.18
399.435	4.9
399.644	5.07
399.853	5.32
400.062	4.93
400.27	4.5
400.479	4.49
400.688	4.38
400.897	4.72
401.106	4.77
401.315	4.57
401.524	4.82
401.733	5.11
401.941	5.08
402.15	4.92
402.359	4.82
402.568	4.74
402.777	4.84
402.985	4.65
403.194	4.54
403.403	4.3
403.612	4.36
403.82	4.31
404.029	4.37
404.238	4.39
404.446	4.32
404.655	4.13
404.864	4.22
405.072	4.23
405.281	4.15
405.489	4.19
405.698	4.03
405.906	4.04
406.115	4.21
406.324	4.16
406.532	4.24
406.741	4.31
406.949	4.18
407.158	4.21
407.366	4.2
407.574	4.2
407.783	4.14
407.991	4.01
408.2	3.96
408.408	4.03
408.617	4
408.825	3.96
409.033	3.85
409.242	3.83
409.45	3.8
409.658	3.75
409.867	3.69
410.075	3.69
410.283	3.63
410.491	3.68
410.7	3.75
410.908	3.77
411.116	3.77
411.324	3.84
411.533	3.72
411.741	3.76
411.949	3.77
412.157	3.78
412.365	3.75
412.573	3.79
412.781	3.71
412.99	3.93
413.198	3.97
413.406	3.9
413.614	3.89
413.822	3.9
414.03	3.86
414.238	3.93
414.446	3.75
414.654	3.74
414.862	3.73
415.07	3.76
415.278	3.74
415.486	3.84
415.694	3.73
415.902	3.7
416.109	3.75
416.317	3.69
416.525	3.74
416.733	3.73
416.941	3.59
417.149	3.61
417.357	3.72
417.564	3.68
417.772	3.73
417.98	3.59
418.188	3.49
418.395	3.52
418.603	3.44
418.811	3.34
419.019	3.26
419.226	3.26
419.434	3.19
419.642	3.26
419.849	3.24
420.057	3.25
420.265	3.25
420.472	3.25
420.68	3.19
420.887	3.26
421.095	3.22
421.302	3.28
421.51	3.35
421.717	3.42
421.925	3.35
422.132	3.32
422.34	3.3
422.547	3.3
422.755	3.22
422.962	3.12
423.17	3.03
423.377	3.14
423.585	3.23
423.792	3.16
423.999	3.13
424.207	3.08
424.414	3.16
424.621	3.22
424.829	3.11
425.036	3.06
425.243	3.13
425.451	3.15
425.658	3.26
425.865	3.23
426.072	3.23
426.28	3.24
426.487	3.24
426.694	3.14
426.901	3.1
427.108	3.07
427.315	3
427.523	3.01
427.73	3.13
427.937	3.21
428.144	3.23
428.351	3.36
428.558	3.35
428.765	3.41
428.972	3.31
429.179	3.2
429.386	3.22
429.593	3.29
429.8	3.32
430.007	3.36
430.214	3.35
430.421	3.44
430.628	3.34
430.835	3.27
431.042	3.28
431.249	3.22
431.456	3.19
431.662	3.25
431.869	3.31
432.076	3.46
432.283	3.43
432.49	3.42
432.697	3.42
432.903	3.48
433.11	3.54
433.317	3.48
433.524	3.42
433.73	3.48
433.937	3.49
434.144	3.56
434.35	3.49
434.557	3.44
434.764	3.45
434.97	3.51
435.177	3.48
435.384	3.49
435.59	3.5
435.797	3.52
436.003	3.51
436.21	3.5
436.416	3.51
436.623	3.61
436.829	3.58
437.036	3.54
437.242	3.6
437.449	3.68
437.655	3.66
437.862	3.65
438.068	3.65
438.275	3.65
438.481	3.73
438.687	3.73
438.894	3.7
439.1	3.75
439.307	3.75
439.513	3.74
439.719	3.83
439.926	3.81
440.132	3.77
440.338	3.77
440.544	3.73
440.751	3.74
440.957	3.7
441.163	3.68
441.369	3.72
441.575	3.75
441.782	3.73
441.988	3.78
442.194	3.81
442.4	3.89
442.606	3.92
442.812	3.93
443.018	3.97
443.224	3.99
443.431	3.99
443.637	3.99
443.843	3.97
444.049	3.97
444.255	3.93
444.461	3.94
444.667	3.97
444.873	3.96
445.079	3.99
445.284	3.98
445.49	3.98
445.696	3.99
445.902	4.03
446.108	4.04
446.314	4.14
446.52	4.15
446.726	4.21
446.931	4.25
447.137	4.26
447.343	4.23
447.549	4.22
447.755	4.13
447.96	4.11
448.166	4.15
448.372	4.14
448.578	4.12
448.783	4.09
448.989	4.11
449.195	4.2
449.4	4.24
449.606	4.15
449.812	4.17
450.017	4.21
450.223	4.27
450.428	4.27
450.634	4.24
450.84	4.24
451.045	4.27
451.251	4.3
451.456	4.32
451.662	4.27
451.867	4.27
452.073	4.25
452.278	4.28
452.483	4.34
452.689	4.32
452.894	4.27
453.1	4.27
453.305	4.26
453.51	4.3
453.716	4.27
453.921	4.22
454.127	4.25
454.332	4.31
454.537	4.4
454.742	4.39
454.948	4.41
455.153	4.46
455.358	4.52
455.563	4.52
455.769	4.51
455.974	4.46
456.179	4.47
456.384	4.45
456.589	4.44
456.795	4.38
457	4.4
457.205	4.42
457.41	4.42
457.615	4.56
457.82	4.65
458.025	4.63
458.23	4.69
458.435	4.61
458.64	4.64
458.845	4.65
459.05	4.56
459.255	4.49
459.46	4.52
459.665	4.58
459.87	4.66
460.075	4.66
460.28	4.66
460.485	4.67
460.69	4.6
460.895	4.63
461.099	4.64
461.304	4.63
461.509	4.58
461.714	4.61
461.919	4.6
462.123	4.74
462.328	4.7
462.533	4.65
462.738	4.7
462.942	4.79
463.147	4.75
463.352	4.83
463.556	4.82
463.761	4.87
463.966	4.9
464.17	4.87
464.375	4.85
464.58	4.87
464.784	4.85
464.989	4.81
465.193	4.84
465.398	4.89
465.602	4.89
465.807	4.9
466.011	4.96
466.216	4.91
466.42	5
466.625	5.03
466.829	5.04
467.034	5.1
467.238	5.1
467.443	5.1
467.647	5.18
467.851	5.12
468.056	5.07
468.26	5.03
468.464	4.99
468.669	5.08
468.873	5.06
469.077	5.09
469.282	5.17
469.486	5.22
469.69	5.24
469.894	5.29
470.099	5.29
470.303	5.33
470.507	5.28
470.711	5.29
470.915	5.28
471.119	5.32
471.324	5.28
471.528	5.28
471.732	5.33
471.936	5.41
472.14	5.41
472.344	5.42
472.548	5.46
472.752	5.51
472.956	5.53
473.16	5.5
473.364	5.48
473.568	5.49
473.772	5.59
473.976	5.56
474.18	5.56
474.384	5.53
474.588	5.54
474.792	5.53
474.995	5.56
475.199	5.54
475.403	5.54
475.607	5.58
475.811	5.63
476.015	5.69
476.218	5.72
476.422	5.74
476.626	5.71
476.83	5.77
477.033	5.75
477.237	5.72
477.441	5.7
477.644	5.72
477.848	5.72
478.052	5.75
478.255	5.73
478.459	5.81
478.663	5.84
478.866	5.85
479.07	5.89
479.273	5.9
479.477	5.95
479.681	5.95
479.884	5.9
480.088	5.92
480.291	5.96
480.495	5.95
480.698	5.92
480.901	5.91
481.105	5.98
481.308	5.99
481.512	6.02
481.715	6.01
481.919	6.01
482.122	6.05
482.325	6.08
482.529	6.09
482.732	6.14
482.935	6.14
483.138	6.18
483.342	6.17
483.545	6.16
483.748	6.14
483.952	6.12
484.155	6.14
484.358	6.14
484.561	6.14
484.764	6.17
484.967	6.19
485.171	6.17
485.374	6.2
485.577	6.19
485.78	6.17
485.983	6.15
486.186	6.16
486.389	6.14
486.592	6.16
486.795	6.12
486.998	6.12
487.201	6.15
487.404	6.17
487.607	6.16
487.81	6.21
488.013	6.22
488.216	6.22
488.419	6.2
488.622	6.17
488.825	6.16
489.028	6.15
489.231	6.11
489.433	6.08
489.636	6.09
489.839	6.11
490.042	6.14
490.245	6.16
490.447	6.17
490.65	6.18
490.853	6.19
491.056	6.18
491.258	6.16
491.461	6.12
491.664	6.08
491.866	6.09
492.069	6.11
492.272	6.11
492.474	6.14
492.677	6.13
492.879	6.15
493.082	6.19
493.285	6.22
493.487	6.2
493.69	6.19
493.892	6.18
494.095	6.19
494.297	6.22
494.5	6.25
494.702	6.21
494.905	6.23
495.107	6.25
495.309	6.22
495.512	6.25
495.714	6.28
495.917	6.28
496.119	6.32
496.321	6.34
496.524	6.33
496.726	6.34
496.928	6.36
497.13	6.35
497.333	6.36
497.535	6.34
497.737	6.31
497.939	6.35
498.142	6.38
498.344	6.38
498.546	6.38
498.748	6.38
498.95	6.41
499.152	6.4
499.355	6.36
499.557	6.38
499.759	6.42
499.961	6.45
500.163	6.47
500.365	6.46
500.567	6.48
500.769	6.54
500.971	6.55
501.173	6.56
501.375	6.54
501.577	6.55
501.779	6.58
501.981	6.62
502.183	6.62
502.385	6.6
502.587	6.61
502.788	6.59
502.99	6.56
503.192	6.59
503.394	6.6
503.596	6.62
503.798	6.68
503.999	6.68
504.201	6.72
504.403	6.77
504.605	6.78
504.806	6.8
505.008	6.81
505.21	6.8
505.411	6.84
505.613	6.87
505.815	6.89
506.016	6.91
506.218	6.92
506.42	6.92
506.621	6.96
506.823	6.95
507.024	6.93
507.226	6.94
507.427	6.95
507.629	6.94
507.83	6.93
508.032	6.98
508.233	7
508.435	7.02
508.636	7.02
508.838	7.04
509.039	7.11
509.24	7.12
509.442	7.07
509.643	7.11
509.845	7.16
510.046	7.18
510.247	7.2
510.448	7.23
510.65	7.27
510.851	7.28
511.052	7.32
511.254	7.29
511.455	7.3
511.656	7.32
511.857	7.32
512.058	7.33
512.26	7.34
512.461	7.31
512.662	7.35
512.863	7.35
513.064	7.35
513.265	7.37
513.466	7.39
513.667	7.4
513.868	7.42
514.069	7.43
514.27	7.45
514.471	7.43
514.672	7.4
514.873	7.42
515.074	7.46
515.275	7.47
515.476	7.49
515.677	7.53
515.878	7.6
516.079	7.66
516.28	7.63
516.481	7.62
516.682	7.64
516.882	7.63
517.083	7.63
517.284	7.58
517.485	7.58
517.686	7.6
517.886	7.64
518.087	7.64
518.288	7.66
518.488	7.7
518.689	7.7
518.89	7.73
519.091	7.74
519.291	7.75
519.492	7.76
519.692	7.8
519.893	7.77
520.094	7.81
520.294	7.79
520.495	7.83
520.695	7.84
520.896	7.83
521.096	7.84
521.297	7.85
521.497	7.82
521.698	7.86
521.898	7.89
522.099	7.89
522.299	7.89
522.499	7.93
522.7	7.94
522.9	7.97
523.101	7.97
523.301	7.96
523.501	7.96
523.702	8
523.902	7.99
524.102	8.01
524.302	8.04
524.503	8.05
524.703	8.07
524.903	8.11
525.103	8.12
525.304	8.12
525.504	8.13
525.704	8.14
525.904	8.15
526.104	8.16
526.304	8.12
526.504	8.1
526.705	8.13
526.905	8.14
527.105	8.13
527.305	8.14
527.505	8.18
527.705	8.22
527.905	8.25
528.105	8.24
528.305	8.25
528.505	8.27
528.705	8.29
528.905	8.27
529.105	8.31
529.304	8.32
529.504	8.35
529.704	8.37
529.904	8.41
530.104	8.39
530.304	8.43
530.503	8.45
530.703	8.48
530.903	8.49
531.103	8.49
531.303	8.52
531.502	8.5
531.702	8.47
531.902	8.45
532.101	8.45
532.301	8.45
532.501	8.49
532.7	8.49
532.9	8.57
533.1	8.62
533.299	8.66
533.499	8.66
533.698	8.7
533.898	8.68
534.097	8.69
534.297	8.71
534.496	8.7
534.696	8.7
534.895	8.75
535.095	8.78
535.294	8.78
535.494	8.82
535.693	8.83
535.892	8.86
536.092	8.87
536.291	8.94
536.491	8.93
536.69	8.96
536.889	8.94
537.088	8.96
537.288	9.01
537.487	9.06
537.686	9.05
537.886	9.09
538.085	9.14
538.284	9.17
538.483	9.2
538.682	9.21
538.882	9.21
539.081	9.27
539.28	9.27
539.479	9.27
539.678	9.33
539.877	9.36
540.076	9.38
540.275	9.43
540.474	9.4
540.673	9.46
540.872	9.52
541.071	9.55
541.27	9.55
541.469	9.55
541.668	9.58
541.867	9.62
542.066	9.66
542.265	9.65
542.464	9.65
542.663	9.73
542.862	9.78
543.06	9.79
543.259	9.85
543.458	9.83
543.657	9.9
543.856	9.97
544.054	9.99
544.253	10.02
544.452	10.02
544.651	10.05
544.849	10.1
545.048	10.13
545.247	10.15
545.445	10.16
545.644	10.22
545.843	10.32
546.041	10.37
546.24	10.44
546.438	10.49
546.637	10.57
546.836	10.62
547.034	10.64
547.233	10.68
547.431	10.73
547.63	10.76
547.828	10.82
548.027	10.83
548.225	10.9
548.423	10.97
548.622	11.05
548.82	11.12
549.019	11.15
549.217	11.22
549.415	11.3
549.614	11.35
549.812	11.4
550.01	11.46
550.209	11.5
550.407	11.61
550.605	11.68
550.803	11.72
551.002	11.79
551.2	11.88
551.398	11.91
551.596	11.96
551.794	12.03
551.993	12.04
552.191	12.16
552.389	12.22
552.587	12.25
552.785	12.35
552.983	12.47
553.181	12.52
553.379	12.64
553.577	12.72
553.775	12.83
553.973	12.95
554.171	13.01
554.369	13.02
554.567	13.09
554.765	13.11
554.963	13.14
555.161	13.2
555.359	13.25
555.557	13.35
555.755	13.48
555.952	13.57
556.15	13.66
556.348	13.8
556.546	13.89
556.744	13.99
556.941	14.08
557.139	14.18
557.337	14.23
557.535	14.34
557.732	14.4
557.93	14.48
558.128	14.55
558.325	14.6
558.523	14.62
558.721	14.7
558.918	14.78
559.116	14.88
559.313	15
559.511	15.08
559.708	15.2
559.906	15.34
560.104	15.5
560.301	15.59
560.498	15.68
560.696	15.74
560.893	15.85
561.091	15.92
561.288	16
561.486	16.06
561.683	16.17
561.88	16.25
562.078	16.34
562.275	16.43
562.473	16.53
562.67	16.6
562.867	16.7
563.064	16.78
563.262	16.92
563.459	17.05
563.656	17.21
563.853	17.31
564.051	17.45
564.248	17.54
564.445	17.65
564.642	17.75
564.839	17.86
565.036	17.89
565.234	18.03
565.431	18.11
565.628	18.21
565.825	18.31
566.022	18.33
566.219	18.37
566.416	18.49
566.613	18.54
566.81	18.62
567.007	18.7
567.204	18.77
567.401	18.9
567.598	18.96
567.795	19.03
567.991	19.13
568.188	19.21
568.385	19.29
568.582	19.37
568.779	19.43
568.976	19.53
569.172	19.61
569.369	19.68
569.566	19.71
569.763	19.81
569.96	19.88
570.156	19.9
570.353	19.97
570.55	20.02
570.746	20.07
570.943	20.19
571.14	20.22
571.336	20.24
571.533	20.33
571.729	20.38
571.926	20.42
572.123	20.43
572.319	20.45
572.516	20.51
572.712	20.52
572.909	20.57
573.105	20.61
573.302	20.63
573.498	20.67
573.695	20.69
573.891	20.71
574.087	20.76
574.284	20.73
574.48	20.74
574.677	20.75
574.873	20.79
575.069	20.83
575.266	20.84
575.462	20.89
575.658	20.98
575.854	20.99
576.051	21
576.247	20.99
576.443	21.02
576.639	21.03
576.835	21.05
577.032	21.03
577.228	21.05
577.424	21.1
577.62	21.15
577.816	21.15
578.012	21.15
578.208	21.16
578.404	21.2
578.6	21.21
578.796	21.2
578.993	21.19
579.189	21.21
579.384	21.24
579.58	21.23
579.776	21.2
579.972	21.18
580.168	21.17
580.364	21.15
580.56	21.16
580.756	21.1
580.952	21.08
581.148	21.07
581.343	21.07
581.539	21.06
581.735	21.03
581.931	21.01
582.127	20.99
582.322	21
582.518	20.94
582.714	20.95
582.909	20.96
583.105	20.93
583.301	20.87
583.496	20.87
583.692	20.86
583.888	20.87
584.083	20.9
584.279	20.94
584.474	20.93
584.67	20.95
584.866	20.99
585.061	20.97
585.257	20.99
585.452	20.98
585.648	20.88
585.843	20.9
586.039	20.88
586.234	20.84
586.429	20.85
586.625	20.8
586.82	20.79
587.015	20.81
587.211	20.83
587.406	20.88
587.601	20.93
587.797	20.92
587.992	20.94
588.187	20.99
588.383	21.03
588.578	21.01
588.773	20.99
588.968	21.05
589.163	21.08
589.359	21.11
589.554	21.09
589.749	21.09
589.944	21.17
590.139	21.22
590.334	21.19
590.529	21.23
590.724	21.27
590.919	21.36
591.114	21.36
591.309	21.39
591.504	21.4
591.699	21.43
591.894	21.5
592.089	21.5
592.284	21.49
592.479	21.55
592.674	21.56
592.869	21.6
593.064	21.71
593.259	21.73
593.454	21.77
593.648	21.83
593.843	21.91
594.038	22.02
594.233	22.12
594.428	22.16
594.622	22.25
594.817	22.33
595.012	22.37
595.206	22.44
595.401	22.5
595.596	22.57
595.79	22.59
595.985	22.66
596.18	22.77
596.374	22.89
596.569	22.97
596.763	23.03
596.958	23.03
597.153	23.12
597.347	23.21
597.542	23.28
597.736	23.36
597.931	23.41
598.125	23.5
598.319	23.63
598.514	23.68
598.708	23.76
598.903	23.82
599.097	23.84
599.291	23.93
599.486	23.9
599.68	23.95
599.874	24.02
600.069	24.04
600.263	24.06
600.457	24.1
600.651	24.16
600.846	24.29
601.04	24.33
601.234	24.45
601.428	24.46
601.622	24.51
601.817	24.62
602.011	24.61
602.205	24.64
602.399	24.64
602.593	24.59
602.787	24.69
602.981	24.74
603.175	24.65
603.369	24.67
603.563	24.66
603.757	24.66
603.951	24.65
604.145	24.63
604.339	24.6
604.533	24.65
604.727	24.65
604.921	24.6
605.115	24.56
605.309	24.59
605.502	24.56
605.696	24.5
605.89	24.48
606.084	24.44
606.278	24.4
606.471	24.37
606.665	24.3
606.859	24.26
607.053	24.24
607.246	24.2
607.44	24.13
607.634	24.1
607.827	24.01
608.021	23.9
608.214	23.82
608.408	23.73
608.602	23.65
608.795	23.56
608.989	23.53
609.182	23.55
609.376	23.53
609.569	23.46
609.763	23.51
609.956	23.43
610.15	23.41
610.343	23.34
610.537	23.24
610.73	23.2
610.923	23.19
611.117	23.04
611.31	22.92
611.504	22.87
611.697	22.76
611.89	22.68
612.083	22.58
612.277	22.41
612.47	22.36
612.663	22.3
612.856	22.2
613.05	22.14
613.243	22.09
613.436	22.03
613.629	22
613.822	21.9
614.015	21.86
614.209	21.83
614.402	21.75
614.595	21.67
614.788	21.57
614.981	21.5
615.174	21.4
615.367	21.33
615.56	21.2
615.753	21.18
615.946	21.15
616.139	21.15
616.332	21.08
616.525	21.08
616.718	21.02
616.911	21.02
617.103	20.95
617.296	20.87
617.489	20.8
617.682	20.77
617.875	20.69
618.067	20.63
618.26	20.55
618.453	20.44
618.646	20.39
618.838	20.35
619.031	20.27
619.224	20.23
619.417	20.23
619.609	20.17
619.802	20.19
619.994	20.14
620.187	20.1
620.38	20.09
620.572	20.07
620.765	20
620.957	19.98
621.15	19.93
621.342	19.97
621.535	19.93
621.727	19.87
621.92	19.81
622.112	19.84
622.305	19.75
622.497	19.69
622.69	19.61
622.882	19.6
623.074	19.61
623.267	19.59
623.459	19.52
623.651	19.54
623.844	19.56
624.036	19.59
624.228	19.54
624.42	19.53
624.613	19.5
624.805	19.5
624.997	19.47
625.189	19.46
625.381	19.35
625.574	19.33
625.766	19.26
625.958	19.23
626.15	19.24
626.342	19.27
626.534	19.18
626.726	19.21
626.918	19.16
627.11	19.21
627.302	19.18
627.494	19.14
627.686	19.08
627.878	19.04
628.07	18.98
628.262	18.95
628.454	18.92
628.646	18.88
628.838	18.8
629.029	18.71
629.221	18.69
629.413	18.64
629.605	18.63
629.797	18.57
629.989	18.52
630.18	18.47
630.372	18.5
630.564	18.5
630.755	18.48
630.947	18.44
631.139	18.38
631.33	18.36
631.522	18.33
631.714	18.31
631.905	18.29
632.097	18.29
632.289	18.23
632.48	18.18
632.672	18.14
632.863	18.13
633.055	18.1
633.246	18.08
633.438	18.05
633.629	18.07
633.821	18.12
634.012	18.14
634.203	18.21
634.395	18.21
634.586	18.21
634.777	18.12
634.969	18.13
635.16	18.1
635.351	18.09
635.543	18.03
635.734	17.99
635.925	17.98
636.117	18.04
636.308	18.02
636.499	17.98
636.69	18
636.881	18
637.073	17.99
637.264	17.94
637.455	17.92
637.646	17.93
637.837	17.9
638.028	17.89
638.219	17.83
638.41	17.81
638.601	17.76
638.792	17.74
638.983	17.66
639.174	17.67
639.365	17.57
639.556	17.55
639.747	17.55
639.938	17.62
640.129	17.59
640.32	17.64
640.511	17.61
640.701	17.63
640.892	17.66
641.083	17.62
641.274	17.56
641.465	17.59
641.655	17.57
641.846	17.52
642.037	17.49
642.228	17.43
642.418	17.41
642.609	17.36
642.8	17.28
642.99	17.26
643.181	17.27
643.372	17.26
643.562	17.23
643.753	17.22
643.943	17.17
644.134	17.19
644.324	17.11
644.515	17.07
644.705	17.04
644.896	17
645.086	16.94
645.277	17.09
645.467	17.09
645.658	17.09
645.848	17.09
646.038	17.06
646.229	17.07
646.419	17.11
646.61	16.93
646.8	16.85
646.99	16.88
647.18	16.89
647.371	16.87
647.561	16.8
647.751	16.74
647.941	16.77
648.132	16.77
648.322	16.78
648.512	16.76
648.702	16.78
648.892	16.84
649.082	16.86
649.272	16.81
649.462	16.8
649.653	16.75
649.843	16.63
650.033	16.56
650.223	16.5
650.413	16.46
650.603	16.45
650.793	16.37
650.983	16.32
651.172	16.34
651.362	16.29
651.552	16.27
651.742	16.17
651.932	16.13
652.122	16.11
652.312	16.01
652.502	15.91
652.691	15.84
652.881	15.73
653.071	15.66
653.261	15.6
653.45	15.5
653.64	15.49
653.83	15.42
654.019	15.32
654.209	15.25
654.399	15.14
654.588	15
654.778	14.9
654.968	14.73
655.157	14.56
655.347	14.39
655.536	14.18
655.726	14.11
655.915	13.95
656.105	13.85
656.294	13.75
656.484	13.69
656.673	13.67
656.863	13.61
657.052	13.42
657.241	13.33
657.431	13.13
657.62	12.88
657.809	12.71
657.999	12.53
658.188	12.35
658.377	12.22
658.567	12.03
658.756	11.91
658.945	11.83
659.134	11.68
659.324	11.52
659.513	11.38
659.702	11.2
659.891	11.07
660.08	10.94
660.269	10.82
660.458	10.67
660.648	10.54
660.837	10.45
661.026	10.36
661.215	10.16
661.404	9.95
661.593	9.8
661.782	9.67
661.971	9.57
662.16	9.39
662.349	9.24
662.538	9.22
662.726	9.17
662.915	9.06
663.104	8.94
663.293	8.78
663.482	8.71
663.671	8.62
663.86	8.5
664.048	8.41
664.237	8.32
664.426	8.29
664.615	8.18
664.803	8.06
664.992	7.99
665.181	7.9
665.369	7.81
665.558	7.77
665.747	7.7
665.935	7.67
666.124	7.67
666.312	7.55
666.501	7.49
666.69	7.5
666.878	7.44
667.067	7.41
667.255	7.42
667.444	7.37
667.632	7.4
667.82	7.39
668.009	7.33
668.197	7.26
668.386	7.18
668.574	7.15
668.762	7.08
668.951	7.06
669.139	7.09
669.327	7.01
669.516	7.02
669.704	7
669.892	6.97
670.08	6.95
670.269	6.93
670.457	6.88
670.645	6.93
670.833	6.91
671.021	6.9
671.21	6.91
671.398	6.97
671.586	6.99
671.774	6.98
671.962	6.98
672.15	6.99
672.338	7.04
672.526	7.08
672.714	7.08
672.902	7.13
673.09	7.19
673.278	7.19
673.466	7.3
673.654	7.33
673.842	7.39
674.03	7.42
674.218	7.42
674.405	7.57
674.593	7.66
674.781	7.67
674.969	7.7
675.157	7.71
675.344	7.78
675.532	7.86
675.72	7.77
675.908	7.81
676.095	7.95
676.283	8.01
676.471	8.07
676.658	8.17
676.846	8.23
677.033	8.36
677.221	8.45
677.409	8.45
677.596	8.58
677.784	8.69
677.971	8.77
678.159	8.88
678.346	8.96
678.534	8.99
678.721	9.02
678.909	9.03
679.096	9.09
679.283	9.19
679.471	9.24
679.658	9.35
679.846	9.47
680.033	9.61
680.22	9.73
680.408	9.78
680.595	9.83
680.782	9.9
680.969	9.92
681.157	9.99
681.344	10.12
681.531	10.21
681.718	10.35
681.905	10.49
682.093	10.67
682.28	10.92
682.467	11.04
682.654	11.1
682.841	11.26
683.028	11.45
683.215	11.6
683.402	11.68
683.589	11.78
683.776	11.99
683.963	12.26
684.15	12.39
684.337	12.51
684.524	12.74
684.711	12.88
684.898	13.13
685.085	13.38
685.271	13.62
685.458	13.92
685.645	14.25
685.832	14.47
686.019	14.86
686.205	15.09
686.392	15.32
686.579	15.62
686.766	15.96
686.952	16.39
687.139	16.67
687.326	17.08
687.512	17.49
687.699	17.92
687.886	18.19
688.072	18.64
688.259	18.95
688.445	19.38
688.632	19.83
688.818	20.26
689.005	20.78
689.191	21.35
689.378	21.81
689.564	22.26
689.751	22.82
689.937	23.2
690.124	23.81
690.31	24.29
690.496	24.84
690.683	25.38
690.869	26.04
691.055	26.72
691.242	27.28
691.428	27.83
691.614	28.62
691.8	29.25
691.987	29.92
692.173	30.67
692.359	31.31
692.545	32.2
692.731	32.95
692.918	33.42
693.104	33.98
693.29	34.72
693.476	35.34
693.662	35.97
693.848	36.56
694.034	37.1
694.22	37.88
694.406	38.79
694.592	39.41
694.778	40.01
694.964	40.81
695.15	41.57
695.336	42.5
695.522	43.24
695.708	43.85
695.894	44.51
696.08	45.25
696.265	45.84
696.451	46.53
696.637	47.05
696.823	47.64
697.009	48.42
697.194	49.24
697.38	49.74
697.566	50.44
697.751	50.96
697.937	51.69
698.123	52.4
698.308	52.86
698.494	53.43
698.68	54.11
698.865	54.7
699.051	55.46
699.236	56.03
699.422	56.61
699.607	57.09
699.793	57.54
699.978	58.19
700.164	58.77
700.349	59.28
700.535	59.81
700.72	60.22
700.906	60.83
701.091	61.23
701.276	61.7
701.462	62.16
701.647	62.43
701.832	62.91
702.018	63.25
702.203	63.71
702.388	64.05
702.573	64.5
702.759	64.92
702.944	65.47
703.129	65.74
703.314	66.31
703.499	66.67
703.684	67.26
703.87	67.47
704.055	67.81
704.24	68.08
704.425	68.66
704.61	68.83
704.795	69.36
704.98	69.64
705.165	70.06
705.35	70.36
705.535	70.91
705.72	71.04
705.905	71.43
706.09	71.66
706.275	72.05
706.459	72.51
706.644	72.79
706.829	73.03
707.014	73.28
707.199	73.52
707.384	73.82
707.568	74.1
707.753	74.35
707.938	74.42
708.123	74.5
708.307	75.02
708.492	75.3
708.677	75.43
708.861	75.74
709.046	75.52
709.231	76.1
709.415	76.27
709.6	76.26
709.784	76.52
709.969	76.8
710.153	76.96
710.338	77.51
710.522	77.53
710.707	77.63
710.891	77.86
711.076	78.17
711.26	78.39
711.445	78.43
711.629	78.62
711.813	78.76
711.998	78.98
712.182	78.97
712.366	79.24
712.551	79.37
712.735	79.44
712.919	79.61
713.103	79.47
713.288	79.66
713.472	79.86
713.656	79.62
713.84	79.65
714.024	80.03
714.208	79.89
714.393	80.32
714.577	80.44
714.761	80.64
714.945	80.82
715.129	80.97
715.313	80.93
715.497	81.39
715.681	81.68
715.865	81.8
716.049	81.88
716.233	82.23
716.417	82.5
716.601	82.6
716.785	82.49
716.968	82.26
717.152	82.51
717.336	82.64
717.52	82.53
717.704	82.46
717.888	82.58
718.071	82.71
718.255	82.99
718.439	82.76
718.622	82.67
718.806	82.43
718.99	82.51
719.174	82.6
719.357	82.98
719.541	83.15
719.724	83.57
719.908	83.96
720.092	84.33
720.275	84.63
720.459	84.76
720.642	84.74
720.826	84.51
721.009	84.41
721.193	84.28
721.376	84.1
721.559	84.26
721.743	84.11
721.926	84.02
722.11	84.36
722.293	84.36
722.476	84.44
722.66	84.64
722.843	84.67
723.026	85.14
723.21	85.09
723.393	85.21
723.576	85.37
723.759	85.51
723.942	85.81
724.126	85.46
724.309	85.32
724.492	85.58
724.675	85.68
724.858	85.76
725.041	85.61
725.224	85.44
725.407	85.7
725.59	85.79
725.774	85.88
725.957	85.99
726.14	85.99
726.322	86.17
726.505	86.75
726.688	86.96
726.871	86.97
727.054	87.15
727.237	86.79
727.42	87.1
727.603	87.29
727.786	87.08
727.968	87.1
728.151	87.28
728.334	87.23
728.517	87.76
728.699	87.82
728.882	87.99
729.065	88.01
729.248	87.96
729.43	87.66
729.613	87.71
729.796	87.35
729.978	87.71
730.161	87.84
730.343	88.1
730.526	88.14
730.708	88.53
730.891	88.82
731.073	88.92
731.256	88.72
731.438	88.58
731.621	88.5
731.803	88.65
731.986	88.6
732.168	88.32
732.35	88.54
732.533	88.49
732.715	88.72
732.898	88.83
733.08	88.88
733.262	89.23
733.444	89.5
733.627	89.8
733.809	90.12
733.991	90.41
734.173	90.14
734.355	90.44
734.538	90.32
734.72	90.31
734.902	89.81
735.084	89.66
735.266	89.26
735.448	89.74
735.63	89.66
735.812	89.8
735.994	89.61
736.176	90.05
736.358	90.33
736.54	90.34
736.722	90.26
736.904	90.21
737.086	90.12
737.268	90.5
737.45	90.31
737.632	89.68
737.814	89.8
737.995	89.99
738.177	90.1
738.359	90.14
738.541	89.61
738.723	89.47
738.904	89.58
739.086	89.9
739.268	89.93
739.449	89.87
739.631	89.99
739.813	90.26
739.994	91.01
740.176	90.96
740.358	90.82
740.539	90.47
740.721	90.56
740.902	90.17
741.084	90.39
741.265	89.94
741.447	90.01
741.628	89.69
741.81	90.28
741.991	90.32
742.172	90.46
742.354	90.91
742.535	91.44
742.717	91.47
742.898	92.14
743.079	91.78
743.261	92.45
743.442	92.71
743.623	92.26
743.804	91.79
743.986	91.98
744.167	91.33
744.348	91.48
744.529	90.57
744.71	89.91
744.891	90.16
745.073	89.82
745.254	89.88
745.435	89.91
745.616	89.71
745.797	89.25
745.978	90.26
746.159	89.69
746.34	90.19
746.521	90.21
746.702	90.13
746.883	90.37
747.064	91.42
747.245	91.83
747.426	92.1
747.606	91.69
747.787	92.09
747.968	92.74
748.149	92.99
748.33	93.03
748.51	92.18
748.691	92.61
748.872	93.03
749.053	92.72
749.233	91.83
749.414	91.3
749.595	90.48
749.775	90.44
749.956	89.38
750.137	89.26
750.317	88.55
750.498	89.02
750.678	89.46
750.859	89.52
751.04	89.52
751.22	89.58
751.4	89.41
751.581	90.36
751.761	90.53
751.942	90.49
752.122	90.61
752.303	90.4
752.483	91.08
752.663	91.91
752.844	91.38
753.024	91.06
753.204	90.53
753.385	90.11
753.565	89.89
753.745	89.45
753.925	88.41
754.106	88.19
754.286	88.4
754.466	88.36
754.646	88.72
754.826	89
755.006	89.03
755.187	89.41
755.367	90.01
755.547	89.72
755.727	89.66
755.907	90.72
756.087	90.76
756.267	91.25
756.447	90.87
756.627	90.4
756.807	91.15
756.987	91.68
757.167	90.48
757.346	90.06
757.526	89.38
757.706	89.73
757.886	90.13
758.066	90.47
758.246	90.09
758.425	90.46
758.605	90.91
758.785	91.35
758.965	90.53
759.144	90.14
759.324	89.33
759.504	89.64
759.683	89.1
759.863	89.22
760.043	89.09
760.222	89.65
760.402	89.53
760.581	88.98
760.761	88.16
760.94	87.76
761.12	87.41
761.299	86.86
761.479	87.49
761.658	87.03
761.838	87.18
762.017	88.16
762.197	89.43
762.376	88.89
762.555	89.83
762.735	88.99
762.914	89.61
763.093	90.07
763.273	88.73
763.452	87.81
763.631	88.16
763.81	87.55
763.99	87.75
764.169	88.1
764.348	88.28
764.527	88.56
764.706	88.21
764.885	88.47
765.064	88.31
765.243	88.09
765.423	88.14
765.602	87.31
765.781	87.5
765.96	88.79
766.139	88.71
766.318	89.42
766.497	89.7
766.676	89.96
766.854	89.52
767.033	89.93
767.212	88.73
767.391	88.91
767.57	88.75
767.749	87.97
767.928	86.5
768.106	86.89
768.285	86.35
768.464	86.68
768.643	86.37
768.821	86.45
769	87.03
769.179	86.62
769.357	86.79
769.536	86.46
769.715	86.22
769.893	85.91
770.072	85.49
770.25	85.23
770.429	86.89
770.607	87.3
770.786	87.92
770.964	87.86
771.143	88
771.321	87.18
771.5	87.16
771.678	86.79
771.857	85.47
772.035	85.23
772.213	85.43
772.392	85.36
772.57	85.8
772.748	86.09
772.927	85.35
773.105	86.25
773.283	86.05
773.461	86
773.64	86
773.818	84.89
773.996	84.84
774.174	84.82
774.352	84.22
774.531	83.57
774.709	84.03
774.887	83.33
775.065	84.53
775.243	85.03
775.421	85.93
775.599	85.01
775.777	85.75
775.955	84.59
776.133	84.29
776.311	84.5
776.489	83.9
776.667	83.49
776.844	84.43
777.022	83.64
777.2	83.59
777.378	85.37
777.556	86.11
777.734	86.32
777.911	86.94
778.089	86.64
778.267	87.09
778.445	87.52
778.622	86.36
778.8	85.62
778.978	84.53
779.155	82.86
779.333	82.67
779.511	82.66
779.688	81.68
779.866	81.91
780.043	82.18
780.221	83.14
780.398	83.82
780.576	84.31
780.753	84.93
780.931	86.09
781.108	87.11
781.286	85.65
781.463	84.82
781.64	84.7
781.818	84.16
781.995	83.46
782.172	83.35
782.35	80.73
782.527	81.23
782.704	81.69
782.882	83.32
783.059	83.15
783.236	83.47
783.413	83.86
783.59	85.82
783.768	85.16
783.945	85.78
784.122	83.67
784.299	85.01
784.476	85.37
784.653	84.89
784.83	83.04
785.007	83.96
785.184	82.58
785.361	82.31
785.538	82.44
785.715	80.16
785.892	80.21
786.069	80.91
786.246	79.53
786.423	82.36
786.6	83.26
786.776	81.14
786.953	81.57
787.13	83.27
787.307	82.45
787.484	83.35
787.66	80.77
787.837	81.11
788.014	82.77
788.191	82.26
788.367	79.64
788.544	81.16
788.721	79.87
788.897	82.26
789.074	80.88
789.25	81.01
789.427	82.24
789.603	85.24
789.78	84.78
789.956	84.33
790.133	84.73
790.309	83.6
790.486	85.85
790.662	86.74
790.839	84.65
791.015	85.66
791.192	87.53
791.368	86.14
791.544	87.6
791.721	83.46
791.897	83.06
792.073	82.27
792.249	84.24
792.426	84.39
792.602	83.01
792.778	82.6
792.954	84.58
793.13	84.66
793.307	84.68
793.483	81.7
793.659	82.21
793.835	81.14
794.011	80.92
794.187	76.86
794.363	76.91
794.539	75.28
794.715	74.17
794.891	71.78
795.067	73.1
795.243	73.49
795.419	77.41
795.595	77.78
795.771	81.77
795.947	80.85
796.122	83.52
796.298	84.17
796.474	86.2
796.65	85.38
796.826	87.06
797.001	84.88
797.177	87.04
797.353	85.58
797.529	85.08
797.704	83.33
797.88	82.23
798.056	81.66
798.231	81.44
798.407	81.52
798.582	82.23
798.758	81.96
798.934	81.8
799.109	79.77
799.285	80.59
799.46	82.94
799.636	81.96
799.811	82.07
799.986	80.8
800.162	82.6
800.337	83.94
800.513	82.79
800.688	80.15
800.863	81.12
801.039	77.28
801.214	78.46
801.389	74.77
801.565	77.26
801.74	74.79
801.915	74.96
802.09	73.17
802.265	77.14
802.441	77.12
802.616	77.23
802.791	77.76
802.966	81.43
803.141	78.38
803.316	83.57
803.491	80.37
803.666	83.47
803.841	84.27
804.016	83.42
804.191	81.69
804.366	81.53
804.541	77.35
804.716	74.92
804.891	73.65
805.066	74.34
805.241	69.46
805.416	69.93
805.591	75.98
805.765	75.98
805.94	80.1
806.115	75.17
806.29	74.3
806.464	77.97
806.639	76.66
806.814	71.19
806.989	74.46
807.163	71.19
807.338	73.17
807.512	73.06
807.687	71.1
807.862	70.24
808.036	70.85
808.211	71.01
808.385	73.53
808.56	75.86
808.734	75.04
808.909	79
809.083	80.34
809.258	86.02
809.432	79.72
809.606	79.28
809.781	78.59
809.955	80.99
810.13	83.32
810.304	84.68
810.478	83.28
810.652	89.16
810.827	88.74
811.001	86.14
811.175	83.51
811.349	78.48
811.524	74.75
811.698	75.94
811.872	74.95
812.046	75.9
812.22	75.05
812.394	80.63
812.568	86.19
812.742	91.71
812.916	88.14
813.09	85.09
813.264	88.18
813.438	95.79
813.612	89.99
813.786	85.95
813.96	87.7
814.134	92.23
814.308	89.11
814.482	85.79
814.656	82.6
814.83	83.96
815.003	84.3
815.177	82.61
815.351	82.38
815.525	81.53
815.698	83.87
815.872	81.98
816.046	78.6
816.219	80.99
816.393	74.95
816.567	68.68
816.74	74.21
816.914	74.92
817.088	73.02
817.261	79.71
817.435	72.69
817.608	76.25
817.782	83.37
817.955	79.73
818.129	83.84
818.302	89.11
818.475	84.52
818.649	83.95
818.822	80.52
818.996	75.45
819.169	78.39
819.342	70.12
819.516	72.1
819.689	75.02
819.862	74.89
820.035	73.95
820.209	68.53
820.382	63.06
820.555	65.32
820.728	54.5
820.901	51.56
821.075	56.28
821.248	55.03
821.421	58.4
821.594	65.75
821.767	62.65
821.94	63.86
822.113	64.78
822.286	66.81
822.459	74.24
822.632	81.22
822.805	73.69
822.978	73.58
823.151	75.11
823.324	70.14
823.496	58.63
823.669	56.14
823.842	54.06
824.015	54.65
824.188	62.79
824.361	66.68
824.533	77.3
824.706	104
824.879	100.35
825.051	93.64
825.224	93.2
825.397	84.7
825.569	85.73
825.742	84.49
825.915	69.8
826.087	68.53
826.26	73.43
826.432	82.92
826.605	82.53
826.777	75.6
826.95	66.3
827.122	65.3
827.295	62.12
827.467	53.82
827.64	41.58
827.812	38.84
827.984	48.43
828.157	49.91
828.329	53.34
828.501	59.82
828.674	61.35
828.846	60.77
829.018	60.87
829.19	47.95
829.363	55.71
829.535	54.74
829.707	45.71
829.879	47.89
830.051	52.93
830.223	46.62
830.395	47.33
830.568	43.68
830.74	47.27
830.912	52.27
831.084	50.49
831.256	49.67
831.428	60.41
831.6	64.68
831.772	66.91
831.943	68.76
832.115	64.81
832.287	61.11
832.459	56.89
832.631	53.77
832.803	61.96
832.975	52.62
833.146	48.45
833.318	47
833.49	62.81
833.662	68.86
833.833	67.56
834.005	63.67
834.177	67.21
834.348	68.67
834.52	77.39
834.692	72.55
834.863	69.97
835.035	67.89
835.206	62.29
835.378	62.06
835.549	54.64
835.721	50.23
835.892	50.12
836.064	53.25
836.235	58.81
836.407	62.51
836.578	58.78
836.749	68.27
836.921	69.78
837.092	68.62
837.264	65.76
837.435	51.17
837.606	51.51
837.777	48.9
837.949	45.12
838.12	40.53
838.291	49.21
838.462	47.72
838.633	54.71
838.805	48.96
838.976	61.32
839.147	59.69
839.318	57.18
839.489	48.34
839.66	51.25
839.831	54.79
840.002	60.5
840.173	51.74
840.344	53.82
840.515	64.64
840.686	71.73
840.857	65.39
841.028	56.73
841.199	61.84
841.369	64.16
841.54	66.06
841.711	62.31
841.882	56.46
842.053	63.28
842.223	78.94
842.394	65.92
842.565	65.59
842.736	58.69
842.906	65.43
843.077	70.27
843.248	68.99
843.418	63.57
843.589	61.9
843.759	65.69
843.93	64.36
844.101	59.51
844.271	61.51
844.442	58.85
844.612	53.18
844.783	41.01
844.953	32.52
845.123	51.01
845.294	54.88
845.464	57.53
845.635	69.16
845.805	76.08
845.975	78.06
846.146	89.91
846.316	110.02
846.486	107.1
846.656	102.35
846.827	91.59
846.997	89.04
847.167	96.06
847.337	100.23
847.507	84.53
847.677	88.61
847.848	82.15
848.018	80.72
848.188	81.15
848.358	88.14
848.528	81.48
848.698	69.78
848.868	57.93
849.038	73.72
849.208	83.38
849.378	78.47
849.548	74.6
849.718	81.56
849.887	89.62
850.057	87.76
850.227	73.51
850.397	64.51
850.567	72.1
850.737	60.14
850.906	49.4
851.076	48.28
851.246	45.9
851.415	55.08
851.585	51.05
851.755	58.34
851.924	63.43
852.094	58.02
852.264	54.13
852.433	64.31
852.603	64.75
852.772	67.28
852.942	54.53
853.111	58.06
853.281	64.06
853.45	56.49
853.62	47.46
853.789	39.19
853.959	32.65
854.128	30.13
854.297	35.22
854.467	33.2
854.636	45.26
854.805	48.26
854.975	56.71
855.144	61
855.313	62.37
855.482	49.54
855.652	51.06
855.821	49.94
855.99	54.99
856.159	45.7
856.328	56.62
856.497	49.83
856.667	62.67
856.836	57.48
857.005	61.13
857.174	66.37
857.343	56.68
857.512	45.38
857.681	47
857.85	46.7
858.019	57.13
858.188	55.79
858.356	20.56
858.525	41.72
858.694	52.98
858.863	61.86
859.032	43.48
859.201	26.65
859.369	32.09
859.538	39.89
859.707	49.61
859.876	41.83
860.044	36.94
860.213	39.09
860.382	40.67
860.55	35.89
860.719	41.33
860.888	24
861.056	18.9
861.225	25.49
861.393	47.68
861.562	46.31
861.73	59.31
861.899	53.09
862.067	68.05
862.236	62.97
862.404	57.65
862.572	48.24
862.741	54.16
862.909	41.65
863.078	41.14
863.246	24.94
863.414	26.54
863.582	9.92
863.751	16.59
863.919	25.2
864.087	42.97
864.255	50.55
864.424	61.1
864.592	78.36
864.76	80.06
864.928	87.81
865.096	77.54
865.264	80.16
865.432	68.59
865.6	52.76
865.768	26.32
865.936	39.91
866.104	25.07
866.272	32.5
866.44	-11.37
866.608	21.32
866.776	50.29
866.944	52.99
867.112	22.76
867.28	10.82
867.448	49.43
867.615	67.36
867.783	41.07
867.951	30.49
868.119	80.37
868.286	90.97
868.454	86.19
868.622	81.47
868.789	81.45
868.957	103.25
869.125	98.37
869.292	89.72
869.46	87.51
869.627	88.1
869.795	74.09
869.963	68.39
870.13	53.7
870.298	50.43
870.465	14.48
870.632	14.65
870.8	22.69
870.967	38.03
871.135	48.21
871.302	42.97
871.469	39.97
871.637	44.95
871.804	42.15
871.971	41.68
872.139	46.53
872.306	24.4
872.473	14.46
872.64	22.43
872.807	36.69
872.975	73.42
873.142	52.51
873.309	56.04
873.476	176.09
873.643	206.52
873.81	180.98
873.977	114.79
874.144	53.03
874.311	55.55
874.478	-14.36
874.645	-24.47
874.812	-6.09
874.979	-20.06
875.146	-64.9
875.313	-33.57
875.48	39.16
875.647	10.7
875.813	-22.65
875.98	-30.77
876.147	21.57
876.314	32.12
876.481	12.05
876.647	17.68
876.814	44.55
876.981	47.65
877.147	47.1
877.314	39.64
877.481	56.68
877.647	74.11
877.814	57.82
877.98	66.7
878.147	62.97
878.314	67.58
878.48	74.36
878.647	65.44
878.813	46.45
878.979	58.77
879.146	33.77
879.312	56.21
879.479	67.48
879.645	56.1
879.811	43.53
879.978	52.9
880.144	74.94
880.31	84.92
880.477	47.92
880.643	27.32
880.809	57.41
880.975	39.28
881.142	24.03
881.308	23.73
881.474	71.2
881.64	46.64
881.806	37.53
881.972	30.41
882.138	42.59
882.304	20.81
882.47	27.12
882.636	-25.49
882.802	-82.88
882.968	-146.77
883.134	-284.13
883.3	-87.4
883.466	-15.73
883.632	-43.65
883.798	-9.62
883.964	28.14
884.129	69.3
884.295	52.12
884.461	26.73
884.627	37.18
884.793	75.91
884.958	38.9
885.124	0.69
885.29	1.5
885.455	19.38
885.621	24.32
885.787	19.69
885.952	0.2
886.118	11.66
886.283	39.73
886.449	-5.55
886.614	-14.54
886.78	18.95
886.945	-0.15
887.111	-7.42
887.276	-10.24
887.442	-8.18
887.607	-2.43
887.773	-9.37
887.938	-38.63
888.103	-5.79
888.269	0.04
888.434	15.41
888.599	21.67
888.764	46.31
888.93	54.6
889.095	76.89
889.26	117.67
889.425	117.84
889.59	77.4
889.756	74.84
889.921	46.26
890.086	52.86
890.251	29.72
890.416	-44.88
890.581	-44.48
890.746	-53.14
890.911	-87.27
891.076	-125.07
891.241	-134.31
891.406	-28.61
891.571	-14.34
891.736	-2.46
891.901	40.95
892.065	37.5
892.23	46.26
892.395	31.05
892.56	24.08
892.725	46.13
892.889	36.02
893.054	-14.26
893.219	-12.35
893.384	-43.65
893.548	-124.17
893.713	354.21
893.878	304.89
