Data from Ofra_2a_PS_OCX5J_Reflection_2.txt Node
Date: Tue Jul 20 09:26:56 EDT 2021
User: Adam
Spectrometer: FLMT01687
Trigger mode: 0
Integration Time (sec): 9.450000E-1
Scans to average: 3
Electric dark correction enabled: true
Nonlinearity correction enabled: false
Boxcar width: 3
XAxis mode: Wavelengths
Number of Pixels in Spectrum: 3648
>>>>>Begin Spectral Data<<<<<
179.494	305.92
179.716	206.69
179.937	230.77
180.158	723.44
180.38	274.42
180.601	149.07
180.823	65.48
181.044	125.1
181.265	-57.89
181.486	21.5
181.708	21.74
181.929	-135.81
182.15	-1059.09
182.372	144.4
182.593	83.56
182.814	191.62
183.035	118.6
183.257	48.75
183.478	18.51
183.699	17.23
183.92	28.06
184.141	11.99
184.363	-2.74
184.584	-4.75
184.805	1.48
185.026	-12.4
185.247	-5.02
185.468	-7.39
185.689	7.87
185.91	22.1
186.132	21.66
186.353	-1.04
186.574	-0.99
186.795	-22.55
187.016	-7.79
187.237	-8.1
187.458	-24.78
187.679	-30.73
187.9	-20.67
188.121	-6.8
188.342	25.79
188.563	12.27
188.784	11.87
189.005	22.56
189.226	28.67
189.447	32.38
189.667	19.25
189.888	29.13
190.109	28.09
190.33	9.03
190.551	3.07
190.772	-12.72
190.993	-0.72
191.214	2.16
191.434	-14.3
191.655	-9.72
191.876	5.27
192.097	11.33
192.318	20.18
192.538	22.32
192.759	22.44
192.98	9.15
193.201	19.97
193.421	12.53
193.642	9.17
193.863	-13.32
194.083	-22.34
194.304	-20.58
194.525	14.46
194.745	-8.81
194.966	-1.71
195.187	-1.81
195.407	12.03
195.628	8.86
195.848	2.55
196.069	-5.68
196.29	-3.06
196.51	4.8
196.731	11.88
196.951	-3.48
197.172	-5.79
197.392	11.71
197.613	6.28
197.833	12.93
198.054	0.18
198.274	-16.88
198.495	-17.35
198.715	-18.34
198.936	-42.57
199.156	-22.42
199.377	-35.87
199.597	-52.11
199.817	-44.92
200.038	-32.73
200.258	-35.76
200.479	-26.68
200.699	-40.65
200.919	-51.91
201.14	-33.43
201.36	-36
201.58	-26.4
201.801	-10.48
202.021	-4.15
202.241	-1.38
202.461	11.07
202.682	21.98
202.902	27.05
203.122	20.71
203.342	22.96
203.563	23.18
203.783	21.62
204.003	20.23
204.223	23.43
204.443	19.14
204.663	25.9
204.884	12.78
205.104	-2.33
205.324	12.1
205.544	8.78
205.764	1.13
205.984	18.97
206.204	14.06
206.424	27.53
206.644	34.26
206.864	25.57
207.084	44.6
207.304	39.37
207.525	29.15
207.745	34.53
207.964	27.82
208.184	33.07
208.404	23.33
208.624	-14.94
208.844	-19.17
209.064	3.62
209.284	4.63
209.504	8.49
209.724	-22.22
209.944	-9.93
210.164	7.1
210.384	23.14
210.604	16.36
210.823	12.56
211.043	7.11
211.263	26.59
211.483	12.32
211.703	22.76
211.922	13.91
212.142	10.62
212.362	8.3
212.582	6.87
212.801	1.48
213.021	1.38
213.241	-8.15
213.461	-0.77
213.68	2.98
213.9	-2.65
214.12	-7.04
214.339	-6.55
214.559	3.4
214.779	3.17
214.998	-4.35
215.218	-6.48
215.438	9.82
215.657	6.2
215.877	17.19
216.096	25.17
216.316	25.87
216.535	31.96
216.755	13.56
216.974	8.24
217.194	20.46
217.413	26.94
217.633	19.13
217.852	15.86
218.072	3.79
218.291	29.05
218.511	18.83
218.73	24.8
218.95	12.4
219.169	17.87
219.389	14.3
219.608	14.11
219.827	2.5
220.047	18.55
220.266	11.33
220.485	6.12
220.705	3.1
220.924	15.48
221.143	23.02
221.363	16.71
221.582	9.5
221.801	9.34
222.021	16.47
222.24	9.29
222.459	-6.77
222.678	-21.59
222.897	-21.35
223.117	-25.49
223.336	-16.37
223.555	-27.38
223.774	-17.08
223.993	-4.06
224.213	-3.13
224.432	11.75
224.651	15.27
224.87	6.81
225.089	8.62
225.308	-3.34
225.527	-6.9
225.746	3.43
225.965	-11.26
226.184	-10.34
226.404	-28.45
226.623	-12.35
226.842	-9.14
227.061	-6.55
227.28	-8.03
227.499	16.03
227.718	12.92
227.936	18.79
228.155	11.25
228.374	14.71
228.593	8.48
228.812	6.91
229.031	-5.76
229.25	3.73
229.469	11.12
229.688	23.99
229.907	21.22
230.125	27.33
230.344	17.56
230.563	15.05
230.782	7.66
231.001	7.04
231.22	3.69
231.438	13.72
231.657	11.54
231.876	19.59
232.095	27.71
232.313	37.59
232.532	25.62
232.751	20.25
232.969	14.33
233.188	14.1
233.407	20.76
233.625	23.3
233.844	17.27
234.063	24.33
234.281	25.54
234.5	24.35
234.719	19.51
234.937	13.8
235.156	7.25
235.374	1.64
235.593	-11.25
235.811	-19.2
236.03	-23.06
236.249	-6.83
236.467	0.19
236.686	9.7
236.904	8.87
237.123	26.04
237.341	29.99
237.559	29.4
237.778	31.48
237.996	24.51
238.215	17.68
238.433	25.69
238.652	23.3
238.87	13.58
239.088	10.36
239.307	7.17
239.525	5.11
239.743	-3.11
239.962	-6.46
240.18	-4.22
240.398	2.04
240.617	11.58
240.835	13.43
241.053	20.59
241.271	33.05
241.49	21.67
241.708	17.05
241.926	1.17
242.144	-2.41
242.363	-12
242.581	-10.93
242.799	-29.35
243.017	-10.85
243.235	-12.9
243.453	-4.12
243.672	-3.36
243.89	5.19
244.108	11.99
244.326	11.69
244.544	4.92
244.762	0.15
244.98	4.03
245.198	-6.42
245.416	-14.35
245.634	-17.17
245.852	2.18
246.07	-0.3
246.288	-2.39
246.506	9.35
246.724	21.08
246.942	22.91
247.16	5.22
247.378	-18.66
247.596	-6.1
247.814	2.65
248.032	-6.84
248.25	-17.74
248.468	-10.25
248.685	-1.31
248.903	8.72
249.121	5.46
249.339	4.72
249.557	3.1
249.775	-5.54
249.992	-4.01
250.21	-3.94
250.428	0.65
250.646	-9.04
250.863	-9.97
251.081	-6.42
251.299	14.39
251.517	24.47
251.734	44.23
251.952	50.77
252.17	45.11
252.387	35.49
252.605	36.5
252.823	12.43
253.04	-1.83
253.258	-17.56
253.475	-26.55
253.693	-1.66
253.911	3.56
254.128	-1.87
254.346	11.75
254.563	3.12
254.781	4.76
254.998	11.92
255.216	7.22
255.433	-8.43
255.651	-1.62
255.868	-4.15
256.086	3.36
256.303	1.5
256.521	-26.61
256.738	-14.09
256.956	-5.87
257.173	-4.4
257.39	-2.26
257.608	0.87
257.825	-5.88
258.043	14.13
258.26	6.92
258.477	17.05
258.695	22.37
258.912	27.31
259.129	18.22
259.346	21
259.564	21.17
259.781	25.02
259.998	23.07
260.216	22.94
260.433	12.45
260.65	24.65
260.867	12.72
261.084	18.32
261.302	-3.97
261.519	-23.35
261.736	-37.27
261.953	-26.8
262.17	-27.7
262.387	-15.72
262.604	-49.43
262.822	-19.96
263.039	-8.56
263.256	-10
263.473	-11.55
263.69	-8.67
263.907	-5.44
264.124	1.11
264.341	3.36
264.558	7.31
264.775	18.96
264.992	17.75
265.209	24.66
265.426	16.58
265.643	26.07
265.86	17.46
266.077	12.01
266.294	9.72
266.51	8.69
266.727	-8.94
266.944	-14.5
267.161	-27.05
267.378	-24.93
267.595	-16.69
267.812	-25.94
268.028	-14.19
268.245	-1.43
268.462	6.98
268.679	5.94
268.896	0.88
269.112	15.34
269.329	21.97
269.546	18.62
269.763	15.47
269.979	16.88
270.196	24.97
270.413	27.27
270.629	16.6
270.846	18.58
271.063	20.19
271.279	23.13
271.496	17.35
271.712	6.28
271.929	10.09
272.146	8.86
272.362	-15.55
272.579	-17.14
272.795	-27.27
273.012	-16.13
273.228	-13.32
273.445	-13.77
273.661	-13.57
273.878	2.62
274.094	6.25
274.311	10.53
274.527	5.91
274.744	12.67
274.96	12.23
275.177	21.7
275.393	26.8
275.609	22.77
275.826	27.19
276.042	33.46
276.259	25.62
276.475	22.59
276.691	17.34
276.908	16.85
277.124	11.65
277.34	5.94
277.557	5.93
277.773	8.99
277.989	7.59
278.205	-0.2
278.422	5.68
278.638	14.57
278.854	9.44
279.07	0.14
279.286	-4.07
279.503	-4.48
279.719	4.36
279.935	-6.39
280.151	-2.35
280.367	1.57
280.583	7.39
280.799	11.96
281.016	19.64
281.232	17.76
281.448	18.07
281.664	10.76
281.88	18.74
282.096	14.81
282.312	7.73
282.528	-21.22
282.744	-22.39
282.96	-17.51
283.176	-5.55
283.392	-2.51
283.608	2.35
283.824	12.68
284.04	25.82
284.256	31.68
284.471	31.69
284.687	21.03
284.903	8.57
285.119	-6.84
285.335	-7.17
285.551	-3.24
285.767	2.75
285.982	-0.21
286.198	-1.21
286.414	14.08
286.63	29.94
286.846	27.13
287.061	27.45
287.277	13.7
287.493	5.83
287.709	14.93
287.924	9.09
288.14	7.95
288.356	7.72
288.571	-9.76
288.787	-0.03
289.003	15.86
289.218	15.48
289.434	14.21
289.65	26.07
289.865	20.17
290.081	26.23
290.296	23.78
290.512	21.84
290.727	20.93
290.943	10.93
291.159	-8.51
291.374	-2.13
291.59	1.68
291.805	5.75
292.021	-7.78
292.236	-10.56
292.451	-3.04
292.667	8.33
292.882	9.66
293.098	2.97
293.313	-4.34
293.529	7.55
293.744	16.02
293.959	21.16
294.175	17.32
294.39	13.09
294.605	19.24
294.821	15.94
295.036	9.37
295.251	-5.92
295.467	-6.28
295.682	-1.95
295.897	10.46
296.112	7.31
296.328	21.34
296.543	28.53
296.758	34.58
296.973	33.03
297.188	37.73
297.404	29.74
297.619	32.28
297.834	29.47
298.049	24.88
298.264	10.27
298.479	2.36
298.694	-7.24
298.909	-4.66
299.125	-1.9
299.34	-14.41
299.555	-6.91
299.77	0.73
299.985	2.78
300.2	7.75
300.415	3.57
300.63	-4.14
300.845	3.4
301.06	1.03
301.275	5.3
301.49	14.35
301.704	10.74
301.919	2.84
302.134	-4.61
302.349	-9.84
302.564	-20.92
302.779	-21.94
302.994	-34.04
303.209	-27.65
303.423	-0.03
303.638	22.75
303.853	30.82
304.068	33.25
304.283	30.07
304.497	39.14
304.712	32.76
304.927	14.6
305.142	15.19
305.356	9.2
305.571	14.52
305.786	15.08
306	15.02
306.215	15.33
306.43	27.06
306.644	22.05
306.859	18.16
307.074	18.05
307.288	24.11
307.503	16.48
307.717	12.27
307.932	13.12
308.147	13.64
308.361	13.1
308.576	8.47
308.79	-0.15
309.005	7.58
309.219	13.15
309.434	4.16
309.648	-9.48
309.863	-2.64
310.077	-5.25
310.292	-5.13
310.506	4.5
310.72	8
310.935	8.02
311.149	21.41
311.364	23.57
311.578	23.44
311.792	21.68
312.007	8.89
312.221	3.31
312.435	10.09
312.649	16.58
312.864	3.96
313.078	6.6
313.292	-2.06
313.507	3.09
313.721	10.88
313.935	21.68
314.149	19.62
314.363	20.8
314.578	26.46
314.792	37.06
315.006	35.01
315.22	34.74
315.434	22.71
315.648	14.9
315.862	15.4
316.077	16.65
316.291	13.92
316.505	10.33
316.719	-3.05
316.933	4.13
317.147	7.43
317.361	6.79
317.575	-1.32
317.789	4.31
318.003	7.16
318.217	12.4
318.431	10.43
318.645	11.33
318.859	10.62
319.073	11.51
319.287	12.04
319.5	13.75
319.714	13.05
319.928	14.44
320.142	8.73
320.356	16.86
320.57	5.62
320.784	3.57
320.997	11.02
321.211	15.22
321.425	13.86
321.639	15.68
321.853	11.72
322.066	23.72
322.28	29.76
322.494	12.51
322.707	7.21
322.921	7.39
323.135	14.3
323.349	17.93
323.562	7.85
323.776	0.44
323.989	8.79
324.203	7.75
324.417	-0.9
324.63	-13.19
324.844	-24.64
325.057	-5.24
325.271	-7.47
325.485	-4.83
325.698	-1.16
325.912	9.7
326.125	19.99
326.339	24.4
326.552	16.8
326.766	21.16
326.979	14.4
327.193	3.68
327.406	-2.03
327.619	-14.87
327.833	-17.59
328.046	-17.63
328.26	-29.18
328.473	-19.24
328.686	-9.77
328.9	-16.45
329.113	-9.5
329.326	-1.8
329.54	-2.8
329.753	1.47
329.966	-4.66
330.179	-0.4
330.393	11.33
330.606	14.16
330.819	7.97
331.032	5.85
331.246	5.98
331.459	12.51
331.672	7.29
331.885	5.93
332.098	3.62
332.311	1.74
332.525	15.99
332.738	11.29
332.951	12.45
333.164	11.72
333.377	5.29
333.59	3.86
333.803	11.61
334.016	-0.98
334.229	4.1
334.442	-0.22
334.655	-0.49
334.868	6.93
335.081	16.2
335.294	0.99
335.507	9.55
335.72	3.32
335.933	12.05
336.146	15.67
336.359	12.91
336.572	4.64
336.785	18.98
336.997	11.87
337.21	16.52
337.423	9.32
337.636	15.18
337.849	15.49
338.062	26.72
338.274	14.19
338.487	14.6
338.7	15.43
338.913	16.74
339.125	11.65
339.338	12.7
339.551	12.85
339.763	14.67
339.976	25.57
340.189	30.05
340.402	23.62
340.614	22.37
340.827	12.57
341.039	7.29
341.252	11.22
341.465	0.05
341.677	-8.86
341.89	-4.66
342.102	-0.23
342.315	13.88
342.527	6.17
342.74	-4.42
342.952	-9.13
343.165	-2.11
343.377	-2.53
343.59	-1.56
343.802	-5.15
344.015	-0.02
344.227	2.05
344.44	0.54
344.652	-0.9
344.864	2.61
345.077	-0.5
345.289	-7.11
345.502	-5.12
345.714	-1.44
345.926	-0.99
346.139	-3.54
346.351	-19.07
346.563	-17.33
346.775	-14.38
346.988	-11.11
347.2	-3.77
347.412	4.04
347.624	4.01
347.837	8.82
348.049	8.1
348.261	11.25
348.473	7.09
348.685	9.83
348.897	10.78
349.11	7.79
349.322	14.83
349.534	7.81
349.746	10.13
349.958	6.14
350.17	-1
350.382	-10.31
350.594	-5.06
350.806	-5.43
351.018	6.71
351.23	5.63
351.442	12.32
351.654	17.47
351.866	25.67
352.078	23.04
352.29	15.56
352.502	10.41
352.714	14.45
352.926	11.49
353.138	-0.09
353.35	-3.28
353.561	-6.26
353.773	-0.57
353.985	4.06
354.197	-1.75
354.409	-0.02
354.621	8.44
354.832	2.12
355.044	13.97
355.256	9
355.468	1.63
355.679	0.56
355.891	6.25
356.103	-0.09
356.314	3.44
356.526	-6.03
356.738	-4.7
356.949	0.61
357.161	0.18
357.373	-8.97
357.584	1.76
357.796	-1.97
358.008	8.63
358.219	13.62
358.431	7.1
358.642	8.63
358.854	13.12
359.065	12.2
359.277	10.3
359.488	1.33
359.7	3.42
359.911	4.32
360.123	7.76
360.334	5.31
360.546	-6.24
360.757	8.16
360.969	14.99
361.18	9.28
361.391	15.46
361.603	11.89
361.814	15.34
362.025	16.84
362.237	10.46
362.448	12.42
362.659	6.62
362.871	4.81
363.082	7.72
363.293	9.05
363.504	18.58
363.716	17.93
363.927	11.38
364.138	23.89
364.349	26.12
364.56	23.1
364.772	17.73
364.983	2.68
365.194	3.6
365.405	3.03
365.616	-12.62
365.827	-20.76
366.038	-7.84
366.25	-1.63
366.461	5.51
366.672	0.78
366.883	9.75
367.094	14.25
367.305	15.98
367.516	3.38
367.727	-3.52
367.938	-2.76
368.149	-3.03
368.36	-11.07
368.571	-6.69
368.781	-5.3
368.992	2.11
369.203	2.83
369.414	3.69
369.625	5.91
369.836	7.84
370.047	5.79
370.258	0.69
370.468	-3.86
370.679	-8.15
370.89	2.8
371.101	1.1
371.312	-0.37
371.522	-3.21
371.733	-5.1
371.944	-1.81
372.155	-0.64
372.365	-3.17
372.576	-5.24
372.787	0.41
372.997	-2
373.208	5.93
373.419	9.12
373.629	19.03
373.84	9.81
374.05	15.43
374.261	16.8
374.472	15.14
374.682	13.62
374.893	7.81
375.103	4.6
375.314	3.37
375.524	-1.83
375.735	-5.82
375.945	-0.54
376.156	-0.3
376.366	-3.03
376.577	-3.47
376.787	-1.27
376.997	4.69
377.208	7.39
377.418	7.48
377.629	5.35
377.839	12.81
378.049	12.42
378.26	15.26
378.47	15.66
378.68	11.42
378.89	10.6
379.101	6.49
379.311	2.16
379.521	6.2
379.732	-0.52
379.942	-0.78
380.152	2.96
380.362	7.57
380.572	14.76
380.783	16.17
380.993	15.05
381.203	18.4
381.413	19.2
381.623	21.96
381.833	15.77
382.043	9.48
382.253	9.77
382.463	8.7
382.674	9.74
382.884	6.59
383.094	4.55
383.304	6.27
383.514	8.64
383.724	7.01
383.934	7.24
384.144	7.98
384.353	3.56
384.563	0.14
384.773	0.24
384.983	1.77
385.193	4.08
385.403	3.86
385.613	0.02
385.823	3.57
386.033	6.33
386.242	1.08
386.452	0.56
386.662	-0.97
386.872	-1.79
387.082	0.83
387.291	0.02
387.501	1.07
387.711	6.73
387.921	4.7
388.13	3.27
388.34	2.84
388.55	3.98
388.759	2.72
388.969	-1.71
389.179	-1.33
389.388	0.21
389.598	0.37
389.807	1.35
390.017	0.65
390.227	3.48
390.436	4.73
390.646	4.67
390.855	3.36
391.065	3.74
391.274	2.9
391.484	2.35
391.693	2.29
391.903	1.89
392.112	0.47
392.322	2.1
392.531	2.17
392.74	1.61
392.95	3.33
393.159	2.45
393.369	2.89
393.578	4.05
393.787	3.41
393.997	4.62
394.206	5.18
394.415	4.8
394.625	4.58
394.834	4.29
395.043	3.85
395.252	4.48
395.462	3.61
395.671	3.97
395.88	3.43
396.089	3.99
396.298	4.48
396.508	4.42
396.717	3.71
396.926	3.65
397.135	3.19
397.344	2.9
397.553	2.94
397.762	2.76
397.971	2.42
398.181	2.45
398.39	2.73
398.599	2.87
398.808	3.32
399.017	3.37
399.226	3.49
399.435	3.69
399.644	3.45
399.853	3.39
400.062	3.28
400.27	3.1
400.479	2.96
400.688	3.08
400.897	3.19
401.106	3.6
401.315	3.49
401.524	3.65
401.733	3.87
401.941	3.81
402.15	3.63
402.359	3.58
402.568	3.46
402.777	3.43
402.985	3.41
403.194	3.24
403.403	3.24
403.612	3.22
403.82	3.26
404.029	3.27
404.238	3.4
404.446	3.3
404.655	3.19
404.864	3.06
405.072	3.04
405.281	2.93
405.489	3.02
405.698	2.92
405.906	2.86
406.115	3.06
406.324	3.15
406.532	3.17
406.741	3.25
406.949	3.03
407.158	3.07
407.366	3.19
407.574	3.13
407.783	3.05
407.991	2.96
408.2	2.92
408.408	3.07
408.617	3.09
408.825	3
409.033	2.91
409.242	2.96
409.45	3.04
409.658	3.01
409.867	2.95
410.075	2.89
410.283	2.88
410.491	2.94
410.7	2.89
410.908	2.93
411.116	2.98
411.324	3
411.533	2.93
411.741	2.92
411.949	2.88
412.157	2.97
412.365	2.91
412.573	2.88
412.781	2.78
412.99	2.93
413.198	2.99
413.406	2.98
413.614	2.96
413.822	2.98
414.03	2.9
414.238	3.04
414.446	2.92
414.654	2.93
414.862	2.92
415.07	2.88
415.278	2.78
415.486	2.88
415.694	2.75
415.902	2.72
416.109	2.7
416.317	2.69
416.525	2.71
416.733	2.83
416.941	2.7
417.149	2.83
417.357	2.92
417.564	2.85
417.772	2.78
417.98	2.75
418.188	2.65
418.395	2.66
418.603	2.49
418.811	2.32
419.019	2.34
419.226	2.38
419.434	2.3
419.642	2.31
419.849	2.29
420.057	2.34
420.265	2.43
420.472	2.4
420.68	2.35
420.887	2.43
421.095	2.47
421.302	2.57
421.51	2.62
421.717	2.65
421.925	2.65
422.132	2.68
422.34	2.65
422.547	2.53
422.755	2.47
422.962	2.38
423.17	2.28
423.377	2.43
423.585	2.45
423.792	2.47
423.999	2.56
424.207	2.49
424.414	2.57
424.621	2.64
424.829	2.43
425.036	2.34
425.243	2.31
425.451	2.28
425.658	2.4
425.865	2.35
426.072	2.37
426.28	2.39
426.487	2.47
426.694	2.5
426.901	2.39
427.108	2.36
427.315	2.38
427.523	2.42
427.73	2.5
427.937	2.47
428.144	2.49
428.351	2.72
428.558	2.69
428.765	2.62
428.972	2.49
429.179	2.44
429.386	2.44
429.593	2.39
429.8	2.34
430.007	2.39
430.214	2.51
430.421	2.56
430.628	2.47
430.835	2.49
431.042	2.53
431.249	2.44
431.456	2.41
431.662	2.35
431.869	2.4
432.076	2.51
432.283	2.46
432.49	2.4
432.697	2.49
432.903	2.52
433.11	2.52
433.317	2.53
433.524	2.49
433.73	2.58
433.937	2.58
434.144	2.59
434.35	2.53
434.557	2.52
434.764	2.45
434.97	2.56
435.177	2.54
435.384	2.59
435.59	2.56
435.797	2.61
436.003	2.63
436.21	2.63
436.416	2.54
436.623	2.55
436.829	2.5
437.036	2.5
437.242	2.47
437.449	2.54
437.655	2.54
437.862	2.57
438.068	2.61
438.275	2.61
438.481	2.67
438.687	2.74
438.894	2.71
439.1	2.81
439.307	2.79
439.513	2.72
439.719	2.8
439.926	2.78
440.132	2.72
440.338	2.73
440.544	2.71
440.751	2.75
440.957	2.76
441.163	2.75
441.369	2.7
441.575	2.67
441.782	2.64
441.988	2.64
442.194	2.65
442.4	2.71
442.606	2.69
442.812	2.73
443.018	2.79
443.224	2.82
443.431	2.82
443.637	2.81
443.843	2.76
444.049	2.76
444.255	2.74
444.461	2.78
444.667	2.77
444.873	2.78
445.079	2.85
445.284	2.88
445.49	2.85
445.696	2.87
445.902	2.88
446.108	2.87
446.314	2.91
446.52	2.91
446.726	2.96
446.931	2.97
447.137	2.97
447.343	2.94
447.549	2.91
447.755	2.85
447.96	2.82
448.166	2.84
448.372	2.91
448.578	2.95
448.783	2.94
448.989	3.06
449.195	3.1
449.4	3.12
449.606	3.09
449.812	3.1
450.017	3.05
450.223	3.06
450.428	2.99
450.634	2.99
450.84	2.97
451.045	2.96
451.251	2.91
451.456	2.88
451.662	2.89
451.867	2.93
452.073	2.91
452.278	2.88
452.483	2.87
452.689	2.88
452.894	2.86
453.1	2.83
453.305	2.8
453.51	2.83
453.716	2.81
453.921	2.81
454.127	2.81
454.332	2.9
454.537	2.93
454.742	2.93
454.948	2.9
455.153	2.95
455.358	3
455.563	3.01
455.769	2.95
455.974	2.95
456.179	2.94
456.384	2.97
456.589	2.96
456.795	2.9
457	2.91
457.205	2.92
457.41	2.98
457.615	2.99
457.82	3.01
458.025	3.01
458.23	3.03
458.435	2.98
458.64	3.05
458.845	3.04
459.05	3.03
459.255	3
459.46	3.02
459.665	3.07
459.87	3.1
460.075	3.06
460.28	3.03
460.485	3.15
460.69	3.11
460.895	3.12
461.099	3.13
461.304	3.17
461.509	3.15
461.714	3.19
461.919	3.1
462.123	3.19
462.328	3.17
462.533	3.12
462.738	3.14
462.942	3.23
463.147	3.21
463.352	3.24
463.556	3.24
463.761	3.26
463.966	3.3
464.17	3.3
464.375	3.26
464.58	3.26
464.784	3.3
464.989	3.26
465.193	3.32
465.398	3.38
465.602	3.4
465.807	3.42
466.011	3.45
466.216	3.41
466.42	3.45
466.625	3.38
466.829	3.39
467.034	3.41
467.238	3.48
467.443	3.52
467.647	3.53
467.851	3.57
468.056	3.57
468.26	3.55
468.464	3.52
468.669	3.5
468.873	3.5
469.077	3.54
469.282	3.53
469.486	3.6
469.69	3.64
469.894	3.7
470.099	3.71
470.303	3.7
470.507	3.69
470.711	3.7
470.915	3.73
471.119	3.74
471.324	3.67
471.528	3.75
471.732	3.72
471.936	3.82
472.14	3.8
472.344	3.78
472.548	3.82
472.752	3.88
472.956	3.82
473.16	3.84
473.364	3.73
473.568	3.78
473.772	3.85
473.976	3.85
474.18	3.83
474.384	3.86
474.588	3.88
474.792	3.93
474.995	3.92
475.199	3.91
475.403	3.92
475.607	3.98
475.811	4.01
476.015	4.08
476.218	4.09
476.422	4.15
476.626	4.11
476.83	4.1
477.033	4.1
477.237	4.12
477.441	4.11
477.644	4.12
477.848	4.14
478.052	4.17
478.255	4.2
478.459	4.23
478.663	4.21
478.866	4.21
479.07	4.2
479.273	4.16
479.477	4.2
479.681	4.18
479.884	4.14
480.088	4.17
480.291	4.21
480.495	4.29
480.698	4.33
480.901	4.3
481.105	4.38
481.308	4.41
481.512	4.39
481.715	4.38
481.919	4.33
482.122	4.36
482.325	4.39
482.529	4.44
482.732	4.48
482.935	4.51
483.138	4.51
483.342	4.58
483.545	4.55
483.748	4.6
483.952	4.57
484.155	4.57
484.358	4.61
484.561	4.63
484.764	4.62
484.967	4.64
485.171	4.62
485.374	4.61
485.577	4.68
485.78	4.67
485.983	4.67
486.186	4.69
486.389	4.71
486.592	4.73
486.795	4.77
486.998	4.74
487.201	4.8
487.404	4.86
487.607	4.88
487.81	4.93
488.013	4.98
488.216	4.99
488.419	5.03
488.622	5.06
488.825	5.09
489.028	5.12
489.231	5.16
489.433	5.19
489.636	5.25
489.839	5.31
490.042	5.37
490.245	5.44
490.447	5.51
490.65	5.55
490.853	5.62
491.056	5.64
491.258	5.68
491.461	5.75
491.664	5.77
491.866	5.84
492.069	5.93
492.272	5.99
492.474	6.09
492.677	6.18
492.879	6.23
493.082	6.32
493.285	6.43
493.487	6.48
493.69	6.56
493.892	6.67
494.095	6.72
494.297	6.82
494.5	6.94
494.702	6.99
494.905	7.11
495.107	7.2
495.309	7.24
495.512	7.32
495.714	7.42
495.917	7.5
496.119	7.64
496.321	7.72
496.524	7.82
496.726	7.94
496.928	8.07
497.13	8.15
497.333	8.25
497.535	8.31
497.737	8.39
497.939	8.47
498.142	8.54
498.344	8.62
498.546	8.73
498.748	8.8
498.95	8.86
499.152	8.91
499.355	8.99
499.557	9.1
499.759	9.19
499.961	9.24
500.163	9.29
500.365	9.35
500.567	9.37
500.769	9.42
500.971	9.42
501.173	9.42
501.375	9.43
501.577	9.47
501.779	9.52
501.981	9.57
502.183	9.58
502.385	9.64
502.587	9.63
502.788	9.63
502.99	9.62
503.192	9.64
503.394	9.63
503.596	9.63
503.798	9.6
503.999	9.6
504.201	9.62
504.403	9.6
504.605	9.61
504.806	9.6
505.008	9.51
505.21	9.48
505.411	9.53
505.613	9.49
505.815	9.49
506.016	9.41
506.218	9.37
506.42	9.39
506.621	9.36
506.823	9.27
507.024	9.21
507.226	9.17
507.427	9.12
507.629	9.13
507.83	9.09
508.032	9.07
508.233	9
508.435	8.97
508.636	8.92
508.838	8.88
509.039	8.83
509.24	8.77
509.442	8.69
509.643	8.7
509.845	8.68
510.046	8.61
510.247	8.61
510.448	8.56
510.65	8.51
510.851	8.51
511.052	8.5
511.254	8.43
511.455	8.38
511.656	8.33
511.857	8.28
512.058	8.29
512.26	8.26
512.461	8.21
512.662	8.19
512.863	8.19
513.064	8.18
513.265	8.2
513.466	8.19
513.667	8.14
513.868	8.11
514.069	8.11
514.27	8.12
514.471	8.09
514.672	8.03
514.873	8.01
515.074	8.02
515.275	7.97
515.476	7.94
515.677	7.92
515.878	7.93
516.079	7.93
516.28	7.89
516.481	7.86
516.682	7.9
516.882	7.89
517.083	7.86
517.284	7.82
517.485	7.78
517.686	7.76
517.886	7.76
518.087	7.72
518.288	7.71
518.488	7.68
518.689	7.67
518.89	7.69
519.091	7.68
519.291	7.66
519.492	7.67
519.692	7.69
519.893	7.68
520.094	7.67
520.294	7.62
520.495	7.61
520.695	7.62
520.896	7.59
521.096	7.55
521.297	7.53
521.497	7.53
521.698	7.54
521.898	7.52
522.099	7.51
522.299	7.49
522.499	7.5
522.7	7.49
522.9	7.48
523.101	7.48
523.301	7.47
523.501	7.47
523.702	7.47
523.902	7.47
524.102	7.5
524.302	7.49
524.503	7.5
524.703	7.5
524.903	7.51
525.103	7.53
525.304	7.5
525.504	7.48
525.704	7.47
525.904	7.46
526.104	7.46
526.304	7.45
526.504	7.41
526.705	7.46
526.905	7.49
527.105	7.51
527.305	7.49
527.505	7.49
527.705	7.47
527.905	7.46
528.105	7.45
528.305	7.41
528.505	7.41
528.705	7.42
528.905	7.42
529.105	7.47
529.304	7.53
529.504	7.51
529.704	7.53
529.904	7.56
530.104	7.54
530.304	7.56
530.503	7.52
530.703	7.5
530.903	7.55
531.103	7.58
531.303	7.58
531.502	7.62
531.702	7.63
531.902	7.66
532.101	7.66
532.301	7.66
532.501	7.63
532.7	7.62
532.9	7.65
533.1	7.67
533.299	7.72
533.499	7.73
533.698	7.76
533.898	7.79
534.097	7.81
534.297	7.8
534.496	7.78
534.696	7.73
534.895	7.8
535.095	7.8
535.294	7.8
535.494	7.82
535.693	7.85
535.892	7.89
536.092	7.92
536.291	7.87
536.491	7.87
536.69	7.88
536.889	7.87
537.088	7.86
537.288	7.86
537.487	7.9
537.686	7.94
537.886	7.94
538.085	7.98
538.284	8
538.483	8.03
538.682	8.07
538.882	8.08
539.081	8.09
539.28	8.13
539.479	8.13
539.678	8.18
539.877	8.17
540.076	8.19
540.275	8.22
540.474	8.19
540.673	8.22
540.872	8.26
541.071	8.25
541.27	8.29
541.469	8.31
541.668	8.33
541.867	8.41
542.066	8.42
542.265	8.42
542.464	8.41
542.663	8.43
542.862	8.42
543.06	8.41
543.259	8.36
543.458	8.37
543.657	8.39
543.856	8.42
544.054	8.45
544.253	8.47
544.452	8.49
544.651	8.56
544.849	8.58
545.048	8.59
545.247	8.63
545.445	8.62
545.644	8.69
545.843	8.72
546.041	8.71
546.24	8.72
546.438	8.75
546.637	8.78
546.836	8.79
547.034	8.77
547.233	8.82
547.431	8.84
547.63	8.91
547.828	8.95
548.027	8.96
548.225	9.02
548.423	9.05
548.622	9.08
548.82	9.14
549.019	9.15
549.217	9.23
549.415	9.31
549.614	9.32
549.812	9.4
550.01	9.44
550.209	9.49
550.407	9.58
550.605	9.58
550.803	9.59
551.002	9.67
551.2	9.7
551.398	9.73
551.596	9.75
551.794	9.75
551.993	9.79
552.191	9.9
552.389	9.96
552.587	10.01
552.785	10.13
552.983	10.2
553.181	10.25
553.379	10.33
553.577	10.36
553.775	10.38
553.973	10.42
554.171	10.41
554.369	10.47
554.567	10.5
554.765	10.51
554.963	10.53
555.161	10.6
555.359	10.66
555.557	10.76
555.755	10.8
555.952	10.89
556.15	11
556.348	11.11
556.546	11.17
556.744	11.28
556.941	11.34
557.139	11.45
557.337	11.52
557.535	11.59
557.732	11.63
557.93	11.65
558.128	11.68
558.325	11.74
558.523	11.79
558.721	11.87
558.918	11.95
559.116	12.03
559.313	12.13
559.511	12.21
559.708	12.3
559.906	12.37
560.104	12.45
560.301	12.48
560.498	12.55
560.696	12.62
560.893	12.7
561.091	12.77
561.288	12.83
561.486	12.87
561.683	12.97
561.88	13.05
562.078	13.13
562.275	13.21
562.473	13.29
562.67	13.35
562.867	13.44
563.064	13.55
563.262	13.68
563.459	13.76
563.656	13.85
563.853	13.93
564.051	13.99
564.248	14.04
564.445	14.06
564.642	14.1
564.839	14.22
565.036	14.31
565.234	14.4
565.431	14.51
565.628	14.63
565.825	14.75
566.022	14.81
566.219	14.84
566.416	14.89
566.613	14.96
566.81	15.03
567.007	15.11
567.204	15.16
567.401	15.26
567.598	15.33
567.795	15.41
567.991	15.51
568.188	15.59
568.385	15.66
568.582	15.72
568.779	15.82
568.976	15.93
569.172	16.01
569.369	16.01
569.566	16.06
569.763	16.11
569.96	16.18
570.156	16.19
570.353	16.21
570.55	16.26
570.746	16.34
570.943	16.46
571.14	16.5
571.336	16.57
571.533	16.67
571.729	16.76
571.926	16.83
572.123	16.89
572.319	16.92
572.516	17.02
572.712	17.08
572.909	17.14
573.105	17.19
573.302	17.24
573.498	17.32
573.695	17.37
573.891	17.38
574.087	17.46
574.284	17.48
574.48	17.48
574.677	17.52
574.873	17.57
575.069	17.69
575.266	17.76
575.462	17.79
575.658	17.85
575.854	17.91
576.051	17.91
576.247	17.91
576.443	17.89
576.639	17.92
576.835	17.95
577.032	17.96
577.228	18.01
577.424	18.09
577.62	18.15
577.816	18.19
578.012	18.24
578.208	18.24
578.404	18.32
578.6	18.37
578.796	18.38
578.993	18.4
579.189	18.38
579.384	18.37
579.58	18.39
579.776	18.41
579.972	18.42
580.168	18.44
580.364	18.44
580.56	18.47
580.756	18.45
580.952	18.46
581.148	18.43
581.343	18.43
581.539	18.43
581.735	18.39
581.931	18.4
582.127	18.41
582.322	18.38
582.518	18.39
582.714	18.31
582.909	18.26
583.105	18.28
583.301	18.26
583.496	18.24
583.692	18.24
583.888	18.2
584.083	18.23
584.279	18.25
584.474	18.23
584.67	18.23
584.866	18.24
585.061	18.24
585.257	18.27
585.452	18.32
585.648	18.28
585.843	18.33
586.039	18.34
586.234	18.33
586.429	18.31
586.625	18.24
586.82	18.14
587.015	18.13
587.211	18.05
587.406	18.08
587.601	18.1
587.797	18.1
587.992	18.12
588.187	18.15
588.383	18.18
588.578	18.15
588.773	18.11
588.968	18.08
589.163	18.11
589.359	18.1
589.554	18.13
589.749	18.14
589.944	18.23
590.139	18.27
590.334	18.26
590.529	18.28
590.724	18.32
590.919	18.32
591.114	18.33
591.309	18.34
591.504	18.3
591.699	18.32
591.894	18.32
592.089	18.36
592.284	18.34
592.479	18.36
592.674	18.37
592.869	18.44
593.064	18.53
593.259	18.54
593.454	18.57
593.648	18.62
593.843	18.64
594.038	18.71
594.233	18.73
594.428	18.76
594.622	18.78
594.817	18.87
595.012	18.94
595.206	19.02
595.401	19.04
595.596	19.18
595.79	19.2
595.985	19.29
596.18	19.36
596.374	19.39
596.569	19.49
596.763	19.6
596.958	19.58
597.153	19.63
597.347	19.7
597.542	19.73
597.736	19.87
597.931	19.88
598.125	19.93
598.319	19.97
598.514	20.09
598.708	20.13
598.903	20.2
599.097	20.24
599.291	20.31
599.486	20.34
599.68	20.36
599.874	20.39
600.069	20.47
600.263	20.5
600.457	20.52
600.651	20.6
600.846	20.66
601.04	20.75
601.234	20.83
601.428	20.87
601.622	20.91
601.817	20.96
602.011	20.97
602.205	20.97
602.399	21.01
602.593	20.97
602.787	20.99
602.981	21
603.175	21.03
603.369	20.96
603.563	20.99
603.757	20.94
603.951	20.96
604.145	20.9
604.339	20.89
604.533	20.84
604.727	20.88
604.921	20.82
605.115	20.8
605.309	20.8
605.502	20.82
605.696	20.83
605.89	20.79
606.084	20.72
606.278	20.69
606.471	20.65
606.665	20.57
606.859	20.53
607.053	20.43
607.246	20.43
607.44	20.45
607.634	20.44
607.827	20.42
608.021	20.37
608.214	20.34
608.408	20.33
608.602	20.24
608.795	20.16
608.989	20.12
609.182	20.11
609.376	20.06
609.569	19.94
609.763	19.92
609.956	19.87
610.15	19.83
610.343	19.76
610.537	19.7
610.73	19.64
610.923	19.56
611.117	19.45
611.31	19.37
611.504	19.33
611.697	19.27
611.89	19.14
612.083	19.11
612.277	19.07
612.47	19.04
612.663	19.01
612.856	18.89
613.05	18.8
613.243	18.76
613.436	18.62
613.629	18.65
613.822	18.56
614.015	18.51
614.209	18.49
614.402	18.43
614.595	18.35
614.788	18.35
614.981	18.23
615.174	18.14
615.367	18.08
615.56	17.96
615.753	17.93
615.946	17.88
616.139	17.83
616.332	17.76
616.525	17.77
616.718	17.75
616.911	17.76
617.103	17.69
617.296	17.67
617.489	17.61
617.682	17.57
617.875	17.48
618.067	17.37
618.26	17.3
618.453	17.22
618.646	17.17
618.838	17.17
619.031	17.16
619.224	17.16
619.417	17.16
619.609	17.16
619.802	17.2
619.994	17.2
620.187	17.16
620.38	17.13
620.572	17.08
620.765	17
620.957	16.93
621.15	16.87
621.342	16.85
621.535	16.8
621.727	16.79
621.92	16.78
622.112	16.77
622.305	16.77
622.497	16.75
622.69	16.71
622.882	16.72
623.074	16.66
623.267	16.68
623.459	16.68
623.651	16.69
623.844	16.73
624.036	16.78
624.228	16.76
624.42	16.73
624.613	16.69
624.805	16.69
624.997	16.64
625.189	16.59
625.381	16.55
625.574	16.52
625.766	16.53
625.958	16.48
626.15	16.53
626.342	16.56
626.534	16.51
626.726	16.51
626.918	16.51
627.11	16.48
627.302	16.47
627.494	16.38
627.686	16.29
627.878	16.28
628.07	16.23
628.262	16.18
628.454	16.18
628.646	16.11
628.838	16.1
629.029	16.06
629.221	16.02
629.413	15.95
629.605	15.92
629.797	15.87
629.989	15.88
630.18	15.81
630.372	15.83
630.564	15.83
630.755	15.77
630.947	15.73
631.139	15.65
631.33	15.66
631.522	15.64
631.714	15.64
631.905	15.54
632.097	15.55
632.289	15.53
632.48	15.56
632.672	15.52
632.863	15.46
633.055	15.39
633.246	15.44
633.438	15.39
633.629	15.36
633.821	15.35
634.012	15.29
634.203	15.34
634.395	15.38
634.586	15.32
634.777	15.33
634.969	15.35
635.16	15.33
635.351	15.3
635.543	15.25
635.734	15.15
635.925	15.19
636.117	15.22
636.308	15.18
636.499	15.13
636.69	15.2
636.881	15.22
637.073	15.23
637.264	15.17
637.455	15.14
637.646	15.14
637.837	15.16
638.028	15.14
638.219	15.1
638.41	15.09
638.601	15.07
638.792	14.96
638.983	14.89
639.174	14.85
639.365	14.81
639.556	14.8
639.747	14.82
639.938	14.87
640.129	14.9
640.32	14.89
640.511	14.89
640.701	14.85
640.892	14.81
641.083	14.72
641.274	14.64
641.465	14.63
641.655	14.66
641.846	14.6
642.037	14.59
642.228	14.57
642.418	14.56
642.609	14.51
642.8	14.5
642.99	14.44
643.181	14.46
643.372	14.43
643.562	14.42
643.753	14.35
643.943	14.32
644.134	14.26
644.324	14.25
644.515	14.21
644.705	14.2
644.896	14.15
645.086	14.17
645.277	14.22
645.467	14.2
645.658	14.19
645.848	14.19
646.038	14.15
646.229	14.16
646.419	14.17
646.61	14.1
646.8	14.06
646.99	14.03
647.18	13.99
647.371	13.97
647.561	13.97
647.751	13.87
647.941	13.8
648.132	13.85
648.322	13.88
648.512	13.86
648.702	13.8
648.892	13.82
649.082	13.83
649.272	13.86
649.462	13.82
649.653	13.77
649.843	13.7
650.033	13.7
650.223	13.65
650.413	13.64
650.603	13.64
650.793	13.59
650.983	13.57
651.172	13.59
651.362	13.54
651.552	13.5
651.742	13.44
651.932	13.46
652.122	13.44
652.312	13.25
652.502	13.2
652.691	13.19
652.881	13.12
653.071	13.12
653.261	13.02
653.45	12.96
653.64	13.05
653.83	12.98
654.019	12.85
654.209	12.77
654.399	12.61
654.588	12.51
654.778	12.39
654.968	12.24
655.157	12.13
655.347	12.04
655.536	11.88
655.726	11.85
655.915	11.69
656.105	11.6
656.294	11.52
656.484	11.43
656.673	11.32
656.863	11.23
657.052	11.02
657.241	10.9
657.431	10.76
657.62	10.57
657.809	10.46
657.999	10.34
658.188	10.21
658.377	10.2
658.567	10.1
658.756	9.97
658.945	9.88
659.134	9.71
659.324	9.53
659.513	9.41
659.702	9.2
659.891	9.06
660.08	8.96
660.269	8.9
660.458	8.79
660.648	8.72
660.837	8.64
661.026	8.56
661.215	8.47
661.404	8.34
661.593	8.15
661.782	8.04
661.971	7.93
662.16	7.77
662.349	7.64
662.538	7.52
662.726	7.36
662.915	7.27
663.104	7.06
663.293	6.96
663.482	6.92
663.671	6.85
663.86	6.79
664.048	6.77
664.237	6.73
664.426	6.8
664.615	6.7
664.803	6.6
664.992	6.52
665.181	6.46
665.369	6.42
665.558	6.35
665.747	6.27
665.935	6.27
666.124	6.23
666.312	6.12
666.501	6
666.69	5.9
666.878	5.84
667.067	5.79
667.255	5.72
667.444	5.66
667.632	5.67
667.82	5.64
668.009	5.59
668.197	5.55
668.386	5.48
668.574	5.42
668.762	5.35
668.951	5.31
669.139	5.34
669.327	5.3
669.516	5.29
669.704	5.31
669.892	5.3
670.08	5.35
670.269	5.37
670.457	5.34
670.645	5.37
670.833	5.34
671.021	5.29
671.21	5.33
671.398	5.26
671.586	5.24
671.774	5.25
671.962	5.27
672.15	5.29
672.338	5.38
672.526	5.38
672.714	5.45
672.902	5.46
673.09	5.46
673.278	5.49
673.466	5.53
673.654	5.48
673.842	5.54
674.03	5.58
674.218	5.67
674.405	5.75
674.593	5.74
674.781	5.77
674.969	5.83
675.157	5.86
675.344	5.92
675.532	5.94
675.72	5.93
675.908	6.02
676.095	6.09
676.283	6.14
676.471	6.11
676.658	6.2
676.846	6.22
677.033	6.36
677.221	6.39
677.409	6.43
677.596	6.57
677.784	6.66
677.971	6.63
678.159	6.69
678.346	6.72
678.534	6.76
678.721	6.76
678.909	6.79
679.096	6.77
679.283	6.89
679.471	6.96
679.658	7.01
679.846	7.11
680.033	7.23
680.22	7.25
680.408	7.4
680.595	7.42
680.782	7.48
680.969	7.52
681.157	7.59
681.344	7.75
681.531	7.88
681.718	7.99
681.905	8.12
682.093	8.28
682.28	8.41
682.467	8.52
682.654	8.54
682.841	8.69
683.028	8.95
683.215	9.06
683.402	9.08
683.589	9.23
683.776	9.41
683.963	9.58
684.15	9.78
684.337	9.86
684.524	10.06
684.711	10.34
684.898	10.49
685.085	10.69
685.271	10.87
685.458	11.08
685.645	11.3
685.832	11.55
686.019	11.74
686.205	12.05
686.392	12.32
686.579	12.64
686.766	12.95
686.952	13.32
687.139	13.63
687.326	14.09
687.512	14.43
687.699	14.78
687.886	15.12
688.072	15.48
688.259	15.83
688.445	16.2
688.632	16.57
688.818	16.95
689.005	17.47
689.191	17.89
689.378	18.21
689.564	18.65
689.751	19.1
689.937	19.51
690.124	20.02
690.31	20.36
690.496	20.9
690.683	21.45
690.869	22
691.055	22.66
691.242	23.13
691.428	23.7
691.614	24.34
691.8	24.85
691.987	25.55
692.173	26.08
692.359	26.75
692.545	27.54
692.731	28.15
692.918	28.76
693.104	29.4
693.29	30.02
693.476	30.73
693.662	31.22
693.848	31.72
694.034	32.38
694.22	33.06
694.406	33.78
694.592	34.45
694.778	35.03
694.964	35.68
695.15	36.38
695.336	37.1
695.522	37.76
695.708	38.5
695.894	39.22
696.08	39.91
696.265	40.55
696.451	41.33
696.637	42.01
696.823	42.66
697.009	43.32
697.194	43.83
697.38	44.44
697.566	44.98
697.751	45.51
697.937	45.97
698.123	46.54
698.308	46.94
698.494	47.54
698.68	48.13
698.865	48.84
699.051	49.35
699.236	49.89
699.422	50.37
699.607	50.83
699.793	51.29
699.978	51.72
700.164	52.14
700.349	52.67
700.535	53.29
700.72	53.67
700.906	54.28
701.091	54.88
701.276	55.25
701.462	55.78
701.647	56.07
701.832	56.44
702.018	56.98
702.203	57.37
702.388	57.5
702.573	58
702.759	58.35
702.944	59.07
703.129	59.37
703.314	59.69
703.499	59.96
703.684	60.43
703.87	60.77
704.055	61.11
704.24	61.2
704.425	61.65
704.61	61.97
704.795	62.42
704.98	62.75
705.165	63.1
705.35	63.35
705.535	63.64
705.72	63.77
705.905	63.87
706.09	63.98
706.275	64.19
706.459	64.42
706.644	64.72
706.829	65.03
707.014	65.28
707.199	65.65
707.384	66.03
707.568	66.46
707.753	66.8
707.938	67.04
708.123	67.04
708.307	67.57
708.492	67.77
708.677	67.95
708.861	68.01
709.046	68.07
709.231	68.23
709.415	68.47
709.6	68.39
709.784	68.76
709.969	69.15
710.153	69.56
710.338	69.86
710.522	69.96
710.707	69.92
710.891	70.18
711.076	70.25
711.26	70.15
711.445	70.07
711.629	70.42
711.813	70.55
711.998	71.01
712.182	71.15
712.366	71.26
712.551	71.49
712.735	71.57
712.919	71.64
713.103	71.89
713.288	72.08
713.472	72.17
713.656	72.21
713.84	72.39
714.024	72.63
714.208	72.53
714.393	72.81
714.577	72.92
714.761	73.05
714.945	73.13
715.129	73.14
715.313	73.05
715.497	73.09
715.681	73.15
715.865	73.3
716.049	73.5
716.233	73.62
716.417	73.83
716.601	74.16
716.785	74.28
716.968	74.07
717.152	74.06
717.336	74.03
717.52	74.41
717.704	74.42
717.888	74.47
718.071	74.75
718.255	74.81
718.439	74.66
718.622	74.58
718.806	74.29
718.99	74.31
719.174	74.36
719.357	74.48
719.541	74.97
719.724	75.28
719.908	75.42
720.092	75.88
720.275	76.17
720.459	76.31
720.642	76.27
720.826	75.93
721.009	75.93
721.193	76.08
721.376	75.99
721.559	75.72
721.743	75.88
721.926	75.75
722.11	76.03
722.293	75.98
722.476	75.97
722.66	76.11
722.843	76.51
723.026	76.38
723.21	76.44
723.393	76.53
723.576	76.97
723.759	77.19
723.942	77.25
724.126	77.07
724.309	77.23
724.492	77.62
724.675	77.41
724.858	77.48
725.041	77.59
725.224	77.82
725.407	77.96
725.59	78.16
725.774	78.08
725.957	78.38
726.14	78.07
726.322	77.95
726.505	78.02
726.688	78.46
726.871	78.45
727.054	78.45
727.237	78.45
727.42	78.86
727.603	78.96
727.786	79.01
727.968	78.91
728.151	79.29
728.334	79.33
728.517	79.63
728.699	79.89
728.882	80.12
729.065	79.92
729.248	79.59
729.43	79.45
729.613	80.02
729.796	79.97
729.978	80.06
730.161	80.2
730.343	80.43
730.526	80.9
730.708	81.06
730.891	80.94
731.073	80.95
731.256	80.7
731.438	80.81
731.621	81.37
731.803	81.2
731.986	81.47
732.168	81.52
732.35	81.69
732.533	82.05
732.715	82.31
732.898	82.19
733.08	82.69
733.262	82.64
733.444	82.61
733.627	82.65
733.809	82.38
733.991	82.65
734.173	82.44
734.355	82.33
734.538	82.19
734.72	82.51
734.902	82.69
735.084	82.9
735.266	82.8
735.448	82.82
735.63	82.44
735.812	82.28
735.994	82.03
736.176	82.01
736.358	82.1
736.54	82.03
736.722	81.99
736.904	82.47
737.086	82.5
737.268	82.58
737.45	83.07
737.632	82.96
737.814	82.8
737.995	83.24
738.177	83.75
738.359	84.11
738.541	83.87
738.723	83.61
738.904	83.51
739.086	83.68
739.268	84.37
739.449	84.09
739.631	84.14
739.813	84.84
739.994	85.1
740.176	85.47
740.358	85.38
740.539	84.84
740.721	84.57
740.902	84.11
741.084	83.71
741.265	83.38
741.447	83.05
741.628	83.06
741.81	82.7
741.991	83.08
742.172	83.06
742.354	83.35
742.535	83.14
742.717	83.09
742.898	83.35
743.079	83.42
743.261	83.5
743.442	83.99
743.623	83.61
743.804	83.49
743.986	83.51
744.167	83.38
744.348	83.97
744.529	83.52
744.71	83.58
744.891	83.98
745.073	84.22
745.254	85.15
745.435	85.14
745.616	84.76
745.797	84.8
745.978	85.15
746.159	85.37
746.34	85.9
746.521	85.55
746.702	85.33
746.883	85.8
747.064	85.64
747.245	86.2
747.426	85.69
747.606	85.5
747.787	85.77
747.968	86.25
748.149	85.77
748.33	86.73
748.51	85.96
748.691	86.24
748.872	86.4
749.053	85.73
749.233	85.14
749.414	84.94
749.595	84.37
749.775	84.47
749.956	84.06
750.137	83.27
750.317	83.43
750.498	83.95
750.678	84.48
750.859	84.29
751.04	83.99
751.22	84.07
751.4	84.87
751.581	84.27
751.761	84.83
751.942	84.81
752.122	85.06
752.303	84.84
752.483	85.6
752.663	85.28
752.844	85.03
753.024	84.59
753.204	83.83
753.385	83.81
753.565	83.73
753.745	82.6
753.925	82.68
754.106	83.43
754.286	83.6
754.466	83.46
754.646	82.76
754.826	83.39
755.006	83.77
755.187	84.07
755.367	84.52
755.547	84.42
755.727	84.62
755.907	85.99
756.087	86.14
756.267	86.45
756.447	86.04
756.627	84.67
756.807	84.57
756.987	85.3
757.167	84.48
757.346	83.58
757.526	83.61
757.706	84
757.886	84.71
758.066	84.5
758.246	83.98
758.425	83.83
758.605	84.12
758.785	84.07
758.965	83.07
759.144	83.39
759.324	83.89
759.504	83.57
759.683	83.7
759.863	83.67
760.043	82.96
760.222	82.77
760.402	82.65
760.581	81.93
760.761	81.96
760.94	81.58
761.12	81.82
761.299	81.8
761.479	83.01
761.658	83.16
761.838	83.01
762.017	83.15
762.197	83.87
762.376	82.57
762.555	82.69
762.735	81.64
762.914	81.45
763.093	81.56
763.273	80.96
763.452	80.34
763.631	81.2
763.81	81.82
763.99	82.72
764.169	83.41
764.348	83.66
764.527	83.84
764.706	84.64
764.885	84.55
765.064	84.34
765.243	83.76
765.423	83.24
765.602	82.77
765.781	83.57
765.96	82.8
766.139	83.39
766.318	83.62
766.497	84.68
766.676	84.53
766.854	84.72
767.033	84.06
767.212	83.48
767.391	83.38
767.57	83.17
767.749	82
767.928	81.59
768.106	81.92
768.285	81.78
768.464	82.27
768.643	81.88
768.821	81.74
769	81.98
769.179	81.23
769.357	81.1
769.536	80.89
769.715	81.49
769.893	81.05
770.072	81.51
770.25	81.58
770.429	82.89
770.607	82.64
770.786	83.78
770.964	82.72
771.143	82.88
771.321	81.49
771.5	81.12
771.678	80.84
771.857	79.9
772.035	78.87
772.213	78.95
772.392	79.72
772.57	80.93
772.748	80.47
772.927	80.75
773.105	82.09
773.283	81.68
773.461	82.31
773.64	81.93
773.818	80.3
773.996	80.86
774.174	81.11
774.352	80.49
774.531	80.86
774.709	81.03
774.887	80.96
775.065	83.06
775.243	83.7
775.421	82.59
775.599	82.19
775.777	84.02
775.955	83.96
776.133	83.1
776.311	81.89
776.489	81.81
776.667	81.67
776.844	82.55
777.022	81.02
777.2	80.29
777.378	80.54
777.556	81.5
777.734	81.35
777.911	82.93
778.089	82.55
778.267	81.24
778.445	81.3
778.622	80.72
778.8	79.83
778.978	79.16
779.155	77.72
779.333	76.99
779.511	77.98
779.688	77.85
779.866	78.05
780.043	77.62
780.221	77.58
780.398	78.42
780.576	77.75
780.753	78.21
780.931	77.91
781.108	79.29
781.286	79.43
781.463	80.19
781.64	79.34
781.818	79.99
781.995	80.98
782.172	80.94
782.35	79.64
782.527	80.33
782.704	79.03
782.882	80.24
783.059	79.95
783.236	79.17
783.413	80.5
783.59	81.18
783.768	79.81
783.945	80.29
784.122	79.65
784.299	80.66
784.476	81.15
784.653	79.24
784.83	78.45
785.007	78.97
785.184	78.81
785.361	78.3
785.538	78.06
785.715	76.09
785.892	77.05
786.069	77.07
786.246	76.96
786.423	78.76
786.6	79.62
786.776	78.8
786.953	79.27
787.13	79.42
787.307	79.77
787.484	79.89
787.66	77.64
787.837	75.61
788.014	75.38
788.191	75.57
788.367	75.02
788.544	75.88
788.721	74.59
788.897	75.61
789.074	76.5
789.25	77.98
789.427	77.08
789.603	78.2
789.78	77.61
789.956	77.9
790.133	77.38
790.309	77.51
790.486	78
790.662	79.31
790.839	80.24
791.015	81.3
791.192	82.65
791.368	83.97
791.544	83.4
791.721	82.15
791.897	81.01
792.073	78.33
792.249	79.69
792.426	79.68
792.602	78.1
792.778	78.17
792.954	78.51
793.13	78.88
793.307	77.14
793.483	74.05
793.659	75.58
793.835	74.27
794.011	72.2
794.187	70.08
794.363	71.97
794.539	73.9
794.715	74.27
794.891	72.05
795.067	72.33
795.243	76.05
795.419	78.74
795.595	76.66
795.771	77.74
795.947	78.31
796.122	78.66
796.298	79.3
796.474	78.54
796.65	78.88
796.826	80.15
797.001	79.7
797.177	77.17
797.353	76.86
797.529	79.19
797.704	79.86
797.88	80.31
798.056	80.89
798.231	79.76
798.407	80.42
798.582	81.9
798.758	80.45
798.934	76.61
799.109	73.62
799.285	74.39
799.46	73.83
799.636	74.95
799.811	74.23
799.986	74.94
800.162	76.86
800.337	77.47
800.513	76.1
800.688	80.36
800.863	83.88
801.039	82.85
801.214	80.73
801.389	83.15
801.565	84.74
801.74	81.98
801.915	80.82
802.09	76.06
802.265	75.19
802.441	75.18
802.616	72.56
802.791	72.95
802.966	75.46
803.141	71.35
803.316	73.61
803.491	71.86
803.666	75.48
803.841	75.85
804.016	76.11
804.191	76.28
804.366	78.27
804.541	78.22
804.716	78.32
804.891	79.08
805.066	75.85
805.241	71.31
805.416	71.02
805.591	74.28
805.765	73.86
805.94	77.47
806.115	73.8
806.29	78.37
806.464	78.73
806.639	77.23
806.814	71.66
806.989	69.47
807.163	67.01
807.338	68.24
807.512	63.8
807.687	68.28
807.862	69.57
808.036	71.21
808.211	74.65
808.385	75.89
808.56	75.48
808.734	76.51
808.909	73.6
809.083	71.04
809.258	73.56
809.432	72.04
809.606	71.44
809.781	69.58
809.955	74.37
810.13	75.83
810.304	78.17
810.478	77.05
810.652	79.08
810.827	77.6
811.001	78.97
811.175	73.51
811.349	76.86
811.524	74.79
811.698	74.02
811.872	71.37
812.046	72.72
812.22	73.42
812.394	77.66
812.568	73.39
812.742	72.66
812.916	70.26
813.09	72.69
813.264	71.91
813.438	75.33
813.612	72.72
813.786	67.22
813.96	68.67
814.134	69.07
814.308	62.09
814.482	63.44
814.656	63.56
814.83	63.88
815.003	69.31
815.177	71.19
815.351	73.34
815.525	76.43
815.698	77.26
815.872	71.9
816.046	76.35
816.219	76.32
816.393	72.68
816.567	71.89
816.74	72.01
816.914	72.73
817.088	73.38
817.261	68.65
817.435	63.15
817.608	65.87
817.782	66.88
817.955	62.18
818.129	65.11
818.302	67.55
818.475	72.15
818.649	73.45
818.822	74.92
818.996	72.47
819.169	81.1
819.342	74.27
819.516	73.86
819.689	68.73
819.862	69.93
820.035	66.23
820.209	62.98
820.382	60.02
820.555	64.13
820.728	59.03
820.901	59.06
821.075	58.14
821.248	56.21
821.421	59.53
821.594	58.9
821.767	54.62
821.94	55.85
822.113	61.62
822.286	58.51
822.459	64.81
822.632	66.28
822.805	64.38
822.978	61.11
823.151	61.54
823.324	53.66
823.496	54.01
823.669	53.25
823.842	53.02
824.015	56.95
824.188	62.42
824.361	63.48
824.533	71.09
824.706	87.4
824.879	82.44
825.051	85.9
825.224	83.67
825.397	80.3
825.569	77.66
825.742	69.67
825.915	62.15
826.087	57.26
826.26	52.76
826.432	51.12
826.605	48.01
826.777	48.06
826.95	47.88
827.122	48.02
827.295	51.33
827.467	44.95
827.64	39.86
827.812	39.78
827.984	44.04
828.157	52.32
828.329	53.61
828.501	54.56
828.674	61.63
828.846	62.26
829.018	58.97
829.19	51.87
829.363	42.63
829.535	42.38
829.707	43.93
829.879	42.32
830.051	45.38
830.223	52.87
830.395	58.3
830.568	63.51
830.74	68.34
830.912	65.61
831.084	61.02
831.256	61.65
831.428	65.01
831.6	67.26
831.772	70.46
831.943	68.86
832.115	72.99
832.287	71.56
832.459	70.3
832.631	67.81
832.803	69.11
832.975	61.54
833.146	63.66
833.318	61.44
833.49	65.15
833.662	64.16
833.833	68.39
834.005	66.66
834.177	70.63
834.348	66.61
834.52	70.39
834.692	74.28
834.863	77.31
835.035	66.18
835.206	60.92
835.378	54.16
835.549	61.32
835.721	51.98
835.892	52.34
836.064	55.6
836.235	61.41
836.407	64.04
836.578	70.81
836.749	72.08
836.921	81.52
837.092	84.49
837.264	74.13
837.435	59.59
837.606	56.34
837.777	49.38
837.949	46.73
838.12	44.37
838.291	44.69
838.462	53.16
838.633	61.15
838.805	58.45
838.976	59.85
839.147	52.46
839.318	43.43
839.489	40.71
839.66	37.55
839.831	27.4
840.002	25.17
840.173	16.36
840.344	23.14
840.515	33.85
840.686	37.92
840.857	32.41
841.028	42.68
841.199	47.36
841.369	43.5
841.54	38.34
841.711	42.25
841.882	30.41
842.053	32.03
842.223	31.91
842.394	38.46
842.565	55.77
842.736	49.86
842.906	43.23
843.077	47.34
843.248	57.44
843.418	54.65
843.589	55.49
843.759	51.22
843.93	56.85
844.101	61.68
844.271	55.53
844.442	51.59
844.612	52.13
844.783	40.72
844.953	34.9
845.123	44.4
845.294	34.98
845.464	55.79
845.635	54.9
845.805	52.85
845.975	52.37
846.146	55.42
846.316	49.04
846.486	56.55
846.656	49.93
846.827	56.18
846.997	64.94
847.167	61.05
847.337	63.84
847.507	59.44
847.677	65.68
847.848	65.85
848.018	51.8
848.188	31.07
848.358	29.74
848.528	35.74
848.698	24.45
848.868	-7.99
849.038	-0.62
849.208	1.81
849.378	16.23
849.548	23.97
849.718	3.52
849.887	-0.95
850.057	25.1
850.227	26.02
850.397	25.75
850.567	35.07
850.737	46.25
850.906	58.62
851.076	67.32
851.246	70.15
851.415	61.77
851.585	63.98
851.755	65.47
851.924	63.17
852.094	58.26
852.264	61.96
852.433	57.25
852.603	68.59
852.772	66.73
852.942	57.03
853.111	48.78
853.281	43.85
853.45	49.75
853.62	45.37
853.789	34.98
853.959	34.19
854.128	29.16
854.297	36.3
854.467	40.41
854.636	19.81
854.805	22.99
854.975	36.66
855.144	41.03
855.313	41.18
855.482	30.57
855.652	33.16
855.821	42.18
855.99	46.47
856.159	23.42
856.328	32.49
856.497	28.59
856.667	45.11
856.836	47.94
857.005	50.97
857.174	51.5
857.343	57.53
857.512	43.76
857.681	32.89
857.85	14.44
858.019	8.37
858.188	-1.12
858.356	-5.34
858.525	10.58
858.694	14.48
858.863	34.4
859.032	34.42
859.201	18.78
859.369	20.93
859.538	20.67
859.707	8.09
859.876	17.21
860.044	10.5
860.213	8.58
860.382	31.04
860.55	46.86
860.719	44.77
860.888	56.1
861.056	58.44
861.225	63.72
861.393	58.07
861.562	45.6
861.73	39.78
861.899	35.57
862.067	35.05
862.236	35.85
862.404	33.06
862.572	34.92
862.741	37.42
862.909	28.16
863.078	14.64
863.246	7.93
863.414	0.99
863.582	5.29
863.751	23.93
863.919	26.28
864.087	19.19
864.255	34.76
864.424	48.4
864.592	55.2
864.76	47.12
864.928	37.22
865.096	25.24
865.264	34.76
865.432	21.23
865.6	4.21
865.768	-3.08
865.936	6.57
866.104	9.12
866.272	42.48
866.44	42.29
866.608	65.56
866.776	92
866.944	117.1
867.112	94.05
867.28	89.25
867.448	99.34
867.615	106.59
867.783	81.57
867.951	93.59
868.119	72
868.286	68.91
868.454	63.87
868.622	61.01
868.789	51.88
868.957	70.53
869.125	51.86
869.292	60.21
869.46	40.8
869.627	42
869.795	46.17
869.963	47.59
870.13	52.25
870.298	47.82
870.465	36.56
870.632	65.3
870.8	53.39
870.967	30.68
871.135	38.99
871.302	37.34
871.469	32.21
871.637	29.98
871.804	34.71
871.971	36.74
872.139	39.77
872.306	16.86
872.473	2.33
872.64	26.79
872.807	22.89
872.975	53.83
873.142	30.79
873.309	45.52
873.476	74.95
873.643	147.08
873.81	92.62
873.977	73.47
874.144	50.87
874.311	79.97
874.478	58.93
874.645	77.36
874.812	39.67
874.979	36.5
875.146	13.58
875.313	-53.87
875.48	-9.7
875.647	-79.7
875.813	-84.37
875.98	-19.13
876.147	13.51
876.314	49.86
876.481	54.88
876.647	42.75
876.814	50.09
876.981	49.26
877.147	44.8
877.314	41.18
877.481	30.88
877.647	34.02
877.814	21.42
877.98	3.84
878.147	0.13
878.314	-15.32
878.48	6.56
878.647	20.67
878.813	38.63
878.979	67.67
879.146	64.61
879.312	83.71
879.479	78.71
879.645	53.47
879.811	37.15
879.978	25.94
880.144	18.7
880.31	19.46
880.477	47.16
880.643	17.84
880.809	37.11
880.975	52.11
881.142	59.22
881.308	51.4
881.474	77.91
881.64	9.48
881.806	20.03
881.972	68.53
882.138	22.93
882.304	-20.85
882.47	33.69
882.636	-3.85
882.802	-11.7
882.968	17.62
883.134	-96.93
883.3	30.96
883.466	48.55
883.632	18.29
883.798	40.4
883.964	67.12
884.129	67.83
884.295	59.92
884.461	88.01
884.627	119.81
884.793	104.69
884.958	73.55
885.124	31.12
885.29	40.45
885.455	28.29
885.621	11.01
885.787	4.63
885.952	-12.86
886.118	-1.75
886.283	19.13
886.449	-16.08
886.614	-10.37
886.78	19.02
886.945	15.47
887.111	-5.51
887.276	-26.22
887.442	-28.85
887.607	-35.17
887.773	-24.59
887.938	-60.99
888.103	-17.74
888.269	-0.55
888.434	-12.28
888.599	5.74
888.764	26.15
888.93	20.35
889.095	19.5
889.26	35.46
889.425	74.04
889.59	69.35
889.756	80.29
889.921	52.73
890.086	45.28
890.251	44.53
890.416	-12.39
890.581	-36.31
890.746	-23.27
890.911	-77.32
891.076	-119.28
891.241	-110.37
891.406	-26.2
891.571	-21.31
891.736	-21.33
891.901	-0.32
892.065	7.59
892.23	11.97
892.395	7.36
892.56	-10.31
892.725	-0.28
892.889	-26.12
893.054	-43.52
893.219	-19.29
893.384	12.4
893.548	10
893.713	-116.83
893.878	-48.37
