Data from Ofra_PS_T2_1A_2HS09_Reflection_1.txt Node
Date: Wed Jul 21 18:03:39 EDT 2021
User: Adam
Spectrometer: FLMT01687
Trigger mode: 0
Integration Time (sec): 1.100000E0
Scans to average: 2
Electric dark correction enabled: true
Nonlinearity correction enabled: false
Boxcar width: 2
XAxis mode: Wavelengths
Number of Pixels in Spectrum: 3648
>>>>>Begin Spectral Data<<<<<
179.494	565.6
179.716	660.47
179.937	632.86
180.158	589.75
180.38	992.5
180.601	511.05
180.823	172.12
181.044	178.2
181.265	452.94
181.486	95.98
181.708	102.77
181.929	448.98
182.15	49.3
182.372	200.34
182.593	77
182.814	73.67
183.035	84.87
183.257	118.29
183.478	44.47
183.699	79.76
183.92	44.7
184.141	60.41
184.363	-15.24
184.584	58.57
184.805	58.73
185.026	67.37
185.247	65.03
185.468	49.23
185.689	33.53
185.91	15.56
186.132	42.37
186.353	43.28
186.574	112.26
186.795	97.41
187.016	77.25
187.237	31.03
187.458	6.38
187.679	-27.81
187.9	-24.41
188.121	-7.04
188.342	-13.92
188.563	41.5
188.784	65.65
189.005	107.44
189.226	156.01
189.447	170.93
189.667	223.79
189.888	20.2
190.109	-772.73
190.33	-488.39
190.551	-927.43
190.772	-170.22
190.993	-152.74
191.214	-95.2
191.434	-81.55
191.655	7.24
191.876	-80.64
192.097	-97.73
192.318	-148.98
192.538	-178.89
192.759	-149.44
192.98	-37.39
193.201	5.86
193.421	19.13
193.642	34.43
193.863	37.19
194.083	27.05
194.304	18.59
194.525	13.76
194.745	1.52
194.966	-16.33
195.187	-17.92
195.407	-29.87
195.628	-76.81
195.848	-79.33
196.069	-57.67
196.29	-44.77
196.51	-72.19
196.731	-56.91
196.951	-61.14
197.172	-72.37
197.392	-87.45
197.613	-97.23
197.833	-145.72
198.054	-143.56
198.274	-99.68
198.495	-119.45
198.715	-60.53
198.936	-65.44
199.156	-47.86
199.377	-115.04
199.597	-113.8
199.817	-118.53
200.038	-63.97
200.258	-124.11
200.479	-54.02
200.699	-11.84
200.919	16.88
201.14	15.47
201.36	14.04
201.58	37.21
201.801	59.41
202.021	31.84
202.241	17.78
202.461	9.38
202.682	-84.97
202.902	-207.98
203.122	-136.3
203.342	-97.19
203.563	-23.32
203.783	6.51
204.003	11.09
204.223	33.16
204.443	64.09
204.663	29.57
204.884	42.61
205.104	83.36
205.324	90.84
205.544	84.48
205.764	84.02
205.984	59.89
206.204	51.29
206.424	29.05
206.644	5
206.864	4.67
207.084	6.53
207.304	-30.72
207.525	-95.94
207.745	-71.67
207.964	-23.86
208.184	-83.99
208.404	-92.9
208.624	-79.1
208.844	-75.03
209.064	-356.22
209.284	-300.26
209.504	-112.2
209.724	-31.64
209.944	-7.28
210.164	29.02
210.384	25.29
210.604	17.61
210.823	-24.39
211.043	-48.73
211.263	-27.8
211.483	-22.51
211.703	-64.5
211.922	-42.44
212.142	20.17
212.362	12.86
212.582	2.7
212.801	10.02
213.021	-21.03
213.241	-39.59
213.461	-63.82
213.68	-80.23
213.9	-36.74
214.12	13.81
214.339	-57.09
214.559	-24.21
214.779	6.38
214.998	-9.95
215.218	-88.61
215.438	-44.98
215.657	-63.31
215.877	-55.17
216.096	-21.01
216.316	15.49
216.535	11.17
216.755	12.43
216.974	-29.75
217.194	-108.51
217.413	-147.81
217.633	-137.72
217.852	-270.83
218.072	-116.29
218.291	-56.71
218.511	0.35
218.73	-9.63
218.95	-4.67
219.169	-13.62
219.389	-60.39
219.608	-39.82
219.827	-51.9
220.047	-21.92
220.266	-11.14
220.485	1.71
220.705	2.99
220.924	-13.81
221.143	9.85
221.363	-7.41
221.582	5.56
221.801	0.97
222.021	31.69
222.24	-13.55
222.459	22.03
222.678	-12.56
222.897	-62.34
223.117	-89.1
223.336	-85.13
223.555	-48.21
223.774	-5.46
223.993	4.64
224.213	53.54
224.432	52.07
224.651	50.54
224.87	18.49
225.089	33.64
225.308	16.06
225.527	24.48
225.746	25.97
225.965	20.55
226.184	-4.25
226.404	1.47
226.623	-25.51
226.842	-28.28
227.061	-1.54
227.28	13.01
227.499	10.17
227.718	34.48
227.936	30.99
228.155	46.64
228.374	17.84
228.593	23.31
228.812	19.11
229.031	19.36
229.25	-31.7
229.469	5.58
229.688	13.13
229.907	37.62
230.125	43.5
230.344	64.11
230.563	60.05
230.782	57.12
231.001	-23.87
231.22	-19.44
231.438	-6.52
231.657	-10.41
231.876	-18.35
232.095	39.32
232.313	37.2
232.532	35.51
232.751	1.14
232.969	-29.29
233.188	-129.88
233.407	-37.44
233.625	-34.72
233.844	-37.59
234.063	-8.9
234.281	24.95
234.5	13.25
234.719	18.47
234.937	37.44
235.156	37.23
235.374	23.19
235.593	8.54
235.811	3.05
236.03	-18.14
236.249	-71.8
236.467	-63.64
236.686	-16.54
236.904	-4.95
237.123	-33.62
237.341	-24.66
237.559	1.02
237.778	-27.98
237.996	-40.07
238.215	25.91
238.433	43.8
238.652	7.03
238.87	10.27
239.088	10.45
239.307	-17.02
239.525	-32.9
239.743	-37.41
239.962	-41.21
240.18	-52.44
240.398	-49.42
240.617	-45.49
240.835	-26.07
241.053	2.48
241.271	50.85
241.49	40.17
241.708	19.79
241.926	34.92
242.144	24.92
242.363	-37.95
242.581	-47.07
242.799	-17.94
243.017	4.55
243.235	-10.92
243.453	0.32
243.672	-8.85
243.89	-4.78
244.108	-17.34
244.326	5.43
244.544	7.33
244.762	-0.61
244.98	-2.64
245.198	-9.41
245.416	-39.66
245.634	-39.05
245.852	-29.36
246.07	-47.17
246.288	-42.04
246.506	-57.66
246.724	-16.37
246.942	-21.25
247.16	31.52
247.378	54.19
247.596	59.97
247.814	43.57
248.032	23.66
248.25	4.66
248.468	-1.78
248.685	5.99
248.903	43.78
249.121	43.75
249.339	21.62
249.557	19.47
249.775	24.53
249.992	-38.76
250.21	-22.78
250.428	-6.18
250.646	-45.68
250.863	-59.94
251.081	-36.85
251.299	-32.23
251.517	-49.02
251.734	-14.96
251.952	-26.96
252.17	-26.07
252.387	-13.33
252.605	-15.92
252.823	-2.82
253.04	17.62
253.258	36.55
253.475	26.61
253.693	56.45
253.911	52.55
254.128	41.69
254.346	42.81
254.563	27.66
254.781	2.22
254.998	-30.67
255.216	-23.67
255.433	-11.94
255.651	27.31
255.868	41.2
256.086	67.26
256.303	50.08
256.521	35.42
256.738	5
256.956	-28.57
257.173	-41.98
257.39	-41.27
257.608	-67.33
257.825	-18.5
258.043	20.56
258.26	27.58
258.477	49.22
258.695	45.97
258.912	-1.46
259.129	9.98
259.346	-23.1
259.564	-33.52
259.781	-34.71
259.998	35.27
260.216	56.39
260.433	83.42
260.65	76.28
260.867	75.6
261.084	38.39
261.302	16.94
261.519	5.47
261.736	-45.21
261.953	-57.2
262.17	-20.87
262.387	-51.33
262.604	-84.91
262.822	-56.73
263.039	-41.1
263.256	-76.92
263.473	-27.21
263.69	-6.88
263.907	19.56
264.124	33.89
264.341	27.36
264.558	10.76
264.775	21.07
264.992	1.15
265.209	-8.34
265.426	26.08
265.643	39.9
265.86	43.09
266.077	46.98
266.294	36.07
266.51	-12.08
266.727	-49.15
266.944	-45.35
267.161	-32.53
267.378	-18.38
267.595	5.75
267.812	-8.08
268.028	-29.14
268.245	-5.78
268.462	-24.52
268.679	-19.74
268.896	29.49
269.112	26.69
269.329	5.67
269.546	19
269.763	0.73
269.979	-20.6
270.196	-12.67
270.413	-38.08
270.629	-69.32
270.846	-69.17
271.063	-67.74
271.279	-86.4
271.496	-76.62
271.712	-13.96
271.929	9.24
272.146	-0.89
272.362	16.27
272.579	59.32
272.795	38.1
273.012	36.75
273.228	44.75
273.445	29.12
273.661	-3.01
273.878	-51.52
274.094	-54.45
274.311	-77.48
274.527	-20.12
274.744	-23.46
274.96	-7.63
275.177	3.41
275.393	24.46
275.609	13.73
275.826	42.19
276.042	32.15
276.259	24.66
276.475	23.76
276.691	25.76
276.908	1.51
277.124	18.07
277.34	17.35
277.557	10.8
277.773	2.95
277.989	3.49
278.205	2.91
278.422	22.2
278.638	28.89
278.854	51.51
279.07	52.21
279.286	40.39
279.503	4.27
279.719	-0.53
279.935	-36.02
280.151	-27
280.367	-6.14
280.583	-26.29
280.799	-32.18
281.016	-45.71
281.232	-25.07
281.448	-43.29
281.664	-7.11
281.88	-33.93
282.096	-14.8
282.312	-0.98
282.528	29.75
282.744	33.71
282.96	36.55
283.176	38.32
283.392	28.47
283.608	13.04
283.824	-1.71
284.04	2.46
284.256	8.27
284.471	-6.53
284.687	-11.54
284.903	17.56
285.119	43.98
285.335	13.13
285.551	32.06
285.767	16.64
285.982	-3.11
286.198	-64.12
286.414	1.75
286.63	8.93
286.846	42.35
287.061	30.51
287.277	64.97
287.493	26.52
287.709	30.98
287.924	6.79
288.14	31.22
288.356	19.88
288.571	43.74
288.787	31.49
289.003	30.27
289.218	11.49
289.434	-23.63
289.65	-9.83
289.865	-35.94
290.081	-20.69
290.296	-7.8
290.512	12.52
290.727	-27.57
290.943	-1.79
291.159	-21.94
291.374	-27.21
291.59	-37.08
291.805	-21.24
292.021	-19.31
292.236	-17.42
292.451	-2.85
292.667	-2.46
292.882	2.18
293.098	-7.76
293.313	-19.58
293.529	-51.17
293.744	-63.74
293.959	-51.23
294.175	-43.28
294.39	0.98
294.605	20.97
294.821	48.24
295.036	50.58
295.251	45.57
295.467	7.35
295.682	-9.16
295.897	-76.99
296.112	-90.89
296.328	-74.34
296.543	-75.38
296.758	-63.13
296.973	-9.84
297.188	31.82
297.404	15.95
297.619	7.39
297.834	5
298.049	-22.63
298.264	-50.42
298.479	-6.82
298.694	8.81
298.909	21.06
299.125	36.38
299.34	45.99
299.555	22.72
299.77	30.9
299.985	-22
300.2	-73.24
300.415	-102.29
300.63	-71.56
300.845	-83.21
301.06	-76.57
301.275	-35.81
301.49	-15.86
301.704	-14.97
301.919	-31.64
302.134	-37.47
302.349	-38.2
302.564	-95.19
302.779	-144.25
302.994	-96.55
303.209	-51.85
303.423	-22.55
303.638	45.14
303.853	21.53
304.068	19.95
304.283	18.3
304.497	6.5
304.712	-0.9
304.927	10
305.142	0.5
305.356	6.14
305.571	-6.85
305.786	-19.5
306	-37.3
306.215	-44.45
306.43	-70.86
306.644	-71.77
306.859	-31.12
307.074	-10.96
307.288	-20.13
307.503	-13.87
307.717	-21.52
307.932	-38.91
308.147	-31.07
308.361	-19.02
308.576	-18.38
308.79	-51.77
309.005	-46.37
309.219	-56.76
309.434	-67.71
309.648	-56.16
309.863	-8.23
310.077	-3.23
310.292	6.43
310.506	16.19
310.72	17.7
310.935	20.02
311.149	11.31
311.364	21.64
311.578	28.23
311.792	21.92
312.007	14.13
312.221	12.76
312.435	13.81
312.649	-0.18
312.864	26.09
313.078	55.27
313.292	110.17
313.507	81.65
313.721	127.27
313.935	60.8
314.149	29.65
314.363	15.79
314.578	33.04
314.792	17.6
315.006	6.86
315.22	19.12
315.434	19.56
315.648	17.23
315.862	18.37
316.077	10.92
316.291	-4.56
316.505	-4.44
316.719	-33.91
316.933	-43.07
317.147	-47.96
317.361	-89.17
317.575	-100.16
317.789	-120.09
318.003	-171.72
318.217	-148.95
318.431	-44.2
318.645	-3.17
318.859	11.39
319.073	46.59
319.287	37.62
319.5	3.98
319.714	-48.54
319.928	-81.91
320.142	-109.98
320.356	-37.19
320.57	14.73
320.784	-0.1
320.997	-9.99
321.211	-4.36
321.425	-62.31
321.639	-85.2
321.853	-6.96
322.066	24.61
322.28	8.64
322.494	13.15
322.707	17.27
322.921	12.69
323.135	10.33
323.349	29.57
323.562	7.28
323.776	3.33
323.989	-10.13
324.203	-42.47
324.417	-53.65
324.63	-43.94
324.844	-40.09
325.057	-29.38
325.271	0.52
325.485	17.87
325.698	28.77
325.912	37.29
326.125	19.86
326.339	16.6
326.552	-0.86
326.766	8.93
326.979	20.06
327.193	34.47
327.406	19.68
327.619	18.74
327.833	26.96
328.046	3.81
328.26	-20.42
328.473	7.93
328.686	-20.35
328.9	-21.1
329.113	-1.67
329.326	6.37
329.54	18.93
329.753	35.23
329.966	20.79
330.179	21.12
330.393	21.78
330.606	24.52
330.819	32.96
331.032	45.5
331.246	35.51
331.459	62.14
331.672	48.44
331.885	35.94
332.098	-2.03
332.311	-9.58
332.525	-70.15
332.738	-50.12
332.951	-17.95
333.164	9.95
333.377	27.26
333.59	37.96
333.803	33.6
334.016	25.15
334.229	43.68
334.442	52.78
334.655	79.26
334.868	69.38
335.081	52.82
335.294	24.46
335.507	2.28
335.72	-0.6
335.933	-15.08
336.146	-3.49
336.359	5.54
336.572	-21.63
336.785	-57.43
336.997	-45.95
337.21	-34.78
337.423	-31.78
337.636	-11.49
337.849	-4.4
338.062	-18.38
338.274	-13.2
338.487	-30.29
338.7	-32.68
338.913	-62.31
339.125	-77.71
339.338	-134.43
339.551	-78.13
339.763	-42.43
339.976	-12.23
340.189	27.7
340.402	37.91
340.614	13.42
340.827	-5.01
341.039	-19.28
341.252	-30.23
341.465	-18.09
341.677	-20.24
341.89	-55.03
342.102	-20.03
342.315	-37.84
342.527	-54.84
342.74	-41.73
342.952	8.16
343.165	-2.08
343.377	24.46
343.59	12.71
343.802	27.13
344.015	19.84
344.227	35.55
344.44	23.19
344.652	41.08
344.864	24.16
345.077	38.66
345.289	36.49
345.502	38.02
345.714	21.03
345.926	23.13
346.139	12.17
346.351	4.38
346.563	5.71
346.775	25.48
346.988	13.24
347.2	-2.11
347.412	-33.67
347.624	-37.31
347.837	-68.82
348.049	-34.07
348.261	-12.37
348.473	-8.45
348.685	-6.04
348.897	-16.12
349.11	-24.9
349.322	-45.73
349.534	-23.95
349.746	-34.01
349.958	-14.75
350.17	-19.73
350.382	12.75
350.594	3.93
350.806	23.33
351.018	20.13
351.23	1.34
351.442	-62.51
351.654	-76.23
351.866	-79.95
352.078	-71.56
352.29	-19.45
352.502	6.99
352.714	24.81
352.926	18.33
353.138	26.93
353.35	5.68
353.561	13.3
353.773	-6.27
353.985	-4.29
354.197	-15.7
354.409	-15.58
354.621	-22.97
354.832	-14.7
355.044	-14.58
355.256	-12.47
355.468	2.41
355.679	-2.95
355.891	3.28
356.103	-7.46
356.314	-6.71
356.526	-20.73
356.738	-17.04
356.949	-30.84
357.161	-11.43
357.373	-10.85
357.584	-13.05
357.796	-5.44
358.008	-3.23
358.219	10.37
358.431	3.33
358.642	10.36
358.854	11.93
359.065	3.59
359.277	-35.17
359.488	-35.08
359.7	-43.98
359.911	-70.54
360.123	-51.09
360.334	-43.22
360.546	-61.24
360.757	-63.26
360.969	-47.94
361.18	-44.69
361.391	-30.91
361.603	-25.93
361.814	-7.59
362.025	-10.7
362.237	-1.59
362.448	13.97
362.659	30.43
362.871	20.13
363.082	34.58
363.293	35.99
363.504	22.43
363.716	8.7
363.927	2.6
364.138	-28.93
364.349	-44.21
364.56	-58.66
364.772	-50.35
364.983	-24.87
365.194	-19.41
365.405	-10.7
365.616	5.99
365.827	0.37
366.038	-18.06
366.25	-26.25
366.461	-42.95
366.672	-22.08
366.883	-8.74
367.094	-6
367.305	-5.48
367.516	-9.65
367.727	-31.52
367.938	-47.11
368.149	-44.99
368.36	-13.93
368.571	-0.95
368.781	-10.37
368.992	-9.52
369.203	-9.63
369.414	-37.91
369.625	-42.38
369.836	-41.94
370.047	-71.51
370.258	-68.47
370.468	-68.39
370.679	-88.41
370.89	-76.65
371.101	-39.08
371.312	-40.66
371.522	-24.01
371.733	-8.41
371.944	6.52
372.155	3.69
372.365	-2.76
372.576	-6.62
372.787	-10.71
372.997	-27.27
373.208	-18.61
373.419	13.9
373.629	-13.69
373.84	-2.14
374.05	-4.8
374.261	2.82
374.472	-30.06
374.682	12.46
374.893	13.87
375.103	44.58
375.314	33.35
375.524	42.62
375.735	41.23
375.945	43.44
376.156	10.68
376.366	19.21
376.577	15.84
376.787	1.94
376.997	-3.69
377.208	1.12
377.418	-25.21
377.629	-21.09
377.839	-13.9
378.049	-10.01
378.26	9.92
378.47	18.46
378.68	11.24
378.89	3.04
379.101	2.01
379.311	-34.68
379.521	-62.83
379.732	-52.6
379.942	-51.83
380.152	-72.05
380.362	-25.99
380.572	-11.15
380.783	-3.97
380.993	11.58
381.203	23.91
381.413	22.5
381.623	25.87
381.833	24.3
382.043	6.02
382.253	-1.29
382.463	-5.57
382.674	-12.69
382.884	-34.06
383.094	-29.26
383.304	-16.07
383.514	-15.39
383.724	-11.17
383.934	-14.38
384.144	-16.96
384.353	-30.7
384.563	-34.33
384.773	-28.59
384.983	-24.81
385.193	-4.85
385.403	6.66
385.613	10.45
385.823	5.47
386.033	9.04
386.242	-2.7
386.452	-11.11
386.662	-19.16
386.872	-7.46
387.082	-11.82
387.291	-13.18
387.501	-9.13
387.711	-4.34
387.921	-17.43
388.13	-15.18
388.34	-5.97
388.55	-12.78
388.759	-12.01
388.969	-3.76
389.179	-8.08
389.388	-11.4
389.598	-2.98
389.807	-5.46
390.017	-6.42
390.227	-0.4
390.436	-0.17
390.646	-0.45
390.855	0.32
391.065	-0.78
391.274	-4.67
391.484	-8.44
391.693	-4.68
391.903	-2.19
392.112	2.79
392.322	6.6
392.531	7.77
392.74	6.1
392.95	2.03
393.159	0.33
393.369	-1.27
393.578	-1.93
393.787	-2.96
393.997	0.03
394.206	-2.63
394.415	-2.1
394.625	-0.83
394.834	-1.91
395.043	-0.65
395.252	1.69
395.462	3.7
395.671	5.32
395.88	5.83
396.089	5.47
396.298	3.63
396.508	2.18
396.717	0.23
396.926	0.25
397.135	-0.13
397.344	-0.25
397.553	0.86
397.762	3.17
397.971	3.19
398.181	2.77
398.39	2.52
398.599	1.47
398.808	0.91
399.017	1.81
399.226	2.83
399.435	3.99
399.644	4.3
399.853	3.24
400.062	2.5
400.27	2.16
400.479	1.55
400.688	1.01
400.897	1.4
401.106	1.54
401.315	1.15
401.524	1.56
401.733	2.09
401.941	2.05
402.15	2.3
402.359	2.1
402.568	2.3
402.777	2.48
402.985	2.76
403.194	2.33
403.403	2.53
403.612	1.91
403.82	1.65
404.029	1.7
404.238	1.74
404.446	2.07
404.655	2.02
404.864	2.04
405.072	1.63
405.281	1.81
405.489	1.5
405.698	1.71
405.906	1.7
406.115	1.83
406.324	1.78
406.532	1.77
406.741	2
406.949	1.99
407.158	1.92
407.366	1.86
407.574	1.93
407.783	1.88
407.991	1.74
408.2	2.04
408.408	2.13
408.617	2.01
408.825	1.73
409.033	1.83
409.242	1.82
409.45	1.85
409.658	1.82
409.867	2.01
410.075	1.9
410.283	1.77
410.491	1.65
410.7	1.66
410.908	1.57
411.116	1.87
411.324	1.88
411.533	1.89
411.741	2.07
411.949	2.16
412.157	1.89
412.365	1.88
412.573	1.95
412.781	2
412.99	1.9
413.198	2.05
413.406	2.11
413.614	2.03
413.822	1.81
414.03	1.81
414.238	1.62
414.446	1.61
414.654	1.5
414.862	1.55
415.07	1.61
415.278	1.87
415.486	1.58
415.694	1.71
415.902	1.64
416.109	1.64
416.317	1.49
416.525	1.48
416.733	1.55
416.941	1.68
417.149	1.42
417.357	1.52
417.564	1.84
417.772	1.97
417.98	1.84
418.188	2.02
418.395	1.92
418.603	2.02
418.811	1.58
419.019	1.59
419.226	1.78
419.434	1.95
419.642	1.57
419.849	1.89
420.057	1.99
420.265	1.92
420.472	1.59
420.68	1.71
420.887	1.62
421.095	1.62
421.302	1.52
421.51	1.83
421.717	1.95
421.925	1.85
422.132	1.73
422.34	1.5
422.547	1.52
422.755	1.31
422.962	1.4
423.17	1.36
423.377	1.44
423.585	1.31
423.792	1.26
423.999	1.14
424.207	1.15
424.414	1.42
424.621	1.46
424.829	1.48
425.036	1.54
425.243	1.7
425.451	1.5
425.658	1.37
425.865	1.6
426.072	1.69
426.28	1.82
426.487	1.87
426.694	1.98
426.901	1.77
427.108	1.74
427.315	1.59
427.523	1.87
427.73	1.89
427.937	1.88
428.144	1.79
428.351	1.67
428.558	1.61
428.765	1.48
428.972	1.47
429.179	1.63
429.386	2
429.593	1.73
429.8	1.58
430.007	1.7
430.214	1.67
430.421	1.33
430.628	1.24
430.835	1.3
431.042	1.45
431.249	1.51
431.456	1.52
431.662	1.68
431.869	1.89
432.076	1.89
432.283	1.92
432.49	1.98
432.697	2.02
432.903	1.74
433.11	1.66
433.317	1.69
433.524	1.95
433.73	1.89
433.937	2.22
434.144	2.02
434.35	1.94
434.557	1.59
434.764	1.61
434.97	1.44
435.177	1.64
435.384	1.67
435.59	1.83
435.797	2.07
436.003	2.15
436.21	2.07
436.416	2.16
436.623	2.17
436.829	2.18
437.036	2.21
437.242	2.23
437.449	1.99
437.655	2
437.862	1.89
438.068	1.88
438.275	2.01
438.481	2.35
438.687	2.28
438.894	2.26
439.1	2.31
439.307	2.47
439.513	2.34
439.719	2.37
439.926	2.48
440.132	2.49
440.338	2.28
440.544	2.4
440.751	2.4
440.957	2.37
441.163	2.22
441.369	2.34
441.575	2.11
441.782	2.09
441.988	2.05
442.194	2.11
442.4	2.13
442.606	2.41
442.812	2.58
443.018	2.58
443.224	2.63
443.431	2.63
443.637	2.45
443.843	2.28
444.049	2.35
444.255	2.27
444.461	2.31
444.667	2.25
444.873	2.47
445.079	2.39
445.284	2.53
445.49	2.21
445.696	2.12
445.902	1.91
446.108	1.81
446.314	1.71
446.52	1.85
446.726	2.1
446.931	2.18
447.137	2.33
447.343	2.48
447.549	2.44
447.755	2.32
447.96	2.35
448.166	2.27
448.372	2.18
448.578	2.29
448.783	2.32
448.989	2.38
449.195	2.61
449.4	2.69
449.606	2.63
449.812	2.55
450.017	2.57
450.223	2.37
450.428	2.24
450.634	2.31
450.84	2.47
451.045	2.32
451.251	2.23
451.456	2.46
451.662	2.55
451.867	2.53
452.073	2.6
452.278	2.83
452.483	2.92
452.689	2.77
452.894	2.79
453.1	2.76
453.305	2.66
453.51	2.53
453.716	2.44
453.921	2.49
454.127	2.43
454.332	2.43
454.537	2.38
454.742	2.46
454.948	2.38
455.153	2.45
455.358	2.51
455.563	2.7
455.769	2.82
455.974	2.81
456.179	2.7
456.384	2.62
456.589	2.55
456.795	2.4
457	2.37
457.205	2.66
457.41	2.66
457.615	2.58
457.82	2.61
458.025	2.69
458.23	2.48
458.435	2.55
458.64	2.47
458.845	2.57
459.05	2.55
459.255	2.67
459.46	2.61
459.665	2.64
459.87	2.69
460.075	2.7
460.28	2.67
460.485	2.76
460.69	2.81
460.895	2.6
461.099	2.57
461.304	2.66
461.509	2.64
461.714	2.54
461.919	2.82
462.123	2.73
462.328	2.67
462.533	2.65
462.738	2.81
462.942	2.65
463.147	2.79
463.352	2.92
463.556	2.97
463.761	2.95
463.966	3.01
464.17	3
464.375	2.81
464.58	2.8
464.784	2.73
464.989	2.66
465.193	2.69
465.398	2.78
465.602	2.9
465.807	2.89
466.011	2.98
466.216	2.98
466.42	2.99
466.625	3.08
466.829	3.23
467.034	3.27
467.238	3.44
467.443	3.43
467.647	3.28
467.851	3.35
468.056	3.39
468.26	3.27
468.464	3.27
468.669	3.33
468.873	3.41
469.077	3.32
469.282	3.42
469.486	3.54
469.69	3.5
469.894	3.29
470.099	3.41
470.303	3.45
470.507	3.3
470.711	3.21
470.915	3.21
471.119	3.08
471.324	2.98
471.528	3.07
471.732	3.11
471.936	3.15
472.14	3.24
472.344	3.28
472.548	3.31
472.752	3.54
472.956	3.79
473.16	3.78
473.364	3.65
473.568	3.61
473.772	3.6
473.976	3.41
474.18	3.48
474.384	3.64
474.588	3.63
474.792	3.45
474.995	3.52
475.199	3.46
475.403	3.49
475.607	3.54
475.811	3.54
476.015	3.62
476.218	3.71
476.422	3.64
476.626	3.71
476.83	3.87
477.033	3.76
477.237	3.63
477.441	3.75
477.644	3.76
477.848	3.73
478.052	3.71
478.255	3.78
478.459	3.7
478.663	3.75
478.866	3.77
479.07	3.82
479.273	3.97
479.477	3.99
479.681	3.95
479.884	3.9
480.088	3.87
480.291	3.78
480.495	3.83
480.698	3.87
480.901	3.94
481.105	4.08
481.308	4.04
481.512	4
481.715	4.06
481.919	4.11
482.122	4.05
482.325	4.07
482.529	4.17
482.732	4.13
482.935	4.04
483.138	3.96
483.342	4.03
483.545	4.06
483.748	4.09
483.952	4.13
484.155	4.3
484.358	4.31
484.561	4.27
484.764	4.26
484.967	4.33
485.171	4.33
485.374	4.27
485.577	4.3
485.78	4.32
485.983	4.33
486.186	4.22
486.389	4.19
486.592	4.14
486.795	4.13
486.998	4.02
487.201	4.1
487.404	4.23
487.607	4.31
487.81	4.33
488.013	4.42
488.216	4.42
488.419	4.38
488.622	4.29
488.825	4.21
489.028	4.12
489.231	4.07
489.433	3.99
489.636	3.9
489.839	3.94
490.042	3.91
490.245	3.84
490.447	3.94
490.65	4.05
490.853	4.09
491.056	4.15
491.258	4.25
491.461	4.24
491.664	4.33
491.866	4.22
492.069	4.3
492.272	4.26
492.474	4.3
492.677	4.26
492.879	4.39
493.082	4.43
493.285	4.53
493.487	4.51
493.69	4.44
493.892	4.31
494.095	4.24
494.297	4.16
494.5	4.15
494.702	4.18
494.905	4.27
495.107	4.25
495.309	4.25
495.512	4.3
495.714	4.36
495.917	4.37
496.119	4.39
496.321	4.46
496.524	4.47
496.726	4.49
496.928	4.53
497.13	4.49
497.333	4.45
497.535	4.48
497.737	4.43
497.939	4.43
498.142	4.48
498.344	4.46
498.546	4.34
498.748	4.42
498.95	4.45
499.152	4.48
499.355	4.57
499.557	4.66
499.759	4.7
499.961	4.63
500.163	4.61
500.365	4.53
500.567	4.63
500.769	4.53
500.971	4.62
501.173	4.54
501.375	4.67
501.577	4.5
501.779	4.54
501.981	4.52
502.183	4.6
502.385	4.48
502.587	4.48
502.788	4.53
502.99	4.54
503.192	4.59
503.394	4.59
503.596	4.71
503.798	4.76
503.999	4.82
504.201	4.71
504.403	4.83
504.605	4.78
504.806	4.68
505.008	4.61
505.21	4.77
505.411	4.7
505.613	4.78
505.815	4.8
506.016	4.84
506.218	4.88
506.42	4.89
506.621	4.89
506.823	4.91
507.024	4.9
507.226	4.81
507.427	4.79
507.629	4.83
507.83	4.89
508.032	4.85
508.233	4.92
508.435	4.93
508.636	4.94
508.838	4.88
509.039	4.88
509.24	4.89
509.442	4.94
509.643	4.85
509.845	4.83
510.046	4.93
510.247	4.89
510.448	4.88
510.65	4.96
510.851	5.17
511.052	5.15
511.254	5.15
511.455	5.22
511.656	5.23
511.857	5.17
512.058	5.21
512.26	5.23
512.461	5.17
512.662	5.24
512.863	5.13
513.064	5.05
513.265	5.08
513.466	5.15
513.667	5.04
513.868	5.11
514.069	5.22
514.27	5.25
514.471	5.18
514.672	5.22
514.873	5.17
515.074	5.16
515.275	5.02
515.476	4.98
515.677	4.96
515.878	5.08
516.079	5.06
516.28	5.15
516.481	5.26
516.682	5.32
516.882	5.24
517.083	5.21
517.284	5.18
517.485	5.19
517.686	5.12
517.886	5.1
518.087	5.18
518.288	5.22
518.488	5.21
518.689	5.26
518.89	5.28
519.091	5.28
519.291	5.26
519.492	5.31
519.692	5.32
519.893	5.4
520.094	5.37
520.294	5.39
520.495	5.35
520.695	5.39
520.896	5.34
521.096	5.38
521.297	5.37
521.497	5.34
521.698	5.27
521.898	5.25
522.099	5.25
522.299	5.34
522.499	5.4
522.7	5.46
522.9	5.44
523.101	5.48
523.301	5.44
523.501	5.42
523.702	5.39
523.902	5.46
524.102	5.49
524.302	5.48
524.503	5.54
524.703	5.57
524.903	5.61
525.103	5.5
525.304	5.58
525.504	5.62
525.704	5.67
525.904	5.62
526.104	5.62
526.304	5.58
526.504	5.56
526.705	5.53
526.905	5.65
527.105	5.7
527.305	5.67
527.505	5.58
527.705	5.57
527.905	5.48
528.105	5.53
528.305	5.48
528.505	5.53
528.705	5.57
528.905	5.54
529.105	5.54
529.304	5.6
529.504	5.71
529.704	5.64
529.904	5.68
530.104	5.68
530.304	5.8
530.503	5.73
530.703	5.74
530.903	5.72
531.103	5.71
531.303	5.58
531.502	5.61
531.702	5.7
531.902	5.75
532.101	5.74
532.301	5.78
532.501	5.78
532.7	5.7
532.9	5.66
533.1	5.71
533.299	5.72
533.499	5.74
533.698	5.76
533.898	5.8
534.097	5.82
534.297	5.84
534.496	5.86
534.696	5.91
534.895	6
535.095	6.02
535.294	5.99
535.494	5.91
535.693	5.97
535.892	5.92
536.092	5.82
536.291	5.81
536.491	5.93
536.69	5.94
536.889	5.87
537.088	5.89
537.288	5.94
537.487	5.97
537.686	5.9
537.886	5.96
538.085	6.01
538.284	6.11
538.483	6.04
538.682	6.13
538.882	6.11
539.081	6.21
539.28	6.13
539.479	6.15
539.678	6.12
539.877	6.22
540.076	6.12
540.275	6.16
540.474	6.27
540.673	6.3
540.872	6.21
541.071	6.24
541.27	6.22
541.469	6.18
541.668	6.21
541.867	6.29
542.066	6.33
542.265	6.42
542.464	6.41
542.663	6.46
542.862	6.58
543.06	6.61
543.259	6.63
543.458	6.71
543.657	6.71
543.856	6.69
544.054	6.69
544.253	6.64
544.452	6.63
544.651	6.66
544.849	6.66
545.048	6.71
545.247	6.72
545.445	6.78
545.644	6.83
545.843	6.79
546.041	6.8
546.24	6.91
546.438	6.99
546.637	7.03
546.836	7.21
547.034	7.29
547.233	7.32
547.431	7.25
547.63	7.25
547.828	7.22
548.027	7.2
548.225	7.18
548.423	7.27
548.622	7.35
548.82	7.35
549.019	7.44
549.217	7.53
549.415	7.57
549.614	7.64
549.812	7.64
550.01	7.62
550.209	7.64
550.407	7.64
550.605	7.65
550.803	7.72
551.002	7.81
551.2	7.83
551.398	7.92
551.596	8
551.794	8.09
551.993	8.08
552.191	8.11
552.389	8.22
552.587	8.21
552.785	8.2
552.983	8.3
553.181	8.48
553.379	8.53
553.577	8.62
553.775	8.76
553.973	8.83
554.171	8.84
554.369	8.84
554.567	8.88
554.765	8.87
554.963	8.91
555.161	8.88
555.359	8.95
555.557	9.04
555.755	9.11
555.952	9.27
556.15	9.34
556.348	9.43
556.546	9.55
556.744	9.65
556.941	9.58
557.139	9.7
557.337	9.73
557.535	9.69
557.732	9.76
557.93	9.98
558.128	10.01
558.325	10.12
558.523	10.18
558.721	10.28
558.918	10.24
559.116	10.35
559.313	10.38
559.511	10.54
559.708	10.52
559.906	10.59
560.104	10.63
560.301	10.67
560.498	10.71
560.696	10.79
560.893	10.87
561.091	10.96
561.288	11.11
561.486	11.2
561.683	11.34
561.88	11.4
562.078	11.48
562.275	11.46
562.473	11.5
562.67	11.58
562.867	11.71
563.064	11.85
563.262	11.95
563.459	12.02
563.656	12.13
563.853	12.21
564.051	12.23
564.248	12.44
564.445	12.62
564.642	12.69
564.839	12.85
565.036	12.98
565.234	13.11
565.431	13.16
565.628	13.25
565.825	13.29
566.022	13.37
566.219	13.32
566.416	13.41
566.613	13.43
566.81	13.5
567.007	13.51
567.204	13.55
567.401	13.62
567.598	13.73
567.795	13.76
567.991	13.85
568.188	13.96
568.385	14.13
568.582	14.2
568.779	14.29
568.976	14.35
569.172	14.46
569.369	14.38
569.566	14.41
569.763	14.49
569.96	14.51
570.156	14.51
570.353	14.51
570.55	14.63
570.746	14.61
570.943	14.71
571.14	14.8
571.336	14.95
571.533	15.01
571.729	15.04
571.926	15.12
572.123	15.12
572.319	15.16
572.516	15.14
572.712	15.18
572.909	15.17
573.105	15.3
573.302	15.32
573.498	15.37
573.695	15.42
573.891	15.5
574.087	15.41
574.284	15.39
574.48	15.38
574.677	15.43
574.873	15.47
575.069	15.59
575.266	15.62
575.462	15.68
575.658	15.8
575.854	15.78
576.051	15.84
576.247	15.87
576.443	15.85
576.639	15.72
576.835	15.67
577.032	15.55
577.228	15.72
577.424	15.81
577.62	15.76
577.816	15.9
578.012	15.99
578.208	15.88
578.404	15.88
578.6	16.05
578.796	16.03
578.993	15.99
579.189	15.97
579.384	15.83
579.58	15.69
579.776	15.57
579.972	15.51
580.168	15.49
580.364	15.64
580.56	15.7
580.756	15.78
580.952	15.83
581.148	15.83
581.343	15.79
581.539	15.82
581.735	15.96
581.931	16.04
582.127	16.13
582.322	16.12
582.518	16.12
582.714	16.01
582.909	15.98
583.105	15.92
583.301	15.89
583.496	15.95
583.692	15.94
583.888	15.87
584.083	15.93
584.279	15.94
584.474	15.87
584.67	15.87
584.866	15.9
585.061	15.77
585.257	15.86
585.452	15.85
585.648	15.82
585.843	15.89
586.039	15.98
586.234	15.94
586.429	15.92
586.625	16
586.82	15.96
587.015	15.95
587.211	15.9
587.406	15.94
587.601	15.89
587.797	15.9
587.992	15.85
588.187	15.91
588.383	15.95
588.578	16
588.773	15.98
588.968	16.08
589.163	16.14
589.359	16.13
589.554	16.1
589.749	16.21
589.944	16.21
590.139	16.17
590.334	16.19
590.529	16.21
590.724	16.24
590.919	16.37
591.114	16.37
591.309	16.49
591.504	16.61
591.699	16.57
591.894	16.63
592.089	16.68
592.284	16.65
592.479	16.69
592.674	16.68
592.869	16.66
593.064	16.82
593.259	16.96
593.454	16.98
593.648	17.16
593.843	17.16
594.038	17.19
594.233	17.13
594.428	17.17
594.622	17.16
594.817	17.3
595.012	17.28
595.206	17.37
595.401	17.44
595.596	17.54
595.79	17.62
595.985	17.74
596.18	17.79
596.374	17.89
596.569	17.88
596.763	17.92
596.958	17.94
597.153	18.06
597.347	17.95
597.542	18.15
597.736	18.24
597.931	18.35
598.125	18.38
598.319	18.63
598.514	18.54
598.708	18.54
598.903	18.63
599.097	18.75
599.291	18.73
599.486	18.72
599.68	18.73
599.874	18.72
600.069	18.69
600.263	18.82
600.457	18.98
600.651	19.04
600.846	19.09
601.04	19.15
601.234	19.08
601.428	19.09
601.622	19.19
601.817	19.19
602.011	19.24
602.205	19.3
602.399	19.28
602.593	19.36
602.787	19.4
602.981	19.39
603.175	19.48
603.369	19.5
603.563	19.41
603.757	19.45
603.951	19.58
604.145	19.61
604.339	19.68
604.533	19.6
604.727	19.56
604.921	19.36
605.115	19.32
605.309	19.41
605.502	19.48
605.696	19.42
605.89	19.43
606.084	19.4
606.278	19.3
606.471	19.28
606.665	19.21
606.859	19.15
607.053	19.09
607.246	19
607.44	19
607.634	18.96
607.827	19.03
608.021	18.95
608.214	18.95
608.408	18.82
608.602	18.84
608.795	18.79
608.989	18.77
609.182	18.7
609.376	18.66
609.569	18.61
609.763	18.48
609.956	18.4
610.15	18.29
610.343	18.22
610.537	18.16
610.73	18.19
610.923	18.13
611.117	18.15
611.31	18.11
611.504	18.17
611.697	18.01
611.89	18
612.083	17.99
612.277	18.03
612.47	17.84
612.663	17.78
612.856	17.74
613.05	17.6
613.243	17.52
613.436	17.47
613.629	17.56
613.822	17.46
614.015	17.34
614.209	17.18
614.402	17.15
614.595	17.03
614.788	16.99
614.981	17.01
615.174	16.86
615.367	16.84
615.56	16.77
615.753	16.76
615.946	16.69
616.139	16.75
616.332	16.78
616.525	16.7
616.718	16.64
616.911	16.59
617.103	16.56
617.296	16.44
617.489	16.44
617.682	16.34
617.875	16.35
618.067	16.32
618.26	16.2
618.453	16.22
618.646	16.26
618.838	16.24
619.031	16.32
619.224	16.38
619.417	16.32
619.609	16.31
619.802	16.24
619.994	16.11
620.187	16.05
620.38	15.97
620.572	15.83
620.765	15.88
620.957	15.8
621.15	15.77
621.342	15.68
621.535	15.77
621.727	15.62
621.92	15.6
622.112	15.58
622.305	15.72
622.497	15.6
622.69	15.64
622.882	15.64
623.074	15.66
623.267	15.54
623.459	15.52
623.651	15.45
623.844	15.41
624.036	15.35
624.228	15.38
624.42	15.42
624.613	15.52
624.805	15.5
624.997	15.47
625.189	15.42
625.381	15.38
625.574	15.31
625.766	15.36
625.958	15.38
626.15	15.4
626.342	15.4
626.534	15.39
626.726	15.27
626.918	15.31
627.11	15.19
627.302	15.18
627.494	15.18
627.686	15.25
627.878	15.18
628.07	15.2
628.262	15.14
628.454	15.11
628.646	15.04
628.838	15.01
629.029	14.94
629.221	15
629.413	14.85
629.605	14.77
629.797	14.67
629.989	14.71
630.18	14.63
630.372	14.64
630.564	14.69
630.755	14.76
630.947	14.77
631.139	14.64
631.33	14.56
631.522	14.61
631.714	14.54
631.905	14.44
632.097	14.47
632.289	14.5
632.48	14.45
632.672	14.41
632.863	14.36
633.055	14.31
633.246	14.32
633.438	14.19
633.629	14.15
633.821	14.16
634.012	14.15
634.203	14.05
634.395	14.08
634.586	14.07
634.777	14.02
634.969	14.12
635.16	14.2
635.351	14.1
635.543	14.13
635.734	14.09
635.925	14.05
636.117	14
636.308	14.02
636.499	13.9
636.69	13.8
636.881	13.65
637.073	13.71
637.264	13.68
637.455	13.71
637.646	13.88
637.837	14
638.028	13.91
638.219	13.99
638.41	13.98
638.601	13.8
638.792	13.71
638.983	13.68
639.174	13.55
639.365	13.55
639.556	13.59
639.747	13.56
639.938	13.6
640.129	13.63
640.32	13.57
640.511	13.64
640.701	13.81
640.892	13.72
641.083	13.73
641.274	13.8
641.465	13.74
641.655	13.58
641.846	13.62
642.037	13.58
642.228	13.43
642.418	13.47
642.609	13.44
642.8	13.4
642.99	13.31
643.181	13.42
643.372	13.39
643.562	13.4
643.753	13.34
643.943	13.3
644.134	13.18
644.324	13.1
644.515	13.03
644.705	13.13
644.896	13.15
645.086	13.19
645.277	13.15
645.467	13.14
645.658	13.06
645.848	13.05
646.038	13.07
646.229	13
646.419	12.97
646.61	12.91
646.8	12.87
646.99	12.88
647.18	12.95
647.371	12.98
647.561	12.91
647.751	12.93
647.941	12.81
648.132	12.8
648.322	12.71
648.512	12.78
648.702	12.79
648.892	12.75
649.082	12.69
649.272	12.64
649.462	12.53
649.653	12.44
649.843	12.4
650.033	12.44
650.223	12.38
650.413	12.36
650.603	12.35
650.793	12.38
650.983	12.26
651.172	12.24
651.362	12.19
651.552	12.12
651.742	12.03
651.932	12.1
652.122	12.13
652.312	12.18
652.502	12.23
652.691	12.17
652.881	12.07
653.071	12.05
653.261	11.91
653.45	11.76
653.64	11.8
653.83	11.71
654.019	11.59
654.209	11.53
654.399	11.57
654.588	11.48
654.778	11.42
654.968	11.33
655.157	11.38
655.347	11.22
655.536	11.07
655.726	10.93
655.915	10.83
656.105	10.67
656.294	10.6
656.484	10.52
656.673	10.52
656.863	10.46
657.052	10.25
657.241	10.05
657.431	9.79
657.62	9.69
657.809	9.46
657.999	9.38
658.188	9.3
658.377	9.25
658.567	9.08
658.756	9
658.945	8.9
659.134	8.81
659.324	8.8
659.513	8.73
659.702	8.65
659.891	8.58
660.08	8.43
660.269	8.42
660.458	8.26
660.648	8.13
660.837	8.02
661.026	7.97
661.215	7.8
661.404	7.68
661.593	7.65
661.782	7.44
661.971	7.39
662.16	7.22
662.349	7.15
662.538	7.05
662.726	7.11
662.915	6.98
663.104	6.88
663.293	6.91
663.482	6.9
663.671	6.75
663.86	6.65
664.048	6.59
664.237	6.58
664.426	6.36
664.615	6.4
664.803	6.4
664.992	6.3
665.181	6.13
665.369	6.16
665.558	6.05
665.747	5.96
665.935	6.07
666.124	6.16
666.312	6.13
666.501	6.13
666.69	6.06
666.878	5.99
667.067	5.85
667.255	6
667.444	6.38
667.632	6.56
667.82	6.68
668.009	6.74
668.197	6.61
668.386	6.3
668.574	6.37
668.762	6.3
668.951	6.19
669.139	6.31
669.327	6.23
669.516	6.27
669.704	6.23
669.892	6.5
670.08	6.46
670.269	6.4
670.457	6.27
670.645	6.11
670.833	6.08
671.021	6.08
671.21	6.24
671.398	6.45
671.586	6.57
671.774	6.45
671.962	6.52
672.15	6.57
672.338	6.46
672.526	6.66
672.714	6.75
672.902	6.82
673.09	7.05
673.278	7.33
673.466	7.3
673.654	7.52
673.842	7.54
674.03	7.56
674.218	7.37
674.405	7.47
674.593	7.38
674.781	7.46
674.969	7.46
675.157	7.74
675.344	7.9
675.532	7.99
675.72	8.13
675.908	8.15
676.095	8.01
676.283	8
676.471	8.18
676.658	8.14
676.846	8.21
677.033	8.4
677.221	8.49
677.409	8.36
677.596	8.49
677.784	8.56
677.971	8.64
678.159	8.77
678.346	8.98
678.534	9.06
678.721	9.24
678.909	9.18
679.096	9.23
679.283	9.3
679.471	9.38
679.658	9.46
679.846	9.73
680.033	10.01
680.22	10.07
680.408	10.21
680.595	10.23
680.782	10.08
680.969	10
681.157	10.13
681.344	10.16
681.531	10.27
681.718	10.41
681.905	10.48
682.093	10.55
682.28	10.82
682.467	11.02
682.654	11.24
682.841	11.4
683.028	11.68
683.215	11.75
683.402	11.72
683.589	11.81
683.776	12.01
683.963	11.96
684.15	12.11
684.337	12.47
684.524	12.73
684.711	12.9
684.898	13.08
685.085	13.25
685.271	13.39
685.458	13.57
685.645	13.73
685.832	14.02
686.019	14.32
686.205	14.6
686.392	14.81
686.579	15.13
686.766	15.54
686.952	15.6
687.139	16
687.326	16.18
687.512	16.41
687.699	16.61
687.886	17.03
688.072	17.24
688.259	17.83
688.445	18.34
688.632	18.72
688.818	19.32
689.005	19.63
689.191	20.05
689.378	20.7
689.564	21.22
689.751	21.65
689.937	22.22
690.124	22.6
690.31	22.89
690.496	23.34
690.683	23.79
690.869	24.42
691.055	25.01
691.242	25.54
691.428	26.2
691.614	26.96
691.8	27.61
691.987	28.4
692.173	29.14
692.359	29.67
692.545	30.23
692.731	30.61
692.918	31.06
693.104	31.58
693.29	32.24
693.476	33.01
693.662	33.86
693.848	34.37
694.034	34.91
694.22	35.63
694.406	36.09
694.592	36.8
694.778	37.52
694.964	38.23
695.15	38.88
695.336	39.48
695.522	40.14
695.708	40.94
695.894	41.55
696.08	42.04
696.265	42.72
696.451	43.18
696.637	43.8
696.823	44.42
697.009	44.99
697.194	45.36
697.38	45.91
697.566	46.27
697.751	46.91
697.937	47.72
698.123	48.44
698.308	49.08
698.494	49.93
698.68	50.39
698.865	50.96
699.051	51.86
699.236	52.22
699.422	52.49
699.607	53.09
699.793	53.58
699.978	53.67
700.164	54.25
700.349	55.33
700.535	55.66
700.72	55.93
700.906	56.67
701.091	57.12
701.276	57.02
701.462	57.97
701.647	58.75
701.832	58.91
702.018	59.46
702.203	60.08
702.388	60
702.573	60.33
702.759	61.22
702.944	61.56
703.129	61.84
703.314	62.39
703.499	62.49
703.684	62.81
703.87	63.56
704.055	64.36
704.24	64.62
704.425	65.38
704.61	65.51
704.795	65.59
704.98	65.67
705.165	66
705.35	66.09
705.535	66.5
705.72	66.8
705.905	67.1
706.09	67.84
706.275	68.14
706.459	67.95
706.644	68.15
706.829	68.5
707.014	68.33
707.199	68.96
707.384	69.6
707.568	69.7
707.753	70.01
707.938	70.58
708.123	70.18
708.307	70.3
708.492	70.76
708.677	70.81
708.861	70.27
709.046	70.59
709.231	71.09
709.415	71.38
709.6	71.75
709.784	72.24
709.969	72.5
710.153	72.45
710.338	72.51
710.522	72.31
710.707	72.99
710.891	73.03
711.076	73.37
711.26	73.31
711.445	73.53
711.629	73.49
711.813	73.89
711.998	73.9
712.182	74.26
712.366	74.77
712.551	75.17
712.735	75.17
712.919	75.13
713.103	75.22
713.288	75.05
713.472	74.96
713.656	75.63
713.84	76.15
714.024	76.45
714.208	76.55
714.393	76.73
714.577	76.47
714.761	76.54
714.945	76.83
715.129	77.24
715.313	77.1
715.497	77.08
715.681	77.42
715.865	77.35
716.049	77.23
716.233	77.81
716.417	78.34
716.601	78.2
716.785	78.22
716.968	78.67
717.152	78.63
717.336	78.52
717.52	78.43
717.704	78.54
717.888	78.56
718.071	78.27
718.255	78.57
718.439	78.39
718.622	78.28
718.806	78.5
718.99	78.77
719.174	78.44
719.357	78.62
719.541	79.23
719.724	78.94
719.908	79.67
720.092	80.36
720.275	80.9
720.459	80.49
720.642	80.24
720.826	79.33
721.009	78.8
721.193	78.55
721.376	78.68
721.559	79.16
721.743	79.89
721.926	80.51
722.11	80.73
722.293	80.58
722.476	80.37
722.66	80.23
722.843	80.09
723.026	80.11
723.21	80.42
723.393	80.92
723.576	80.47
723.759	80.24
723.942	80.2
724.126	80.2
724.309	80.08
724.492	80.61
724.675	80.66
724.858	81.32
725.041	82.03
725.224	82.18
725.407	82.58
725.59	82.79
725.774	82.11
725.957	80.91
726.14	81.09
726.322	80.8
726.505	80.36
726.688	81.53
726.871	82.62
727.054	82.53
727.237	82.69
727.42	83.71
727.603	83.45
727.786	83.17
727.968	83.61
728.151	83.21
728.334	83.01
728.517	82.69
728.699	82.98
728.882	82.87
729.065	84.09
729.248	85.14
729.43	85.78
729.613	86.41
729.796	86.88
729.978	86.1
730.161	85.36
730.343	84.69
730.526	84.75
730.708	84.2
730.891	84.4
731.073	84.21
731.256	84.11
731.438	84.29
731.621	85.29
731.803	85.33
731.986	85.16
732.168	84.53
732.35	84.5
732.533	83.95
732.715	84.19
732.898	84.74
733.08	85.81
733.262	85.83
733.444	86.05
733.627	85.96
733.809	86.19
733.991	86.63
734.173	86.26
734.355	86.53
734.538	87.62
734.72	87.54
734.902	87.79
735.084	88.36
735.266	87.87
735.448	88.27
735.63	88.27
735.812	88.13
735.994	89.13
736.176	89.85
736.358	88.6
736.54	89.4
736.722	89.37
736.904	88.04
737.086	87.54
737.268	88.29
737.45	88.22
737.632	87.8
737.814	87.08
737.995	87.52
738.177	86.88
738.359	86.27
738.541	86.8
738.723	88.67
738.904	89
739.086	89.89
739.268	90.08
739.449	90.36
739.631	89.36
739.813	89.22
739.994	89.26
740.176	89.69
740.358	89.66
740.539	90.93
740.721	91.28
740.902	91.56
741.084	90.89
741.265	90.25
741.447	90.2
741.628	90.75
741.81	89.54
741.991	90.88
742.172	91.89
742.354	91.55
742.535	90.46
742.717	91.66
742.898	91.5
743.079	91.84
743.261	92
743.442	92.07
743.623	92.06
743.804	91.91
743.986	92.12
744.167	91.2
744.348	90.81
744.529	90.09
744.71	88.94
744.891	87.57
745.073	87.35
745.254	87.35
745.435	87.39
745.616	87.42
745.797	87.84
745.978	87.42
746.159	87.83
746.34	86.92
746.521	88.61
746.702	87.92
746.883	87.64
747.064	87.43
747.245	88.08
747.426	87.14
747.606	87.54
747.787	89.03
747.968	89.09
748.149	89.91
748.33	89.92
748.51	90.93
748.691	90.61
748.872	90.74
749.053	90.53
749.233	90.1
749.414	88.96
749.595	87.07
749.775	85.28
749.956	84.35
750.137	84.57
750.317	86.01
750.498	88.74
750.678	91.03
750.859	92.61
751.04	92.46
751.22	90.61
751.4	88.93
751.581	86.59
751.761	84.53
751.942	85.15
752.122	85.39
752.303	85.46
752.483	87.18
752.663	88.38
752.844	86.57
753.024	87.35
753.204	88.37
753.385	87.33
753.565	86.67
753.745	87.07
753.925	84.98
754.106	83.91
754.286	83.73
754.466	83.75
754.646	84.82
754.826	85.43
755.006	84.78
755.187	86.5
755.367	87.47
755.547	86.65
755.727	88.36
755.907	89.37
756.087	90.72
756.267	89.17
756.447	89.24
756.627	87.23
756.807	87.12
756.987	85.03
757.167	86.4
757.346	86.67
757.526	86.01
757.706	86.85
757.886	87.25
758.066	87.76
758.246	89.55
758.425	90.86
758.605	89.74
758.785	89.79
758.965	87.71
759.144	83.84
759.324	84.31
759.504	84.84
759.683	83.81
759.863	83.41
760.043	84.63
760.222	83.45
760.402	81.63
760.581	81.31
760.761	83.81
760.94	83.2
761.12	85.67
761.299	86.16
761.479	86.67
761.658	84.21
761.838	84.71
762.017	83.45
762.197	84.13
762.376	84.25
762.555	85.81
762.735	86.57
762.914	85.56
763.093	86.14
763.273	84.71
763.452	84.39
763.631	84.28
763.81	83.97
763.99	83.38
764.169	84.93
764.348	83.45
764.527	81.93
764.706	82.73
764.885	82.58
765.064	80.86
765.243	81.29
765.423	81.76
765.602	81.06
765.781	79.36
765.96	78.23
766.139	78.41
766.318	79.96
766.497	79.72
766.676	81.6
766.854	85.12
767.033	85.07
767.212	83.43
767.391	83.54
767.57	83.72
767.749	82.39
767.928	82.69
768.106	83.81
768.285	81.63
768.464	79.55
768.643	78.99
768.821	78.92
769	79.28
769.179	79.93
769.357	81.07
769.536	79.54
769.715	79.27
769.893	79.89
770.072	79.81
770.25	79.35
770.429	82.27
770.607	81.1
770.786	79.38
770.964	81.76
771.143	82.06
771.321	81.27
771.5	82.53
771.678	81.39
771.857	79.55
772.035	79.37
772.213	78.51
772.392	78.08
772.57	80.53
772.748	81.51
772.927	80.7
773.105	79.29
773.283	79.83
773.461	79.48
773.64	80.49
773.818	81.04
773.996	84.23
774.174	81.54
774.352	80.77
774.531	78.19
774.709	80.27
774.887	78.1
775.065	80.2
775.243	79.84
775.421	81.58
775.599	82.18
775.777	80.51
775.955	77.66
776.133	75.17
776.311	75.45
776.489	71.68
776.667	71.8
776.844	75.17
777.022	76.16
777.2	75.66
777.378	76.5
777.556	80.42
777.734	81.27
777.911	81.72
778.089	78.49
778.267	78.78
778.445	75.81
778.622	72.32
778.8	73.02
778.978	76.97
779.155	75.43
779.333	76.1
779.511	76.14
779.688	77.72
779.866	70.85
780.043	69.73
780.221	69.78
780.398	69.58
780.576	71.03
780.753	75.48
780.931	75.49
781.108	72.54
781.286	74.7
781.463	68.43
781.64	66.82
781.818	66.92
781.995	71.14
782.172	71.89
782.35	73.03
782.527	77.5
782.704	77.19
782.882	78.71
783.059	75.35
783.236	76.87
783.413	76.99
783.59	77.36
783.768	72.53
783.945	74.91
784.122	74.99
784.299	74.69
784.476	74.32
784.653	75.49
784.83	72.53
785.007	69.13
785.184	68.94
785.361	71.5
785.538	75.54
785.715	76.93
785.892	81.81
786.069	83.66
786.246	82.51
786.423	79.99
786.6	83.19
786.776	81.83
786.953	76.91
787.13	81.88
787.307	80.93
787.484	75.87
787.66	74.09
787.837	74.25
788.014	68.6
788.191	69.23
788.367	70.38
788.544	71.07
788.721	69.06
788.897	71.07
789.074	69.86
789.25	69.05
789.427	69.12
789.603	70.61
789.78	69.95
789.956	69.35
790.133	69.99
790.309	70.83
790.486	73.87
790.662	71.63
790.839	71.85
791.015	71.91
791.192	70.61
791.368	69.66
791.544	65.91
791.721	65.88
791.897	65.98
792.073	62.53
792.249	58.93
792.426	65.15
792.602	66.76
792.778	65.27
792.954	68.77
793.13	68.88
793.307	62.36
793.483	56.68
793.659	56.31
793.835	57.96
794.011	58.38
794.187	60.79
794.363	62.52
794.539	66.63
794.715	58.17
794.891	57.95
795.067	59.82
795.243	63.96
795.419	61.69
795.595	63.77
795.771	64.34
795.947	65.58
796.122	59.53
796.298	63.77
796.474	69.43
796.65	69.24
796.826	65.58
797.001	66.57
797.177	58.17
797.353	56.35
797.529	56.07
797.704	58.23
797.88	58.91
798.056	59.07
798.231	59.81
798.407	61.85
798.582	64.26
798.758	71.06
798.934	82.36
799.109	80.7
799.285	79.84
799.46	80.59
799.636	73.67
799.811	71.37
799.986	72.49
800.162	72.1
800.337	68.36
800.513	69.11
800.688	64.08
800.863	75.61
801.039	72.33
801.214	68.55
801.389	71.25
801.565	70.48
801.74	49.39
801.915	60
802.09	61.59
802.265	69.3
802.441	68.01
802.616	74.81
802.791	69.12
802.966	74.28
803.141	70.19
803.316	66.79
803.491	67.5
803.666	67.77
803.841	58.34
804.016	52.52
804.191	60.28
804.366	57.9
804.541	55.15
804.716	54.38
804.891	49.7
805.066	56
805.241	57.1
805.416	60.66
805.591	65.39
805.765	68.08
805.94	69.07
806.115	66.05
806.29	60.84
806.464	62.36
806.639	63.62
806.814	50.38
806.989	41.02
807.163	50.97
807.338	51.64
807.512	46.95
807.687	38.68
807.862	58.53
808.036	57.27
808.211	61.71
808.385	72.4
808.56	92.34
808.734	102.81
808.909	98.91
809.083	88.51
809.258	85.83
809.432	75.28
809.606	62.15
809.781	62.75
809.955	68.46
810.13	72.92
810.304	67.19
810.478	59.99
810.652	68.17
810.827	65.25
811.001	57.4
811.175	60.47
811.349	58.01
811.524	48.18
811.698	39.71
811.872	39.18
812.046	49.45
812.22	67.74
812.394	68.39
812.568	79.99
812.742	84.1
812.916	72.84
813.09	60.06
813.264	51.99
813.438	51.84
813.612	47.83
813.786	50.06
813.96	53.91
814.134	58.35
814.308	57.6
814.482	60.9
814.656	57.93
814.83	67.03
815.003	66.85
815.177	58.09
815.351	48.79
815.525	46.95
815.698	29.79
815.872	25.97
816.046	25.19
816.219	38.65
816.393	49.6
816.567	60.96
816.74	61.03
816.914	70.7
817.088	75.95
817.261	69.64
817.435	55.26
817.608	58.33
817.782	43.56
817.955	41.8
818.129	41.28
818.302	52.34
818.475	62.36
818.649	62.41
818.822	46.11
818.996	61.88
819.169	55.76
819.342	41.29
819.516	52.83
819.689	62.39
819.862	52.84
820.035	44.66
820.209	38.95
820.382	42.33
820.555	49.65
820.728	34.7
820.901	32.85
821.075	42.02
821.248	37.12
821.421	23.08
821.594	27.69
821.767	51.74
821.94	69.52
822.113	48.91
822.286	43.7
822.459	57.14
822.632	45.09
822.805	14.93
822.978	23.81
823.151	31.12
823.324	16.81
823.496	-2.28
823.669	0.25
823.842	5.71
824.015	-17.22
824.188	-19.68
824.361	0.12
824.533	13.48
824.706	17.1
824.879	32.75
825.051	45.69
825.224	41.84
825.397	40.34
825.569	30.09
825.742	53.73
825.915	55.24
826.087	63.27
826.26	58.33
826.432	63.48
826.605	45.4
826.777	30.44
826.95	34.5
827.122	10.24
827.295	10.45
827.467	18.9
827.64	3.34
827.812	0.8
827.984	11.02
828.157	8.59
828.329	-25.65
828.501	-24.77
828.674	3.83
828.846	-2.35
829.018	15.24
829.19	3.96
829.363	32.83
829.535	20.87
829.707	23.74
829.879	4.22
830.051	4.42
830.223	-5.58
830.395	-25.58
830.568	-19.5
830.74	-28.31
830.912	12.89
831.084	4.69
831.256	16.06
831.428	4.47
831.6	4.44
831.772	-34.21
831.943	-52.87
832.115	-35.44
832.287	4.04
832.459	29.31
832.631	44.29
832.803	72.3
832.975	97.14
833.146	69.26
833.318	54.07
833.49	54.29
833.662	32.38
833.833	-3.56
834.005	9.86
834.177	8.61
834.348	8.27
834.52	-19.69
834.692	-17.19
834.863	-44.38
835.035	-19.48
835.206	-53.3
835.378	4.91
835.549	5.83
835.721	22.89
835.892	20.21
836.064	17.97
836.235	8.49
836.407	34.01
836.578	9.34
836.749	3.21
836.921	-44.27
837.092	-63.67
837.264	-70.76
837.435	-75.95
837.606	-36.74
837.777	19.83
837.949	39.75
838.12	41.99
838.291	50.84
838.462	26.93
838.633	-0.75
838.805	-12.48
838.976	-15.42
839.147	-68.73
839.318	-39.28
839.489	-102.97
839.66	-56.48
839.831	-16.68
840.002	-16.72
840.173	-30.56
840.344	48.9
840.515	53.49
840.686	-57.54
840.857	-39
841.028	1.38
841.199	-47.21
841.369	-69.51
841.54	-44.98
841.711	2.43
841.882	20.09
842.053	7.66
842.223	1.81
842.394	16.35
842.565	-7.04
842.736	-0.4
842.906	15.11
843.077	25.38
843.248	40.16
843.418	54.68
843.589	4.84
843.759	41.97
843.93	32.34
844.101	8.99
844.271	8.7
844.442	34.63
844.612	36.69
844.783	9.16
844.953	-10.72
845.123	-21.31
845.294	-21.12
845.464	-209.85
845.635	-15.33
845.805	49.65
845.975	52.52
846.146	-6.39
846.316	14.57
846.486	19.35
846.656	26.62
846.827	19.72
846.997	30.38
847.167	42.89
847.337	17.21
847.507	-5.46
847.677	1.02
847.848	43.01
848.018	36.87
848.188	45.95
848.358	20.64
848.528	-6.17
848.698	-36.81
848.868	-127.59
849.038	-252.94
849.208	-74.31
849.378	4.49
849.548	-8.52
849.718	16.22
849.887	34.3
850.057	14.71
850.227	-20.85
850.397	-41.34
850.567	-138.7
850.737	-189.57
850.906	-518.75
851.076	-500
851.246	-145.03
851.415	26.65
851.585	-23.43
851.755	-53.73
851.924	-10.68
852.094	-41.58
852.264	-140.27
852.433	-1004.81
852.603	-163.61
852.772	-72.01
852.942	-54.29
853.111	-56.21
853.281	-3.63
853.45	17.35
853.62	-84.59
853.789	-65.42
853.959	-10.5
854.128	-20.09
854.297	-55.2
854.467	-43.77
854.636	-56.33
854.805	-19.74
854.975	-54.85
855.144	-77.53
855.313	123.08
855.482	43.07
855.652	-47.89
855.821	-28.2
855.99	44.17
856.159	40.34
856.328	35.21
856.497	20.19
856.667	33.72
856.836	29.96
857.005	-14.89
857.174	-25.92
857.343	-38.36
857.512	-75.68
857.681	-132.01
857.85	-165.55
858.019	-76.39
858.188	-52.13
858.356	-47.47
858.525	-79.72
858.694	-51.64
858.863	-144.89
859.032	-123.18
859.201	-172.86
859.369	-171.68
859.538	-161.06
859.707	-134.92
859.876	-135.6
860.044	-88.13
860.213	28.16
860.382	34.86
860.55	18.06
860.719	42.62
860.888	44.81
861.056	-1.72
861.225	-19.07
861.393	55.65
861.562	32.5
861.73	-71.68
861.899	-225.13
862.067	-1182.76
862.236	-69.91
862.404	-141.21
862.572	-59.6
862.741	11.04
862.909	-23.45
863.078	-121.4
863.246	-100.26
863.414	-67.82
863.582	-55.15
863.751	-66.76
863.919	-72.77
864.087	-34.43
864.255	-49.31
864.424	-372.11
864.592	-21.61
864.76	-40.17
864.928	-72.8
865.096	-50.96
865.264	-12.4
865.432	-1270.45
865.6	-83
865.768	-117.69
865.936	-164.99
866.104	-155.9
866.272	-140.94
866.44	-338.19
866.608	543.48
866.776	198.09
866.944	2206.98
867.112	-562.29
867.28	-249.57
867.448	-96.18
867.615	-41.54
867.783	-16.92
867.951	9.89
868.119	55.9
868.286	39.72
868.454	-76.73
868.622	-103.34
868.789	-151.5
868.957	-2771.43
869.125	-2473.68
869.292	-127.76
869.46	-186.88
869.627	-6.21
869.795	-21.26
869.963	28.11
870.13	41.68
870.298	52.77
870.465	-24.65
870.632	-34.21
870.8	-20.13
870.967	-96.14
871.135	-145.45
871.302	-120.48
871.469	-114.38
871.637	-198.93
871.804	-86.87
871.971	-147.23
872.139	-504.19
872.306	-76.15
872.473	-101.05
872.64	-333.91
872.807	-47.08
872.975	54.73
873.142	-95.27
873.309	1121.62
873.476	22.76
873.643	44.86
873.81	34.5
873.977	75.84
874.144	90.29
874.311	12.47
874.478	-39.83
874.645	-97.23
874.812	-61.97
874.979	-7.91
875.146	-30.21
875.313	-69.62
875.48	-1.4
875.647	-10.64
875.813	-72.55
875.98	-33.87
876.147	-57.67
876.314	-114.16
876.481	1024.79
876.647	-1180.9
876.814	474.61
876.981	33.08
877.147	-19.79
877.314	-13.57
877.481	33.71
877.647	30.44
877.814	-19.52
877.98	-50.24
878.147	-7.68
878.314	39.93
878.48	31.26
878.647	53.41
878.813	89.93
878.979	82.33
879.146	28.37
879.312	-15.22
879.479	-82.39
879.645	-175.11
879.811	-363.72
879.978	-939.69
880.144	-169.66
880.31	-93.29
880.477	-371.43
880.643	-373.24
880.809	-146.72
880.975	-134.56
881.142	-928.18
881.308	-72.85
881.474	-39.84
881.64	-67.18
881.806	-126.91
881.972	-45.73
882.138	-22
882.304	-21.04
882.47	-209.55
882.636	-809.84
882.802	-285.99
882.968	-114.29
883.134	-57.13
883.3	-36.52
883.466	6.45
883.632	62.89
883.798	21.19
883.964	-5.24
884.129	10.41
884.295	35.17
884.461	-57.72
884.627	-45.55
884.793	-77.25
884.958	-30.45
885.124	-100.71
885.29	-212.91
885.455	-357.28
885.621	-30.37
885.787	-149.1
885.952	-70.5
886.118	-50.18
886.283	-68.5
886.449	-203.56
886.614	-198.93
886.78	-466.54
886.945	1732.79
887.111	-747.98
887.276	-537.5
887.442	-898.18
887.607	-345.75
887.773	-211.46
887.938	-181.98
888.103	-226.93
888.269	-120.48
888.434	-156.22
888.599	-75.59
888.764	26.76
888.93	34.78
889.095	1.88
889.26	-28.87
889.425	3.83
889.59	31.02
889.756	-23.75
889.921	-2.13
890.086	11.5
890.251	15.86
890.416	-174.6
890.581	-1496.77
890.746	265
890.911	424.84
891.076	224.62
891.241	-511.19
891.406	-33.02
891.571	-112.56
891.736	-414.68
891.901	-863.72
892.065	934.07
892.23	162.21
892.395	216.24
892.56	352.31
892.725	-260.94
892.889	-792.68
893.054	-170.66
893.219	-61.66
893.384	-3.39
893.548	-79.68
893.713	-103.82
893.878	-69.63
