Data from Ofra_PS_T2_1A_9CX05_Reflection_1.txt Node
Date: Wed Jul 21 18:17:39 EDT 2021
User: Adam
Spectrometer: FLMT01687
Trigger mode: 0
Integration Time (sec): 1.100000E0
Scans to average: 2
Electric dark correction enabled: true
Nonlinearity correction enabled: false
Boxcar width: 2
XAxis mode: Wavelengths
Number of Pixels in Spectrum: 3648
>>>>>Begin Spectral Data<<<<<
179.494	578.6
179.716	626.35
179.937	571.22
180.158	506.56
180.38	767.66
180.601	315.61
180.823	99.3
181.044	40.4
181.265	364.89
181.486	107.31
181.708	63.34
181.929	137.24
182.15	-10.21
182.372	146.54
182.593	84.23
182.814	56.07
183.035	59.26
183.257	22.02
183.478	-13.67
183.699	-27.72
183.92	-53.3
184.141	-64.97
184.363	-87.54
184.584	-26.63
184.805	-14.6
185.026	25.66
185.247	54.88
185.468	46.47
185.689	31.73
185.91	26.22
186.132	5.95
186.353	-4.29
186.574	45.49
186.795	33.51
187.016	21.32
187.237	-0.4
187.458	-25.41
187.679	-37.78
187.9	-12.93
188.121	-4.84
188.342	14.83
188.563	38.15
188.784	41.5
189.005	-11.69
189.226	29.1
189.447	9.38
189.667	-214.68
189.888	-387.81
190.109	-1030.19
190.33	-676.29
190.551	-1195.8
190.772	-237.83
190.993	-210.8
191.214	-130.62
191.434	-73.82
191.655	0.95
191.876	-59.9
192.097	-100.92
192.318	-211.12
192.538	-328.52
192.759	-213.04
192.98	-78.35
193.201	-2.39
193.421	44.72
193.642	54.91
193.863	64.38
194.083	46.34
194.304	33.14
194.525	27.37
194.745	28.47
194.966	-4.03
195.187	-37.13
195.407	-91.93
195.628	-144.65
195.848	-130.92
196.069	-109.27
196.29	-35.96
196.51	-37.51
196.731	-47.02
196.951	-67.39
197.172	-90.74
197.392	-123.66
197.613	-152.42
197.833	-157.85
198.054	-127.85
198.274	-70.01
198.495	-91.64
198.715	-45.9
198.936	-65.74
199.156	-65.77
199.377	-162.1
199.597	-138.94
199.817	-134.44
200.038	-55.73
200.258	-82.81
200.479	-15.45
200.699	-2.34
200.919	13.76
201.14	-15.39
201.36	-32.25
201.58	14.47
201.801	32.91
202.021	-5.78
202.241	-19.54
202.461	-16.28
202.682	-137.9
202.902	-212
203.122	-121.26
203.342	-72.87
203.563	-17.41
203.783	13.27
204.003	-0.13
204.223	-0.13
204.443	4.54
204.663	-68.61
204.884	-63.61
205.104	-40.72
205.324	-9.61
205.544	17.61
205.764	46.28
205.984	53.33
206.204	51.63
206.424	31.68
206.644	-17.51
206.864	-25.46
207.084	-95.88
207.304	-99.87
207.525	-258.2
207.745	-108.86
207.964	-16.1
208.184	-50.96
208.404	-78.04
208.624	-79.97
208.844	-85.89
209.064	-401.21
209.284	-435.56
209.504	-249.58
209.724	-95.04
209.944	-62.26
210.164	-23.68
210.384	4.91
210.604	-6.99
210.823	-60.74
211.043	-84.48
211.263	-65.94
211.483	-80.2
211.703	-128.17
211.922	-99.11
212.142	-29.65
212.362	-41.13
212.582	-15.56
212.801	-0.34
213.021	-18.69
213.241	-29.74
213.461	-63.84
213.68	-89.38
213.9	-58.09
214.12	-25.58
214.339	-103.4
214.559	-77.47
214.779	-29.45
214.998	-32.18
215.218	-67.55
215.438	-25.69
215.657	-30.61
215.877	-35.9
216.096	-14.42
216.316	-6.57
216.535	1.54
216.755	-6.24
216.974	-92.92
217.194	-145.63
217.413	-131.6
217.633	-147.12
217.852	-201.78
218.072	-77.28
218.291	-39.67
218.511	-4.44
218.73	-20.49
218.95	-10.88
219.169	-10.44
219.389	-36.77
219.608	-35.95
219.827	-35.42
220.047	-28.71
220.266	-25.92
220.485	-25.74
220.705	-14.54
220.924	-14.02
221.143	17.36
221.363	-9.76
221.582	4.86
221.801	4.09
222.021	7.85
222.24	-98.22
222.459	-8.99
222.678	-6.83
222.897	-98.93
223.117	-111.63
223.336	-66.65
223.555	-48.24
223.774	-11.19
223.993	12.15
224.213	54.5
224.432	34.76
224.651	44.31
224.87	13.14
225.089	29.84
225.308	2.38
225.527	27.29
225.746	17.65
225.965	10.89
226.184	-12.12
226.404	24.31
226.623	-8.5
226.842	-17.14
227.061	2.32
227.28	8.65
227.499	-14.64
227.718	8.35
227.936	3.72
228.155	-1.29
228.374	-6.43
228.593	2.98
228.812	-10.99
229.031	-7.19
229.25	-31.95
229.469	-45.17
229.688	-42.21
229.907	-6.04
230.125	2.67
230.344	14.88
230.563	44.33
230.782	42.99
231.001	-20.49
231.22	-20.86
231.438	1.46
231.657	3.5
231.876	14.3
232.095	52.15
232.313	55.53
232.532	31.85
232.751	-14.7
232.969	-50.47
233.188	-123.91
233.407	-39.56
233.625	-8.02
233.844	10.98
234.063	18.96
234.281	12.62
234.5	2.54
234.719	22.62
234.937	21.36
235.156	37.21
235.374	46.43
235.593	40.11
235.811	10.03
236.03	0.65
236.249	-35.33
236.467	-41.9
236.686	-8.31
236.904	7.93
237.123	-9.89
237.341	-9.14
237.559	-0.72
237.778	-26.21
237.996	-67.65
238.215	-32.35
238.433	-9.65
238.652	-11.37
238.87	-21.15
239.088	8.63
239.307	8.87
239.525	-9.11
239.743	-37.64
239.962	-29.07
240.18	-53.92
240.398	-89.77
240.617	-75.17
240.835	-60.24
241.053	-26.43
241.271	2.59
241.49	24.49
241.708	-15.36
241.926	17.94
242.144	-10.98
242.363	-46.3
242.581	-59.87
242.799	-22.57
243.017	-5.1
243.235	-9.16
243.453	-0.65
243.672	-21.53
243.89	-18.67
244.108	-37.8
244.326	-14.59
244.544	-10.17
244.762	9.2
244.98	13.81
245.198	6.76
245.416	-41.92
245.634	-50.54
245.852	-50.02
246.07	-52.26
246.288	-55.84
246.506	-48.31
246.724	-28.51
246.942	-30.51
247.16	-8.71
247.378	7.25
247.596	33.27
247.814	26.58
248.032	7.97
248.25	-3.93
248.468	-9.36
248.685	-9.91
248.903	13.78
249.121	11.09
249.339	-5.79
249.557	2.11
249.775	-0.42
249.992	-47.64
250.21	-42.38
250.428	-30.7
250.646	-61.73
250.863	-76.25
251.081	-39.74
251.299	-38
251.517	-25.7
251.734	-20.02
251.952	-15.45
252.17	-16.25
252.387	-9.24
252.605	-16.62
252.823	-7.63
253.04	10.42
253.258	18.48
253.475	10.14
253.693	30.1
253.911	32.27
254.128	35.42
254.346	34.72
254.563	39.21
254.781	21.59
254.998	-1.08
255.216	-3.52
255.433	2.04
255.651	18.62
255.868	46.92
256.086	69.54
256.303	48.68
256.521	48.14
256.738	27.22
256.956	3.51
257.173	-13.24
257.39	-38.91
257.608	-73.04
257.825	-7.37
258.043	24.38
258.26	37.67
258.477	78.92
258.695	73.85
258.912	22.04
259.129	32.02
259.346	-1.08
259.564	-38.67
259.781	-58.97
259.998	-4.51
260.216	-9.74
260.433	20.29
260.65	15.61
260.867	35.74
261.084	-7.31
261.302	-40.84
261.519	-54.39
261.736	-62.56
261.953	-68.6
262.17	-21.1
262.387	-27.87
262.604	-55.45
262.822	-52.55
263.039	-56.34
263.256	-98.66
263.473	-62.19
263.69	-30.62
263.907	11.05
264.124	28.54
264.341	30.73
264.558	13.34
264.775	10.41
264.992	-11.27
265.209	-14.1
265.426	1.57
265.643	4.89
265.86	26.15
266.077	31.61
266.294	15.7
266.51	-22.78
266.727	-20.89
266.944	-50.85
267.161	-51.98
267.378	-38.55
267.595	-1.09
267.812	-30.21
268.028	-10.53
268.245	-11.49
268.462	-22.48
268.679	-39.86
268.896	16.86
269.112	-2.97
269.329	-3.62
269.546	-6.26
269.763	-12.69
269.979	-49.83
270.196	-32.8
270.413	-64.49
270.629	-80.52
270.846	-76.98
271.063	-65.29
271.279	-82.36
271.496	-59.53
271.712	-29.49
271.929	-12.61
272.146	-18.48
272.362	8.89
272.579	27.6
272.795	37.18
273.012	20.27
273.228	12.81
273.445	-27.65
273.661	-38.82
273.878	-79.75
274.094	-63.85
274.311	-76.49
274.527	-19.36
274.744	-34.7
274.96	-42.06
275.177	-31.93
275.393	-4.97
275.609	-3.06
275.826	23.12
276.042	31.62
276.259	29.74
276.475	36.85
276.691	37.69
276.908	22.13
277.124	31.92
277.34	20.59
277.557	-6.37
277.773	-26.62
277.989	-33.31
278.205	-42.03
278.422	-19.77
278.638	-17.22
278.854	4.73
279.07	0.11
279.286	-1.82
279.503	-15.94
279.719	-0.32
279.935	-30.27
280.151	-28.73
280.367	-19.77
280.583	-35.37
280.799	-26.44
281.016	-50.87
281.232	-13.05
281.448	-7.62
281.664	6.63
281.88	-25.91
282.096	5.44
282.312	16.17
282.528	45.01
282.744	50.71
282.96	41.31
283.176	15.52
283.392	-5.42
283.608	-14.6
283.824	-13.9
284.04	-11
284.256	12.76
284.471	15.36
284.687	-4.38
284.903	7.31
285.119	29.52
285.335	-0.25
285.551	-3.31
285.767	-6.28
285.982	-6.77
286.198	-33.22
286.414	14.67
286.63	18.08
286.846	41.03
287.061	15.81
287.277	38.04
287.493	7.59
287.709	22.17
287.924	6.11
288.14	38.25
288.356	30.28
288.571	46.92
288.787	26.2
289.003	17.45
289.218	-2.13
289.434	-36.83
289.65	-33.37
289.865	-57.15
290.081	-24.37
290.296	-19.42
290.512	-2.72
290.727	-32.27
290.943	-15.45
291.159	-38.92
291.374	-29.88
291.59	-43.69
291.805	-30.38
292.021	-18.06
292.236	-12.28
292.451	-10.8
292.667	-5.16
292.882	7.58
293.098	-13.41
293.313	-25.64
293.529	-37.89
293.744	-41.44
293.959	-51.24
294.175	-33.52
294.39	2.76
294.605	16.92
294.821	32.99
295.036	38.22
295.251	33.97
295.467	-1.84
295.682	-40.18
295.897	-84.65
296.112	-99.5
296.328	-96.62
296.543	-95.65
296.758	-53.07
296.973	-28.62
297.188	9.68
297.404	-8.24
297.619	-11.07
297.834	-21.57
298.049	-32.89
298.264	-47.27
298.479	-7.89
298.694	-5.32
298.909	8.28
299.125	18.53
299.34	23.19
299.555	-1.83
299.77	13.85
299.985	-32.89
300.2	-73.06
300.415	-93.87
300.63	-59.66
300.845	-71.91
301.06	-71.53
301.275	-39.96
301.49	-18.57
301.704	-24.88
301.919	-43.66
302.134	-48.07
302.349	-55.25
302.564	-96.16
302.779	-130.35
302.994	-107.41
303.209	-48.18
303.423	-6.36
303.638	22.2
303.853	1.08
304.068	2.52
304.283	-3.87
304.497	-14.33
304.712	-23.47
304.927	-10.55
305.142	-23.86
305.356	-9.67
305.571	-13.02
305.786	-41.62
306	-66.79
306.215	-48.24
306.43	-80.96
306.644	-68.53
306.859	7.55
307.074	31.28
307.288	-9.13
307.503	-1.64
307.717	-7.67
307.932	-10.19
308.147	-9.54
308.361	21.78
308.576	6.37
308.79	-30.32
309.005	-30.95
309.219	-16.57
309.434	-44.31
309.648	-22.15
309.863	-1.64
310.077	-19.98
310.292	-28.38
310.506	-12.86
310.72	-7.84
310.935	5.07
311.149	19.45
311.364	39.32
311.578	45.12
311.792	41.75
312.007	31.91
312.221	18.23
312.435	11.58
312.649	4.7
312.864	-43.04
313.078	-28.56
313.292	17.21
313.507	-47.13
313.721	-62.04
313.935	19.15
314.149	6.25
314.363	-15.59
314.578	-1.63
314.792	-2.98
315.006	-9.27
315.22	9.09
315.434	17.42
315.648	23.67
315.862	28.79
316.077	31.18
316.291	11.35
316.505	4.75
316.719	-4.04
316.933	-19.52
317.147	-21.33
317.361	-80.55
317.575	-104.88
317.789	-157.41
318.003	-255.83
318.217	-205.66
318.431	-97.67
318.645	-15.4
318.859	1.48
319.073	32.88
319.287	30.25
319.5	9.45
319.714	-42.36
319.928	-56.63
320.142	-80.31
320.356	-43.62
320.57	-2.97
320.784	-8.21
320.997	-12.06
321.211	-8.04
321.425	-58.27
321.639	-89.69
321.853	-43.75
322.066	-15.47
322.28	-16.96
322.494	-15.27
322.707	-4.49
322.921	-15.61
323.135	-33.57
323.349	-15.7
323.562	-19.77
323.776	-17.15
323.989	-12.95
324.203	-0.88
324.417	-6.38
324.63	-17.01
324.844	-21.5
325.057	-16.84
325.271	-10.94
325.485	-6.65
325.698	10.05
325.912	18.18
326.125	-2.62
326.339	-9.3
326.552	-27.88
326.766	-23.14
326.979	-13.05
327.193	20.62
327.406	14.82
327.619	13.19
327.833	16.49
328.046	-3.62
328.26	-25.18
328.473	-1.98
328.686	-22.52
328.9	-33.99
329.113	-12.49
329.326	-40.34
329.54	-42.69
329.753	-26.89
329.966	-34.94
330.179	-31.66
330.393	-9.44
330.606	-8.9
330.819	3.26
331.032	21.14
331.246	26.93
331.459	53.76
331.672	53.57
331.885	37.7
332.098	14.08
332.311	-10.92
332.525	-67.65
332.738	-35.64
332.951	3.18
333.164	16.6
333.377	36.46
333.59	61.7
333.803	49.74
334.016	36.47
334.229	38.03
334.442	40.14
334.655	29.21
334.868	30.12
335.081	32.45
335.294	31.16
335.507	21.81
335.72	6.37
335.933	-4
336.146	-14.35
336.359	-29.1
336.572	-57.64
336.785	-73.99
336.997	-77.8
337.21	-48.9
337.423	-26.22
337.636	-12.21
337.849	1.43
338.062	3.51
338.274	-0.77
338.487	-30.3
338.7	-25.86
338.913	-59.65
339.125	-79.24
339.338	-147.22
339.551	-107.85
339.763	-82.2
339.976	-39.35
340.189	-14.46
340.402	18.15
340.614	17.21
340.827	12.08
341.039	-13.65
341.252	-19.38
341.465	-16.85
341.677	-17.84
341.89	-56.94
342.102	-17.1
342.315	-35.05
342.527	-59.82
342.74	-58.08
342.952	-42.76
343.165	-45.87
343.377	4.59
343.59	-7.85
343.802	1.18
344.015	18.05
344.227	28.28
344.44	7
344.652	17.42
344.864	8.21
345.077	25.98
345.289	24.21
345.502	27.47
345.714	26.43
345.926	38.12
346.139	24.63
346.351	27.62
346.563	22.83
346.775	16.36
346.988	-2.13
347.2	-11.29
347.412	-58.88
347.624	-59.43
347.837	-53.06
348.049	-21.73
348.261	0.73
348.473	20.98
348.685	11.29
348.897	-10.9
349.11	-37.25
349.322	-63.97
349.534	-59.09
349.746	-64.03
349.958	-39.68
350.17	-27.06
350.382	-4.92
350.594	-2.85
350.806	17.86
351.018	33.45
351.23	28.97
351.442	-3.26
351.654	-18.95
351.866	-41.81
352.078	-43.47
352.29	-16.32
352.502	3.67
352.714	17.75
352.926	16.69
353.138	3.55
353.35	-8.94
353.561	-7.06
353.773	-27.48
353.985	-16.47
354.197	-18.3
354.409	-17.69
354.621	-21.11
354.832	-10.4
355.044	-17.37
355.256	-15.37
355.468	-9.26
355.679	-12.57
355.891	-14.1
356.103	-32.21
356.314	-23.22
356.526	-18.56
356.738	-27.17
356.949	-35.89
357.161	-12.69
357.373	-14.89
357.584	-20.42
357.796	-6.55
358.008	1.67
358.219	13.06
358.431	11.13
358.642	9.93
358.854	11.78
359.065	-6.72
359.277	-37.23
359.488	-42.14
359.7	-62.33
359.911	-77.34
360.123	-43.01
360.334	-33.91
360.546	-44.85
360.757	-38.07
360.969	-30.49
361.18	-19.21
361.391	-13.77
361.603	-14.99
361.814	1.76
362.025	-1.27
362.237	-9.62
362.448	11.73
362.659	33
362.871	21.63
363.082	32.01
363.293	23.82
363.504	3.13
363.716	-21.86
363.927	-34.14
364.138	-62.91
364.349	-53.23
364.56	-43.74
364.772	-35.07
364.983	-1.48
365.194	4.64
365.405	1.86
365.616	18.75
365.827	21.69
366.038	-9.46
366.25	-20.08
366.461	-50.94
366.672	-38.83
366.883	-20.13
367.094	-10.68
367.305	-7.79
367.516	4.24
367.727	-37.15
367.938	-57.19
368.149	-56.5
368.36	-32.49
368.571	-26.04
368.781	-20.06
368.992	-28.49
369.203	-43.55
369.414	-60.53
369.625	-61.4
369.836	-56.15
370.047	-70.4
370.258	-43.8
370.468	-50.53
370.679	-64.89
370.89	-55.45
371.101	-34.45
371.312	-42.23
371.522	-40.52
371.733	-24.73
371.944	-16.93
372.155	-11.53
372.365	-13.25
372.576	-20.43
372.787	-31.51
372.997	-52.95
373.208	-52.69
373.419	-32.89
373.629	-52.06
373.84	-51.86
374.05	-56.54
374.261	-47.56
374.472	-64.75
374.682	-8.66
374.893	-1.66
375.103	27.66
375.314	13.9
375.524	8.85
375.735	2.97
375.945	8.55
376.156	-15.29
376.366	-1.54
376.577	5.78
376.787	-3.19
376.997	-2.7
377.208	1.8
377.418	-13.14
377.629	-3.48
377.839	-5.29
378.049	-7.34
378.26	5.65
378.47	11.67
378.68	2.34
378.89	5.82
379.101	4.92
379.311	-26.94
379.521	-52.38
379.732	-53.72
379.942	-58.03
380.152	-72.96
380.362	-33.86
380.572	-24.83
380.783	-15.9
380.993	-4.03
381.203	10.84
381.413	8.46
381.623	17.52
381.833	19.51
382.043	11.23
382.253	-1.4
382.463	-0.41
382.674	-9.08
382.884	-27.61
383.094	-32.13
383.304	-20.04
383.514	-5.9
383.724	5.36
383.934	2.26
384.144	-1
384.353	-14.78
384.563	-27.68
384.773	-29.32
384.983	-36.85
385.193	-15.57
385.403	-3.72
385.613	-5.95
385.823	-14.25
386.033	-6.84
386.242	-15.95
386.452	-20.93
386.662	-17.85
386.872	-6.1
387.082	-9.82
387.291	-14.22
387.501	-17.27
387.711	-18.16
387.921	-25.97
388.13	-20.22
388.34	-10.94
388.55	-15.13
388.759	-14.38
388.969	-5.59
389.179	-7.25
389.388	-15
389.598	-4.85
389.807	-8.98
390.017	-16.5
390.227	-12.81
390.436	-10.21
390.646	-12.31
390.855	-6.66
391.065	-4.96
391.274	-5.76
391.484	-5.84
391.693	-3.83
391.903	-4.08
392.112	1.26
392.322	2.16
392.531	4.86
392.74	5.36
392.95	1
393.159	-2.07
393.369	-3.08
393.578	-4.46
393.787	-5.37
393.997	-3.17
394.206	-4.44
394.415	-2.93
394.625	-1.78
394.834	-4.22
395.043	-3.78
395.252	-1.31
395.462	-0.76
395.671	-0.39
395.88	1.85
396.089	2.5
396.298	0.59
396.508	0.64
396.717	-0.08
396.926	-0.09
397.135	-0.76
397.344	-0.19
397.553	0.11
397.762	1.19
397.971	1.17
398.181	1.63
398.39	1.74
398.599	1.39
398.808	0.97
399.017	1.8
399.226	2.53
399.435	3.26
399.644	3.44
399.853	2.48
400.062	1.54
400.27	0.99
400.479	0.53
400.688	-0.18
400.897	0.14
401.106	0.22
401.315	0.02
401.524	-0.12
401.733	0.61
401.941	1.07
402.15	1.44
402.359	1.36
402.568	1.83
402.777	1.87
402.985	1.68
403.194	1.5
403.403	1.91
403.612	1.53
403.82	1.21
404.029	1.42
404.238	1.27
404.446	1.36
404.655	1.24
404.864	1.31
405.072	1.13
405.281	1.39
405.489	1.08
405.698	1.14
405.906	1.1
406.115	1.17
406.324	1.08
406.532	1.22
406.741	1.47
406.949	1.47
407.158	1.4
407.366	1.36
407.574	1.25
407.783	1.21
407.991	1.06
408.2	1.17
408.408	1.22
408.617	1.11
408.825	0.96
409.033	1.14
409.242	1.09
409.45	1.08
409.658	1.07
409.867	1.11
410.075	0.98
410.283	0.88
410.491	0.87
410.7	0.83
410.908	0.76
411.116	1.03
411.324	1.08
411.533	1.06
411.741	1.25
411.949	1.35
412.157	1.11
412.365	1.14
412.573	1.17
412.781	1.24
412.99	1.04
413.198	1.26
413.406	1.27
413.614	1.28
413.822	1.15
414.03	1.25
414.238	0.97
414.446	0.97
414.654	0.74
414.862	0.85
415.07	0.98
415.278	1.26
415.486	1.14
415.694	1.34
415.902	1.22
416.109	0.99
416.317	0.97
416.525	0.93
416.733	0.89
416.941	1.01
417.149	1.02
417.357	0.97
417.564	1.12
417.772	1.26
417.98	1.16
418.188	1.28
418.395	1.3
418.603	1.42
418.811	1.07
419.019	1.1
419.226	1.29
419.434	1.42
419.642	1.27
419.849	1.4
420.057	1.37
420.265	1.22
420.472	0.98
420.68	1.04
420.887	1.04
421.095	1.07
421.302	0.96
421.51	1.11
421.717	1.1
421.925	1.18
422.132	1.07
422.34	1.01
422.547	0.99
422.755	0.86
422.962	0.88
423.17	0.89
423.377	1.01
423.585	0.97
423.792	0.93
423.999	0.75
424.207	0.84
424.414	0.9
424.621	0.88
424.829	0.99
425.036	1.06
425.243	1.11
425.451	0.89
425.658	0.77
425.865	0.81
426.072	0.84
426.28	1.01
426.487	1.01
426.694	1.06
426.901	1
427.108	0.96
427.315	0.74
427.523	1.09
427.73	1.15
427.937	1.11
428.144	0.99
428.351	1
428.558	0.89
428.765	0.79
428.972	0.77
429.179	0.99
429.386	1.19
429.593	1.08
429.8	1.05
430.007	1.12
430.214	1.15
430.421	0.94
430.628	0.77
430.835	0.7
431.042	0.72
431.249	0.7
431.456	0.66
431.662	0.95
431.869	1.18
432.076	1.2
432.283	1.24
432.49	1.23
432.697	1.14
432.903	0.96
433.11	0.94
433.317	0.93
433.524	1.15
433.73	1.06
433.937	1.23
434.144	1.14
434.35	1.1
434.557	0.83
434.764	0.85
434.97	0.76
435.177	0.9
435.384	0.85
435.59	1.02
435.797	1.26
436.003	1.28
436.21	1.2
436.416	1.31
436.623	1.23
436.829	1.28
437.036	1.36
437.242	1.45
437.449	1.32
437.655	1.35
437.862	1.17
438.068	1.03
438.275	1.07
438.481	1.27
438.687	1.3
438.894	1.32
439.1	1.45
439.307	1.55
439.513	1.42
439.719	1.34
439.926	1.38
440.132	1.29
440.338	1.05
440.544	1.15
440.751	1.21
440.957	1.3
441.163	1.28
441.369	1.44
441.575	1.27
441.782	1.22
441.988	1.09
442.194	1.15
442.4	1.17
442.606	1.53
442.812	1.57
443.018	1.65
443.224	1.64
443.431	1.68
443.637	1.4
443.843	1.41
444.049	1.37
444.255	1.34
444.461	1.39
444.667	1.4
444.873	1.49
445.079	1.56
445.284	1.66
445.49	1.36
445.696	1.19
445.902	1.05
446.108	0.97
446.314	0.87
446.52	1
446.726	1.33
446.931	1.28
447.137	1.37
447.343	1.38
447.549	1.31
447.755	1.1
447.96	1.16
448.166	1.13
448.372	1.03
448.578	1.14
448.783	1.16
448.989	1.31
449.195	1.46
449.4	1.59
449.606	1.55
449.812	1.47
450.017	1.46
450.223	1.26
450.428	1.19
450.634	1.26
450.84	1.48
451.045	1.35
451.251	1.36
451.456	1.6
451.662	1.7
451.867	1.63
452.073	1.68
452.278	1.79
452.483	1.78
452.689	1.64
452.894	1.74
453.1	1.73
453.305	1.62
453.51	1.52
453.716	1.51
453.921	1.45
454.127	1.45
454.332	1.47
454.537	1.4
454.742	1.43
454.948	1.43
455.153	1.4
455.358	1.48
455.563	1.63
455.769	1.66
455.974	1.68
456.179	1.6
456.384	1.56
456.589	1.48
456.795	1.38
457	1.29
457.205	1.47
457.41	1.43
457.615	1.39
457.82	1.47
458.025	1.48
458.23	1.42
458.435	1.47
458.64	1.45
458.845	1.56
459.05	1.62
459.255	1.65
459.46	1.68
459.665	1.7
459.87	1.66
460.075	1.63
460.28	1.6
460.485	1.64
460.69	1.68
460.895	1.48
461.099	1.46
461.304	1.57
461.509	1.51
461.714	1.41
461.919	1.64
462.123	1.57
462.328	1.53
462.533	1.46
462.738	1.58
462.942	1.46
463.147	1.58
463.352	1.65
463.556	1.73
463.761	1.7
463.966	1.74
464.17	1.71
464.375	1.59
464.58	1.59
464.784	1.55
464.989	1.55
465.193	1.63
465.398	1.65
465.602	1.72
465.807	1.73
466.011	1.71
466.216	1.62
466.42	1.66
466.625	1.7
466.829	1.76
467.034	1.84
467.238	2.02
467.443	1.97
467.647	1.86
467.851	1.89
468.056	1.95
468.26	1.78
468.464	1.8
468.669	1.89
468.873	1.95
469.077	1.85
469.282	1.94
469.486	2.06
469.69	2.09
469.894	1.97
470.099	2.1
470.303	2.17
470.507	1.99
470.711	1.79
470.915	1.8
471.119	1.65
471.324	1.6
471.528	1.71
471.732	1.89
471.936	1.91
472.14	1.96
472.344	1.97
472.548	1.97
472.752	2.07
472.956	2.26
473.16	2.24
473.364	2.14
473.568	2.13
473.772	2.1
473.976	1.95
474.18	2.01
474.384	2.11
474.588	2.05
474.792	1.97
474.995	2.02
475.199	2.04
475.403	2.06
475.607	2.15
475.811	2.15
476.015	2.17
476.218	2.28
476.422	2.19
476.626	2.24
476.83	2.3
477.033	2.3
477.237	2.14
477.441	2.19
477.644	2.12
477.848	2.11
478.052	2.04
478.255	2.14
478.459	2.13
478.663	2.27
478.866	2.32
479.07	2.37
479.273	2.45
479.477	2.55
479.681	2.49
479.884	2.47
480.088	2.38
480.291	2.3
480.495	2.26
480.698	2.25
480.901	2.26
481.105	2.45
481.308	2.44
481.512	2.48
481.715	2.53
481.919	2.6
482.122	2.56
482.325	2.59
482.529	2.65
482.732	2.67
482.935	2.54
483.138	2.5
483.342	2.59
483.545	2.55
483.748	2.55
483.952	2.62
484.155	2.73
484.358	2.66
484.561	2.67
484.764	2.61
484.967	2.73
485.171	2.74
485.374	2.75
485.577	2.77
485.78	2.86
485.983	2.76
486.186	2.68
486.389	2.62
486.592	2.62
486.795	2.62
486.998	2.64
487.201	2.66
487.404	2.75
487.607	2.82
487.81	2.85
488.013	2.88
488.216	2.86
488.419	2.9
488.622	2.82
488.825	2.71
489.028	2.64
489.231	2.64
489.433	2.58
489.636	2.53
489.839	2.59
490.042	2.56
490.245	2.51
490.447	2.5
490.65	2.54
490.853	2.55
491.056	2.63
491.258	2.68
491.461	2.67
491.664	2.66
491.866	2.58
492.069	2.66
492.272	2.62
492.474	2.71
492.677	2.78
492.879	2.87
493.082	2.88
493.285	3.02
493.487	2.92
493.69	2.84
493.892	2.8
494.095	2.74
494.297	2.69
494.5	2.73
494.702	2.77
494.905	2.81
495.107	2.82
495.309	2.75
495.512	2.84
495.714	2.86
495.917	2.88
496.119	2.85
496.321	2.91
496.524	2.87
496.726	2.92
496.928	2.94
497.13	2.94
497.333	2.88
497.535	2.94
497.737	2.95
497.939	2.94
498.142	3.02
498.344	3.05
498.546	2.94
498.748	2.92
498.95	2.93
499.152	2.91
499.355	2.97
499.557	3.06
499.759	3.13
499.961	3.11
500.163	3.12
500.365	3.09
500.567	3.13
500.769	3.02
500.971	3.07
501.173	3.04
501.375	3.08
501.577	2.97
501.779	2.95
501.981	2.96
502.183	2.96
502.385	2.91
502.587	2.93
502.788	3.01
502.99	3.02
503.192	3.12
503.394	3.12
503.596	3.17
503.798	3.18
503.999	3.18
504.201	3.14
504.403	3.23
504.605	3.23
504.806	3.25
505.008	3.24
505.21	3.23
505.411	3.18
505.613	3.2
505.815	3.13
506.016	3.18
506.218	3.27
506.42	3.26
506.621	3.33
506.823	3.4
507.024	3.36
507.226	3.28
507.427	3.31
507.629	3.24
507.83	3.28
508.032	3.3
508.233	3.39
508.435	3.4
508.636	3.52
508.838	3.48
509.039	3.47
509.24	3.45
509.442	3.44
509.643	3.33
509.845	3.33
510.046	3.38
510.247	3.4
510.448	3.43
510.65	3.52
510.851	3.58
511.052	3.61
511.254	3.6
511.455	3.71
511.656	3.68
511.857	3.79
512.058	3.76
512.26	3.76
512.461	3.68
512.662	3.75
512.863	3.6
513.064	3.58
513.265	3.59
513.466	3.65
513.667	3.63
513.868	3.7
514.069	3.77
514.27	3.82
514.471	3.75
514.672	3.74
514.873	3.74
515.074	3.76
515.275	3.68
515.476	3.71
515.677	3.73
515.878	3.84
516.079	3.8
516.28	3.88
516.481	3.95
516.682	4
516.882	3.87
517.083	3.89
517.284	3.84
517.485	3.79
517.686	3.8
517.886	3.81
518.087	3.84
518.288	3.91
518.488	3.93
518.689	3.91
518.89	3.89
519.091	3.91
519.291	3.91
519.492	3.91
519.692	3.92
519.893	4.01
520.094	3.98
520.294	3.97
520.495	3.91
520.695	3.94
520.896	3.94
521.096	3.98
521.297	4
521.497	4.05
521.698	3.97
521.898	3.96
522.099	3.98
522.299	4.05
522.499	4.05
522.7	4.14
522.9	4.12
523.101	4.16
523.301	4.14
523.501	4.13
523.702	4.13
523.902	4.2
524.102	4.2
524.302	4.15
524.503	4.2
524.703	4.2
524.903	4.18
525.103	4.13
525.304	4.2
525.504	4.24
525.704	4.26
525.904	4.22
526.104	4.22
526.304	4.21
526.504	4.19
526.705	4.2
526.905	4.31
527.105	4.35
527.305	4.34
527.505	4.27
527.705	4.26
527.905	4.23
528.105	4.23
528.305	4.19
528.505	4.29
528.705	4.35
528.905	4.3
529.105	4.28
529.304	4.34
529.504	4.42
529.704	4.31
529.904	4.35
530.104	4.36
530.304	4.41
530.503	4.32
530.703	4.34
530.903	4.35
531.103	4.44
531.303	4.44
531.502	4.48
531.702	4.58
531.902	4.64
532.101	4.58
532.301	4.58
532.501	4.59
532.7	4.59
532.9	4.59
533.1	4.62
533.299	4.67
533.499	4.68
533.698	4.6
533.898	4.61
534.097	4.64
534.297	4.65
534.496	4.66
534.696	4.76
534.895	4.81
535.095	4.93
535.294	4.89
535.494	4.9
535.693	4.89
535.892	4.87
536.092	4.73
536.291	4.7
536.491	4.81
536.69	4.85
536.889	4.84
537.088	4.85
537.288	4.92
537.487	4.92
537.686	4.91
537.886	4.95
538.085	5
538.284	5.11
538.483	5.07
538.682	5.12
538.882	5.09
539.081	5.16
539.28	5.04
539.479	5.03
539.678	5.05
539.877	5.18
540.076	5.17
540.275	5.27
540.474	5.35
540.673	5.35
540.872	5.28
541.071	5.3
541.27	5.29
541.469	5.34
541.668	5.39
541.867	5.43
542.066	5.49
542.265	5.51
542.464	5.49
542.663	5.49
542.862	5.57
543.06	5.6
543.259	5.65
543.458	5.64
543.657	5.68
543.856	5.71
544.054	5.67
544.253	5.65
544.452	5.68
544.651	5.76
544.849	5.72
545.048	5.82
545.247	5.88
545.445	5.96
545.644	5.98
545.843	5.96
546.041	5.97
546.24	6.01
546.438	6.1
546.637	6.08
546.836	6.23
547.034	6.29
547.233	6.34
547.431	6.27
547.63	6.31
547.828	6.33
548.027	6.37
548.225	6.37
548.423	6.43
548.622	6.55
548.82	6.6
549.019	6.59
549.217	6.69
549.415	6.76
549.614	6.78
549.812	6.74
550.01	6.77
550.209	6.77
550.407	6.81
550.605	6.81
550.803	6.91
551.002	6.98
551.2	7.11
551.398	7.2
551.596	7.29
551.794	7.36
551.993	7.39
552.191	7.39
552.389	7.49
552.587	7.58
552.785	7.61
552.983	7.72
553.181	7.8
553.379	7.87
553.577	7.86
553.775	8
553.973	8.08
554.171	8.14
554.369	8.11
554.567	8.14
554.765	8.17
554.963	8.22
555.161	8.21
555.359	8.33
555.557	8.45
555.755	8.47
555.952	8.54
556.15	8.64
556.348	8.65
556.546	8.72
556.744	8.82
556.941	8.86
557.139	8.97
557.337	9.05
557.535	9.05
557.732	9.16
557.93	9.25
558.128	9.31
558.325	9.46
558.523	9.55
558.721	9.64
558.918	9.64
559.116	9.72
559.313	9.71
559.511	9.89
559.708	9.88
559.906	9.96
560.104	10.06
560.301	10.17
560.498	10.11
560.696	10.22
560.893	10.39
561.091	10.48
561.288	10.56
561.486	10.66
561.683	10.71
561.88	10.72
562.078	10.76
562.275	10.71
562.473	10.81
562.67	10.95
562.867	11.15
563.064	11.23
563.262	11.38
563.459	11.43
563.656	11.51
563.853	11.44
564.051	11.46
564.248	11.65
564.445	11.79
564.642	11.85
564.839	12.01
565.036	12.22
565.234	12.28
565.431	12.31
565.628	12.42
565.825	12.54
566.022	12.53
566.219	12.58
566.416	12.73
566.613	12.79
566.81	12.84
567.007	12.86
567.204	12.89
567.401	12.9
567.598	12.9
567.795	12.9
567.991	12.97
568.188	13.06
568.385	13.11
568.582	13.19
568.779	13.23
568.976	13.31
569.172	13.43
569.369	13.47
569.566	13.61
569.763	13.73
569.96	13.79
570.156	13.74
570.353	13.8
570.55	13.83
570.746	13.88
570.943	13.93
571.14	14
571.336	14.05
571.533	14.04
571.729	13.98
571.926	14.08
572.123	14.17
572.319	14.21
572.516	14.26
572.712	14.38
572.909	14.36
573.105	14.42
573.302	14.51
573.498	14.57
573.695	14.57
573.891	14.7
574.087	14.74
574.284	14.73
574.48	14.7
574.677	14.78
574.873	14.75
575.069	14.84
575.266	14.96
575.462	14.93
575.658	14.99
575.854	15.06
576.051	15
576.247	14.89
576.443	15
576.639	14.91
576.835	14.86
577.032	14.91
577.228	15.09
577.424	15.08
577.62	15.09
577.816	15.17
578.012	15.11
578.208	14.98
578.404	15.08
578.6	15.14
578.796	15.09
578.993	15.18
579.189	15.19
579.384	15.09
579.58	15.05
579.776	15
579.972	14.9
580.168	14.88
580.364	14.95
580.56	14.95
580.756	14.95
580.952	14.96
581.148	15
581.343	15.02
581.539	15.09
581.735	15.13
581.931	15.17
582.127	15.24
582.322	15.18
582.518	15.18
582.714	15.2
582.909	15.17
583.105	15.07
583.301	15.06
583.496	15.04
583.692	14.99
583.888	15.02
584.083	15.09
584.279	15.16
584.474	15.16
584.67	15.16
584.866	15.14
585.061	14.98
585.257	14.99
585.452	14.95
585.648	14.92
585.843	15.04
586.039	15.12
586.234	15.09
586.429	15.11
586.625	15.23
586.82	15.15
587.015	15.13
587.211	15.02
587.406	15.05
587.601	15.02
587.797	15.04
587.992	15.04
588.187	15.22
588.383	15.12
588.578	15.08
588.773	15.03
588.968	15.04
589.163	15.01
589.359	15.09
589.554	15.1
589.749	15.17
589.944	15.28
590.139	15.33
590.334	15.35
590.529	15.33
590.724	15.38
590.919	15.41
591.114	15.43
591.309	15.55
591.504	15.72
591.699	15.71
591.894	15.69
592.089	15.67
592.284	15.62
592.479	15.65
592.674	15.68
592.869	15.77
593.064	15.91
593.259	16.02
593.454	16.11
593.648	16.18
593.843	16.19
594.038	16.15
594.233	16.13
594.428	16.15
594.622	16.24
594.817	16.4
595.012	16.43
595.206	16.55
595.401	16.59
595.596	16.58
595.79	16.64
595.985	16.81
596.18	16.85
596.374	16.94
596.569	16.99
596.763	16.92
596.958	16.96
597.153	16.98
597.347	16.98
597.542	17.12
597.736	17.17
597.931	17.28
598.125	17.36
598.319	17.48
598.514	17.43
598.708	17.54
598.903	17.48
599.097	17.55
599.291	17.64
599.486	17.68
599.68	17.67
599.874	17.76
600.069	17.79
600.263	17.63
600.457	17.7
600.651	17.8
600.846	17.84
601.04	17.82
601.234	17.95
601.428	18.1
601.622	18.2
601.817	18.21
602.011	18.25
602.205	18.37
602.399	18.27
602.593	18.21
602.787	18.28
602.981	18.31
603.175	18.25
603.369	18.2
603.563	18.29
603.757	18.3
603.951	18.33
604.145	18.28
604.339	18.34
604.533	18.18
604.727	18.07
604.921	18.07
605.115	18.1
605.309	18.19
605.502	18.25
605.696	18.24
605.89	18.19
606.084	18.15
606.278	18.03
606.471	18.05
606.665	18.01
606.859	17.98
607.053	17.91
607.246	17.81
607.44	17.74
607.634	17.75
607.827	17.73
608.021	17.69
608.214	17.75
608.408	17.59
608.602	17.49
608.795	17.42
608.989	17.36
609.182	17.22
609.376	17.25
609.569	17.28
609.763	17.22
609.956	17.21
610.15	17.18
610.343	17.11
610.537	16.99
610.73	16.96
610.923	16.86
611.117	16.85
611.31	16.76
611.504	16.7
611.697	16.58
611.89	16.5
612.083	16.42
612.277	16.47
612.47	16.38
612.663	16.38
612.856	16.36
613.05	16.27
613.243	16.14
613.436	16.05
613.629	15.96
613.822	15.83
614.015	15.8
614.209	15.64
614.402	15.71
614.595	15.71
614.788	15.77
614.981	15.71
615.174	15.71
615.367	15.6
615.56	15.54
615.753	15.43
615.946	15.3
616.139	15.21
616.332	15.28
616.525	15.2
616.718	15.26
616.911	15.26
617.103	15.33
617.296	15.24
617.489	15.17
617.682	15.02
617.875	15.02
618.067	14.95
618.26	14.89
618.453	14.92
618.646	14.84
618.838	14.88
619.031	14.87
619.224	14.83
619.417	14.79
619.609	14.89
619.802	14.77
619.994	14.71
620.187	14.74
620.38	14.65
620.572	14.54
620.765	14.66
620.957	14.65
621.15	14.51
621.342	14.49
621.535	14.52
621.727	14.32
621.92	14.2
622.112	14.16
622.305	14.22
622.497	14.1
622.69	14.15
622.882	14.2
623.074	14.26
623.267	14.16
623.459	14.13
623.651	14.03
623.844	14
624.036	14
624.228	13.97
624.42	14.01
624.613	14.16
624.805	14.07
624.997	14.01
625.189	14.04
625.381	13.99
625.574	13.8
625.766	13.78
625.958	13.77
626.15	13.76
626.342	13.73
626.534	13.82
626.726	13.88
626.918	13.86
627.11	13.82
627.302	13.85
627.494	13.78
627.686	13.73
627.878	13.6
628.07	13.56
628.262	13.43
628.454	13.47
628.646	13.5
628.838	13.55
629.029	13.55
629.221	13.68
629.413	13.55
629.605	13.38
629.797	13.36
629.989	13.35
630.18	13.22
630.372	13.23
630.564	13.27
630.755	13.31
630.947	13.33
631.139	13.31
631.33	13.19
631.522	13.28
631.714	13.2
631.905	13.12
632.097	13.01
632.289	13.12
632.48	12.99
632.672	12.92
632.863	12.91
633.055	12.99
633.246	12.94
633.438	12.94
633.629	12.94
633.821	12.92
634.012	12.85
634.203	12.78
634.395	12.8
634.586	12.88
634.777	12.81
634.969	12.87
635.16	12.94
635.351	12.87
635.543	12.78
635.734	12.82
635.925	12.8
636.117	12.79
636.308	12.81
636.499	12.72
636.69	12.65
636.881	12.61
637.073	12.66
637.264	12.65
637.455	12.76
637.646	12.86
637.837	12.87
638.028	12.74
638.219	12.78
638.41	12.76
638.601	12.7
638.792	12.7
638.983	12.72
639.174	12.65
639.365	12.64
639.556	12.56
639.747	12.52
639.938	12.57
640.129	12.47
640.32	12.38
640.511	12.47
640.701	12.57
640.892	12.5
641.083	12.59
641.274	12.65
641.465	12.59
641.655	12.52
641.846	12.47
642.037	12.37
642.228	12.29
642.418	12.28
642.609	12.22
642.8	12.25
642.99	12.28
643.181	12.31
643.372	12.35
643.562	12.35
643.753	12.27
643.943	12.21
644.134	12.06
644.324	11.98
644.515	11.99
644.705	12.05
644.896	12.14
645.086	12.28
645.277	12.26
645.467	12.22
645.658	12.19
645.848	12.13
646.038	12.04
646.229	11.97
646.419	11.94
646.61	11.94
646.8	11.87
646.99	11.86
647.18	11.82
647.371	11.75
647.561	11.59
647.751	11.66
647.941	11.64
648.132	11.67
648.322	11.69
648.512	11.8
648.702	11.8
648.892	11.8
649.082	11.77
649.272	11.7
649.462	11.54
649.653	11.41
649.843	11.25
650.033	11.16
650.223	11.13
650.413	11.1
650.603	11.09
650.793	11.17
650.983	11.18
651.172	11.15
651.362	11.16
651.552	11.08
651.742	11.07
651.932	11.07
652.122	11.07
652.312	11.05
652.502	11.08
652.691	10.99
652.881	10.87
653.071	10.79
653.261	10.7
653.45	10.57
653.64	10.56
653.83	10.46
654.019	10.4
654.209	10.26
654.399	10.22
654.588	10.06
654.778	10.06
654.968	9.9
655.157	9.98
655.347	9.85
655.536	9.81
655.726	9.67
655.915	9.61
656.105	9.4
656.294	9.35
656.484	9.15
656.673	9.07
656.863	9.01
657.052	8.83
657.241	8.7
657.431	8.57
657.62	8.48
657.809	8.27
657.999	8.27
658.188	8.13
658.377	8.03
658.567	7.9
658.756	7.79
658.945	7.67
659.134	7.5
659.324	7.46
659.513	7.29
659.702	7.27
659.891	7.14
660.08	7.06
660.269	6.97
660.458	6.91
660.648	6.79
660.837	6.71
661.026	6.72
661.215	6.62
661.404	6.47
661.593	6.41
661.782	6.21
661.971	6.05
662.16	5.95
662.349	5.91
662.538	5.77
662.726	5.78
662.915	5.75
663.104	5.63
663.293	5.56
663.482	5.61
663.671	5.56
663.86	5.44
664.048	5.44
664.237	5.45
664.426	5.22
664.615	5.13
664.803	5.05
664.992	4.92
665.181	4.8
665.369	4.78
665.558	4.78
665.747	4.73
665.935	4.79
666.124	4.86
666.312	4.95
666.501	4.89
666.69	4.8
666.878	4.72
667.067	4.61
667.255	4.63
667.444	4.88
667.632	4.98
667.82	5
668.009	5.07
668.197	4.97
668.386	4.8
668.574	4.91
668.762	4.93
668.951	4.79
669.139	4.89
669.327	4.79
669.516	4.81
669.704	4.78
669.892	5.04
670.08	4.94
670.269	4.93
670.457	4.81
670.645	4.77
670.833	4.79
671.021	4.81
671.21	4.94
671.398	5.15
671.586	5.26
671.774	5.06
671.962	5.13
672.15	5.13
672.338	4.97
672.526	5.01
672.714	5.02
672.902	5.09
673.09	5.2
673.278	5.38
673.466	5.41
673.654	5.62
673.842	5.66
674.03	5.71
674.218	5.63
674.405	5.67
674.593	5.7
674.781	5.78
674.969	5.8
675.157	6
675.344	6.06
675.532	6.13
675.72	6.22
675.908	6.29
676.095	6.22
676.283	6.42
676.471	6.56
676.658	6.6
676.846	6.51
677.033	6.75
677.221	6.71
677.409	6.63
677.596	6.7
677.784	6.87
677.971	6.92
678.159	7.04
678.346	7.13
678.534	7.18
678.721	7.41
678.909	7.44
679.096	7.44
679.283	7.64
679.471	7.73
679.658	7.83
679.846	8.04
680.033	8.19
680.22	8.15
680.408	8.13
680.595	8.04
680.782	7.9
680.969	8.04
681.157	8.15
681.344	8.28
681.531	8.37
681.718	8.42
681.905	8.58
682.093	8.77
682.28	9
682.467	9.19
682.654	9.37
682.841	9.35
683.028	9.51
683.215	9.67
683.402	9.7
683.589	9.98
683.776	10.3
683.963	10.32
684.15	10.45
684.337	10.64
684.524	10.71
684.711	10.82
684.898	10.9
685.085	10.98
685.271	11.2
685.458	11.34
685.645	11.43
685.832	11.82
686.019	12.25
686.205	12.49
686.392	12.8
686.579	13.11
686.766	13.36
686.952	13.4
687.139	13.78
687.326	13.94
687.512	14.12
687.699	14.32
687.886	14.62
688.072	14.81
688.259	15.19
688.445	15.73
688.632	15.92
688.818	16.49
689.005	16.85
689.191	17.15
689.378	17.49
689.564	18.06
689.751	18.32
689.937	18.73
690.124	19.31
690.31	19.48
690.496	19.87
690.683	20.33
690.869	20.77
691.055	21.13
691.242	21.83
691.428	22.36
691.614	22.78
691.8	23.45
691.987	23.96
692.173	24.37
692.359	24.87
692.545	25.37
692.731	25.55
692.918	26.05
693.104	26.45
693.29	26.97
693.476	27.52
693.662	28.39
693.848	28.87
694.034	29.31
694.22	29.58
694.406	30.14
694.592	30.43
694.778	30.84
694.964	31.31
695.15	32.04
695.336	32.23
695.522	33.12
695.708	33.69
695.894	34.33
696.08	34.74
696.265	35.37
696.451	35.47
696.637	36.08
696.823	36.59
697.009	36.99
697.194	37.41
697.38	37.72
697.566	37.73
697.751	38.21
697.937	38.88
698.123	39.45
698.308	40.13
698.494	40.99
698.68	41.42
698.865	41.82
699.051	42.26
699.236	42.49
699.422	42.8
699.607	42.9
699.793	43.31
699.978	43.65
700.164	44.05
700.349	44.62
700.535	45.16
700.72	45.13
700.906	45.5
701.091	45.81
701.276	45.87
701.462	46.43
701.647	47.09
701.832	47.57
702.018	47.93
702.203	48.47
702.388	48.53
702.573	48.71
702.759	49.06
702.944	49.3
703.129	48.98
703.314	49.25
703.499	49.42
703.684	49.45
703.87	50.13
704.055	51.02
704.24	51.24
704.425	51.78
704.61	52.2
704.795	52.07
704.98	52.17
705.165	52.42
705.35	52.32
705.535	52.28
705.72	52.25
705.905	52.3
706.09	52.64
706.275	53.04
706.459	53.01
706.644	53.35
706.829	53.64
707.014	53.36
707.199	53.55
707.384	53.73
707.568	53.82
707.753	54.14
707.938	54.55
708.123	54.52
708.307	55.11
708.492	55.29
708.677	55.19
708.861	55.31
709.046	55.3
709.231	55.74
709.415	56.2
709.6	56.41
709.784	56.39
709.969	56.89
710.153	56.44
710.338	56.37
710.522	56.19
710.707	56.51
710.891	56.36
711.076	56.33
711.26	56.47
711.445	56.9
711.629	57.3
711.813	57.64
711.998	58.02
712.182	57.92
712.366	58.41
712.551	58.75
712.735	58.88
712.919	59.01
713.103	59.39
713.288	58.99
713.472	58.82
713.656	59.18
713.84	59.55
714.024	59.85
714.208	59.95
714.393	60.1
714.577	60.1
714.761	60.04
714.945	59.79
715.129	59.89
715.313	59.88
715.497	59.77
715.681	60.4
715.865	60.83
716.049	61.23
716.233	61.4
716.417	61.71
716.601	61.52
716.785	61.72
716.968	62.08
717.152	62.35
717.336	62.85
717.52	62.66
717.704	62.47
717.888	62.54
718.071	62.96
718.255	62.72
718.439	63.17
718.622	63.88
718.806	64.1
718.99	63.79
719.174	64.08
719.357	64.11
719.541	64.08
719.724	63.82
719.908	64.74
720.092	65.02
720.275	65.12
720.459	65.09
720.642	65.23
720.826	64.76
721.009	64.53
721.193	64.35
721.376	64.71
721.559	65.27
721.743	65.57
721.926	66.12
722.11	66.8
722.293	66.94
722.476	66.77
722.66	67.23
722.843	67.04
723.026	66.64
723.21	66.8
723.393	67.92
723.576	67.57
723.759	67.74
723.942	68.21
724.126	67.54
724.309	67.33
724.492	67.74
724.675	68
724.858	68.68
725.041	70.05
725.224	70.21
725.407	69.98
725.59	70.65
725.774	70.45
725.957	69.92
726.14	69.92
726.322	70.72
726.505	70.37
726.688	71.39
726.871	71.6
727.054	71.94
727.237	71.85
727.42	72.58
727.603	72.17
727.786	72.65
727.968	72.66
728.151	72.53
728.334	72.45
728.517	72.64
728.699	72.74
728.882	72.9
729.065	73.6
729.248	74.39
729.43	74.62
729.613	75.63
729.796	76.69
729.978	76.77
730.161	76.57
730.343	76.48
730.526	76.55
730.708	75.36
730.891	75.18
731.073	74.58
731.256	74.49
731.438	74.22
731.621	75.35
731.803	75.65
731.986	76.17
732.168	76
732.35	76.27
732.533	76.09
732.715	76.56
732.898	77.55
733.08	78.07
733.262	78.72
733.444	78.33
733.627	78.07
733.809	77.81
733.991	78.53
734.173	77.84
734.355	78.14
734.538	79.28
734.72	79.1
734.902	79.51
735.084	80
735.266	80.61
735.448	81.2
735.63	81.2
735.812	81.05
735.994	81.63
736.176	82.1
736.358	80.91
736.54	82.29
736.722	82.09
736.904	81.85
737.086	81.29
737.268	82.2
737.45	81.69
737.632	82.31
737.814	81.63
737.995	82.1
738.177	81.63
738.359	81.7
738.541	81.94
738.723	83.11
738.904	83.54
739.086	83.65
739.268	83.28
739.449	83.71
739.631	83.49
739.813	83.46
739.994	83.8
740.176	84.52
740.358	83.77
740.539	84.49
740.721	84.43
740.902	84.89
741.084	83.95
741.265	84.03
741.447	83.34
741.628	83.67
741.81	82.93
741.991	84.04
742.172	84.75
742.354	84.97
742.535	85.19
742.717	86.23
742.898	86.32
743.079	86.57
743.261	86.16
743.442	84.84
743.623	84.8
743.804	85.3
743.986	85.67
744.167	84.87
744.348	86.04
744.529	85.79
744.71	83.89
744.891	82.55
745.073	82.98
745.254	82.64
745.435	82.65
745.616	83.32
745.797	84.28
745.978	84.89
746.159	85.17
746.34	84.49
746.521	85.58
746.702	83.96
746.883	83.27
747.064	82.96
747.245	83.25
747.426	82.64
747.606	83.86
747.787	85.2
747.968	85.62
748.149	85.9
748.33	86.67
748.51	86.1
748.691	86.28
748.872	86.19
749.053	85.8
749.233	84.53
749.414	85.12
749.595	83.87
749.775	83
749.956	83.02
750.137	82.6
750.317	83.93
750.498	85.28
750.678	86.05
750.859	86.55
751.04	87.19
751.22	84.4
751.4	83.6
751.581	82.61
751.761	82.61
751.942	83.79
752.122	84.15
752.303	83.31
752.483	82.94
752.663	81.89
752.844	80.43
753.024	82.18
753.204	83.59
753.385	84.6
753.565	84.77
753.745	84.55
753.925	82.67
754.106	81.76
754.286	81.46
754.466	82.02
754.646	83.78
754.826	84.46
755.006	83.68
755.187	83.49
755.367	83.87
755.547	82.95
755.727	83.38
755.907	83.53
756.087	85.16
756.267	84.09
756.447	84.3
756.627	82.91
756.807	83.62
756.987	83.52
757.167	84.45
757.346	83.44
757.526	84
757.706	84.79
757.886	85.14
758.066	85.11
758.246	87.47
758.425	86.64
758.605	84.89
758.785	83.5
758.965	83.3
759.144	81.14
759.324	83.25
759.504	83.8
759.683	83.82
759.863	82
760.043	80.83
760.222	78.97
760.402	79.1
760.581	78.98
760.761	80.9
760.94	80.15
761.12	82.62
761.299	83.03
761.479	83.25
761.658	82.2
761.838	83.32
762.017	81.2
762.197	81.17
762.376	81.86
762.555	82.9
762.735	83.59
762.914	83.2
763.093	83.73
763.273	82.44
763.452	81.04
763.631	81.16
763.81	81.62
763.99	80.76
764.169	81.85
764.348	81.83
764.527	80.36
764.706	81.38
764.885	82.04
765.064	79.95
765.243	81.82
765.423	83.74
765.602	82.63
765.781	80.25
765.96	78.99
766.139	77.9
766.318	78.02
766.497	78.73
766.676	80.7
766.854	83.55
767.033	83.63
767.212	83.49
767.391	83.55
767.57	83.93
767.749	84.15
767.928	85.04
768.106	82.88
768.285	81.21
768.464	80.29
768.643	79.1
768.821	77.5
769	80
769.179	79.65
769.357	78.94
769.536	79.61
769.715	80.41
769.893	81.64
770.072	81.68
770.25	82.41
770.429	81.96
770.607	81.87
770.786	79.38
770.964	80.6
771.143	79.51
771.321	82.73
771.5	83.84
771.678	83.04
771.857	82.13
772.035	83.8
772.213	80.87
772.392	78.87
772.57	80.6
772.748	80.81
772.927	80.35
773.105	79.6
773.283	80.21
773.461	80.13
773.64	80.87
773.818	80.15
773.996	80.61
774.174	81.05
774.352	79.32
774.531	77.04
774.709	79.03
774.887	78.17
775.065	76.83
775.243	77.1
775.421	76.76
775.599	77.91
775.777	76.04
775.955	73.71
776.133	73.2
776.311	74.18
776.489	70.69
776.667	72.83
776.844	76.11
777.022	76.06
777.2	75.4
777.378	77.9
777.556	79.44
777.734	80.86
777.911	83.12
778.089	84.67
778.267	81.9
778.445	79.82
778.622	77.3
778.8	75.88
778.978	78.8
779.155	78.86
779.333	79.72
779.511	80.28
779.688	82.16
779.866	75.24
780.043	71.85
780.221	71.97
780.398	70.51
780.576	70.42
780.753	73.35
780.931	75.81
781.108	74.41
781.286	76.24
781.463	73.42
781.64	72.43
781.818	75.12
781.995	76.87
782.172	77.05
782.35	78.19
782.527	79.67
782.704	76.18
782.882	73.07
783.059	71.9
783.236	73.27
783.413	73.58
783.59	75.61
783.768	75.89
783.945	79.04
784.122	79.42
784.299	82.3
784.476	78.68
784.653	78.7
784.83	73.31
785.007	69.46
785.184	67.35
785.361	67.74
785.538	73.41
785.715	78.83
785.892	81.53
786.069	81.06
786.246	85.23
786.423	84.41
786.6	82.19
786.776	81.92
786.953	82.95
787.13	82.32
787.307	79.48
787.484	78.61
787.66	77.36
787.837	75.31
788.014	72.97
788.191	70.35
788.367	68.09
788.544	69.47
788.721	68.97
788.897	70.05
789.074	74.19
789.25	75.88
789.427	74.09
789.603	75.29
789.78	78.27
789.956	71.12
790.133	69.29
790.309	74.07
790.486	78.15
790.662	72.68
790.839	75.77
791.015	75.38
791.192	73.13
791.368	71.78
791.544	73.91
791.721	74.34
791.897	75.93
792.073	69.93
792.249	62.18
792.426	61.68
792.602	63.14
792.778	64.74
792.954	63.4
793.13	66.06
793.307	61.78
793.483	57.46
793.659	55.79
793.835	67.16
794.011	67.75
794.187	69.19
794.363	69.04
794.539	70.48
794.715	60.52
794.891	59.98
795.067	62.45
795.243	67.51
795.419	65.3
795.595	66.72
795.771	67.53
795.947	64.55
796.122	62.14
796.298	66.38
796.474	68.41
796.65	70.34
796.826	73.41
797.001	75.39
797.177	71.12
797.353	71.62
797.529	68.99
797.704	69.55
797.88	64.23
798.056	61.45
798.231	58.76
798.407	63.83
798.582	63.33
798.758	73.52
798.934	84.57
799.109	83.4
799.285	79.23
799.46	77.42
799.636	73.36
799.811	64.33
799.986	65.47
800.162	62.54
800.337	66.25
800.513	60.12
800.688	57.02
800.863	66.31
801.039	65.87
801.214	58.45
801.389	61.24
801.565	67.35
801.74	53.79
801.915	60.31
802.09	60.64
802.265	66.71
802.441	61.68
802.616	69.19
802.791	66.48
802.966	68.39
803.141	63.64
803.316	64.79
803.491	68.04
803.666	74.01
803.841	75.96
804.016	75.77
804.191	79.41
804.366	73.18
804.541	67.87
804.716	63.69
804.891	60.08
805.066	60.72
805.241	59.34
805.416	57.33
805.591	58.11
805.765	65.94
805.94	62.22
806.115	58.95
806.29	49.48
806.464	52.98
806.639	44.9
806.814	44.66
806.989	44.58
807.163	58.06
807.338	59.43
807.512	56.29
807.687	46.08
807.862	58.89
808.036	60.49
808.211	61.86
808.385	72.77
808.56	89.99
808.734	87.16
808.909	83.67
809.083	71.6
809.258	72.86
809.432	66.73
809.606	52.72
809.781	48.86
809.955	58.48
810.13	59.57
810.304	53.71
810.478	59.12
810.652	66.06
810.827	68.63
811.001	53.68
811.175	57.93
811.349	54.57
811.524	50.53
811.698	40.76
811.872	44.27
812.046	50.52
812.22	56.09
812.394	59.91
812.568	64.31
812.742	76.18
812.916	68.64
813.09	68.84
813.264	69.23
813.438	67.95
813.612	57.5
813.786	50.8
813.96	58.89
814.134	51.84
814.308	63.48
814.482	68.89
814.656	68.03
814.83	71.75
815.003	78.6
815.177	61.7
815.351	55.06
815.525	57.06
815.698	43.42
815.872	38.1
816.046	34.04
816.219	38.64
816.393	55.58
816.567	67.1
816.74	69.46
816.914	80.55
817.088	82.54
817.261	71.68
817.435	59.87
817.608	63.73
817.782	53.02
817.955	50.93
818.129	47.28
818.302	52.62
818.475	49.77
818.649	46.97
818.822	38.35
818.996	53.05
819.169	43.03
819.342	41.51
819.516	48.73
819.689	65.8
819.862	47.83
820.035	49.78
820.209	46.36
820.382	48.82
820.555	51.17
820.728	46.13
820.901	41.11
821.075	42.31
821.248	54.26
821.421	41.6
821.594	47.31
821.767	73.38
821.94	84.63
822.113	56.73
822.286	50.68
822.459	64.18
822.632	46.19
822.805	31.31
822.978	29.69
823.151	36.82
823.324	29
823.496	19.77
823.669	20.04
823.842	38.31
824.015	33.34
824.188	12.12
824.361	25.42
824.533	33.24
824.706	27.29
824.879	30.41
825.051	46.21
825.224	41.83
825.397	21.23
825.569	20.65
825.742	36.95
825.915	47.5
826.087	47.52
826.26	45.18
826.432	38.74
826.605	35.82
826.777	23.64
826.95	22.77
827.122	17.17
827.295	21.8
827.467	21.69
827.64	-6.86
827.812	-17.12
827.984	-16.17
828.157	-35.12
828.329	-77.54
828.501	-32.95
828.674	8.94
828.846	8.01
829.018	38.62
829.19	33.63
829.363	47.71
829.535	42.11
829.707	51.35
829.879	34.31
830.051	39.5
830.223	10.38
830.395	-7.01
830.568	-18.07
830.74	-39.99
830.912	-5.63
831.084	0.3
831.256	-1.92
831.428	-1.78
831.6	9.55
831.772	-25.48
831.943	-29.47
832.115	-15.13
832.287	11.31
832.459	31.29
832.631	49.73
832.803	63.1
832.975	89.14
833.146	57.27
833.318	33.19
833.49	42.51
833.662	35.07
833.833	14.11
834.005	26.36
834.177	37.85
834.348	22.8
834.52	11.27
834.692	2.7
834.863	-13.08
835.035	-11.75
835.206	-52.34
835.378	-19.02
835.549	-8.6
835.721	-0.33
835.892	8.7
836.064	20.33
836.235	6.62
836.407	17.63
836.578	-7.37
836.749	-35.01
836.921	-78.68
837.092	-64.96
837.264	-68.08
837.435	-72.01
837.606	-26.07
837.777	5.59
837.949	20.53
838.12	33.34
838.291	50.3
838.462	33.83
838.633	2.19
838.805	0.1
838.976	-1.56
839.147	-63.57
839.318	-69.61
839.489	-116.71
839.66	-122.67
839.831	-62.82
840.002	-35.2
840.173	-27.35
840.344	46.19
840.515	61.12
840.686	-72.68
840.857	-32.67
841.028	-26.03
841.199	-5.35
841.369	-24.76
841.54	-27.16
841.711	-16.74
841.882	-3.11
842.053	-7.84
842.223	-15.2
842.394	14.18
842.565	0.86
842.736	14.71
842.906	12.39
843.077	25.88
843.248	59.21
843.418	65.5
843.589	4.81
843.759	63.28
843.93	21.28
844.101	-21.03
844.271	-3.85
844.442	26.57
844.612	24.54
844.783	7.96
844.953	-21.37
845.123	-51.77
845.294	-89.64
845.464	-275.3
845.635	-86.1
845.805	-10.6
845.975	7.13
846.146	-22.3
846.316	-26.94
846.486	-15.91
846.656	15.77
846.827	13.22
846.997	26.49
847.167	62.88
847.337	32.43
847.507	-5.49
847.677	8.81
847.848	40.14
848.018	29.39
848.188	37.9
848.358	18.61
848.528	-2.59
848.698	-38.56
848.868	-165.28
849.038	-290.18
849.208	-94.51
849.378	-15.56
849.548	-10.38
849.718	29.11
849.887	39.07
850.057	14.46
850.227	-43.5
850.397	-81.55
850.567	-190.03
850.737	-428.37
850.906	-1235.31
851.076	-736.91
851.246	-349.35
851.415	-48.63
851.585	-40.58
851.755	-66.89
851.924	-12.7
852.094	-24.35
852.264	-138.33
852.433	-820.43
852.603	-116.15
852.772	-99.74
852.942	-77.33
853.111	-39.3
853.281	-15.6
853.45	-26
853.62	-102.96
853.789	-66.17
853.959	-71.23
854.128	-75.2
854.297	-69.87
854.467	-74.19
854.636	-85.55
854.805	-49.38
854.975	-84.45
855.144	-135.96
855.313	-63.81
855.482	-305.29
855.652	-65.93
855.821	-52.69
855.99	23.29
856.159	11.34
856.328	16.11
856.497	-20.39
856.667	-2.67
856.836	-4.94
857.005	-9.99
857.174	-26.63
857.343	-16
857.512	13.66
857.681	-35.11
857.85	-90.33
858.019	-22.62
858.188	-27.7
858.356	-54.33
858.525	-115.12
858.694	-107.58
858.863	-265.19
859.032	-188.11
859.201	-236.24
859.369	-125.83
859.538	-95.37
859.707	-79.12
859.876	-87.2
860.044	-62.57
860.213	-7.54
860.382	-3.82
860.55	15.01
860.719	38.7
860.888	48.44
861.056	16.7
861.225	0.99
861.393	16.17
861.562	-7.68
861.73	-105.71
861.899	-239.4
862.067	-2042.24
862.236	-94.14
862.404	-275.29
862.572	-121.45
862.741	-41.21
862.909	-18.04
863.078	-121.45
863.246	-41.16
863.414	-59.29
863.582	-44.1
863.751	-69.01
863.919	-53.57
864.087	-25.79
864.255	-44.3
864.424	-327.99
864.592	-60.54
864.76	-111.63
864.928	-457
865.096	-127.47
865.264	-98.99
865.432	-1877.84
865.6	-218.13
865.768	-128.56
865.936	-177.67
866.104	-217.43
866.272	-202.89
866.44	-389.07
866.608	612.09
866.776	259.47
866.944	2144.77
867.112	-404.77
867.28	-181.78
867.448	-83.28
867.615	-42.73
867.783	-30.06
867.951	-40.85
868.119	9.61
868.286	11.4
868.454	-63.43
868.622	-51.13
868.789	-42.2
868.957	-1873.21
869.125	-1819.08
869.292	-88.02
869.46	-197.27
869.627	-37.03
869.795	-44.03
869.963	-11.73
870.13	-5.96
870.298	10.35
870.465	-56.68
870.632	-53.62
870.8	-37.51
870.967	-71.6
871.135	-135.01
871.302	-86.45
871.469	-142.31
871.637	-200.09
871.804	-127.44
871.971	-98.07
872.139	-426.16
872.306	-47.08
872.473	-87.73
872.64	-413.84
872.807	-249.76
872.975	-35.4
873.142	-203.36
873.309	879.05
873.476	43.98
873.643	69.12
873.81	21.24
873.977	23.98
874.144	4.21
874.311	-57.47
874.478	-85.64
874.645	-127.38
874.812	-34.18
874.979	-8.81
875.146	-21.14
875.313	-23.47
875.48	59.93
875.647	2.5
875.813	-29.56
875.98	-16
876.147	-45.04
876.314	-136.55
876.481	1111.78
876.647	-1171.07
876.814	557.12
876.981	-142.4
877.147	-50.3
877.314	4.77
877.481	32.33
877.647	45.82
877.814	14.5
877.98	-46.97
878.147	-21.96
878.314	-16.37
878.48	-85.15
878.647	-55.35
878.813	22.85
878.979	23.11
879.146	0.17
879.312	13.18
879.479	-13.66
879.645	-137.5
879.811	-271.06
879.978	-653.63
880.144	-147.82
880.31	-88.65
880.477	-275.76
880.643	-363.82
880.809	-169.61
880.975	-125.92
881.142	-639.32
881.308	-25.44
881.474	77.22
881.64	76.65
881.806	-18.39
881.972	-3.02
882.138	15.67
882.304	-83.36
882.47	-195.29
882.636	-731.35
882.802	-253.58
882.968	-103.61
883.134	-61.1
883.3	-44.3
883.466	9.58
883.632	23.07
883.798	-23.55
883.964	-49.55
884.129	-17.47
884.295	-13.6
884.461	-30.65
884.627	0.7
884.793	-16.58
884.958	-39.58
885.124	-139.69
885.29	-220.95
885.455	-335.56
885.621	-126.46
885.787	-153.02
885.952	-48.96
886.118	-65.31
886.283	-86.37
886.449	-149.7
886.614	-143.79
886.78	-248.56
886.945	1216.8
887.111	-517.49
887.276	-445.6
887.442	-991.14
887.607	-524.17
887.773	-292.75
887.938	-257.25
888.103	-258.59
888.269	-156.7
888.434	-250.41
888.599	-82.05
888.764	-33.64
888.93	-23.56
889.095	-30.64
889.26	-76.01
889.425	-70.61
889.59	-70.3
889.756	-97.72
889.921	-71.97
890.086	-15.96
890.251	-43.56
890.416	-243.99
890.581	-1947.18
890.746	346.52
890.911	587.42
891.076	160.95
891.241	-236.01
891.406	63.22
891.571	19.61
891.736	-167.09
891.901	-404.65
892.065	307.97
892.23	120.61
892.395	161.69
892.56	263.95
892.725	-305.66
892.889	-1210.37
893.054	-178.31
893.219	-89.8
893.384	-42.91
893.548	-99.9
893.713	-111.91
893.878	-95.44
