Data from Ofra_1a_PS_2CX12_Reflection_1.txt Node
Date: Tue Jul 20 10:47:04 EDT 2021
User: Adam
Spectrometer: FLMT01687
Trigger mode: 0
Integration Time (sec): 1.004000E0
Scans to average: 2
Electric dark correction enabled: true
Nonlinearity correction enabled: false
Boxcar width: 2
XAxis mode: Wavelengths
Number of Pixels in Spectrum: 3648
>>>>>Begin Spectral Data<<<<<
179.494	-223.86
179.716	-400.76
179.937	1086.62
180.158	-1542.04
180.38	280.72
180.601	125.27
180.823	44.93
181.044	-114.9
181.265	-344.39
181.486	333.3
181.708	112.28
181.929	81.82
182.15	-80.82
182.372	767
182.593	540.67
182.814	-337.69
183.035	-62.96
183.257	-41.4
183.478	-52.31
183.699	-73.73
183.92	-121.46
184.141	-117.9
184.363	-80.8
184.584	-105.84
184.805	-60.3
185.026	1.3
185.247	-16.79
185.468	-68.84
185.689	-26.22
185.91	-69.75
186.132	-51.19
186.353	-28.08
186.574	-4.3
186.795	-23.05
187.016	18.25
187.237	-2.19
187.458	-7.77
187.679	-34.41
187.9	-8.39
188.121	-35.62
188.342	-13.03
188.563	9.44
188.784	46.63
189.005	11.77
189.226	14.91
189.447	-1.42
189.667	-26.75
189.888	-49.33
190.109	-60.96
190.33	-40.87
190.551	-56.15
190.772	-46.56
190.993	-51.3
191.214	-40.82
191.434	-78.41
191.655	-62.86
191.876	-30.22
192.097	-4.63
192.318	11.92
192.538	-22.49
192.759	-20.64
192.98	-11.26
193.201	-19.3
193.421	-25.18
193.642	-6.99
193.863	2.83
194.083	-17
194.304	-0.2
194.525	-17.15
194.745	-25.92
194.966	-21.73
195.187	-15.16
195.407	-38.64
195.628	-0.67
195.848	3.45
196.069	-22.43
196.29	-27.77
196.51	-47.99
196.731	-81.54
196.951	-83.66
197.172	-44.51
197.392	-49.67
197.613	-3.4
197.833	-11.66
198.054	-14.33
198.274	-20.86
198.495	-14.1
198.715	-41.24
198.936	-2.53
199.156	6.17
199.377	-0.4
199.597	2.04
199.817	-0.85
200.038	-50.49
200.258	-29.7
200.479	-27.63
200.699	-31.23
200.919	-38.22
201.14	-24.46
201.36	-45.26
201.58	-72.09
201.801	-78.9
202.021	-76.18
202.241	-90.31
202.461	-72.74
202.682	-48.63
202.902	-28.03
203.122	-5.93
203.342	6.05
203.563	3.9
203.783	-9.14
204.003	-31.64
204.223	-26.81
204.443	-33.67
204.663	-59.9
204.884	-25.16
205.104	-13.97
205.324	-15
205.544	-26.72
205.764	22.25
205.984	-12.79
206.204	-27.84
206.424	-62.94
206.644	-63.12
206.864	-133.32
207.084	-62.3
207.304	-77.4
207.525	-44.08
207.745	-23.21
207.964	-9.13
208.184	11.53
208.404	13.93
208.624	23.76
208.844	11.05
209.064	9.12
209.284	-11.5
209.504	-29.51
209.724	-45.61
209.944	-52.81
210.164	-55.68
210.384	-76.25
210.604	-128.38
210.823	-143.66
211.043	-93.97
211.263	-188.24
211.483	-121.74
211.703	-71.79
211.922	-110.55
212.142	-103.09
212.362	-56.05
212.582	-39.98
212.801	-43.2
213.021	-15.29
213.241	-48.23
213.461	-47.13
213.68	-33.66
213.9	-33.46
214.12	-40.97
214.339	-27.85
214.559	-23.45
214.779	-45.23
214.998	-19.18
215.218	-2.08
215.438	-2.73
215.657	-18.48
215.877	-14.35
216.096	-15.59
216.316	-17.95
216.535	-35.31
216.755	-24.73
216.974	-38.47
217.194	-59.55
217.413	-52
217.633	-52.76
217.852	-50.41
218.072	-33.55
218.291	-25.45
218.511	-38.22
218.73	-34.98
218.95	-57.91
219.169	-76.32
219.389	-71.67
219.608	-71.65
219.827	-45.55
220.047	-24.29
220.266	-42.74
220.485	-71.68
220.705	-58.47
220.924	-78.19
221.143	-24.71
221.363	1.59
221.582	13.75
221.801	14.83
222.021	5.33
222.24	-12.61
222.459	-17.44
222.678	8.51
222.897	1.22
223.117	28.22
223.336	38.97
223.555	42.77
223.774	23.31
223.993	38.24
224.213	39.83
224.432	13.26
224.651	14.69
224.87	9.82
225.089	-4.72
225.308	-12.05
225.527	-13.88
225.746	-27.68
225.965	-22.44
226.184	-28.42
226.404	-29.8
226.623	-20.86
226.842	-17.95
227.061	-15.8
227.28	-5.92
227.499	-7.4
227.718	-5.5
227.936	2.43
228.155	-1.82
228.374	3.99
228.593	13.27
228.812	5.76
229.031	5.5
229.25	-2.71
229.469	-6.94
229.688	-18.42
229.907	-11.77
230.125	-23.83
230.344	-12.48
230.563	-15.98
230.782	-11.15
231.001	-10.01
231.22	2.24
231.438	8.13
231.657	15.35
231.876	6.41
232.095	16.62
232.313	6.12
232.532	4.27
232.751	-8.8
232.969	-10.48
233.188	-25.14
233.407	-27.93
233.625	-43.73
233.844	-38.44
234.063	-39.78
234.281	-37.42
234.5	-27.65
234.719	-27.71
234.937	-43.42
235.156	-38.55
235.374	-29.11
235.593	-16.11
235.811	0.66
236.03	8.38
236.249	12.77
236.467	6.48
236.686	-11.2
236.904	-3.06
237.123	-3.81
237.341	-17.54
237.559	-22.55
237.778	6.53
237.996	-40.73
238.215	-114.02
238.433	-160.67
238.652	-72.24
238.87	-104.19
239.088	-85.19
239.307	-39.54
239.525	-14.99
239.743	-30.88
239.962	-54.62
240.18	-20.89
240.398	-8.76
240.617	-22.89
240.835	-6.25
241.053	11.57
241.271	0.05
241.49	3.52
241.708	-3.15
241.926	-6.11
242.144	1.51
242.363	-15.54
242.581	-99.38
242.799	-97.71
243.017	-60.03
243.235	-43.09
243.453	-61.37
243.672	-24.88
243.89	-16.52
244.108	-17.11
244.326	-5.53
244.544	5.8
244.762	6.11
244.98	5.37
245.198	3.08
245.416	-2.47
245.634	-0.12
245.852	-24.91
246.07	-10.24
246.288	-10.65
246.506	-26.76
246.724	-30.32
246.942	-22.16
247.16	-10.72
247.378	-38.33
247.596	-14.41
247.814	-34.78
248.032	-14.78
248.25	-16.81
248.468	-4.38
248.685	-11.6
248.903	-10.07
249.121	-3.25
249.339	-13.04
249.557	1.37
249.775	7.16
249.992	7.22
250.21	-14.94
250.428	-2.94
250.646	-8.05
250.863	-6.09
251.081	-8.61
251.299	9.46
251.517	0.05
251.734	-1.88
251.952	-14.94
252.17	-17.5
252.387	-36.72
252.605	-27.81
252.823	-43.68
253.04	-3.87
253.258	-0.44
253.475	18.96
253.693	8.23
253.911	-2.08
254.128	-21.02
254.346	-9.92
254.563	-3.7
254.781	1.34
254.998	16.58
255.216	8.14
255.433	-36.48
255.651	-33.01
255.868	-51.88
256.086	-49.74
256.303	-33.34
256.521	-5.17
256.738	-20.68
256.956	-5.18
257.173	-9.09
257.39	-9.69
257.608	-17.61
257.825	-21.89
258.043	-18.38
258.26	-21.5
258.477	-17.37
258.695	-19.99
258.912	-29.94
259.129	-46.08
259.346	-59.26
259.564	-84.81
259.781	-83.53
259.998	-40.16
260.216	-33.28
260.433	-25.37
260.65	-27.77
260.867	-32.88
261.084	-36.74
261.302	-37.06
261.519	-25.5
261.736	-11.24
261.953	-16.9
262.17	-17.65
262.387	-11.56
262.604	-19.55
262.822	-17.58
263.039	-1.86
263.256	-2.62
263.473	-13.26
263.69	-3.47
263.907	-15.13
264.124	-20.93
264.341	-18.08
264.558	-13.68
264.775	-25.04
264.992	-9.97
265.209	-29.58
265.426	-37.39
265.643	-19.54
265.86	-25.26
266.077	-18.31
266.294	-2.84
266.51	-1.4
266.727	-16.29
266.944	-2.45
267.161	1.98
267.378	2.72
267.595	-10.15
267.812	-13.81
268.028	-38.9
268.245	-45.68
268.462	-39.43
268.679	-35.59
268.896	-23.94
269.112	-24.09
269.329	-53.18
269.546	-36.85
269.763	-13.07
269.979	-24.37
270.196	-3.97
270.413	16.39
270.629	-6.48
270.846	-20.32
271.063	-0.89
271.279	1.73
271.496	-11.81
271.712	-7.12
271.929	-6.8
272.146	-12.47
272.362	-27.87
272.579	-35.39
272.795	-53.71
273.012	-58.4
273.228	-60.59
273.445	-53.78
273.661	-53.14
273.878	-47.85
274.094	-42.48
274.311	-42.46
274.527	-74.98
274.744	-45.33
274.96	-24.71
275.177	-11.94
275.393	1.44
275.609	19
275.826	3.2
276.042	-9.25
276.259	-16.61
276.475	-30.89
276.691	-50.98
276.908	-44.36
277.124	-27.68
277.34	-35.24
277.557	-51.16
277.773	-48.7
277.989	-48.95
278.205	-47.86
278.422	-47.37
278.638	-43.01
278.854	-48.85
279.07	-28.46
279.286	-41.41
279.503	-24.56
279.719	-4.4
279.935	-4.71
280.151	-16.7
280.367	-3.64
280.583	-12.32
280.799	-27.08
281.016	-58.17
281.232	-48.92
281.448	-42.27
281.664	-33.45
281.88	-21.4
282.096	7.89
282.312	8.34
282.528	3.41
282.744	3.9
282.96	-16.94
283.176	-35.66
283.392	-83.85
283.608	-54.26
283.824	-72.96
284.04	-88.04
284.256	-32.88
284.471	-8.74
284.687	-16.68
284.903	-16.77
285.119	6.49
285.335	7.28
285.551	-2.04
285.767	-12.8
285.982	-2.74
286.198	-20.49
286.414	-48.1
286.63	-51.25
286.846	-41.6
287.061	-41.99
287.277	-31.34
287.493	-30.55
287.709	-14
287.924	-17.37
288.14	3.05
288.356	13.33
288.571	12.06
288.787	-7.89
289.003	5.22
289.218	-24.29
289.434	-48.2
289.65	-21.4
289.865	4.39
290.081	6.21
290.296	16.92
290.512	13.27
290.727	-2.36
290.943	-5.91
291.159	-3.37
291.374	-28.9
291.59	-13.62
291.805	-22
292.021	-22.6
292.236	-41.06
292.451	-28.41
292.667	-41.15
292.882	-18.86
293.098	-31.83
293.313	-11.07
293.529	-10.48
293.744	-14.39
293.959	-32.25
294.175	-25.86
294.39	-59.59
294.605	-25.42
294.821	-20.31
295.036	-13.23
295.251	-9.04
295.467	-2.39
295.682	-3.14
295.897	-8.89
296.112	0.04
296.328	7.9
296.543	13.15
296.758	-6.21
296.973	8.01
297.188	5.68
297.404	-12.75
297.619	-51.67
297.834	-42.48
298.049	-77.64
298.264	-58.92
298.479	-59.54
298.694	-3.4
298.909	-10.05
299.125	-6.26
299.34	-21.78
299.555	-19.42
299.77	-9.93
299.985	1.53
300.2	6.85
300.415	11.84
300.63	6.39
300.845	-14.25
301.06	-34.51
301.275	-30.29
301.49	-29.46
301.704	-22.17
301.919	-31.18
302.134	-14.39
302.349	-18.7
302.564	-26
302.779	-45.99
302.994	-22.66
303.209	-6.66
303.423	-0.13
303.638	10.54
303.853	16.51
304.068	-7.67
304.283	-11.98
304.497	-40.08
304.712	-17.91
304.927	-12.32
305.142	1.77
305.356	-0.66
305.571	14.38
305.786	11.85
306	15.83
306.215	4.15
306.43	-2.5
306.644	-9.16
306.859	-26.19
307.074	0.9
307.288	8.12
307.503	19.26
307.717	12.84
307.932	15.77
308.147	-1.18
308.361	0.74
308.576	-24.76
308.79	-22.32
309.005	-41.31
309.219	-10.7
309.434	-18.58
309.648	-13.33
309.863	-11.25
310.077	3.88
310.292	-13.88
310.506	-12.27
310.72	-6.85
310.935	8.28
311.149	-4.92
311.364	-4.7
311.578	-0.3
311.792	0.23
312.007	-18.05
312.221	-30.95
312.435	-15.56
312.649	-6.96
312.864	-2.53
313.078	2.05
313.292	11.49
313.507	9.59
313.721	-7.82
313.935	-21.66
314.149	-16.54
314.363	-5.78
314.578	-0.14
314.792	8.96
315.006	2.19
315.22	-5
315.434	-12.35
315.648	-29.27
315.862	-24.02
316.077	-19.66
316.291	-26.89
316.505	-55.3
316.719	-36.23
316.933	-22.3
317.147	-26.18
317.361	-10.51
317.575	6.4
317.789	-5.04
318.003	-14.94
318.217	1.22
318.431	-14.64
318.645	-18.74
318.859	-9.6
319.073	-6.41
319.287	-6.52
319.5	-4.13
319.714	-12.81
319.928	-16.07
320.142	-23.81
320.356	-19.26
320.57	-41.13
320.784	-23.62
320.997	-42.34
321.211	-17.75
321.425	-56.09
321.639	-31.17
321.853	-22.33
322.066	-15.08
322.28	-40.98
322.494	-19.63
322.707	-14.92
322.921	-32.62
323.135	-30.57
323.349	-24.82
323.562	-24.74
323.776	-26.41
323.989	-2.11
324.203	-13.24
324.417	-8.02
324.63	-12.38
324.844	-27.91
325.057	-63.37
325.271	-43.23
325.485	-37.79
325.698	-22.27
325.912	-0.27
326.125	3.98
326.339	-0.54
326.552	-4.61
326.766	-24.44
326.979	-36.78
327.193	-32.37
327.406	-40.97
327.619	-27.63
327.833	-25.57
328.046	-22.34
328.26	-25.7
328.473	-13.43
328.686	-22.25
328.9	-2.01
329.113	-7.35
329.326	-0.72
329.54	6.35
329.753	16.84
329.966	5.94
330.179	13.54
330.393	8.25
330.606	-3.49
330.819	-26.23
331.032	-32.68
331.246	-30.9
331.459	-28.84
331.672	-18.31
331.885	-3.22
332.098	9.02
332.311	8.93
332.525	12.17
332.738	-0.91
332.951	-30.36
333.164	-25.84
333.377	-26.38
333.59	-45.8
333.803	-42.49
334.016	-9.59
334.229	-18.34
334.442	-22.72
334.655	-18.48
334.868	-23.13
335.081	-22.79
335.294	-32.72
335.507	-26.78
335.72	-24.85
335.933	-19.47
336.146	-21.7
336.359	4.37
336.572	0.46
336.785	5.93
336.997	-14.13
337.21	-22.65
337.423	-64.43
337.636	-74.6
337.849	-70.44
338.062	-45.85
338.274	-32.47
338.487	-28.81
338.7	-20.7
338.913	-9.61
339.125	-17.54
339.338	-33.29
339.551	-36.35
339.763	-35.76
339.976	-36.95
340.189	-38.53
340.402	-18.41
340.614	0.57
340.827	11.4
341.039	2.03
341.252	6.96
341.465	-12.79
341.677	-23.39
341.89	-25.9
342.102	-21.52
342.315	-10.89
342.527	-1.38
342.74	-4.23
342.952	-3.05
343.165	0.78
343.377	1.48
343.59	-3.66
343.802	-13.35
344.015	-3.02
344.227	-3.15
344.44	-22.42
344.652	-20.82
344.864	-10.51
345.077	-17.49
345.289	-10.51
345.502	6.67
345.714	12.82
345.926	15.25
346.139	-0.9
346.351	-13.13
346.563	-9.65
346.775	-18.35
346.988	-1.25
347.2	-2.58
347.412	14.62
347.624	3.74
347.837	10.66
348.049	-14.65
348.261	-25.51
348.473	-44.18
348.685	-48.97
348.897	-68.78
349.11	-51.39
349.322	-30.89
349.534	-32.05
349.746	-24.45
349.958	-19.23
350.17	-14.85
350.382	-9.37
350.594	1.57
350.806	16.25
351.018	15.52
351.23	14.23
351.442	12.39
351.654	8.6
351.866	-14.83
352.078	-24.25
352.29	-32.7
352.502	-36.5
352.714	-51.94
352.926	-36.11
353.138	-25.9
353.35	-31.48
353.561	-24.38
353.773	-25.47
353.985	-21.18
354.197	-11.78
354.409	-0.63
354.621	-29.34
354.832	-28.94
355.044	-43.09
355.256	-50.22
355.468	-60.64
355.679	-12.88
355.891	-6.53
356.103	-9.8
356.314	-25.06
356.526	-41.94
356.738	-65.96
356.949	-67.66
357.161	-54.86
357.373	-30.15
357.584	-15.94
357.796	-8.7
358.008	-5.75
358.219	-3.35
358.431	-15.77
358.642	-4.13
358.854	9.89
359.065	0.03
359.277	-1.31
359.488	-2.52
359.7	-13.29
359.911	-31.16
360.123	-9.31
360.334	-25.44
360.546	-11.99
360.757	-2.12
360.969	0.03
361.18	-18.48
361.391	4.28
361.603	2.78
361.814	-2.67
362.025	0.64
362.237	8.48
362.448	2.82
362.659	-3.98
362.871	-23.6
363.082	-17.96
363.293	-34.07
363.504	-50.66
363.716	-55.38
363.927	-13.61
364.138	-43.29
364.349	-53.51
364.56	-62.54
364.772	-55.38
364.983	-64.28
365.194	-47.84
365.405	-38.66
365.616	-12.88
365.827	-23.18
366.038	-17.84
366.25	-11.39
366.461	-2.49
366.672	-4.42
366.883	0.79
367.094	-6.34
367.305	-13.49
367.516	-20.38
367.727	-28.21
367.938	-32.85
368.149	-40.98
368.36	-39.08
368.571	-58.09
368.781	-78.04
368.992	-57.73
369.203	-50.72
369.414	-55.6
369.625	-40.14
369.836	4.63
370.047	-0.95
370.258	4.17
370.468	2.8
370.679	1.85
370.89	-32.35
371.101	-11.43
371.312	-24.7
371.522	-9.37
371.733	-13.33
371.944	-20.66
372.155	-28.12
372.365	-11.39
372.576	-9
372.787	-6.23
372.997	-2.32
373.208	-4.83
373.419	-11.4
373.629	-26.1
373.84	-23.62
374.05	-22.95
374.261	-33.34
374.472	-16.55
374.682	-7.69
374.893	-20.62
375.103	-4.06
375.314	2.04
375.524	-1.92
375.735	2.14
375.945	10.11
376.156	-4.22
376.366	-6.67
376.577	-8.27
376.787	-15.18
376.997	-3.51
377.208	1.09
377.418	2.73
377.629	5.41
377.839	6.74
378.049	-0.16
378.26	-0.9
378.47	-5.65
378.68	-9.98
378.89	-9.47
379.101	-16.87
379.311	-17.88
379.521	-20.64
379.732	-14.34
379.942	-7.71
380.152	-2.92
380.362	-1.15
380.572	13.07
380.783	15.88
380.993	8.55
381.203	9.27
381.413	6.87
381.623	1.35
381.833	-2.96
382.043	1.15
382.253	4.18
382.463	14.92
382.674	19.57
382.884	15.25
383.094	8.39
383.304	6.49
383.514	-4.19
383.724	-15.55
383.934	-16.22
384.144	-11.17
384.353	-10.06
384.563	-8.9
384.773	0.99
384.983	-1.39
385.193	-5.8
385.403	-6.69
385.613	-4.17
385.823	-7.13
386.033	-7.16
386.242	-8.55
386.452	-15.26
386.662	-17.15
386.872	-14.27
387.082	-16.53
387.291	-15.04
387.501	-6.25
387.711	-6.21
387.921	-9.89
388.13	-3.77
388.34	-2.46
388.55	-8.3
388.759	-10.01
388.969	-7.15
389.179	-8.14
389.388	-10.42
389.598	-9.4
389.807	-10.93
390.017	-12.25
390.227	-12.62
390.436	-7.3
390.646	-6.83
390.855	-1.18
391.065	-0.38
391.274	-1.33
391.484	-2.06
391.693	-2.27
391.903	-3.9
392.112	-3.2
392.322	-3.19
392.531	-4.22
392.74	-6.03
392.95	-4.43
393.159	-3.82
393.369	-1.69
393.578	-0.92
393.787	0.74
393.997	1.19
394.206	0.39
394.415	1.14
394.625	1.94
394.834	2.55
395.043	0.74
395.252	3.45
395.462	3.45
395.671	2.82
395.88	4.19
396.089	5.58
396.298	4.3
396.508	4.31
396.717	4.61
396.926	4.01
397.135	3.84
397.344	3.61
397.553	3.47
397.762	4.68
397.971	3.89
398.181	4.14
398.39	3.88
398.599	3.91
398.808	3.54
399.017	4.65
399.226	4.76
399.435	5.03
399.644	4.85
399.853	4.72
400.062	4.22
400.27	3.82
400.479	4.11
400.688	4.39
400.897	4.22
401.106	4.37
401.315	4.38
401.524	4.33
401.733	3.97
401.941	4.39
402.15	4.01
402.359	4.24
402.568	4.36
402.777	4.47
402.985	3.99
403.194	4.23
403.403	4.15
403.612	3.93
403.82	3.7
404.029	3.91
404.238	3.87
404.446	3.87
404.655	3.89
404.864	4
405.072	3.88
405.281	3.85
405.489	3.89
405.698	3.99
405.906	4.07
406.115	3.97
406.324	4.14
406.532	4.24
406.741	4.07
406.949	4.13
407.158	4.34
407.366	4.19
407.574	4.1
407.783	4.16
407.991	4.02
408.2	4.08
408.408	4.17
408.617	4.05
408.825	4.02
409.033	4.06
409.242	3.89
409.45	3.82
409.658	3.86
409.867	3.9
410.075	3.99
410.283	4.02
410.491	3.92
410.7	3.84
410.908	3.97
411.116	3.91
411.324	3.92
411.533	3.93
411.741	4
411.949	3.91
412.157	3.88
412.365	3.95
412.573	3.89
412.781	3.93
412.99	3.82
413.198	3.83
413.406	3.9
413.614	4.12
413.822	4.18
414.03	4.28
414.238	4.32
414.446	4.25
414.654	4.12
414.862	4
415.07	3.85
415.278	3.83
415.486	3.67
415.694	3.77
415.902	3.68
416.109	3.72
416.317	3.69
416.525	3.6
416.733	3.44
416.941	3.5
417.149	3.52
417.357	3.61
417.564	3.76
417.772	3.9
417.98	3.99
418.188	3.85
418.395	3.56
418.603	3.39
418.811	3.23
419.019	3.18
419.226	3.28
419.434	3.56
419.642	3.56
419.849	3.6
420.057	3.56
420.265	3.59
420.472	3.52
420.68	3.71
420.887	3.74
421.095	3.73
421.302	3.73
421.51	3.66
421.717	3.74
421.925	3.67
422.132	3.77
422.34	3.64
422.547	3.5
422.755	3.37
422.962	3.39
423.17	3.17
423.377	3.21
423.585	3.4
423.792	3.3
423.999	3.35
424.207	3.27
424.414	3.36
424.621	3.38
424.829	3.57
425.036	3.52
425.243	3.66
425.451	3.54
425.658	3.53
425.865	3.37
426.072	3.28
426.28	3.37
426.487	3.46
426.694	3.21
426.901	3.2
427.108	3.17
427.315	3.02
427.523	2.88
427.73	3.12
427.937	2.98
428.144	3.06
428.351	3.05
428.558	3.14
428.765	2.91
428.972	3.09
429.179	3.01
429.386	3.07
429.593	3.05
429.8	3.14
430.007	3.12
430.214	3.24
430.421	3.27
430.628	3.31
430.835	3.33
431.042	3.3
431.249	3.28
431.456	3.27
431.662	3.32
431.869	3.44
432.076	3.4
432.283	3.53
432.49	3.58
432.697	3.59
432.903	3.55
433.11	3.71
433.317	3.64
433.524	3.58
433.73	3.45
433.937	3.47
434.144	3.35
434.35	3.24
434.557	3.41
434.764	3.56
434.97	3.42
435.177	3.52
435.384	3.67
435.59	3.61
435.797	3.51
436.003	3.54
436.21	3.47
436.416	3.43
436.623	3.33
436.829	3.38
437.036	3.45
437.242	3.48
437.449	3.49
437.655	3.57
437.862	3.61
438.068	3.54
438.275	3.58
438.481	3.65
438.687	3.53
438.894	3.63
439.1	3.68
439.307	3.67
439.513	3.67
439.719	3.81
439.926	3.71
440.132	3.84
440.338	3.79
440.544	3.68
440.751	3.59
440.957	3.66
441.163	3.5
441.369	3.55
441.575	3.55
441.782	3.61
441.988	3.63
442.194	3.63
442.4	3.58
442.606	3.74
442.812	3.75
443.018	3.66
443.224	3.8
443.431	3.83
443.637	3.77
443.843	3.76
444.049	3.88
444.255	3.86
444.461	3.87
444.667	3.82
444.873	3.77
445.079	3.67
445.284	3.64
445.49	3.63
445.696	3.62
445.902	3.61
446.108	3.6
446.314	3.6
446.52	3.73
446.726	3.76
446.931	3.73
447.137	3.75
447.343	3.78
447.549	3.74
447.755	3.68
447.96	3.83
448.166	3.79
448.372	3.75
448.578	3.69
448.783	3.67
448.989	3.7
449.195	3.68
449.4	3.77
449.606	3.81
449.812	3.91
450.017	3.74
450.223	3.8
450.428	3.71
450.634	3.73
450.84	3.62
451.045	3.72
451.251	3.77
451.456	3.81
451.662	3.83
451.867	3.94
452.073	3.99
452.278	3.96
452.483	3.98
452.689	3.93
452.894	3.9
453.1	3.79
453.305	3.82
453.51	3.8
453.716	3.78
453.921	3.79
454.127	3.76
454.332	3.68
454.537	3.66
454.742	3.66
454.948	3.71
455.153	3.81
455.358	3.86
455.563	3.95
455.769	3.97
455.974	3.93
456.179	3.89
456.384	3.84
456.589	3.77
456.795	3.73
457	3.74
457.205	3.74
457.41	3.69
457.615	3.63
457.82	3.74
458.025	3.64
458.23	3.64
458.435	3.65
458.64	3.69
458.845	3.63
459.05	3.73
459.255	3.65
459.46	3.6
459.665	3.57
459.87	3.5
460.075	3.47
460.28	3.54
460.485	3.63
460.69	3.61
460.895	3.71
461.099	3.66
461.304	3.58
461.509	3.61
461.714	3.68
461.919	3.61
462.123	3.58
462.328	3.48
462.533	3.4
462.738	3.34
462.942	3.33
463.147	3.41
463.352	3.52
463.556	3.59
463.761	3.59
463.966	3.6
464.17	3.73
464.375	3.84
464.58	3.78
464.784	3.83
464.989	3.9
465.193	3.72
465.398	3.6
465.602	3.78
465.807	3.83
466.011	3.77
466.216	3.73
466.42	3.79
466.625	3.72
466.829	3.61
467.034	3.76
467.238	3.82
467.443	3.81
467.647	3.81
467.851	3.97
468.056	3.87
468.26	3.98
468.464	4.07
468.669	4.1
468.873	4.01
469.077	4.02
469.282	3.99
469.486	3.93
469.69	3.89
469.894	3.95
470.099	3.93
470.303	3.96
470.507	4.03
470.711	4.04
470.915	4.02
471.119	4.1
471.324	4.08
471.528	4.11
471.732	4.13
471.936	4.16
472.14	4.17
472.344	4.24
472.548	4.24
472.752	4.25
472.956	4.29
473.16	4.21
473.364	4.16
473.568	3.98
473.772	3.94
473.976	3.96
474.18	4.03
474.384	4.03
474.588	4.17
474.792	4.16
474.995	4.13
475.199	4.11
475.403	4.18
475.607	4.22
475.811	4.26
476.015	4.27
476.218	4.25
476.422	4.16
476.626	4.2
476.83	4.29
477.033	4.38
477.237	4.44
477.441	4.5
477.644	4.42
477.848	4.46
478.052	4.39
478.255	4.43
478.459	4.47
478.663	4.65
478.866	4.6
479.07	4.59
479.273	4.6
479.477	4.64
479.681	4.57
479.884	4.5
480.088	4.59
480.291	4.55
480.495	4.55
480.698	4.53
480.901	4.63
481.105	4.59
481.308	4.64
481.512	4.63
481.715	4.66
481.919	4.74
482.122	4.72
482.325	4.8
482.529	4.82
482.732	4.82
482.935	4.75
483.138	4.77
483.342	4.79
483.545	4.86
483.748	4.89
483.952	4.95
484.155	5.11
484.358	5.08
484.561	5.05
484.764	5.02
484.967	4.96
485.171	4.85
485.374	4.82
485.577	4.79
485.78	4.81
485.983	4.83
486.186	4.81
486.389	4.87
486.592	4.84
486.795	4.85
486.998	4.84
487.201	4.87
487.404	4.91
487.607	4.98
487.81	4.97
488.013	5
488.216	5.03
488.419	4.92
488.622	4.88
488.825	4.91
489.028	4.99
489.231	4.97
489.433	5.08
489.636	5.09
489.839	5.23
490.042	5.23
490.245	5.24
490.447	5.2
490.65	5.24
490.853	5.21
491.056	5.19
491.258	5.27
491.461	5.32
491.664	5.34
491.866	5.27
492.069	5.38
492.272	5.39
492.474	5.47
492.677	5.56
492.879	5.64
493.082	5.65
493.285	5.72
493.487	5.7
493.69	5.68
493.892	5.7
494.095	5.74
494.297	5.72
494.5	5.82
494.702	5.91
494.905	6.02
495.107	6.03
495.309	6.13
495.512	6.13
495.714	6.2
495.917	6.23
496.119	6.27
496.321	6.3
496.524	6.32
496.726	6.36
496.928	6.34
497.13	6.39
497.333	6.36
497.535	6.45
497.737	6.49
497.939	6.54
498.142	6.54
498.344	6.66
498.546	6.63
498.748	6.7
498.95	6.75
499.152	6.84
499.355	6.84
499.557	6.96
499.759	7.04
499.961	7.11
500.163	7.15
500.365	7.25
500.567	7.27
500.769	7.27
500.971	7.29
501.173	7.33
501.375	7.43
501.577	7.39
501.779	7.37
501.981	7.36
502.183	7.37
502.385	7.33
502.587	7.42
502.788	7.5
502.99	7.55
503.192	7.63
503.394	7.59
503.596	7.59
503.798	7.53
503.999	7.55
504.201	7.53
504.403	7.52
504.605	7.55
504.806	7.63
505.008	7.63
505.21	7.61
505.411	7.66
505.613	7.69
505.815	7.66
506.016	7.69
506.218	7.74
506.42	7.77
506.621	7.82
506.823	7.85
507.024	7.84
507.226	7.86
507.427	7.91
507.629	7.92
507.83	7.89
508.032	7.87
508.233	7.85
508.435	7.77
508.636	7.75
508.838	7.78
509.039	7.84
509.24	7.87
509.442	7.94
509.643	7.93
509.845	7.9
510.046	7.91
510.247	7.89
510.448	7.84
510.65	7.81
510.851	7.89
511.052	7.88
511.254	7.92
511.455	7.97
511.656	8
511.857	7.99
512.058	8.04
512.26	8.01
512.461	8.04
512.662	8.04
512.863	7.95
513.064	7.89
513.265	7.89
513.466	7.9
513.667	7.97
513.868	8
514.069	8.02
514.27	8.06
514.471	7.97
514.672	7.99
514.873	7.98
515.074	8.04
515.275	8
515.476	8.09
515.677	8.08
515.878	8.17
516.079	8.13
516.28	8.17
516.481	8.12
516.682	8.1
516.882	8.06
517.083	8.04
517.284	8.07
517.485	8.02
517.686	8.07
517.886	8.08
518.087	8.06
518.288	8.03
518.488	8.04
518.689	7.94
518.89	7.95
519.091	8.05
519.291	8.04
519.492	8.07
519.692	8.14
519.893	8.23
520.094	8.17
520.294	8.18
520.495	8.2
520.695	8.23
520.896	8.22
521.096	8.24
521.297	8.27
521.497	8.26
521.698	8.25
521.898	8.18
522.099	8.15
522.299	8.13
522.499	8.15
522.7	8.19
522.9	8.18
523.101	8.15
523.301	8.22
523.501	8.25
523.702	8.23
523.902	8.26
524.102	8.42
524.302	8.38
524.503	8.39
524.703	8.38
524.903	8.39
525.103	8.28
525.304	8.27
525.504	8.33
525.704	8.4
525.904	8.35
526.104	8.41
526.304	8.47
526.504	8.41
526.705	8.41
526.905	8.46
527.105	8.44
527.305	8.38
527.505	8.33
527.705	8.26
527.905	8.29
528.105	8.31
528.305	8.33
528.505	8.4
528.705	8.52
528.905	8.56
529.105	8.57
529.304	8.57
529.504	8.59
529.704	8.49
529.904	8.52
530.104	8.53
530.304	8.63
530.503	8.63
530.703	8.67
530.903	8.68
531.103	8.75
531.303	8.75
531.502	8.79
531.702	8.84
531.902	8.86
532.101	8.82
532.301	8.87
532.501	8.92
532.7	8.93
532.9	8.98
533.1	9.03
533.299	9.03
533.499	8.97
533.698	8.97
533.898	9.02
534.097	9.01
534.297	8.99
534.496	9
534.696	8.99
534.895	8.95
535.095	8.97
535.294	9.01
535.494	9.02
535.693	9.16
535.892	9.21
536.092	9.22
536.291	9.22
536.491	9.27
536.69	9.25
536.889	9.2
537.088	9.24
537.288	9.26
537.487	9.31
537.686	9.3
537.886	9.36
538.085	9.38
538.284	9.43
538.483	9.44
538.682	9.41
538.882	9.44
539.081	9.46
539.28	9.47
539.479	9.49
539.678	9.55
539.877	9.58
540.076	9.61
540.275	9.67
540.474	9.6
540.673	9.66
540.872	9.67
541.071	9.69
541.27	9.65
541.469	9.77
541.668	9.79
541.867	9.83
542.066	9.88
542.265	9.95
542.464	10.03
542.663	10.15
542.862	10.28
543.06	10.34
543.259	10.43
543.458	10.45
543.657	10.41
543.856	10.43
544.054	10.46
544.253	10.48
544.452	10.52
544.651	10.6
544.849	10.53
545.048	10.61
545.247	10.66
545.445	10.63
545.644	10.65
545.843	10.72
546.041	10.71
546.24	10.7
546.438	10.82
546.637	10.91
546.836	10.98
547.034	11.02
547.233	11.07
547.431	11.12
547.63	11.12
547.828	11.1
548.027	11.21
548.225	11.31
548.423	11.31
548.622	11.41
548.82	11.52
549.019	11.53
549.217	11.58
549.415	11.63
549.614	11.73
549.812	11.81
550.01	11.82
550.209	11.91
550.407	11.97
550.605	11.88
550.803	11.94
551.002	12.06
551.2	12.05
551.398	12.19
551.596	12.32
551.794	12.37
551.993	12.52
552.191	12.65
552.389	12.68
552.587	12.82
552.785	12.86
552.983	12.82
553.181	12.81
553.379	12.86
553.577	12.85
553.775	13.02
553.973	13.15
554.171	13.31
554.369	13.44
554.567	13.6
554.765	13.61
554.963	13.69
555.161	13.7
555.359	13.77
555.557	13.81
555.755	13.96
555.952	14.02
556.15	14.16
556.348	14.2
556.546	14.38
556.744	14.39
556.941	14.4
557.139	14.47
557.337	14.69
557.535	14.69
557.732	14.8
557.93	15.01
558.128	15.1
558.325	15.12
558.523	15.27
558.721	15.35
558.918	15.44
559.116	15.61
559.313	15.75
559.511	15.85
559.708	16.02
559.906	16.12
560.104	16.12
560.301	16.19
560.498	16.25
560.696	16.32
560.893	16.45
561.091	16.55
561.288	16.7
561.486	16.75
561.683	16.8
561.88	16.89
562.078	17.04
562.275	17.08
562.473	17.21
562.67	17.34
562.867	17.42
563.064	17.47
563.262	17.55
563.459	17.67
563.656	17.84
563.853	17.83
564.051	18.04
564.248	18.28
564.445	18.39
564.642	18.46
564.839	18.71
565.036	18.76
565.234	18.77
565.431	18.91
565.628	19
565.825	19.08
566.022	19.22
566.219	19.23
566.416	19.26
566.613	19.43
566.81	19.56
567.007	19.61
567.204	19.82
567.401	19.93
567.598	19.97
567.795	20.03
567.991	20.09
568.188	20.17
568.385	20.24
568.582	20.33
568.779	20.4
568.976	20.48
569.172	20.57
569.369	20.73
569.566	20.81
569.763	20.84
569.96	20.99
570.156	21.04
570.353	21.07
570.55	21.14
570.746	21.33
570.943	21.38
571.14	21.44
571.336	21.5
571.533	21.61
571.729	21.63
571.926	21.7
572.123	21.78
572.319	21.87
572.516	21.88
572.712	21.88
572.909	21.87
573.105	21.92
573.302	21.96
573.498	21.93
573.695	22
573.891	22.12
574.087	22.08
574.284	22.1
574.48	22.16
574.677	22.1
574.873	22.08
575.069	22.23
575.266	22.35
575.462	22.33
575.658	22.52
575.854	22.58
576.051	22.53
576.247	22.39
576.443	22.47
576.639	22.4
576.835	22.33
577.032	22.29
577.228	22.34
577.424	22.38
577.62	22.4
577.816	22.34
578.012	22.33
578.208	22.34
578.404	22.29
578.6	22.29
578.796	22.44
578.993	22.46
579.189	22.41
579.384	22.4
579.58	22.31
579.776	22.27
579.972	22.23
580.168	22.27
580.364	22.25
580.56	22.26
580.756	22.24
580.952	22.24
581.148	22.2
581.343	22.25
581.539	22.32
581.735	22.31
581.931	22.27
582.127	22.25
582.322	22.1
582.518	22.09
582.714	22
582.909	22.08
583.105	22.07
583.301	22.09
583.496	21.97
583.692	21.94
583.888	21.8
584.083	21.79
584.279	21.78
584.474	21.81
584.67	21.83
584.866	21.85
585.061	21.85
585.257	21.85
585.452	21.78
585.648	21.73
585.843	21.77
586.039	21.75
586.234	21.79
586.429	21.87
586.625	21.97
586.82	22.03
587.015	22.09
587.211	22.07
587.406	22.08
587.601	22.06
587.797	21.99
587.992	21.89
588.187	21.85
588.383	21.91
588.578	21.97
588.773	21.94
588.968	22.02
589.163	22.11
589.359	22.08
589.554	21.98
589.749	22.01
589.944	22.09
590.139	22.09
590.334	22.22
590.529	22.26
590.724	22.36
590.919	22.33
591.114	22.35
591.309	22.28
591.504	22.32
591.699	22.36
591.894	22.32
592.089	22.34
592.284	22.41
592.479	22.42
592.674	22.44
592.869	22.5
593.064	22.59
593.259	22.6
593.454	22.66
593.648	22.7
593.843	22.73
594.038	22.82
594.233	22.89
594.428	23.11
594.622	23.22
594.817	23.46
595.012	23.42
595.206	23.53
595.401	23.53
595.596	23.53
595.79	23.49
595.985	23.58
596.18	23.58
596.374	23.74
596.569	23.8
596.763	23.89
596.958	23.96
597.153	23.99
597.347	23.93
597.542	24.03
597.736	24.02
597.931	24.13
598.125	24.31
598.319	24.39
598.514	24.44
598.708	24.56
598.903	24.63
599.097	24.67
599.291	24.72
599.486	24.8
599.68	24.89
599.874	25.01
600.069	25.09
600.263	25.2
600.457	25.29
600.651	25.32
600.846	25.3
601.04	25.34
601.234	25.29
601.428	25.27
601.622	25.31
601.817	25.32
602.011	25.26
602.205	25.31
602.399	25.26
602.593	25.25
602.787	25.21
602.981	25.27
603.175	25.32
603.369	25.35
603.563	25.4
603.757	25.48
603.951	25.49
604.145	25.4
604.339	25.5
604.533	25.41
604.727	25.41
604.921	25.39
605.115	25.42
605.309	25.27
605.502	25.33
605.696	25.29
605.89	25.24
606.084	25.23
606.278	25.28
606.471	25.15
606.665	25.1
606.859	25.07
607.053	24.97
607.246	24.89
607.44	24.83
607.634	24.74
607.827	24.64
608.021	24.54
608.214	24.36
608.408	24.37
608.602	24.28
608.795	24.22
608.989	24.3
609.182	24.37
609.376	24.29
609.569	24.24
609.763	24.16
609.956	24.03
610.15	23.96
610.343	23.92
610.537	23.85
610.73	23.72
610.923	23.65
611.117	23.58
611.31	23.41
611.504	23.35
611.697	23.39
611.89	23.33
612.083	23.13
612.277	23.11
612.47	23.04
612.663	22.92
612.856	22.79
613.05	22.8
613.243	22.61
613.436	22.52
613.629	22.39
613.822	22.4
614.015	22.25
614.209	22.22
614.402	22.04
614.595	22.1
614.788	21.9
614.981	21.86
615.174	21.8
615.367	21.78
615.56	21.56
615.753	21.65
615.946	21.56
616.139	21.54
616.332	21.5
616.525	21.48
616.718	21.35
616.911	21.34
617.103	21.27
617.296	21.25
617.489	21.13
617.682	21.08
617.875	20.99
618.067	20.95
618.26	20.9
618.453	20.89
618.646	20.86
618.838	20.75
619.031	20.68
619.224	20.52
619.417	20.56
619.609	20.56
619.802	20.61
619.994	20.62
620.187	20.56
620.38	20.46
620.572	20.33
620.765	20.25
620.957	20.11
621.15	20.14
621.342	20.12
621.535	20.08
621.727	20.06
621.92	20.09
622.112	20.08
622.305	20.02
622.497	20
622.69	19.94
622.882	19.92
623.074	19.92
623.267	19.87
623.459	19.82
623.651	19.82
623.844	19.9
624.036	19.89
624.228	19.9
624.42	19.93
624.613	19.86
624.805	19.75
624.997	19.63
625.189	19.64
625.381	19.54
625.574	19.56
625.766	19.52
625.958	19.58
626.15	19.47
626.342	19.47
626.534	19.48
626.726	19.45
626.918	19.44
627.11	19.43
627.302	19.41
627.494	19.35
627.686	19.25
627.878	19.06
628.07	19.11
628.262	19.11
628.454	19.04
628.646	19.1
628.838	19.19
629.029	19.11
629.221	19.01
629.413	18.95
629.605	18.87
629.797	18.78
629.989	18.76
630.18	18.81
630.372	18.8
630.564	18.73
630.755	18.74
630.947	18.7
631.139	18.55
631.33	18.5
631.522	18.52
631.714	18.41
631.905	18.35
632.097	18.39
632.289	18.41
632.48	18.38
632.672	18.44
632.863	18.36
633.055	18.36
633.246	18.32
633.438	18.27
633.629	18.24
633.821	18.27
634.012	18.27
634.203	18.21
634.395	18.15
634.586	18.19
634.777	18.19
634.969	18.14
635.16	18.16
635.351	18.17
635.543	18.03
635.734	17.94
635.925	17.91
636.117	17.91
636.308	17.97
636.499	18.01
636.69	18.15
636.881	18.13
637.073	18.17
637.264	18.09
637.455	18.06
637.646	18
637.837	18.08
638.028	18.02
638.219	18.12
638.41	18.18
638.601	18.18
638.792	18.19
638.983	18.16
639.174	18.02
639.365	18
639.556	17.89
639.747	17.77
639.938	17.83
640.129	17.77
640.32	17.7
640.511	17.75
640.701	17.75
640.892	17.63
641.083	17.71
641.274	17.67
641.465	17.59
641.655	17.58
641.846	17.62
642.037	17.56
642.228	17.46
642.418	17.42
642.609	17.45
642.8	17.46
642.99	17.37
643.181	17.46
643.372	17.43
643.562	17.44
643.753	17.36
643.943	17.3
644.134	17.23
644.324	17.23
644.515	17.16
644.705	17.09
644.896	17.19
645.086	17.26
645.277	17.23
645.467	17.08
645.658	17
645.848	16.99
646.038	16.89
646.229	16.92
646.419	16.9
646.61	16.99
646.8	16.91
646.99	16.94
647.18	16.93
647.371	16.93
647.561	16.81
647.751	16.8
647.941	16.6
648.132	16.48
648.322	16.43
648.512	16.46
648.702	16.51
648.892	16.63
649.082	16.66
649.272	16.62
649.462	16.63
649.653	16.46
649.843	16.34
650.033	16.35
650.223	16.37
650.413	16.32
650.603	16.4
650.793	16.45
650.983	16.37
651.172	16.35
651.362	16.2
651.552	16.16
651.742	16.04
651.932	15.99
652.122	16.03
652.312	16.01
652.502	15.87
652.691	15.8
652.881	15.75
653.071	15.57
653.261	15.52
653.45	15.49
653.64	15.42
653.83	15.35
654.019	15.24
654.209	15.16
654.399	14.96
654.588	14.84
654.778	14.72
654.968	14.58
655.157	14.48
655.347	14.35
655.536	14.3
655.726	13.97
655.915	13.81
656.105	13.63
656.294	13.49
656.484	13.32
656.673	13.35
656.863	13.28
657.052	13.14
657.241	13.08
657.431	12.88
657.62	12.67
657.809	12.45
657.999	12.34
658.188	12.13
658.377	12.07
658.567	11.96
658.756	11.92
658.945	11.69
659.134	11.58
659.324	11.45
659.513	11.27
659.702	11.08
659.891	11.04
660.08	10.87
660.269	10.61
660.458	10.45
660.648	10.29
660.837	10.12
661.026	9.89
661.215	9.75
661.404	9.66
661.593	9.49
661.782	9.29
661.971	9.04
662.16	9.04
662.349	8.83
662.538	8.74
662.726	8.59
662.915	8.74
663.104	8.53
663.293	8.52
663.482	8.44
663.671	8.39
663.86	8.2
664.048	8.2
664.237	8.07
664.426	8
664.615	7.88
664.803	7.9
664.992	7.66
665.181	7.61
665.369	7.44
665.558	7.38
665.747	7.34
665.935	7.4
666.124	7.36
666.312	7.45
666.501	7.4
666.69	7.33
666.878	7.28
667.067	7.11
667.255	7
667.444	7.02
667.632	7.04
667.82	7.09
668.009	7.1
668.197	7.08
668.386	7.08
668.574	7.06
668.762	6.93
668.951	6.98
669.139	6.98
669.327	6.95
669.516	6.88
669.704	6.9
669.892	7.01
670.08	7.01
670.269	7.03
670.457	7.05
670.645	7.01
670.833	6.91
671.021	6.96
671.21	7.07
671.398	7.07
671.586	7.17
671.774	7.27
671.962	7.36
672.15	7.36
672.338	7.49
672.526	7.55
672.714	7.55
672.902	7.54
673.09	7.66
673.278	7.74
673.466	7.79
673.654	7.81
673.842	7.9
674.03	7.84
674.218	7.87
674.405	7.89
674.593	8.04
674.781	8.16
674.969	8.42
675.157	8.46
675.344	8.6
675.532	8.59
675.72	8.6
675.908	8.45
676.095	8.5
676.283	8.6
676.471	8.69
676.658	8.77
676.846	8.88
677.033	8.92
677.221	8.92
677.409	9.02
677.596	9.06
677.784	9.22
677.971	9.45
678.159	9.57
678.346	9.63
678.534	9.83
678.721	9.94
678.909	10.06
679.096	10.13
679.283	10.33
679.471	10.39
679.658	10.44
679.846	10.41
680.033	10.66
680.22	10.71
680.408	10.67
680.595	10.71
680.782	10.93
680.969	11.13
681.157	11.26
681.344	11.44
681.531	11.64
681.718	11.69
681.905	11.7
682.093	11.89
682.28	12.2
682.467	12.36
682.654	12.54
682.841	12.67
683.028	12.77
683.215	13.01
683.402	13.1
683.589	13.23
683.776	13.4
683.963	13.72
684.15	13.87
684.337	14.25
684.524	14.53
684.711	14.76
684.898	14.88
685.085	14.98
685.271	15.31
685.458	15.45
685.645	15.73
685.832	16.11
686.019	16.36
686.205	16.55
686.392	17.08
686.579	17.33
686.766	17.62
686.952	18.06
687.139	18.48
687.326	18.78
687.512	19.26
687.699	19.7
687.886	20.03
688.072	20.3
688.259	20.7
688.445	21.22
688.632	21.62
688.818	22.07
689.005	22.57
689.191	23.07
689.378	23.42
689.564	24.09
689.751	24.73
689.937	25.47
690.124	26.14
690.31	26.63
690.496	27.2
690.683	27.87
690.869	28.32
691.055	28.86
691.242	29.57
691.428	30.18
691.614	30.78
691.8	31.53
691.987	32.25
692.173	33
692.359	33.53
692.545	34.27
692.731	34.81
692.918	35.24
693.104	35.92
693.29	36.56
693.476	37.26
693.662	38.01
693.848	38.77
694.034	39.46
694.22	40.3
694.406	40.78
694.592	41.74
694.778	42.4
694.964	43.11
695.15	43.84
695.336	44.63
695.522	45.16
695.708	45.98
695.894	46.76
696.08	47.56
696.265	48.41
696.451	49.11
696.637	50.06
696.823	50.84
697.009	51.31
697.194	51.97
697.38	52.73
697.566	53.14
697.751	53.69
697.937	54.64
698.123	55.07
698.308	55.56
698.494	56.22
698.68	56.8
698.865	57.18
699.051	58.02
699.236	58.65
699.422	59.41
699.607	60.1
699.793	60.89
699.978	61.17
700.164	61.77
700.349	62.53
700.535	62.89
700.72	63.23
700.906	64.14
701.091	64.78
701.276	64.75
701.462	65.34
701.647	65.84
701.832	66.37
702.018	66.87
702.203	67.94
702.388	68.15
702.573	68.73
702.759	69.06
702.944	69.07
703.129	69.27
703.314	69.91
703.499	70.03
703.684	70.35
703.87	71.41
704.055	71.63
704.24	72.11
704.425	73
704.61	73.55
704.795	73.8
704.98	74.05
705.165	74.6
705.35	74.71
705.535	74.96
705.72	75.07
705.905	75.62
706.09	76.04
706.275	76.29
706.459	76.71
706.644	77.16
706.829	77.53
707.014	77.67
707.199	78.04
707.384	78.51
707.568	78.51
707.753	79.09
707.938	79.33
708.123	79.81
708.307	79.73
708.492	80.06
708.677	79.7
708.861	79.73
709.046	79.59
709.231	79.7
709.415	80.1
709.6	80.25
709.784	80.56
709.969	81.08
710.153	81.27
710.338	81.71
710.522	82.37
710.707	82.68
710.891	82.67
711.076	82.79
711.26	82.85
711.445	82.83
711.629	82.58
711.813	82.82
711.998	83.25
712.182	82.83
712.366	83.2
712.551	83.54
712.735	83.98
712.919	84.3
713.103	85.27
713.288	85.05
713.472	85.53
713.656	84.99
713.84	84.8
714.024	84.5
714.208	84.92
714.393	85.08
714.577	85.45
714.761	85.79
714.945	86.2
715.129	86.19
715.313	86.05
715.497	86.02
715.681	85.92
715.865	85.74
716.049	86.05
716.233	86.09
716.417	86.69
716.601	87
716.785	87.27
716.968	87.11
717.152	87.34
717.336	87.65
717.52	88.23
717.704	88.39
717.888	88.8
718.071	88.58
718.255	88.39
718.439	87.92
718.622	87.67
718.806	87
718.99	87.31
719.174	87.42
719.357	87.87
719.541	87.99
719.724	88.28
719.908	88.4
720.092	88.13
720.275	88.04
720.459	88.5
720.642	88.95
720.826	88.99
721.009	89.02
721.193	88.41
721.376	88.59
721.559	88.94
721.743	89.59
721.926	90.03
722.11	91.11
722.293	91.46
722.476	91.31
722.66	91.32
722.843	91.15
723.026	91.39
723.21	90.84
723.393	91.39
723.576	91.36
723.759	92.27
723.942	92.13
724.126	92.54
724.309	92.36
724.492	92.27
724.675	92.02
724.858	92.12
725.041	92.06
725.224	92.07
725.407	92.07
725.59	91.81
725.774	91.45
725.957	91.67
726.14	91.84
726.322	91.79
726.505	91.96
726.688	92.06
726.871	91.83
727.054	91.95
727.237	92.54
727.42	92.18
727.603	92.26
727.786	92.69
727.968	92.34
728.151	92.25
728.334	93.36
728.517	93.74
728.699	93.66
728.882	94.2
729.065	94.04
729.248	93.94
729.43	93.83
729.613	94.18
729.796	94.53
729.978	94.64
730.161	94.61
730.343	94.96
730.526	94.96
730.708	94.47
730.891	94.69
731.073	94.73
731.256	95.25
731.438	95.77
731.621	96.25
731.803	96.42
731.986	96.18
732.168	95.64
732.35	95.63
732.533	94.95
732.715	95.34
732.898	95.38
733.08	95.57
733.262	95.22
733.444	96.3
733.627	96.28
733.809	97.64
733.991	98.18
734.173	97.86
734.355	97.83
734.538	98
734.72	97.12
734.902	96.86
735.084	97.55
735.266	98.03
735.448	98.75
735.63	99.68
735.812	99.67
735.994	99.78
736.176	99.35
736.358	98.75
736.54	98.73
736.722	98.35
736.904	98.58
737.086	98.1
737.268	98.98
737.45	99.26
737.632	99.56
737.814	99.35
737.995	99.47
738.177	98.69
738.359	98.39
738.541	98.97
738.723	99.39
738.904	99.26
739.086	99.58
739.268	98.47
739.449	98.61
739.631	98.02
739.813	98.59
739.994	97.93
740.176	98.94
740.358	99.29
740.539	99.25
740.721	99.59
740.902	100.12
741.084	100.5
741.265	100.65
741.447	100.99
741.628	100.98
741.81	100.97
741.991	101.34
742.172	100.71
742.354	100.63
742.535	101.16
742.717	100.03
742.898	99.63
743.079	100.65
743.261	101.17
743.442	99.54
743.623	101.08
743.804	100.61
743.986	100.38
744.167	100.04
744.348	100.69
744.529	99.71
744.71	99.58
744.891	98.52
745.073	99.55
745.254	99.42
745.435	99.82
745.616	99.79
745.797	99.86
745.978	99.59
746.159	100.09
746.34	100.93
746.521	100.77
746.702	102.15
746.883	101.51
747.064	101.42
747.245	102.14
747.426	103.32
747.606	102.63
747.787	102.47
747.968	101.61
748.149	100.08
748.33	98.8
748.51	97.47
748.691	97.72
748.872	99.55
749.053	98.83
749.233	99.13
749.414	100.25
749.595	99.91
749.775	98.7
749.956	99.42
750.137	99.3
750.317	98.47
750.498	98.18
750.678	98.74
750.859	98.95
751.04	99.47
751.22	98.56
751.4	98.36
751.581	98.14
751.761	98.2
751.942	98.63
752.122	99.17
752.303	99.39
752.483	99.18
752.663	98.8
752.844	97.98
753.024	98.77
753.204	99.22
753.385	99.14
753.565	99.53
753.745	98.11
753.925	96.27
754.106	96.3
754.286	95.78
754.466	95.91
754.646	96.95
754.826	99.75
755.006	98.32
755.187	99.74
755.367	99.32
755.547	99.26
755.727	98.58
755.907	98.76
756.087	98.3
756.267	96.5
756.447	96.58
756.627	96.35
756.807	97.31
756.987	96.15
757.167	97.2
757.346	96.7
757.526	96.63
757.706	96.05
757.886	95.79
758.066	97.07
758.246	96.53
758.425	95.66
758.605	95.65
758.785	96.89
758.965	96.89
759.144	96.41
759.324	97.73
759.504	98.88
759.683	98.01
759.863	97.82
760.043	99.5
760.222	98.14
760.402	96.75
760.581	97.02
760.761	95.21
760.94	95.61
761.12	95.75
761.299	97.38
761.479	97.72
761.658	99.18
761.838	98.85
762.017	98.55
762.197	96.32
762.376	95.68
762.555	95.83
762.735	95.67
762.914	96.03
763.093	96.4
763.273	96.66
763.452	94.73
763.631	93.75
763.81	93.77
763.99	94.58
764.169	93.44
764.348	94.3
764.527	93.87
764.706	92.91
764.885	93.66
765.064	95.51
765.243	95.75
765.423	97.41
765.602	98.58
765.781	96.69
765.96	95.66
766.139	94.08
766.318	94.77
766.497	93.3
766.676	92.41
766.854	93.04
767.033	95.24
767.212	95.63
767.391	97.74
767.57	99.56
767.749	98.43
767.928	97.57
768.106	94.71
768.285	92.62
768.464	92.04
768.643	92.81
768.821	93
769	93.59
769.179	93.5
769.357	94.42
769.536	92.71
769.715	90.98
769.893	89.89
770.072	90.35
770.25	88.12
770.429	89.15
770.607	90.85
770.786	90.3
770.964	90.69
771.143	93.46
771.321	92.23
771.5	91.1
771.678	91.72
771.857	89.71
772.035	88.12
772.213	89.24
772.392	87.66
772.57	86.93
772.748	87.12
772.927	87.4
773.105	87.46
773.283	89.27
773.461	91.35
773.64	92.83
773.818	92.49
773.996	92.99
774.174	93.51
774.352	91.63
774.531	90.35
774.709	90.35
774.887	87.07
775.065	86.29
775.243	86.72
775.421	86.97
775.599	87.3
775.777	88.15
775.955	86.93
776.133	87.42
776.311	88.13
776.489	86.68
776.667	87.63
776.844	86.86
777.022	86.77
777.2	86.53
777.378	86.83
777.556	87.3
777.734	90.18
777.911	91.31
778.089	92.78
778.267	93.01
778.445	94.73
778.622	95.14
778.8	91.2
778.978	91.52
779.155	93.8
779.333	91.46
779.511	90.59
779.688	94.17
779.866	91.63
780.043	90.04
780.221	90.91
780.398	88.86
780.576	87.13
780.753	86.95
780.931	88.62
781.108	87.39
781.286	87.74
781.463	86.24
781.64	86.12
781.818	83.22
781.995	83.14
782.172	84.13
782.35	84.39
782.527	84.81
782.704	83.71
782.882	80.08
783.059	78.94
783.236	80.23
783.413	77.07
783.59	76.09
783.768	80.45
783.945	82.06
784.122	80.6
784.299	85.88
784.476	87.11
784.653	86.55
784.83	82.23
785.007	81.63
785.184	78.47
785.361	77.95
785.538	74.85
785.715	78.44
785.892	76.09
786.069	74.15
786.246	75.17
786.423	78.35
786.6	80.15
786.776	84.96
786.953	83.46
787.13	82.21
787.307	80.52
787.484	74.96
787.66	75.2
787.837	78.25
788.014	81.48
788.191	79.94
788.367	79.51
788.544	76.44
788.721	76.77
788.897	74.35
789.074	77.18
789.25	81.07
789.427	80.01
789.603	77.65
789.78	77.98
789.956	75.93
790.133	74.71
790.309	77.81
790.486	78.55
790.662	77.64
790.839	79.18
791.015	78.56
791.192	77.9
791.368	75.66
791.544	75.39
791.721	77.99
791.897	80.17
792.073	77.9
792.249	82.8
792.426	82.67
792.602	81.61
792.778	80.98
792.954	83.47
793.13	77.72
793.307	79.4
793.483	76.58
793.659	75.97
793.835	78.67
794.011	86.06
794.187	82.42
794.363	83.39
794.539	82.52
794.715	79.24
794.891	80.99
795.067	79.46
795.243	80.45
795.419	81.07
795.595	88.44
795.771	82.31
795.947	83.46
796.122	79.18
796.298	77.4
796.474	76.31
796.65	74.9
796.826	74.11
797.001	76.98
797.177	71.59
797.353	65.91
797.529	66.17
797.704	66.2
797.88	64.44
798.056	69.2
798.231	70.69
798.407	71.29
798.582	73.2
798.758	79.63
798.934	80.72
799.109	76.91
799.285	77.94
799.46	73.86
799.636	71.49
799.811	73.11
799.986	75.93
800.162	75.36
800.337	80.79
800.513	77.99
800.688	72.68
800.863	76.9
801.039	77.79
801.214	70.14
801.389	67.04
801.565	71.92
801.74	67.58
801.915	67.53
802.09	70.99
802.265	77.19
802.441	77.45
802.616	77.5
802.791	80.27
802.966	85.2
803.141	81.11
803.316	81.73
803.491	81.39
803.666	74.23
803.841	68.64
804.016	65.47
804.191	65.38
804.366	60.49
804.541	67.83
804.716	67.16
804.891	68.75
805.066	67.8
805.241	62.89
805.416	64.33
805.591	60.96
805.765	61.32
805.94	61.38
806.115	68.45
806.29	64.07
806.464	71.04
806.639	72.32
806.814	72.72
806.989	73.79
807.163	80.94
807.338	78.85
807.512	74.8
807.687	71.59
807.862	71.92
808.036	66.01
808.211	59.4
808.385	62.4
808.56	57.91
808.734	52.65
808.909	53.39
809.083	60.59
809.258	58.86
809.432	63.44
809.606	69.81
809.781	74.42
809.955	71.3
810.13	72.27
810.304	69.89
810.478	64.72
810.652	60.66
810.827	62.98
811.001	64.13
811.175	68.44
811.349	75.54
811.524	78.38
811.698	74.66
811.872	77.2
812.046	74.54
812.22	69.67
812.394	60.6
812.568	61.15
812.742	56.81
812.916	61.6
813.09	59.7
813.264	63.96
813.438	68.95
813.612	68.34
813.786	61.46
813.96	71.24
814.134	67.09
814.308	68.41
814.482	67.18
814.656	64.74
814.83	54.02
815.003	60.87
815.177	56.56
815.351	65.41
815.525	78.38
815.698	76.98
815.872	65.11
816.046	62.12
816.219	60.86
816.393	56.15
816.567	58.64
816.74	63.63
816.914	61.68
817.088	62.39
817.261	56.91
817.435	57.69
817.608	54.69
817.782	53.7
817.955	42.25
818.129	44.58
818.302	44.15
818.475	48.27
818.649	49.16
818.822	50.79
818.996	68.77
819.169	74.97
819.342	75.69
819.516	80.4
819.689	79.67
819.862	67.29
820.035	61.14
820.209	62.59
820.382	53.09
820.555	47.24
820.728	40.1
820.901	33.84
821.075	26.67
821.248	45.31
821.421	52.41
821.594	49.45
821.767	47.51
821.94	44.07
822.113	37.64
822.286	36.92
822.459	43.45
822.632	51.71
822.805	62.2
822.978	58.76
823.151	47.04
823.324	43.98
823.496	38.3
823.669	33.58
823.842	40.68
824.015	48.97
824.188	43.3
824.361	35.36
824.533	33.32
824.706	38.62
824.879	38.12
825.051	49.85
825.224	53.21
825.397	49.18
825.569	36.22
825.742	38.23
825.915	26.9
826.087	25.54
826.26	26.93
826.432	20.74
826.605	17.9
826.777	26.09
826.95	29.02
827.122	22.87
827.295	46.65
827.467	55.84
827.64	38.97
827.812	29.73
827.984	36.48
828.157	16.12
828.329	18.86
828.501	20.75
828.674	39.76
828.846	39.64
829.018	51.05
829.19	42.4
829.363	42.2
829.535	35.75
829.707	24.07
829.879	26.83
830.051	25.71
830.223	36.65
830.395	32.99
830.568	49.83
830.74	39.85
830.912	41.85
831.084	43.05
831.256	34.67
831.428	38.5
831.6	40.19
831.772	36.56
831.943	29.01
832.115	45.64
832.287	25.32
832.459	31.13
832.631	38.81
832.803	51.2
832.975	53.79
833.146	58.16
833.318	55.4
833.49	57.19
833.662	48.78
833.833	34.04
834.005	40.25
834.177	45.52
834.348	37.77
834.52	30.98
834.692	34.05
834.863	25.59
835.035	25.07
835.206	31.88
835.378	36.34
835.549	37.35
835.721	39.87
835.892	37.04
836.064	27.09
836.235	18.91
836.407	15.23
836.578	17.44
836.749	7.22
836.921	6.68
837.092	-2.23
837.264	-10.85
837.435	-22.41
837.606	0.04
837.777	15.02
837.949	29.61
838.12	35.65
838.291	39.16
838.462	47.79
838.633	36.17
838.805	42.25
838.976	47.43
839.147	48.13
839.318	47.17
839.489	30.37
839.66	38.83
839.831	46.15
840.002	33.5
840.173	25.76
840.344	33.7
840.515	9.67
840.686	6.76
840.857	14.18
841.028	18.7
841.199	18.26
841.369	42.95
841.54	15.49
841.711	27.97
841.882	13.61
842.053	16.53
842.223	-21.81
842.394	-1.77
842.565	-15.5
842.736	-11.69
842.906	-29.77
843.077	-5.08
843.248	12.52
843.418	15.54
843.589	5.41
843.759	35.94
843.93	13.29
844.101	-9.05
844.271	-16.73
844.442	-2.4
844.612	5.67
844.783	12.14
844.953	26.26
845.123	11.19
845.294	1.23
845.464	-30.33
845.635	-20.1
845.805	-47.06
845.975	-15.07
846.146	4.66
846.316	4.04
846.486	-6.54
846.656	10.86
846.827	5.08
846.997	21.78
847.167	34.61
847.337	35.32
847.507	22.88
847.677	30.85
847.848	25.48
848.018	14.92
848.188	15.43
848.358	5.64
848.528	9.01
848.698	-0.56
848.868	11.99
849.038	14.25
849.208	33.25
849.378	34.95
849.548	17.24
849.718	-10.88
849.887	-59.14
850.057	-88.14
850.227	-99
850.397	-52.9
850.567	-36.55
850.737	7.74
850.906	1.98
851.076	-5.91
851.246	12.91
851.415	13.37
851.585	-0.74
851.755	18.53
851.924	28.59
852.094	7.65
852.264	15.75
852.433	1.16
852.603	-26.37
852.772	-4.95
852.942	37.2
853.111	14.27
853.281	26.61
853.45	26.33
853.62	1.73
853.789	-32.05
853.959	-6.38
854.128	-6.01
854.297	18.98
854.467	23.22
854.636	50.72
854.805	47.8
854.975	39.68
855.144	17.43
855.313	31.7
855.482	-31.46
855.652	-56.41
855.821	-65.09
855.99	-55.7
856.159	-38.65
856.328	-9.25
856.497	9.08
856.667	19.76
856.836	30.77
857.005	14.45
857.174	19.29
857.343	0.92
857.512	15.6
857.681	-9.1
857.85	-32.7
858.019	-83.75
858.188	-84.95
858.356	-53.19
858.525	-16.83
858.694	14.5
858.863	19.48
859.032	21.67
859.201	-24.57
859.369	-45.85
859.538	-12.77
859.707	-28.62
859.876	12.26
860.044	35
860.213	47.26
860.382	33.1
860.55	32.94
860.719	17.29
860.888	15.17
861.056	2.46
861.225	-19.57
861.393	-30.3
861.562	-37.96
861.73	-53.36
861.899	-77.43
862.067	-79.39
862.236	-66.97
862.404	-55.5
862.572	-55.94
862.741	-73.32
862.909	-72.15
863.078	-56.62
863.246	-63.65
863.414	-24.36
863.582	6.14
863.751	26.73
863.919	23.48
864.087	16.98
864.255	-22.94
864.424	-48.71
864.592	-10.37
864.76	-24.55
864.928	-3.68
865.096	7.07
865.264	-1.67
865.432	-25.95
865.6	-5.08
865.768	-7.79
865.936	-12.65
866.104	19.6
866.272	-61.33
866.44	-54.03
866.608	-38.24
866.776	-25.25
866.944	-28.77
867.112	-19.83
867.28	-11.93
867.448	-10.24
867.615	-18.62
867.783	-51.97
867.951	-34.43
868.119	-47.64
868.286	-64.03
868.454	-28.4
868.622	-6.09
868.789	13.04
868.957	4.75
869.125	13.68
869.292	6.77
869.46	16.85
869.627	5.81
869.795	-27.06
869.963	-5.75
870.13	15.15
870.298	35.48
870.465	43.8
870.632	51.38
870.8	18.05
870.967	-30.19
871.135	-58.64
871.302	-36.88
871.469	-27.33
871.637	-71.81
871.804	-27.53
871.971	-19.4
872.139	-36.24
872.306	-8.59
872.473	7.25
872.64	-35.72
872.807	-66.69
872.975	-120.37
873.142	-87.72
873.309	-53.8
873.476	5.59
873.643	27.1
873.81	11.72
873.977	-32.45
874.144	-31.71
874.311	-93.92
874.478	-117.84
874.645	-126.23
874.812	-2.89
874.979	12.12
875.146	33.88
875.313	36.59
875.48	54.49
875.647	-12.6
875.813	-69.56
875.98	-74.56
876.147	-188.84
876.314	-156.93
876.481	-99.13
876.647	-35.75
876.814	0.34
876.981	1.08
877.147	-15.81
877.314	-17.76
877.481	-15.35
877.647	-45.05
877.814	-64.38
877.98	-68.98
878.147	-20.2
878.314	-14.91
878.48	-22.33
878.647	37.89
878.813	45.15
878.979	-17.89
879.146	-46.86
879.312	-38.28
879.479	-67.18
879.645	-47.79
879.811	-63
879.978	-23.23
880.144	-42.74
880.31	-48.32
880.477	-14.72
880.643	-17.48
880.809	-142.57
880.975	-105.38
881.142	-158.85
881.308	736.07
881.474	924.41
881.64	-168.74
881.806	-247.29
881.972	-142.47
882.138	-5.88
882.304	-10.68
882.47	-4.8
882.636	2.31
882.802	22.87
882.968	25.65
883.134	54.17
883.3	80.59
883.466	88.41
883.632	62.15
883.798	15.53
883.964	-145.92
884.129	-1534.06
884.295	-127.52
884.461	-160.18
884.627	-62.22
884.793	-79.36
884.958	-5.19
885.124	-29.42
885.29	-64.65
885.455	-113.74
885.621	-54.53
885.787	-53.13
885.952	-99.85
886.118	-18.76
886.283	-26.69
886.449	-51.94
886.614	-57.24
886.78	-31.83
886.945	-99.37
887.111	-105.66
887.276	-110.24
887.442	-235.79
887.607	-162.14
887.773	-86.33
887.938	-73.34
888.103	-36.56
888.269	3.2
888.434	-1.56
888.599	-21.71
888.764	-0.55
888.93	3.2
889.095	-5
889.26	-23.42
889.425	-7.76
889.59	-66.05
889.756	-76.76
889.921	-102.48
890.086	-203.14
890.251	-198.7
890.416	-92.48
890.581	-194.4
890.746	-84.04
890.911	-45.55
891.076	-59.87
891.241	-79.77
891.406	-72.38
891.571	-100.42
891.736	-152.85
891.901	-17.55
892.065	-0.95
892.23	20.18
892.395	-45.57
892.56	-38.71
892.725	-81.2
892.889	-32.93
893.054	48.17
893.219	-27.41
893.384	-88.9
893.548	-172.95
893.713	-281.25
893.878	-516.36
