Data from Ofra_1a_PS_2CX12_Reflection_2.txt Node
Date: Tue Jul 20 10:47:12 EDT 2021
User: Adam
Spectrometer: FLMT01687
Trigger mode: 0
Integration Time (sec): 1.004000E0
Scans to average: 2
Electric dark correction enabled: true
Nonlinearity correction enabled: false
Boxcar width: 2
XAxis mode: Wavelengths
Number of Pixels in Spectrum: 3648
>>>>>Begin Spectral Data<<<<<
179.494	-361.42
179.716	-477.1
179.937	865.55
180.158	-1243.31
180.38	152.1
180.601	-50.29
180.823	-148.88
181.044	-231.3
181.265	-490.69
181.486	327.24
181.708	18.5
181.929	3454.55
182.15	-124.68
182.372	512.32
182.593	657.38
182.814	-276.4
183.035	-37.79
183.257	44.62
183.478	6.09
183.699	-6.08
183.92	-45.76
184.141	-70.18
184.363	-87.34
184.584	-88.65
184.805	-37.91
185.026	1.32
185.247	8.49
185.468	-5.85
185.689	11.63
185.91	-10.97
186.132	8.82
186.353	9.84
186.574	2.02
186.795	15.66
187.016	28.14
187.237	17.04
187.458	-7.19
187.679	-7.8
187.9	-27.77
188.121	-27.43
188.342	-20.7
188.563	-13.19
188.784	20.58
189.005	19.59
189.226	12.53
189.447	7.6
189.667	5.2
189.888	-13.81
190.109	-34.71
190.33	-3.22
190.551	1.92
190.772	12
190.993	24.25
191.214	17.2
191.434	10.88
191.655	15.49
191.876	16.8
192.097	31.02
192.318	61.81
192.538	21.8
192.759	11.01
192.98	3.3
193.201	-6.68
193.421	-22.82
193.642	-8.51
193.863	6.75
194.083	9.69
194.304	35.76
194.525	42.1
194.745	40.9
194.966	20.02
195.187	21.21
195.407	-0.14
195.628	5.25
195.848	7.47
196.069	-2.61
196.29	-11.25
196.51	-10.35
196.731	-10.41
196.951	-20.01
197.172	-12.72
197.392	-26.71
197.613	-1.21
197.833	-25.87
198.054	-27.73
198.274	-30.21
198.495	-14.09
198.715	-23.08
198.936	3.08
199.156	2.31
199.377	-1.53
199.597	-1.72
199.817	-21.46
200.038	-59.03
200.258	-17.43
200.479	-3.35
200.699	8.04
200.919	14.94
201.14	28.02
201.36	19.93
201.58	6.79
201.801	8.88
202.021	18.69
202.241	6.18
202.461	-3.08
202.682	3.45
202.902	6.99
203.122	17.8
203.342	6.49
203.563	1.89
203.783	4.56
204.003	-14.6
204.223	-12.48
204.443	4.86
204.663	-0.23
204.884	28.34
205.104	29.51
205.324	26.53
205.544	-4.47
205.764	18.8
205.984	-31.53
206.204	-21.04
206.424	-45.83
206.644	-40.07
206.864	-94.93
207.084	-28.74
207.304	-51.37
207.525	-47.23
207.745	-30.74
207.964	-10.34
208.184	-8.44
208.404	6.63
208.624	27.43
208.844	23.72
209.064	23.27
209.284	-5.81
209.504	-27.38
209.724	-26.14
209.944	-32.88
210.164	-40.09
210.384	-24.91
210.604	-20.57
210.823	-66.52
211.043	-0.88
211.263	-47.55
211.483	-19.59
211.703	-16.02
211.922	-4.89
212.142	-33.75
212.362	12.58
212.582	15.07
212.801	9.65
213.021	10.6
213.241	-12.7
213.461	-34.03
213.68	-28.31
213.9	-18.55
214.12	-30.34
214.339	-19.7
214.559	-3.85
214.779	-25.9
214.998	-32.91
215.218	-3.55
215.438	1.73
215.657	-5.75
215.877	-15.57
216.096	-10.87
216.316	-8.09
216.535	-18.99
216.755	-7.66
216.974	1.37
217.194	-16.31
217.413	-34.19
217.633	-34.05
217.852	-23.21
218.072	-7.62
218.291	-6.58
218.511	-10.51
218.73	-14.46
218.95	-61.32
219.169	-89.43
219.389	-47.91
219.608	-48.07
219.827	-32.35
220.047	-4.65
220.266	-4.96
220.485	-31.18
220.705	-6.5
220.924	-17.93
221.143	6.93
221.363	9.7
221.582	18.11
221.801	32.83
222.021	36.85
222.24	16.07
222.459	15.9
222.678	27.79
222.897	1.04
223.117	-2.09
223.336	-0.14
223.555	18.15
223.774	2.24
223.993	24.59
224.213	46.96
224.432	41.58
224.651	22.33
224.87	17.03
225.089	11.05
225.308	6.56
225.527	-12.6
225.746	-16.91
225.965	-3.82
226.184	-2.67
226.404	-11.18
226.623	16.06
226.842	16.24
227.061	8.86
227.28	11.68
227.499	19.47
227.718	8.62
227.936	13.55
228.155	17.31
228.374	12.22
228.593	14.27
228.812	30.41
229.031	34.32
229.25	23.07
229.469	25.61
229.688	15.39
229.907	16.23
230.125	9.57
230.344	19.59
230.563	22.57
230.782	30.68
231.001	13.22
231.22	11.96
231.438	12.99
231.657	16.36
231.876	10.63
232.095	29.16
232.313	13.69
232.532	-0.11
232.751	2.56
232.969	-8.71
233.188	-46.44
233.407	-25.4
233.625	-27.96
233.844	-32.04
234.063	-21.79
234.281	-6.06
234.5	-11.95
234.719	0.36
234.937	-26.22
235.156	-12.07
235.374	2.9
235.593	14.54
235.811	15.39
236.03	31.44
236.249	16.53
236.467	13.91
236.686	12.95
236.904	20.11
237.123	12.71
237.341	19.43
237.559	19.42
237.778	25.57
237.996	-14.48
238.215	-45.33
238.433	-95.09
238.652	-24.01
238.87	-27.04
239.088	-9.21
239.307	-5.99
239.525	2.93
239.743	-20.33
239.962	-51.69
240.18	-32.33
240.398	-35.94
240.617	-38.09
240.835	-55.35
241.053	-32.44
241.271	-20.5
241.49	9.95
241.708	-8.33
241.926	-12.81
242.144	-2.57
242.363	-28.94
242.581	-97.94
242.799	-72.36
243.017	-24.62
243.235	-18.81
243.453	-38.96
243.672	-26.2
243.89	-7.03
244.108	11.31
244.326	21.87
244.544	28.46
244.762	10.93
244.98	9.51
245.198	6
245.416	-10.76
245.634	-7.97
245.852	3.05
246.07	11.86
246.288	1.86
246.506	4.59
246.724	5.99
246.942	1.95
247.16	-6.95
247.378	-32.9
247.596	-30.3
247.814	-59.29
248.032	-62.03
248.25	-30.85
248.468	8.73
248.685	15.19
248.903	24.44
249.121	37.11
249.339	32.17
249.557	33.05
249.775	26.1
249.992	23.1
250.21	5.1
250.428	15.38
250.646	2.17
250.863	-8.22
251.081	-3.25
251.299	0.59
251.517	5.61
251.734	9.66
251.952	17.99
252.17	-3.63
252.387	-25.18
252.605	-28.75
252.823	-59.54
253.04	-63.83
253.258	-19.86
253.475	7.91
253.693	-13.63
253.911	7.86
254.128	19.34
254.346	26.03
254.563	42.32
254.781	61.05
254.998	45.83
255.216	26.38
255.433	-2
255.651	-3.68
255.868	-13.13
256.086	23.44
256.303	34.6
256.521	29.46
256.738	16.24
256.956	6.01
257.173	-7.36
257.39	-13.82
257.608	-21.98
257.825	-18.22
258.043	7.11
258.26	-7.77
258.477	-4.27
258.695	9.14
258.912	-2.62
259.129	-25.4
259.346	-17.56
259.564	-8.73
259.781	-15.42
259.998	4.03
260.216	26.47
260.433	20.7
260.65	22.08
260.867	20.16
261.084	24.1
261.302	9.59
261.519	18.68
261.736	3.76
261.953	10.67
262.17	21.25
262.387	19.58
262.604	27.09
262.822	24.5
263.039	26.4
263.256	9.8
263.473	-0.93
263.69	-10.83
263.907	-12.91
264.124	-21.27
264.341	-9.65
264.558	-11.35
264.775	-17.5
264.992	-10.31
265.209	-25.17
265.426	-51.69
265.643	-30.68
265.86	-37.9
266.077	-72.44
266.294	-48.45
266.51	-5.92
266.727	-19.19
266.944	-1.27
267.161	14.29
267.378	18.7
267.595	-9.02
267.812	-5.73
268.028	-26.38
268.245	-21.99
268.462	-10.15
268.679	15.51
268.896	33.74
269.112	24.02
269.329	4.52
269.546	9.35
269.763	-3.95
269.979	-27.85
270.196	-11.34
270.413	-11.47
270.629	-29.79
270.846	-31.41
271.063	-14.3
271.279	-13
271.496	-3.82
271.712	1.16
271.929	4.94
272.146	-12.06
272.362	-15.33
272.579	-21.63
272.795	-13.28
273.012	-0.81
273.228	5.75
273.445	10.75
273.661	18.86
273.878	-22.34
274.094	-39.8
274.311	-38.71
274.527	-84.69
274.744	-59.13
274.96	-21.7
275.177	-17.08
275.393	0.33
275.609	25.49
275.826	19.53
276.042	21.82
276.259	26.22
276.475	15.1
276.691	9.13
276.908	4.97
277.124	21.13
277.34	7.42
277.557	2.3
277.773	-0.41
277.989	-4.54
278.205	-18.12
278.422	-21.74
278.638	-14.7
278.854	-8.17
279.07	14.99
279.286	4.32
279.503	24.79
279.719	26.77
279.935	20.71
280.151	-1.71
280.367	4.86
280.583	-0.58
280.799	-9.49
281.016	-34.26
281.232	-8.74
281.448	-21.2
281.664	-16.86
281.88	-9.16
282.096	-1.63
282.312	-8.02
282.528	0.69
282.744	2.15
282.96	-8.81
283.176	-24.59
283.392	-45.27
283.608	-34.98
283.824	-61.82
284.04	-67.41
284.256	-33.79
284.471	-18.86
284.687	-18.77
284.903	-16.62
285.119	7.14
285.335	9.92
285.551	0.64
285.767	-10.36
285.982	-3.19
286.198	-45.53
286.414	-45.12
286.63	-35.27
286.846	-12.09
287.061	-8.55
287.277	0.33
287.493	10.2
287.709	22.19
287.924	28.28
288.14	47.93
288.356	60.8
288.571	57.9
288.787	50.46
289.003	42.54
289.218	-2.16
289.434	-35.2
289.65	-10.67
289.865	-11.71
290.081	-5.44
290.296	10.2
290.512	6.85
290.727	-8.73
290.943	-4.83
291.159	-5.37
291.374	-25.33
291.59	-11.21
291.805	-21.16
292.021	-11.78
292.236	-18.08
292.451	11.2
292.667	11.68
292.882	32.33
293.098	26.29
293.313	24.49
293.529	20.94
293.744	7.7
293.959	2.42
294.175	-8.58
294.39	-32.75
294.605	-20.16
294.821	-5.37
295.036	-9.87
295.251	1.78
295.467	14.18
295.682	8.73
295.897	-1.73
296.112	-2.05
296.328	11.42
296.543	5.46
296.758	6.69
296.973	10.69
297.188	11.13
297.404	-6.74
297.619	-35.25
297.834	-54.99
298.049	-66.65
298.264	-74.23
298.479	-56.11
298.694	-4.73
298.909	2.46
299.125	8.83
299.34	21.42
299.555	12.13
299.77	18.25
299.985	15.93
300.2	22.27
300.415	21.84
300.63	24.65
300.845	11.63
301.06	16.01
301.275	11.89
301.49	12.17
301.704	8.28
301.919	11.94
302.134	11.5
302.349	9.42
302.564	6.32
302.779	-23.05
302.994	-11.22
303.209	-11.45
303.423	-14.54
303.638	-12.15
303.853	-3.59
304.068	-18.56
304.283	-14.24
304.497	-29.09
304.712	-26.79
304.927	-11.9
305.142	-6.36
305.356	-5.93
305.571	0.77
305.786	-5.55
306	5.32
306.215	-7.36
306.43	-11.23
306.644	-1.23
306.859	7.72
307.074	-0.35
307.288	18.22
307.503	23.92
307.717	11.33
307.932	9.12
308.147	5.29
308.361	8.88
308.576	-19.16
308.79	-12.75
309.005	-17.6
309.219	-16.69
309.434	-23.51
309.648	-7.64
309.863	-4.53
310.077	-8.51
310.292	7.19
310.506	-13.85
310.72	-15.51
310.935	-6.86
311.149	6.77
311.364	0.61
311.578	15.61
311.792	23.77
312.007	12.88
312.221	-13.5
312.435	-6.29
312.649	9.12
312.864	5.18
313.078	-3.12
313.292	15.13
313.507	10.68
313.721	-4.9
313.935	2.47
314.149	6.89
314.363	-14.78
314.578	-9.16
314.792	-27.66
315.006	-51.68
315.22	-16.44
315.434	-7.1
315.648	-3
315.862	3.95
316.077	9.41
316.291	-12.26
316.505	-30.99
316.719	-40.22
316.933	-29.54
317.147	-31.92
317.361	-26.59
317.575	-7.26
317.789	-1.53
318.003	-11.49
318.217	-8.05
318.431	-12.34
318.645	-22.02
318.859	-10.49
319.073	-4.79
319.287	8.25
319.5	11.73
319.714	13.11
319.928	4.06
320.142	6.14
320.356	3.1
320.57	-15.91
320.784	-5.78
320.997	-4.15
321.211	21
321.425	5.67
321.639	30.93
321.853	28.58
322.066	19.3
322.28	9.69
322.494	20.73
322.707	26.36
322.921	27.01
323.135	53.79
323.349	36.55
323.562	33.82
323.776	17.37
323.989	25.81
324.203	-7.54
324.417	-4.4
324.63	-7.62
324.844	-10.81
325.057	-57.57
325.271	-16.56
325.485	4.45
325.698	0.06
325.912	4.11
326.125	14.46
326.339	6.56
326.552	-12.58
326.766	-22.18
326.979	-10.43
327.193	-9.96
327.406	-28.29
327.619	-18.72
327.833	-7.38
328.046	-2.57
328.26	5.53
328.473	28.21
328.686	41.95
328.9	41.93
329.113	42.13
329.326	31.61
329.54	22.62
329.753	18.67
329.966	13.67
330.179	5.62
330.393	9.65
330.606	1.09
330.819	-16.96
331.032	-16.77
331.246	-3.81
331.459	6.58
331.672	17.06
331.885	28.75
332.098	26.6
332.311	12.81
332.525	12.58
332.738	18.4
332.951	7.51
333.164	12.42
333.377	28.56
333.59	24.66
333.803	20.56
334.016	41.2
334.229	33.38
334.442	22.49
334.655	25.35
334.868	19.69
335.081	3.54
335.294	1.62
335.507	21.45
335.72	19.32
335.933	13.44
336.146	14.67
336.359	26.06
336.572	11.05
336.785	0.43
336.997	-7.83
337.21	2.04
337.423	-40.84
337.636	-25.92
337.849	-20.81
338.062	-15.67
338.274	-4.36
338.487	-0.7
338.7	-21.82
338.913	-11.67
339.125	-4.52
339.338	-18.71
339.551	-12.07
339.763	13.3
339.976	9.35
340.189	-8.4
340.402	11.71
340.614	22.78
340.827	13.11
341.039	6.21
341.252	27.75
341.465	3.92
341.677	-3.08
341.89	-12.75
342.102	-13.23
342.315	-10.23
342.527	-2.32
342.74	-11.13
342.952	-5.94
343.165	9.73
343.377	0.53
343.59	6.32
343.802	19.23
344.015	29.34
344.227	14.63
344.44	21.14
344.652	5.48
344.864	13.26
345.077	12.55
345.289	29.81
345.502	26.89
345.714	41.25
345.926	33.51
346.139	6.73
346.351	-2.95
346.563	-4.97
346.775	-14.45
346.988	-17.78
347.2	-7.82
347.412	10.63
347.624	10.48
347.837	19.8
348.049	27.81
348.261	11.32
348.473	-6.25
348.685	-12.73
348.897	-22.76
349.11	-32.75
349.322	-16
349.534	-10.32
349.746	-9.56
349.958	-20.28
350.17	-21.89
350.382	-23.38
350.594	-17.26
350.806	-2.35
351.018	11.05
351.23	17.97
351.442	27.04
351.654	27.3
351.866	17.83
352.078	25.07
352.29	10.4
352.502	2.23
352.714	-18.34
352.926	-15.25
353.138	-30.72
353.35	-21.29
353.561	-17.78
353.773	-7.13
353.985	11.72
354.197	19.72
354.409	19.55
354.621	3.96
354.832	3.24
355.044	-10.4
355.256	-17.55
355.468	-34.29
355.679	-0.09
355.891	7.11
356.103	-4.94
356.314	-17.77
356.526	-18.32
356.738	-22.1
356.949	-33.48
357.161	-20.36
357.373	-2.61
357.584	5.83
357.796	-1.26
358.008	-2.8
358.219	2.58
358.431	10.15
358.642	28.27
358.854	34.73
359.065	36.49
359.277	24.76
359.488	8.9
359.7	-3.45
359.911	-14.72
360.123	1.19
360.334	-11.73
360.546	-13.82
360.757	-9.58
360.969	-3.62
361.18	-16.17
361.391	6.93
361.603	27.03
361.814	15.41
362.025	20.04
362.237	23.26
362.448	15.84
362.659	-3.63
362.871	-22.59
363.082	-39.02
363.293	-48.31
363.504	-70.43
363.716	-55.99
363.927	-14.34
364.138	-32.95
364.349	-37.3
364.56	-34.23
364.772	-20.79
364.983	-20.95
365.194	9.39
365.405	16.16
365.616	19.56
365.827	16.59
366.038	29.91
366.25	21.68
366.461	28.25
366.672	33.09
366.883	25.07
367.094	5.09
367.305	-10.52
367.516	-19.16
367.727	-31.69
367.938	-23.69
368.149	-26.04
368.36	-21.86
368.571	-47.34
368.781	-49.75
368.992	-53.44
369.203	-37.79
369.414	-26.9
369.625	-13.44
369.836	4.64
370.047	0.05
370.258	4.18
370.468	1.7
370.679	-7.06
370.89	-24.4
371.101	-6.95
371.312	-21.03
371.522	-23.92
371.733	-14.3
371.944	-13.84
372.155	-9.76
372.365	4.02
372.576	0.05
372.787	13.29
372.997	19.22
373.208	8.36
373.419	-3.86
373.629	-8.34
373.84	-32.09
374.05	-28.76
374.261	-29.3
374.472	-25.82
374.682	-24.64
374.893	-26.6
375.103	-22.86
375.314	-22.47
375.524	-11.8
375.735	0.17
375.945	13.63
376.156	1.3
376.366	4.91
376.577	5.24
376.787	6.58
376.997	12.56
377.208	17.99
377.418	19.27
377.629	21.57
377.839	24.28
378.049	24.06
378.26	19.47
378.47	15.97
378.68	3.37
378.89	0.04
379.101	-6.31
379.311	-6.36
379.521	-14.08
379.732	-7.53
379.942	-12.54
380.152	-17.32
380.362	-12.86
380.572	6.7
380.783	11.22
380.993	18.74
381.203	18.35
381.413	21.67
381.623	15.21
381.833	11.69
382.043	-0.17
382.253	0.03
382.463	13.61
382.674	13.42
382.884	15.42
383.094	16.35
383.304	19.53
383.514	10.85
383.724	3.6
383.934	-2.69
384.144	4.72
384.353	5.79
384.563	6.68
384.773	14.01
384.983	7.86
385.193	6.4
385.403	2.9
385.613	2.29
385.823	1.5
386.033	9.19
386.242	6.09
386.452	7.55
386.662	5.01
386.872	5.06
387.082	1.28
387.291	-1.17
387.501	-0.34
387.711	-3.15
387.921	-2.51
388.13	-0.04
388.34	3.16
388.55	0.63
388.759	-0.98
388.969	-3.25
389.179	-2.48
389.388	-6.36
389.598	-9.59
389.807	-11.11
390.017	-9.48
390.227	-13.38
390.436	-8.8
390.646	-5.53
390.855	-1.86
391.065	-1.57
391.274	0.8
391.484	-2.57
391.693	-2.94
391.903	-2.03
392.112	-1.89
392.322	-1.77
392.531	-0.23
392.74	-0.53
392.95	-0.46
393.159	-0.83
393.369	-1.26
393.578	-1.47
393.787	-0.84
393.997	-0.86
394.206	-0.73
394.415	0.37
394.625	0.27
394.834	-0.5
395.043	0.97
395.252	3.66
395.462	4.33
395.671	5.47
395.88	6.55
396.089	4.9
396.298	3.11
396.508	2.49
396.717	2.13
396.926	1.12
397.135	2.19
397.344	2.29
397.553	2.19
397.762	2.97
397.971	3.19
398.181	3.04
398.39	2.81
398.599	3.53
398.808	3.27
399.017	4.24
399.226	4.33
399.435	4.43
399.644	4.48
399.853	4.76
400.062	4.33
400.27	3.91
400.479	3.98
400.688	3.71
400.897	3.22
401.106	3.33
401.315	3.5
401.524	3.58
401.733	3.33
401.941	3.61
402.15	3.46
402.359	3.38
402.568	3.48
402.777	3.74
402.985	3.38
403.194	3.32
403.403	3.56
403.612	3.29
403.82	3.18
404.029	3.45
404.238	3.66
404.446	3.59
404.655	3.87
404.864	3.83
405.072	3.72
405.281	3.65
405.489	3.72
405.698	3.67
405.906	3.77
406.115	3.65
406.324	3.59
406.532	3.63
406.741	3.6
406.949	3.61
407.158	3.82
407.366	3.67
407.574	3.54
407.783	3.61
407.991	3.6
408.2	3.59
408.408	3.71
408.617	3.61
408.825	3.45
409.033	3.36
409.242	3.35
409.45	3.3
409.658	3.32
409.867	3.39
410.075	3.54
410.283	3.45
410.491	3.43
410.7	3.34
410.908	3.31
411.116	3.22
411.324	3.21
411.533	3.21
411.741	3.31
411.949	3.35
412.157	3.29
412.365	3.34
412.573	3.39
412.781	3.45
412.99	3.43
413.198	3.5
413.406	3.59
413.614	3.67
413.822	3.6
414.03	3.59
414.238	3.59
414.446	3.59
414.654	3.34
414.862	3.32
415.07	3.23
415.278	3.32
415.486	3.09
415.694	3.26
415.902	3.27
416.109	3.29
416.317	3.4
416.525	3.42
416.733	3.35
416.941	3.3
417.149	3.23
417.357	3.08
417.564	3.25
417.772	3.33
417.98	3.37
418.188	3.29
418.395	3.03
418.603	2.94
418.811	2.68
419.019	2.64
419.226	2.8
419.434	2.99
419.642	2.79
419.849	3.01
420.057	3.02
420.265	2.97
420.472	2.87
420.68	3.04
420.887	3
421.095	2.99
421.302	3.06
421.51	3.04
421.717	2.97
421.925	3.01
422.132	3.03
422.34	2.8
422.547	2.92
422.755	2.99
422.962	3.04
423.17	2.79
423.377	2.89
423.585	2.98
423.792	2.91
423.999	2.84
424.207	3.04
424.414	3.16
424.621	2.93
424.829	3.1
425.036	3.09
425.243	3.17
425.451	3.08
425.658	3.12
425.865	2.94
426.072	2.76
426.28	2.64
426.487	2.69
426.694	2.59
426.901	2.59
427.108	2.6
427.315	2.55
427.523	2.32
427.73	2.46
427.937	2.37
428.144	2.55
428.351	2.63
428.558	2.91
428.765	2.85
428.972	2.98
429.179	2.81
429.386	2.85
429.593	2.57
429.8	2.48
430.007	2.49
430.214	2.71
430.421	2.76
430.628	2.79
430.835	2.87
431.042	2.73
431.249	2.71
431.456	2.65
431.662	2.87
431.869	3.06
432.076	3.14
432.283	3.11
432.49	2.97
432.697	2.88
432.903	2.68
433.11	2.81
433.317	2.86
433.524	2.97
433.73	2.96
433.937	3.02
434.144	2.8
434.35	2.67
434.557	2.7
434.764	2.75
434.97	2.56
435.177	2.71
435.384	2.84
435.59	2.84
435.797	2.87
436.003	2.97
436.21	2.97
436.416	2.95
436.623	2.9
436.829	2.79
437.036	2.81
437.242	2.85
437.449	2.75
437.655	2.87
437.862	2.96
438.068	2.96
438.275	3.01
438.481	3.16
438.687	3.12
438.894	3.27
439.1	3.3
439.307	3.33
439.513	3.25
439.719	3.25
439.926	3.05
440.132	3.09
440.338	3
440.544	3.03
440.751	2.92
440.957	3.06
441.163	2.96
441.369	2.95
441.575	2.87
441.782	3.09
441.988	3.01
442.194	3.04
442.4	2.97
442.606	3.1
442.812	3.06
443.018	3.08
443.224	3.18
443.431	3.25
443.637	3.18
443.843	3.16
444.049	3.17
444.255	3.18
444.461	3.16
444.667	3.11
444.873	3.11
445.079	3.08
445.284	3.04
445.49	3.02
445.696	3.04
445.902	2.95
446.108	3
446.314	3.04
446.52	3.11
446.726	3.2
446.931	3.18
447.137	3.2
447.343	3.25
447.549	3.27
447.755	3.15
447.96	3.28
448.166	3.24
448.372	3.15
448.578	3.03
448.783	3.14
448.989	3.12
449.195	3.05
449.4	3.09
449.606	3.16
449.812	3.09
450.017	3.05
450.223	3.12
450.428	3.14
450.634	3.17
450.84	3.18
451.045	3.13
451.251	3.16
451.456	3.12
451.662	3.21
451.867	3.15
452.073	3.21
452.278	3.2
452.483	3.19
452.689	3.08
452.894	3.2
453.1	3.18
453.305	3.24
453.51	3.32
453.716	3.29
453.921	3.29
454.127	3.28
454.332	3.17
454.537	3.07
454.742	3.11
454.948	3.08
455.153	3.05
455.358	3.13
455.563	3.22
455.769	3.14
455.974	3.12
456.179	3.1
456.384	2.96
456.589	2.81
456.795	2.9
457	2.83
457.205	2.82
457.41	2.92
457.615	3.03
457.82	3.04
458.025	3.08
458.23	3.16
458.435	3.12
458.64	3.13
458.845	3.08
459.05	3.11
459.255	3.1
459.46	3.06
459.665	3.05
459.87	3.04
460.075	3.11
460.28	3.12
460.485	3.19
460.69	3.14
460.895	3.18
461.099	3.04
461.304	2.94
461.509	2.91
461.714	3
461.919	3
462.123	3.11
462.328	3.1
462.533	2.97
462.738	2.93
462.942	2.92
463.147	2.87
463.352	3.02
463.556	3.23
463.761	3.24
463.966	3.17
464.17	3.31
464.375	3.4
464.58	3.27
464.784	3.23
464.989	3.29
465.193	3.2
465.398	3.09
465.602	3.31
465.807	3.28
466.011	3.24
466.216	3.15
466.42	3.17
466.625	3.12
466.829	3.15
467.034	3.4
467.238	3.54
467.443	3.47
467.647	3.41
467.851	3.42
468.056	3.26
468.26	3.17
468.464	3.3
468.669	3.29
468.873	3.4
469.077	3.36
469.282	3.36
469.486	3.26
469.69	3.3
469.894	3.26
470.099	3.27
470.303	3.28
470.507	3.34
470.711	3.31
470.915	3.33
471.119	3.41
471.324	3.47
471.528	3.52
471.732	3.52
471.936	3.47
472.14	3.45
472.344	3.55
472.548	3.54
472.752	3.51
472.956	3.55
473.16	3.55
473.364	3.5
473.568	3.47
473.772	3.54
473.976	3.62
474.18	3.66
474.384	3.62
474.588	3.69
474.792	3.66
474.995	3.62
475.199	3.59
475.403	3.57
475.607	3.54
475.811	3.6
476.015	3.58
476.218	3.54
476.422	3.55
476.626	3.57
476.83	3.57
477.033	3.68
477.237	3.82
477.441	3.88
477.644	3.87
477.848	3.94
478.052	3.86
478.255	3.85
478.459	3.79
478.663	3.85
478.866	3.81
479.07	3.88
479.273	3.87
479.477	3.9
479.681	3.88
479.884	3.91
480.088	3.87
480.291	3.9
480.495	3.95
480.698	3.98
480.901	4.02
481.105	4.02
481.308	4
481.512	4.03
481.715	4.08
481.919	4.06
482.122	4.1
482.325	4.16
482.529	4.14
482.732	4.06
482.935	4
483.138	3.99
483.342	3.96
483.545	4.06
483.748	4.15
483.952	4.21
484.155	4.25
484.358	4.3
484.561	4.21
484.764	4.21
484.967	4.21
485.171	4.17
485.374	4.12
485.577	4.14
485.78	4.14
485.983	4.09
486.186	4.12
486.389	4.19
486.592	4.19
486.795	4.19
486.998	4.19
487.201	4.19
487.404	4.23
487.607	4.29
487.81	4.3
488.013	4.43
488.216	4.43
488.419	4.37
488.622	4.38
488.825	4.36
489.028	4.32
489.231	4.36
489.433	4.36
489.636	4.3
489.839	4.37
490.042	4.38
490.245	4.39
490.447	4.39
490.65	4.5
490.853	4.5
491.056	4.53
491.258	4.62
491.461	4.63
491.664	4.55
491.866	4.5
492.069	4.55
492.272	4.42
492.474	4.48
492.677	4.55
492.879	4.61
493.082	4.6
493.285	4.67
493.487	4.64
493.69	4.61
493.892	4.6
494.095	4.6
494.297	4.66
494.5	4.69
494.702	4.73
494.905	4.79
495.107	4.81
495.309	4.85
495.512	4.88
495.714	4.95
495.917	4.99
496.119	5.06
496.321	5.04
496.524	5.01
496.726	5
496.928	4.98
497.13	4.96
497.333	4.98
497.535	5.06
497.737	5.07
497.939	5.14
498.142	5.14
498.344	5.19
498.546	5.22
498.748	5.33
498.95	5.4
499.152	5.44
499.355	5.41
499.557	5.45
499.759	5.47
499.961	5.47
500.163	5.53
500.365	5.59
500.567	5.61
500.769	5.63
500.971	5.64
501.173	5.63
501.375	5.74
501.577	5.76
501.779	5.78
501.981	5.79
502.183	5.93
502.385	5.85
502.587	5.85
502.788	5.92
502.99	5.93
503.192	5.87
503.394	5.9
503.596	5.95
503.798	5.85
503.999	5.89
504.201	5.93
504.403	5.96
504.605	6.04
504.806	6.14
505.008	6.21
505.21	6.22
505.411	6.23
505.613	6.24
505.815	6.18
506.016	6.19
506.218	6.27
506.42	6.3
506.621	6.35
506.823	6.37
507.024	6.39
507.226	6.38
507.427	6.44
507.629	6.42
507.83	6.47
508.032	6.47
508.233	6.52
508.435	6.52
508.636	6.61
508.838	6.61
509.039	6.63
509.24	6.62
509.442	6.66
509.643	6.6
509.845	6.64
510.046	6.64
510.247	6.7
510.448	6.7
510.65	6.73
510.851	6.77
511.052	6.8
511.254	6.82
511.455	6.76
511.656	6.81
511.857	6.79
512.058	6.81
512.26	6.76
512.461	6.8
512.662	6.75
512.863	6.69
513.064	6.73
513.265	6.71
513.466	6.78
513.667	6.78
513.868	6.78
514.069	6.73
514.27	6.78
514.471	6.73
514.672	6.78
514.873	6.87
515.074	6.92
515.275	6.89
515.476	6.94
515.677	6.93
515.878	6.93
516.079	6.92
516.28	7.01
516.481	7.06
516.682	7.1
516.882	7.1
517.083	7.14
517.284	7.13
517.485	7.08
517.686	7.13
517.886	7.13
518.087	7.11
518.288	7.1
518.488	7.09
518.689	7.01
518.89	7.02
519.091	7.08
519.291	7.01
519.492	7.01
519.692	7.06
519.893	7.07
520.094	7.02
520.294	7.08
520.495	7.08
520.695	7.1
520.896	7.09
521.096	7.13
521.297	7.18
521.497	7.21
521.698	7.21
521.898	7.21
522.099	7.19
522.299	7.16
522.499	7.18
522.7	7.21
522.9	7.23
523.101	7.18
523.301	7.23
523.501	7.25
523.702	7.24
523.902	7.22
524.102	7.3
524.302	7.33
524.503	7.32
524.703	7.36
524.903	7.4
525.103	7.36
525.304	7.35
525.504	7.35
525.704	7.32
525.904	7.29
526.104	7.31
526.304	7.33
526.504	7.3
526.705	7.32
526.905	7.38
527.105	7.42
527.305	7.4
527.505	7.43
527.705	7.43
527.905	7.42
528.105	7.4
528.305	7.42
528.505	7.48
528.705	7.58
528.905	7.62
529.105	7.69
529.304	7.65
529.504	7.69
529.704	7.64
529.904	7.65
530.104	7.68
530.304	7.68
530.503	7.65
530.703	7.64
530.903	7.66
531.103	7.7
531.303	7.75
531.502	7.78
531.702	7.84
531.902	7.88
532.101	7.83
532.301	7.88
532.501	7.93
532.7	7.92
532.9	7.97
533.1	8
533.299	8.04
533.499	8
533.698	8.03
533.898	8.03
534.097	8.03
534.297	8
534.496	8.05
534.696	8.09
534.895	8.1
535.095	8.18
535.294	8.24
535.494	8.24
535.693	8.24
535.892	8.28
536.092	8.3
536.291	8.33
536.491	8.35
536.69	8.37
536.889	8.36
537.088	8.37
537.288	8.36
537.487	8.41
537.686	8.41
537.886	8.46
538.085	8.46
538.284	8.52
538.483	8.59
538.682	8.66
538.882	8.67
539.081	8.73
539.28	8.69
539.479	8.68
539.678	8.66
539.877	8.68
540.076	8.67
540.275	8.75
540.474	8.78
540.673	8.87
540.872	8.9
541.071	8.99
541.27	9.03
541.469	9.06
541.668	9.08
541.867	9.12
542.066	9.19
542.265	9.2
542.464	9.22
542.663	9.26
542.862	9.34
543.06	9.36
543.259	9.47
543.458	9.61
543.657	9.63
543.856	9.7
544.054	9.69
544.253	9.73
544.452	9.75
544.651	9.79
544.849	9.74
545.048	9.8
545.247	9.8
545.445	9.77
545.644	9.83
545.843	9.91
546.041	9.97
546.24	10.04
546.438	10.14
546.637	10.2
546.836	10.3
547.034	10.34
547.233	10.4
547.431	10.42
547.63	10.38
547.828	10.38
548.027	10.41
548.225	10.42
548.423	10.47
548.622	10.6
548.82	10.67
549.019	10.72
549.217	10.82
549.415	10.92
549.614	11.01
549.812	11.05
550.01	11.1
550.209	11.21
550.407	11.23
550.605	11.23
550.803	11.34
551.002	11.51
551.2	11.48
551.398	11.63
551.596	11.72
551.794	11.75
551.993	11.72
552.191	11.84
552.389	11.85
552.587	11.91
552.785	11.95
552.983	12.08
553.181	12.11
553.379	12.16
553.577	12.23
553.775	12.37
553.973	12.53
554.171	12.6
554.369	12.71
554.567	12.86
554.765	12.87
554.963	12.91
555.161	13.04
555.359	13.12
555.557	13.12
555.755	13.32
555.952	13.41
556.15	13.5
556.348	13.6
556.546	13.79
556.744	13.84
556.941	13.86
557.139	13.94
557.337	14.07
557.535	14.15
557.732	14.2
557.93	14.35
558.128	14.49
558.325	14.54
558.523	14.59
558.721	14.74
558.918	14.83
559.116	14.9
559.313	15.05
559.511	15.16
559.708	15.23
559.906	15.37
560.104	15.41
560.301	15.55
560.498	15.74
560.696	15.81
560.893	15.88
561.091	15.98
561.288	16.09
561.486	16.1
561.683	16.23
561.88	16.4
562.078	16.54
562.275	16.62
562.473	16.78
562.67	16.92
562.867	16.95
563.064	17.02
563.262	17.1
563.459	17.2
563.656	17.3
563.853	17.42
564.051	17.64
564.248	17.76
564.445	17.89
564.642	18.04
564.839	18.26
565.036	18.42
565.234	18.59
565.431	18.66
565.628	18.7
565.825	18.72
566.022	18.8
566.219	18.87
566.416	18.9
566.613	19.03
566.81	19.15
567.007	19.15
567.204	19.22
567.401	19.4
567.598	19.51
567.795	19.55
567.991	19.63
568.188	19.74
568.385	19.8
568.582	19.83
568.779	19.91
568.976	20.04
569.172	20.09
569.369	20.21
569.566	20.33
569.763	20.41
569.96	20.56
570.156	20.66
570.353	20.66
570.55	20.69
570.746	20.8
570.943	20.84
571.14	20.87
571.336	20.99
571.533	21.03
571.729	21.01
571.926	21.06
572.123	21.13
572.319	21.15
572.516	21.31
572.712	21.36
572.909	21.39
573.105	21.47
573.302	21.47
573.498	21.3
573.695	21.34
573.891	21.3
574.087	21.22
574.284	21.33
574.48	21.48
574.677	21.58
574.873	21.64
575.069	21.73
575.266	21.73
575.462	21.75
575.658	21.8
575.854	21.82
576.051	21.92
576.247	21.87
576.443	21.88
576.639	21.84
576.835	21.79
577.032	21.7
577.228	21.74
577.424	21.78
577.62	21.72
577.816	21.76
578.012	21.79
578.208	21.84
578.404	21.83
578.6	21.9
578.796	21.95
578.993	21.93
579.189	21.9
579.384	21.9
579.58	21.86
579.776	21.76
579.972	21.79
580.168	21.78
580.364	21.84
580.56	21.78
580.756	21.84
580.952	21.81
581.148	21.8
581.343	21.72
581.539	21.75
581.735	21.64
581.931	21.58
582.127	21.52
582.322	21.45
582.518	21.46
582.714	21.5
582.909	21.5
583.105	21.54
583.301	21.67
583.496	21.64
583.692	21.64
583.888	21.68
584.083	21.67
584.279	21.48
584.474	21.47
584.67	21.47
584.866	21.39
585.061	21.35
585.257	21.41
585.452	21.41
585.648	21.29
585.843	21.33
586.039	21.34
586.234	21.31
586.429	21.18
586.625	21.24
586.82	21.2
587.015	21.22
587.211	21.24
587.406	21.33
587.601	21.44
587.797	21.45
587.992	21.41
588.187	21.35
588.383	21.42
588.578	21.41
588.773	21.43
588.968	21.57
589.163	21.67
589.359	21.57
589.554	21.43
589.749	21.42
589.944	21.34
590.139	21.29
590.334	21.39
590.529	21.55
590.724	21.64
590.919	21.66
591.114	21.78
591.309	21.88
591.504	21.88
591.699	21.82
591.894	21.83
592.089	21.83
592.284	21.78
592.479	21.87
592.674	22
592.869	22.03
593.064	22.04
593.259	22.12
593.454	22.12
593.648	22.12
593.843	22.13
594.038	22.18
594.233	22.21
594.428	22.26
594.622	22.42
594.817	22.7
595.012	22.78
595.206	22.82
595.401	22.89
595.596	22.86
595.79	22.71
595.985	22.74
596.18	22.85
596.374	23
596.569	23.14
596.763	23.23
596.958	23.34
597.153	23.36
597.347	23.3
597.542	23.34
597.736	23.45
597.931	23.49
598.125	23.61
598.319	23.79
598.514	23.84
598.708	23.86
598.903	23.86
599.097	23.92
599.291	23.9
599.486	23.98
599.68	24.09
599.874	24.29
600.069	24.4
600.263	24.49
600.457	24.53
600.651	24.5
600.846	24.48
601.04	24.42
601.234	24.43
601.428	24.57
601.622	24.65
601.817	24.64
602.011	24.73
602.205	24.78
602.399	24.62
602.593	24.63
602.787	24.66
602.981	24.65
603.175	24.68
603.369	24.68
603.563	24.75
603.757	24.67
603.951	24.7
604.145	24.68
604.339	24.72
604.533	24.72
604.727	24.79
604.921	24.62
605.115	24.56
605.309	24.53
605.502	24.48
605.696	24.4
605.89	24.45
606.084	24.42
606.278	24.4
606.471	24.31
606.665	24.23
606.859	24.17
607.053	24.11
607.246	24
607.44	23.92
607.634	23.94
607.827	23.85
608.021	23.75
608.214	23.7
608.408	23.64
608.602	23.49
608.795	23.47
608.989	23.43
609.182	23.4
609.376	23.35
609.569	23.38
609.763	23.23
609.956	23.22
610.15	23.1
610.343	23.06
610.537	22.93
610.73	22.81
610.923	22.61
611.117	22.63
611.31	22.57
611.504	22.53
611.697	22.61
611.89	22.54
612.083	22.42
612.277	22.36
612.47	22.16
612.663	22.06
612.856	22.01
613.05	21.96
613.243	21.71
613.436	21.69
613.629	21.57
613.822	21.47
614.015	21.26
614.209	21.29
614.402	21.13
614.595	21.09
614.788	21
614.981	20.99
615.174	20.87
615.367	20.91
615.56	20.72
615.753	20.75
615.946	20.72
616.139	20.73
616.332	20.67
616.525	20.72
616.718	20.54
616.911	20.38
617.103	20.24
617.296	20.2
617.489	20.14
617.682	20.16
617.875	20.17
618.067	20.22
618.26	20.07
618.453	20.03
618.646	19.95
618.838	19.93
619.031	19.79
619.224	19.77
619.417	19.69
619.609	19.71
619.802	19.56
619.994	19.55
620.187	19.5
620.38	19.46
620.572	19.38
620.765	19.4
620.957	19.39
621.15	19.36
621.342	19.39
621.535	19.39
621.727	19.4
621.92	19.39
622.112	19.39
622.305	19.31
622.497	19.29
622.69	19.2
622.882	19.18
623.074	19.16
623.267	19.1
623.459	18.99
623.651	19.04
623.844	19.03
624.036	18.98
624.228	18.98
624.42	18.96
624.613	18.87
624.805	18.76
624.997	18.69
625.189	18.76
625.381	18.76
625.574	18.8
625.766	18.73
625.958	18.78
626.15	18.72
626.342	18.58
626.534	18.57
626.726	18.57
626.918	18.54
627.11	18.45
627.302	18.51
627.494	18.45
627.686	18.47
627.878	18.41
628.07	18.42
628.262	18.46
628.454	18.4
628.646	18.28
628.838	18.26
629.029	18.15
629.221	18
629.413	17.91
629.605	17.87
629.797	17.85
629.989	17.84
630.18	17.9
630.372	17.97
630.564	18
630.755	17.99
630.947	17.99
631.139	17.88
631.33	17.78
631.522	17.75
631.714	17.7
631.905	17.65
632.097	17.6
632.289	17.53
632.48	17.46
632.672	17.36
632.863	17.24
633.055	17.25
633.246	17.35
633.438	17.38
633.629	17.38
633.821	17.48
634.012	17.49
634.203	17.37
634.395	17.39
634.586	17.39
634.777	17.32
634.969	17.26
635.16	17.28
635.351	17.15
635.543	17.11
635.734	17.12
635.925	17.16
636.117	17.12
636.308	17.23
636.499	17.24
636.69	17.26
636.881	17.14
637.073	17.21
637.264	17.07
637.455	16.96
637.646	16.95
637.837	17.03
638.028	16.89
638.219	17.01
638.41	17.12
638.601	17.1
638.792	17
638.983	17.05
639.174	16.93
639.365	16.97
639.556	16.9
639.747	16.97
639.938	17.06
640.129	17.05
640.32	17.01
640.511	17.01
640.701	16.99
640.892	16.86
641.083	16.83
641.274	16.68
641.465	16.68
641.655	16.66
641.846	16.73
642.037	16.75
642.228	16.76
642.418	16.66
642.609	16.63
642.8	16.59
642.99	16.52
643.181	16.53
643.372	16.56
643.562	16.5
643.753	16.4
643.943	16.39
644.134	16.24
644.324	16.22
644.515	16.19
644.705	16.25
644.896	16.35
645.086	16.44
645.277	16.39
645.467	16.45
645.658	16.31
645.848	16.24
646.038	16.29
646.229	16.29
646.419	16.16
646.61	16.26
646.8	16.18
646.99	16.06
647.18	16.03
647.371	16.04
647.561	15.89
647.751	15.86
647.941	15.92
648.132	15.88
648.322	15.84
648.512	15.86
648.702	15.84
648.892	15.79
649.082	15.83
649.272	15.82
649.462	15.83
649.653	15.74
649.843	15.7
650.033	15.63
650.223	15.6
650.413	15.62
650.603	15.73
650.793	15.7
650.983	15.61
651.172	15.51
651.362	15.28
651.552	15.2
651.742	15.17
651.932	15.17
652.122	15.26
652.312	15.3
652.502	15.17
652.691	15.12
652.881	15.09
653.071	14.94
653.261	14.81
653.45	14.7
653.64	14.62
653.83	14.49
654.019	14.37
654.209	14.31
654.399	14.25
654.588	14.05
654.778	13.93
654.968	13.93
655.157	13.78
655.347	13.57
655.536	13.46
655.726	13.3
655.915	13.04
656.105	12.9
656.294	12.81
656.484	12.65
656.673	12.61
656.863	12.56
657.052	12.43
657.241	12.36
657.431	12.3
657.62	12.14
657.809	11.89
657.999	11.8
658.188	11.64
658.377	11.4
658.567	11.22
658.756	11.17
658.945	10.98
659.134	10.8
659.324	10.66
659.513	10.48
659.702	10.29
659.891	10.11
660.08	9.9
660.269	9.81
660.458	9.64
660.648	9.41
660.837	9.29
661.026	9.18
661.215	9.04
661.404	8.98
661.593	8.92
661.782	8.8
661.971	8.64
662.16	8.47
662.349	8.26
662.538	8.13
662.726	8.04
662.915	8.04
663.104	7.91
663.293	7.93
663.482	7.88
663.671	7.78
663.86	7.72
664.048	7.66
664.237	7.42
664.426	7.31
664.615	7.26
664.803	7.1
664.992	7.04
665.181	7.11
665.369	6.98
665.558	6.94
665.747	6.99
665.935	6.94
666.124	6.88
666.312	6.94
666.501	6.85
666.69	6.79
666.878	6.76
667.067	6.74
667.255	6.68
667.444	6.71
667.632	6.7
667.82	6.72
668.009	6.66
668.197	6.66
668.386	6.58
668.574	6.57
668.762	6.46
668.951	6.45
669.139	6.41
669.327	6.52
669.516	6.43
669.704	6.5
669.892	6.55
670.08	6.59
670.269	6.57
670.457	6.6
670.645	6.55
670.833	6.59
671.021	6.61
671.21	6.63
671.398	6.76
671.586	6.84
671.774	6.96
671.962	6.98
672.15	7.09
672.338	7.16
672.526	7.25
672.714	7.17
672.902	7.24
673.09	7.34
673.278	7.43
673.466	7.59
673.654	7.69
673.842	7.82
674.03	7.83
674.218	7.76
674.405	7.69
674.593	7.78
674.781	7.72
674.969	7.79
675.157	7.89
675.344	7.94
675.532	7.98
675.72	8.16
675.908	8.11
676.095	8.2
676.283	8.35
676.471	8.45
676.658	8.51
676.846	8.66
677.033	8.7
677.221	8.65
677.409	8.76
677.596	8.79
677.784	8.94
677.971	8.88
678.159	8.99
678.346	9.04
678.534	9.15
678.721	9.22
678.909	9.43
679.096	9.49
679.283	9.5
679.471	9.66
679.658	9.77
679.846	9.88
680.033	10.22
680.22	10.49
680.408	10.56
680.595	10.61
680.782	10.79
680.969	10.92
681.157	11.01
681.344	11.02
681.531	11.12
681.718	11.26
681.905	11.33
682.093	11.52
682.28	11.9
682.467	12.23
682.654	12.38
682.841	12.51
683.028	12.62
683.215	12.76
683.402	12.76
683.589	12.92
683.776	13.09
683.963	13.28
684.15	13.51
684.337	13.89
684.524	14.16
684.711	14.45
684.898	14.48
685.085	14.67
685.271	14.92
685.458	15.09
685.645	15.33
685.832	15.84
686.019	16.05
686.205	16.25
686.392	16.58
686.579	16.99
686.766	17.29
686.952	17.53
687.139	17.81
687.326	18.29
687.512	18.36
687.699	18.84
687.886	19.3
688.072	19.65
688.259	19.93
688.445	20.53
688.632	20.8
688.818	21.46
689.005	21.89
689.191	22.3
689.378	22.88
689.564	23.46
689.751	23.84
689.937	24.65
690.124	25.2
690.31	25.39
690.496	25.87
690.683	26.54
690.869	26.86
691.055	27.49
691.242	28.38
691.428	29.08
691.614	29.69
691.8	30.51
691.987	31.41
692.173	32.05
692.359	32.83
692.545	33.51
692.731	34.16
692.918	34.56
693.104	35.35
693.29	35.76
693.476	36.47
693.662	37.33
693.848	38.01
694.034	38.7
694.22	39.64
694.406	40.24
694.592	40.85
694.778	41.5
694.964	42.02
695.15	42.45
695.336	42.95
695.522	43.5
695.708	44.14
695.894	44.86
696.08	45.69
696.265	46.66
696.451	47.52
696.637	48.61
696.823	49.23
697.009	49.83
697.194	50.6
697.38	51.26
697.566	51.53
697.751	52.21
697.937	53.1
698.123	53.35
698.308	53.51
698.494	54.54
698.68	55.1
698.865	55.49
699.051	56.29
699.236	57.21
699.422	57.4
699.607	58.17
699.793	58.87
699.978	59.45
700.164	59.96
700.349	60.93
700.535	61.1
700.72	61.55
700.906	62.14
701.091	62.57
701.276	62.84
701.462	63.37
701.647	63.98
701.832	64.32
702.018	64.93
702.203	65.56
702.388	65.89
702.573	66.33
702.759	66.74
702.944	66.86
703.129	66.79
703.314	67.54
703.499	67.7
703.684	68.26
703.87	68.79
704.055	69.55
704.24	70.19
704.425	70.83
704.61	71.07
704.795	71.8
704.98	71.77
705.165	72.19
705.35	72.38
705.535	72.96
705.72	73
705.905	73.7
706.09	73.73
706.275	74.19
706.459	74.48
706.644	75.05
706.829	75.48
707.014	75.62
707.199	75.82
707.384	75.8
707.568	75.5
707.753	75.43
707.938	75.8
708.123	76.12
708.307	76.49
708.492	77.44
708.677	78.11
708.861	78.31
709.046	78.08
709.231	78.1
709.415	78.19
709.6	78.11
709.784	78.46
709.969	78.88
710.153	79.05
710.338	79.51
710.522	80.16
710.707	80.2
710.891	80.51
711.076	80.91
711.26	80.75
711.445	80.51
711.629	80.72
711.813	81
711.998	81.04
712.182	81.03
712.366	81.59
712.551	81.9
712.735	81.98
712.919	82.43
713.103	82.97
713.288	82.97
713.472	83.39
713.656	83.25
713.84	83.04
714.024	82.89
714.208	82.79
714.393	82.64
714.577	82.82
714.761	83.14
714.945	83.11
715.129	83.28
715.313	83.3
715.497	83.51
715.681	83.42
715.865	83.64
716.049	83.8
716.233	83.79
716.417	83.66
716.601	83.93
716.785	84.18
716.968	84.24
717.152	84.56
717.336	85.01
717.52	85.69
717.704	86.05
717.888	86.12
718.071	86.08
718.255	86.35
718.439	85.72
718.622	85.86
718.806	85.93
718.99	85.9
719.174	85.96
719.357	86.6
719.541	86.51
719.724	86.74
719.908	87.16
720.092	86.89
720.275	86.56
720.459	86.44
720.642	86.64
720.826	86.46
721.009	86.83
721.193	86.94
721.376	87.1
721.559	87.27
721.743	87.37
721.926	87.73
722.11	88.31
722.293	88.94
722.476	88.71
722.66	89.32
722.843	89.34
723.026	89.34
723.21	89.03
723.393	89.71
723.576	89.85
723.759	89.73
723.942	89.84
724.126	89.93
724.309	89.48
724.492	89.09
724.675	89.42
724.858	89.28
725.041	89.39
725.224	89.81
725.407	89.86
725.59	90.08
725.774	90.32
725.957	90.6
726.14	90
726.322	90.95
726.505	90.84
726.688	90.97
726.871	90.47
727.054	91.16
727.237	90.78
727.42	90.14
727.603	89.69
727.786	89.93
727.968	89.8
728.151	89.24
728.334	90.23
728.517	90.59
728.699	90.77
728.882	90.64
729.065	91.1
729.248	91.18
729.43	91.39
729.613	91.63
729.796	92.35
729.978	92.72
730.161	93.03
730.343	93.39
730.526	93.86
730.708	94.12
730.891	94.29
731.073	94.21
731.256	94.01
731.438	94.73
731.621	94.23
731.803	94.04
731.986	94.29
732.168	94.94
732.35	94.29
732.533	94.28
732.715	94.47
732.898	93.9
733.08	92.89
733.262	92.77
733.444	93.95
733.627	94.16
733.809	94.78
733.991	95.42
734.173	95.42
734.355	94.79
734.538	95.32
734.72	94.83
734.902	95.12
735.084	95.51
735.266	95.78
735.448	95.85
735.63	96.08
735.812	96.57
735.994	96.65
736.176	96.82
736.358	97.15
736.54	98.1
736.722	97.85
736.904	97.41
737.086	96.64
737.268	96.25
737.45	95.95
737.632	96.23
737.814	96.96
737.995	98.41
738.177	98.56
738.359	98.94
738.541	98.52
738.723	98.25
738.904	97.73
739.086	97.55
739.268	97.33
739.449	97.21
739.631	97.31
739.813	96.82
739.994	96.56
740.176	97.03
740.358	97.54
740.539	97.39
740.721	97.93
740.902	98.24
741.084	98.17
741.265	97.99
741.447	98.94
741.628	98.12
741.81	97.96
741.991	98.46
742.172	98.66
742.354	98.41
742.535	98.45
742.717	97.76
742.898	97.31
743.079	98.08
743.261	97.74
743.442	97.39
743.623	98.03
743.804	97.43
743.986	97.51
744.167	97.33
744.348	97.89
744.529	97.86
744.71	98.1
744.891	97.03
745.073	97.38
745.254	98.4
745.435	98.28
745.616	98.33
745.797	97.77
745.978	98.28
746.159	97.02
746.34	98.06
746.521	97.99
746.702	99.51
746.883	98.29
747.064	99.09
747.245	99.03
747.426	99.24
747.606	98.36
747.787	98.94
747.968	98.51
748.149	97.56
748.33	96.42
748.51	95.87
748.691	95.73
748.872	96.61
749.053	97.05
749.233	98.14
749.414	99.4
749.595	98.88
749.775	98.3
749.956	97.77
750.137	96.67
750.317	95.16
750.498	96
750.678	95.19
750.859	96.27
751.04	97.06
751.22	97.39
751.4	97.53
751.581	98.41
751.761	98.67
751.942	99.49
752.122	99.27
752.303	99.47
752.483	99.11
752.663	97.52
752.844	96.38
753.024	97.03
753.204	97.55
753.385	97.69
753.565	97.61
753.745	96.92
753.925	95.45
754.106	94.74
754.286	93.84
754.466	93.98
754.646	93.91
754.826	95.6
755.006	93.94
755.187	95.7
755.367	95.79
755.547	95.9
755.727	95.86
755.907	96.33
756.087	95.5
756.267	94.92
756.447	95.84
756.627	95.38
756.807	96.76
756.987	95.77
757.167	96.13
757.346	95.65
757.526	95.91
757.706	95.12
757.886	95.88
758.066	97.14
758.246	95.58
758.425	95.34
758.605	94.9
758.785	95.03
758.965	94.82
759.144	95.71
759.324	96.58
759.504	97.22
759.683	95.8
759.863	94.69
760.043	95.74
760.222	95.24
760.402	94.49
760.581	95.29
760.761	95.76
760.94	94.84
761.12	93.81
761.299	96.03
761.479	96.79
761.658	96.64
761.838	96.77
762.017	97.76
762.197	93.82
762.376	93.52
762.555	94.05
762.735	94.69
762.914	94.37
763.093	95.39
763.273	94.55
763.452	92.64
763.631	91.72
763.81	92.06
763.99	91.6
764.169	92.02
764.348	92.94
764.527	93.14
764.706	91.71
764.885	93.51
765.064	93.5
765.243	93.26
765.423	94.04
765.602	95.56
765.781	94.04
765.96	94.03
766.139	94.13
766.318	93.94
766.497	92.66
766.676	91.27
766.854	90.76
767.033	91.28
767.212	92.54
767.391	91.51
767.57	95.03
767.749	95.45
767.928	95.9
768.106	93.17
768.285	92.44
768.464	91.7
768.643	89.5
768.821	88
769	88.61
769.179	90.31
769.357	88.58
769.536	89.19
769.715	88.27
769.893	88.23
770.072	87.18
770.25	86.7
770.429	87.7
770.607	90.17
770.786	89.61
770.964	91.41
771.143	93.06
771.321	90.86
771.5	89.49
771.678	89.98
771.857	86.84
772.035	86.73
772.213	88.78
772.392	87.18
772.57	85.77
772.748	85.87
772.927	84.97
773.105	86.15
773.283	85.79
773.461	88.09
773.64	91.37
773.818	91.25
773.996	91.39
774.174	93.89
774.352	90.7
774.531	88.2
774.709	88.1
774.887	84.69
775.065	84.06
775.243	85.28
775.421	84.18
775.599	85.9
775.777	84.95
775.955	83.6
776.133	82.39
776.311	84.02
776.489	83.11
776.667	83.99
776.844	85.34
777.022	86.38
777.2	86.16
777.378	84.67
777.556	87.3
777.734	87.68
777.911	88.58
778.089	89.78
778.267	91.79
778.445	93.66
778.622	93.94
778.8	90.65
778.978	90.59
779.155	91.15
779.333	89.35
779.511	86.29
779.688	87.21
779.866	87.23
780.043	84.54
780.221	82.56
780.398	83
780.576	85.03
780.753	83.59
780.931	83.11
781.108	84.49
781.286	87.79
781.463	85.5
781.64	86.15
781.818	87.06
781.995	85.81
782.172	83.9
782.35	85.77
782.527	83.66
782.704	84.38
782.882	83.01
783.059	82.44
783.236	82.37
783.413	84.1
783.59	83.33
783.768	84.12
783.945	84.2
784.122	84.53
784.299	85.69
784.476	83.37
784.653	82.88
784.83	81.86
785.007	81.01
785.184	81.83
785.361	83.51
785.538	83.28
785.715	86.66
785.892	84.24
786.069	84.38
786.246	83.17
786.423	81.89
786.6	79.62
786.776	80.14
786.953	75.3
787.13	78.61
787.307	79.37
787.484	77.45
787.66	78.35
787.837	78.83
788.014	79.69
788.191	80.74
788.367	80.93
788.544	80.92
788.721	80.12
788.897	79.35
789.074	77.74
789.25	78.06
789.427	76.55
789.603	74.68
789.78	73.75
789.956	74.28
790.133	72.09
790.309	73.74
790.486	76.51
790.662	74.11
790.839	71.34
791.015	74.13
791.192	72.79
791.368	74.12
791.544	76.56
791.721	75.08
791.897	71.66
792.073	71.55
792.249	69.84
792.426	68.9
792.602	74.1
792.778	78.2
792.954	80.52
793.13	79.66
793.307	80.02
793.483	77.14
793.659	76.05
793.835	75.3
794.011	83.77
794.187	81.6
794.363	81.92
794.539	84.47
794.715	83.74
794.891	77.21
795.067	76.73
795.243	78.12
795.419	72.92
795.595	76.56
795.771	77.29
795.947	76.37
796.122	71.93
796.298	74.56
796.474	76.13
796.65	73.49
796.826	73.66
797.001	73.78
797.177	67.55
797.353	60.44
797.529	62.15
797.704	64.4
797.88	68.37
798.056	72.72
798.231	77.06
798.407	77.32
798.582	78.08
798.758	81.42
798.934	80.92
799.109	76.04
799.285	79.07
799.46	75.27
799.636	71.74
799.811	76.57
799.986	75.7
800.162	68.6
800.337	72.81
800.513	74.32
800.688	64.97
800.863	72.66
801.039	76.36
801.214	67.1
801.389	66.18
801.565	70.72
801.74	68.54
801.915	65.24
802.09	67.15
802.265	65.12
802.441	66.83
802.616	67.3
802.791	70.54
802.966	77.7
803.141	79.12
803.316	76.96
803.491	72.11
803.666	76.17
803.841	71.1
804.016	73.69
804.191	75.81
804.366	74.49
804.541	64.1
804.716	60.7
804.891	56.76
805.066	59.62
805.241	62.29
805.416	73.84
805.591	80.06
805.765	88.6
805.94	85.17
806.115	79.1
806.29	69.43
806.464	71.58
806.639	66.44
806.814	68.93
806.989	79.91
807.163	84.09
807.338	78.86
807.512	82.1
807.687	77.83
807.862	69.65
808.036	74.19
808.211	73.74
808.385	68.62
808.56	68.98
808.734	69.52
808.909	69.56
809.083	75.93
809.258	74.6
809.432	78.91
809.606	78.79
809.781	73.12
809.955	75.62
810.13	72.73
810.304	69.32
810.478	72.35
810.652	75.78
810.827	77.26
811.001	80.07
811.175	79.24
811.349	78.78
811.524	74.04
811.698	63.43
811.872	67.63
812.046	67.6
812.22	66.66
812.394	71.72
812.568	76.75
812.742	65.91
812.916	69.3
813.09	66.64
813.264	63.96
813.438	64.08
813.612	65.85
813.786	64.61
813.96	69.08
814.134	64.43
814.308	64.64
814.482	72.51
814.656	70.32
814.83	64.84
815.003	69.42
815.177	67.02
815.351	67.46
815.525	73.5
815.698	69.03
815.872	64.58
816.046	61.26
816.219	61.71
816.393	51.95
816.567	57.89
816.74	59.28
816.914	67.98
817.088	64.58
817.261	75.47
817.435	84.06
817.608	83.76
817.782	78.56
817.955	77.62
818.129	67.88
818.302	64.98
818.475	76.25
818.649	69.74
818.822	68.72
818.996	84.4
819.169	87.69
819.342	74.98
819.516	84.47
819.689	83.39
819.862	71.84
820.035	75.24
820.209	73.5
820.382	70.11
820.555	60.99
820.728	60.94
820.901	36.46
821.075	39.79
821.248	39.58
821.421	43.9
821.594	45.81
821.767	60.99
821.94	56.84
822.113	52.29
822.286	61.96
822.459	61.13
822.632	58.99
822.805	65.58
822.978	71.69
823.151	55.17
823.324	46.77
823.496	46.57
823.669	42.91
823.842	46.79
824.015	52.43
824.188	55.09
824.361	50.18
824.533	43.2
824.706	31.55
824.879	44.08
825.051	51.98
825.224	59.11
825.397	57.55
825.569	62.52
825.742	60.2
825.915	52.45
826.087	57.34
826.26	56.89
826.432	51.24
826.605	42.97
826.777	53.25
826.95	45.27
827.122	40.51
827.295	39.7
827.467	39.76
827.64	28.01
827.812	8.52
827.984	21.03
828.157	26.73
828.329	50.95
828.501	52.41
828.674	56.17
828.846	60.13
829.018	63.49
829.19	47.26
829.363	54.61
829.535	47.82
829.707	55.55
829.879	38.82
830.051	34.17
830.223	33.55
830.395	40.67
830.568	30.22
830.74	40.02
830.912	56.11
831.084	43.2
831.256	40.72
831.428	34.7
831.6	37.21
831.772	15.58
831.943	13.84
832.115	24.86
832.287	44.34
832.459	53.02
832.631	56.23
832.803	65.84
832.975	60.07
833.146	57.94
833.318	57.54
833.49	65.36
833.662	74.34
833.833	70.08
834.005	65.73
834.177	60.37
834.348	55.26
834.52	46.85
834.692	40.5
834.863	31.43
835.035	21.1
835.206	24.74
835.378	21.57
835.549	26.85
835.721	32.51
835.892	43.08
836.064	38.07
836.235	32.87
836.407	32.06
836.578	33.43
836.749	16.81
836.921	11.91
837.092	17.36
837.264	23.96
837.435	4.29
837.606	21.24
837.777	26.57
837.949	42.88
838.12	43.69
838.291	55.78
838.462	51.03
838.633	62.47
838.805	49.55
838.976	43.86
839.147	47.2
839.318	53.64
839.489	32.33
839.66	46.71
839.831	55.96
840.002	43.58
840.173	48.04
840.344	48.62
840.515	35.39
840.686	33.16
840.857	44.62
841.028	38.87
841.199	41.57
841.369	37.33
841.54	19.65
841.711	26.98
841.882	21.13
842.053	32.36
842.223	36.06
842.394	38.17
842.565	20.43
842.736	36.54
842.906	38.05
843.077	52.34
843.248	68.86
843.418	66.66
843.589	41.28
843.759	38.4
843.93	34.73
844.101	0.51
844.271	18.51
844.442	68.62
844.612	52.27
844.783	32.73
844.953	54.07
845.123	45.56
845.294	31.3
845.464	38.48
845.635	57.35
845.805	20.69
845.975	7.91
846.146	-0.54
846.316	3.15
846.486	17.72
846.656	48.34
846.827	55.41
846.997	69.46
847.167	59.45
847.337	54.19
847.507	42.64
847.677	32.83
847.848	42.56
848.018	46.83
848.188	48.89
848.358	46.23
848.528	63.6
848.698	28.14
848.868	39.39
849.038	22.46
849.208	32.32
849.378	12.1
849.548	3.69
849.718	-13.11
849.887	20.05
850.057	14.52
850.227	27.91
850.397	42.05
850.567	26.22
850.737	18.6
850.906	-21.75
851.076	-13.07
851.246	-7.13
851.415	-20.57
851.585	-30.23
851.755	21.11
851.924	42.46
852.094	56.64
852.264	68.69
852.433	61.55
852.603	42.03
852.772	60.5
852.942	59.88
853.111	53.56
853.281	63.94
853.45	50.4
853.62	23.04
853.789	-0.41
853.959	12.72
854.128	17.39
854.297	41.48
854.467	41.11
854.636	58.89
854.805	59.7
854.975	36.91
855.144	20.43
855.313	34.28
855.482	-16.66
855.652	-47.82
855.821	-22.81
855.99	-17.88
856.159	-8.66
856.328	1.78
856.497	36.88
856.667	32.1
856.836	46.04
857.005	35.94
857.174	45.48
857.343	8.87
857.512	15.62
857.681	10.6
857.85	10.92
858.019	-24.23
858.188	0.15
858.356	12.3
858.525	12.74
858.694	22.54
858.863	24.4
859.032	24.27
859.201	4.5
859.369	30.26
859.538	33.73
859.707	34.71
859.876	66.81
860.044	83.59
860.213	88.38
860.382	87.9
860.55	87.12
860.719	73.37
860.888	55.92
861.056	19.43
861.225	24.85
861.393	45.19
861.562	15.68
861.73	17.17
861.899	8.45
862.067	-6.62
862.236	-30.73
862.404	-5.49
862.572	-25.88
862.741	-38.14
862.909	-41.47
863.078	-20.21
863.246	-17.47
863.414	-9.46
863.582	-0.83
863.751	-8.31
863.919	-2.28
864.087	-2.87
864.255	29.42
864.424	33.71
864.592	44.49
864.76	32.05
864.928	54.64
865.096	27.75
865.264	23.06
865.432	41.08
865.6	70.23
865.768	3.41
865.936	20.71
866.104	29.59
866.272	-39.6
866.44	-19.28
866.608	18.66
866.776	39.69
866.944	43.06
867.112	50.58
867.28	58.23
867.448	58
867.615	38.41
867.783	31.01
867.951	15.69
868.119	-2.13
868.286	-14.75
868.454	-3.3
868.622	-7.47
868.789	-0.19
868.957	7.46
869.125	16.11
869.292	1.38
869.46	38.84
869.627	40.84
869.795	24.53
869.963	21.65
870.13	17.5
870.298	-21.25
870.465	6.57
870.632	0.12
870.8	-8.71
870.967	-17.02
871.135	-20.88
871.302	-37.47
871.469	-18.27
871.637	-10.7
871.804	25.28
871.971	28.58
872.139	40.43
872.306	0.13
872.473	-18.34
872.64	-38
872.807	-131.29
872.975	-425.84
873.142	-85.15
873.309	-52.7
873.476	-10.7
873.643	27.83
873.81	37.3
873.977	15.08
874.144	23.46
874.311	-46.84
874.478	-100.32
874.645	-91.14
874.812	-17.41
874.979	-17.83
875.146	-13.29
875.313	-17.41
875.48	-5.39
875.647	-16.25
875.813	-80.35
875.98	-79.09
876.147	-96.08
876.314	-45.4
876.481	-74.25
876.647	9.84
876.814	20.47
876.981	48.29
877.147	68.62
877.314	87.77
877.481	81.25
877.647	103.84
877.814	74.58
877.98	58.65
878.147	62.3
878.314	62.33
878.48	40.55
878.647	38.5
878.813	57.87
878.979	46.51
879.146	80.29
879.312	96.73
879.479	85.27
879.645	41.73
879.811	20.8
879.978	8.76
880.144	12.85
880.31	25.89
880.477	35.89
880.643	31.28
880.809	-34.24
880.975	-113.4
881.142	-190.42
881.308	551.82
881.474	960.17
881.64	-166.29
881.806	-137.2
881.972	-70.53
882.138	2.18
882.304	38.03
882.47	22.02
882.636	20.86
882.802	-7.59
882.968	-30.66
883.134	-20.52
883.3	-6.61
883.466	18.9
883.632	75.49
883.798	86.72
883.964	107.62
884.129	274.24
884.295	95
884.461	22.11
884.627	23.14
884.793	6.99
884.958	31.96
885.124	23.03
885.29	-22.46
885.455	-38.21
885.621	43.7
885.787	0.16
885.952	-50.73
886.118	18.64
886.283	-1.83
886.449	-40.35
886.614	-32.74
886.78	4.66
886.945	-0.31
887.111	24.45
887.276	19.18
887.442	13.49
887.607	-5.99
887.773	-0.61
887.938	-19.19
888.103	-1.78
888.269	29.54
888.434	45.9
888.599	27.73
888.764	37.98
888.93	31.3
889.095	1.96
889.26	-36.02
889.425	-19.17
889.59	-69.18
889.756	-35.71
889.921	-9.06
890.086	-14.61
890.251	-12.53
890.416	12.13
890.581	-8.73
890.746	-3.56
890.911	35.6
891.076	20.25
891.241	14.48
891.406	9.17
891.571	8.95
891.736	-109.32
891.901	-20.77
892.065	-8.5
892.23	26.07
892.395	5.13
892.56	32.28
892.725	58.29
892.889	81.54
893.054	25.05
893.219	-18.4
893.384	-108.97
893.548	-149.37
893.713	-209.37
893.878	-371.75
