Data from Ofra_PS_T2_2A_2CX13_Reflection_1.txt Node
Date: Wed Jul 21 17:30:04 EDT 2021
User: Adam
Spectrometer: FLMT01687
Trigger mode: 0
Integration Time (sec): 1.100000E0
Scans to average: 2
Electric dark correction enabled: true
Nonlinearity correction enabled: false
Boxcar width: 2
XAxis mode: Wavelengths
Number of Pixels in Spectrum: 3648
>>>>>Begin Spectral Data<<<<<
179.494	640.4
179.716	698.35
179.937	651.51
180.158	625.62
180.38	949.06
180.601	185.91
180.823	66.88
181.044	-154.74
181.265	-81.25
181.486	11.39
181.708	133.83
181.929	662.24
182.15	-685.21
182.372	-19.43
182.593	-24.22
182.814	10.76
183.035	43.22
183.257	90.93
183.478	27.98
183.699	46.11
183.92	-1.81
184.141	-11.32
184.363	-136.36
184.584	-63.75
184.805	-56.42
185.026	-18.14
185.247	-14.27
185.468	-7.62
185.689	-10.99
185.91	-11.71
186.132	2.44
186.353	13.02
186.574	51.02
186.795	48.84
187.016	1.25
187.237	-37.06
187.458	-94.91
187.679	-88.46
187.9	-91.52
188.121	-63.99
188.342	-58.04
188.563	31.56
188.784	90.19
189.005	73.26
189.226	115.77
189.447	98.64
189.667	-128.4
189.888	-547.04
190.109	-1656.49
190.33	-1120.97
190.551	-1850.88
190.772	-428.69
190.993	-334.49
191.214	-287.01
191.434	-173.4
191.655	-64.11
191.876	-161.55
192.097	-240.3
192.318	-276.74
192.538	-319.5
192.759	-258.19
192.98	-102.01
193.201	-43.71
193.421	-26.6
193.642	-0.88
193.863	11.66
194.083	-9.98
194.304	-7.61
194.525	-5.93
194.745	-23.13
194.966	-47.85
195.187	-59
195.407	-79.5
195.628	-144.98
195.848	-146.51
196.069	-120.67
196.29	-57.57
196.51	-110.51
196.731	-104.96
196.951	-120.28
197.172	-146.03
197.392	-198.11
197.613	-174.62
197.833	-177.93
198.054	-163.71
198.274	-97.73
198.495	-103.05
198.715	-56.37
198.936	-70.91
199.156	-58.23
199.377	-166.56
199.597	-147.34
199.817	-160.93
200.038	-76.47
200.258	-131.19
200.479	-61.19
200.699	-82.24
200.919	-8.57
201.14	-54.1
201.36	-71.52
201.58	-4.02
201.801	44.37
202.021	10.79
202.241	10.59
202.461	14.04
202.682	-38.05
202.902	-146.48
203.122	-88.55
203.342	-76.1
203.563	-43.44
203.783	-30.65
204.003	-87.15
204.223	-97.6
204.443	-8.61
204.663	-13.75
204.884	5.22
205.104	60.86
205.324	95.32
205.544	66.16
205.764	57.66
205.984	60.34
206.204	52.37
206.424	23.79
206.644	-32.16
206.864	-26.98
207.084	-110.91
207.304	-89.73
207.525	-189.53
207.745	-80.02
207.964	-29.36
208.184	-58.68
208.404	-99.85
208.624	-95.92
208.844	-91.55
209.064	-345.74
209.284	-356.09
209.504	-166.7
209.724	-39.06
209.944	-31.48
210.164	-1.36
210.384	14.95
210.604	3.41
210.823	-31.93
211.043	-41.85
211.263	-27.76
211.483	-39.98
211.703	-89.86
211.922	-93.81
212.142	-17.96
212.362	-13.32
212.582	-21.07
212.801	-23.62
213.021	-38.95
213.241	-67.3
213.461	-108.09
213.68	-130.94
213.9	-95.21
214.12	-79.03
214.339	-158.29
214.559	-123.71
214.779	-51.85
214.998	-58.38
215.218	-103.42
215.438	-33.9
215.657	-57.16
215.877	-62.95
216.096	-8.85
216.316	16.82
216.535	-25.12
216.755	-18.46
216.974	-118.07
217.194	-191.73
217.413	-200.32
217.633	-185.28
217.852	-328.31
218.072	-130.83
218.291	-81.92
218.511	-30.08
218.73	-51.45
218.95	-37.09
219.169	-46.94
219.389	-89.3
219.608	-76.64
219.827	-48.43
220.047	-24.95
220.266	-7.42
220.485	-18.59
220.705	-3.32
220.924	-44.35
221.143	-7.27
221.363	-41.79
221.582	-26.74
221.801	-17.37
222.021	12.29
222.24	-65.85
222.459	-25.9
222.678	-22.23
222.897	-134.41
223.117	-185.6
223.336	-142.01
223.555	-77.93
223.774	-24.64
223.993	16.23
224.213	79.77
224.432	48.18
224.651	72.43
224.87	21.3
225.089	34.7
225.308	27.13
225.527	48.59
225.746	40.4
225.965	48.77
226.184	22.28
226.404	12.16
226.623	-15.53
226.842	-26.23
227.061	2.06
227.28	11.54
227.499	-1.94
227.718	10.01
227.936	1.52
228.155	-11.11
228.374	-29.32
228.593	2.34
228.812	-10.94
229.031	-7.76
229.25	-48.83
229.469	-45.91
229.688	-37.93
229.907	-1.18
230.125	-3.27
230.344	18.63
230.563	25.76
230.782	24.34
231.001	-60.15
231.22	-52.99
231.438	-35.4
231.657	-32.01
231.876	-59.9
232.095	16.87
232.313	26.07
232.532	6.12
232.751	1.19
232.969	-7.8
233.188	-106.26
233.407	-33.9
233.625	-22.91
233.844	-24.08
234.063	-14.34
234.281	-2.64
234.5	-23.64
234.719	-15.35
234.937	-13.51
235.156	-5.33
235.374	-3.2
235.593	-19.51
235.811	-28.74
236.03	-45.69
236.249	-118.25
236.467	-82.45
236.686	-26.09
236.904	-20.62
237.123	-39.98
237.341	-28.74
237.559	-23
237.778	-56.24
237.996	-80.01
238.215	-33.83
238.433	-10.26
238.652	-33.25
238.87	-26.76
239.088	-7.46
239.307	-3.39
239.525	-20.15
239.743	-41.71
239.962	-55.39
240.18	-99.15
240.398	-166.3
240.617	-161.52
240.835	-148.3
241.053	-107.29
241.271	-20.25
241.49	11.49
241.708	-6.58
241.926	-22.4
242.144	-38.34
242.363	-115.06
242.581	-143.67
242.799	-103.38
243.017	-35.53
243.235	-41.28
243.453	-13.54
243.672	-11.64
243.89	0.89
244.108	-19.14
244.326	-5.51
244.544	-9.22
244.762	-20.04
244.98	-17.14
245.198	-24.33
245.416	-55.36
245.634	-61.12
245.852	-72.52
246.07	-111.77
246.288	-96.48
246.506	-108.92
246.724	-65.41
246.942	-47.72
247.16	-15.94
247.378	-6.26
247.596	24.36
247.814	14.51
248.032	-2.05
248.25	-0.71
248.468	-11.55
248.685	-22.81
248.903	-1
249.121	0.94
249.339	-30.72
249.557	-37.71
249.775	-24.1
249.992	-99.46
250.21	-100.29
250.428	-71.67
250.646	-99.28
250.863	-137.34
251.081	-97.43
251.299	-101.96
251.517	-101.83
251.734	-78.13
251.952	-62.34
252.17	-53.89
252.387	-21.08
252.605	-27.67
252.823	-16.19
253.04	7.16
253.258	25.65
253.475	-15.6
253.693	19.21
253.911	3.35
254.128	9.53
254.346	10.8
254.563	4.74
254.781	-20.26
254.998	-20.35
255.216	-34.37
255.433	-35.38
255.651	17.01
255.868	59.32
256.086	78.13
256.303	60.47
256.521	41.63
256.738	15.47
256.956	-41
257.173	-85.62
257.39	-107.01
257.608	-124.7
257.825	-75.32
258.043	-31.48
258.26	-11.38
258.477	46.43
258.695	38.2
258.912	-16.18
259.129	-7.92
259.346	-38.35
259.564	-87.67
259.781	-114.86
259.998	-46.21
260.216	-22.99
260.433	24.33
260.65	17.57
260.867	45.26
261.084	21.21
261.302	-4.07
261.519	-16.73
261.736	-46.09
261.953	-69.47
262.17	-27.76
262.387	-62.23
262.604	-97.54
262.822	-92.85
263.039	-98.32
263.256	-151.78
263.473	-87.56
263.69	-48.93
263.907	3.22
264.124	5.84
264.341	3.35
264.558	-16.47
264.775	-1.34
264.992	-27.49
265.209	-6.79
265.426	31.59
265.643	46
265.86	45.72
266.077	66.15
266.294	55.27
266.51	-11.51
266.727	-21.07
266.944	-18.86
267.161	-51.1
267.378	-37.57
267.595	1.37
267.812	-22.79
268.028	-49.46
268.245	-17.11
268.462	-42.36
268.679	-60.12
268.896	-5.56
269.112	3.84
269.329	-0.18
269.546	13.45
269.763	9.01
269.979	-17.74
270.196	-24.06
270.413	-58.14
270.629	-87.44
270.846	-84.72
271.063	-85.54
271.279	-102.37
271.496	-101.6
271.712	-57.22
271.929	-40.52
272.146	-34.38
272.362	-28.95
272.579	19.68
272.795	36.33
273.012	20.97
273.228	33.92
273.445	8.44
273.661	-39.04
273.878	-86.31
274.094	-74.57
274.311	-113.74
274.527	-29.34
274.744	-16.2
274.96	-19.93
275.177	-9.11
275.393	6.41
275.609	-7.11
275.826	17.76
276.042	7.17
276.259	7.42
276.475	24.43
276.691	22.76
276.908	-1.59
277.124	17.94
277.34	6.81
277.557	-9.18
277.773	-15.36
277.989	-21.46
278.205	-38.04
278.422	-11.22
278.638	-4.97
278.854	12.31
279.07	16.94
279.286	15.45
279.503	-19.36
279.719	-37.11
279.935	-74.82
280.151	-81.53
280.367	-53.63
280.583	-88.92
280.799	-76.14
281.016	-102.04
281.232	-59.39
281.448	-61.65
281.664	-28.57
281.88	-54.34
282.096	-20.7
282.312	-10.43
282.528	3.66
282.744	7.95
282.96	10.16
283.176	4.33
283.392	1.39
283.608	-21.11
283.824	-29.08
284.04	-22.19
284.256	-20.66
284.471	-27.57
284.687	-19.22
284.903	-0.41
285.119	39.96
285.335	20.37
285.551	29.11
285.767	13.58
285.982	8.07
286.198	-45.58
286.414	6.03
286.63	4.63
286.846	34.24
287.061	8.79
287.277	36.19
287.493	-1.76
287.709	15.57
287.924	-18.23
288.14	18.97
288.356	7.03
288.571	30.72
288.787	7.46
289.003	11.93
289.218	-14.82
289.434	-42.99
289.65	-37.48
289.865	-46.3
290.081	-6.68
290.296	7.91
290.512	-5.92
290.727	-31.24
290.943	-19.38
291.159	-41.2
291.374	-45.92
291.59	-48.23
291.805	-42.4
292.021	-42.95
292.236	-49.89
292.451	-32.86
292.667	-21.14
292.882	7.62
293.098	-7.35
293.313	-20.24
293.529	-52.06
293.744	-67.7
293.959	-74.42
294.175	-59.26
294.39	-18.06
294.605	3.66
294.821	20.22
295.036	13.94
295.251	22.57
295.467	1.31
295.682	-6.16
295.897	-51.09
296.112	-59.55
296.328	-67.65
296.543	-104.41
296.758	-93.79
296.973	-17.43
297.188	21.27
297.404	-2.2
297.619	-1.6
297.834	-28.21
298.049	-68.14
298.264	-105.61
298.479	-26.35
298.694	-7.08
298.909	14.18
299.125	13.58
299.34	17.61
299.555	-23.86
299.77	-17.65
299.985	-55.86
300.2	-105.83
300.415	-127.37
300.63	-78.91
300.845	-100.25
301.06	-107.5
301.275	-70.63
301.49	-30.63
301.704	-40.24
301.919	-52.37
302.134	-58.44
302.349	-54.49
302.564	-136.08
302.779	-199.21
302.994	-193.34
303.209	-108.31
303.423	-59.78
303.638	11.54
303.853	-14.69
304.068	-11.89
304.283	-7.47
304.497	-11.38
304.712	-19.02
304.927	-3.08
305.142	-14.33
305.356	-7.77
305.571	-19.45
305.786	-41.08
306	-61.7
306.215	-47.74
306.43	-80.2
306.644	-80.01
306.859	-11.41
307.074	-10.17
307.288	-37.07
307.503	-52.64
307.717	-46.74
307.932	-68.15
308.147	-64.87
308.361	-48.25
308.576	-46.42
308.79	-101.56
309.005	-74.24
309.219	-52.29
309.434	-43.26
309.648	-45.65
309.863	-3.8
310.077	3.14
310.292	1.95
310.506	-9.19
310.72	4.96
310.935	3.99
311.149	-17.65
311.364	-7.21
311.578	0.22
311.792	-19.44
312.007	-16.34
312.221	-24.44
312.435	-20.95
312.649	-29.93
312.864	-3.52
313.078	0.19
313.292	65.67
313.507	15.72
313.721	39.01
313.935	10.98
314.149	-4.44
314.363	-22.77
314.578	-17.59
314.792	-12.53
315.006	-20.9
315.22	6.87
315.434	9.92
315.648	14.42
315.862	16.22
316.077	19.2
316.291	-8.41
316.505	17.89
316.719	23.35
316.933	-15.3
317.147	-9.29
317.361	-88.08
317.575	-117.92
317.789	-162.1
318.003	-236.62
318.217	-184.03
318.431	-51.22
318.645	-11.67
318.859	-0.64
319.073	39.23
319.287	18.37
319.5	-10.84
319.714	-59.45
319.928	-86.89
320.142	-136.43
320.356	-73.44
320.57	-49.7
320.784	-53.52
320.997	-34.45
321.211	-17.09
321.425	-95.81
321.639	-101.97
321.853	-40.15
322.066	-31.87
322.28	-39.72
322.494	-27.53
322.707	-11.52
322.921	-22.03
323.135	-26.61
323.349	-7.1
323.562	-24.01
323.776	-50.3
323.989	-40.15
324.203	-63.24
324.417	-82.24
324.63	-94.88
324.844	-76.68
325.057	-100.31
325.271	-60.15
325.485	-18.37
325.698	11.75
325.912	28.62
326.125	-2.26
326.339	-8.05
326.552	-33.79
326.766	-39.12
326.979	-22.87
327.193	44.68
327.406	38.23
327.619	30.56
327.833	38.17
328.046	10.78
328.26	-32.86
328.473	-7.85
328.686	-40.15
328.9	-28.62
329.113	-9.44
329.326	-33.57
329.54	-49.96
329.753	-49.23
329.966	-98.11
330.179	-114.55
330.393	-70.84
330.606	-44.52
330.819	-12.71
331.032	1.8
331.246	8.43
331.459	34.4
331.672	16.57
331.885	-0.84
332.098	-21.77
332.311	-42.64
332.525	-105.15
332.738	-84.92
332.951	-37.32
333.164	-0.38
333.377	15.54
333.59	42.31
333.803	49.63
334.016	28.16
334.229	22.5
334.442	5.99
334.655	4.88
334.868	0.58
335.081	-6.31
335.294	-13.65
335.507	-1.79
335.72	-17.93
335.933	-34.86
336.146	-30.47
336.359	-25.25
336.572	-47.42
336.785	-64.31
336.997	-56.79
337.21	-37.35
337.423	-33.15
337.636	-34.32
337.849	-4.2
338.062	-10.04
338.274	-13
338.487	-30.82
338.7	-30.03
338.913	-90.26
339.125	-99.03
339.338	-161.94
339.551	-137.18
339.763	-86.16
339.976	-44.84
340.189	-15.21
340.402	5.47
340.614	-1.58
340.827	-10.42
341.039	-30.94
341.252	-47.06
341.465	-26.53
341.677	-38.5
341.89	-83.53
342.102	-35.29
342.315	-46.42
342.527	-97.76
342.74	-70.49
342.952	-28.19
343.165	-34.34
343.377	-2.51
343.59	-6.4
343.802	13.01
344.015	20.01
344.227	32.37
344.44	21.18
344.652	30.41
344.864	0.74
345.077	12.77
345.289	11.24
345.502	15.48
345.714	2.35
345.926	16.75
346.139	14.68
346.351	13.95
346.563	12.93
346.775	26.91
346.988	10.91
347.2	-16.15
347.412	-62.01
347.624	-74.32
347.837	-86.36
348.049	-76.35
348.261	-35.71
348.473	-17.17
348.685	-27.22
348.897	-22.56
349.11	-28.81
349.322	-45.47
349.534	-35.16
349.746	-15.8
349.958	-13.6
350.17	-21.52
350.382	-16.65
350.594	-19.97
350.806	-37.49
351.018	-41.08
351.23	-42.2
351.442	-87.49
351.654	-108.74
351.866	-79.15
352.078	-62.47
352.29	-36.22
352.502	-13.41
352.714	7.28
352.926	-8.6
353.138	-12.57
353.35	-29.23
353.561	-21.56
353.773	-49.05
353.985	-24.11
354.197	-35.14
354.409	-33.05
354.621	-47.6
354.832	-24.29
355.044	-42.05
355.256	-29.28
355.468	-7.51
355.679	-10.39
355.891	-10.74
356.103	-20.35
356.314	-16.07
356.526	-26.5
356.738	-2.56
356.949	-10.92
357.161	21.65
357.373	13.99
357.584	2.01
357.796	3.85
358.008	-4.67
358.219	0.25
358.431	-0.43
358.642	5.18
358.854	-9.18
359.065	-19.34
359.277	-56.62
359.488	-76.96
359.7	-102.01
359.911	-111.21
360.123	-80.63
360.334	-82.1
360.546	-100.91
360.757	-92.19
360.969	-85.19
361.18	-80.77
361.391	-64.24
361.603	-49.61
361.814	-25
362.025	-8.44
362.237	-7.7
362.448	-1.74
362.659	18.09
362.871	2.58
363.082	-12.42
363.293	-14.58
363.504	-25.69
363.716	-76.47
363.927	-83.41
364.138	-98.46
364.349	-105.98
364.56	-84.83
364.772	-54.91
364.983	-25.45
365.194	-19.76
365.405	-5.63
365.616	12.04
365.827	6.31
366.038	-27.43
366.25	-36.47
366.461	-73.96
366.672	-55.35
366.883	-25.34
367.094	-9.09
367.305	-5.22
367.516	11.56
367.727	-21.24
367.938	-41.32
368.149	-47.47
368.36	-36.58
368.571	-39.65
368.781	-44.09
368.992	-43.07
369.203	-61.15
369.414	-82.91
369.625	-91.84
369.836	-75.38
370.047	-95.6
370.258	-67.95
370.468	-63.45
370.679	-77.13
370.89	-79
371.101	-55.98
371.312	-61.86
371.522	-50.6
371.733	-30.17
371.944	-14.35
372.155	-17.23
372.365	-16.46
372.576	-28.68
372.787	-27.57
372.997	-58.94
373.208	-46.71
373.419	-17.64
373.629	-33.22
373.84	-47.65
374.05	-46.5
374.261	-46.51
374.472	-75.98
374.682	-18.31
374.893	-19.74
375.103	24.64
375.314	14.05
375.524	8.64
375.735	2.5
375.945	22.37
376.156	-17.29
376.366	-10.79
376.577	-8.01
376.787	-18.38
376.997	-17.01
377.208	-11.69
377.418	-20.03
377.629	-2.15
377.839	-2.81
378.049	-10.61
378.26	2.26
378.47	12.22
378.68	-1.86
378.89	-1.94
379.101	-3.81
379.311	-23.27
379.521	-58.65
379.732	-51.47
379.942	-42.24
380.152	-62.43
380.362	-35.95
380.572	-22.25
380.783	-8.44
380.993	-5.55
381.203	13.5
381.413	24.9
381.623	27.81
381.833	18.39
382.043	6.98
382.253	-6.8
382.463	-8.61
382.674	-19.9
382.884	-34.05
383.094	-32.7
383.304	-28.75
383.514	-24.53
383.724	-7.21
383.934	-12.56
384.144	-23.62
384.353	-28.87
384.563	-35.13
384.773	-34.31
384.983	-43.3
385.193	-19.32
385.403	-17.45
385.613	-18.07
385.823	-30.34
386.033	-16.54
386.242	-23.89
386.452	-22.55
386.662	-28.38
386.872	-13.94
387.082	-17.6
387.291	-29.66
387.501	-29.73
387.711	-22.97
387.921	-31.45
388.13	-29.2
388.34	-9.42
388.55	-14.87
388.759	-13.59
388.969	-6.64
389.179	-5.3
389.388	-11.04
389.598	-1.01
389.807	-9.64
390.017	-14.99
390.227	-13.43
390.436	-14.82
390.646	-14.44
390.855	-6.65
391.065	-5.72
391.274	-7.08
391.484	-8.88
391.693	-8.07
391.903	-8.8
392.112	-1.25
392.322	1.66
392.531	6.55
392.74	6.31
392.95	1.88
393.159	0.07
393.369	-2.64
393.578	-4.19
393.787	-5.47
393.997	-1.93
394.206	-5.7
394.415	-3.6
394.625	-3.76
394.834	-4.47
395.043	-3.03
395.252	-0.55
395.462	0.7
395.671	2.43
395.88	3.82
396.089	3.74
396.298	2.65
396.508	1.89
396.717	0.6
396.926	1.35
397.135	0.04
397.344	0.52
397.553	0.94
397.762	2.68
397.971	1.68
398.181	2.83
398.39	2.46
398.599	2.21
398.808	1.66
399.017	2.95
399.226	3.96
399.435	5.38
399.644	5.49
399.853	4.5
400.062	4.2
400.27	3.37
400.479	2.36
400.688	1.67
400.897	2
401.106	1.89
401.315	1.44
401.524	1.61
401.733	2.42
401.941	2.96
402.15	3.06
402.359	3.15
402.568	3.53
402.777	3.59
402.985	3.3
403.194	2.96
403.403	3.16
403.612	2.58
403.82	2.32
404.029	2.47
404.238	2.5
404.446	2.72
404.655	2.6
404.864	2.68
405.072	2.35
405.281	2.59
405.489	2.27
405.698	2.39
405.906	2.35
406.115	2.37
406.324	2.18
406.532	2.32
406.741	2.6
406.949	2.43
407.158	2.49
407.366	2.57
407.574	2.53
407.783	2.48
407.991	2.38
408.2	2.61
408.408	2.58
408.617	2.49
408.825	2.33
409.033	2.52
409.242	2.54
409.45	2.72
409.658	2.69
409.867	2.82
410.075	2.69
410.283	2.48
410.491	2.26
410.7	2.23
410.908	2.19
411.116	2.56
411.324	2.55
411.533	2.44
411.741	2.7
411.949	2.56
412.157	2.12
412.365	2.14
412.573	2.22
412.781	2.17
412.99	2.2
413.198	2.45
413.406	2.52
413.614	2.58
413.822	2.35
414.03	2.23
414.238	2.01
414.446	2.07
414.654	1.83
414.862	1.93
415.07	2.16
415.278	2.41
415.486	2.13
415.694	2.31
415.902	2.24
416.109	2.07
416.317	1.94
416.525	1.93
416.733	1.85
416.941	1.88
417.149	1.85
417.357	1.86
417.564	2.12
417.772	2.27
417.98	2.3
418.188	2.45
418.395	2.58
418.603	2.58
418.811	2.26
419.019	2.26
419.226	2.37
419.434	2.3
419.642	2.07
419.849	2.37
420.057	2.38
420.265	2.38
420.472	2.21
420.68	2.34
420.887	2.11
421.095	2.14
421.302	1.97
421.51	2.05
421.717	2.03
421.925	2.21
422.132	2.08
422.34	1.84
422.547	1.96
422.755	1.88
422.962	1.75
423.17	1.73
423.377	1.93
423.585	1.84
423.792	1.83
423.999	1.9
424.207	1.86
424.414	1.98
424.621	2.1
424.829	2.16
425.036	2.13
425.243	2.28
425.451	2.05
425.658	1.72
425.865	1.78
426.072	1.76
426.28	1.89
426.487	1.92
426.694	2.19
426.901	1.98
427.108	2.02
427.315	1.94
427.523	2.29
427.73	2.17
427.937	2.28
428.144	2.07
428.351	2
428.558	2.11
428.765	2.14
428.972	2.09
429.179	2.35
429.386	2.64
429.593	2.24
429.8	2.04
430.007	2.14
430.214	2.08
430.421	1.69
430.628	1.62
430.835	1.55
431.042	1.74
431.249	1.81
431.456	1.89
431.662	1.89
431.869	2.07
432.076	1.93
432.283	2.05
432.49	2.2
432.697	2.32
432.903	2.13
433.11	2.09
433.317	2.04
433.524	2.18
433.73	2.08
433.937	2.38
434.144	2.33
434.35	2.24
434.557	2.02
434.764	2.1
434.97	2.09
435.177	2.28
435.384	2.33
435.59	2.39
435.797	2.63
436.003	2.64
436.21	2.61
436.416	2.61
436.623	2.53
436.829	2.53
437.036	2.59
437.242	2.59
437.449	2.61
437.655	2.66
437.862	2.56
438.068	2.5
438.275	2.56
438.481	2.68
438.687	2.63
438.894	2.69
439.1	2.7
439.307	2.79
439.513	2.69
439.719	2.82
439.926	2.84
440.132	2.77
440.338	2.71
440.544	2.8
440.751	2.64
440.957	2.67
441.163	2.65
441.369	2.66
441.575	2.46
441.782	2.54
441.988	2.38
442.194	2.46
442.4	2.46
442.606	2.82
442.812	2.95
443.018	3.18
443.224	3.24
443.431	3.32
443.637	3.02
443.843	2.87
444.049	2.8
444.255	2.71
444.461	2.7
444.667	2.73
444.873	2.9
445.079	2.84
445.284	2.99
445.49	2.75
445.696	2.68
445.902	2.52
446.108	2.56
446.314	2.43
446.52	2.6
446.726	2.82
446.931	2.9
447.137	2.9
447.343	2.92
447.549	2.85
447.755	2.67
447.96	2.8
448.166	2.72
448.372	2.66
448.578	2.75
448.783	2.82
448.989	2.8
449.195	3.07
449.4	3.16
449.606	3.01
449.812	2.94
450.017	2.95
450.223	2.67
450.428	2.58
450.634	2.75
450.84	2.96
451.045	2.84
451.251	2.82
451.456	3.14
451.662	3.28
451.867	3.21
452.073	3.24
452.278	3.41
452.483	3.37
452.689	3.1
452.894	3.12
453.1	3.15
453.305	3.06
453.51	2.94
453.716	2.92
453.921	2.91
454.127	2.87
454.332	2.89
454.537	2.84
454.742	2.88
454.948	2.83
455.153	2.84
455.358	2.9
455.563	3.1
455.769	3.28
455.974	3.3
456.179	3.16
456.384	3.17
456.589	3.06
456.795	2.89
457	2.84
457.205	3.09
457.41	3.05
457.615	2.99
457.82	3.05
458.025	3.01
458.23	2.88
458.435	2.86
458.64	2.83
458.845	2.98
459.05	3
459.255	3.1
459.46	3.1
459.665	3.21
459.87	3.21
460.075	3.23
460.28	3.16
460.485	3.34
460.69	3.27
460.895	3.09
461.099	3.05
461.304	3.15
461.509	3.11
461.714	3.07
461.919	3.21
462.123	3.13
462.328	3.16
462.533	3
462.738	3.15
462.942	3.03
463.147	3.22
463.352	3.24
463.556	3.24
463.761	3.22
463.966	3.23
464.17	3.16
464.375	3.04
464.58	3.11
464.784	3.08
464.989	3.1
465.193	3.14
465.398	3.22
465.602	3.32
465.807	3.28
466.011	3.39
466.216	3.47
466.42	3.52
466.625	3.57
466.829	3.68
467.034	3.69
467.238	3.83
467.443	3.79
467.647	3.6
467.851	3.6
468.056	3.64
468.26	3.48
468.464	3.5
468.669	3.64
468.873	3.77
469.077	3.75
469.282	3.83
469.486	3.9
469.69	3.92
469.894	3.73
470.099	3.76
470.303	3.86
470.507	3.81
470.711	3.74
470.915	3.71
471.119	3.7
471.324	3.67
471.528	3.66
471.732	3.81
471.936	3.92
472.14	3.99
472.344	3.95
472.548	4.02
472.752	4.21
472.956	4.49
473.16	4.47
473.364	4.39
473.568	4.4
473.772	4.28
473.976	4.05
474.18	3.99
474.384	4.12
474.588	4.07
474.792	3.97
474.995	4.09
475.199	4.25
475.403	4.29
475.607	4.35
475.811	4.47
476.015	4.49
476.218	4.59
476.422	4.51
476.626	4.65
476.83	4.69
477.033	4.67
477.237	4.47
477.441	4.52
477.644	4.51
477.848	4.43
478.052	4.4
478.255	4.52
478.459	4.5
478.663	4.54
478.866	4.66
479.07	4.72
479.273	4.87
479.477	4.99
479.681	4.95
479.884	4.88
480.088	4.87
480.291	4.75
480.495	4.81
480.698	4.79
480.901	4.91
481.105	5.01
481.308	5.02
481.512	4.93
481.715	5.06
481.919	5.11
482.122	5.13
482.325	5.18
482.529	5.21
482.732	5.21
482.935	5.13
483.138	5.07
483.342	5.14
483.545	5.33
483.748	5.34
483.952	5.38
484.155	5.55
484.358	5.58
484.561	5.43
484.764	5.4
484.967	5.51
485.171	5.5
485.374	5.34
485.577	5.43
485.78	5.49
485.983	5.43
486.186	5.35
486.389	5.39
486.592	5.41
486.795	5.43
486.998	5.37
487.201	5.4
487.404	5.56
487.607	5.65
487.81	5.62
488.013	5.77
488.216	5.77
488.419	5.71
488.622	5.57
488.825	5.51
489.028	5.41
489.231	5.36
489.433	5.29
489.636	5.28
489.839	5.27
490.042	5.24
490.245	5.28
490.447	5.38
490.65	5.39
490.853	5.46
491.056	5.51
491.258	5.5
491.461	5.54
491.664	5.65
491.866	5.6
492.069	5.67
492.272	5.67
492.474	5.67
492.677	5.73
492.879	5.79
493.082	5.92
493.285	6.07
493.487	6.03
493.69	5.91
493.892	5.88
494.095	5.75
494.297	5.64
494.5	5.69
494.702	5.77
494.905	5.82
495.107	5.82
495.309	5.89
495.512	5.93
495.714	6.02
495.917	6.05
496.119	6.1
496.321	6.13
496.524	6.16
496.726	6.1
496.928	6.12
497.13	6.06
497.333	6.07
497.535	6.05
497.737	6.02
497.939	6.05
498.142	6.11
498.344	6.09
498.546	6.01
498.748	6.09
498.95	6.22
499.152	6.23
499.355	6.25
499.557	6.42
499.759	6.56
499.961	6.44
500.163	6.49
500.365	6.56
500.567	6.62
500.769	6.51
500.971	6.59
501.173	6.55
501.375	6.61
501.577	6.48
501.779	6.47
501.981	6.53
502.183	6.59
502.385	6.54
502.587	6.57
502.788	6.7
502.99	6.73
503.192	6.73
503.394	6.75
503.596	6.8
503.798	6.82
503.999	6.86
504.201	6.91
504.403	6.95
504.605	6.99
504.806	6.93
505.008	6.91
505.21	7.04
505.411	7.12
505.613	7.14
505.815	7.18
506.016	7.22
506.218	7.27
506.42	7.3
506.621	7.42
506.823	7.48
507.024	7.51
507.226	7.47
507.427	7.42
507.629	7.39
507.83	7.48
508.032	7.49
508.233	7.57
508.435	7.66
508.636	7.79
508.838	7.72
509.039	7.74
509.24	7.75
509.442	7.79
509.643	7.7
509.845	7.78
510.046	7.89
510.247	7.91
510.448	7.9
510.65	8.02
510.851	8.17
511.052	8.17
511.254	8.19
511.455	8.34
511.656	8.39
511.857	8.42
512.058	8.4
512.26	8.41
512.461	8.44
512.662	8.48
512.863	8.4
513.064	8.41
513.265	8.46
513.466	8.45
513.667	8.44
513.868	8.52
514.069	8.63
514.27	8.73
514.471	8.7
514.672	8.76
514.873	8.76
515.074	8.8
515.275	8.65
515.476	8.67
515.677	8.65
515.878	8.75
516.079	8.68
516.28	8.82
516.481	8.94
516.682	8.95
516.882	8.86
517.083	8.9
517.284	8.88
517.485	8.78
517.686	8.77
517.886	8.86
518.087	8.91
518.288	8.92
518.488	8.95
518.689	8.98
518.89	8.9
519.091	8.95
519.291	8.99
519.492	9.13
519.692	9.23
519.893	9.36
520.094	9.33
520.294	9.37
520.495	9.32
520.695	9.28
520.896	9.29
521.096	9.3
521.297	9.33
521.497	9.35
521.698	9.37
521.898	9.31
522.099	9.34
522.299	9.43
522.499	9.46
522.7	9.54
522.9	9.59
523.101	9.68
523.301	9.68
523.501	9.62
523.702	9.61
523.902	9.73
524.102	9.81
524.302	9.77
524.503	9.87
524.703	9.88
524.903	9.86
525.103	9.81
525.304	9.92
525.504	10
525.704	10.08
525.904	10.07
526.104	10.06
526.304	10
526.504	9.97
526.705	9.95
526.905	10.04
527.105	10.04
527.305	10.06
527.505	10.02
527.705	10.06
527.905	10.07
528.105	10.14
528.305	10.17
528.505	10.27
528.705	10.36
528.905	10.28
529.105	10.28
529.304	10.38
529.504	10.49
529.704	10.42
529.904	10.49
530.104	10.49
530.304	10.54
530.503	10.46
530.703	10.45
530.903	10.45
531.103	10.5
531.303	10.41
531.502	10.45
531.702	10.6
531.902	10.75
532.101	10.76
532.301	10.82
532.501	10.88
532.7	10.83
532.9	10.8
533.1	10.8
533.299	10.82
533.499	10.82
533.698	10.79
533.898	10.8
534.097	10.85
534.297	10.97
534.496	11.02
534.696	11.09
534.895	11.19
535.095	11.3
535.294	11.24
535.494	11.2
535.693	11.23
535.892	11.22
536.092	11.14
536.291	11.17
536.491	11.3
536.69	11.38
536.889	11.36
537.088	11.4
537.288	11.48
537.487	11.53
537.686	11.57
537.886	11.66
538.085	11.76
538.284	11.9
538.483	11.88
538.682	11.93
538.882	11.93
539.081	12.01
539.28	11.92
539.479	11.94
539.678	11.94
539.877	12.1
540.076	12.11
540.275	12.16
540.474	12.33
540.673	12.38
540.872	12.36
541.071	12.4
541.27	12.45
541.469	12.4
541.668	12.45
541.867	12.47
542.066	12.54
542.265	12.67
542.464	12.7
542.663	12.79
542.862	12.96
543.06	13.07
543.259	13.09
543.458	13.2
543.657	13.25
543.856	13.28
544.054	13.28
544.253	13.32
544.452	13.33
544.651	13.44
544.849	13.43
545.048	13.51
545.247	13.58
545.445	13.7
545.644	13.69
545.843	13.77
546.041	13.81
546.24	13.89
546.438	13.98
546.637	14.11
546.836	14.26
547.034	14.39
547.233	14.52
547.431	14.57
547.63	14.59
547.828	14.62
548.027	14.67
548.225	14.65
548.423	14.64
548.622	14.78
548.82	14.84
549.019	14.85
549.217	15.02
549.415	15.17
549.614	15.28
549.812	15.35
550.01	15.41
550.209	15.47
550.407	15.56
550.605	15.62
550.803	15.74
551.002	15.92
551.2	16.04
551.398	16.22
551.596	16.43
551.794	16.53
551.993	16.62
552.191	16.71
552.389	16.78
552.587	16.8
552.785	16.9
552.983	17
553.181	17.15
553.379	17.31
553.577	17.4
553.775	17.55
553.973	17.71
554.171	17.83
554.369	17.87
554.567	17.97
554.765	18.06
554.963	18.19
555.161	18.2
555.359	18.32
555.557	18.56
555.755	18.68
555.952	18.84
556.15	18.97
556.348	19.08
556.546	19.16
556.744	19.26
556.941	19.37
557.139	19.53
557.337	19.61
557.535	19.69
557.732	19.93
557.93	20.1
558.128	20.28
558.325	20.47
558.523	20.63
558.721	20.78
558.918	20.82
559.116	20.86
559.313	21.01
559.511	21.18
559.708	21.17
559.906	21.24
560.104	21.43
560.301	21.6
560.498	21.69
560.696	21.87
560.893	22.04
561.091	22.21
561.288	22.32
561.486	22.49
561.683	22.56
561.88	22.71
562.078	22.83
562.275	22.91
562.473	23.03
562.67	23.33
562.867	23.52
563.064	23.64
563.262	23.8
563.459	23.9
563.656	24.08
563.853	24.19
564.051	24.36
564.248	24.53
564.445	24.73
564.642	24.78
564.839	24.98
565.036	25.13
565.234	25.39
565.431	25.57
565.628	25.78
565.825	25.95
566.022	26.16
566.219	26.17
566.416	26.21
566.613	26.32
566.81	26.38
567.007	26.39
567.204	26.52
567.401	26.66
567.598	26.7
567.795	26.85
567.991	26.99
568.188	27.14
568.385	27.3
568.582	27.41
568.779	27.55
568.976	27.65
569.172	27.85
569.369	27.92
569.566	28.09
569.763	28.22
569.96	28.26
570.156	28.23
570.353	28.33
570.55	28.42
570.746	28.44
570.943	28.66
571.14	28.67
571.336	28.7
571.533	28.76
571.729	28.7
571.926	28.66
572.123	28.8
572.319	28.91
572.516	28.93
572.712	29.11
572.909	29.21
573.105	29.27
573.302	29.3
573.498	29.43
573.695	29.49
573.891	29.53
574.087	29.56
574.284	29.6
574.48	29.56
574.677	29.6
574.873	29.67
575.069	29.87
575.266	30.01
575.462	29.96
575.658	30.09
575.854	30.21
576.051	30.1
576.247	30.06
576.443	30.21
576.639	30.08
576.835	29.92
577.032	29.97
577.228	30.07
577.424	30
577.62	29.87
577.816	30.06
578.012	30.07
578.208	29.93
578.404	30.01
578.6	30.21
578.796	30.14
578.993	30.2
579.189	30.19
579.384	30.08
579.58	30.03
579.776	29.95
579.972	29.75
580.168	29.73
580.364	29.86
580.56	29.8
580.756	29.86
580.952	29.91
581.148	30.01
581.343	30.03
581.539	30.1
581.735	30.04
581.931	30.05
582.127	30.07
582.322	29.98
582.518	29.96
582.714	29.99
582.909	29.92
583.105	29.82
583.301	29.77
583.496	29.81
583.692	29.71
583.888	29.74
584.083	29.86
584.279	29.9
584.474	29.89
584.67	29.97
584.866	29.97
585.061	29.76
585.257	29.75
585.452	29.65
585.648	29.62
585.843	29.61
586.039	29.68
586.234	29.75
586.429	29.73
586.625	29.84
586.82	29.87
587.015	29.9
587.211	29.78
587.406	29.93
587.601	29.84
587.797	29.76
587.992	29.69
588.187	29.86
588.383	29.84
588.578	29.89
588.773	30.06
588.968	30.1
589.163	30.06
589.359	30.02
589.554	30.05
589.749	30.08
589.944	30.22
590.139	30.27
590.334	30.35
590.529	30.38
590.724	30.38
590.919	30.46
591.114	30.46
591.309	30.48
591.504	30.52
591.699	30.51
591.894	30.58
592.089	30.61
592.284	30.74
592.479	30.9
592.674	30.98
592.869	30.98
593.064	31.13
593.259	31.2
593.454	31.2
593.648	31.27
593.843	31.38
594.038	31.43
594.233	31.41
594.428	31.51
594.622	31.66
594.817	31.77
595.012	31.8
595.206	31.9
595.401	31.92
595.596	31.97
595.79	32.08
595.985	32.24
596.18	32.4
596.374	32.5
596.569	32.56
596.763	32.55
596.958	32.67
597.153	32.69
597.347	32.78
597.542	33.04
597.736	33.12
597.931	33.2
598.125	33.31
598.319	33.56
598.514	33.45
598.708	33.62
598.903	33.7
599.097	33.82
599.291	33.81
599.486	33.87
599.68	33.87
599.874	34.02
600.069	33.96
600.263	33.95
600.457	34.06
600.651	34.05
600.846	34.09
601.04	34.26
601.234	34.35
601.428	34.43
601.622	34.59
601.817	34.7
602.011	34.77
602.205	34.91
602.399	34.89
602.593	35
602.787	34.98
602.981	34.9
603.175	34.93
603.369	34.9
603.563	34.8
603.757	34.87
603.951	34.98
604.145	34.96
604.339	35.15
604.533	35.04
604.727	34.83
604.921	34.79
605.115	34.7
605.309	34.69
605.502	34.73
605.696	34.78
605.89	34.75
606.084	34.59
606.278	34.48
606.471	34.48
606.665	34.35
606.859	34.17
607.053	34.28
607.246	34.21
607.44	34.14
607.634	34.08
607.827	34.15
608.021	33.94
608.214	33.86
608.408	33.84
608.602	33.89
608.795	33.76
608.989	33.7
609.182	33.6
609.376	33.57
609.569	33.42
609.763	33.24
609.956	33.11
610.15	33.02
610.343	32.82
610.537	32.64
610.73	32.72
610.923	32.76
611.117	32.72
611.31	32.69
611.504	32.62
611.697	32.37
611.89	32.26
612.083	32.17
612.277	32.17
612.47	32.08
612.663	32.14
612.856	32.07
613.05	31.89
613.243	31.73
613.436	31.61
613.629	31.48
613.822	31.35
614.015	31.29
614.209	31.19
614.402	31.15
614.595	31.22
614.788	31.1
614.981	31
615.174	30.78
615.367	30.67
615.56	30.43
615.753	30.4
615.946	30.39
616.139	30.49
616.332	30.57
616.525	30.52
616.718	30.53
616.911	30.51
617.103	30.34
617.296	30.24
617.489	30.09
617.682	29.94
617.875	29.8
618.067	29.78
618.26	29.63
618.453	29.73
618.646	29.76
618.838	29.72
619.031	29.76
619.224	29.66
619.417	29.67
619.609	29.7
619.802	29.63
619.994	29.56
620.187	29.6
620.38	29.42
620.572	29.26
620.765	29.32
620.957	29.11
621.15	29.08
621.342	29.01
621.535	28.99
621.727	28.94
621.92	28.88
622.112	28.76
622.305	28.87
622.497	28.8
622.69	28.67
622.882	28.75
623.074	28.82
623.267	28.72
623.459	28.68
623.651	28.69
623.844	28.65
624.036	28.65
624.228	28.56
624.42	28.53
624.613	28.62
624.805	28.54
624.997	28.48
625.189	28.38
625.381	28.33
625.574	28.2
625.766	28.12
625.958	28.06
626.15	28.21
626.342	28.22
626.534	28.14
626.726	28.18
626.918	28.15
627.11	28.03
627.302	28.01
627.494	28
627.686	27.97
627.878	27.89
628.07	27.9
628.262	27.79
628.454	27.75
628.646	27.8
628.838	27.81
629.029	27.72
629.221	27.76
629.413	27.61
629.605	27.33
629.797	27.25
629.989	27.26
630.18	27.15
630.372	27.18
630.564	27.23
630.755	27.22
630.947	27.2
631.139	27.06
631.33	26.97
631.522	27.05
631.714	27.01
631.905	26.93
632.097	26.97
632.289	26.94
632.48	26.85
632.672	26.77
632.863	26.62
633.055	26.6
633.246	26.68
633.438	26.6
633.629	26.64
633.821	26.72
634.012	26.61
634.203	26.49
634.395	26.54
634.586	26.58
634.777	26.44
634.969	26.51
635.16	26.56
635.351	26.5
635.543	26.41
635.734	26.42
635.925	26.37
636.117	26.38
636.308	26.34
636.499	26.31
636.69	26.36
636.881	26.26
637.073	26.25
637.264	26.25
637.455	26.27
637.646	26.38
637.837	26.45
638.028	26.3
638.219	26.36
638.41	26.33
638.601	26.1
638.792	26.1
638.983	26.14
639.174	26.01
639.365	26
639.556	26.05
639.747	25.93
639.938	26.01
640.129	26.02
640.32	25.88
640.511	25.92
640.701	26.14
640.892	26.04
641.083	26.01
641.274	26.09
641.465	25.98
641.655	25.75
641.846	25.79
642.037	25.78
642.228	25.71
642.418	25.8
642.609	25.78
642.8	25.77
642.99	25.71
643.181	25.69
643.372	25.61
643.562	25.6
643.753	25.5
643.943	25.46
644.134	25.37
644.324	25.32
644.515	25.36
644.705	25.37
644.896	25.35
645.086	25.42
645.277	25.42
645.467	25.35
645.658	25.27
645.848	25.23
646.038	25.16
646.229	25.15
646.419	25.08
646.61	25.01
646.8	24.99
646.99	24.99
647.18	24.92
647.371	24.89
647.561	24.87
647.751	24.88
647.941	24.68
648.132	24.74
648.322	24.68
648.512	24.75
648.702	24.78
648.892	24.9
649.082	24.78
649.272	24.7
649.462	24.58
649.653	24.47
649.843	24.38
650.033	24.39
650.223	24.37
650.413	24.39
650.603	24.36
650.793	24.36
650.983	24.31
651.172	24.27
651.362	24.12
651.552	24.01
651.742	23.91
651.932	23.79
652.122	23.68
652.312	23.7
652.502	23.57
652.691	23.54
652.881	23.41
653.071	23.4
653.261	23.23
653.45	23.07
653.64	23.05
653.83	22.91
654.019	22.8
654.209	22.7
654.399	22.73
654.588	22.41
654.778	22.36
654.968	22.09
655.157	22.01
655.347	21.76
655.536	21.7
655.726	21.46
655.915	21.27
656.105	21.01
656.294	20.85
656.484	20.52
656.673	20.39
656.863	20.38
657.052	20.17
657.241	19.88
657.431	19.59
657.62	19.35
657.809	18.86
657.999	18.51
658.188	18.25
658.377	18.09
658.567	17.77
658.756	17.58
658.945	17.41
659.134	17.24
659.324	17.01
659.513	16.74
659.702	16.48
659.891	16.21
660.08	15.92
660.269	15.86
660.458	15.63
660.648	15.5
660.837	15.28
661.026	15.17
661.215	14.76
661.404	14.51
661.593	14.38
661.782	14
661.971	13.82
662.16	13.63
662.349	13.5
662.538	13.12
662.726	13.13
662.915	12.77
663.104	12.57
663.293	12.45
663.482	12.52
663.671	12.34
663.86	12.21
664.048	12.09
664.237	11.9
664.426	11.55
664.615	11.38
664.803	11.27
664.992	11.07
665.181	10.95
665.369	10.8
665.558	10.69
665.747	10.49
665.935	10.53
666.124	10.46
666.312	10.41
666.501	10.26
666.69	10.06
666.878	9.85
667.067	9.68
667.255	9.68
667.444	9.93
667.632	10
667.82	10.01
668.009	9.94
668.197	9.82
668.386	9.54
668.574	9.66
668.762	9.5
668.951	9.45
669.139	9.32
669.327	9.2
669.516	9.1
669.704	9.07
669.892	9.21
670.08	9.34
670.269	9.28
670.457	9.23
670.645	9.19
670.833	9.15
671.021	9.1
671.21	9.16
671.398	9.33
671.586	9.36
671.774	9.26
671.962	9.25
672.15	9.3
672.338	9.12
672.526	9.11
672.714	9.06
672.902	9.05
673.09	9.16
673.278	9.48
673.466	9.59
673.654	9.88
673.842	9.94
674.03	9.95
674.218	9.72
674.405	9.74
674.593	9.67
674.781	9.8
674.969	9.86
675.157	10.08
675.344	10.41
675.532	10.51
675.72	10.65
675.908	10.78
676.095	10.67
676.283	10.64
676.471	10.96
676.658	11.04
676.846	11.13
677.033	11.39
677.221	11.52
677.409	11.34
677.596	11.41
677.784	11.51
677.971	11.64
678.159	11.76
678.346	11.92
678.534	12.06
678.721	12.28
678.909	12.3
679.096	12.38
679.283	12.62
679.471	12.9
679.658	13.02
679.846	13.36
680.033	13.62
680.22	13.65
680.408	13.67
680.595	13.72
680.782	13.66
680.969	13.78
681.157	13.94
681.344	14.14
681.531	14.42
681.718	14.78
681.905	15.06
682.093	15.48
682.28	15.66
682.467	16.13
682.654	16.34
682.841	16.51
683.028	16.72
683.215	17.07
683.402	16.97
683.589	17.34
683.776	17.75
683.963	17.89
684.15	18.17
684.337	18.58
684.524	18.85
684.711	19.29
684.898	19.58
685.085	19.91
685.271	20.46
685.458	20.83
685.645	20.96
685.832	21.59
686.019	22.34
686.205	22.75
686.392	23.21
686.579	23.68
686.766	24.13
686.952	24.36
687.139	25.1
687.326	25.58
687.512	26.22
687.699	26.88
687.886	27.47
688.072	27.71
688.259	28.38
688.445	29.09
688.632	29.55
688.818	30.5
689.005	31.33
689.191	31.86
689.378	32.71
689.564	33.56
689.751	34.08
689.937	34.65
690.124	35.5
690.31	35.92
690.496	36.6
690.683	37.27
690.869	37.83
691.055	38.66
691.242	39.45
691.428	40.17
691.614	41.01
691.8	41.79
691.987	42.45
692.173	43.17
692.359	43.8
692.545	44.48
692.731	45.17
692.918	45.79
693.104	46.44
693.29	47.38
693.476	47.92
693.662	48.85
693.848	49.64
694.034	50.34
694.22	50.91
694.406	51.94
694.592	52.67
694.778	53.56
694.964	54.34
695.15	55.01
695.336	55.49
695.522	56.37
695.708	56.93
695.894	57.82
696.08	58.65
696.265	59.34
696.451	59.98
696.637	60.52
696.823	60.99
697.009	61.51
697.194	62.19
697.38	62.47
697.566	63.27
697.751	63.91
697.937	64.49
698.123	64.97
698.308	65.77
698.494	66.22
698.68	66.63
698.865	67.16
699.051	67.72
699.236	68.01
699.422	68.59
699.607	68.9
699.793	69.43
699.978	69.68
700.164	70.22
700.349	70.8
700.535	71.61
700.72	71.7
700.906	72.69
701.091	73.1
701.276	73.35
701.462	73.89
701.647	74.77
701.832	74.71
702.018	75.07
702.203	75.4
702.388	75.28
702.573	75.61
702.759	76.38
702.944	76.64
703.129	76.55
703.314	77.35
703.499	77.37
703.684	77.44
703.87	78.72
704.055	79.73
704.24	79.66
704.425	80.45
704.61	80.79
704.795	80.23
704.98	80.1
705.165	80.27
705.35	80.11
705.535	80.4
705.72	80.88
705.905	81.53
706.09	82.09
706.275	82.28
706.459	82.26
706.644	82.19
706.829	82.39
707.014	82.03
707.199	82.71
707.384	82.86
707.568	83.08
707.753	83.41
707.938	83.86
708.123	83.39
708.307	83.4
708.492	83.46
708.677	83.12
708.861	83.06
709.046	82.92
709.231	83.59
709.415	84.11
709.6	84.38
709.784	84.69
709.969	85.2
710.153	84.87
710.338	84.57
710.522	84.49
710.707	84.97
710.891	85.05
711.076	85.52
711.26	85.56
711.445	85.88
711.629	86.09
711.813	86.36
711.998	86.4
712.182	86.46
712.366	86.93
712.551	87.24
712.735	87.56
712.919	87.37
713.103	87.79
713.288	87.58
713.472	86.96
713.656	87.24
713.84	87.38
714.024	87.41
714.208	87.14
714.393	87.8
714.577	87.76
714.761	88.15
714.945	88.24
715.129	88.49
715.313	88.5
715.497	88.54
715.681	89.09
715.865	88.76
716.049	89.11
716.233	88.87
716.417	88.94
716.601	88.49
716.785	89.1
716.968	88.9
717.152	89.21
717.336	89.29
717.52	89.08
717.704	88.96
717.888	89.56
718.071	89.52
718.255	89.93
718.439	89.84
718.622	90.04
718.806	90
718.99	89.45
719.174	88.58
719.357	88.91
719.541	89.12
719.724	89.16
719.908	90.23
720.092	90.87
720.275	91.11
720.459	90.96
720.642	90.56
720.826	89.67
721.009	89.55
721.193	89.09
721.376	89.22
721.559	89.79
721.743	90.65
721.926	90.97
722.11	91.29
722.293	90.82
722.476	90.56
722.66	90.13
722.843	89.74
723.026	89.74
723.21	90.13
723.393	90.56
723.576	90.65
723.759	90.45
723.942	90.76
724.126	90.41
724.309	90.19
724.492	90.27
724.675	90.71
724.858	91.02
725.041	92.15
725.224	92.08
725.407	92.01
725.59	92.45
725.774	91.91
725.957	91.06
726.14	90.85
726.322	91.45
726.505	90.75
726.688	91.79
726.871	92.16
727.054	92.36
727.237	92.2
727.42	92.83
727.603	92.17
727.786	92.03
727.968	92.52
728.151	92.46
728.334	92.34
728.517	92.82
728.699	93.25
728.882	93.18
729.065	93.56
729.248	94.26
729.43	94.27
729.613	94.99
729.796	95.74
729.978	94.9
730.161	93.95
730.343	94
730.526	94.12
730.708	93.01
730.891	93.96
731.073	94.23
731.256	93.74
731.438	93.46
731.621	94.32
731.803	94.1
731.986	93.99
732.168	93.81
732.35	93.76
732.533	93.64
732.715	93.57
732.898	94.57
733.08	94.42
733.262	95.1
733.444	95.07
733.627	96.13
733.809	96.72
733.991	98.61
734.173	97.17
734.355	97.32
734.538	96.73
734.72	95.69
734.902	95.35
735.084	96.1
735.266	95.54
735.448	96.21
735.63	96.77
735.812	96.4
735.994	97.47
736.176	98.22
736.358	97.71
736.54	98.69
736.722	98
736.904	97.25
737.086	96.93
737.268	97.8
737.45	96.54
737.632	96.87
737.814	96.29
737.995	96.69
738.177	96.1
738.359	95.51
738.541	96.11
738.723	96.25
738.904	96.93
739.086	97.13
739.268	97.67
739.449	97.65
739.631	97.59
739.813	97.37
739.994	97.48
740.176	97.54
740.358	97.6
740.539	99
740.721	98.91
740.902	99.75
741.084	99.48
741.265	99.33
741.447	99.57
741.628	100.33
741.81	99.21
741.991	100.83
742.172	101.66
742.354	101.05
742.535	99.97
742.717	99.89
742.898	99.47
743.079	99.16
743.261	98.68
743.442	97.66
743.623	99.03
743.804	98.89
743.986	99.34
744.167	98.13
744.348	98.14
744.529	97.55
744.71	96.1
744.891	95.06
745.073	94.93
745.254	95.54
745.435	94.74
745.616	94.83
745.797	95.69
745.978	96.63
746.159	96.92
746.34	95.71
746.521	98.08
746.702	96.12
746.883	96.57
747.064	95.7
747.245	97.3
747.426	95.13
747.606	96.63
747.787	96.36
747.968	97.46
748.149	98.1
748.33	99.14
748.51	99.15
748.691	99.55
748.872	99.79
749.053	99.05
749.233	98.35
749.414	97.5
749.595	96.65
749.775	95.41
749.956	95.23
750.137	95.02
750.317	95.88
750.498	98.33
750.678	98.52
750.859	98.61
751.04	99.1
751.22	97.21
751.4	94.49
751.581	94.07
751.761	94.08
751.942	93.91
752.122	94.52
752.303	95.12
752.483	94.91
752.663	93.53
752.844	92.38
753.024	94.37
753.204	94.54
753.385	94.5
753.565	94.68
753.745	96.37
753.925	94.49
754.106	93.52
754.286	93.92
754.466	94.67
754.646	94.07
754.826	94.06
755.006	93.13
755.187	94.51
755.367	95.35
755.547	95.56
755.727	96.32
755.907	96.46
756.087	95.89
756.267	93.32
756.447	92.78
756.627	91.82
756.807	94.07
756.987	92.54
757.167	94.73
757.346	93.74
757.526	92.4
757.706	92.25
757.886	94.8
758.066	95.82
758.246	98.81
758.425	100.07
758.605	98.93
758.785	97.88
758.965	97.09
759.144	94.46
759.324	94.21
759.504	94.66
759.683	94.28
759.863	92.93
760.043	91.72
760.222	90.93
760.402	90.51
760.581	90.43
760.761	91.5
760.94	91.96
761.12	95.8
761.299	96.02
761.479	95.43
761.658	93.39
761.838	93.6
762.017	90.93
762.197	91.96
762.376	92.01
762.555	93.3
762.735	94.65
762.914	93.08
763.093	91.89
763.273	92.13
763.452	91.97
763.631	91.14
763.81	92.17
763.99	92.6
764.169	92.55
764.348	91.23
764.527	90.06
764.706	91.84
764.885	93.21
765.064	91.01
765.243	91.84
765.423	93.95
765.602	92.84
765.781	89.54
765.96	89.51
766.139	89.96
766.318	89.51
766.497	87.54
766.676	88.33
766.854	90.78
767.033	90.28
767.212	89.89
767.391	90.75
767.57	92.58
767.749	92.88
767.928	92.48
768.106	92.03
768.285	89.99
768.464	89.18
768.643	86.84
768.821	87.19
769	88.83
769.179	90.36
769.357	88.55
769.536	89.34
769.715	88.63
769.893	88.2
770.072	88.02
770.25	88.02
770.429	87.9
770.607	89.63
770.786	88.27
770.964	88.66
771.143	88.49
771.321	92.11
771.5	91.67
771.678	90.65
771.857	89.26
772.035	89.73
772.213	85.45
772.392	83.26
772.57	86.23
772.748	87.89
772.927	87.03
773.105	86.29
773.283	87.55
773.461	86.04
773.64	85.95
773.818	85.95
773.996	88.54
774.174	88.18
774.352	87.39
774.531	83.4
774.709	85.64
774.887	83.72
775.065	82.01
775.243	81.3
775.421	84.32
775.599	84.64
775.777	82.21
775.955	82.52
776.133	81.13
776.311	81.65
776.489	77.58
776.667	78.63
776.844	80.55
777.022	81.58
777.2	81.22
777.378	83.11
777.556	85.35
777.734	87
777.911	89.07
778.089	86.31
778.267	85.12
778.445	82.63
778.622	76.65
778.8	75.17
778.978	79.02
779.155	77.95
779.333	80.22
779.511	82.76
779.688	84.35
779.866	80.26
780.043	80.07
780.221	79.09
780.398	76.59
780.576	77.41
780.753	80.06
780.931	79.83
781.108	79.75
781.286	82.86
781.463	76.6
781.64	73.74
781.818	75.47
781.995	75.01
782.172	74.39
782.35	78.48
782.527	82.66
782.704	82.88
782.882	83.57
783.059	81.8
783.236	81.21
783.413	81.81
783.59	81.5
783.768	78.45
783.945	80.75
784.122	80.2
784.299	77.62
784.476	76.05
784.653	77.56
784.83	76.07
785.007	73.02
785.184	73.46
785.361	74.23
785.538	79.58
785.715	82.8
785.892	86.84
786.069	89.55
786.246	89.57
786.423	86.99
786.6	86.61
786.776	86.47
786.953	81.17
787.13	84.94
787.307	83.15
787.484	78.82
787.66	76.67
787.837	79.15
788.014	75.48
788.191	74.04
788.367	74.2
788.544	74.27
788.721	72.55
788.897	73.31
789.074	74.43
789.25	71.51
789.427	75.34
789.603	73.11
789.78	76.73
789.956	76.28
790.133	78.87
790.309	77.03
790.486	82.59
790.662	75.58
790.839	72.52
791.015	75.11
791.192	73.52
791.368	74.86
791.544	73.74
791.721	79.09
791.897	76.93
792.073	74.52
792.249	64.36
792.426	70.74
792.602	70.32
792.778	69.53
792.954	68.65
793.13	72.1
793.307	62.86
793.483	56.12
793.659	56.93
793.835	64.01
794.011	63.25
794.187	66.6
794.363	63.5
794.539	69.86
794.715	59.97
794.891	62.12
795.067	62.55
795.243	68.38
795.419	61.43
795.595	63.27
795.771	61.82
795.947	65.5
796.122	62.2
796.298	67.05
796.474	71.5
796.65	74.19
796.826	66.61
797.001	68.37
797.177	63.92
797.353	66.4
797.529	66.86
797.704	71.03
797.88	69.07
798.056	65.28
798.231	60.07
798.407	61.13
798.582	58.73
798.758	69.31
798.934	79.01
799.109	76.32
799.285	71.45
799.46	79.14
799.636	74.46
799.811	68.29
799.986	72.97
800.162	74.96
800.337	74.02
800.513	62.04
800.688	62.47
800.863	72.3
801.039	66.34
801.214	60.74
801.389	71.39
801.565	68.99
801.74	50.79
801.915	56.62
802.09	51.85
802.265	56.69
802.441	53.54
802.616	57.81
802.791	57.41
802.966	65.7
803.141	60.85
803.316	60.53
803.491	70.35
803.666	72.92
803.841	69.95
804.016	66.5
804.191	73.85
804.366	59.86
804.541	52.33
804.716	46.61
804.891	46.98
805.066	55.07
805.241	57.72
805.416	65.52
805.591	68.58
805.765	71.7
805.94	67.88
806.115	64.28
806.29	55.51
806.464	57.91
806.639	48.35
806.814	38.1
806.989	29.71
807.163	46.89
807.338	45.04
807.512	45.74
807.687	35.2
807.862	52.87
808.036	44.07
808.211	51.27
808.385	56.75
808.56	78.05
808.734	74.35
808.909	72.35
809.083	58.17
809.258	63.52
809.432	59.92
809.606	49.71
809.781	44.46
809.955	58.27
810.13	61.51
810.304	44.61
810.478	39.6
810.652	48.86
810.827	53.01
811.001	45.57
811.175	54.57
811.349	58.68
811.524	47.76
811.698	29.75
811.872	28.38
812.046	32.09
812.22	37.49
812.394	40.3
812.568	50.2
812.742	59.24
812.916	56.71
813.09	50.22
813.264	52.66
813.438	58.06
813.612	50.49
813.786	43.8
813.96	60.1
814.134	67.83
814.308	61.42
814.482	68.01
814.656	69.77
814.83	68.24
815.003	65.52
815.177	63.17
815.351	49.79
815.525	56.67
815.698	37.13
815.872	20.39
816.046	1.04
816.219	14.11
816.393	25.7
816.567	39.8
816.74	48.09
816.914	67.18
817.088	67.09
817.261	44.5
817.435	32.97
817.608	40.62
817.782	16.46
817.955	25.09
818.129	31.88
818.302	42.25
818.475	61.13
818.649	65.12
818.822	45.84
818.996	61.79
819.169	66.52
819.342	41.43
819.516	55.82
819.689	64.61
819.862	43.06
820.035	24.15
820.209	22.61
820.382	17.34
820.555	20.87
820.728	15.79
820.901	19.91
821.075	23.98
821.248	31.31
821.421	16.84
821.594	23.73
821.767	55.41
821.94	70.02
822.113	46.21
822.286	44.48
822.459	49.08
822.632	23.73
822.805	2.52
822.978	2.92
823.151	8.74
823.324	7.81
823.496	-14.46
823.669	-12.83
823.842	-5.04
824.015	-15.18
824.188	-38.04
824.361	-19.1
824.533	-21.92
824.706	-0.17
824.879	3.13
825.051	24.79
825.224	28.73
825.397	16.7
825.569	-14.35
825.742	11.15
825.915	16.65
826.087	17.96
826.26	19.96
826.432	28.68
826.605	23.48
826.777	12.28
826.95	18.36
827.122	21.79
827.295	25.66
827.467	28.18
827.64	-0.57
827.812	-22.53
827.984	-24.09
828.157	-37.48
828.329	-105.24
828.501	-66.18
828.674	-24.44
828.846	-44.67
829.018	-7.59
829.19	-2.47
829.363	18.12
829.535	4.87
829.707	20.82
829.879	-11.66
830.051	-12.73
830.223	-18.1
830.395	-43.05
830.568	-51.72
830.74	-44.03
830.912	-6.69
831.084	-23.05
831.256	-13.12
831.428	-20.04
831.6	-41.25
831.772	-92.21
831.943	-106.74
832.115	-64.92
832.287	-25.61
832.459	-5.17
832.631	23.78
832.803	46.52
832.975	65.65
833.146	40.82
833.318	42.34
833.49	58.1
833.662	33.55
833.833	-4.64
834.005	3.91
834.177	-6.35
834.348	-34.94
834.52	-59.32
834.692	-60.04
834.863	-110.73
835.035	-69.09
835.206	-101.82
835.378	-36.19
835.549	-46.87
835.721	-11.52
835.892	-0.71
836.064	-6.18
836.235	-25.52
836.407	-1.99
836.578	-55.14
836.749	-83.87
836.921	-71.78
837.092	-93.8
837.264	-89.12
837.435	-79
837.606	-10
837.777	8.86
837.949	31.88
838.12	39.67
838.291	44.37
838.462	10.5
838.633	-8.89
838.805	-9.08
838.976	-20.25
839.147	-70.15
839.318	-85.56
839.489	-128.63
839.66	-113.83
839.831	-42.5
840.002	-33.06
840.173	-45.41
840.344	13.1
840.515	7.07
840.686	-199.12
840.857	-171.53
841.028	-135.89
841.199	-125.33
841.369	-135.34
841.54	-94.28
841.711	-48.14
841.882	0.23
842.053	-18.41
842.223	-19.39
842.394	-8.25
842.565	-2.44
842.736	-4.61
842.906	-5.81
843.077	6.08
843.248	18.25
843.418	16.08
843.589	-55.1
843.759	27.28
843.93	24.56
844.101	3.74
844.271	6.44
844.442	22.97
844.612	22.94
844.783	-2.58
844.953	-31.16
845.123	-44.35
845.294	-22.9
845.464	-215.97
845.635	-101.72
845.805	-20.85
845.975	-12.45
846.146	-72.88
846.316	-56.84
846.486	-15.67
846.656	10.96
846.827	-3.1
846.997	6.76
847.167	42.93
847.337	10.42
847.507	-20.31
847.677	-12.04
847.848	30.65
848.018	17.31
848.188	15.92
848.358	-13.56
848.528	-30.21
848.698	-95.69
848.868	-199.93
849.038	-378.26
849.208	-135.83
849.378	-75.16
849.548	-46.66
849.718	-29.23
849.887	-0.69
850.057	-40.52
850.227	-75.11
850.397	-103.64
850.567	-252.36
850.737	-516.74
850.906	-1508.13
851.076	-1078.52
851.246	-435.34
851.415	-30.64
851.585	-34.6
851.755	-55.8
851.924	-24.07
852.094	-87.27
852.264	-219.8
852.433	-1411.06
852.603	-340.22
852.772	-309.39
852.942	-148.5
853.111	-140.84
853.281	-69.26
853.45	-14.26
853.62	-98.66
853.789	-109.98
853.959	-59.64
854.128	-95.97
854.297	-151.8
854.467	-156.69
854.636	-120.64
854.805	-48.34
854.975	-84.34
855.144	-106.16
855.313	60.49
855.482	-460.22
855.652	-337.15
855.821	-206.83
855.99	-25.37
856.159	-4.67
856.328	25.7
856.497	11.14
856.667	18.04
856.836	12.43
857.005	-37.48
857.174	-90.88
857.343	-116.91
857.512	-103.85
857.681	-129.17
857.85	-166.52
858.019	-74.63
858.188	-72.84
858.356	-105.7
858.525	-164.92
858.694	-119.55
858.863	-259.39
859.032	-190.57
859.201	-258.67
859.369	-222.07
859.538	-228.62
859.707	-148.69
859.876	-175.14
860.044	-162.06
860.213	-11.19
860.382	-4.02
860.55	-20.39
860.719	23.83
860.888	32.18
861.056	-9.81
861.225	-24.52
861.393	2.23
861.562	-10.66
861.73	-86.23
861.899	-290.84
862.067	-1770.69
862.236	-80.45
862.404	-258.65
862.572	-133.9
862.741	-47.24
862.909	-87.05
863.078	-225.09
863.246	-186.53
863.414	-171.95
863.582	-138.59
863.751	-129.34
863.919	-86.85
864.087	-9.13
864.255	-62.1
864.424	-469.92
864.592	-88.15
864.76	-165.17
864.928	-516.4
865.096	-241.88
865.264	-144.07
865.432	-2332.95
865.6	-189.25
865.768	-181.5
865.936	-162.48
866.104	-221.94
866.272	-277.66
866.44	-508.07
866.608	807.34
866.776	414.58
866.944	3936.05
867.112	-670.13
867.28	-326.7
867.448	-163.36
867.615	-70.09
867.783	-27.71
867.951	-49.69
868.119	-5.12
868.286	-42.74
868.454	-196.91
868.622	-242.12
868.789	-270.86
868.957	-6175
869.125	-3325
869.292	-252.95
869.46	-334.84
869.627	-79.84
869.795	-65.74
869.963	-27.97
870.13	-8.7
870.298	14.18
870.465	-100.21
870.632	-115.61
870.8	-90.82
870.967	-158.19
871.135	-237.15
871.302	-187.52
871.469	-231.75
871.637	-326.87
871.804	-182.46
871.971	-244.96
872.139	-774.65
872.306	-96.79
872.473	-105.3
872.64	-477.9
872.807	-118.02
872.975	56.17
873.142	-202
873.309	1922.97
873.476	41.88
873.643	74.6
873.81	14.22
873.977	30.23
874.144	35.44
874.311	-94.71
874.478	-179.58
874.645	-237.8
874.812	-196.01
874.979	-112.73
875.146	-135.42
875.313	-130.04
875.48	-30.73
875.647	-36.7
875.813	-87.88
875.98	-42.01
876.147	-74.04
876.314	-144.04
876.481	1004.55
876.647	-1210.67
876.814	556.74
876.981	-161.73
877.147	-146.73
877.314	-71.38
877.481	-55.86
877.647	-44.65
877.814	-99.49
877.98	-121.02
878.147	-53.7
878.314	10.99
878.48	-31.51
878.647	23.64
878.813	73.61
878.979	12.96
879.146	-45
879.312	-50.25
879.479	-152.08
879.645	-327.55
879.811	-553.79
879.978	-1395.04
880.144	-412.22
880.31	-235.02
880.477	-558.21
880.643	-660.39
880.809	-317.86
880.975	-275.19
881.142	-1541.36
881.308	-268.46
881.474	-165.08
881.64	-210.39
881.806	-317.52
881.972	-135.21
882.138	-148.62
882.304	-164.41
882.47	-292.97
882.636	-1033.2
882.802	-361.31
882.968	-135.17
883.134	-93.17
883.3	-77.92
883.466	-9.71
883.632	29.2
883.798	1.89
883.964	-0.37
884.129	-13.24
884.295	-16.17
884.461	-109.6
884.627	-166.99
884.793	-216.32
884.958	-117.7
885.124	-234.59
885.29	-344.36
885.455	-576.94
885.621	-187.27
885.787	-276.99
885.952	-138.2
886.118	-122.27
886.283	-107.76
886.449	-242.12
886.614	-231.52
886.78	-539.04
886.945	2464.75
887.111	-1125.72
887.276	-922.44
887.442	-1743.18
887.607	-662.5
887.773	-389.01
887.938	-343.21
888.103	-377.24
888.269	-274.85
888.434	-616.49
888.599	-257.46
888.764	-86.23
888.93	-43.03
889.095	-52.76
889.26	-100.87
889.425	-54.29
889.59	-85.49
889.756	-107.77
889.921	-83.44
890.086	-1.73
890.251	-33.57
890.416	-171.05
890.581	-1563.71
890.746	198.39
890.911	294.59
891.076	115.13
891.241	-271.27
891.406	43.32
891.571	-26.42
891.736	-371.79
891.901	-958.85
892.065	1035.71
892.23	196.74
892.395	270.74
892.56	404.19
892.725	-429.3
892.889	-1625.61
893.054	-328.55
893.219	-131.01
893.384	-44.03
893.548	-103.03
893.713	-102.75
893.878	-46.03
