Data from Ofra_1a_PS_2GT70_Reflection_1.txt Node
Date: Tue Jul 20 10:51:33 EDT 2021
User: Adam
Spectrometer: FLMT01687
Trigger mode: 0
Integration Time (sec): 1.004000E0
Scans to average: 2
Electric dark correction enabled: true
Nonlinearity correction enabled: false
Boxcar width: 2
XAxis mode: Wavelengths
Number of Pixels in Spectrum: 3648
>>>>>Begin Spectral Data<<<<<
179.494	-383.76
179.716	-382.44
179.937	698.33
180.158	-374.52
180.38	26.63
180.601	-26.94
180.823	-63.5
181.044	-119.82
181.265	-200.48
181.486	103.6
181.708	54.5
181.929	4581.82
182.15	-145.56
182.372	662.07
182.593	344.29
182.814	-334.13
183.035	-48.58
183.257	-9.74
183.478	-23.95
183.699	-72.34
183.92	-78.4
184.141	-70.65
184.363	-57.3
184.584	-83.93
184.805	-25.6
185.026	28.27
185.247	18.14
185.468	-20.54
185.689	-1.47
185.91	-18.76
186.132	-47.88
186.353	-52.55
186.574	-31.95
186.795	-28.89
187.016	-1.97
187.237	-1.41
187.458	22.96
187.679	12.97
187.9	46.26
188.121	62.23
188.342	61.24
188.563	53.76
188.784	60.03
189.005	13.66
189.226	26.49
189.447	27.02
189.667	15.21
189.888	-6.73
190.109	-23.89
190.33	-27.29
190.551	-40.31
190.772	-29.53
190.993	-34.98
191.214	-10.32
191.434	-13.26
191.655	-43.29
191.876	-21.36
192.097	47.99
192.318	43.09
192.538	-14
192.759	-13.02
192.98	7.68
193.201	-4.66
193.421	-21.44
193.642	14.83
193.863	19.14
194.083	-5.29
194.304	-18.1
194.525	3.04
194.745	-13.22
194.966	-3.63
195.187	-7.11
195.407	-12.76
195.628	-10.2
195.848	-8
196.069	-12.47
196.29	-6.16
196.51	-12.62
196.731	-11.55
196.951	-20.66
197.172	-18.96
197.392	-17.01
197.613	11.07
197.833	-0.21
198.054	-17.98
198.274	-10.89
198.495	-6.53
198.715	-19.39
198.936	11.18
199.156	30.4
199.377	30.2
199.597	23.85
199.817	15.42
200.038	-37.13
200.258	-20.35
200.479	-30.39
200.699	-35.54
200.919	-25.94
201.14	-9.25
201.36	-24.06
201.58	-39.68
201.801	-43.56
202.021	-29.48
202.241	-14.37
202.461	7.22
202.682	30.82
202.902	39.41
203.122	34.18
203.342	42.39
203.563	26.11
203.783	16.36
204.003	-5.13
204.223	2.35
204.443	-6.94
204.663	-6.1
204.884	-1
205.104	3.27
205.324	-6.41
205.544	-32.56
205.764	-9.36
205.984	-29.81
206.204	-28.72
206.424	-52.65
206.644	-42.97
206.864	-63.36
207.084	-19.78
207.304	-20.1
207.525	-9.27
207.745	22.04
207.964	30.2
208.184	65.05
208.404	57.4
208.624	68.6
208.844	47.92
209.064	39.66
209.284	0.95
209.504	-23.7
209.724	-45.24
209.944	-38.49
210.164	-40.57
210.384	-24.2
210.604	-79.66
210.823	-77.49
211.043	-74.98
211.263	-148.68
211.483	-114.66
211.703	-38.1
211.922	-58.32
212.142	-28.43
212.362	-3.19
212.582	-2.84
212.801	-16.71
213.021	6.74
213.241	-9.14
213.461	12.38
213.68	23.23
213.9	21.82
214.12	27.47
214.339	26.55
214.559	10.1
214.779	2.47
214.998	-19.5
215.218	-21.74
215.438	-11.29
215.657	-29.52
215.877	-38.68
216.096	-7.56
216.316	-4.92
216.535	-25.93
216.755	-8.98
216.974	-3.9
217.194	-31.59
217.413	-18.43
217.633	-10.87
217.852	-12.47
218.072	-12.42
218.291	-6.82
218.511	-8.84
218.73	-22.86
218.95	-39.99
219.169	-37.6
219.389	-12.25
219.608	-13.35
219.827	10.04
220.047	13.58
220.266	12.23
220.485	1.84
220.705	10.51
220.924	6.83
221.143	34.46
221.363	39.16
221.582	32.87
221.801	21.84
222.021	26.41
222.24	27.99
222.459	43.95
222.678	45.67
222.897	59.05
223.117	79.24
223.336	81.71
223.555	61.26
223.774	66.96
223.993	44.15
224.213	10.51
224.432	10.85
224.651	11.75
224.87	16.23
225.089	24.17
225.308	39.89
225.527	30.38
225.746	27.95
225.965	27.81
226.184	14.55
226.404	-12.27
226.623	-11.27
226.842	-14.99
227.061	-7.92
227.28	3.4
227.499	4.13
227.718	0
227.936	11.39
228.155	7.7
228.374	5.21
228.593	18.13
228.812	28.57
229.031	26.32
229.25	0
229.469	-1.29
229.688	-8.71
229.907	-2.19
230.125	-2.5
230.344	15.33
230.563	13.7
230.782	14.14
231.001	14.99
231.22	23.26
231.438	22.42
231.657	35.6
231.876	41.36
232.095	40.16
232.313	29.28
232.532	23.69
232.751	-3.85
232.969	-8.38
233.188	-4.65
233.407	10.55
233.625	14.88
233.844	29.41
234.063	29.58
234.281	26.91
234.5	12.92
234.719	14.88
234.937	2.69
235.156	0
235.374	-0.71
235.593	21.7
235.811	31.04
236.03	36.63
236.249	40.75
236.467	41.31
236.686	29.42
236.904	22.86
237.123	8.33
237.341	-10.87
237.559	-36.36
237.778	-15.99
237.996	-41.68
238.215	-78.08
238.433	-71.2
238.652	29.58
238.87	13.14
239.088	22.22
239.307	41.61
239.525	33.95
239.743	0.7
239.962	-9.77
240.18	11.63
240.398	5.87
240.617	-3.04
240.835	11.2
241.053	30.65
241.271	13.58
241.49	19.09
241.708	17.78
241.926	14.55
242.144	15.9
242.363	-15.89
242.581	-22.42
242.799	-25.31
243.017	-19.38
243.235	-16.39
243.453	-23.38
243.672	-29.62
243.89	-7.1
244.108	-2.77
244.326	21.65
244.544	45.44
244.762	44.05
244.98	50.13
245.198	54.98
245.416	38.08
245.634	22.95
245.852	8.08
246.07	9.78
246.288	6.25
246.506	0.36
246.724	25.74
246.942	28.74
247.16	15.9
247.378	-0.26
247.596	24.43
247.814	-39.85
248.032	-22.97
248.25	5.63
248.468	33.02
248.685	24.68
248.903	38.27
249.121	30.51
249.339	23.36
249.557	18.66
249.775	24.43
249.992	9.43
250.21	2.21
250.428	10.86
250.646	8.23
250.863	-3.98
251.081	3.3
251.299	20.78
251.517	27.15
251.734	16.75
251.952	16.53
252.17	10.7
252.387	-4.77
252.605	-17.17
252.823	-17.7
253.04	7.04
253.258	15.65
253.475	26.76
253.693	13.7
253.911	14.89
254.128	9.46
254.346	17.26
254.563	19.51
254.781	27.72
254.998	32.45
255.216	19.53
255.433	-23.49
255.651	-11.28
255.868	-12.77
256.086	-7.72
256.303	-5.15
256.521	11.09
256.738	-4.36
256.956	-5.4
257.173	-22.93
257.39	-13.55
257.608	-4.37
257.825	0
258.043	11.49
258.26	14.54
258.477	12.95
258.695	3.27
258.912	-8.88
259.129	-28.18
259.346	-44.24
259.564	-47.85
259.781	-61.19
259.998	-27.69
260.216	-5.5
260.433	5.2
260.65	7.66
260.867	26.17
261.084	28.96
261.302	25.98
261.519	32.06
261.736	23.4
261.953	16.01
262.17	30.05
262.387	26.58
262.604	25.44
262.822	38.91
263.039	38.59
263.256	25.78
263.473	33.29
263.69	25.6
263.907	32.25
264.124	48.64
264.341	43.36
264.558	24.29
264.775	24.37
264.992	13.35
265.209	-10.13
265.426	-33.05
265.643	-11.66
265.86	-12.32
266.077	-36.78
266.294	-19.26
266.51	17.75
266.727	30.54
266.944	38.36
267.161	37.56
267.378	47.11
267.595	30.25
267.812	2.98
268.028	-25.62
268.245	-14.02
268.462	-24.36
268.679	-2.77
268.896	25.57
269.112	29.13
269.329	1.42
269.546	28.45
269.763	13.29
269.979	-13.12
270.196	-1.44
270.413	12.46
270.629	-8.97
270.846	-7.59
271.063	16.97
271.279	30.97
271.496	38.03
271.712	45.95
271.929	54.23
272.146	45.52
272.362	17.86
272.579	1.94
272.795	-8.7
273.012	-18.9
273.228	12.98
273.445	8.55
273.661	28.6
273.878	23.73
274.094	34.35
274.311	18.11
274.527	10.22
274.744	15.43
274.96	21.26
275.177	7.65
275.393	24.26
275.609	41.89
275.826	33.67
276.042	22.35
276.259	21.9
276.475	7.36
276.691	3.08
276.908	-1.02
277.124	14.79
277.34	5.46
277.557	-14.83
277.773	-7.84
277.989	-0.22
278.205	-7.57
278.422	3.99
278.638	14.41
278.854	2.69
279.07	11.28
279.286	9.18
279.503	17.36
279.719	25.9
279.935	21.23
280.151	9.25
280.367	15.84
280.583	7.13
280.799	-15.76
281.016	-53.81
281.232	-39.54
281.448	-52.14
281.664	-39.96
281.88	-17.25
282.096	7.86
282.312	19.35
282.528	30.3
282.744	33.17
282.96	19.69
283.176	28.53
283.392	-42.65
283.608	-13.66
283.824	-38.71
284.04	-59.52
284.256	-32.48
284.471	-1.35
284.687	-18.67
284.903	-10.73
285.119	5.07
285.335	14.23
285.551	11.55
285.767	8.38
285.982	4.89
286.198	-12.95
286.414	-36.06
286.63	-30.73
286.846	-43.04
287.061	0.58
287.277	23.86
287.493	7.9
287.709	-3.27
287.924	20.95
288.14	13.43
288.356	29.9
288.571	36.05
288.787	35.04
289.003	42.31
289.218	32.45
289.434	-8.91
289.65	8.8
289.865	14.37
290.081	9.05
290.296	21.17
290.512	37.01
290.727	22.6
290.943	12.71
291.159	6.3
291.374	-19.97
291.59	-17.42
291.805	-24.83
292.021	-30.01
292.236	-27.4
292.451	0
292.667	-7.22
292.882	8.35
293.098	28.49
293.313	20.16
293.529	8.66
293.744	-16.81
293.959	-22.5
294.175	-18.13
294.39	-24.51
294.605	2.47
294.821	18.3
295.036	22.48
295.251	21.36
295.467	17.9
295.682	15.86
295.897	8.6
296.112	0.97
296.328	5.06
296.543	11.47
296.758	0.55
296.973	-2.16
297.188	6.44
297.404	-3.13
297.619	-3.21
297.834	-46.85
298.049	-37.09
298.264	-31.47
298.479	-43.06
298.694	-11.36
298.909	0.45
299.125	-0.15
299.34	-14.2
299.555	-11.58
299.77	10.84
299.985	15.39
300.2	28.11
300.415	36.66
300.63	32.74
300.845	17.74
301.06	21.08
301.275	19
301.49	8.29
301.704	18.23
301.919	3.33
302.134	-2.64
302.349	-9.22
302.564	-2.41
302.779	-38.34
302.994	-5.8
303.209	-4.47
303.423	8.49
303.638	9.35
303.853	23.78
304.068	-9.09
304.283	1.04
304.497	-28.17
304.712	-0.56
304.927	0.42
305.142	10.81
305.356	8.05
305.571	23.53
305.786	11.21
306	24.86
306.215	21.68
306.43	14.75
306.644	-9.57
306.859	-28.63
307.074	-25.58
307.288	-6.05
307.503	14.42
307.717	24.54
307.932	28.08
308.147	29.03
308.361	16.27
308.576	5
308.79	6.64
309.005	11.85
309.219	20.94
309.434	33.07
309.648	20.23
309.863	33.52
310.077	28.1
310.292	24.78
310.506	9.94
310.72	4.34
310.935	-0.99
311.149	-1.28
311.364	-12.04
311.578	4.79
311.792	7.9
312.007	-0.97
312.221	-20
312.435	-4.05
312.649	0.68
312.864	5.99
313.078	6.91
313.292	13.55
313.507	16.95
313.721	-0.29
313.935	1.86
314.149	3.08
314.363	15.6
314.578	1.63
314.792	-3.93
315.006	-15.6
315.22	6.21
315.434	8.2
315.648	7.37
315.862	4.24
316.077	1.81
316.291	-1.94
316.505	-30.19
316.719	-12.87
316.933	8.75
317.147	13.7
317.361	5.19
317.575	11.29
317.789	19.36
318.003	22.15
318.217	39.69
318.431	41.79
318.645	47.11
318.859	38.7
319.073	42.41
319.287	22.38
319.5	24.48
319.714	11.31
319.928	3.41
320.142	-14.97
320.356	-4.93
320.57	-34.28
320.784	-20.16
320.997	-28.9
321.211	-13.61
321.425	-32.43
321.639	4.29
321.853	3
322.066	-2.71
322.28	-15.78
322.494	-6.13
322.707	-14.68
322.921	-29.73
323.135	-16.61
323.349	-15.48
323.562	-15.48
323.776	-21.41
323.989	-3.36
324.203	-8.6
324.417	7.92
324.63	-6.37
324.844	-7.99
325.057	-25
325.271	-20.24
325.485	-36.1
325.698	-6.81
325.912	5.16
326.125	13.2
326.339	27.93
326.552	30.04
326.766	19.82
326.979	22.65
327.193	23.13
327.406	-7.56
327.619	-17.63
327.833	-12.06
328.046	-5.81
328.26	-14.2
328.473	1.22
328.686	12.33
328.9	18.13
329.113	15.08
329.326	22.61
329.54	22.86
329.753	30.79
329.966	28.34
330.179	24.78
330.393	22.25
330.606	17.34
330.819	-5.52
331.032	-7.64
331.246	3.21
331.459	19.88
331.672	11.61
331.885	24.91
332.098	35.88
332.311	19.96
332.525	-1.98
332.738	10.88
332.951	11.33
333.164	10.62
333.377	17.87
333.59	31.69
333.803	30.84
334.016	15.06
334.229	16.82
334.442	6.18
334.655	2.26
334.868	-4.88
335.081	-8.82
335.294	-24.29
335.507	-17.32
335.72	-15.63
335.933	-13.39
336.146	-8.73
336.359	13.28
336.572	19.32
336.785	16.17
336.997	19.76
337.21	35.58
337.423	1.04
337.636	0.22
337.849	2.87
338.062	-2.83
338.274	10.13
338.487	15.71
338.7	5.51
338.913	13.2
339.125	11.28
339.338	-5.02
339.551	-6.72
339.763	-4.26
339.976	4.56
340.189	12.35
340.402	21.5
340.614	31.64
340.827	25.08
341.039	12.66
341.252	17.23
341.465	3.4
341.677	-16.83
341.89	-15.27
342.102	-2.66
342.315	0.16
342.527	10.6
342.74	20.23
342.952	19.38
343.165	8.76
343.377	4.98
343.59	0.32
343.802	2.13
344.015	7.08
344.227	-0.93
344.44	-18.36
344.652	-16.43
344.864	-8.68
345.077	-1.22
345.289	12.28
345.502	32.27
345.714	29.92
345.926	30.94
346.139	10.86
346.351	20.52
346.563	11.75
346.775	26.58
346.988	23.79
347.2	35.45
347.412	25.8
347.624	23.9
347.837	17.98
348.049	9.48
348.261	2.85
348.473	-3.45
348.685	-2.62
348.897	-9.06
349.11	-3.82
349.322	5.01
349.534	4.38
349.746	-3.1
349.958	2.9
350.17	-10.59
350.382	1.2
350.594	1.87
350.806	19.22
351.018	8.56
351.23	26.83
351.442	21.69
351.654	26.56
351.866	15.37
352.078	30.79
352.29	20.3
352.502	25.19
352.714	18.02
352.926	28.66
353.138	27.75
353.35	18.41
353.561	19.89
353.773	13.86
353.985	19.43
354.197	11.47
354.409	19.3
354.621	5.21
354.832	9.1
355.044	-22.06
355.256	-24.4
355.468	-38.06
355.679	0.79
355.891	-1.14
356.103	1.54
356.314	-4.94
356.526	-1.31
356.738	-16.54
356.949	-14.97
357.161	22.78
357.373	24.47
357.584	28.7
357.796	34.78
358.008	33.56
358.219	19.93
358.431	16.71
358.642	13.17
358.854	9.85
359.065	4.61
359.277	2.9
359.488	-1.82
359.7	-9.84
359.911	-23.12
360.123	-4.87
360.334	3.53
360.546	7
360.757	13.29
360.969	19.43
361.18	12.29
361.391	8.93
361.603	15.7
361.814	16.56
362.025	18.42
362.237	18.6
362.448	23.22
362.659	13.87
362.871	4.3
363.082	-4.46
363.293	-11.73
363.504	-39.79
363.716	-26.36
363.927	-8.75
364.138	-3.19
364.349	1.98
364.56	-9.11
364.772	-8.91
364.983	-4.23
365.194	-1.17
365.405	-12.95
365.616	6.03
365.827	-4.4
366.038	-3.27
366.25	-4.97
366.461	5.29
366.672	6.97
366.883	5.18
367.094	3.12
367.305	-8.71
367.516	-10.89
367.727	-27.93
367.938	-15.19
368.149	-20.21
368.36	-25
368.571	-35.36
368.781	-27.92
368.992	-22.39
369.203	-9.88
369.414	-5.02
369.625	5.85
369.836	29.88
370.047	22.67
370.258	13.44
370.468	20.72
370.679	8.08
370.89	-17.52
371.101	-3.64
371.312	0.88
371.522	1.97
371.733	18.94
371.944	19.53
372.155	25.31
372.365	22.54
372.576	20.82
372.787	13.25
372.997	5.16
373.208	1.58
373.419	-0.87
373.629	-17.33
373.84	-27.23
374.05	-30.47
374.261	-43.06
374.472	-28.92
374.682	-16.97
374.893	-15.93
375.103	5.61
375.314	15.01
375.524	-2.6
375.735	8.32
375.945	16.42
376.156	8.96
376.366	4.99
376.577	18.58
376.787	5.77
376.997	11.24
377.208	8.15
377.418	6.41
377.629	2.56
377.839	13.8
378.049	3.96
378.26	3.1
378.47	-1.85
378.68	4.34
378.89	0.22
379.101	7.75
379.311	4.37
379.521	5.75
379.732	8.46
379.942	-1.75
380.152	-17.25
380.362	-8.63
380.572	0.97
380.783	6.71
380.993	16.97
381.203	21.5
381.413	18.72
381.623	21.8
381.833	18.17
382.043	18.73
382.253	25.96
382.463	33.21
382.674	29.05
382.884	28.06
383.094	24.21
383.304	26.21
383.514	24.38
383.724	16.52
383.934	5.85
384.144	5.22
384.353	-3.56
384.563	-3.83
384.773	4.76
384.983	3.7
385.193	1.91
385.403	0.44
385.613	-0.64
385.823	-4.94
386.033	2.06
386.242	2.44
386.452	7.82
386.662	8.33
386.872	12.15
387.082	8.14
387.291	7.59
387.501	9.91
387.711	9.46
387.921	6.87
388.13	7.08
388.34	9.32
388.55	9.28
388.759	5.25
388.969	4.43
389.179	9.42
389.388	6.33
389.598	2.76
389.807	0.09
390.017	2.59
390.227	-1.02
390.436	0.08
390.646	0.92
390.855	3.49
391.065	2.95
391.274	2.39
391.484	3.95
391.693	4.86
391.903	4.34
392.112	2.15
392.322	1.97
392.531	0.84
392.74	-0.69
392.95	0.18
393.159	1.2
393.369	1.69
393.578	1.59
393.787	2.05
393.997	3.35
394.206	3.73
394.415	5.02
394.625	5.47
394.834	4
395.043	4.14
395.252	4.94
395.462	4.79
395.671	4.22
395.88	5.69
396.089	5.34
396.298	4.67
396.508	4.21
396.717	4.31
396.926	4.17
397.135	3.72
397.344	3.56
397.553	2.86
397.762	4.64
397.971	3.99
398.181	4.77
398.39	4.41
398.599	4.95
398.808	3.94
399.017	4.72
399.226	4.03
399.435	4.59
399.644	4.39
399.853	4.55
400.062	4.64
400.27	4.27
400.479	4.18
400.688	4.75
400.897	4.52
401.106	4.47
401.315	4.65
401.524	4.68
401.733	4.16
401.941	4.47
402.15	4.22
402.359	4.59
402.568	4.68
402.777	4.99
402.985	4.59
403.194	4.57
403.403	4.51
403.612	4.3
403.82	3.94
404.029	4.32
404.238	4.36
404.446	4.35
404.655	4.49
404.864	4.73
405.072	4.41
405.281	4.35
405.489	4.26
405.698	4.24
405.906	4.21
406.115	4.15
406.324	4.18
406.532	4.21
406.741	4.19
406.949	4.22
407.158	4.32
407.366	4.12
407.574	4.19
407.783	4.31
407.991	4.25
408.2	4.39
408.408	4.53
408.617	4.48
408.825	4.24
409.033	4.27
409.242	4.18
409.45	4.13
409.658	3.97
409.867	4.05
410.075	4.15
410.283	3.93
410.491	3.86
410.7	3.85
410.908	3.79
411.116	3.65
411.324	3.77
411.533	3.73
411.741	3.88
411.949	3.85
412.157	3.77
412.365	3.77
412.573	3.95
412.781	3.79
412.99	3.78
413.198	3.91
413.406	4
413.614	4.04
413.822	4.12
414.03	4.26
414.238	4.31
414.446	4.32
414.654	4.14
414.862	4.15
415.07	3.92
415.278	3.9
415.486	3.73
415.694	3.71
415.902	3.62
416.109	3.74
416.317	3.71
416.525	3.69
416.733	3.79
416.941	3.92
417.149	3.9
417.357	3.74
417.564	3.68
417.772	3.56
417.98	3.4
418.188	3.24
418.395	3.1
418.603	3.11
418.811	2.92
419.019	2.96
419.226	3.03
419.434	3.07
419.642	3.08
419.849	3.26
420.057	3.32
420.265	3.33
420.472	3.35
420.68	3.44
420.887	3.38
421.095	3.34
421.302	3.45
421.51	3.48
421.717	3.47
421.925	3.54
422.132	3.53
422.34	3.23
422.547	3.28
422.755	3.35
422.962	3.35
423.17	3.18
423.377	3.41
423.585	3.47
423.792	3.41
423.999	3.56
424.207	3.52
424.414	3.41
424.621	3.29
424.829	3.36
425.036	3.26
425.243	3.38
425.451	3.42
425.658	3.51
425.865	3.45
426.072	3.56
426.28	3.66
426.487	3.71
426.694	3.62
426.901	3.46
427.108	3.24
427.315	3.28
427.523	3.27
427.73	3.19
427.937	3.24
428.144	3.38
428.351	3.3
428.558	3.4
428.765	3.47
428.972	3.45
429.179	3.28
429.386	3.37
429.593	3.11
429.8	3.24
430.007	3.39
430.214	3.4
430.421	3.41
430.628	3.6
430.835	3.5
431.042	3.4
431.249	3.48
431.456	3.46
431.662	3.48
431.869	3.61
432.076	3.66
432.283	3.63
432.49	3.59
432.697	3.6
432.903	3.54
433.11	3.53
433.317	3.76
433.524	3.76
433.73	3.66
433.937	3.67
434.144	3.72
434.35	3.51
434.557	3.54
434.764	3.62
434.97	3.54
435.177	3.67
435.384	3.77
435.59	3.83
435.797	4
436.003	4.13
436.21	3.9
436.416	3.92
436.623	3.92
436.829	3.81
437.036	3.74
437.242	4.01
437.449	4.05
437.655	4.07
437.862	4.01
438.068	4.03
438.275	4.01
438.481	4.06
438.687	4.02
438.894	4.25
439.1	4.21
439.307	4.22
439.513	4.22
439.719	4.31
439.926	4.24
440.132	4.41
440.338	4.37
440.544	4.31
440.751	4.21
440.957	4.18
441.163	4.02
441.369	4.06
441.575	4.06
441.782	4.19
441.988	4.28
442.194	4.3
442.4	4.22
442.606	4.34
442.812	4.35
443.018	4.36
443.224	4.54
443.431	4.6
443.637	4.44
443.843	4.39
444.049	4.39
444.255	4.41
444.461	4.4
444.667	4.51
444.873	4.56
445.079	4.53
445.284	4.47
445.49	4.5
445.696	4.51
445.902	4.47
446.108	4.53
446.314	4.43
446.52	4.51
446.726	4.54
446.931	4.54
447.137	4.53
447.343	4.7
447.549	4.7
447.755	4.64
447.96	4.69
448.166	4.69
448.372	4.65
448.578	4.58
448.783	4.65
448.989	4.72
449.195	4.73
449.4	4.79
449.606	4.82
449.812	4.77
450.017	4.73
450.223	4.7
450.428	4.68
450.634	4.74
450.84	4.73
451.045	4.77
451.251	4.86
451.456	4.92
451.662	4.95
451.867	5.01
452.073	5.06
452.278	5.01
452.483	4.94
452.689	4.96
452.894	5.02
453.1	4.97
453.305	5.12
453.51	5.21
453.716	5.11
453.921	5.07
454.127	5.02
454.332	4.96
454.537	4.85
454.742	4.81
454.948	4.78
455.153	4.87
455.358	4.86
455.563	4.95
455.769	5.04
455.974	5.12
456.179	5.06
456.384	4.95
456.589	4.89
456.795	4.87
457	4.72
457.205	4.75
457.41	4.78
457.615	4.79
457.82	4.87
458.025	4.94
458.23	4.94
458.435	5.07
458.64	5.14
458.845	5.06
459.05	5.11
459.255	5.22
459.46	5.23
459.665	5.19
459.87	5.18
460.075	5.3
460.28	5.26
460.485	5.29
460.69	5.27
460.895	5.44
461.099	5.34
461.304	5.2
461.509	5.15
461.714	5.33
461.919	5.22
462.123	5.25
462.328	5.22
462.533	5.08
462.738	4.97
462.942	5.04
463.147	5.04
463.352	5.26
463.556	5.42
463.761	5.45
463.966	5.37
464.17	5.52
464.375	5.56
464.58	5.64
464.784	5.63
464.989	5.73
465.193	5.67
465.398	5.61
465.602	5.66
465.807	5.68
466.011	5.74
466.216	5.75
466.42	5.87
466.625	5.89
466.829	5.9
467.034	5.96
467.238	6
467.443	5.95
467.647	5.83
467.851	5.9
468.056	5.9
468.26	5.96
468.464	5.97
468.669	6.11
468.873	6.09
469.077	6.11
469.282	6.11
469.486	6.1
469.69	6.18
469.894	6.26
470.099	6.23
470.303	6.19
470.507	6.32
470.711	6.19
470.915	6.23
471.119	6.3
471.324	6.37
471.528	6.4
471.732	6.56
471.936	6.55
472.14	6.52
472.344	6.63
472.548	6.58
472.752	6.47
472.956	6.55
473.16	6.52
473.364	6.46
473.568	6.39
473.772	6.38
473.976	6.4
474.18	6.52
474.384	6.53
474.588	6.58
474.792	6.58
474.995	6.53
475.199	6.45
475.403	6.46
475.607	6.5
475.811	6.49
476.015	6.48
476.218	6.47
476.422	6.52
476.626	6.51
476.83	6.72
477.033	6.75
477.237	6.78
477.441	6.69
477.644	6.7
477.848	6.66
478.052	6.7
478.255	6.78
478.459	6.83
478.663	6.96
478.866	6.98
479.07	6.93
479.273	6.96
479.477	6.95
479.681	6.91
479.884	6.87
480.088	6.92
480.291	6.84
480.495	6.88
480.698	6.85
480.901	6.84
481.105	6.89
481.308	6.9
481.512	7
481.715	7.07
481.919	7.16
482.122	7.16
482.325	7.26
482.529	7.19
482.732	7.08
482.935	6.96
483.138	6.9
483.342	6.92
483.545	7
483.748	7.11
483.952	7.18
484.155	7.32
484.358	7.27
484.561	7.19
484.764	7.28
484.967	7.28
485.171	7.23
485.374	7.26
485.577	7.3
485.78	7.2
485.983	7.24
486.186	7.28
486.389	7.36
486.592	7.36
486.795	7.46
486.998	7.43
487.201	7.45
487.404	7.48
487.607	7.59
487.81	7.63
488.013	7.77
488.216	7.82
488.419	7.84
488.622	7.81
488.825	7.91
489.028	7.94
489.231	7.97
489.433	8
489.636	8.11
489.839	8.15
490.042	8.21
490.245	8.28
490.447	8.36
490.65	8.45
490.853	8.53
491.056	8.66
491.258	8.84
491.461	8.86
491.664	8.96
491.866	8.97
492.069	9.11
492.272	9.09
492.474	9.3
492.677	9.35
492.879	9.51
493.082	9.64
493.285	9.87
493.487	9.98
493.69	10.15
493.892	10.24
494.095	10.28
494.297	10.38
494.5	10.48
494.702	10.64
494.905	10.85
495.107	11
495.309	11.17
495.512	11.39
495.714	11.49
495.917	11.64
496.119	11.85
496.321	11.95
496.524	12.01
496.726	12.2
496.928	12.33
497.13	12.38
497.333	12.57
497.535	12.81
497.737	12.93
497.939	13.05
498.142	13.22
498.344	13.38
498.546	13.45
498.748	13.72
498.95	13.93
499.152	14.13
499.355	14.22
499.557	14.36
499.759	14.49
499.961	14.61
500.163	14.71
500.365	14.78
500.567	14.91
500.769	14.98
500.971	15.08
501.173	15.08
501.375	15.34
501.577	15.42
501.779	15.39
501.981	15.46
502.183	15.55
502.385	15.52
502.587	15.59
502.788	15.69
502.99	15.7
503.192	15.72
503.394	15.72
503.596	15.69
503.798	15.64
503.999	15.68
504.201	15.61
504.403	15.58
504.605	15.58
504.806	15.68
505.008	15.64
505.21	15.73
505.411	15.71
505.613	15.64
505.815	15.54
506.016	15.47
506.218	15.39
506.42	15.34
506.621	15.36
506.823	15.28
507.024	15.31
507.226	15.24
507.427	15.12
507.629	15.05
507.83	15.05
508.032	14.82
508.233	14.78
508.435	14.79
508.636	14.71
508.838	14.64
509.039	14.6
509.24	14.55
509.442	14.44
509.643	14.32
509.845	14.2
510.046	14.27
510.247	14.19
510.448	14.16
510.65	14.16
510.851	14.12
511.052	13.94
511.254	13.95
511.455	13.86
511.656	13.64
511.857	13.62
512.058	13.55
512.26	13.43
512.461	13.37
512.662	13.48
512.863	13.28
513.064	13.27
513.265	13.16
513.466	13.16
513.667	13.03
513.868	13.03
514.069	12.94
514.27	12.89
514.471	12.72
514.672	12.68
514.873	12.68
515.074	12.67
515.275	12.55
515.476	12.56
515.677	12.54
515.878	12.47
516.079	12.43
516.28	12.41
516.481	12.38
516.682	12.27
516.882	12.25
517.083	12.15
517.284	12.19
517.485	12.08
517.686	12.15
517.886	12.07
518.087	12.03
518.288	11.97
518.488	12
518.689	11.95
518.89	11.89
519.091	12
519.291	12.01
519.492	12.02
519.692	11.98
519.893	12.05
520.094	11.92
520.294	11.86
520.495	11.82
520.695	11.79
520.896	11.7
521.096	11.73
521.297	11.76
521.497	11.66
521.698	11.65
521.898	11.65
522.099	11.61
522.299	11.53
522.499	11.56
522.7	11.53
522.9	11.46
523.101	11.37
523.301	11.44
523.501	11.43
523.702	11.43
523.902	11.43
524.102	11.55
524.302	11.49
524.503	11.48
524.703	11.46
524.903	11.41
525.103	11.29
525.304	11.22
525.504	11.26
525.704	11.2
525.904	11.22
526.104	11.25
526.304	11.29
526.504	11.25
526.705	11.27
526.905	11.29
527.105	11.28
527.305	11.18
527.505	11.1
527.705	11.08
527.905	11.13
528.105	11.05
528.305	11.1
528.505	11.16
528.705	11.2
528.905	11.12
529.105	11.2
529.304	11.23
529.504	11.23
529.704	11.2
529.904	11.23
530.104	11.22
530.304	11.17
530.503	11.2
530.703	11.16
530.903	11.15
531.103	11.12
531.303	11.13
531.502	11.19
531.702	11.23
531.902	11.26
532.101	11.28
532.301	11.3
532.501	11.31
532.7	11.33
532.9	11.38
533.1	11.4
533.299	11.44
533.499	11.36
533.698	11.37
533.898	11.34
534.097	11.36
534.297	11.28
534.496	11.29
534.696	11.26
534.895	11.29
535.095	11.3
535.294	11.32
535.494	11.29
535.693	11.3
535.892	11.25
536.092	11.2
536.291	11.23
536.491	11.26
536.69	11.26
536.889	11.27
537.088	11.28
537.288	11.27
537.487	11.23
537.686	11.16
537.886	11.23
538.085	11.23
538.284	11.25
538.483	11.28
538.682	11.35
538.882	11.28
539.081	11.26
539.28	11.23
539.479	11.22
539.678	11.23
539.877	11.28
540.076	11.31
540.275	11.33
540.474	11.33
540.673	11.38
540.872	11.35
541.071	11.42
541.27	11.42
541.469	11.44
541.668	11.37
541.867	11.41
542.066	11.38
542.265	11.44
542.464	11.41
542.663	11.47
542.862	11.47
543.06	11.42
543.259	11.4
543.458	11.42
543.657	11.44
543.856	11.44
544.054	11.49
544.253	11.53
544.452	11.61
544.651	11.59
544.849	11.61
545.048	11.62
545.247	11.57
545.445	11.5
545.644	11.53
545.843	11.49
546.041	11.49
546.24	11.42
546.438	11.48
546.637	11.48
546.836	11.59
547.034	11.69
547.233	11.82
547.431	11.82
547.63	11.82
547.828	11.78
548.027	11.75
548.225	11.74
548.423	11.78
548.622	11.82
548.82	11.85
549.019	11.85
549.217	11.87
549.415	11.9
549.614	11.97
549.812	11.99
550.01	12.04
550.209	12.13
550.407	12.17
550.605	12.12
550.803	12.19
551.002	12.26
551.2	12.23
551.398	12.3
551.596	12.38
551.794	12.4
551.993	12.41
552.191	12.46
552.389	12.43
552.587	12.5
552.785	12.52
552.983	12.54
553.181	12.55
553.379	12.65
553.577	12.68
553.775	12.78
553.973	12.83
554.171	12.92
554.369	12.97
554.567	13
554.765	12.96
554.963	12.99
555.161	13.03
555.359	13.07
555.557	13.12
555.755	13.27
555.952	13.37
556.15	13.45
556.348	13.47
556.546	13.59
556.744	13.61
556.941	13.63
557.139	13.68
557.337	13.77
557.535	13.74
557.732	13.77
557.93	13.89
558.128	13.93
558.325	13.95
558.523	14.06
558.721	14.15
558.918	14.23
559.116	14.38
559.313	14.47
559.511	14.54
559.708	14.61
559.906	14.66
560.104	14.66
560.301	14.74
560.498	14.87
560.696	14.93
560.893	14.96
561.091	15.01
561.288	15.14
561.486	15.09
561.683	15.13
561.88	15.26
562.078	15.36
562.275	15.38
562.473	15.44
562.67	15.52
562.867	15.58
563.064	15.69
563.262	15.74
563.459	15.95
563.656	16.1
563.853	16.17
564.051	16.26
564.248	16.32
564.445	16.31
564.642	16.39
564.839	16.44
565.036	16.5
565.234	16.66
565.431	16.76
565.628	16.77
565.825	16.85
566.022	16.94
566.219	16.98
566.416	17.09
566.613	17.15
566.81	17.25
567.007	17.26
567.204	17.33
567.401	17.41
567.598	17.55
567.795	17.5
567.991	17.57
568.188	17.62
568.385	17.65
568.582	17.75
568.779	17.92
568.976	18
569.172	18.06
569.369	18.13
569.566	18.16
569.763	18.11
569.96	18.21
570.156	18.3
570.353	18.26
570.55	18.25
570.746	18.38
570.943	18.36
571.14	18.32
571.336	18.41
571.533	18.51
571.729	18.55
571.926	18.63
572.123	18.7
572.319	18.75
572.516	18.76
572.712	18.82
572.909	18.83
573.105	18.85
573.302	18.89
573.498	18.88
573.695	18.82
573.891	18.86
574.087	18.82
574.284	18.84
574.48	18.94
574.677	19.01
574.873	19.04
575.069	19.1
575.266	19.18
575.462	19.15
575.658	19.21
575.854	19.28
576.051	19.41
576.247	19.32
576.443	19.34
576.639	19.34
576.835	19.27
577.032	19.17
577.228	19.27
577.424	19.28
577.62	19.19
577.816	19.19
578.012	19.31
578.208	19.27
578.404	19.3
578.6	19.43
578.796	19.51
578.993	19.5
579.189	19.47
579.384	19.51
579.58	19.44
579.776	19.43
579.972	19.4
580.168	19.43
580.364	19.46
580.56	19.43
580.756	19.35
580.952	19.26
581.148	19.27
581.343	19.18
581.539	19.26
581.735	19.29
581.931	19.3
582.127	19.24
582.322	19.21
582.518	19.14
582.714	19.1
582.909	19.14
583.105	19.14
583.301	19.24
583.496	19.21
583.692	19.21
583.888	19.23
584.083	19.27
584.279	19.19
584.474	19.2
584.67	19.24
584.866	19.21
585.061	19.28
585.257	19.29
585.452	19.37
585.648	19.31
585.843	19.31
586.039	19.15
586.234	19.16
586.429	19.04
586.625	19.18
586.82	19.22
587.015	19.24
587.211	19.21
587.406	19.31
587.601	19.29
587.797	19.25
587.992	19.25
588.187	19.28
588.383	19.21
588.578	19.31
588.773	19.4
588.968	19.51
589.163	19.61
589.359	19.67
589.554	19.47
589.749	19.46
589.944	19.48
590.139	19.45
590.334	19.54
590.529	19.68
590.724	19.79
590.919	19.86
591.114	19.94
591.309	19.91
591.504	19.92
591.699	19.87
591.894	19.85
592.089	19.82
592.284	19.81
592.479	19.84
592.674	19.89
592.869	19.83
593.064	19.89
593.259	20.04
593.454	20.06
593.648	20.12
593.843	20.28
594.038	20.34
594.233	20.36
594.428	20.41
594.622	20.44
594.817	20.52
595.012	20.54
595.206	20.54
595.401	20.65
595.596	20.71
595.79	20.74
595.985	20.77
596.18	20.9
596.374	20.97
596.569	21.07
596.763	21.09
596.958	21.2
597.153	21.22
597.347	21.2
597.542	21.21
597.736	21.32
597.931	21.45
598.125	21.56
598.319	21.68
598.514	21.72
598.708	21.8
598.903	21.83
599.097	21.89
599.291	21.94
599.486	22.12
599.68	22.1
599.874	22.17
600.069	22.22
600.263	22.27
600.457	22.22
600.651	22.24
600.846	22.29
601.04	22.24
601.234	22.2
601.428	22.22
601.622	22.34
601.817	22.31
602.011	22.41
602.205	22.48
602.399	22.46
602.593	22.43
602.787	22.4
602.981	22.35
603.175	22.47
603.369	22.51
603.563	22.6
603.757	22.63
603.951	22.67
604.145	22.56
604.339	22.59
604.533	22.51
604.727	22.52
604.921	22.56
605.115	22.58
605.309	22.56
605.502	22.65
605.696	22.64
605.89	22.64
606.084	22.58
606.278	22.59
606.471	22.48
606.665	22.43
606.859	22.35
607.053	22.27
607.246	22.2
607.44	22.11
607.634	22.09
607.827	21.96
608.021	22.02
608.214	22
608.408	21.91
608.602	21.87
608.795	21.9
608.989	21.81
609.182	21.81
609.376	21.76
609.569	21.72
609.763	21.63
609.956	21.6
610.15	21.53
610.343	21.54
610.537	21.52
610.73	21.39
610.923	21.29
611.117	21.28
611.31	21.16
611.504	21.1
611.697	21.11
611.89	21.05
612.083	20.86
612.277	20.86
612.47	20.67
612.663	20.59
612.856	20.58
613.05	20.61
613.243	20.49
613.436	20.53
613.629	20.5
613.822	20.41
614.015	20.34
614.209	20.25
614.402	20.13
614.595	20.12
614.788	20.09
614.981	19.99
615.174	19.93
615.367	19.91
615.56	19.82
615.753	19.81
615.946	19.82
616.139	19.79
616.332	19.8
616.525	19.75
616.718	19.66
616.911	19.6
617.103	19.61
617.296	19.58
617.489	19.55
617.682	19.5
617.875	19.45
618.067	19.37
618.26	19.31
618.453	19.21
618.646	19.28
618.838	19.26
619.031	19.22
619.224	19.18
619.417	19.23
619.609	19.06
619.802	19.01
619.994	19.01
620.187	18.91
620.38	18.73
620.572	18.77
620.765	18.79
620.957	18.75
621.15	18.81
621.342	18.93
621.535	18.9
621.727	18.81
621.92	18.8
622.112	18.75
622.305	18.73
622.497	18.7
622.69	18.65
622.882	18.64
623.074	18.69
623.267	18.7
623.459	18.69
623.651	18.72
623.844	18.6
624.036	18.61
624.228	18.56
624.42	18.49
624.613	18.47
624.805	18.48
624.997	18.37
625.189	18.35
625.381	18.31
625.574	18.29
625.766	18.31
625.958	18.32
626.15	18.33
626.342	18.32
626.534	18.33
626.726	18.38
626.918	18.33
627.11	18.2
627.302	18.22
627.494	18.16
627.686	18.05
627.878	18.01
628.07	18
628.262	18
628.454	17.97
628.646	17.94
628.838	17.98
629.029	17.99
629.221	17.89
629.413	17.92
629.605	17.83
629.797	17.73
629.989	17.8
630.18	17.84
630.372	17.79
630.564	17.79
630.755	17.87
630.947	17.74
631.139	17.67
631.33	17.6
631.522	17.64
631.714	17.53
631.905	17.54
632.097	17.5
632.289	17.55
632.48	17.5
632.672	17.52
632.863	17.4
633.055	17.38
633.246	17.34
633.438	17.45
633.629	17.38
633.821	17.48
634.012	17.58
634.203	17.57
634.395	17.5
634.586	17.54
634.777	17.51
634.969	17.46
635.16	17.46
635.351	17.35
635.543	17.26
635.734	17.24
635.925	17.15
636.117	17.17
636.308	17.26
636.499	17.34
636.69	17.32
636.881	17.28
637.073	17.3
637.264	17.29
637.455	17.18
637.646	17.14
637.837	17.27
638.028	17.18
638.219	17.27
638.41	17.33
638.601	17.35
638.792	17.24
638.983	17.19
639.174	17.06
639.365	17.15
639.556	17.13
639.747	17.15
639.938	17.26
640.129	17.22
640.32	17.18
640.511	17.21
640.701	17.28
640.892	17.22
641.083	17.2
641.274	17.09
641.465	17.03
641.655	16.98
641.846	17.04
642.037	17.01
642.228	16.89
642.418	16.9
642.609	16.85
642.8	16.72
642.99	16.75
643.181	16.94
643.372	16.94
643.562	16.91
643.753	16.92
643.943	16.83
644.134	16.6
644.324	16.59
644.515	16.58
644.705	16.58
644.896	16.7
645.086	16.78
645.277	16.7
645.467	16.65
645.658	16.59
645.848	16.46
646.038	16.42
646.229	16.5
646.419	16.43
646.61	16.52
646.8	16.62
646.99	16.65
647.18	16.52
647.371	16.53
647.561	16.4
647.751	16.28
647.941	16.32
648.132	16.32
648.322	16.31
648.512	16.34
648.702	16.38
648.892	16.38
649.082	16.42
649.272	16.39
649.462	16.32
649.653	16.32
649.843	16.26
650.033	16.23
650.223	16.21
650.413	16.26
650.603	16.21
650.793	16.21
650.983	16.15
651.172	16.08
651.362	15.96
651.552	15.94
651.742	15.86
651.932	15.81
652.122	15.88
652.312	15.84
652.502	15.71
652.691	15.68
652.881	15.68
653.071	15.58
653.261	15.49
653.45	15.43
653.64	15.37
653.83	15.36
654.019	15.2
654.209	15.16
654.399	15.04
654.588	14.86
654.778	14.67
654.968	14.68
655.157	14.58
655.347	14.43
655.536	14.28
655.726	14.14
655.915	13.94
656.105	13.84
656.294	13.78
656.484	13.67
656.673	13.58
656.863	13.48
657.052	13.36
657.241	13.29
657.431	13.24
657.62	13.17
657.809	13.05
657.999	12.91
658.188	12.77
658.377	12.58
658.567	12.48
658.756	12.3
658.945	12.14
659.134	12.07
659.324	11.98
659.513	11.77
659.702	11.64
659.891	11.56
660.08	11.34
660.269	11.21
660.458	11.09
660.648	11
660.837	10.88
661.026	10.71
661.215	10.67
661.404	10.51
661.593	10.45
661.782	10.33
661.971	10.23
662.16	10.14
662.349	10.06
662.538	9.94
662.726	9.73
662.915	9.79
663.104	9.6
663.293	9.59
663.482	9.49
663.671	9.5
663.86	9.31
664.048	9.29
664.237	9.21
664.426	9.2
664.615	9.1
664.803	9.07
664.992	9.05
665.181	8.96
665.369	8.74
665.558	8.73
665.747	8.75
665.935	8.69
666.124	8.61
666.312	8.67
666.501	8.63
666.69	8.58
666.878	8.57
667.067	8.53
667.255	8.46
667.444	8.48
667.632	8.5
667.82	8.46
668.009	8.47
668.197	8.61
668.386	8.5
668.574	8.43
668.762	8.38
668.951	8.4
669.139	8.26
669.327	8.32
669.516	8.36
669.704	8.38
669.892	8.32
670.08	8.36
670.269	8.35
670.457	8.3
670.645	8.29
670.833	8.42
671.021	8.51
671.21	8.55
671.398	8.56
671.586	8.63
671.774	8.7
671.962	8.61
672.15	8.75
672.338	8.83
672.526	8.79
672.714	8.68
672.902	8.67
673.09	8.66
673.278	8.73
673.466	8.81
673.654	8.92
673.842	9.07
674.03	9.1
674.218	9.05
674.405	9.08
674.593	9.1
674.781	9.12
674.969	9.21
675.157	9.34
675.344	9.41
675.532	9.39
675.72	9.43
675.908	9.29
676.095	9.33
676.283	9.41
676.471	9.49
676.658	9.56
676.846	9.7
677.033	9.69
677.221	9.62
677.409	9.73
677.596	9.81
677.784	9.94
677.971	9.98
678.159	10.15
678.346	10.15
678.534	10.22
678.721	10.3
678.909	10.48
679.096	10.48
679.283	10.64
679.471	10.75
679.658	10.97
679.846	10.94
680.033	11.19
680.22	11.19
680.408	11.18
680.595	11.08
680.782	11.38
680.969	11.46
681.157	11.64
681.344	11.71
681.531	11.94
681.718	11.91
681.905	12.02
682.093	12.21
682.28	12.52
682.467	12.57
682.654	12.74
682.841	12.79
683.028	12.75
683.215	12.89
683.402	12.93
683.589	13.06
683.776	13.15
683.963	13.43
684.15	13.53
684.337	13.76
684.524	14.06
684.711	14.45
684.898	14.52
685.085	14.57
685.271	14.81
685.458	14.95
685.645	15.18
685.832	15.48
686.019	15.85
686.205	16.12
686.392	16.36
686.579	16.55
686.766	16.84
686.952	17.05
687.139	17.33
687.326	17.8
687.512	18.05
687.699	18.33
687.886	18.73
688.072	18.91
688.259	19.13
688.445	19.5
688.632	19.8
688.818	20.27
689.005	20.87
689.191	21.29
689.378	21.79
689.564	22.28
689.751	22.63
689.937	23.11
690.124	23.53
690.31	23.92
690.496	24.54
690.683	25.19
690.869	25.62
691.055	26.11
691.242	26.64
691.428	26.99
691.614	27.64
691.8	28.07
691.987	28.72
692.173	29.26
692.359	29.84
692.545	30.37
692.731	31.12
692.918	31.42
693.104	32.14
693.29	32.7
693.476	32.99
693.662	33.58
693.848	34.34
694.034	34.7
694.22	35.4
694.406	36.1
694.592	36.73
694.778	37.29
694.964	38.03
695.15	38.57
695.336	39.19
695.522	39.63
695.708	40.4
695.894	41.04
696.08	41.77
696.265	42.54
696.451	43.18
696.637	43.64
696.823	44.18
697.009	44.82
697.194	45.18
697.38	45.67
697.566	46.2
697.751	46.85
697.937	47.28
698.123	47.76
698.308	48.13
698.494	48.71
698.68	49.08
698.865	49.31
699.051	49.82
699.236	50.49
699.422	50.75
699.607	51.26
699.793	52.12
699.978	52.58
700.164	53.03
700.349	53.83
700.535	54.01
700.72	54.09
700.906	54.34
701.091	54.69
701.276	54.9
701.462	55.37
701.647	56.02
701.832	56.71
702.018	57.18
702.203	57.64
702.388	57.86
702.573	58.02
702.759	58.07
702.944	58.07
703.129	58.15
703.314	58.68
703.499	58.97
703.684	59.5
703.87	59.97
704.055	60.44
704.24	60.79
704.425	61.14
704.61	61.47
704.795	61.99
704.98	62.31
705.165	62.48
705.35	62.81
705.535	63.01
705.72	63.08
705.905	63.21
706.09	63.42
706.275	63.82
706.459	63.92
706.644	64.14
706.829	64.43
707.014	65.02
707.199	64.92
707.384	65.25
707.568	65.34
707.753	65.72
707.938	65.57
708.123	66.19
708.307	66.39
708.492	66.93
708.677	66.92
708.861	67.09
709.046	66.65
709.231	66.37
709.415	66.25
709.6	66.29
709.784	66.56
709.969	67.25
710.153	67.59
710.338	68.03
710.522	68.38
710.707	68.48
710.891	68.46
711.076	68.47
711.26	68.54
711.445	68.71
711.629	68.53
711.813	68.8
711.998	68.94
712.182	68.7
712.366	68.9
712.551	69.32
712.735	69.06
712.919	69.82
713.103	69.9
713.288	69.86
713.472	70.13
713.656	70.07
713.84	69.66
714.024	70.14
714.208	70.03
714.393	70.07
714.577	70.34
714.761	70.31
714.945	70.17
715.129	70.39
715.313	70.03
715.497	70.24
715.681	70.35
715.865	70.27
716.049	70.31
716.233	70.38
716.417	70.63
716.601	70.72
716.785	71.03
716.968	71.05
717.152	71.3
717.336	71.24
717.52	71.6
717.704	71.91
717.888	72.42
718.071	72.5
718.255	72.82
718.439	72.5
718.622	72.13
718.806	71.81
718.99	71.51
719.174	71.36
719.357	71.56
719.541	71.76
719.724	72.07
719.908	72.63
720.092	72.41
720.275	72.57
720.459	72.95
720.642	72.59
720.826	72.17
721.009	72.41
721.193	72.13
721.376	71.76
721.559	72.41
721.743	72.73
721.926	73
722.11	73.74
722.293	74.38
722.476	73.43
722.66	74.17
722.843	74.13
723.026	74.1
723.21	73.63
723.393	74.86
723.576	74.41
723.759	74.15
723.942	74.01
724.126	73.88
724.309	73.3
724.492	73.6
724.675	73.92
724.858	74.15
725.041	74.73
725.224	74.91
725.407	74.45
725.59	74.3
725.774	74.08
725.957	74.13
726.14	74.31
726.322	75.33
726.505	75.82
726.688	76.52
726.871	76.4
727.054	76.52
727.237	76.17
727.42	75.4
727.603	75.13
727.786	75.25
727.968	75.11
728.151	75.1
728.334	75.99
728.517	75.75
728.699	75.51
728.882	75.53
729.065	75.15
729.248	74.99
729.43	75.46
729.613	75.6
729.796	75.91
729.978	76.25
730.161	76.25
730.343	76.19
730.526	76.74
730.708	76.41
730.891	76.53
731.073	76.76
731.256	76.67
731.438	76.91
731.621	77.32
731.803	77.59
731.986	78
732.168	78.19
732.35	78.24
732.533	78.18
732.715	77.76
732.898	77.78
733.08	77.6
733.262	77.26
733.444	77.35
733.627	77.68
733.809	77.55
733.991	77.72
734.173	78.38
734.355	77.87
734.538	78.25
734.72	77.94
734.902	78.23
735.084	77.61
735.266	78.61
735.448	78.57
735.63	78.88
735.812	78.88
735.994	78.89
736.176	78.7
736.358	78.38
736.54	79.08
736.722	78.46
736.904	78.93
737.086	78.97
737.268	79.74
737.45	79.64
737.632	80.43
737.814	80.43
737.995	80.06
738.177	80.27
738.359	80.02
738.541	79.51
738.723	79.73
738.904	80.29
739.086	80.31
739.268	79.98
739.449	80.13
739.631	79.16
739.813	78.29
739.994	77.57
740.176	77.64
740.358	78.19
740.539	78.62
740.721	79.99
740.902	80.18
741.084	80.41
741.265	80.44
741.447	80.79
741.628	80.86
741.81	81.54
741.991	82.13
742.172	82.38
742.354	82.73
742.535	82.33
742.717	80.89
742.898	80.2
743.079	79.94
743.261	80.1
743.442	78.96
743.623	80.62
743.804	80.51
743.986	80.55
744.167	79.67
744.348	80.24
744.529	79.49
744.71	79.42
744.891	79.46
745.073	79.55
745.254	79.58
745.435	79.86
745.616	80.16
745.797	79.24
745.978	79.29
746.159	79.33
746.34	79.67
746.521	79.5
746.702	80.05
746.883	80.07
747.064	79.34
747.245	78.61
747.426	78.17
747.606	78.06
747.787	78.34
747.968	78.99
748.149	78.47
748.33	78.09
748.51	77.35
748.691	77.8
748.872	78.78
749.053	79
749.233	79.31
749.414	80.8
749.595	80.26
749.775	79.16
749.956	79.28
750.137	80
750.317	79.34
750.498	79.13
750.678	79.43
750.859	79.84
751.04	79.67
751.22	78.76
751.4	79.54
751.581	79.67
751.761	79.43
751.942	80.25
752.122	80.88
752.303	80.37
752.483	80.35
752.663	80.85
752.844	80.19
753.024	81.16
753.204	80.92
753.385	80.27
753.565	79.39
753.745	79.24
753.925	77.13
754.106	77.32
754.286	77.55
754.466	77.49
754.646	76.76
754.826	78.64
755.006	78.57
755.187	79.41
755.367	78.75
755.547	78.96
755.727	78.23
755.907	77.47
756.087	77.82
756.267	78.55
756.447	80.5
756.627	80.88
756.807	83.37
756.987	82.1
757.167	82.02
757.346	79.67
757.526	80.85
757.706	78.86
757.886	78.48
758.066	78.52
758.246	78.28
758.425	76.07
758.605	75.74
758.785	77.24
758.965	78.1
759.144	77.61
759.324	79.55
759.504	79.92
759.683	78.9
759.863	78.47
760.043	79.77
760.222	78.76
760.402	78.62
760.581	79.65
760.761	79.49
760.94	79.34
761.12	79.48
761.299	79.58
761.479	79.82
761.658	80.3
761.838	80.57
762.017	80.99
762.197	80.48
762.376	79.47
762.555	79.05
762.735	78.5
762.914	78.19
763.093	78.75
763.273	77.73
763.452	76.16
763.631	75.29
763.81	75.14
763.99	73.67
764.169	73.58
764.348	73.19
764.527	73.11
764.706	72.22
764.885	74.71
765.064	76.59
765.243	77.7
765.423	79.6
765.602	80.43
765.781	78.17
765.96	75.51
766.139	75.17
766.318	75.82
766.497	74.42
766.676	73.5
766.854	74.84
767.033	74.95
767.212	74.84
767.391	76.02
767.57	78.62
767.749	77.19
767.928	78.22
768.106	76.06
768.285	75.2
768.464	74.05
768.643	74.76
768.821	74.15
769	74.64
769.179	74.9
769.357	75.36
769.536	75.35
769.715	72.97
769.893	72.86
770.072	72.12
770.25	69.8
770.429	71.06
770.607	73.2
770.786	72.44
770.964	74.19
771.143	75.48
771.321	72.78
771.5	73.45
771.678	74.12
771.857	71.08
772.035	71.05
772.213	73.13
772.392	71.26
772.57	70.46
772.748	72.11
772.927	72.84
773.105	73.57
773.283	73.74
773.461	75.13
773.64	75.16
773.818	75.14
773.996	75.65
774.174	77.51
774.352	75.98
774.531	75.67
774.709	75.76
774.887	72.84
775.065	72.08
775.243	72.39
775.421	72.21
775.599	72.06
775.777	72.94
775.955	72.92
776.133	74.44
776.311	73.75
776.489	73.62
776.667	72.71
776.844	72.21
777.022	71.28
777.2	71.71
777.378	71.64
777.556	75.29
777.734	76.46
777.911	75.59
778.089	77.66
778.267	76.75
778.445	76.56
778.622	74.17
778.8	73.94
778.978	73.34
779.155	74.68
779.333	73.23
779.511	73.87
779.688	74.84
779.866	76.11
780.043	75.84
780.221	74.57
780.398	74.29
780.576	74.65
780.753	73.11
780.931	73.12
781.108	74.33
781.286	75.57
781.463	74.99
781.64	73.72
781.818	75.67
781.995	75.56
782.172	75
782.35	74.74
782.527	76.31
782.704	73.88
782.882	73.95
783.059	74.22
783.236	76.12
783.413	74.3
783.59	73.89
783.768	71.49
783.945	69.14
784.122	68.28
784.299	69.29
784.476	65.66
784.653	64.28
784.83	65.38
785.007	64.09
785.184	62.13
785.361	65.65
785.538	68.68
785.715	71.78
785.892	69.63
786.069	69.55
786.246	68.89
786.423	65.69
786.6	64.49
786.776	67.04
786.953	66.57
787.13	68.06
787.307	69.82
787.484	66.62
787.66	65.22
787.837	64.74
788.014	65.3
788.191	62.67
788.367	62.05
788.544	59.66
788.721	60.83
788.897	60.45
789.074	61.97
789.25	64.26
789.427	66.07
789.603	64.29
789.78	63.08
789.956	59.91
790.133	57.86
790.309	61.05
790.486	64.6
790.662	65.1
790.839	68.95
791.015	72.42
791.192	70.13
791.368	68.08
791.544	67.96
791.721	69.68
791.897	67.23
792.073	67.79
792.249	67.2
792.426	67.52
792.602	68.01
792.778	68.09
792.954	68.73
793.13	70.47
793.307	71.4
793.483	67.4
793.659	68.25
793.835	69.78
794.011	70.43
794.187	69.91
794.363	70.97
794.539	71.35
794.715	69.99
794.891	67.09
795.067	63.6
795.243	62.58
795.419	63.11
795.595	64.98
795.771	68.07
795.947	65.89
796.122	63.11
796.298	61.32
796.474	62.07
796.65	59.54
796.826	61.69
797.001	65.32
797.177	61.86
797.353	55.56
797.529	60.02
797.704	62.08
797.88	62.34
798.056	65.57
798.231	69.69
798.407	68.08
798.582	64.59
798.758	65.81
798.934	67.07
799.109	62.49
799.285	62.36
799.46	64.84
799.636	61.37
799.811	59.41
799.986	64.07
800.162	59.13
800.337	61.66
800.513	67.99
800.688	66.47
800.863	68.8
801.039	70.34
801.214	66.37
801.389	59.22
801.565	64.35
801.74	63.38
801.915	64.24
802.09	65.97
802.265	72.38
802.441	71.1
802.616	74.19
802.791	77.59
802.966	76.7
803.141	73.23
803.316	72.76
803.491	67.3
803.666	67.4
803.841	63.97
804.016	59.6
804.191	61.39
804.366	57.38
804.541	56.47
804.716	61.83
804.891	65.08
805.066	62.16
805.241	60.2
805.416	66.24
805.591	65.25
805.765	67.12
805.94	66.74
806.115	68.14
806.29	60.88
806.464	65.25
806.639	66.15
806.814	67.73
806.989	72.69
807.163	77.98
807.338	71.08
807.512	72.11
807.687	71.26
807.862	68.26
808.036	69.16
808.211	73.95
808.385	71.03
808.56	73.45
808.734	62.75
808.909	56.53
809.083	58.56
809.258	58.41
809.432	54
809.606	59.36
809.781	59.33
809.955	60.49
810.13	58.3
810.304	62.4
810.478	68.58
810.652	67.54
810.827	67.57
811.001	66.74
811.175	63.91
811.349	62.02
811.524	62.41
811.698	55.72
811.872	58.99
812.046	61.07
812.22	61.74
812.394	62.65
812.568	65.16
812.742	57.31
812.916	58.89
813.09	54.17
813.264	50.61
813.438	48.23
813.612	50.21
813.786	42.4
813.96	51.74
814.134	54.87
814.308	60.01
814.482	68.99
814.656	73.56
814.83	68.77
815.003	67.82
815.177	63.78
815.351	63.62
815.525	70.83
815.698	60.39
815.872	53.69
816.046	50.65
816.219	48.77
816.393	38.94
816.567	46.84
816.74	55.89
816.914	71.15
817.088	69.47
817.261	67.75
817.435	71.53
817.608	65.58
817.782	49.71
817.955	48.76
818.129	51.88
818.302	54.88
818.475	57.74
818.649	64.55
818.822	60.4
818.996	76.07
819.169	71.15
819.342	69.58
819.516	65.79
819.689	65.55
819.862	51.09
820.035	54.49
820.209	45.87
820.382	35.3
820.555	41.11
820.728	41.54
820.901	33.69
821.075	50.2
821.248	61.42
821.421	54.76
821.594	58.67
821.767	66.62
821.94	57.23
822.113	59.43
822.286	71.01
822.459	60.88
822.632	57.52
822.805	57.68
822.978	57.22
823.151	44.15
823.324	37.96
823.496	30.38
823.669	40.54
823.842	50.38
824.015	59.54
824.188	64.36
824.361	72
824.533	54.6
824.706	43.64
824.879	43.92
825.051	59.48
825.224	58.6
825.397	60.67
825.569	58.19
825.742	54.67
825.915	54
826.087	49.11
826.26	43.4
826.432	38.88
826.605	35.06
826.777	35.88
826.95	40.94
827.122	28.61
827.295	37.21
827.467	33.7
827.64	26.74
827.812	16.44
827.984	44.04
828.157	31.17
828.329	43.9
828.501	38.72
828.674	45.99
828.846	45.67
829.018	48.82
829.19	39.08
829.363	39.29
829.535	31.74
829.707	27.9
829.879	20.96
830.051	24.83
830.223	40.88
830.395	43.71
830.568	36.26
830.74	41.64
830.912	37.99
831.084	26.49
831.256	22.16
831.428	37.48
831.6	26.93
831.772	34.12
831.943	24.08
832.115	35.99
832.287	27.3
832.459	41.22
832.631	41.22
832.803	47.19
832.975	40.38
833.146	38.56
833.318	47.12
833.49	54.14
833.662	63.31
833.833	71.37
834.005	66.76
834.177	52.01
834.348	41.99
834.52	36.41
834.692	31.22
834.863	30.59
835.035	37.69
835.206	36.7
835.378	44.35
835.549	45.33
835.721	47.09
835.892	46.87
836.064	47.53
836.235	45.41
836.407	45.04
836.578	42.94
836.749	36.58
836.921	38.75
837.092	30.94
837.264	40.06
837.435	42.6
837.606	54.67
837.777	48.8
837.949	53.49
838.12	51.33
838.291	46.98
838.462	26.92
838.633	31.34
838.805	23.84
838.976	22.15
839.147	34.17
839.318	56.8
839.489	53.08
839.66	51.33
839.831	50.2
840.002	46.39
840.173	38
840.344	37.27
840.515	40.74
840.686	47.08
840.857	59.25
841.028	60.35
841.199	63.7
841.369	55.26
841.54	34.98
841.711	10.54
841.882	33.42
842.053	28.95
842.223	32.34
842.394	48.27
842.565	44.55
842.736	39.87
842.906	41.99
843.077	42.58
843.248	42.56
843.418	34.49
843.589	15.71
843.759	30.63
843.93	27.52
844.101	10.84
844.271	22.49
844.442	52.57
844.612	41.96
844.783	62.63
844.953	63.8
845.123	79.3
845.294	80.34
845.464	83.18
845.635	62
845.805	84.65
845.975	58.35
846.146	53.25
846.316	66.75
846.486	63.62
846.656	61.6
846.827	66.86
846.997	71.16
847.167	57.08
847.337	60.8
847.507	60.08
847.677	52.86
847.848	58.08
848.018	71.89
848.188	80.85
848.358	72.04
848.528	60.89
848.698	30.7
848.868	24.44
849.038	9.29
849.208	25.8
849.378	40.03
849.548	45.42
849.718	6.13
849.887	-25.78
850.057	-31.05
850.227	-7.69
850.397	-7.57
850.567	12.31
850.737	42.58
850.906	8.68
851.076	-17.36
851.246	36.83
851.415	54.28
851.585	72.97
851.755	87.48
851.924	109.95
852.094	89.48
852.264	95.46
852.433	60.37
852.603	76.95
852.772	82.86
852.942	75.45
853.111	47.06
853.281	72.71
853.45	43.64
853.62	11.24
853.789	-12.89
853.959	16.59
854.128	4.33
854.297	19.33
854.467	20.86
854.636	37.75
854.805	12.08
854.975	-1.2
855.144	-17.12
855.313	-19.16
855.482	-40.62
855.652	-20.63
855.821	-8.03
855.99	-28.04
856.159	-12.46
856.328	-13.33
856.497	2.55
856.667	-4.19
856.836	26.5
857.005	22.72
857.174	36.68
857.343	13.88
857.512	27.06
857.681	38.35
857.85	15.55
858.019	-6.61
858.188	-19.73
858.356	-11.01
858.525	-16.66
858.694	2.94
858.863	22.9
859.032	29.56
859.201	6.08
859.369	31.24
859.538	32.92
859.707	4.73
859.876	25.59
860.044	51.21
860.213	52.58
860.382	51.8
860.55	40.56
860.719	34.94
860.888	12.53
861.056	-17.62
861.225	-66.08
861.393	-47.05
861.562	-38.74
861.73	-16.8
861.899	12.97
862.067	26.92
862.236	34.72
862.404	36.76
862.572	43.94
862.741	-4.3
862.909	-4.38
863.078	-15.08
863.246	-18.13
863.414	-10
863.582	16.44
863.751	17.1
863.919	11.31
864.087	-11.57
864.255	-35.93
864.424	-95.67
864.592	-29.61
864.76	-31.08
864.928	-7.52
865.096	-8.81
865.264	33.42
865.432	15.62
865.6	35.05
865.768	2.32
865.936	17.28
866.104	-27.79
866.272	-85.96
866.44	-85.15
866.608	-26.34
866.776	-40.61
866.944	10.99
867.112	34.69
867.28	49.66
867.448	52.78
867.615	68.46
867.783	48.67
867.951	38.69
868.119	43.22
868.286	46.75
868.454	37.45
868.622	38.65
868.789	51.28
868.957	61.73
869.125	72.51
869.292	38.21
869.46	44.68
869.627	27.6
869.795	-18.1
869.963	-34.66
870.13	6.56
870.298	9.87
870.465	36.19
870.632	19.7
870.8	51.29
870.967	36.08
871.135	15.17
871.302	-6.06
871.469	27.7
871.637	18.55
871.804	17.13
871.971	15.69
872.139	26.66
872.306	-15.81
872.473	-57.54
872.64	-115.55
872.807	-112.43
872.975	-240
873.142	-37.36
873.309	-20.21
873.476	12.37
873.643	38.94
873.81	30.67
873.977	-13.12
874.144	-6.72
874.311	-33.51
874.478	-67.73
874.645	-98.8
874.812	15.29
874.979	36.98
875.146	3.07
875.313	35.57
875.48	62.48
875.647	47.93
875.813	11.25
875.98	41.48
876.147	-23.17
876.314	-25.81
876.481	-1.31
876.647	38.38
876.814	37.76
876.981	49.22
877.147	77.55
877.314	65.83
877.481	69.12
877.647	59.23
877.814	78.94
877.98	49.99
878.147	76.09
878.314	59.93
878.48	70.93
878.647	60.1
878.813	102.2
878.979	80.91
879.146	107.29
879.312	100.81
879.479	67.66
879.645	37.67
879.811	10.34
879.978	26.01
880.144	30.05
880.31	63.17
880.477	79.57
880.643	75.75
880.809	31.65
880.975	-8.69
881.142	-168.22
881.308	612.11
881.474	806.85
881.64	-67.42
881.806	-104.51
881.972	22.21
882.138	26.18
882.304	3.72
882.47	-39.72
882.636	-30.73
882.802	-52.11
882.968	-42.53
883.134	31.31
883.3	43.81
883.466	100.54
883.632	103.11
883.798	63.92
883.964	-28.4
884.129	-775.55
884.295	-41.71
884.461	-75.58
884.627	-1.67
884.793	-25.84
884.958	15.49
885.124	-17.01
885.29	-64.32
885.455	-136.98
885.621	-75.85
885.787	-42.97
885.952	-58.09
886.118	17.62
886.283	25.15
886.449	19.04
886.614	6.29
886.78	14.59
886.945	-19.33
887.111	-23.54
887.276	-44.14
887.442	-62.63
887.607	-40.43
887.773	4.39
887.938	-14.48
888.103	21.92
888.269	48.06
888.434	47.21
888.599	26.75
888.764	56.68
888.93	69.17
889.095	61.88
889.26	44.69
889.425	67.63
889.59	90.4
889.756	-8.2
889.921	-52.17
890.086	-42.07
890.251	26.59
890.416	-16.12
890.581	23.8
890.746	35.34
890.911	45.07
891.076	26.07
891.241	28.11
891.406	-1.01
891.571	76.21
891.736	-33.67
891.901	27.9
892.065	29.3
892.23	63.16
892.395	12.66
892.56	18.43
892.725	0.81
892.889	5.79
893.054	7.99
893.219	-30.58
893.384	6.97
893.548	-43.77
893.713	-60.94
893.878	-147.21
