Data from Ofra_2a_PS_4HS15_Reflection_2.txt Node
Date: Tue Jul 20 09:51:21 EDT 2021
User: Adam
Spectrometer: FLMT01687
Trigger mode: 0
Integration Time (sec): 9.450000E-1
Scans to average: 3
Electric dark correction enabled: true
Nonlinearity correction enabled: false
Boxcar width: 3
XAxis mode: Wavelengths
Number of Pixels in Spectrum: 3648
>>>>>Begin Spectral Data<<<<<
179.494	921.3
179.716	539.79
179.937	576.92
180.158	2339.06
180.38	-945.35
180.601	-172.86
180.823	-92.88
181.044	-123.11
181.265	-189.47
181.486	-53.97
181.708	-1878.26
181.929	-199.53
182.15	-729.55
182.372	-23.83
182.593	-58.56
182.814	350.3
183.035	233.06
183.257	132.13
183.478	72.33
183.699	48.37
183.92	28.11
184.141	31.96
184.363	13.2
184.584	7.51
184.805	14.29
185.026	-4.45
185.247	7.53
185.468	13.58
185.689	32.42
185.91	48.51
186.132	56.13
186.353	40.16
186.574	32.07
186.795	20.25
187.016	23.84
187.237	12.01
187.458	-8.3
187.679	-19.46
187.9	1.67
188.121	12.51
188.342	41.05
188.563	41.01
188.784	36.03
189.005	44.95
189.226	46.45
189.447	19.38
189.667	24.09
189.888	29.85
190.109	27.53
190.33	29.42
190.551	18.89
190.772	13.03
190.993	40.94
191.214	43.8
191.434	25.1
191.655	33.44
191.876	40.85
192.097	46.11
192.318	48.65
192.538	49.08
192.759	42.3
192.98	41.18
193.201	46.68
193.421	44.32
193.642	44.83
193.863	46.21
194.083	33.35
194.304	32.77
194.525	42.71
194.745	27.37
194.966	15.62
195.187	27.2
195.407	24.41
195.628	30.44
195.848	38.96
196.069	39.72
196.29	36.02
196.51	51.16
196.731	36.2
196.951	39.96
197.172	22.95
197.392	19.08
197.613	15.67
197.833	10.65
198.054	15.19
198.274	8.86
198.495	8
198.715	11.18
198.936	7.84
199.156	13.09
199.377	24.38
199.597	17.92
199.817	16.92
200.038	24.73
200.258	27.1
200.479	28.26
200.699	35.03
200.919	19.33
201.14	17.92
201.36	21.46
201.58	18.02
201.801	21.22
202.021	22.41
202.241	22.84
202.461	32.94
202.682	34.6
202.902	37.57
203.122	35.5
203.342	50.21
203.563	53.6
203.783	52.25
204.003	50.37
204.223	43.55
204.443	37.75
204.663	44.25
204.884	30.6
205.104	39.72
205.324	44.96
205.544	55.13
205.764	61.33
205.984	67.9
206.204	72.56
206.424	64.97
206.644	55.79
206.864	48.35
207.084	49.57
207.304	43.7
207.525	29.63
207.745	19.42
207.964	20.75
208.184	24.51
208.404	24.05
208.624	12.22
208.844	9.9
209.064	15.97
209.284	17.14
209.504	13.87
209.724	-15.4
209.944	-11.47
210.164	-1.02
210.384	24.12
210.604	11.92
210.823	13.31
211.043	11.01
211.263	41.29
211.483	37.46
211.703	39.18
211.922	28.42
212.142	38.84
212.362	35.6
212.582	38.42
212.801	15.33
213.021	16.44
213.241	16.34
213.461	14.87
213.68	16.34
213.9	31.42
214.12	26.09
214.339	38.89
214.559	41.54
214.779	39.64
214.998	42.64
215.218	50.41
215.438	59.73
215.657	58.13
215.877	64.64
216.096	59.09
216.316	55.36
216.535	46.17
216.755	38.5
216.974	23.89
217.194	31.59
217.413	30.8
217.633	16.65
217.852	7.57
218.072	19.49
218.291	33.1
218.511	32.89
218.73	21.64
218.95	20.72
219.169	34.79
219.389	37.85
219.608	35.47
219.827	21.39
220.047	25.95
220.266	33.39
220.485	33.66
220.705	22.43
220.924	30.92
221.143	21.82
221.363	21.71
221.582	22.08
221.801	31.07
222.021	36.18
222.24	43.16
222.459	32.04
222.678	43.81
222.897	40.37
223.117	36.76
223.336	25.69
223.555	6.09
223.774	18.83
223.993	22.2
224.213	25.81
224.432	36.65
224.651	34.14
224.87	26.72
225.089	35.64
225.308	27.62
225.527	28.13
225.746	29.72
225.965	23.04
226.184	26.77
226.404	20.99
226.623	27.89
226.842	25.19
227.061	34.55
227.28	47.34
227.499	45.74
227.718	41.41
227.936	45.98
228.155	49.72
228.374	58.46
228.593	55.93
228.812	41.29
229.031	45.15
229.25	46.88
229.469	54.57
229.688	52.62
229.907	46.77
230.125	45.23
230.344	48.25
230.563	41.91
230.782	30.52
231.001	23.84
231.22	12.87
231.438	12.86
231.657	7.26
231.876	11.88
232.095	23.03
232.313	41.19
232.532	44.63
232.751	55
232.969	61.62
233.188	70.92
233.407	61.23
233.625	61.21
233.844	50.01
234.063	44.04
234.281	33.2
234.5	33.98
234.719	28.22
234.937	40.05
235.156	34.6
235.374	27.59
235.593	30.39
235.811	24.83
236.03	14.01
236.249	21.86
236.467	17.21
236.686	18.3
236.904	16.4
237.123	24.04
237.341	29.5
237.559	38.19
237.778	39.92
237.996	39.4
238.215	30.27
238.433	37.23
238.652	28.7
238.87	28.97
239.088	16.6
239.307	20.72
239.525	9.79
239.743	7.27
239.962	13.86
240.18	25.58
240.398	25.14
240.617	31.07
240.835	29.69
241.053	44.5
241.271	44.87
241.49	37.45
241.708	28.57
241.926	27.01
242.144	35.92
242.363	27.93
242.581	30.31
242.799	34.13
243.017	30.7
243.235	35.22
243.453	46.76
243.672	41.39
243.89	52.34
244.108	46.24
244.326	38.7
244.544	47.32
244.762	45.8
244.98	38.3
245.198	28.47
245.416	22.16
245.634	26.7
245.852	44.99
246.07	41.07
246.288	40.1
246.506	48.99
246.724	67.47
246.942	75.66
247.16	64.38
247.378	40.56
247.596	46.06
247.814	37.35
248.032	16.14
248.25	4.84
248.468	-1.73
248.685	-3.71
248.903	3.69
249.121	1.87
249.339	20.86
249.557	40.39
249.775	26.28
249.992	24.11
250.21	21.14
250.428	19.48
250.646	26.06
250.863	27.79
251.081	23.99
251.299	49.76
251.517	58.23
251.734	72.65
251.952	84.9
252.17	77.34
252.387	62.58
252.605	64.48
252.823	56.01
253.04	63.08
253.258	49.52
253.475	34.62
253.693	36.35
253.911	35.06
254.128	15.35
254.346	13.39
254.563	3.08
254.781	6.63
254.998	4.65
255.216	-1.45
255.433	-2.96
255.651	9.36
255.868	14.29
256.086	25.65
256.303	26.69
256.521	17.36
256.738	22.26
256.956	19.35
257.173	23.18
257.39	29.4
257.608	31.12
257.825	30.56
258.043	42.9
258.26	45.63
258.477	34.94
258.695	40.64
258.912	44.79
259.129	36.22
259.346	40.55
259.564	33.38
259.781	35.49
259.998	40.22
260.216	41.42
260.433	39.3
260.65	47.2
260.867	27.06
261.084	38.81
261.302	29.21
261.519	29.76
261.736	17.83
261.953	15.5
262.17	12.14
262.387	26.24
262.604	12.29
262.822	25.63
263.039	34.6
263.256	31.95
263.473	22.79
263.69	25.32
263.907	22.86
264.124	27.65
264.341	22.89
264.558	27.47
264.775	34.25
264.992	47.42
265.209	40.01
265.426	36.46
265.643	35.79
265.86	35.27
266.077	31.7
266.294	26.44
266.51	23.95
266.727	21.6
266.944	24.1
267.161	28.43
267.378	35.52
267.595	20.87
267.812	13.68
268.028	18.32
268.245	20.01
268.462	23.94
268.679	13.38
268.896	4.44
269.112	20.18
269.329	27.67
269.546	20.1
269.763	32.95
269.979	28.45
270.196	38.14
270.413	38.74
270.629	31.53
270.846	31.18
271.063	36.64
271.279	24.06
271.496	18.16
271.712	9.16
271.929	18.8
272.146	29.28
272.362	12.68
272.579	13.85
272.795	15.58
273.012	23.33
273.228	29.78
273.445	25.85
273.661	14.97
273.878	34.37
274.094	30.77
274.311	30.35
274.527	26.4
274.744	17.61
274.96	18.45
275.177	34.41
275.393	29.02
275.609	34.19
275.826	37.16
276.042	54.76
276.259	49.5
276.475	47.4
276.691	36.41
276.908	35.18
277.124	35.83
277.34	30.78
277.557	21.4
277.773	24.53
277.989	21.26
278.205	14.55
278.422	16.36
278.638	19.33
278.854	19.41
279.07	4.37
279.286	3.62
279.503	9.44
279.719	21.87
279.935	14.66
280.151	12.97
280.367	14.94
280.583	29.6
280.799	41.29
281.016	39.59
281.232	39.84
281.448	43.78
281.664	36.32
281.88	35.47
282.096	40.49
282.312	33.31
282.528	28.95
282.744	20.78
282.96	23.57
283.176	25.81
283.392	33.03
283.608	30.77
283.824	32.48
284.04	38.31
284.256	35.98
284.471	36.98
284.687	31.03
284.903	32.26
285.119	21.05
285.335	16.82
285.551	25.14
285.767	32.23
285.982	31.46
286.198	37.77
286.414	39.58
286.63	48.16
286.846	51.22
287.061	46.8
287.277	48.18
287.493	52.19
287.709	46.66
287.924	43.01
288.14	32.14
288.356	39.28
288.571	25.22
288.787	23.32
289.003	15.8
289.218	19.41
289.434	22.54
289.65	34.03
289.865	36.05
290.081	39.55
290.296	35.67
290.512	42.39
290.727	62.27
290.943	52.64
291.159	41.99
291.374	36.57
291.59	32.12
291.805	32.56
292.021	14.11
292.236	-5.62
292.451	2.73
292.667	5.3
292.882	-0.25
293.098	-1.5
293.313	-2.81
293.529	4.09
293.744	9.77
293.959	10.11
294.175	13.57
294.39	23.86
294.605	31.21
294.821	29.72
295.036	33.31
295.251	32.76
295.467	14.03
295.682	16.35
295.897	9.04
296.112	10.57
296.328	16.1
296.543	5.46
296.758	-1.66
296.973	16.44
297.188	10.8
297.404	18.85
297.619	9.99
297.834	18.98
298.049	23.1
298.264	30.14
298.479	9.46
298.694	14.89
298.909	3.36
299.125	11.44
299.34	4.17
299.555	7.72
299.77	0.27
299.985	7.86
300.2	4.85
300.415	16.47
300.63	5.88
300.845	16.2
301.06	18.97
301.275	30.11
301.49	36.25
301.704	40.86
301.919	37.39
302.134	38.02
302.349	25.54
302.564	17.34
302.779	7.79
302.994	-4.36
303.209	-7.43
303.423	5.18
303.638	15.67
303.853	33.03
304.068	41.46
304.283	46.07
304.497	48.43
304.712	49.91
304.927	35.87
305.142	30.28
305.356	27.68
305.571	32.95
305.786	24.99
306	25.64
306.215	23.16
306.43	38.1
306.644	42.03
306.859	38.47
307.074	29.41
307.288	31.61
307.503	34.62
307.717	30.73
307.932	24.97
308.147	22.57
308.361	15.63
308.576	15.41
308.79	16.24
309.005	15.79
309.219	20.37
309.434	25.27
309.648	17.21
309.863	21.46
310.077	21.64
310.292	18.93
310.506	24.4
310.72	13.97
310.935	1.64
311.149	8.17
311.364	12.66
311.578	13.57
311.792	11.46
312.007	7.62
312.221	17.5
312.435	20.94
312.649	-5.05
312.864	-33.12
313.078	-13.27
313.292	0.43
313.507	6.25
313.721	-2.5
313.935	12.33
314.149	39.65
314.363	50.72
314.578	63.03
314.792	52.65
315.006	54.28
315.22	66.2
315.434	56.85
315.648	55.58
315.862	58.8
316.077	45.13
316.291	52.95
316.505	57.45
316.719	22.44
316.933	24.44
317.147	22.2
317.361	22.26
317.575	14.38
317.789	19.76
318.003	9.65
318.217	33.76
318.431	35.46
318.645	41.65
318.859	26.34
319.073	25.86
319.287	24
319.5	21.59
319.714	15.09
319.928	17.57
320.142	11.29
320.356	31.01
320.57	30.51
320.784	32.57
320.997	43.37
321.211	46.96
321.425	31.68
321.639	36.66
321.853	27.24
322.066	28.18
322.28	24.61
322.494	18.7
322.707	13.72
322.921	27.63
323.135	18.17
323.349	18.36
323.562	19.91
323.776	20.16
323.989	22.58
324.203	26.63
324.417	22.14
324.63	25.88
324.844	16.88
325.057	17.87
325.271	12.03
325.485	9.16
325.698	3.83
325.912	7.11
326.125	15.23
326.339	29.81
326.552	32.11
326.766	44.9
326.979	49.66
327.193	51.4
327.406	54.07
327.619	43.65
327.833	41.14
328.046	33.68
328.26	21.48
328.473	17.06
328.686	24.78
328.9	8.26
329.113	18.86
329.326	29.79
329.54	30.52
329.753	36.28
329.966	30.25
330.179	33.56
330.393	48.81
330.606	51.78
330.819	49.32
331.032	53.63
331.246	54.41
331.459	61.76
331.672	51.22
331.885	44.2
332.098	46.6
332.311	27.86
332.525	24.58
332.738	23.32
332.951	24.25
333.164	25.32
333.377	16.66
333.59	13.06
333.803	17.93
334.016	16.34
334.229	13.31
334.442	18.97
334.655	24.87
334.868	40.73
335.081	43.82
335.294	48.35
335.507	54.34
335.72	35.23
335.933	26.64
336.146	28.76
336.359	25.11
336.572	17.69
336.785	23.64
336.997	8.77
337.21	30.62
337.423	33.59
337.636	29.68
337.849	24.73
338.062	28.07
338.274	24.16
338.487	27.2
338.7	23.38
338.913	22.61
339.125	20.22
339.338	25.24
339.551	29.38
339.763	26.98
339.976	17.94
340.189	21.33
340.402	22.28
340.614	20.84
340.827	12.4
341.039	10.42
341.252	10.74
341.465	17.65
341.677	7.26
341.89	3.16
342.102	15.58
342.315	30.32
342.527	27.9
342.74	26.2
342.952	23.37
343.165	31.47
343.377	43.23
343.59	38.01
343.802	35.07
344.015	39.46
344.227	39.84
344.44	42.89
344.652	49.4
344.864	49.01
345.077	51.52
345.289	51.8
345.502	44.38
345.714	38.91
345.926	42.55
346.139	34.86
346.351	17.02
346.563	16.25
346.775	9.1
346.988	12.45
347.2	22.4
347.412	18.9
347.624	14.18
347.837	18.76
348.049	20.9
348.261	21.5
348.473	17.94
348.685	19.7
348.897	20.29
349.11	29.41
349.322	30.35
349.534	18.32
349.746	21.52
349.958	25.22
350.17	24.7
350.382	23.4
350.594	21.82
350.806	32.11
351.018	37.02
351.23	38.21
351.442	31.66
351.654	35.87
351.866	42.12
352.078	38.15
352.29	38.86
352.502	44.93
352.714	43.78
352.926	42.66
353.138	30.78
353.35	23.06
353.561	20.15
353.773	20.35
353.985	19.12
354.197	15.69
354.409	29.04
354.621	35.35
354.832	31.37
355.044	48.14
355.256	40.54
355.468	38.53
355.679	41.72
355.891	33.88
356.103	33.41
356.314	37.89
356.526	24.24
356.738	21.29
356.949	20.51
357.161	19.54
357.373	19.2
357.584	24.86
357.796	26.65
358.008	32.25
358.219	41.88
358.431	44.6
358.642	39.79
358.854	35.39
359.065	23.85
359.277	15.96
359.488	12.28
359.7	9.78
359.911	11.51
360.123	16.45
360.334	17.67
360.546	14.76
360.757	19.71
360.969	23.99
361.18	16.82
361.391	14.57
361.603	16.03
361.814	24.68
362.025	28.4
362.237	31
362.448	27.73
362.659	31.49
362.871	35.74
363.082	36.96
363.293	28.51
363.504	33.15
363.716	34.86
363.927	34.54
364.138	37.46
364.349	37.64
364.56	33.96
364.772	33.01
364.983	24.93
365.194	22.31
365.405	19.63
365.616	12.9
365.827	6.16
366.038	11.68
366.25	13.41
366.461	24.95
366.672	22.65
366.883	32.74
367.094	26.97
367.305	32.64
367.516	28.51
367.727	26.11
367.938	17.75
368.149	19.16
368.36	14.19
368.571	20.31
368.781	17.23
368.992	16.97
369.203	18.44
369.414	23.83
369.625	25.17
369.836	21.86
370.047	16.89
370.258	9.36
370.468	10.66
370.679	13.22
370.89	14.94
371.101	10.63
371.312	10.53
371.522	14.11
371.733	17.37
371.944	20.19
372.155	8.81
372.365	7.77
372.576	12.36
372.787	6.85
372.997	6.13
373.208	11.91
373.419	4.32
373.629	13.42
373.84	5.45
374.05	4.87
374.261	11.72
374.472	10.3
374.682	4.31
374.893	1.08
375.103	-0.06
375.314	2.91
375.524	-2.21
375.735	-0.28
375.945	-1.85
376.156	1.85
376.366	9.19
376.577	11.93
376.787	17.88
376.997	22.8
377.208	21.86
377.418	24.69
377.629	24.79
377.839	27.29
378.049	35.38
378.26	34.15
378.47	33.22
378.68	31.57
378.89	26.21
379.101	17.76
379.311	12.04
379.521	8.66
379.732	0.73
379.942	1.45
380.152	5.91
380.362	12.18
380.572	21.01
380.783	20.82
380.993	21.52
381.203	21.68
381.413	22.71
381.623	19.55
381.833	15.68
382.043	10.58
382.253	12.1
382.463	13.04
382.674	18.62
382.884	12.1
383.094	13.21
383.304	15.66
383.514	20.85
383.724	19.24
383.934	16.75
384.144	16.77
384.353	20.15
384.563	16.62
384.773	19.21
384.983	16.69
385.193	21.25
385.403	24.32
385.613	22.13
385.823	21.56
386.033	24.46
386.242	21.8
386.452	22.36
386.662	19.96
386.872	12.55
387.082	10.09
387.291	7.92
387.501	8.07
387.711	8.23
387.921	7.46
388.13	5.18
388.34	7.82
388.55	12.28
388.759	13.47
388.969	10.52
389.179	12.85
389.388	11.15
389.598	10.04
389.807	8.57
390.017	6.92
390.227	5.5
390.436	6.99
390.646	6.43
390.855	7.82
391.065	8.31
391.274	6.79
391.484	5.96
391.693	6.91
391.903	6.01
392.112	4.74
392.322	5.54
392.531	6
392.74	5.74
392.95	6.48
393.159	6.99
393.369	8.07
393.578	8.17
393.787	8.14
393.997	8.46
394.206	9.82
394.415	8.82
394.625	7.46
394.834	6.16
395.043	6.24
395.252	5.99
395.462	5.87
395.671	5.76
395.88	6.35
396.089	6.67
396.298	6.77
396.508	6.41
396.717	5.55
396.926	5.09
397.135	4.79
397.344	4.5
397.553	4.64
397.762	4.82
397.971	4.76
398.181	4.64
398.39	4.62
398.599	4.93
398.808	5.15
399.017	5.16
399.226	5.44
399.435	5.6
399.644	5.67
399.853	5.86
400.062	5.55
400.27	5.5
400.479	5.31
400.688	5.18
400.897	5.23
401.106	5.26
401.315	5.16
401.524	5.27
401.733	5.32
401.941	5.21
402.15	4.97
402.359	4.9
402.568	4.93
402.777	4.85
402.985	4.78
403.194	4.68
403.403	4.63
403.612	4.67
403.82	4.66
404.029	4.67
404.238	4.7
404.446	4.54
404.655	4.35
404.864	4.32
405.072	4.29
405.281	4.08
405.489	4.06
405.698	3.9
405.906	3.96
406.115	3.98
406.324	4.01
406.532	4.08
406.741	4.14
406.949	4.1
407.158	4.27
407.366	4.33
407.574	4.32
407.783	4.24
407.991	4.1
408.2	4.09
408.408	4.07
408.617	3.9
408.825	3.87
409.033	3.83
409.242	3.82
409.45	3.81
409.658	3.83
409.867	3.81
410.075	3.81
410.283	3.68
410.491	3.69
410.7	3.73
410.908	3.79
411.116	3.68
411.324	3.73
411.533	3.65
411.741	3.71
411.949	3.72
412.157	3.76
412.365	3.67
412.573	3.71
412.781	3.71
412.99	3.78
413.198	3.79
413.406	3.74
413.614	3.77
413.822	3.8
414.03	3.75
414.238	3.75
414.446	3.7
414.654	3.74
414.862	3.73
415.07	3.69
415.278	3.66
415.486	3.78
415.694	3.64
415.902	3.61
416.109	3.62
416.317	3.59
416.525	3.65
416.733	3.72
416.941	3.6
417.149	3.78
417.357	3.78
417.564	3.65
417.772	3.69
417.98	3.56
418.188	3.41
418.395	3.4
418.603	3.19
418.811	3.17
419.019	3.21
419.226	3.24
419.434	3.17
419.642	3.19
419.849	3.21
420.057	3.36
420.265	3.33
420.472	3.29
420.68	3.18
420.887	3.27
421.095	3.28
421.302	3.38
421.51	3.4
421.717	3.45
421.925	3.42
422.132	3.47
422.34	3.38
422.547	3.39
422.755	3.29
422.962	3.13
423.17	3.1
423.377	3.21
423.585	3.23
423.792	3.31
423.999	3.26
424.207	3.19
424.414	3.26
424.621	3.29
424.829	3.22
425.036	3.14
425.243	3.14
425.451	3.16
425.658	3.18
425.865	3.04
426.072	3.1
426.28	3.12
426.487	3.16
426.694	3.02
426.901	2.95
427.108	3.02
427.315	3.08
427.523	3.02
427.73	3.01
427.937	3.06
428.144	3.14
428.351	3.28
428.558	3.24
428.765	3.22
428.972	3.18
429.179	3.09
429.386	3.11
429.593	3.09
429.8	3.1
430.007	3.13
430.214	3.22
430.421	3.23
430.628	3.15
430.835	3.15
431.042	3.26
431.249	3.21
431.456	3.21
431.662	3.24
431.869	3.33
432.076	3.43
432.283	3.35
432.49	3.31
432.697	3.31
432.903	3.33
433.11	3.34
433.317	3.31
433.524	3.28
433.73	3.48
433.937	3.43
434.144	3.52
434.35	3.49
434.557	3.44
434.764	3.42
434.97	3.5
435.177	3.37
435.384	3.43
435.59	3.35
435.797	3.45
436.003	3.43
436.21	3.43
436.416	3.38
436.623	3.43
436.829	3.42
437.036	3.43
437.242	3.42
437.449	3.48
437.655	3.53
437.862	3.6
438.068	3.59
438.275	3.59
438.481	3.63
438.687	3.65
438.894	3.6
439.1	3.6
439.307	3.58
439.513	3.54
439.719	3.59
439.926	3.59
440.132	3.54
440.338	3.55
440.544	3.6
440.751	3.58
440.957	3.55
441.163	3.5
441.369	3.49
441.575	3.48
441.782	3.48
441.988	3.42
442.194	3.48
442.4	3.57
442.606	3.66
442.812	3.69
443.018	3.66
443.224	3.68
443.431	3.69
443.637	3.64
443.843	3.65
444.049	3.6
444.255	3.6
444.461	3.66
444.667	3.69
444.873	3.72
445.079	3.81
445.284	3.79
445.49	3.73
445.696	3.72
445.902	3.76
446.108	3.73
446.314	3.77
446.52	3.72
446.726	3.77
446.931	3.83
447.137	3.82
447.343	3.78
447.549	3.78
447.755	3.73
447.96	3.72
448.166	3.74
448.372	3.71
448.578	3.72
448.783	3.75
448.989	3.81
449.195	3.85
449.4	3.87
449.606	3.8
449.812	3.84
450.017	3.84
450.223	3.82
450.428	3.79
450.634	3.82
450.84	3.85
451.045	3.85
451.251	3.9
451.456	3.92
451.662	3.9
451.867	3.9
452.073	3.87
452.278	3.88
452.483	3.92
452.689	3.9
452.894	3.94
453.1	3.92
453.305	3.93
453.51	3.91
453.716	3.87
453.921	3.89
454.127	3.87
454.332	3.84
454.537	3.92
454.742	3.95
454.948	3.98
455.153	3.97
455.358	4
455.563	3.99
455.769	3.99
455.974	3.94
456.179	3.89
456.384	3.91
456.589	3.97
456.795	3.85
457	3.84
457.205	3.83
457.41	3.88
457.615	3.98
457.82	4.02
458.025	3.96
458.23	4.03
458.435	4.03
458.64	4.13
458.845	4.13
459.05	4.15
459.255	4.06
459.46	4.11
459.665	4.2
459.87	4.24
460.075	4.15
460.28	4.15
460.485	4.14
460.69	4.16
460.895	4.17
461.099	4.11
461.304	4.09
461.509	4.05
461.714	4.05
461.919	4.01
462.123	4.06
462.328	4.08
462.533	4.11
462.738	4.11
462.942	4.23
463.147	4.28
463.352	4.27
463.556	4.28
463.761	4.31
463.966	4.36
464.17	4.41
464.375	4.36
464.58	4.32
464.784	4.38
464.989	4.36
465.193	4.37
465.398	4.37
465.602	4.33
465.807	4.39
466.011	4.44
466.216	4.42
466.42	4.47
466.625	4.46
466.829	4.46
467.034	4.52
467.238	4.5
467.443	4.51
467.647	4.56
467.851	4.58
468.056	4.59
468.26	4.51
468.464	4.46
468.669	4.49
468.873	4.46
469.077	4.42
469.282	4.43
469.486	4.46
469.69	4.54
469.894	4.62
470.099	4.61
470.303	4.63
470.507	4.65
470.711	4.61
470.915	4.61
471.119	4.61
471.324	4.57
471.528	4.58
471.732	4.61
471.936	4.68
472.14	4.7
472.344	4.74
472.548	4.75
472.752	4.82
472.956	4.84
473.16	4.86
473.364	4.81
473.568	4.85
473.772	4.83
473.976	4.78
474.18	4.76
474.384	4.72
474.588	4.68
474.792	4.68
474.995	4.62
475.199	4.64
475.403	4.73
475.607	4.73
475.811	4.77
476.015	4.85
476.218	4.89
476.422	4.96
476.626	4.95
476.83	4.94
477.033	4.99
477.237	4.97
477.441	4.91
477.644	4.89
477.848	4.83
478.052	4.83
478.255	4.8
478.459	4.83
478.663	4.85
478.866	4.88
479.07	4.9
479.273	4.94
479.477	5
479.681	4.99
479.884	4.94
480.088	4.97
480.291	4.98
480.495	4.99
480.698	4.96
480.901	4.95
481.105	5.02
481.308	5.02
481.512	5.02
481.715	5.02
481.919	5.01
482.122	5.06
482.325	5.06
482.529	5.08
482.732	5.12
482.935	5.11
483.138	5.13
483.342	5.18
483.545	5.16
483.748	5.19
483.952	5.15
484.155	5.19
484.358	5.17
484.561	5.19
484.764	5.21
484.967	5.27
485.171	5.23
485.374	5.29
485.577	5.27
485.78	5.3
485.983	5.29
486.186	5.24
486.389	5.2
486.592	5.19
486.795	5.16
486.998	5.14
487.201	5.15
487.404	5.21
487.607	5.21
487.81	5.26
488.013	5.28
488.216	5.29
488.419	5.27
488.622	5.23
488.825	5.19
489.028	5.2
489.231	5.17
489.433	5.14
489.636	5.11
489.839	5.17
490.042	5.15
490.245	5.14
490.447	5.11
490.65	5.13
490.853	5.13
491.056	5.11
491.258	5.09
491.461	5.11
491.664	5.07
491.866	5.12
492.069	5.13
492.272	5.13
492.474	5.15
492.677	5.13
492.879	5.16
493.082	5.2
493.285	5.2
493.487	5.18
493.69	5.19
493.892	5.23
494.095	5.21
494.297	5.22
494.5	5.22
494.702	5.2
494.905	5.21
495.107	5.21
495.309	5.16
495.512	5.21
495.714	5.2
495.917	5.21
496.119	5.24
496.321	5.23
496.524	5.23
496.726	5.24
496.928	5.27
497.13	5.26
497.333	5.29
497.535	5.27
497.737	5.27
497.939	5.27
498.142	5.29
498.344	5.28
498.546	5.31
498.748	5.29
498.95	5.3
499.152	5.3
499.355	5.31
499.557	5.35
499.759	5.39
499.961	5.39
500.163	5.45
500.365	5.43
500.567	5.44
500.769	5.49
500.971	5.44
501.173	5.39
501.375	5.39
501.577	5.37
501.779	5.39
501.981	5.4
502.183	5.35
502.385	5.36
502.587	5.37
502.788	5.37
502.99	5.34
503.192	5.36
503.394	5.38
503.596	5.43
503.798	5.49
503.999	5.52
504.201	5.55
504.403	5.59
504.605	5.63
504.806	5.64
505.008	5.62
505.21	5.64
505.411	5.68
505.613	5.69
505.815	5.71
506.016	5.7
506.218	5.65
506.42	5.68
506.621	5.67
506.823	5.66
507.024	5.67
507.226	5.67
507.427	5.65
507.629	5.74
507.83	5.7
508.032	5.72
508.233	5.71
508.435	5.68
508.636	5.65
508.838	5.67
509.039	5.66
509.24	5.72
509.442	5.68
509.643	5.7
509.845	5.75
510.046	5.79
510.247	5.85
510.448	5.85
510.65	5.85
510.851	5.9
511.052	5.93
511.254	5.91
511.455	5.92
511.656	5.9
511.857	5.9
512.058	5.95
512.26	5.95
512.461	5.95
512.662	5.96
512.863	5.96
513.064	5.95
513.265	5.99
513.466	6
513.667	6.01
513.868	6.02
514.069	6.03
514.27	6.06
514.471	6.08
514.672	6.07
514.873	6.08
515.074	6.14
515.275	6.12
515.476	6.16
515.677	6.15
515.878	6.19
516.079	6.21
516.28	6.17
516.481	6.11
516.682	6.15
516.882	6.1
517.083	6.14
517.284	6.11
517.485	6.1
517.686	6.11
517.886	6.15
518.087	6.14
518.288	6.17
518.488	6.18
518.689	6.2
518.89	6.26
519.091	6.29
519.291	6.29
519.492	6.32
519.692	6.38
519.893	6.38
520.094	6.38
520.294	6.35
520.495	6.38
520.695	6.42
520.896	6.42
521.096	6.41
521.297	6.42
521.497	6.42
521.698	6.46
521.898	6.46
522.099	6.46
522.299	6.48
522.499	6.53
522.7	6.55
522.9	6.59
523.101	6.58
523.301	6.59
523.501	6.61
523.702	6.59
523.902	6.57
524.102	6.59
524.302	6.61
524.503	6.63
524.703	6.63
524.903	6.65
525.103	6.7
525.304	6.68
525.504	6.68
525.704	6.66
525.904	6.68
526.104	6.69
526.304	6.69
526.504	6.67
526.705	6.74
526.905	6.74
527.105	6.79
527.305	6.76
527.505	6.78
527.705	6.77
527.905	6.8
528.105	6.77
528.305	6.78
528.505	6.78
528.705	6.81
528.905	6.81
529.105	6.85
529.304	6.88
529.504	6.91
529.704	6.92
529.904	6.93
530.104	6.95
530.304	6.98
530.503	6.98
530.703	6.99
530.903	7.02
531.103	6.99
531.303	7.02
531.502	7
531.702	6.99
531.902	6.98
532.101	6.96
532.301	6.93
532.501	7.01
532.7	6.99
532.9	7.04
533.1	7.07
533.299	7.12
533.499	7.16
533.698	7.21
533.898	7.2
534.097	7.23
534.297	7.23
534.496	7.24
534.696	7.26
534.895	7.29
535.095	7.28
535.294	7.28
535.494	7.31
535.693	7.3
535.892	7.32
536.092	7.32
536.291	7.35
536.491	7.38
536.69	7.43
536.889	7.42
537.088	7.45
537.288	7.52
537.487	7.55
537.686	7.57
537.886	7.59
538.085	7.61
538.284	7.67
538.483	7.75
538.682	7.73
538.882	7.75
539.081	7.79
539.28	7.83
539.479	7.84
539.678	7.89
539.877	7.88
540.076	7.93
540.275	7.94
540.474	7.91
540.673	7.94
540.872	8.01
541.071	8.02
541.27	8.03
541.469	8.02
541.668	8.1
541.867	8.14
542.066	8.2
542.265	8.22
542.464	8.26
542.663	8.34
542.862	8.4
543.06	8.41
543.259	8.46
543.458	8.46
543.657	8.47
543.856	8.47
544.054	8.52
544.253	8.54
544.452	8.55
544.651	8.59
544.849	8.63
545.048	8.67
545.247	8.73
545.445	8.7
545.644	8.75
545.843	8.84
546.041	8.88
546.24	8.94
546.438	9.04
546.637	9.1
546.836	9.19
547.034	9.24
547.233	9.25
547.431	9.28
547.63	9.35
547.828	9.36
548.027	9.38
548.225	9.45
548.423	9.49
548.622	9.58
548.82	9.65
549.019	9.65
549.217	9.72
549.415	9.76
549.614	9.76
549.812	9.85
550.01	9.9
550.209	9.98
550.407	10.06
550.605	10.11
550.803	10.2
551.002	10.23
551.2	10.31
551.398	10.33
551.596	10.38
551.794	10.46
551.993	10.51
552.191	10.61
552.389	10.71
552.587	10.72
552.785	10.85
552.983	10.91
553.181	10.96
553.379	11.06
553.577	11.15
553.775	11.24
553.973	11.35
554.171	11.38
554.369	11.46
554.567	11.53
554.765	11.57
554.963	11.58
555.161	11.69
555.359	11.77
555.557	11.87
555.755	11.95
555.952	12.03
556.15	12.17
556.348	12.29
556.546	12.32
556.744	12.42
556.941	12.52
557.139	12.63
557.337	12.7
557.535	12.76
557.732	12.84
557.93	12.97
558.128	13.02
558.325	13.14
558.523	13.24
558.721	13.37
558.918	13.46
559.116	13.55
559.313	13.61
559.511	13.73
559.708	13.73
559.906	13.78
560.104	13.86
560.301	13.96
560.498	14.02
560.696	14.09
560.893	14.19
561.091	14.35
561.288	14.46
561.486	14.53
561.683	14.62
561.88	14.72
562.078	14.84
562.275	14.89
562.473	14.95
562.67	15.02
562.867	15.15
563.064	15.28
563.262	15.44
563.459	15.54
563.656	15.68
563.853	15.77
564.051	15.88
564.248	15.96
564.445	16.01
564.642	16.06
564.839	16.19
565.036	16.28
565.234	16.43
565.431	16.51
565.628	16.6
565.825	16.69
566.022	16.76
566.219	16.76
566.416	16.83
566.613	16.9
566.81	16.97
567.007	17.02
567.204	17.1
567.401	17.21
567.598	17.31
567.795	17.33
567.991	17.38
568.188	17.43
568.385	17.5
568.582	17.53
568.779	17.57
568.976	17.66
569.172	17.79
569.369	17.84
569.566	17.88
569.763	17.94
569.96	18
570.156	18.03
570.353	18.06
570.55	18.12
570.746	18.11
570.943	18.25
571.14	18.26
571.336	18.32
571.533	18.39
571.729	18.43
571.926	18.49
572.123	18.56
572.319	18.55
572.516	18.61
572.712	18.68
572.909	18.7
573.105	18.72
573.302	18.71
573.498	18.75
573.695	18.76
573.891	18.79
574.087	18.75
574.284	18.73
574.48	18.7
574.677	18.7
574.873	18.76
575.069	18.8
575.266	18.79
575.462	18.85
575.658	18.91
575.854	18.98
576.051	18.99
576.247	18.94
576.443	18.94
576.639	18.96
576.835	18.94
577.032	18.93
577.228	18.94
577.424	18.98
577.62	18.98
577.816	18.96
578.012	18.96
578.208	19
578.404	19.02
578.6	19
578.796	18.99
578.993	18.98
579.189	19.01
579.384	18.99
579.58	18.96
579.776	18.89
579.972	18.89
580.168	18.85
580.364	18.85
580.56	18.82
580.756	18.84
580.952	18.79
581.148	18.77
581.343	18.77
581.539	18.75
581.735	18.76
581.931	18.74
582.127	18.66
582.322	18.69
582.518	18.69
582.714	18.64
582.909	18.62
583.105	18.55
583.301	18.52
583.496	18.5
583.692	18.4
583.888	18.38
584.083	18.42
584.279	18.45
584.474	18.43
584.67	18.44
584.866	18.49
585.061	18.49
585.257	18.44
585.452	18.37
585.648	18.32
585.843	18.36
586.039	18.35
586.234	18.33
586.429	18.34
586.625	18.38
586.82	18.35
587.015	18.32
587.211	18.33
587.406	18.36
587.601	18.35
587.797	18.34
587.992	18.29
588.187	18.37
588.383	18.4
588.578	18.32
588.773	18.29
588.968	18.32
589.163	18.35
589.359	18.36
589.554	18.35
589.749	18.38
589.944	18.46
590.139	18.47
590.334	18.46
590.529	18.49
590.724	18.55
590.919	18.59
591.114	18.61
591.309	18.59
591.504	18.6
591.699	18.65
591.894	18.69
592.089	18.74
592.284	18.71
592.479	18.71
592.674	18.77
592.869	18.81
593.064	18.89
593.259	18.91
593.454	18.97
593.648	19.03
593.843	19.08
594.038	19.11
594.233	19.15
594.428	19.18
594.622	19.2
594.817	19.23
595.012	19.31
595.206	19.4
595.401	19.48
595.596	19.59
595.79	19.63
595.985	19.72
596.18	19.83
596.374	19.9
596.569	19.93
596.763	20.02
596.958	20.03
597.153	20.08
597.347	20.15
597.542	20.18
597.736	20.24
597.931	20.32
598.125	20.35
598.319	20.45
598.514	20.48
598.708	20.47
598.903	20.53
599.097	20.6
599.291	20.68
599.486	20.73
599.68	20.73
599.874	20.81
600.069	20.9
600.263	20.91
600.457	20.93
600.651	20.92
600.846	20.94
601.04	20.94
601.234	20.99
601.428	21.06
601.622	21.09
601.817	21.16
602.011	21.24
602.205	21.31
602.399	21.4
602.593	21.42
602.787	21.42
602.981	21.5
603.175	21.48
603.369	21.48
603.563	21.49
603.757	21.43
603.951	21.4
604.145	21.39
604.339	21.35
604.533	21.34
604.727	21.3
604.921	21.28
605.115	21.3
605.309	21.33
605.502	21.34
605.696	21.29
605.89	21.28
606.084	21.23
606.278	21.2
606.471	21.15
606.665	21.06
606.859	21.01
607.053	20.97
607.246	20.9
607.44	20.84
607.634	20.75
607.827	20.64
608.021	20.58
608.214	20.52
608.408	20.46
608.602	20.35
608.795	20.32
608.989	20.27
609.182	20.3
609.376	20.22
609.569	20.12
609.763	20.1
609.956	20.06
610.15	20.02
610.343	19.94
610.537	19.84
610.73	19.84
610.923	19.84
611.117	19.69
611.31	19.66
611.504	19.58
611.697	19.52
611.89	19.47
612.083	19.39
612.277	19.23
612.47	19.19
612.663	19.11
612.856	18.99
613.05	18.92
613.243	18.83
613.436	18.71
613.629	18.69
613.822	18.63
614.015	18.55
614.209	18.56
614.402	18.47
614.595	18.41
614.788	18.37
614.981	18.25
615.174	18.15
615.367	18.08
615.56	17.96
615.753	17.92
615.946	17.91
616.139	17.83
616.332	17.78
616.525	17.76
616.718	17.73
616.911	17.71
617.103	17.67
617.296	17.57
617.489	17.63
617.682	17.62
617.875	17.56
618.067	17.48
618.26	17.39
618.453	17.34
618.646	17.31
618.838	17.22
619.031	17.21
619.224	17.16
619.417	17.14
619.609	17.16
619.802	17.09
619.994	17.03
620.187	16.99
620.38	16.91
620.572	16.88
620.765	16.8
620.957	16.72
621.15	16.66
621.342	16.64
621.535	16.57
621.727	16.51
621.92	16.52
622.112	16.52
622.305	16.46
622.497	16.44
622.69	16.37
622.882	16.37
623.074	16.38
623.267	16.34
623.459	16.31
623.651	16.34
623.844	16.35
624.036	16.4
624.228	16.38
624.42	16.37
624.613	16.34
624.805	16.35
624.997	16.34
625.189	16.31
625.381	16.26
625.574	16.18
625.766	16.13
625.958	16.08
626.15	16.09
626.342	16.05
626.534	16
626.726	15.99
626.918	16
627.11	16.01
627.302	15.99
627.494	15.92
627.686	15.85
627.878	15.85
628.07	15.78
628.262	15.75
628.454	15.74
628.646	15.69
628.838	15.62
629.029	15.59
629.221	15.55
629.413	15.52
629.605	15.5
629.797	15.42
629.989	15.41
630.18	15.39
630.372	15.38
630.564	15.4
630.755	15.38
630.947	15.3
631.139	15.2
631.33	15.16
631.522	15.09
631.714	15.07
631.905	14.99
632.097	14.96
632.289	14.96
632.48	14.99
632.672	14.94
632.863	14.94
633.055	14.91
633.246	14.89
633.438	14.88
633.629	14.87
633.821	14.9
634.012	14.89
634.203	14.95
634.395	14.94
634.586	14.91
634.777	14.87
634.969	14.83
635.16	14.77
635.351	14.76
635.543	14.69
635.734	14.64
635.925	14.68
636.117	14.7
636.308	14.62
636.499	14.6
636.69	14.64
636.881	14.64
637.073	14.65
637.264	14.63
637.455	14.6
637.646	14.64
637.837	14.63
638.028	14.61
638.219	14.56
638.41	14.49
638.601	14.45
638.792	14.41
638.983	14.34
639.174	14.35
639.365	14.27
639.556	14.25
639.747	14.28
639.938	14.28
640.129	14.28
640.32	14.3
640.511	14.3
640.701	14.32
640.892	14.31
641.083	14.3
641.274	14.25
641.465	14.18
641.655	14.13
641.846	14.04
642.037	13.98
642.228	13.92
642.418	13.87
642.609	13.8
642.8	13.8
642.99	13.79
643.181	13.78
643.372	13.77
643.562	13.75
643.753	13.68
643.943	13.66
644.134	13.67
644.324	13.65
644.515	13.63
644.705	13.57
644.896	13.52
645.086	13.55
645.277	13.57
645.467	13.53
645.658	13.49
645.848	13.47
646.038	13.48
646.229	13.46
646.419	13.44
646.61	13.38
646.8	13.37
646.99	13.33
647.18	13.31
647.371	13.29
647.561	13.29
647.751	13.25
647.941	13.18
648.132	13.16
648.322	13.17
648.512	13.16
648.702	13.11
648.892	13.13
649.082	13.1
649.272	13.09
649.462	13.11
649.653	13.12
649.843	13.06
650.033	13.08
650.223	13.05
650.413	13.06
650.603	13.06
650.793	12.95
650.983	12.88
651.172	12.91
651.362	12.85
651.552	12.74
651.742	12.7
651.932	12.67
652.122	12.66
652.312	12.56
652.502	12.5
652.691	12.55
652.881	12.56
653.071	12.51
653.261	12.41
653.45	12.33
653.64	12.39
653.83	12.26
654.019	12.05
654.209	11.97
654.399	11.86
654.588	11.82
654.778	11.78
654.968	11.59
655.157	11.53
655.347	11.47
655.536	11.31
655.726	11.23
655.915	11.09
656.105	10.96
656.294	10.86
656.484	10.78
656.673	10.69
656.863	10.59
657.052	10.43
657.241	10.34
657.431	10.19
657.62	10.07
657.809	9.93
657.999	9.81
658.188	9.72
658.377	9.7
658.567	9.55
658.756	9.45
658.945	9.36
659.134	9.22
659.324	9.07
659.513	8.91
659.702	8.69
659.891	8.57
660.08	8.48
660.269	8.36
660.458	8.25
660.648	8.16
660.837	8.1
661.026	8.05
661.215	7.98
661.404	7.89
661.593	7.76
661.782	7.66
661.971	7.58
662.16	7.43
662.349	7.29
662.538	7.2
662.726	7.05
662.915	6.95
663.104	6.81
663.293	6.68
663.482	6.63
663.671	6.58
663.86	6.48
664.048	6.45
664.237	6.37
664.426	6.41
664.615	6.38
664.803	6.31
664.992	6.29
665.181	6.28
665.369	6.23
665.558	6.23
665.747	6.19
665.935	6.22
666.124	6.24
666.312	6.17
666.501	6.12
666.69	6.05
666.878	6.03
667.067	6.01
667.255	5.97
667.444	5.93
667.632	5.94
667.82	5.9
668.009	5.98
668.197	6
668.386	5.98
668.574	5.94
668.762	5.91
668.951	5.87
669.139	5.93
669.327	5.89
669.516	5.87
669.704	5.88
669.892	5.93
670.08	5.93
670.269	5.96
670.457	5.96
670.645	6.04
670.833	6.04
671.021	6.02
671.21	6.03
671.398	6.03
671.586	6.1
671.774	6.11
671.962	6.06
672.15	6.07
672.338	6.16
672.526	6.23
672.714	6.32
672.902	6.38
673.09	6.45
673.278	6.52
673.466	6.7
673.654	6.71
673.842	6.71
674.03	6.79
674.218	6.8
674.405	6.9
674.593	6.95
674.781	6.88
674.969	6.89
675.157	6.98
675.344	7.03
675.532	7.09
675.72	7.06
675.908	7.1
676.095	7.22
676.283	7.3
676.471	7.34
676.658	7.39
676.846	7.45
677.033	7.58
677.221	7.7
677.409	7.73
677.596	7.86
677.784	7.92
677.971	8.02
678.159	8.13
678.346	8.19
678.534	8.24
678.721	8.32
678.909	8.38
679.096	8.45
679.283	8.49
679.471	8.57
679.658	8.67
679.846	8.76
680.033	8.88
680.22	8.93
680.408	9.03
680.595	9.13
680.782	9.24
680.969	9.24
681.157	9.28
681.344	9.4
681.531	9.5
681.718	9.56
681.905	9.66
682.093	9.71
682.28	9.94
682.467	10.08
682.654	10.16
682.841	10.31
683.028	10.52
683.215	10.58
683.402	10.75
683.589	10.81
683.776	10.99
683.963	11.14
684.15	11.25
684.337	11.37
684.524	11.61
684.711	11.78
684.898	11.98
685.085	12.17
685.271	12.33
685.458	12.6
685.645	12.78
685.832	13.05
686.019	13.22
686.205	13.48
686.392	13.69
686.579	14.01
686.766	14.28
686.952	14.6
687.139	14.78
687.326	15.13
687.512	15.49
687.699	15.77
687.886	16.14
688.072	16.51
688.259	16.92
688.445	17.38
688.632	17.81
688.818	18.17
689.005	18.67
689.191	19.03
689.378	19.43
689.564	19.82
689.751	20.27
689.937	20.7
690.124	21.15
690.31	21.62
690.496	22.14
690.683	22.72
690.869	23.19
691.055	23.84
691.242	24.34
691.428	24.91
691.614	25.54
691.8	26.13
691.987	26.76
692.173	27.52
692.359	28.1
692.545	28.74
692.731	29.48
692.918	30.04
693.104	30.65
693.29	31.34
693.476	31.91
693.662	32.45
693.848	33.15
694.034	33.6
694.22	34.53
694.406	35.25
694.592	35.94
694.778	36.61
694.964	37.34
695.15	38.15
695.336	39.15
695.522	39.68
695.708	40.39
695.894	41.04
696.08	41.73
696.265	42.37
696.451	43.01
696.637	43.6
696.823	44.25
697.009	44.93
697.194	45.72
697.38	46.38
697.566	47.1
697.751	47.78
697.937	48.36
698.123	49.04
698.308	49.67
698.494	50.16
698.68	50.94
698.865	51.55
699.051	52.16
699.236	52.81
699.422	53.59
699.607	54.1
699.793	54.65
699.978	55.17
700.164	55.77
700.349	56.23
700.535	56.8
700.72	57.17
700.906	57.7
701.091	58.27
701.276	58.74
701.462	59.27
701.647	59.84
701.832	60.41
702.018	61.04
702.203	61.6
702.388	62.07
702.573	62.59
702.759	63.04
702.944	63.41
703.129	63.76
703.314	64
703.499	64.56
703.684	65.09
703.87	65.57
704.055	66.09
704.24	66.74
704.425	67.45
704.61	67.86
704.795	68.15
704.98	68.58
705.165	68.99
705.35	69.31
705.535	69.83
705.72	69.97
705.905	70.35
706.09	70.81
706.275	71.02
706.459	71.51
706.644	71.85
706.829	72.08
707.014	72.4
707.199	72.94
707.384	73.35
707.568	73.85
707.753	74.11
707.938	74.54
708.123	74.55
708.307	75.14
708.492	75.37
708.677	75.63
708.861	75.97
709.046	76.11
709.231	76.46
709.415	77.04
709.6	76.83
709.784	77.06
709.969	77.36
710.153	77.61
710.338	77.92
710.522	78.13
710.707	78.02
710.891	78.68
711.076	78.97
711.26	79.13
711.445	79.24
711.629	79.54
711.813	79.59
711.998	79.88
712.182	80.04
712.366	80.42
712.551	80.65
712.735	80.91
712.919	81.24
713.103	81.56
713.288	82.03
713.472	82.03
713.656	81.98
713.84	82.38
714.024	82.59
714.208	82.6
714.393	82.69
714.577	82.75
714.761	83.14
714.945	83.35
715.129	83.22
715.313	83.33
715.497	83.69
715.681	84.14
715.865	84.21
716.049	84.28
716.233	84.61
716.417	85.03
716.601	85.3
716.785	85.37
716.968	85.27
717.152	85.46
717.336	85.45
717.52	85.36
717.704	85.55
717.888	85.58
718.071	85.61
718.255	85.77
718.439	85.9
718.622	86.31
718.806	86.13
718.99	86.19
719.174	86.24
719.357	86.47
719.541	86.83
719.724	87.08
719.908	87
720.092	87.54
720.275	87.66
720.459	87.91
720.642	88.03
720.826	88.19
721.009	88.3
721.193	88.63
721.376	88.69
721.559	88.45
721.743	88.43
721.926	88.22
722.11	87.98
722.293	87.69
722.476	87.65
722.66	87.74
722.843	88.34
723.026	88.45
723.21	88.75
723.393	89.01
723.576	88.99
723.759	89.29
723.942	89.29
724.126	89.04
724.309	89.01
724.492	89.39
724.675	89.37
724.858	90.08
725.041	90
725.224	90.31
725.407	90.32
725.59	90.44
725.774	90.35
725.957	90.62
726.14	90.61
726.322	90.53
726.505	90.88
726.688	90.93
726.871	91.44
727.054	91.61
727.237	91.62
727.42	92.07
727.603	92.59
727.786	92.58
727.968	93.09
728.151	93.16
728.334	93.4
728.517	93.7
728.699	93.53
728.882	93.8
729.065	93.86
729.248	93.69
729.43	93.85
729.613	94.07
729.796	93.78
729.978	93.91
730.161	94.06
730.343	94.47
730.526	94.58
730.708	94.85
730.891	94.68
731.073	94.95
731.256	95.14
731.438	95.19
731.621	95.47
731.803	95.7
731.986	95.21
732.168	95.12
732.35	95.43
732.533	95.62
732.715	95.79
732.898	95.12
733.08	95.28
733.262	95.75
733.444	95.65
733.627	95.97
733.809	95.97
733.991	95.94
734.173	95.82
734.355	96.24
734.538	96.16
734.72	96.68
734.902	96.12
735.084	96.2
735.266	96.21
735.448	96.84
735.63	96.45
735.812	96.61
735.994	96.26
736.176	96.83
736.358	96.7
736.54	96.45
736.722	96.59
736.904	97.1
737.086	97.1
737.268	97.92
737.45	98.08
737.632	97.9
737.814	98.24
737.995	97.88
738.177	97.79
738.359	97.97
738.541	97.35
738.723	96.79
738.904	97.27
739.086	97.46
739.268	98.2
739.449	98.32
739.631	98.48
739.813	98.97
739.994	99.79
740.176	99.86
740.358	100.33
740.539	99.31
740.721	99.07
740.902	98.79
741.084	98.84
741.265	98.41
741.447	98.09
741.628	97.23
741.81	97.91
741.991	98.52
742.172	98.7
742.354	98.76
742.535	99.4
742.717	99.34
742.898	99.79
743.079	99.72
743.261	99.55
743.442	99.98
743.623	99.6
743.804	99.35
743.986	99.33
744.167	99.26
744.348	99.64
744.529	99
744.71	97.97
744.891	98.41
745.073	97.7
745.254	98.32
745.435	97.81
745.616	96.96
745.797	96.81
745.978	98.25
746.159	98.02
746.34	98.55
746.521	98.2
746.702	98.31
746.883	99.38
747.064	100.08
747.245	99.49
747.426	99.63
747.606	99.67
747.787	99.97
747.968	100.63
748.149	99.68
748.33	99.73
748.51	99.12
748.691	99.06
748.872	98.85
749.053	98.23
749.233	98.02
749.414	98.3
749.595	97.2
749.775	97.9
749.956	97.6
750.137	97.65
750.317	98.13
750.498	97.97
750.678	97.98
750.859	98.37
751.04	98.11
751.22	97.45
751.4	97.44
751.581	97.34
751.761	97.71
751.942	97.97
752.122	98.22
752.303	98.12
752.483	99.94
752.663	100.58
752.844	99.93
753.024	99.64
753.204	99.15
753.385	98.78
753.565	98.89
753.745	97.67
753.925	96.84
754.106	97.43
754.286	97.3
754.466	97.87
754.646	98.11
754.826	97.63
755.006	97.74
755.187	98.38
755.367	98.35
755.547	98.38
755.727	97.51
755.907	97.78
756.087	98.21
756.267	98
756.447	97.46
756.627	97.38
756.807	98.41
756.987	100.07
757.167	99.89
757.346	99.06
757.526	99.88
757.706	99.62
757.886	100.13
758.066	98.98
758.246	97.98
758.425	97.93
758.605	97.92
758.785	97.65
758.965	96.68
759.144	96.48
759.324	97.06
759.504	96.74
759.683	96.86
759.863	97.33
760.043	96.88
760.222	97.68
760.402	98
760.581	96.83
760.761	95.69
760.94	94.93
761.12	95.08
761.299	94.17
761.479	94.97
761.658	93.8
761.838	94.91
762.017	96.49
762.197	96.84
762.376	96.6
762.555	97.78
762.735	96.42
762.914	97.43
763.093	96.22
763.273	96.12
763.452	96.73
763.631	95.57
763.81	95.51
763.99	96.42
764.169	95.78
764.348	97.21
764.527	96.13
764.706	95.68
764.885	97.05
765.064	97.23
765.243	97.02
765.423	97.84
765.602	96.45
765.781	97.51
765.96	97.52
766.139	97.32
766.318	96.66
766.497	96.57
766.676	96.01
766.854	95.66
767.033	94.22
767.212	93.82
767.391	93.78
767.57	94.28
767.749	94.18
767.928	93.1
768.106	93.66
768.285	94.79
768.464	95.71
768.643	96.37
768.821	95.67
769	96.61
769.179	95.66
769.357	95.82
769.536	95.42
769.715	94.04
769.893	93.75
770.072	94.14
770.25	93.46
770.429	94.8
770.607	95.06
770.786	95.15
770.964	95.91
771.143	95.58
771.321	94.74
771.5	93.44
771.678	94.05
771.857	93.04
772.035	92.68
772.213	92.24
772.392	92.01
772.57	92.57
772.748	92.59
772.927	91.64
773.105	93.01
773.283	92.86
773.461	92.75
773.64	91.92
773.818	89.91
773.996	89.97
774.174	90.9
774.352	90.77
774.531	90.36
774.709	90.14
774.887	90.69
775.065	91.98
775.243	92.38
775.421	92.34
775.599	90.59
775.777	90.77
775.955	89.87
776.133	88.99
776.311	89
776.489	88.3
776.667	86.95
776.844	86.78
777.022	87.45
777.2	89.21
777.378	90.04
777.556	91.31
777.734	93.01
777.911	95.07
778.089	94.55
778.267	94.76
778.445	93.17
778.622	91.54
778.8	91.04
778.978	91.09
779.155	89.17
779.333	89.56
779.511	89.5
779.688	89.88
779.866	91.17
780.043	92.01
780.221	91.92
780.398	92.62
780.576	92.76
780.753	91.25
780.931	91.21
781.108	91.7
781.286	89.38
781.463	88.13
781.64	88.19
781.818	88.53
781.995	90.06
782.172	89.33
782.35	88.67
782.527	90.54
782.704	91.96
782.882	93.09
783.059	92.1
783.236	92.83
783.413	93.59
783.59	92.67
783.768	90.46
783.945	89.96
784.122	87.84
784.299	88.73
784.476	88.78
784.653	88.5
784.83	89.11
785.007	90.34
785.184	90.56
785.361	91.74
785.538	92.5
785.715	90.82
785.892	89.25
786.069	90.71
786.246	90.42
786.423	89.54
786.6	88.61
786.776	87.17
786.953	87.88
787.13	89.11
787.307	89.01
787.484	88.26
787.66	89.03
787.837	89.8
788.014	90.2
788.191	89.03
788.367	88.32
788.544	86.18
788.721	87.18
788.897	87.47
789.074	87
789.25	89.35
789.427	90.25
789.603	94.82
789.78	96.77
789.956	96.94
790.133	95.35
790.309	93.17
790.486	92.7
790.662	93.56
790.839	91.85
791.015	92.32
791.192	93.03
791.368	95.71
791.544	99.04
791.721	95.59
791.897	93.6
792.073	92.55
792.249	92.29
792.426	92.56
792.602	88.48
792.778	86.89
792.954	87.01
793.13	89.06
793.307	87.87
793.483	87.35
793.659	87.07
793.835	88.33
794.011	85.68
794.187	84
794.363	83.53
794.539	83.62
794.715	82.6
794.891	79.01
795.067	80.13
795.243	82.51
795.419	84.52
795.595	81.72
795.771	82.35
795.947	79.7
796.122	81.51
796.298	81.05
796.474	82.71
796.65	85.98
796.826	90.61
797.001	90.75
797.177	95.67
797.353	100.63
797.529	100.62
797.704	97.12
797.88	94.84
798.056	94.09
798.231	92.68
798.407	91.17
798.582	88.38
798.758	89.32
798.934	91.14
799.109	87.2
799.285	87.34
799.46	88.87
799.636	89.63
799.811	89.72
799.986	90.89
800.162	88.6
800.337	88.73
800.513	89.03
800.688	88.64
800.863	88.7
801.039	84.84
801.214	83.28
801.389	84.14
801.565	88.32
801.74	83.72
801.915	84.86
802.09	82.67
802.265	84.35
802.441	84.12
802.616	87.71
802.791	87.5
802.966	87.54
803.141	83.16
803.316	85.78
803.491	83.19
803.666	82.3
803.841	80.73
804.016	80.87
804.191	80.25
804.366	84.68
804.541	82.65
804.716	79.63
804.891	83.81
805.066	82
805.241	79.77
805.416	80.38
805.591	76.83
805.765	80.05
805.94	87.29
806.115	81.41
806.29	83.2
806.464	82.24
806.639	85.26
806.814	82.81
806.989	79.17
807.163	79.52
807.338	82.96
807.512	81.01
807.687	80.49
807.862	80.89
808.036	81.74
808.211	84.8
808.385	80.74
808.56	79.53
808.734	78.67
808.909	77.96
809.083	74.37
809.258	79.84
809.432	76.15
809.606	76.38
809.781	76
809.955	81.64
810.13	88.18
810.304	90.17
810.478	91.16
810.652	94.31
810.827	94.35
811.001	95.94
811.175	88.95
811.349	86.32
811.524	86.46
811.698	83.04
811.872	83.62
812.046	83.18
812.22	79.67
812.394	84.48
812.568	87.62
812.742	85.4
812.916	86.3
813.09	80.88
813.264	83.58
813.438	90.41
813.612	86.71
813.786	80.13
813.96	87.81
814.134	91.92
814.308	90.76
814.482	88.63
814.656	86.79
814.83	88.75
815.003	89.85
815.177	85.76
815.351	82.01
815.525	80.06
815.698	79.08
815.872	76.53
816.046	73.03
816.219	76.53
816.393	69.35
816.567	64.29
816.74	70.17
816.914	71.58
817.088	66.11
817.261	65.35
817.435	59.21
817.608	62.33
817.782	68.99
817.955	66.58
818.129	74.74
818.302	85.45
818.475	89.06
818.649	90.36
818.822	89.98
818.996	90.01
819.169	90.14
819.342	82.16
819.516	79.07
819.689	81.63
819.862	77.37
820.035	76.61
820.209	75.13
820.382	70.78
820.555	69.74
820.728	63.87
820.901	58.17
821.075	70.09
821.248	72.71
821.421	68.94
821.594	75.34
821.767	79.09
821.94	77.46
822.113	83.33
822.286	81.01
822.459	88.06
822.632	95.95
822.805	90.18
822.978	81.9
823.151	85.01
823.324	75.96
823.496	65.39
823.669	66.96
823.842	67.52
824.015	66.76
824.188	68.87
824.361	70.62
824.533	77.51
824.706	100.03
824.879	90.38
825.051	91.17
825.224	97.17
825.397	92.06
825.569	93.63
825.742	97.38
825.915	86.43
826.087	84.35
826.26	78.48
826.432	81.58
826.605	80.93
826.777	82.84
826.95	70.64
827.122	69.78
827.295	75.25
827.467	71.72
827.64	59.09
827.812	64.53
827.984	61.71
828.157	68.81
828.329	68.32
828.501	60
828.674	59.37
828.846	61.8
829.018	58.87
829.19	55.28
829.363	54.69
829.535	60.97
829.707	62.69
829.879	69.59
830.051	73.93
830.223	69.04
830.395	67.14
830.568	73.26
830.74	70.59
830.912	74.09
831.084	69.93
831.256	60.71
831.428	60.26
831.6	59.23
831.772	50.17
831.943	55.25
832.115	61.23
832.287	64.61
832.459	76.89
832.631	82.16
832.803	92.21
832.975	100.37
833.146	90.28
833.318	77.3
833.49	82.48
833.662	75.25
833.833	82.98
834.005	74.26
834.177	71.69
834.348	66.42
834.52	67.34
834.692	64.42
834.863	69.09
835.035	56.97
835.206	61.85
835.378	60.87
835.549	69.27
835.721	64.91
835.892	61.2
836.064	63.48
836.235	67.37
836.407	66.14
836.578	71.03
836.749	76.21
836.921	84.93
837.092	90
837.264	90.58
837.435	80.37
837.606	81.76
837.777	76.24
837.949	58.38
838.12	56.36
838.291	59.7
838.462	66.84
838.633	76.01
838.805	72.7
838.976	78.88
839.147	81.78
839.318	80.14
839.489	70.34
839.66	66.13
839.831	64.35
840.002	63.82
840.173	61.8
840.344	73.8
840.515	73.63
840.686	83.44
840.857	73.6
841.028	75.53
841.199	73.15
841.369	66.9
841.54	62.96
841.711	75.78
841.882	69.38
842.053	69.38
842.223	76.27
842.394	85.71
842.565	87.9
842.736	85.05
842.906	75
843.077	73.09
843.248	85.59
843.418	80.36
843.589	81.15
843.759	83.74
843.93	86.2
844.101	79.22
844.271	98.74
844.442	101.86
844.612	100.15
844.783	82.51
844.953	80.56
845.123	88.23
845.294	111.5
845.464	92.33
845.635	83.33
845.805	79.18
845.975	74.51
846.146	68.25
846.316	76.15
846.486	72.15
846.656	78.11
846.827	73.48
846.997	88.07
847.167	100.03
847.337	107.44
847.507	98.57
847.677	102.18
847.848	102.13
848.018	103.03
848.188	96.73
848.358	112.41
848.528	106.39
848.698	88.42
848.868	76.53
849.038	74.68
849.208	74.34
849.378	62.83
849.548	61.7
849.718	56.72
849.887	55.33
850.057	52.59
850.227	42.33
850.397	38.33
850.567	63.95
850.737	53.61
850.906	59.6
851.076	76.8
851.246	83.35
851.415	94.01
851.585	99.4
851.755	93.25
851.924	106.3
852.094	101.54
852.264	83.46
852.433	92.07
852.603	106.73
852.772	97.17
852.942	77.07
853.111	73.64
853.281	69.76
853.45	80.74
853.62	67.7
853.789	46.81
853.959	51.96
854.128	47.01
854.297	45.46
854.467	60
854.636	59.68
854.805	58.6
854.975	73.73
855.144	86.66
855.313	104.81
855.482	90.47
855.652	72.94
855.821	81.1
855.99	102.12
856.159	103.42
856.328	73.86
856.497	70.11
856.667	77.51
856.836	74.56
857.005	65.67
857.174	61.66
857.343	54.55
857.512	50.35
857.681	49.62
857.85	61.96
858.019	82.97
858.188	86.61
858.356	70.23
858.525	71
858.694	89.05
858.863	71.94
859.032	53.36
859.201	37.97
859.369	47.01
859.538	46.42
859.707	49.45
859.876	42.6
860.044	51.92
860.213	63.19
860.382	73.39
860.55	82.19
860.719	95.07
860.888	83.37
861.056	105.97
861.225	120.86
861.393	120.7
861.562	102.4
861.73	100.68
861.899	73.22
862.067	77.71
862.236	62.18
862.404	47.73
862.572	39.99
862.741	44.17
862.909	32.79
863.078	41.56
863.246	48.13
863.414	46.45
863.582	44.68
863.751	34.4
863.919	54.97
864.087	60.97
864.255	60.5
864.424	59.73
864.592	69.91
864.76	73.65
864.928	79.93
865.096	52.77
865.264	55.13
865.432	56.04
865.6	42.03
865.768	24.22
865.936	22.47
866.104	23.09
866.272	35.66
866.44	7.54
866.608	-7
866.776	35.89
866.944	45.53
867.112	26.89
867.28	6.62
867.448	28.97
867.615	56.52
867.783	43
867.951	55.25
868.119	64.91
868.286	79.21
868.454	70.59
868.622	68.66
868.789	69.81
868.957	90.27
869.125	67.54
869.292	67.53
869.46	56.18
869.627	57.17
869.795	53.98
869.963	44.52
870.13	32.4
870.298	46.44
870.465	34.12
870.632	53.56
870.8	45.47
870.967	40.26
871.135	42.86
871.302	51.29
871.469	38.56
871.637	41.79
871.804	42.83
871.971	57.76
872.139	71.54
872.306	69.06
872.473	61.84
872.64	76.39
872.807	74.09
872.975	74.53
873.142	42.06
873.309	53.01
873.476	115.71
873.643	179.01
873.81	152.37
873.977	125.9
874.144	175.28
874.311	116.46
874.478	66.42
874.645	45.27
874.812	38.8
874.979	33.97
875.146	29.86
875.313	-0.46
875.48	64.82
875.647	29.7
875.813	31.41
875.98	24.54
876.147	60.45
876.314	58.54
876.481	59.13
876.647	55.72
876.814	71.55
876.981	60.33
877.147	52.32
877.314	44.69
877.481	51.97
877.647	62.81
877.814	50.09
877.98	36.9
878.147	54.46
878.314	52.07
878.48	58.31
878.647	83.67
878.813	67.82
878.979	102.41
879.146	88.76
879.312	104.86
879.479	113.3
879.645	94.49
879.811	92.09
879.978	119
880.144	127.02
880.31	122.82
880.477	102.45
880.643	162.06
880.809	184.01
880.975	94.59
881.142	58.17
881.308	92.66
881.474	158.11
881.64	105.3
881.806	89.6
881.972	125.33
882.138	164.17
882.304	174.93
882.47	97.53
882.636	29.31
882.802	51.86
882.968	11.07
883.134	-128.83
883.3	-110.37
883.466	-22.62
883.632	-19.87
883.798	11.42
883.964	18.48
884.129	58.97
884.295	51.45
884.461	64.36
884.627	80.31
884.793	89.66
884.958	70.53
885.124	77.14
885.29	31.01
885.455	29.47
885.621	27.2
885.787	23.91
885.952	10.54
886.118	22.11
886.283	22.87
886.449	13.81
886.614	31.92
886.78	75.79
886.945	66.45
887.111	71.09
887.276	45.09
887.442	55.61
887.607	74.04
887.773	38.57
887.938	10.27
888.103	36.24
888.269	46.25
888.434	51.02
888.599	65.42
888.764	53.01
888.93	67.84
889.095	59.51
889.26	85.11
889.425	105.51
889.59	79.94
889.756	71.14
889.921	57.06
890.086	68.4
890.251	51.85
890.416	5.69
890.581	-34.35
890.746	11.33
890.911	-44.82
891.076	-57.41
891.241	-79.09
891.406	10.61
891.571	11.12
891.736	34.96
891.901	44.69
892.065	86.06
892.23	82.77
892.395	53.28
892.56	53.78
892.725	57.33
892.889	43.2
893.054	-13.65
893.219	-65.43
893.384	-104.4
893.548	-228.33
893.713	534.65
893.878	301.63
