Data from Ofra_PS_T2_2A_2GT41_Reflection_2.txt Node
Date: Wed Jul 21 17:04:54 EDT 2021
User: Adam
Spectrometer: FLMT01687
Trigger mode: 0
Integration Time (sec): 1.100000E0
Scans to average: 2
Electric dark correction enabled: true
Nonlinearity correction enabled: false
Boxcar width: 2
XAxis mode: Wavelengths
Number of Pixels in Spectrum: 3648
>>>>>Begin Spectral Data<<<<<
179.494	401.4
179.716	532.24
179.937	503.38
180.158	476.44
180.38	667.97
180.601	351.8
180.823	110.68
181.044	-32.35
181.265	327.02
181.486	154.62
181.708	149.83
181.929	399.49
182.15	-263.03
182.372	179.14
182.593	53.05
182.814	75.26
183.035	105.78
183.257	61.28
183.478	-11.65
183.699	65.79
183.92	36.03
184.141	11.93
184.363	-42.19
184.584	-6.62
184.805	-24.41
185.026	4.87
185.247	15.86
185.468	28.6
185.689	32.02
185.91	36.2
186.132	1.86
186.353	-5.35
186.574	25.79
186.795	26.83
187.016	-19.91
187.237	-0.63
187.458	-10.28
187.679	-27.43
187.9	-2.32
188.121	17.45
188.342	44.09
188.563	76.18
188.784	132.55
189.005	118.27
189.226	149.26
189.447	122.08
189.667	21.48
189.888	-288.55
190.109	-1013.96
190.33	-383.71
190.551	-667.04
190.772	-120.04
190.993	-81.8
191.214	-140.34
191.434	-124.05
191.655	-47.94
191.876	-144.54
192.097	-154.85
192.318	-139.09
192.538	-252.71
192.759	-169.62
192.98	-39.92
193.201	-28.71
193.421	-17.37
193.642	12.08
193.863	13.1
194.083	-14.87
194.304	0.92
194.525	10.93
194.745	-0.08
194.966	-15.71
195.187	0.48
195.407	1
195.628	-72.78
195.848	-88.64
196.069	-95.56
196.29	-62.43
196.51	-101.2
196.731	-72.82
196.951	-58.92
197.172	-69.41
197.392	-80.12
197.613	-75.66
197.833	-102.78
198.054	-85.32
198.274	-32.14
198.495	-60.84
198.715	-22.96
198.936	-22.68
199.156	-27.02
199.377	-137.77
199.597	-111.06
199.817	-106.42
200.038	-56.82
200.258	-106.59
200.479	-19
200.699	-7.55
200.919	33.15
201.14	-0.78
201.36	2.33
201.58	30.45
201.801	54.98
202.021	22.17
202.241	34.04
202.461	24.24
202.682	-44.11
202.902	-147.31
203.122	-91.4
203.342	-80.04
203.563	-34.21
203.783	0.98
204.003	-20.94
204.223	-20.55
204.443	32.84
204.663	7.09
204.884	16.29
205.104	46.73
205.324	64.97
205.544	39.84
205.764	50.76
205.984	27.81
206.204	34.42
206.424	17.16
206.644	-15.59
206.864	-11.42
207.084	-33.94
207.304	-14.15
207.525	-93.98
207.745	-28.28
207.964	21.42
208.184	-6.63
208.404	-35.09
208.624	-18.91
208.844	-34.51
209.064	-248.33
209.284	-264.44
209.504	-146.48
209.724	-34.53
209.944	-19.02
210.164	10.3
210.384	15.7
210.604	-11.27
210.823	-71.93
211.043	-79.37
211.263	-62
211.483	-50.09
211.703	-72.95
211.922	-49.84
212.142	11.35
212.362	23.44
212.582	6.27
212.801	19.43
213.021	1.66
213.241	-1.94
213.461	-37.9
213.68	-49.12
213.9	-27.96
214.12	-9.84
214.339	-78.47
214.559	-75.49
214.779	-17.4
214.998	-13.52
215.218	-53.84
215.438	-15.11
215.657	-7.56
215.877	-36.98
216.096	-20.55
216.316	11.83
216.535	1.35
216.755	0.85
216.974	-35.38
217.194	-49.72
217.413	-76.26
217.633	-72.96
217.852	-115.88
218.072	-59.36
218.291	-24.17
218.511	9.69
218.73	-12.8
218.95	-12.29
219.169	-21.1
219.389	-73.62
219.608	-54.51
219.827	-46.09
220.047	-41.13
220.266	-11.51
220.485	6.66
220.705	15.27
220.924	-11.27
221.143	19.05
221.363	-5.55
221.582	0.3
221.801	-9.45
222.021	21.26
222.24	-41.17
222.459	-8.91
222.678	-51.07
222.897	-102.18
223.117	-176.96
223.336	-183.82
223.555	-116.36
223.774	-64.93
223.993	-55.73
224.213	26.74
224.432	28.13
224.651	54.47
224.87	36.65
225.089	43.11
225.308	28.87
225.527	31.63
225.746	19.15
225.965	18.11
226.184	-19.69
226.404	5.21
226.623	-3.3
226.842	-6.46
227.061	12.64
227.28	28.43
227.499	11.4
227.718	28.89
227.936	25.83
228.155	29.14
228.374	10
228.593	24.17
228.812	21.31
229.031	10.18
229.25	-42.98
229.469	-44.31
229.688	-55.09
229.907	-20.85
230.125	-15.05
230.344	18.81
230.563	30.59
230.782	37.34
231.001	-40.83
231.22	-24.32
231.438	-29.86
231.657	-16.79
231.876	-18.11
232.095	33.59
232.313	34.57
232.532	30.77
232.751	18.52
232.969	4.69
233.188	-69.74
233.407	-9.16
233.625	-12.74
233.844	-35.98
234.063	-38.66
234.281	5.37
234.5	-8.73
234.719	10.17
234.937	26.22
235.156	20.14
235.374	14.4
235.593	15.12
235.811	6.93
236.03	-13.86
236.249	-30.76
236.467	-20.38
236.686	-13.16
236.904	3.61
237.123	-9.38
237.341	-7.36
237.559	-2.44
237.778	-9.35
237.996	-31.35
238.215	3.2
238.433	15.39
238.652	7.89
238.87	-14.68
239.088	7.21
239.307	-0.79
239.525	-19.7
239.743	-44.34
239.962	-27.48
240.18	-63.13
240.398	-96.69
240.617	-84.16
240.835	-53.19
241.053	-30.39
241.271	20.43
241.49	33.01
241.708	38.47
241.926	2.21
242.144	-23.29
242.363	-90.42
242.581	-101.58
242.799	-63.64
243.017	-11.68
243.235	-19.39
243.453	-4.8
243.672	1.54
243.89	0.88
244.108	-15.17
244.326	15.94
244.544	27.54
244.762	27.06
244.98	43.35
245.198	51.85
245.416	27.16
245.634	14.12
245.852	-1.5
246.07	-15.27
246.288	-23.04
246.506	-60.45
246.724	-43.12
246.942	-38.8
247.16	-4.03
247.378	5.95
247.596	31.43
247.814	34.33
248.032	-3.41
248.25	-13.81
248.468	-16.2
248.685	-5.69
248.903	10.55
249.121	30.19
249.339	-1.78
249.557	-13.01
249.775	-16.72
249.992	-69.22
250.21	-57.42
250.428	-30.33
250.646	-48.75
250.863	-64.16
251.081	-34.98
251.299	-35.61
251.517	-24.53
251.734	-10.13
251.952	-6.88
252.17	-12.22
252.387	-9.64
252.605	-9.48
252.823	-1.64
253.04	2.81
253.258	22.32
253.475	16.62
253.693	32.97
253.911	34.08
254.128	37.84
254.346	37.07
254.563	23.27
254.781	0.57
254.998	-14.5
255.216	-7.4
255.433	-0.53
255.651	51.65
255.868	63.31
256.086	72.81
256.303	57.69
256.521	46.35
256.738	6.53
256.956	-29.31
257.173	-52.88
257.39	-70.79
257.608	-92.91
257.825	7.22
258.043	46.26
258.26	54.21
258.477	81.39
258.695	77.97
258.912	-6.05
259.129	-4.17
259.346	-48.89
259.564	-90.87
259.781	-126.13
259.998	-38.94
260.216	-12.91
260.433	32.51
260.65	54.67
260.867	64.03
261.084	30.75
261.302	12.71
261.519	-14.36
261.736	-46.33
261.953	-53.7
262.17	-7.85
262.387	-29.16
262.604	-45.58
262.822	-50.54
263.039	-29.21
263.256	-77.52
263.473	-23.56
263.69	-9.96
263.907	23.89
264.124	29.99
264.341	43.93
264.558	21.43
264.775	34.51
264.992	28.63
265.209	12.63
265.426	27.13
265.643	22.66
265.86	39.57
266.077	30.25
266.294	22.45
266.51	-25.87
266.727	-20.61
266.944	-26.03
267.161	-29.62
267.378	-26
267.595	2.56
267.812	-15.43
268.028	-50.97
268.245	-26.19
268.462	-29.23
268.679	-33.84
268.896	16.55
269.112	34.44
269.329	29.81
269.546	30.78
269.763	16.64
269.979	-8.9
270.196	-16.24
270.413	-39.45
270.629	-53.04
270.846	-42.7
271.063	-26.91
271.279	-36.8
271.496	-31.7
271.712	7.3
271.929	23.73
272.146	0.47
272.362	25.84
272.579	45.61
272.795	59.13
273.012	57.35
273.228	74.21
273.445	24.43
273.661	7.49
273.878	-55.09
274.094	-51.15
274.311	-85.78
274.527	0.34
274.744	9.27
274.96	6.12
275.177	9.2
275.393	15.13
275.609	-0.05
275.826	20.29
276.042	21.37
276.259	-1.03
276.475	31.93
276.691	38.36
276.908	12.31
277.124	28.29
277.34	38.52
277.557	19.58
277.773	3.91
277.989	-1.39
278.205	-4.16
278.422	5.04
278.638	5.49
278.854	28.91
279.07	30.58
279.286	23.56
279.503	12.1
279.719	7.68
279.935	-19.8
280.151	-14.99
280.367	4.13
280.583	-17.45
280.799	-3.94
281.016	-31.77
281.232	-8.43
281.448	-23.41
281.664	0.47
281.88	-40.73
282.096	-9.26
282.312	1.98
282.528	28.53
282.744	44.3
282.96	60.49
283.176	37.5
283.392	28.48
283.608	21.92
283.824	10.48
284.04	8.68
284.256	23.54
284.471	14.56
284.687	6.05
284.903	28
285.119	46.64
285.335	20.18
285.551	20.37
285.767	2.63
285.982	-15.24
286.198	-66.05
286.414	-0.05
286.63	8.12
286.846	23.34
287.061	-1.36
287.277	39
287.493	-0.04
287.709	22.66
287.924	22.84
288.14	61.86
288.356	53.78
288.571	67.1
288.787	34.14
289.003	23.3
289.218	11.06
289.434	-36.03
289.65	-51.98
289.865	-46.52
290.081	-33.95
290.296	-26.68
290.512	0.15
290.727	-11.56
290.943	-19.92
291.159	-20.05
291.374	-24.54
291.59	-39.81
291.805	-16.01
292.021	1.85
292.236	-0.39
292.451	6.65
292.667	12.44
292.882	21.15
293.098	5.02
293.313	-11.9
293.529	-17.32
293.744	-18.85
293.959	-28.93
294.175	-18.61
294.39	20.69
294.605	24.89
294.821	33.82
295.036	41.6
295.251	35.46
295.467	12.69
295.682	4.04
295.897	-22.99
296.112	-50.97
296.328	-31.88
296.543	-55.1
296.758	-42.71
296.973	-19.59
297.188	27.24
297.404	-5.54
297.619	-13
297.834	-34.18
298.049	-38.07
298.264	-78.76
298.479	-8.46
298.694	2.87
298.909	25.37
299.125	27.54
299.34	38.98
299.555	11.17
299.77	8.66
299.985	-34.11
300.2	-64.91
300.415	-71.27
300.63	-48.28
300.845	-48.26
301.06	-31.98
301.275	-10.1
301.49	-4.75
301.704	-10.74
301.919	-20.29
302.134	-27.57
302.349	-30.03
302.564	-71.98
302.779	-85.18
302.994	-86.17
303.209	-55.51
303.423	-58.77
303.638	4.23
303.853	-17.79
304.068	-4.86
304.283	14.18
304.497	15.25
304.712	1.99
304.927	18.75
305.142	4.23
305.356	-12.89
305.571	-15.1
305.786	-26.97
306	-54.73
306.215	-44.66
306.43	-69.2
306.644	-75.59
306.859	-24.95
307.074	-9.95
307.288	-17.03
307.503	7.34
307.717	8.5
307.932	2.97
308.147	-0.57
308.361	5.37
308.576	-0.54
308.79	-39.87
309.005	-37.8
309.219	-11.16
309.434	-4.25
309.648	-18.81
309.863	20.88
310.077	16.87
310.292	8.43
310.506	9.98
310.72	32.24
310.935	16.82
311.149	17.44
311.364	31.36
311.578	37.71
311.792	24.91
312.007	37.55
312.221	23.87
312.435	10.22
312.649	-6.97
312.864	-26
313.078	-26.71
313.292	22.2
313.507	13.12
313.721	52
313.935	52.22
314.149	47.68
314.363	36.97
314.578	28.5
314.792	19.42
315.006	14.65
315.22	30.27
315.434	27.11
315.648	40.58
315.862	41
316.077	42.18
316.291	19.76
316.505	32.65
316.719	14.87
316.933	4.64
317.147	1.29
317.361	-52.21
317.575	-74.44
317.789	-106.89
318.003	-193.85
318.217	-155.55
318.431	-62.33
318.645	-17.89
318.859	-2.67
319.073	34.59
319.287	18.35
319.5	3.51
319.714	-27.57
319.928	-46.79
320.142	-77.09
320.356	-41.17
320.57	-13.58
320.784	-22.77
320.997	-29.71
321.211	-36.89
321.425	-65.53
321.639	-84.92
321.853	-38.28
322.066	-15.79
322.28	-8.41
322.494	-1.31
322.707	12.86
322.921	0.48
323.135	-7.43
323.349	4.57
323.562	-7.52
323.776	-9.87
323.989	-16.55
324.203	-23.43
324.417	-35.57
324.63	-46.22
324.844	-57.09
325.057	-38.57
325.271	-7.81
325.485	6.27
325.698	27.43
325.912	38.44
326.125	16.21
326.339	10.1
326.552	-9.38
326.766	2.49
326.979	9.44
327.193	28.7
327.406	11.73
327.619	5.35
327.833	10.27
328.046	-12.7
328.26	-32.87
328.473	-13.28
328.686	-22.7
328.9	-34.77
329.113	-7.05
329.326	-27.38
329.54	-17
329.753	2.86
329.966	-24.44
330.179	-34.34
330.393	-1.8
330.606	-6.45
330.819	0.11
331.032	24.19
331.246	32.16
331.459	53.66
331.672	55.39
331.885	42.63
332.098	25.81
332.311	11.18
332.525	-46.55
332.738	-49.86
332.951	-7.69
333.164	3.29
333.377	15.21
333.59	31.54
333.803	37.2
334.016	25.31
334.229	23.8
334.442	6.17
334.655	27.1
334.868	21.93
335.081	3.76
335.294	12.3
335.507	12.46
335.72	-0.4
335.933	-7.21
336.146	-1.95
336.359	-19.26
336.572	-28.93
336.785	-61.81
336.997	-44.15
337.21	-24.74
337.423	-35.6
337.636	-29.06
337.849	-1.88
338.062	-11.38
338.274	-14.76
338.487	-2.11
338.7	-1.06
338.913	-48.86
339.125	-72.95
339.338	-110.9
339.551	-73.87
339.763	-35.78
339.976	-4.75
340.189	17.53
340.402	13.05
340.614	-11.62
340.827	-22.26
341.039	-37.55
341.252	-41.08
341.465	-2.86
341.677	-11.43
341.89	-37.81
342.102	-8.73
342.315	-13.33
342.527	-54.11
342.74	-34.56
342.952	-12.29
343.165	-25.9
343.377	3.68
343.59	8.04
343.802	25.22
344.015	21.04
344.227	47.88
344.44	22.26
344.652	17.89
344.864	5.78
345.077	27.7
345.289	21.89
345.502	24.85
345.714	23.74
345.926	25.45
346.139	9.42
346.351	15.46
346.563	24.29
346.775	25.24
346.988	9.93
347.2	7.86
347.412	-45.22
347.624	-59.4
347.837	-80.97
348.049	-50.93
348.261	-27.94
348.473	-3.4
348.685	4.39
348.897	7.29
349.11	-9.47
349.322	-22.19
349.534	-5.34
349.746	-16.7
349.958	-7.62
350.17	-16.74
350.382	6.71
350.594	0.3
350.806	7.52
351.018	-2.78
351.23	-12.96
351.442	-68.56
351.654	-74.06
351.866	-64.51
352.078	-26.27
352.29	12.32
352.502	37.22
352.714	47.49
352.926	34.68
353.138	19.85
353.35	-0.03
353.561	-14.44
353.773	-43.76
353.985	-21.05
354.197	-31.89
354.409	-26.06
354.621	-34.49
354.832	-16.42
355.044	-30.43
355.256	-26.67
355.468	-3.1
355.679	1.74
355.891	1.56
356.103	-6.34
356.314	9.04
356.526	-7.66
356.738	5.55
356.949	8.11
357.161	26.61
357.373	13.82
357.584	-0.51
357.796	7.84
358.008	3.95
358.219	14.43
358.431	22.75
358.642	28.84
358.854	21.95
359.065	17.22
359.277	-8.22
359.488	-25.52
359.7	-31.17
359.911	-38.68
360.123	-18.56
360.334	-27.67
360.546	-40.77
360.757	-44.06
360.969	-31.25
361.18	-36.6
361.391	-17.4
361.603	-1.12
361.814	5.65
362.025	-5.88
362.237	-8.74
362.448	2.69
362.659	9.02
362.871	18.22
363.082	13.5
363.293	8.16
363.504	-4.97
363.716	-18.04
363.927	-34.82
364.138	-41.63
364.349	-28.92
364.56	-31.8
364.772	-31.16
364.983	-11.55
365.194	-14.22
365.405	-3.62
365.616	12.15
365.827	17.31
366.038	2
366.25	10.05
366.461	-16.39
366.672	-1.92
366.883	6.85
367.094	13.7
367.305	2.39
367.516	8.42
367.727	-17.01
367.938	-38.22
368.149	-38.05
368.36	-16.39
368.571	-10.56
368.781	-20.43
368.992	-36.76
369.203	-49.15
369.414	-70.84
369.625	-66.93
369.836	-48.41
370.047	-47.74
370.258	-41.29
370.468	-47.38
370.679	-66.93
370.89	-61.71
371.101	-34.57
371.312	-36.97
371.522	-19.18
371.733	-23.47
371.944	-11.82
372.155	-6.17
372.365	-7.93
372.576	-6.74
372.787	9.15
372.997	-14.27
373.208	-27.3
373.419	0.67
373.629	-35.36
373.84	-38.68
374.05	-42.95
374.261	-31.31
374.472	-48.25
374.682	2.66
374.893	10.84
375.103	39.5
375.314	34.55
375.524	24.95
375.735	24.13
375.945	19.53
376.156	-0.03
376.366	13.38
376.577	19.39
376.787	14.84
376.997	16.45
377.208	17.53
377.418	-8.97
377.629	-3.81
377.839	-4.45
378.049	-1.05
378.26	5.67
378.47	22.7
378.68	10.63
378.89	4.1
379.101	-6.25
379.311	-27.16
379.521	-50.92
379.732	-42.02
379.942	-46.61
380.152	-47.14
380.362	-21.24
380.572	-27.48
380.783	-5.38
380.993	12.81
381.203	16.59
381.413	21.13
381.623	31.65
381.833	18.17
382.043	2.9
382.253	6.23
382.463	2.1
382.674	-1.83
382.884	-14.35
383.094	-6.64
383.304	-9.72
383.514	-5.89
383.724	3.84
383.934	0.96
384.144	-13.45
384.353	-19.41
384.563	-15.51
384.773	-16.73
384.983	-20.76
385.193	-4.03
385.403	4.9
385.613	1.12
385.823	-8.58
386.033	-1.98
386.242	-5.23
386.452	-8.76
386.662	-18.06
386.872	-3.29
387.082	-7.53
387.291	-14.21
387.501	-13.71
387.711	-2.14
387.921	-9.25
388.13	-9.58
388.34	2.12
388.55	-0.98
388.759	-6.57
388.969	2.37
389.179	-2.24
389.388	-4.06
389.598	0.04
389.807	-3.19
390.017	-10.95
390.227	-6.09
390.436	-10.08
390.646	-9.5
390.855	-6.91
391.065	-6.38
391.274	-5.47
391.484	-6.83
391.693	-6.03
391.903	-2.15
392.112	1.47
392.322	4.6
392.531	10.45
392.74	10.09
392.95	6.77
393.159	5.2
393.369	3.04
393.578	2.46
393.787	2.16
393.997	2.52
394.206	1.95
394.415	3.4
394.625	1.5
394.834	0.75
395.043	2.56
395.252	5.95
395.462	7.01
395.671	8.33
395.88	8.68
396.089	9.24
396.298	6.46
396.508	5.7
396.717	5.68
396.926	6.25
397.135	5.33
397.344	5.83
397.553	6.69
397.762	7.64
397.971	7.33
398.181	7.99
398.39	7.4
398.599	7.01
398.808	6.6
399.017	7.52
399.226	8.42
399.435	9.2
399.644	9.29
399.853	8.73
400.062	8.45
400.27	7.4
400.479	6.86
400.688	6.16
400.897	6.43
401.106	6.39
401.315	6.54
401.524	6.77
401.733	7.29
401.941	7.71
402.15	7.71
402.359	7.49
402.568	7.65
402.777	7.8
402.985	7.31
403.194	7.09
403.403	7.31
403.612	7.08
403.82	6.75
404.029	6.81
404.238	6.74
404.446	7.02
404.655	6.85
404.864	6.96
405.072	6.93
405.281	7.16
405.489	6.92
405.698	7.1
405.906	6.99
406.115	7.04
406.324	6.91
406.532	6.95
406.741	7.12
406.949	7.17
407.158	7.09
407.366	7.1
407.574	6.97
407.783	6.95
407.991	6.83
408.2	7.1
408.408	7.16
408.617	7.24
408.825	6.98
409.033	7.07
409.242	7.01
409.45	7.01
409.658	6.86
409.867	7.03
410.075	6.78
410.283	6.58
410.491	6.38
410.7	6.36
410.908	6.24
411.116	6.63
411.324	6.64
411.533	6.64
411.741	6.78
411.949	6.78
412.157	6.44
412.365	6.41
412.573	6.55
412.781	6.49
412.99	6.37
413.198	6.67
413.406	6.61
413.614	6.48
413.822	6.4
414.03	6.45
414.238	6.09
414.446	6.23
414.654	6.01
414.862	6.08
415.07	6.02
415.278	6.25
415.486	6.03
415.694	6.27
415.902	6.1
416.109	6.1
416.317	6.04
416.525	5.87
416.733	5.88
416.941	6
417.149	6.01
417.357	6.01
417.564	6.28
417.772	6.36
417.98	6.26
418.188	6.17
418.395	6.14
418.603	6.27
418.811	5.86
419.019	5.85
419.226	5.95
419.434	6.05
419.642	5.9
419.849	6.06
420.057	6.04
420.265	6.08
420.472	5.79
420.68	5.67
420.887	5.64
421.095	5.65
421.302	5.65
421.51	5.91
421.717	6.05
421.925	6.08
422.132	6.05
422.34	5.67
422.547	5.66
422.755	5.56
422.962	5.49
423.17	5.23
423.377	5.52
423.585	5.44
423.792	5.38
423.999	5.57
424.207	5.7
424.414	5.71
424.621	5.59
424.829	5.63
425.036	5.62
425.243	5.86
425.451	5.71
425.658	5.72
425.865	5.77
426.072	5.77
426.28	5.8
426.487	5.86
426.694	5.96
426.901	5.84
427.108	5.68
427.315	5.53
427.523	5.78
427.73	5.54
427.937	5.49
428.144	5.46
428.351	5.5
428.558	5.5
428.765	5.64
428.972	5.59
429.179	5.65
429.386	5.95
429.593	5.73
429.8	5.77
430.007	6.03
430.214	6.14
430.421	5.92
430.628	5.92
430.835	5.79
431.042	5.8
431.249	5.84
431.456	5.87
431.662	5.99
431.869	6.14
432.076	6.11
432.283	6.18
432.49	6.17
432.697	6.12
432.903	5.98
433.11	6.09
433.317	6.24
433.524	6.43
433.73	6.42
433.937	6.67
434.144	6.62
434.35	6.47
434.557	6.32
434.764	6.32
434.97	6.25
435.177	6.39
435.384	6.45
435.59	6.46
435.797	6.68
436.003	6.89
436.21	6.77
436.416	6.75
436.623	6.8
436.829	6.77
437.036	6.74
437.242	6.78
437.449	6.81
437.655	6.97
437.862	7.04
438.068	6.92
438.275	7.07
438.481	7.11
438.687	7.04
438.894	6.97
439.1	7.02
439.307	7.18
439.513	7.2
439.719	7.19
439.926	7.23
440.132	7.25
440.338	7.02
440.544	7.15
440.751	7.12
440.957	7.3
441.163	7.27
441.369	7.3
441.575	7.13
441.782	7.17
441.988	6.99
442.194	6.99
442.4	7.04
442.606	7.34
442.812	7.4
443.018	7.55
443.224	7.61
443.431	7.63
443.637	7.35
443.843	7.27
444.049	7.2
444.255	7.18
444.461	7.26
444.667	7.25
444.873	7.38
445.079	7.39
445.284	7.42
445.49	7.12
445.696	7.01
445.902	6.95
446.108	6.9
446.314	6.93
446.52	7.12
446.726	7.42
446.931	7.42
447.137	7.48
447.343	7.47
447.549	7.34
447.755	7.19
447.96	7.23
448.166	7.26
448.372	7.23
448.578	7.33
448.783	7.35
448.989	7.38
449.195	7.51
449.4	7.54
449.606	7.57
449.812	7.61
450.017	7.68
450.223	7.54
450.428	7.45
450.634	7.52
450.84	7.64
451.045	7.56
451.251	7.46
451.456	7.8
451.662	7.83
451.867	7.86
452.073	7.89
452.278	8.06
452.483	8.02
452.689	7.98
452.894	7.98
453.1	7.9
453.305	7.78
453.51	7.66
453.716	7.6
453.921	7.55
454.127	7.55
454.332	7.57
454.537	7.55
454.742	7.63
454.948	7.59
455.153	7.67
455.358	7.78
455.563	7.89
455.769	7.95
455.974	7.96
456.179	7.84
456.384	7.74
456.589	7.69
456.795	7.54
457	7.51
457.205	7.74
457.41	7.77
457.615	7.77
457.82	7.81
458.025	7.85
458.23	7.68
458.435	7.68
458.64	7.58
458.845	7.76
459.05	7.8
459.255	7.82
459.46	7.79
459.665	7.82
459.87	7.71
460.075	7.71
460.28	7.75
460.485	7.95
460.69	8.06
460.895	7.94
461.099	7.96
461.304	8.01
461.509	7.91
461.714	7.81
461.919	7.98
462.123	7.81
462.328	7.84
462.533	7.75
462.738	7.9
462.942	7.8
463.147	7.95
463.352	7.97
463.556	8.03
463.761	7.94
463.966	7.91
464.17	7.86
464.375	7.73
464.58	7.77
464.784	7.78
464.989	7.84
465.193	7.81
465.398	7.83
465.602	7.81
465.807	7.8
466.011	7.82
466.216	7.97
466.42	8.02
466.625	8.12
466.829	8.21
467.034	8.28
467.238	8.37
467.443	8.38
467.647	8.24
467.851	8.3
468.056	8.28
468.26	8.15
468.464	8.18
468.669	8.27
468.873	8.31
469.077	8.32
469.282	8.41
469.486	8.29
469.69	8.38
469.894	8.23
470.099	8.35
470.303	8.38
470.507	8.5
470.711	8.37
470.915	8.4
471.119	8.28
471.324	8.27
471.528	8.29
471.732	8.37
471.936	8.43
472.14	8.48
472.344	8.51
472.548	8.5
472.752	8.68
472.956	8.84
473.16	8.88
473.364	8.78
473.568	8.83
473.772	8.76
473.976	8.56
474.18	8.57
474.384	8.68
474.588	8.64
474.792	8.46
474.995	8.66
475.199	8.7
475.403	8.78
475.607	8.85
475.811	8.94
476.015	8.93
476.218	8.98
476.422	8.88
476.626	8.88
476.83	8.98
477.033	8.97
477.237	8.77
477.441	8.78
477.644	8.74
477.848	8.69
478.052	8.62
478.255	8.74
478.459	8.79
478.663	8.95
478.866	9.01
479.07	9.05
479.273	9.18
479.477	9.22
479.681	9.13
479.884	9.1
480.088	9.09
480.291	9.03
480.495	9.03
480.698	9.07
480.901	9.11
481.105	9.25
481.308	9.22
481.512	9.16
481.715	9.2
481.919	9.21
482.122	9.12
482.325	9.17
482.529	9.2
482.732	9.19
482.935	9.11
483.138	9.03
483.342	9.07
483.545	9.17
483.748	9.33
483.952	9.44
484.155	9.55
484.358	9.57
484.561	9.45
484.764	9.27
484.967	9.33
485.171	9.43
485.374	9.38
485.577	9.54
485.78	9.59
485.983	9.64
486.186	9.51
486.389	9.52
486.592	9.46
486.795	9.46
486.998	9.28
487.201	9.36
487.404	9.5
487.607	9.65
487.81	9.67
488.013	9.84
488.216	9.85
488.419	9.74
488.622	9.64
488.825	9.61
489.028	9.57
489.231	9.57
489.433	9.59
489.636	9.59
489.839	9.57
490.042	9.54
490.245	9.53
490.447	9.57
490.65	9.64
490.853	9.72
491.056	9.81
491.258	9.91
491.461	9.94
491.664	9.98
491.866	9.94
492.069	10.05
492.272	10.02
492.474	10.13
492.677	10.19
492.879	10.39
493.082	10.41
493.285	10.62
493.487	10.57
493.69	10.59
493.892	10.59
494.095	10.59
494.297	10.54
494.5	10.63
494.702	10.65
494.905	10.65
495.107	10.73
495.309	10.79
495.512	10.85
495.714	11
495.917	11.15
496.119	11.2
496.321	11.29
496.524	11.35
496.726	11.35
496.928	11.34
497.13	11.35
497.333	11.33
497.535	11.39
497.737	11.43
497.939	11.5
498.142	11.62
498.344	11.67
498.546	11.66
498.748	11.74
498.95	11.82
499.152	11.84
499.355	11.89
499.557	12.02
499.759	12.14
499.961	12.16
500.163	12.24
500.365	12.29
500.567	12.38
500.769	12.31
500.971	12.35
501.173	12.24
501.375	12.33
501.577	12.33
501.779	12.37
501.981	12.45
502.183	12.57
502.385	12.54
502.587	12.42
502.788	12.48
502.99	12.48
503.192	12.52
503.394	12.46
503.596	12.6
503.798	12.72
503.999	12.83
504.201	12.83
504.403	12.94
504.605	12.97
504.806	12.85
505.008	12.77
505.21	12.8
505.411	12.84
505.613	12.88
505.815	12.96
506.016	13.06
506.218	13.19
506.42	13.21
506.621	13.21
506.823	13.16
507.024	13.02
507.226	12.92
507.427	12.83
507.629	12.87
507.83	12.99
508.032	13.02
508.233	13.12
508.435	13.22
508.636	13.22
508.838	13.12
509.039	13.16
509.24	13.11
509.442	13.05
509.643	12.92
509.845	12.93
510.046	13.01
510.247	13.01
510.448	13.01
510.65	13.15
510.851	13.29
511.052	13.23
511.254	13.17
511.455	13.32
511.656	13.35
511.857	13.29
512.058	13.33
512.26	13.43
512.461	13.41
512.662	13.43
512.863	13.34
513.064	13.3
513.265	13.22
513.466	13.21
513.667	13.12
513.868	13.21
514.069	13.29
514.27	13.41
514.471	13.39
514.672	13.48
514.873	13.41
515.074	13.42
515.275	13.3
515.476	13.27
515.677	13.32
515.878	13.49
516.079	13.48
516.28	13.58
516.481	13.69
516.682	13.62
516.882	13.51
517.083	13.48
517.284	13.44
517.485	13.43
517.686	13.46
517.886	13.51
518.087	13.6
518.288	13.66
518.488	13.65
518.689	13.7
518.89	13.65
519.091	13.63
519.291	13.67
519.492	13.71
519.692	13.71
519.893	13.85
520.094	13.8
520.294	13.72
520.495	13.67
520.695	13.72
520.896	13.7
521.096	13.78
521.297	13.84
521.497	13.87
521.698	13.84
521.898	13.79
522.099	13.81
522.299	13.88
522.499	13.91
522.7	13.94
522.9	13.97
523.101	14
523.301	14.01
523.501	13.99
523.702	14.05
523.902	14.12
524.102	14.12
524.302	14.15
524.503	14.24
524.703	14.23
524.903	14.32
525.103	14.32
525.304	14.35
525.504	14.36
525.704	14.43
525.904	14.36
526.104	14.42
526.304	14.42
526.504	14.43
526.705	14.4
526.905	14.43
527.105	14.38
527.305	14.36
527.505	14.25
527.705	14.27
527.905	14.28
528.105	14.34
528.305	14.31
528.505	14.43
528.705	14.52
528.905	14.54
529.105	14.53
529.304	14.61
529.504	14.67
529.704	14.62
529.904	14.58
530.104	14.6
530.304	14.66
530.503	14.6
530.703	14.55
530.903	14.62
531.103	14.68
531.303	14.7
531.502	14.77
531.702	14.9
531.902	14.91
532.101	14.89
532.301	14.89
532.501	14.94
532.7	14.89
532.9	14.91
533.1	14.94
533.299	15.04
533.499	15.04
533.698	15.02
533.898	15.07
534.097	15.07
534.297	15.09
534.496	15.09
534.696	15.16
534.895	15.24
535.095	15.32
535.294	15.26
535.494	15.28
535.693	15.33
535.892	15.31
536.092	15.25
536.291	15.26
536.491	15.33
536.69	15.35
536.889	15.31
537.088	15.28
537.288	15.37
537.487	15.44
537.686	15.45
537.886	15.49
538.085	15.56
538.284	15.63
538.483	15.54
538.682	15.61
538.882	15.74
539.081	15.79
539.28	15.75
539.479	15.82
539.678	15.81
539.877	15.89
540.076	15.94
540.275	16.01
540.474	16.06
540.673	16.09
540.872	15.98
541.071	16.02
541.27	16.05
541.469	16.08
541.668	16.18
541.867	16.31
542.066	16.39
542.265	16.49
542.464	16.52
542.663	16.52
542.862	16.59
543.06	16.64
543.259	16.64
543.458	16.73
543.657	16.78
543.856	16.81
544.054	16.7
544.253	16.73
544.452	16.69
544.651	16.78
544.849	16.7
545.048	16.8
545.247	16.81
545.445	16.91
545.644	16.93
545.843	16.95
546.041	17.06
546.24	17.22
546.438	17.33
546.637	17.33
546.836	17.5
547.034	17.55
547.233	17.49
547.431	17.46
547.63	17.5
547.828	17.49
548.027	17.52
548.225	17.59
548.423	17.59
548.622	17.68
548.82	17.75
549.019	17.81
549.217	17.99
549.415	18.06
549.614	18.11
549.812	18.14
550.01	18.14
550.209	18.09
550.407	18.15
550.605	18.19
550.803	18.27
551.002	18.39
551.2	18.5
551.398	18.59
551.596	18.72
551.794	18.86
551.993	18.92
552.191	18.93
552.389	19.08
552.587	19.1
552.785	19.09
552.983	19.2
553.181	19.36
553.379	19.4
553.577	19.49
553.775	19.6
553.973	19.63
554.171	19.69
554.369	19.73
554.567	19.8
554.765	19.88
554.963	19.93
555.161	19.9
555.359	19.95
555.557	20.15
555.755	20.23
555.952	20.36
556.15	20.48
556.348	20.62
556.546	20.66
556.744	20.68
556.941	20.7
557.139	20.79
557.337	20.84
557.535	20.74
557.732	20.92
557.93	21.13
558.128	21.22
558.325	21.34
558.523	21.39
558.721	21.49
558.918	21.48
559.116	21.57
559.313	21.55
559.511	21.79
559.708	21.75
559.906	21.86
560.104	21.95
560.301	22.06
560.498	22.08
560.696	22.17
560.893	22.28
561.091	22.39
561.288	22.52
561.486	22.63
561.683	22.74
561.88	22.73
562.078	22.81
562.275	22.81
562.473	22.86
562.67	22.9
562.867	23.03
563.064	23.04
563.262	23.15
563.459	23.21
563.656	23.38
563.853	23.43
564.051	23.57
564.248	23.64
564.445	23.69
564.642	23.83
564.839	24.04
565.036	24.1
565.234	24.24
565.431	24.47
565.628	24.53
565.825	24.66
566.022	24.82
566.219	24.84
566.416	24.9
566.613	24.89
566.81	24.88
567.007	24.78
567.204	24.86
567.401	24.81
567.598	24.84
567.795	24.78
567.991	24.92
568.188	24.97
568.385	25.17
568.582	25.27
568.779	25.38
568.976	25.5
569.172	25.61
569.369	25.54
569.566	25.56
569.763	25.64
569.96	25.48
570.156	25.35
570.353	25.4
570.55	25.47
570.746	25.53
570.943	25.69
571.14	25.81
571.336	25.9
571.533	25.92
571.729	25.85
571.926	25.95
572.123	26.03
572.319	25.98
572.516	25.97
572.712	26.09
572.909	25.97
573.105	26.04
573.302	26.1
573.498	26.18
573.695	26.1
573.891	26.23
574.087	26.1
574.284	26.01
574.48	25.97
574.677	25.97
574.873	25.93
575.069	26.09
575.266	26.12
575.462	26.06
575.658	26.24
575.854	26.28
576.051	26.19
576.247	26.2
576.443	26.18
576.639	26.02
576.835	25.9
577.032	25.93
577.228	25.98
577.424	26.09
577.62	26.06
577.816	26.17
578.012	26.12
578.208	26.07
578.404	26.03
578.6	26.07
578.796	26
578.993	26
579.189	25.97
579.384	25.88
579.58	25.84
579.776	25.81
579.972	25.71
580.168	25.7
580.364	25.72
580.56	25.7
580.756	25.66
580.952	25.68
581.148	25.68
581.343	25.66
581.539	25.65
581.735	25.77
581.931	25.83
582.127	25.84
582.322	25.79
582.518	25.88
582.714	25.75
582.909	25.66
583.105	25.64
583.301	25.6
583.496	25.53
583.692	25.49
583.888	25.51
584.083	25.55
584.279	25.53
584.474	25.51
584.67	25.5
584.866	25.43
585.061	25.2
585.257	25.27
585.452	25.27
585.648	25.23
585.843	25.35
586.039	25.36
586.234	25.4
586.429	25.41
586.625	25.5
586.82	25.38
587.015	25.46
587.211	25.22
587.406	25.19
587.601	25.13
587.797	25.13
587.992	25.06
588.187	25.19
588.383	25.14
588.578	25.12
588.773	25.19
588.968	25.22
589.163	25.25
589.359	25.22
589.554	25.13
589.749	25.09
589.944	25.14
590.139	25.08
590.334	25.11
590.529	25.19
590.724	25.18
590.919	25.22
591.114	25.31
591.309	25.36
591.504	25.41
591.699	25.36
591.894	25.38
592.089	25.3
592.284	25.29
592.479	25.3
592.674	25.33
592.869	25.37
593.064	25.45
593.259	25.54
593.454	25.65
593.648	25.72
593.843	25.65
594.038	25.67
594.233	25.62
594.428	25.61
594.622	25.62
594.817	25.84
595.012	25.82
595.206	25.82
595.401	25.86
595.596	25.87
595.79	25.88
595.985	26.05
596.18	26.16
596.374	26.24
596.569	26.36
596.763	26.28
596.958	26.24
597.153	26.29
597.347	26.28
597.542	26.35
597.736	26.4
597.931	26.47
598.125	26.54
598.319	26.66
598.514	26.68
598.708	26.76
598.903	26.78
599.097	26.79
599.291	26.76
599.486	26.78
599.68	26.81
599.874	26.87
600.069	26.84
600.263	26.79
600.457	26.84
600.651	26.82
600.846	26.9
601.04	26.96
601.234	26.98
601.428	26.97
601.622	27
601.817	26.93
602.011	27.06
602.205	27.21
602.399	27.23
602.593	27.3
602.787	27.36
602.981	27.3
603.175	27.24
603.369	27.24
603.563	27.21
603.757	27.24
603.951	27.19
604.145	27.21
604.339	27.27
604.533	27.15
604.727	27.09
604.921	27.04
605.115	26.97
605.309	27
605.502	27.02
605.696	26.96
605.89	26.99
606.084	26.97
606.278	26.81
606.471	26.77
606.665	26.7
606.859	26.61
607.053	26.58
607.246	26.53
607.44	26.58
607.634	26.55
607.827	26.53
608.021	26.42
608.214	26.43
608.408	26.31
608.602	26.21
608.795	26.21
608.989	26.18
609.182	26.04
609.376	25.98
609.569	26.01
609.763	25.86
609.956	25.78
610.15	25.71
610.343	25.74
610.537	25.63
610.73	25.61
610.923	25.55
611.117	25.52
611.31	25.44
611.504	25.39
611.697	25.25
611.89	25.26
612.083	25.21
612.277	25.15
612.47	25.09
612.663	25.08
612.856	25.03
613.05	24.88
613.243	24.81
613.436	24.7
613.629	24.64
613.822	24.47
614.015	24.51
614.209	24.31
614.402	24.32
614.595	24.32
614.788	24.25
614.981	24.08
615.174	24.03
615.367	23.92
615.56	23.81
615.753	23.88
615.946	23.84
616.139	23.86
616.332	23.92
616.525	23.94
616.718	23.83
616.911	23.78
617.103	23.76
617.296	23.59
617.489	23.52
617.682	23.47
617.875	23.44
618.067	23.36
618.26	23.34
618.453	23.29
618.646	23.24
618.838	23.27
619.031	23.32
619.224	23.32
619.417	23.28
619.609	23.31
619.802	23.27
619.994	23.19
620.187	23.12
620.38	23.05
620.572	23.01
620.765	23.06
620.957	22.98
621.15	22.81
621.342	22.81
621.535	22.68
621.727	22.62
621.92	22.62
622.112	22.7
622.305	22.67
622.497	22.64
622.69	22.64
622.882	22.64
623.074	22.71
623.267	22.68
623.459	22.63
623.651	22.5
623.844	22.53
624.036	22.53
624.228	22.47
624.42	22.47
624.613	22.64
624.805	22.52
624.997	22.47
625.189	22.5
625.381	22.56
625.574	22.46
625.766	22.33
625.958	22.27
626.15	22.24
626.342	22.16
626.534	22.09
626.726	22.12
626.918	22.1
627.11	22.01
627.302	22
627.494	21.93
627.686	21.99
627.878	21.88
628.07	21.96
628.262	21.92
628.454	21.95
628.646	21.98
628.838	22.03
629.029	21.94
629.221	21.94
629.413	21.87
629.605	21.63
629.797	21.48
629.989	21.44
630.18	21.36
630.372	21.39
630.564	21.48
630.755	21.58
630.947	21.59
631.139	21.52
631.33	21.38
631.522	21.48
631.714	21.39
631.905	21.4
632.097	21.38
632.289	21.42
632.48	21.31
632.672	21.21
632.863	21.05
633.055	21.08
633.246	21.01
633.438	20.89
633.629	20.91
633.821	20.93
634.012	20.78
634.203	20.69
634.395	20.67
634.586	20.65
634.777	20.62
634.969	20.72
635.16	20.75
635.351	20.71
635.543	20.69
635.734	20.74
635.925	20.68
636.117	20.64
636.308	20.61
636.499	20.48
636.69	20.28
636.881	20.2
637.073	20.25
637.264	20.2
637.455	20.2
637.646	20.32
637.837	20.33
638.028	20.07
638.219	20.11
638.41	20.09
638.601	20.01
638.792	19.96
638.983	20.03
639.174	19.88
639.365	19.88
639.556	19.78
639.747	19.65
639.938	19.67
640.129	19.65
640.32	19.49
640.511	19.46
640.701	19.54
640.892	19.48
641.083	19.48
641.274	19.58
641.465	19.51
641.655	19.34
641.846	19.28
642.037	19.23
642.228	19.1
642.418	19.1
642.609	19.11
642.8	19.14
642.99	19.05
643.181	19.07
643.372	19
643.562	18.91
643.753	18.78
643.943	18.72
644.134	18.56
644.324	18.58
644.515	18.66
644.705	18.66
644.896	18.76
645.086	18.77
645.277	18.68
645.467	18.59
645.658	18.49
645.848	18.39
646.038	18.37
646.229	18.25
646.419	18.15
646.61	18.2
646.8	18.18
646.99	18.1
647.18	18.05
647.371	18.1
647.561	18.03
647.751	17.99
647.941	17.97
648.132	18.03
648.322	17.99
648.512	17.98
648.702	17.91
648.892	17.95
649.082	17.89
649.272	17.77
649.462	17.61
649.653	17.56
649.843	17.48
650.033	17.55
650.223	17.51
650.413	17.6
650.603	17.66
650.793	17.68
650.983	17.58
651.172	17.57
651.362	17.5
651.552	17.36
651.742	17.2
651.932	17.15
652.122	17.16
652.312	17.21
652.502	17.17
652.691	17.26
652.881	17.24
653.071	17.3
653.261	17.09
653.45	17.04
653.64	17.02
653.83	16.93
654.019	16.78
654.209	16.83
654.399	16.75
654.588	16.6
654.778	16.5
654.968	16.36
655.157	16.31
655.347	16.28
655.536	16.18
655.726	16.15
655.915	16.07
656.105	15.99
656.294	15.93
656.484	15.77
656.673	15.64
656.863	15.63
657.052	15.5
657.241	15.34
657.431	15.24
657.62	15.12
657.809	14.83
657.999	14.68
658.188	14.57
658.377	14.39
658.567	14.3
658.756	14.21
658.945	14.16
659.134	14
659.324	13.9
659.513	13.78
659.702	13.67
659.891	13.52
660.08	13.38
660.269	13.43
660.458	13.23
660.648	13.12
660.837	12.9
661.026	12.94
661.215	12.72
661.404	12.65
661.593	12.54
661.782	12.37
661.971	12.2
662.16	12.12
662.349	11.94
662.538	11.81
662.726	11.77
662.915	11.61
663.104	11.41
663.293	11.45
663.482	11.52
663.671	11.48
663.86	11.3
664.048	11.26
664.237	11.19
664.426	10.91
664.615	10.8
664.803	10.8
664.992	10.7
665.181	10.55
665.369	10.5
665.558	10.41
665.747	10.33
665.935	10.36
666.124	10.3
666.312	10.26
666.501	10.19
666.69	10.11
666.878	10.03
667.067	9.9
667.255	9.97
667.444	10.18
667.632	10.25
667.82	10.3
668.009	10.34
668.197	10.24
668.386	10.04
668.574	10.02
668.762	9.94
668.951	9.89
669.139	9.91
669.327	9.85
669.516	9.96
669.704	9.79
669.892	9.94
670.08	9.86
670.269	9.75
670.457	9.51
670.645	9.47
670.833	9.5
671.021	9.55
671.21	9.65
671.398	9.89
671.586	9.91
671.774	9.69
671.962	9.66
672.15	9.64
672.338	9.38
672.526	9.48
672.714	9.49
672.902	9.53
673.09	9.68
673.278	10.01
673.466	10.08
673.654	10.23
673.842	10.14
674.03	10.05
674.218	9.83
674.405	9.84
674.593	9.86
674.781	9.95
674.969	10.06
675.157	10.17
675.344	10.31
675.532	10.32
675.72	10.56
675.908	10.58
676.095	10.55
676.283	10.58
676.471	10.71
676.658	10.63
676.846	10.7
677.033	10.89
677.221	10.75
677.409	10.72
677.596	10.8
677.784	10.82
677.971	10.76
678.159	10.91
678.346	10.97
678.534	11.18
678.721	11.4
678.909	11.45
679.096	11.55
679.283	11.77
679.471	11.67
679.658	11.68
679.846	11.95
680.033	12.24
680.22	12.34
680.408	12.4
680.595	12.45
680.782	12.39
680.969	12.45
681.157	12.45
681.344	12.71
681.531	12.8
681.718	12.82
681.905	12.78
682.093	12.92
682.28	12.96
682.467	13.26
682.654	13.61
682.841	13.74
683.028	13.8
683.215	13.95
683.402	13.81
683.589	13.95
683.776	14.19
683.963	14.41
684.15	14.66
684.337	14.97
684.524	14.96
684.711	15.29
684.898	15.44
685.085	15.61
685.271	16.01
685.458	16.29
685.645	16.41
685.832	16.82
686.019	17.09
686.205	17.24
686.392	17.55
686.579	17.76
686.766	18.06
686.952	18.31
687.139	18.81
687.326	19.11
687.512	19.43
687.699	19.78
687.886	20.12
688.072	20.21
688.259	20.69
688.445	21.16
688.632	21.32
688.818	21.82
689.005	22.19
689.191	22.61
689.378	23.04
689.564	23.56
689.751	23.96
689.937	24.44
690.124	24.8
690.31	25.1
690.496	25.57
690.683	26.13
690.869	26.73
691.055	27.31
691.242	27.95
691.428	28.42
691.614	28.84
691.8	29.37
691.987	29.85
692.173	30.52
692.359	31.33
692.545	31.99
692.731	32.39
692.918	32.9
693.104	33.27
693.29	33.65
693.476	34.33
693.662	35
693.848	35.59
694.034	36.26
694.22	36.8
694.406	37.39
694.592	38.27
694.778	38.83
694.964	39.27
695.15	39.68
695.336	39.86
695.522	40.36
695.708	41.13
695.894	41.76
696.08	42.65
696.265	43.54
696.451	44.17
696.637	44.78
696.823	45.4
697.009	45.83
697.194	46.59
697.38	46.81
697.566	47.4
697.751	48.13
697.937	48.97
698.123	49.5
698.308	50.01
698.494	50.66
698.68	51.01
698.865	51.36
699.051	51.85
699.236	52.3
699.422	52.85
699.607	53.52
699.793	54.11
699.978	54.6
700.164	55.56
700.349	56.13
700.535	56.52
700.72	57.09
700.906	57.78
701.091	58.09
701.276	58.46
701.462	59.51
701.647	60.14
701.832	60.35
702.018	61.2
702.203	61.63
702.388	61.76
702.573	62.27
702.759	63.15
702.944	63.28
703.129	63.47
703.314	63.83
703.499	64.07
703.684	64.23
703.87	65.25
704.055	66.05
704.24	66.63
704.425	67.26
704.61	67.83
704.795	67.72
704.98	68.36
705.165	68.35
705.35	68.61
705.535	69.02
705.72	69.42
705.905	70.06
706.09	70.95
706.275	71.33
706.459	71.4
706.644	71.98
706.829	72.1
707.014	72.25
707.199	72.77
707.384	73.39
707.568	73.69
707.753	74.18
707.938	74.76
708.123	75.01
708.307	75.19
708.492	75.37
708.677	75.47
708.861	75.34
709.046	75.62
709.231	76.36
709.415	77.14
709.6	77.23
709.784	77.51
709.969	77.66
710.153	77.7
710.338	77.55
710.522	78.4
710.707	79.34
710.891	79.84
711.076	79.83
711.26	80.08
711.445	79.96
711.629	80.13
711.813	80.19
711.998	80.84
712.182	81.14
712.366	81.8
712.551	82.43
712.735	82.63
712.919	82.77
713.103	82.83
713.288	82.27
713.472	81.94
713.656	82.75
713.84	82.94
714.024	83.84
714.208	84.16
714.393	84.8
714.577	84.89
714.761	84.96
714.945	84.7
715.129	84.96
715.313	85.11
715.497	85.16
715.681	85.78
715.865	85.81
716.049	86.28
716.233	85.77
716.417	85.8
716.601	85.69
716.785	85.84
716.968	85.83
717.152	86.6
717.336	87.1
717.52	87.18
717.704	87.68
717.888	87.85
718.071	88.03
718.255	88.02
718.439	88.17
718.622	88.42
718.806	89.08
718.99	88.65
719.174	89.12
719.357	89.63
719.541	89.51
719.724	89.23
719.908	90.61
720.092	90.53
720.275	90.63
720.459	90.75
720.642	90.8
720.826	90
721.009	90.05
721.193	89.6
721.376	90.24
721.559	90.54
721.743	91.04
721.926	91.56
722.11	92.57
722.293	91.97
722.476	92.23
722.66	92.56
722.843	92.12
723.026	91.51
723.21	91.93
723.393	92.16
723.576	91.75
723.759	91.93
723.942	91.83
724.126	91.67
724.309	91.74
724.492	92.25
724.675	92.33
724.858	93.43
725.041	94.08
725.224	94.54
725.407	94.53
725.59	95.06
725.774	94.35
725.957	93.72
726.14	93.19
726.322	93.14
726.505	92.63
726.688	92.89
726.871	93.3
727.054	93.56
727.237	93.88
727.42	94.6
727.603	94.98
727.786	95.18
727.968	95.11
728.151	94.54
728.334	94.37
728.517	94.44
728.699	95.18
728.882	94.93
729.065	95.77
729.248	95.93
729.43	96.05
729.613	96.48
729.796	97.44
729.978	97.03
730.161	97.08
730.343	96.39
730.526	95.94
730.708	95.11
730.891	95.43
731.073	95.05
731.256	95.03
731.438	95.13
731.621	96.08
731.803	96.14
731.986	96.07
732.168	95.97
732.35	95.88
732.533	95.48
732.715	95.32
732.898	96.13
733.08	96.53
733.262	96.33
733.444	96.24
733.627	96.21
733.809	96.26
733.991	97.13
734.173	96.85
734.355	96.63
734.538	96.99
734.72	96.79
734.902	96.62
735.084	97.44
735.266	97.78
735.448	98.6
735.63	98.32
735.812	98.4
735.994	98.92
736.176	99.35
736.358	98.4
736.54	99.54
736.722	98.72
736.904	98.3
737.086	98.31
737.268	100.04
737.45	100.42
737.632	101.1
737.814	100.68
737.995	100.5
738.177	99.51
738.359	97.96
738.541	98.54
738.723	99
738.904	99.86
739.086	99.5
739.268	100.03
739.449	99.68
739.631	99.18
739.813	98.94
739.994	99.39
740.176	99.51
740.358	99.04
740.539	100.1
740.721	100.27
740.902	100.76
741.084	101.27
741.265	102.13
741.447	101.88
741.628	101.51
741.81	100.39
741.991	100.22
742.172	101.09
742.354	101.29
742.535	101.16
742.717	101.26
742.898	102.25
743.079	101.64
743.261	101.32
743.442	100.58
743.623	102.01
743.804	101.12
743.986	100.89
744.167	99.45
744.348	100.49
744.529	99.85
744.71	98.62
744.891	98
745.073	99.03
745.254	98.77
745.435	98.32
745.616	98.28
745.797	98.84
745.978	97.67
746.159	97.84
746.34	96.72
746.521	99.3
746.702	97.78
746.883	99.12
747.064	98.76
747.245	99.69
747.426	98.99
747.606	100.47
747.787	100.89
747.968	101.97
748.149	102.53
748.33	101.47
748.51	102.07
748.691	100.46
748.872	100.14
749.053	99.06
749.233	99.82
749.414	98.59
749.595	98.92
749.775	97.09
749.956	96.89
750.137	96.44
750.317	98.08
750.498	100.68
750.678	102.02
750.859	103.16
751.04	102.65
751.22	100.29
751.4	97.99
751.581	96.46
751.761	95.97
751.942	96.5
752.122	96.88
752.303	96.04
752.483	97.14
752.663	96.59
752.844	95.5
753.024	97.2
753.204	99.38
753.385	98.81
753.565	99.75
753.745	100.56
753.925	99.78
754.106	96.98
754.286	96.92
754.466	96.81
754.646	97.93
754.826	96.89
755.006	98.52
755.187	100.14
755.367	99.63
755.547	98.51
755.727	100.11
755.907	101.02
756.087	99.51
756.267	99.79
756.447	100.27
756.627	99.3
756.807	98.13
756.987	98.45
757.167	99.13
757.346	98.5
757.526	97.22
757.706	97.73
757.886	98.45
758.066	98.4
758.246	100.07
758.425	100.18
758.605	100.22
758.785	99.43
758.965	99.64
759.144	96.34
759.324	97.17
759.504	96.76
759.683	97.92
759.863	95.53
760.043	97.14
760.222	97.43
760.402	97.14
760.581	95.48
760.761	97.67
760.94	97.01
761.12	97.95
761.299	98.24
761.479	98.04
761.658	96.11
761.838	96.21
762.017	95.45
762.197	95.82
762.376	96.34
762.555	96.25
762.735	96.91
762.914	94.74
763.093	93.77
763.273	93.15
763.452	93.12
763.631	93.36
763.81	94.79
763.99	94.55
764.169	95.31
764.348	94.79
764.527	93.05
764.706	94.46
764.885	96.04
765.064	93.85
765.243	95.82
765.423	97.57
765.602	95.26
765.781	94.29
765.96	94.25
766.139	92.91
766.318	92.93
766.497	93.62
766.676	93.74
766.854	95.83
767.033	96.67
767.212	95.94
767.391	96.18
767.57	96.88
767.749	97.12
767.928	98
768.106	96.08
768.285	93.11
768.464	92.45
768.643	91.1
768.821	88.89
769	90.4
769.179	92.73
769.357	91.18
769.536	91.87
769.715	92.54
769.893	94.18
770.072	93.52
770.25	94.99
770.429	95.79
770.607	95.26
770.786	93.46
770.964	93.4
771.143	92.65
771.321	93.24
771.5	94.86
771.678	94.88
771.857	95.26
772.035	94.49
772.213	92.14
772.392	89.43
772.57	90.66
772.748	91.67
772.927	91.48
773.105	92.08
773.283	94.47
773.461	93.85
773.64	92.99
773.818	94.37
773.996	95.64
774.174	91.99
774.352	90.54
774.531	88.57
774.709	90.31
774.887	88.3
775.065	90.39
775.243	90.58
775.421	92.91
775.599	93.56
775.777	92.08
775.955	90.63
776.133	89.05
776.311	88.65
776.489	84.08
776.667	85.02
776.844	86.11
777.022	84.86
777.2	85.08
777.378	86.17
777.556	87.34
777.734	89.87
777.911	93.73
778.089	94.18
778.267	93.71
778.445	91.18
778.622	88.77
778.8	89.32
778.978	88.37
779.155	90.31
779.333	92.47
779.511	93.18
779.688	94.21
779.866	91.08
780.043	88.7
780.221	88.41
780.398	85.11
780.576	85.72
780.753	89.2
780.931	88.39
781.108	88.18
781.286	92.35
781.463	88.75
781.64	86.18
781.818	88.97
781.995	86.93
782.172	84.53
782.35	84.37
782.527	89.74
782.704	87.27
782.882	92.57
783.059	91.53
783.236	94.74
783.413	94.28
783.59	93.62
783.768	86.95
783.945	91.54
784.122	87.44
784.299	85.84
784.476	87.1
784.653	89.65
784.83	86.35
785.007	83.64
785.184	81.92
785.361	80.8
785.538	84.51
785.715	87.28
785.892	90.11
786.069	93.51
786.246	94.25
786.423	93.74
786.6	91.44
786.776	91.17
786.953	88.93
787.13	92.08
787.307	90.59
787.484	88.96
787.66	90.22
787.837	88.77
788.014	83.3
788.191	80.24
788.367	81.84
788.544	80.26
788.721	77.7
788.897	82.54
789.074	82.7
789.25	80.27
789.427	81.34
789.603	83.1
789.78	82.3
789.956	81.36
790.133	81.37
790.309	80.48
790.486	82.8
790.662	80.1
790.839	82.85
791.015	83.88
791.192	84.13
791.368	85.79
791.544	84.14
791.721	82.78
791.897	80.2
792.073	79.56
792.249	74.1
792.426	77.26
792.602	79.69
792.778	82.46
792.954	78.88
793.13	78.29
793.307	72.21
793.483	66.17
793.659	65.52
793.835	74.29
794.011	74.92
794.187	79.65
794.363	81.12
794.539	85.32
794.715	75.25
794.891	75.9
795.067	77.41
795.243	81.51
795.419	77.58
795.595	77.2
795.771	76.77
795.947	72.56
796.122	70.21
796.298	77.25
796.474	81.52
796.65	81.47
796.826	85.69
797.001	83.82
797.177	75.2
797.353	80.32
797.529	83.64
797.704	80.54
797.88	77.14
798.056	74.55
798.231	68.87
798.407	70.32
798.582	73.75
798.758	85.56
798.934	90.93
799.109	87.48
799.285	83.8
799.46	86.08
799.636	80.93
799.811	83.33
799.986	86.75
800.162	94.25
800.337	89.42
800.513	85.46
800.688	79.97
800.863	90.36
801.039	81.33
801.214	80.63
801.389	86.92
801.565	86
801.74	74.89
801.915	80.48
802.09	83.53
802.265	84.1
802.441	84.38
802.616	80.71
802.791	77.56
802.966	71.74
803.141	67.98
803.316	66.3
803.491	71.76
803.666	79.11
803.841	85.64
804.016	80.01
804.191	78.72
804.366	75.08
804.541	65.87
804.716	63.23
804.891	64.61
805.066	73.05
805.241	72.72
805.416	69.55
805.591	69.63
805.765	74.66
805.94	74.15
806.115	74.48
806.29	71.47
806.464	73.8
806.639	65.45
806.814	60.97
806.989	57.9
807.163	70.34
807.338	71.73
807.512	77.13
807.687	70.24
807.862	76.44
808.036	70.94
808.211	68.71
808.385	74.87
808.56	82.42
808.734	78.38
808.909	75.34
809.083	74.79
809.258	75.02
809.432	81.63
809.606	74.12
809.781	75.84
809.955	81.09
810.13	81.67
810.304	70.28
810.478	72.2
810.652	72.81
810.827	68.03
811.001	66.34
811.175	66.69
811.349	72.89
811.524	68.28
811.698	60.12
811.872	58.82
812.046	67.57
812.22	65.92
812.394	68.32
812.568	72.08
812.742	76.73
812.916	64.81
813.09	56.34
813.264	52.18
813.438	59.2
813.612	53.81
813.786	54.48
813.96	67.22
814.134	72.89
814.308	78.55
814.482	81.37
814.656	83.85
814.83	79.04
815.003	83.94
815.177	72.07
815.351	58.87
815.525	61.6
815.698	51.27
815.872	39.23
816.046	36.95
816.219	57.46
816.393	67.08
816.567	83.71
816.74	85.28
816.914	93.22
817.088	91.34
817.261	84.77
817.435	70.71
817.608	68.58
817.782	59.53
817.955	59.97
818.129	54.24
818.302	64.19
818.475	81.4
818.649	77.95
818.822	66.5
818.996	83.65
819.169	79.35
819.342	60.23
819.516	70.91
819.689	82.69
819.862	65.2
820.035	61.14
820.209	55.51
820.382	50.08
820.555	49.85
820.728	42.3
820.901	35.45
821.075	47.27
821.248	56.7
821.421	44
821.594	54.77
821.767	87.49
821.94	89.36
822.113	60.54
822.286	62.95
822.459	70.67
822.632	45.94
822.805	35.01
822.978	46.55
823.151	45.88
823.324	36.85
823.496	24.78
823.669	27.36
823.842	32.13
824.015	22.69
824.188	19.23
824.361	30.82
824.533	34.33
824.706	42.76
824.879	39.63
825.051	50.12
825.224	41.59
825.397	37.65
825.569	20.68
825.742	42.21
825.915	43.31
826.087	62.16
826.26	52.2
826.432	56.1
826.605	61.17
826.777	55.69
826.95	58.93
827.122	42.07
827.295	40.55
827.467	46.69
827.64	15.86
827.812	-1.92
827.984	16.58
828.157	18.67
828.329	-14.67
828.501	8.54
828.674	31.94
828.846	16.76
829.018	53.58
829.19	23.88
829.363	52.24
829.535	61.04
829.707	65.79
829.879	20.65
830.051	33.74
830.223	-1
830.395	-32.91
830.568	-15.35
830.74	-14.79
830.912	10.13
831.084	4.52
831.256	4.66
831.428	-19.12
831.6	-29.99
831.772	-65.34
831.943	-59.48
832.115	-30.15
832.287	4.62
832.459	18.54
832.631	41.04
832.803	49.51
832.975	61.34
833.146	44.31
833.318	37
833.49	45.88
833.662	31.72
833.833	11.01
834.005	5.47
834.177	12.6
834.348	-1.6
834.52	1.28
834.692	-3.64
834.863	-9.96
835.035	-10.67
835.206	-39.4
835.378	-33.16
835.549	-35.31
835.721	-9.2
835.892	1.07
836.064	7.08
836.235	16.62
836.407	67.86
836.578	44.94
836.749	32.17
836.921	4.14
837.092	-30.27
837.264	-61.09
837.435	-58.78
837.606	-8.59
837.777	27.92
837.949	47.35
838.12	55.48
838.291	48.47
838.462	34.02
838.633	6.21
838.805	-12.46
838.976	-15.16
839.147	-38.29
839.318	-54.12
839.489	-85.46
839.66	-50.85
839.831	-12.44
840.002	-0.06
840.173	5.43
840.344	68.65
840.515	118.44
840.686	-0.19
840.857	5.07
841.028	9.17
841.199	-18.45
841.369	-41.66
841.54	-32.97
841.711	-10.54
841.882	4.3
842.053	-6.83
842.223	-26.02
842.394	-7.4
842.565	-15.66
842.736	0.98
842.906	5.37
843.077	25.06
843.248	37.57
843.418	39.13
843.589	20.54
843.759	25.05
843.93	28.72
844.101	20.86
844.271	44.03
844.442	49.03
844.612	61.96
844.783	35.07
844.953	21.97
845.123	-10.11
845.294	-44.37
845.464	-233.96
845.635	-64.02
845.805	-20.37
845.975	17.16
846.146	-2.77
846.316	-12.48
846.486	5.04
846.656	26.95
846.827	8.48
846.997	1.31
847.167	16.41
847.337	-1.65
847.507	-37.91
847.677	-26
847.848	47.98
848.018	50.97
848.188	55.56
848.358	42.91
848.528	32.11
848.698	-26.68
848.868	-124.66
849.038	-257.93
849.208	-69.6
849.378	-7.8
849.548	1.25
849.718	28.93
849.887	56.29
850.057	24.96
850.227	-24.29
850.397	-26.07
850.567	-145.73
850.737	-419.02
850.906	-1320.94
851.076	-647.46
851.246	-316.1
851.415	3.64
851.585	18.82
851.755	31.86
851.924	51.98
852.094	71.12
852.264	30.37
852.433	-563.22
852.603	-116.03
852.772	-93.43
852.942	-70.49
853.111	-39.99
853.281	21.34
853.45	34.5
853.62	-36.02
853.789	-42.17
853.959	-65.98
854.128	-81.29
854.297	-99.45
854.467	-104.9
854.636	-95.92
854.805	-64.46
854.975	-107.32
855.144	-157.19
855.313	-23.6
855.482	-197.63
855.652	-24.56
855.821	71.29
855.99	75.47
856.159	42.31
856.328	33.67
856.497	6.69
856.667	16.3
856.836	12.12
857.005	-16.03
857.174	-39.31
857.343	-53.26
857.512	-24.79
857.681	-84.19
857.85	-132.64
858.019	-53.55
858.188	-15.14
858.356	-54.29
858.525	-83.93
858.694	-33.34
858.863	-104.12
859.032	-100.82
859.201	-116.27
859.369	-80.55
859.538	-93.35
859.707	-55.5
859.876	-77.2
860.044	-66.37
860.213	7.37
860.382	-6.69
860.55	-25.37
860.719	25.65
860.888	28.08
861.056	-10.65
861.225	-13.27
861.393	45.57
861.562	9.6
861.73	-48.19
861.899	-1.96
862.067	773.28
862.236	51.72
862.404	-4.54
862.572	25.65
862.741	40.97
862.909	16.55
863.078	-63.83
863.246	-21.78
863.414	-12.29
863.582	-15.14
863.751	-41.58
863.919	-31.9
864.087	-34
864.255	-35.95
864.424	-305.08
864.592	-29.17
864.76	-51.26
864.928	-310.2
865.096	-179.86
865.264	-157.08
865.432	-2081.25
865.6	-276.38
865.768	-123.6
865.936	-130.43
866.104	-150.5
866.272	-216.8
866.44	-394.78
866.608	652.58
866.776	297.75
866.944	2415.7
867.112	-498.62
867.28	-185.35
867.448	-56.25
867.615	-15.54
867.783	-1.5
867.951	-4.65
868.119	13.28
868.286	4.52
868.454	-85.58
868.622	-82.52
868.789	-45.39
868.957	-2555.36
869.125	-2299.34
869.292	-186.67
869.46	-319.92
869.627	-68.61
869.795	-68.29
869.963	1.04
870.13	34.83
870.298	62.72
870.465	-11.74
870.632	-14.08
870.8	-21.77
870.967	-99.34
871.135	-140.17
871.302	-82.75
871.469	-64.55
871.637	-207.38
871.804	-115.53
871.971	-130.58
872.139	-473.37
872.306	-33.18
872.473	-38.19
872.64	-171.57
872.807	-55.76
872.975	37.39
873.142	-206.45
873.309	1526.35
873.476	47.99
873.643	94.71
873.81	18.58
873.977	61.82
874.144	39.76
874.311	-126.53
874.478	-163.86
874.645	-148.05
874.812	-113.13
874.979	-50.18
875.146	-20.68
875.313	-41.79
875.48	22.52
875.647	-14.72
875.813	-57.41
875.98	-42.69
876.147	-49.57
876.314	-115.91
876.481	870.87
876.647	-877.25
876.814	241.32
876.981	6.63
877.147	-20.27
877.314	-2.53
877.481	17.16
877.647	11.62
877.814	-0.77
877.98	-43.58
878.147	8.28
878.314	58.95
878.48	66.16
878.647	58.34
878.813	80.51
878.979	60.05
879.146	8.02
879.312	-32.43
879.479	-108.26
879.645	-166.12
879.811	-249.13
879.978	-600.57
880.144	-103.86
880.31	-21.18
880.477	-190.81
880.643	-251.67
880.809	-110.52
880.975	-128.72
881.142	-1031.59
881.308	-182.96
881.474	-116.73
881.64	-123.64
881.806	-142.87
881.972	-75
882.138	-56.73
882.304	-38.26
882.47	-146.62
882.636	-541.6
882.802	-68.07
882.968	33.42
883.134	11.45
883.3	14.75
883.466	34.35
883.632	71.46
883.798	36.68
883.964	7.3
884.129	19.48
884.295	30.29
884.461	-46.02
884.627	-33.94
884.793	4.76
884.958	20.48
885.124	-44.61
885.29	-124.95
885.455	-154.73
885.621	-43.63
885.787	-178.34
885.952	-89.89
886.118	-46.1
886.283	-47.33
886.449	-125.21
886.614	-48.88
886.78	-31.44
886.945	483.2
887.111	-371.53
887.276	-247.59
887.442	-548.86
887.607	-290.45
887.773	-199.92
887.938	-193.67
888.103	-314.16
888.269	-248.72
888.434	-454.46
888.599	-214.87
888.764	-127.29
888.93	-25.03
889.095	-44.5
889.26	-87.73
889.425	-51.15
889.59	-2.87
889.756	-69.78
889.921	-35.61
890.086	51.84
890.251	53.59
890.416	-140.9
890.581	-964.11
890.746	199.55
890.911	503.03
891.076	247.13
891.241	-537.87
891.406	-51.9
891.571	-67.71
891.736	-281.08
891.901	-396.24
892.065	356.87
892.23	102.97
892.395	165.12
892.56	242.99
892.725	-251.37
892.889	-492.07
893.054	-131.78
893.219	-83.88
893.384	-61.97
893.548	-129.31
893.713	-177.71
893.878	-137.73
