Data from Ofra_1a_PS_8HS23_Reflection_1.txt Node
Date: Tue Jul 20 11:02:35 EDT 2021
User: Adam
Spectrometer: FLMT01687
Trigger mode: 0
Integration Time (sec): 1.004000E0
Scans to average: 2
Electric dark correction enabled: true
Nonlinearity correction enabled: false
Boxcar width: 2
XAxis mode: Wavelengths
Number of Pixels in Spectrum: 3648
>>>>>Begin Spectral Data<<<<<
179.494	-643.15
179.716	-719.85
179.937	1480.6
180.158	-2040.13
180.38	207.42
180.601	73.83
180.823	62.33
181.044	73.17
181.265	-91.89
181.486	97.53
181.708	48.53
181.929	-4918.18
182.15	45.84
182.372	-12.32
182.593	36.49
182.814	-101.7
183.035	-39.04
183.257	16.13
183.478	-13.44
183.699	-15.56
183.92	-57.83
184.141	-61.08
184.363	-50.11
184.584	-51.45
184.805	-44.44
185.026	14.36
185.247	18.37
185.468	-11.06
185.689	1.49
185.91	7.1
186.132	23.12
186.353	20.25
186.574	19.63
186.795	10.82
187.016	28.96
187.237	7.37
187.458	-11.74
187.679	-5.35
187.9	-1.97
188.121	-37.04
188.342	-8.81
188.563	0.33
188.784	36.55
189.005	19.1
189.226	15.91
189.447	0.93
189.667	-11.01
189.888	-39.36
190.109	-41.79
190.33	-12.21
190.551	-20.94
190.772	-7.23
190.993	6.53
191.214	-15.98
191.434	-30.56
191.655	-29.87
191.876	25.24
192.097	29.48
192.318	59.81
192.538	25.45
192.759	18.62
192.98	21.23
193.201	13.14
193.421	11.36
193.642	27.23
193.863	47.41
194.083	4.35
194.304	7.05
194.525	1.54
194.745	-3.69
194.966	-5.79
195.187	7.29
195.407	-2.49
195.628	-0.52
195.848	0.22
196.069	-12.69
196.29	-1.46
196.51	-9.69
196.731	-18.35
196.951	-7.41
197.172	-1.46
197.392	-19.05
197.613	13.62
197.833	-6.68
198.054	-28.51
198.274	-38.54
198.495	-21.55
198.715	-55.13
198.936	-16.97
199.156	-14.67
199.377	-13.48
199.597	-3.56
199.817	-9.05
200.038	-22.83
200.258	10.08
200.479	21.34
200.699	17.26
200.919	17.15
201.14	18.29
201.36	-2.55
201.58	-10.29
201.801	-5.93
202.021	-33.3
202.241	-50.44
202.461	-38.12
202.682	-28.99
202.902	-19.48
203.122	1.73
203.342	6.23
203.563	-18.6
203.783	-33.16
204.003	-52.88
204.223	-20.76
204.443	-10.74
204.663	2.06
204.884	7.67
205.104	17.02
205.324	8.71
205.544	-23.33
205.764	29.96
205.984	34.98
206.204	24.95
206.424	-2.22
206.644	-11.77
206.864	-49.6
207.084	-36.53
207.304	-35.63
207.525	-29.24
207.745	-9.57
207.964	-8.55
208.184	6.69
208.404	-0.55
208.624	-4
208.844	-8.28
209.064	-10.11
209.284	-21.76
209.504	-41.99
209.724	-35.71
209.944	-50.19
210.164	-52.23
210.384	-57.41
210.604	-86.66
210.823	-57.7
211.043	-20.03
211.263	-52.2
211.483	-31.5
211.703	-3.81
211.922	-21.3
212.142	-15.62
212.362	2.72
212.582	7
212.801	-6.84
213.021	-10.49
213.241	-41.22
213.461	-38.76
213.68	-32.17
213.9	-24.86
214.12	-31.3
214.339	-18.78
214.559	-22.87
214.779	-11.36
214.998	-18.48
215.218	-2.75
215.438	9.46
215.657	12.95
215.877	-4.71
216.096	15.47
216.316	10.37
216.535	9.84
216.755	15.81
216.974	8.46
217.194	-8.53
217.413	2.4
217.633	-29.11
217.852	-29.03
218.072	-9.96
218.291	-11.65
218.511	-28.83
218.73	-21.13
218.95	-53.96
219.169	-76.97
219.389	-39.97
219.608	-46.3
219.827	-30.73
220.047	-1.49
220.266	-18.32
220.485	-41.07
220.705	-4.18
220.924	-3.58
221.143	1.45
221.363	23.43
221.582	26.95
221.801	40.7
222.021	43.41
222.24	47.79
222.459	68.55
222.678	61.8
222.897	28.47
223.117	36.61
223.336	36.14
223.555	24.43
223.774	35.49
223.993	68.95
224.213	78.13
224.432	52.84
224.651	26.2
224.87	18.46
225.089	14.3
225.308	18.24
225.527	18.1
225.746	27.11
225.965	6.36
226.184	9.51
226.404	-23.09
226.623	-15.8
226.842	-14.53
227.061	-19.52
227.28	2.42
227.499	19.02
227.718	22.28
227.936	21.95
228.155	32.53
228.374	14.23
228.593	16.84
228.812	14.66
229.031	27
229.25	10.38
229.469	9.76
229.688	10.64
229.907	9.63
230.125	5.36
230.344	20.83
230.563	28.5
230.782	21.51
231.001	23.23
231.22	18.14
231.438	14.56
231.657	16.98
231.876	12.45
232.095	20.82
232.313	12.35
232.532	9.49
232.751	-1.33
232.969	1.58
233.188	-12.19
233.407	0.85
233.625	-1.74
233.844	5.22
234.063	-0.49
234.281	10.56
234.5	3.7
234.719	6.21
234.937	-15.09
235.156	-1.93
235.374	-10.8
235.593	12.78
235.811	29.25
236.03	40.04
236.249	39.15
236.467	41.6
236.686	23.32
236.904	13.58
237.123	-1.75
237.341	-5.12
237.559	-16.53
237.778	5.08
237.996	-18.92
238.215	-32.57
238.433	-64.09
238.652	-6.55
238.87	0.6
239.088	21.34
239.307	22.03
239.525	23.83
239.743	7.39
239.962	-8.09
240.18	0.01
240.398	2.56
240.617	-6.54
240.835	11.8
241.053	29.64
241.271	29.23
241.49	37.51
241.708	33.9
241.926	25.38
242.144	18.09
242.363	7.97
242.581	-77.5
242.799	-63.03
243.017	-37.89
243.235	-27.57
243.453	-32.06
243.672	9.37
243.89	12.44
244.108	29.72
244.326	38.07
244.544	42.23
244.762	24.56
244.98	22.81
245.198	18.43
245.416	13.02
245.634	5.2
245.852	6.87
246.07	21.6
246.288	24.19
246.506	18.13
246.724	13.72
246.942	16.02
247.16	-2.21
247.378	-27.81
247.596	-12.47
247.814	-10.64
248.032	-9.77
248.25	19.97
248.468	27.25
248.685	26.1
248.903	17.8
249.121	16.78
249.339	5.3
249.557	3.18
249.775	0.66
249.992	5.1
250.21	3.01
250.428	22.63
250.646	17.03
250.863	13.64
251.081	23.28
251.299	25.77
251.517	14.93
251.734	8.74
251.952	11.4
252.17	-1.74
252.387	-17.67
252.605	-28.41
252.823	-37.73
253.04	-35.46
253.258	-7.3
253.475	17.52
253.693	40.09
253.911	17.03
254.128	1.09
254.346	-0.52
254.563	10.58
254.781	-8.86
254.998	0.42
255.216	-18.2
255.433	-60.02
255.651	-67.13
255.868	-51.06
256.086	-25.79
256.303	-13.44
256.521	13.79
256.738	12.01
256.956	1.82
257.173	-17.05
257.39	-0.94
257.608	-7.64
257.825	-9.49
258.043	1.95
258.26	7.42
258.477	11.71
258.695	13.5
258.912	-2.16
259.129	-14.8
259.346	-13.53
259.564	-46.12
259.781	-48.53
259.998	-4.6
260.216	4.98
260.433	3.88
260.65	4.7
260.867	-6.4
261.084	-18.01
261.302	-33.85
261.519	-11.41
261.736	1.04
261.953	14.35
262.17	29.06
262.387	36.87
262.604	21.06
262.822	25.86
263.039	31.93
263.256	28.08
263.473	24.76
263.69	22.35
263.907	19.01
264.124	5.8
264.341	-0.47
264.558	-5.61
264.775	7.54
264.992	8.45
265.209	-9.73
265.426	-15.13
265.643	-16.6
265.86	-33.41
266.077	-25.38
266.294	-11.58
266.51	8.35
266.727	7.99
266.944	18.6
267.161	16.85
267.378	20.55
267.595	10.84
267.812	3.52
268.028	-19.35
268.245	-16.3
268.462	-16.09
268.679	-11.86
268.896	14.3
269.112	9.67
269.329	-11.92
269.546	5.38
269.763	2.02
269.979	-20.75
270.196	-2.39
270.413	-7
270.629	-19.23
270.846	-12.02
271.063	-13.97
271.279	-32.26
271.496	-24.31
271.712	-8.62
271.929	-0.31
272.146	12.34
272.362	17.88
272.579	18.46
272.795	27.86
273.012	32.32
273.228	32.87
273.445	22.65
273.661	20.41
273.878	-3.5
274.094	-36.17
274.311	-36.79
274.527	-38.62
274.744	-8.73
274.96	6.82
275.177	42.94
275.393	54.84
275.609	64.35
275.826	58.74
276.042	53.56
276.259	41.26
276.475	30.44
276.691	6.01
276.908	4.25
277.124	6.3
277.34	-6.7
277.557	-15.43
277.773	2.96
277.989	1.34
278.205	1.34
278.422	-2.15
278.638	-1.03
278.854	-7.58
279.07	7.18
279.286	8.08
279.503	19.55
279.719	37.68
279.935	36.74
280.151	24.24
280.367	36.92
280.583	35.51
280.799	15.77
281.016	-0.38
281.232	15.18
281.448	-7.34
281.664	-0.82
281.88	16.43
282.096	25.39
282.312	14.52
282.528	23.42
282.744	24.49
282.96	-2.11
283.176	-31.59
283.392	-55.25
283.608	-67.35
283.824	-96.91
284.04	-136.18
284.256	-54.49
284.471	-31.91
284.687	-22.39
284.903	-24
285.119	15.09
285.335	15.16
285.551	23.27
285.767	15.1
285.982	35.91
286.198	-19.13
286.414	-17.34
286.63	-25.64
286.846	24.77
287.061	38.63
287.277	57.8
287.493	57.54
287.709	41.72
287.924	28.02
288.14	25.81
288.356	25.96
288.571	19.4
288.787	21
289.003	31.1
289.218	12.39
289.434	10.29
289.65	16.81
289.865	23.52
290.081	9.2
290.296	23.88
290.512	16.46
290.727	-1.45
290.943	-5.33
291.159	-14.09
291.374	-59.11
291.59	-43.08
291.805	-49.16
292.021	-49.38
292.236	-54.42
292.451	-13.96
292.667	-23.75
292.882	0.8
293.098	3.03
293.313	14.61
293.529	12.75
293.744	6.13
293.959	-14.5
294.175	-26.92
294.39	-39.55
294.605	-21.44
294.821	-11.99
295.036	1.97
295.251	16.56
295.467	21
295.682	21.25
295.897	6.51
296.112	0.18
296.328	-1.11
296.543	-11.95
296.758	-8.45
296.973	12.14
297.188	11.89
297.404	11.13
297.619	21.56
297.834	-18.45
298.049	-29.32
298.264	-19.55
298.479	-19.44
298.694	23.63
298.909	29.08
299.125	22.7
299.34	26.17
299.555	31.89
299.77	22.12
299.985	23.41
300.2	29.18
300.415	32.16
300.63	26.86
300.845	20.61
301.06	18.17
301.275	20.51
301.49	23.14
301.704	28.98
301.919	16.49
302.134	18.5
302.349	14.76
302.564	13.68
302.779	10.8
302.994	41.07
303.209	36.44
303.423	41.26
303.638	25.39
303.853	15.66
304.068	-19.3
304.283	1.47
304.497	-24.41
304.712	-1.84
304.927	-3.88
305.142	13.23
305.356	13.48
305.571	23.4
305.786	25.16
306	51.73
306.215	33.6
306.43	21.32
306.644	24.87
306.859	11.95
307.074	13.76
307.288	13.77
307.503	20.63
307.717	-1.36
307.932	5.94
308.147	-6.04
308.361	-12.05
308.576	-36.71
308.79	-22.35
309.005	-22.07
309.219	-13.28
309.434	-1.31
309.648	-1.49
309.863	7.49
310.077	4.94
310.292	12.75
310.506	-5.35
310.72	9.09
310.935	15.99
311.149	20.65
311.364	18.99
311.578	37.96
311.792	30.89
312.007	22.24
312.221	-6.39
312.435	-1.91
312.649	3.77
312.864	16.84
313.078	20.01
313.292	31.29
313.507	42.07
313.721	29.99
313.935	22.28
314.149	15.57
314.363	20.5
314.578	7.97
314.792	-23.01
315.006	-19.36
315.22	-1.54
315.434	-4.7
315.648	-2.5
315.862	4.76
316.077	1.66
316.291	-1.92
316.505	-19.45
316.719	-20.23
316.933	6.53
317.147	18.96
317.361	24.34
317.575	40.55
317.789	38.58
318.003	21.23
318.217	16.06
318.431	14.33
318.645	5.61
318.859	11.46
319.073	19.47
319.287	16.67
319.5	16.51
319.714	16.14
319.928	10.25
320.142	14.18
320.356	29.62
320.57	6.4
320.784	-1.82
320.997	-19.18
321.211	1.24
321.425	-42.03
321.639	-0.67
321.853	17.28
322.066	21.41
322.28	-0.98
322.494	12.14
322.707	11.09
322.921	2.48
323.135	8.16
323.349	11.37
323.562	21.69
323.776	13.55
323.989	29.54
324.203	16.82
324.417	8.9
324.63	-1.62
324.844	-11.81
325.057	-66.71
325.271	-50.48
325.485	-50.74
325.698	-33.2
325.912	0.17
326.125	15.64
326.339	20.99
326.552	22.65
326.766	20.01
326.979	13.64
327.193	13.13
327.406	1.15
327.619	1.33
327.833	0.18
328.046	4.66
328.26	-1.25
328.473	7.63
328.686	13.98
328.9	25.04
329.113	3.63
329.326	11.54
329.54	16.42
329.753	23.3
329.966	14
330.179	16.12
330.393	15.69
330.606	9.53
330.819	-13.87
331.032	-24.45
331.246	-12.18
331.459	-3.33
331.672	-10.25
331.885	3.11
332.098	20.2
332.311	22.49
332.525	6.47
332.738	14.04
332.951	7.08
333.164	0.89
333.377	1.85
333.59	-4.45
333.803	-7.78
334.016	4.36
334.229	10.76
334.442	2.78
334.655	7.84
334.868	-3.1
335.081	-9.46
335.294	-12.05
335.507	-1.51
335.72	2.74
335.933	12.27
336.146	15.34
336.359	10.99
336.572	6.64
336.785	-7.89
336.997	-18.81
337.21	-20.28
337.423	-52.82
337.636	-38.42
337.849	-28.33
338.062	-9.62
338.274	6.88
338.487	7.41
338.7	-5.17
338.913	11.29
339.125	-1.32
339.338	-14.22
339.551	4.6
339.763	14.52
339.976	10.32
340.189	-2.02
340.402	-2.67
340.614	1.59
340.827	4.59
341.039	1.64
341.252	10.16
341.465	6.66
341.677	-5.27
341.89	-19.03
342.102	-13.89
342.315	-17.03
342.527	-3.94
342.74	-17.75
342.952	-4.44
343.165	0.56
343.377	9.96
343.59	-0.63
343.802	22.23
344.015	30.29
344.227	26.53
344.44	15.94
344.652	23.87
344.864	12.56
345.077	18.46
345.289	20.53
345.502	44.5
345.714	44.22
345.926	67.98
346.139	30.49
346.351	30.71
346.563	21.47
346.775	27.42
346.988	13.02
347.2	24.59
347.412	29.34
347.624	27.34
347.837	19.63
348.049	22.44
348.261	14.55
348.473	1.96
348.685	7.55
348.897	-12.66
349.11	-13.52
349.322	-2.79
349.534	6.82
349.746	9.31
349.958	14.23
350.17	22.95
350.382	24.66
350.594	15.29
350.806	13.37
351.018	14.55
351.23	11.92
351.442	20.18
351.654	25.03
351.866	16.02
352.078	26.42
352.29	32.19
352.502	15.72
352.714	15
352.926	16.62
353.138	33.04
353.35	15.07
353.561	25.72
353.773	12.93
353.985	18.01
354.197	-4.94
354.409	-2.72
354.621	-18.8
354.832	-8.64
355.044	-25.96
355.256	-17.05
355.468	-23.85
355.679	0.54
355.891	6.45
356.103	9.13
356.314	11.45
356.526	8.61
356.738	-5.9
356.949	-15.9
357.161	1.12
357.373	1.34
357.584	13.55
357.796	20.53
358.008	27.56
358.219	22.59
358.431	27.86
358.642	31.32
358.854	26.68
359.065	6.11
359.277	3.68
359.488	-3.51
359.7	-5.72
359.911	-23.8
360.123	-3.19
360.334	-3.67
360.546	-11.08
360.757	-10.75
360.969	6.8
361.18	5.26
361.391	9.67
361.603	2.15
361.814	8.45
362.025	13.22
362.237	17.71
362.448	15.81
362.659	13.43
362.871	-13.74
363.082	-27.83
363.293	-42.58
363.504	-52.76
363.716	-28.01
363.927	9.21
364.138	1.14
364.349	-22.63
364.56	-36.02
364.772	-29.21
364.983	-23.6
365.194	-6.26
365.405	14.23
365.616	25.98
365.827	13.67
366.038	7.63
366.25	10.76
366.461	11.85
366.672	16.23
366.883	14.55
367.094	8.47
367.305	-9.32
367.516	-9.21
367.727	-26.65
367.938	-22.55
368.149	-29.85
368.36	-24.17
368.571	-26.28
368.781	-25.53
368.992	-12.12
369.203	3.05
369.414	9.1
369.625	11.11
369.836	31.3
370.047	25.64
370.258	28.07
370.468	20.04
370.679	12.41
370.89	-11.06
371.101	5.89
371.312	5.28
371.522	1.68
371.733	-4.03
371.944	-7.37
372.155	-3.47
372.365	-2.37
372.576	-1.98
372.787	-1.84
372.997	4.29
373.208	-14.17
373.419	-12.14
373.629	-21.72
373.84	-24.69
374.05	-26.3
374.261	-28.53
374.472	-32.4
374.682	-8.77
374.893	-11.34
375.103	3.35
375.314	14.08
375.524	16.29
375.735	13.55
375.945	20.51
376.156	7.82
376.366	3.05
376.577	3.88
376.787	4.78
376.997	9.22
377.208	6.03
377.418	4.04
377.629	1.55
377.839	-0.9
378.049	-3.1
378.26	0.11
378.47	2.85
378.68	5.35
378.89	6.53
379.101	5.71
379.311	9.18
379.521	3.33
379.732	2.57
379.942	5.06
380.152	0.55
380.362	0.12
380.572	7.54
380.783	15.47
380.993	11.2
381.203	6.17
381.413	3.2
381.623	2.39
381.833	-3.52
382.043	-7.16
382.253	-0.19
382.463	8.42
382.674	13.22
382.884	17.54
383.094	24.13
383.304	28.16
383.514	25.39
383.724	20.97
383.934	12.7
384.144	8.21
384.353	10.32
384.563	4.94
384.773	10.42
384.983	6.37
385.193	3.11
385.403	-2.21
385.613	10.71
385.823	4.43
386.033	4.13
386.242	2.31
386.452	2.54
386.662	-8.61
386.872	-6.14
387.082	-3.37
387.291	-5.52
387.501	-5.67
387.711	-3.17
387.921	-4.55
388.13	0.81
388.34	8.6
388.55	8.52
388.759	1.26
388.969	0.43
389.179	-0.96
389.388	-4.96
389.598	-7.39
389.807	-3.74
390.017	-2.98
390.227	-5.99
390.436	-3.2
390.646	0.77
390.855	2.16
391.065	2.99
391.274	3.64
391.484	1.09
391.693	-2.7
391.903	-2.36
392.112	-3.23
392.322	-3.83
392.531	-2.97
392.74	-1.67
392.95	0.05
393.159	1.3
393.369	3.16
393.578	2.71
393.787	2.09
393.997	1.23
394.206	0.18
394.415	1.97
394.625	2.51
394.834	1.54
395.043	3.38
395.252	6.11
395.462	5.41
395.671	5.33
395.88	7.77
396.089	5.59
396.298	3.59
396.508	2.89
396.717	2.38
396.926	1.48
397.135	2.19
397.344	1.91
397.553	1.99
397.762	3.46
397.971	3.18
398.181	3.28
398.39	3.25
398.599	3.49
398.808	3.05
399.017	3.98
399.226	3.8
399.435	3.74
399.644	3.86
399.853	3.85
400.062	3.65
400.27	3.52
400.479	3.83
400.688	3.7
400.897	3.74
401.106	3.47
401.315	3.72
401.524	3.91
401.733	3.27
401.941	3.43
402.15	3.53
402.359	3.53
402.568	3.57
402.777	4.35
402.985	3.9
403.194	3.63
403.403	3.72
403.612	3.43
403.82	2.8
404.029	2.97
404.238	3.19
404.446	3.48
404.655	3.55
404.864	3.77
405.072	3.73
405.281	3.72
405.489	3.37
405.698	3.53
405.906	3.59
406.115	3.52
406.324	3.57
406.532	3.71
406.741	3.65
406.949	3.66
407.158	3.8
407.366	3.63
407.574	3.57
407.783	3.43
407.991	3.38
408.2	3.35
408.408	3.34
408.617	3.23
408.825	3.23
409.033	3.26
409.242	3.31
409.45	3.33
409.658	3.28
409.867	3.31
410.075	3.29
410.283	3.2
410.491	3.1
410.7	3.1
410.908	3.07
411.116	3.05
411.324	3.05
411.533	3.14
411.741	3.14
411.949	3.25
412.157	3.17
412.365	3.17
412.573	3.24
412.781	3.16
412.99	3.12
413.198	3.18
413.406	3.19
413.614	3.25
413.822	3.33
414.03	3.27
414.238	3.4
414.446	3.39
414.654	3.19
414.862	3.18
415.07	3.21
415.278	3.15
415.486	3
415.694	3.1
415.902	3.1
416.109	2.95
416.317	2.94
416.525	2.98
416.733	2.92
416.941	2.87
417.149	2.86
417.357	2.8
417.564	2.84
417.772	2.95
417.98	3.14
418.188	3.02
418.395	2.89
418.603	2.72
418.811	2.54
419.019	2.33
419.226	2.57
419.434	2.77
419.642	2.74
419.849	2.7
420.057	2.76
420.265	2.78
420.472	2.7
420.68	2.99
420.887	3.02
421.095	3.08
421.302	3.08
421.51	3.01
421.717	2.89
421.925	2.98
422.132	2.75
422.34	2.54
422.547	2.55
422.755	2.59
422.962	2.67
423.17	2.62
423.377	2.82
423.585	2.8
423.792	2.78
423.999	2.56
424.207	2.63
424.414	2.53
424.621	2.59
424.829	2.67
425.036	2.87
425.243	2.91
425.451	3.01
425.658	2.95
425.865	2.89
426.072	2.76
426.28	2.82
426.487	2.76
426.694	2.64
426.901	2.66
427.108	2.51
427.315	2.49
427.523	2.4
427.73	2.55
427.937	2.43
428.144	2.55
428.351	2.57
428.558	2.71
428.765	2.62
428.972	2.76
429.179	2.69
429.386	2.64
429.593	2.55
429.8	2.68
430.007	2.78
430.214	2.9
430.421	3.05
430.628	3
430.835	2.92
431.042	2.75
431.249	2.86
431.456	2.62
431.662	2.82
431.869	3.12
432.076	3.17
432.283	3.28
432.49	3.35
432.697	3.24
432.903	2.97
433.11	3.05
433.317	2.98
433.524	3.23
433.73	3.22
433.937	3.35
434.144	3.23
434.35	3.09
434.557	3.01
434.764	3.07
434.97	2.95
435.177	3.13
435.384	3.21
435.59	3.11
435.797	3.15
436.003	3.32
436.21	3.2
436.416	3.23
436.623	3.35
436.829	3.36
437.036	3.27
437.242	3.35
437.449	3.38
437.655	3.42
437.862	3.45
438.068	3.37
438.275	3.45
438.481	3.51
438.687	3.4
438.894	3.54
439.1	3.61
439.307	3.64
439.513	3.65
439.719	3.79
439.926	3.68
440.132	3.74
440.338	3.69
440.544	3.68
440.751	3.52
440.957	3.63
441.163	3.59
441.369	3.61
441.575	3.58
441.782	3.77
441.988	3.78
442.194	3.79
442.4	3.75
442.606	3.91
442.812	3.86
443.018	3.8
443.224	3.92
443.431	3.94
443.637	3.85
443.843	3.88
444.049	3.94
444.255	3.89
444.461	3.85
444.667	3.83
444.873	3.84
445.079	3.79
445.284	3.83
445.49	3.84
445.696	3.85
445.902	3.87
446.108	3.84
446.314	3.81
446.52	3.94
446.726	3.92
446.931	3.83
447.137	3.94
447.343	4.03
447.549	4.08
447.755	4.02
447.96	4.15
448.166	4.04
448.372	3.94
448.578	3.86
448.783	4.01
448.989	4.03
449.195	4.14
449.4	4.29
449.606	4.27
449.812	4.15
450.017	4.08
450.223	3.98
450.428	3.97
450.634	3.95
450.84	3.98
451.045	4.03
451.251	4.18
451.456	4.17
451.662	4.24
451.867	4.27
452.073	4.31
452.278	4.25
452.483	4.24
452.689	4.25
452.894	4.25
453.1	4.26
453.305	4.26
453.51	4.34
453.716	4.28
453.921	4.37
454.127	4.34
454.332	4.35
454.537	4.29
454.742	4.35
454.948	4.34
455.153	4.34
455.358	4.37
455.563	4.51
455.769	4.48
455.974	4.51
456.179	4.46
456.384	4.37
456.589	4.25
456.795	4.23
457	4.19
457.205	4.18
457.41	4.23
457.615	4.26
457.82	4.4
458.025	4.42
458.23	4.55
458.435	4.59
458.64	4.53
458.845	4.44
459.05	4.5
459.255	4.44
459.46	4.47
459.665	4.53
459.87	4.44
460.075	4.49
460.28	4.51
460.485	4.57
460.69	4.59
460.895	4.75
461.099	4.55
461.304	4.57
461.509	4.48
461.714	4.47
461.919	4.41
462.123	4.57
462.328	4.51
462.533	4.48
462.738	4.45
462.942	4.41
463.147	4.34
463.352	4.48
463.556	4.57
463.761	4.6
463.966	4.62
464.17	4.78
464.375	4.8
464.58	4.76
464.784	4.81
464.989	4.86
465.193	4.81
465.398	4.72
465.602	4.96
465.807	4.97
466.011	4.99
466.216	4.97
466.42	5.07
466.625	5.04
466.829	5.06
467.034	5.15
467.238	5.26
467.443	5.22
467.647	5.13
467.851	5.16
468.056	5.21
468.26	5.19
468.464	5.23
468.669	5.29
468.873	5.25
469.077	5.17
469.282	5.21
469.486	5.17
469.69	5.23
469.894	5.28
470.099	5.36
470.303	5.32
470.507	5.35
470.711	5.25
470.915	5.32
471.119	5.44
471.324	5.52
471.528	5.62
471.732	5.73
471.936	5.81
472.14	5.74
472.344	5.81
472.548	5.88
472.752	5.82
472.956	5.78
473.16	5.78
473.364	5.73
473.568	5.58
473.772	5.66
473.976	5.78
474.18	5.84
474.384	5.86
474.588	6
474.792	5.96
474.995	5.87
475.199	5.85
475.403	5.86
475.607	5.92
475.811	6.03
476.015	6.01
476.218	6.03
476.422	6.12
476.626	6.07
476.83	6.1
477.033	6.17
477.237	6.22
477.441	6.13
477.644	6.14
477.848	6.12
478.052	6.1
478.255	6.21
478.459	6.27
478.663	6.47
478.866	6.46
479.07	6.48
479.273	6.47
479.477	6.5
479.681	6.41
479.884	6.46
480.088	6.53
480.291	6.53
480.495	6.58
480.698	6.58
480.901	6.56
481.105	6.57
481.308	6.62
481.512	6.58
481.715	6.64
481.919	6.77
482.122	6.77
482.325	6.76
482.529	6.81
482.732	6.73
482.935	6.65
483.138	6.61
483.342	6.65
483.545	6.77
483.748	6.91
483.952	6.99
484.155	7.08
484.358	7.07
484.561	6.91
484.764	6.87
484.967	6.82
485.171	6.87
485.374	6.81
485.577	6.86
485.78	6.86
485.983	6.92
486.186	6.81
486.389	6.87
486.592	6.91
486.795	6.97
486.998	6.93
487.201	7.02
487.404	7.11
487.607	7.17
487.81	7.11
488.013	7.18
488.216	7.19
488.419	7.12
488.622	6.98
488.825	7.1
489.028	7.09
489.231	7.02
489.433	7
489.636	7.07
489.839	7.06
490.042	7.1
490.245	7.16
490.447	7.17
490.65	7.22
490.853	7.18
491.056	7.1
491.258	7.1
491.461	7.1
491.664	7.13
491.866	7.1
492.069	7.19
492.272	7.18
492.474	7.23
492.677	7.18
492.879	7.23
493.082	7.25
493.285	7.27
493.487	7.23
493.69	7.2
493.892	7.2
494.095	7.16
494.297	7.19
494.5	7.22
494.702	7.27
494.905	7.25
495.107	7.26
495.309	7.26
495.512	7.33
495.714	7.36
495.917	7.46
496.119	7.52
496.321	7.54
496.524	7.51
496.726	7.49
496.928	7.44
497.13	7.41
497.333	7.42
497.535	7.55
497.737	7.6
497.939	7.64
498.142	7.65
498.344	7.66
498.546	7.61
498.748	7.69
498.95	7.72
499.152	7.74
499.355	7.76
499.557	7.8
499.759	7.78
499.961	7.78
500.163	7.82
500.365	7.87
500.567	7.85
500.769	7.86
500.971	7.92
501.173	7.89
501.375	7.94
501.577	7.88
501.779	7.87
501.981	7.84
502.183	7.87
502.385	7.85
502.587	7.93
502.788	7.99
502.99	7.99
503.192	8.04
503.394	8.05
503.596	8.05
503.798	8.03
503.999	8.06
504.201	8.04
504.403	8.09
504.605	8.13
504.806	8.18
505.008	8.27
505.21	8.33
505.411	8.32
505.613	8.39
505.815	8.38
506.016	8.46
506.218	8.54
506.42	8.52
506.621	8.58
506.823	8.61
507.024	8.62
507.226	8.63
507.427	8.73
507.629	8.72
507.83	8.8
508.032	8.76
508.233	8.82
508.435	8.77
508.636	8.81
508.838	8.8
509.039	8.83
509.24	8.81
509.442	8.87
509.643	8.86
509.845	8.83
510.046	8.93
510.247	8.91
510.448	8.93
510.65	9
510.851	9.08
511.052	9.02
511.254	9.15
511.455	9.18
511.656	9.15
511.857	9.21
512.058	9.28
512.26	9.23
512.461	9.27
512.662	9.36
512.863	9.33
513.064	9.35
513.265	9.37
513.466	9.46
513.667	9.51
513.868	9.48
514.069	9.47
514.27	9.52
514.471	9.46
514.672	9.41
514.873	9.41
515.074	9.44
515.275	9.41
515.476	9.46
515.677	9.47
515.878	9.59
516.079	9.63
516.28	9.71
516.481	9.7
516.682	9.79
516.882	9.76
517.083	9.75
517.284	9.77
517.485	9.77
517.686	9.75
517.886	9.78
518.087	9.75
518.288	9.77
518.488	9.76
518.689	9.7
518.89	9.74
519.091	9.87
519.291	9.79
519.492	9.86
519.692	10.01
519.893	10.05
520.094	9.95
520.294	9.97
520.495	9.92
520.695	9.89
520.896	9.86
521.096	9.95
521.297	10.05
521.497	10.13
521.698	10.16
521.898	10.2
522.099	10.19
522.299	10.16
522.499	10.13
522.7	10.13
522.9	10.12
523.101	10.14
523.301	10.19
523.501	10.21
523.702	10.25
523.902	10.32
524.102	10.39
524.302	10.39
524.503	10.56
524.703	10.51
524.903	10.49
525.103	10.44
525.304	10.44
525.504	10.41
525.704	10.46
525.904	10.41
526.104	10.44
526.304	10.47
526.504	10.44
526.705	10.43
526.905	10.53
527.105	10.57
527.305	10.55
527.505	10.52
527.705	10.54
527.905	10.59
528.105	10.58
528.305	10.62
528.505	10.67
528.705	10.71
528.905	10.72
529.105	10.71
529.304	10.73
529.504	10.74
529.704	10.74
529.904	10.72
530.104	10.81
530.304	10.8
530.503	10.82
530.703	10.81
530.903	10.86
531.103	10.86
531.303	10.86
531.502	10.97
531.702	11
531.902	11.04
532.101	11.04
532.301	11.12
532.501	11.09
532.7	11.16
532.9	11.16
533.1	11.18
533.299	11.15
533.499	11.13
533.698	11.08
533.898	11.12
534.097	11.18
534.297	11.18
534.496	11.16
534.696	11.22
534.895	11.24
535.095	11.24
535.294	11.3
535.494	11.4
535.693	11.47
535.892	11.41
536.092	11.42
536.291	11.46
536.491	11.48
536.69	11.49
536.889	11.54
537.088	11.53
537.288	11.53
537.487	11.52
537.686	11.44
537.886	11.48
538.085	11.53
538.284	11.63
538.483	11.6
538.682	11.7
538.882	11.74
539.081	11.78
539.28	11.75
539.479	11.87
539.678	11.88
539.877	11.92
540.076	11.99
540.275	12.06
540.474	12.04
540.673	12.11
540.872	12.15
541.071	12.12
541.27	12.14
541.469	12.18
541.668	12.22
541.867	12.23
542.066	12.3
542.265	12.41
542.464	12.46
542.663	12.49
542.862	12.61
543.06	12.69
543.259	12.66
543.458	12.68
543.657	12.71
543.856	12.69
544.054	12.69
544.253	12.75
544.452	12.82
544.651	12.9
544.849	12.96
545.048	13.02
545.247	13.1
545.445	13.15
545.644	13.18
545.843	13.19
546.041	13.21
546.24	13.21
546.438	13.28
546.637	13.27
546.836	13.34
547.034	13.39
547.233	13.5
547.431	13.51
547.63	13.62
547.828	13.65
548.027	13.7
548.225	13.66
548.423	13.75
548.622	13.79
548.82	13.89
549.019	13.98
549.217	14.1
549.415	14.12
549.614	14.27
549.812	14.31
550.01	14.29
550.209	14.39
550.407	14.48
550.605	14.38
550.803	14.51
551.002	14.68
551.2	14.66
551.398	14.76
551.596	14.97
551.794	14.98
551.993	15.05
552.191	15.2
552.389	15.24
552.587	15.32
552.785	15.39
552.983	15.45
553.181	15.5
553.379	15.51
553.577	15.57
553.775	15.67
553.973	15.78
554.171	15.9
554.369	16.04
554.567	16.15
554.765	16.22
554.963	16.26
555.161	16.27
555.359	16.32
555.557	16.3
555.755	16.43
555.952	16.55
556.15	16.72
556.348	16.79
556.546	16.96
556.744	16.94
556.941	16.99
557.139	17
557.337	17.16
557.535	17.23
557.732	17.36
557.93	17.51
558.128	17.64
558.325	17.7
558.523	17.85
558.721	17.92
558.918	18.04
559.116	18.12
559.313	18.19
559.511	18.26
559.708	18.39
559.906	18.44
560.104	18.5
560.301	18.62
560.498	18.7
560.696	18.9
560.893	18.99
561.091	19.16
561.288	19.31
561.486	19.37
561.683	19.41
561.88	19.58
562.078	19.56
562.275	19.67
562.473	19.81
562.67	19.88
562.867	19.91
563.064	20.1
563.262	20.18
563.459	20.34
563.656	20.55
563.853	20.59
564.051	20.77
564.248	20.92
564.445	21.02
564.642	21.05
564.839	21.34
565.036	21.48
565.234	21.54
565.431	21.64
565.628	21.75
565.825	21.76
566.022	21.79
566.219	21.87
566.416	21.93
566.613	22.11
566.81	22.23
567.007	22.32
567.204	22.44
567.401	22.57
567.598	22.65
567.795	22.69
567.991	22.78
568.188	22.89
568.385	22.91
568.582	22.99
568.779	23.15
568.976	23.2
569.172	23.26
569.369	23.32
569.566	23.3
569.763	23.18
569.96	23.27
570.156	23.32
570.353	23.36
570.55	23.51
570.746	23.74
570.943	23.85
571.14	23.91
571.336	23.99
571.533	24.05
571.729	24.1
571.926	24.08
572.123	24.21
572.319	24.21
572.516	24.26
572.712	24.2
572.909	24.21
573.105	24.25
573.302	24.4
573.498	24.43
573.695	24.51
573.891	24.54
574.087	24.42
574.284	24.41
574.48	24.39
574.677	24.42
574.873	24.46
575.069	24.66
575.266	24.68
575.462	24.81
575.658	24.9
575.854	24.99
576.051	25.03
576.247	25
576.443	24.93
576.639	24.98
576.835	24.94
577.032	24.83
577.228	24.86
577.424	24.85
577.62	24.77
577.816	24.82
578.012	24.84
578.208	24.88
578.404	24.96
578.6	25.05
578.796	25.09
578.993	25.17
579.189	25.25
579.384	25.18
579.58	25.13
579.776	25.11
579.972	25.07
580.168	25.02
580.364	25.11
580.56	25.07
580.756	25.01
580.952	25.02
581.148	25.01
581.343	24.96
581.539	25.01
581.735	25
581.931	25
582.127	24.98
582.322	24.96
582.518	24.92
582.714	25.08
582.909	25.03
583.105	25.02
583.301	25.11
583.496	25.15
583.692	24.99
583.888	25.04
584.083	25.1
584.279	25.04
584.474	24.99
584.67	25.04
584.866	25.03
585.061	25.05
585.257	25.01
585.452	25.06
585.648	25.01
585.843	25.01
586.039	24.96
586.234	25.03
586.429	25.01
586.625	25.09
586.82	25.21
587.015	25.21
587.211	25.17
587.406	25.31
587.601	25.3
587.797	25.27
587.992	25.24
588.187	25.13
588.383	25.08
588.578	25.18
588.773	25.22
588.968	25.38
589.163	25.52
589.359	25.6
589.554	25.51
589.749	25.5
589.944	25.52
590.139	25.53
590.334	25.55
590.529	25.63
590.724	25.69
590.919	25.69
591.114	25.86
591.309	25.85
591.504	25.9
591.699	25.88
591.894	25.91
592.089	25.84
592.284	25.96
592.479	25.92
592.674	26.04
592.869	26.12
593.064	26.25
593.259	26.2
593.454	26.26
593.648	26.32
593.843	26.44
594.038	26.49
594.233	26.54
594.428	26.7
594.622	26.72
594.817	26.73
595.012	26.82
595.206	27.01
595.401	27.03
595.596	27.21
595.79	27.22
595.985	27.15
596.18	27.16
596.374	27.31
596.569	27.22
596.763	27.28
596.958	27.41
597.153	27.5
597.347	27.43
597.542	27.59
597.736	27.67
597.931	27.71
598.125	27.83
598.319	27.96
598.514	27.98
598.708	28.12
598.903	28.24
599.097	28.27
599.291	28.33
599.486	28.48
599.68	28.44
599.874	28.5
600.069	28.53
600.263	28.67
600.457	28.71
600.651	28.82
600.846	28.9
601.04	28.92
601.234	28.89
601.428	28.94
601.622	29
601.817	29.08
602.011	29.13
602.205	29.19
602.399	29.06
602.593	29.1
602.787	28.94
602.981	28.89
603.175	28.88
603.369	28.97
603.563	29
603.757	29.18
603.951	29.28
604.145	29.29
604.339	29.32
604.533	29.22
604.727	29.15
604.921	29.03
605.115	28.99
605.309	28.88
605.502	29
605.696	29.02
605.89	29.15
606.084	29.22
606.278	29.22
606.471	29.11
606.665	29.02
606.859	28.95
607.053	28.83
607.246	28.8
607.44	28.68
607.634	28.63
607.827	28.55
608.021	28.49
608.214	28.51
608.408	28.48
608.602	28.41
608.795	28.42
608.989	28.42
609.182	28.3
609.376	28.29
609.569	28.36
609.763	28.29
609.956	28.17
610.15	28.15
610.343	28.07
610.537	27.91
610.73	27.72
610.923	27.75
611.117	27.69
611.31	27.59
611.504	27.5
611.697	27.57
611.89	27.42
612.083	27.24
612.277	27.26
612.47	27.15
612.663	27.11
612.856	27.09
613.05	27.1
613.243	26.93
613.436	26.93
613.629	26.75
613.822	26.63
614.015	26.51
614.209	26.49
614.402	26.43
614.595	26.43
614.788	26.45
614.981	26.43
615.174	26.34
615.367	26.18
615.56	26.01
615.753	25.97
615.946	25.95
616.139	25.9
616.332	25.98
616.525	26.02
616.718	25.92
616.911	25.83
617.103	25.88
617.296	25.71
617.489	25.57
617.682	25.55
617.875	25.5
618.067	25.36
618.26	25.38
618.453	25.47
618.646	25.41
618.838	25.35
619.031	25.34
619.224	25.25
619.417	25.26
619.609	25.24
619.802	25.22
619.994	25.22
620.187	25.17
620.38	25.02
620.572	24.95
620.765	25.05
620.957	24.99
621.15	25.09
621.342	25.15
621.535	25.19
621.727	25.06
621.92	25
622.112	24.93
622.305	24.88
622.497	24.8
622.69	24.79
622.882	24.83
623.074	24.86
623.267	24.85
623.459	24.73
623.651	24.66
623.844	24.62
624.036	24.62
624.228	24.57
624.42	24.57
624.613	24.58
624.805	24.59
624.997	24.42
625.189	24.46
625.381	24.46
625.574	24.41
625.766	24.35
625.958	24.4
626.15	24.34
626.342	24.35
626.534	24.34
626.726	24.35
626.918	24.35
627.11	24.28
627.302	24.26
627.494	24.23
627.686	24.07
627.878	24
628.07	23.99
628.262	24.01
628.454	23.91
628.646	24
628.838	24
629.029	23.93
629.221	23.84
629.413	23.83
629.605	23.67
629.797	23.63
629.989	23.65
630.18	23.74
630.372	23.66
630.564	23.63
630.755	23.62
630.947	23.56
631.139	23.39
631.33	23.44
631.522	23.48
631.714	23.38
631.905	23.33
632.097	23.24
632.289	23.17
632.48	23.16
632.672	23.14
632.863	23.05
633.055	23.07
633.246	23.09
633.438	23.1
633.629	23.15
633.821	23.23
634.012	23.18
634.203	23.15
634.395	23.05
634.586	23
634.777	22.98
634.969	22.97
635.16	22.97
635.351	22.98
635.543	22.87
635.734	22.8
635.925	22.88
636.117	22.88
636.308	22.88
636.499	22.92
636.69	22.96
636.881	22.88
637.073	22.92
637.264	22.93
637.455	22.87
637.646	22.83
637.837	22.81
638.028	22.62
638.219	22.64
638.41	22.74
638.601	22.77
638.792	22.72
638.983	22.81
639.174	22.69
639.365	22.56
639.556	22.51
639.747	22.55
639.938	22.6
640.129	22.6
640.32	22.64
640.511	22.53
640.701	22.49
640.892	22.42
641.083	22.42
641.274	22.36
641.465	22.38
641.655	22.34
641.846	22.3
642.037	22.19
642.228	22.19
642.418	22.17
642.609	22.26
642.8	22.17
642.99	22.21
643.181	22.18
643.372	22.1
643.562	21.98
643.753	22.01
643.943	21.87
644.134	21.75
644.324	21.85
644.515	21.81
644.705	21.83
644.896	21.93
645.086	22.01
645.277	21.9
645.467	21.9
645.658	21.78
645.848	21.69
646.038	21.69
646.229	21.64
646.419	21.51
646.61	21.53
646.8	21.53
646.99	21.47
647.18	21.45
647.371	21.51
647.561	21.48
647.751	21.5
647.941	21.47
648.132	21.48
648.322	21.37
648.512	21.43
648.702	21.42
648.892	21.43
649.082	21.44
649.272	21.42
649.462	21.38
649.653	21.29
649.843	21.13
650.033	21.1
650.223	21.1
650.413	21
650.603	21.11
650.793	21.15
650.983	21.02
651.172	21.04
651.362	21.02
651.552	20.85
651.742	20.78
651.932	20.83
652.122	20.76
652.312	20.71
652.502	20.63
652.691	20.51
652.881	20.42
653.071	20.34
653.261	20.2
653.45	20.1
653.64	20.11
653.83	20.06
654.019	19.86
654.209	19.85
654.399	19.75
654.588	19.71
654.778	19.54
654.968	19.57
655.157	19.49
655.347	19.34
655.536	19.16
655.726	19.02
655.915	18.86
656.105	18.6
656.294	18.41
656.484	18.18
656.673	18
656.863	17.9
657.052	17.81
657.241	17.78
657.431	17.74
657.62	17.75
657.809	17.41
657.999	17.28
658.188	17.12
658.377	16.9
658.567	16.73
658.756	16.66
658.945	16.44
659.134	16.2
659.324	15.96
659.513	15.64
659.702	15.37
659.891	15.13
660.08	15.02
660.269	14.88
660.458	14.72
660.648	14.63
660.837	14.53
661.026	14.19
661.215	14.07
661.404	13.94
661.593	13.87
661.782	13.7
661.971	13.57
662.16	13.42
662.349	13.12
662.538	12.83
662.726	12.73
662.915	12.82
663.104	12.55
663.293	12.61
663.482	12.46
663.671	12.27
663.86	12.03
664.048	12.05
664.237	11.88
664.426	11.9
664.615	11.82
664.803	11.67
664.992	11.47
665.181	11.34
665.369	11.05
665.558	10.92
665.747	10.92
665.935	10.95
666.124	10.99
666.312	11.01
666.501	11.02
666.69	10.91
666.878	10.73
667.067	10.49
667.255	10.43
667.444	10.36
667.632	10.36
667.82	10.41
668.009	10.4
668.197	10.26
668.386	10.14
668.574	10.06
668.762	9.97
668.951	9.99
669.139	10.05
669.327	9.97
669.516	10.05
669.704	9.99
669.892	9.95
670.08	9.94
670.269	10.1
670.457	9.94
670.645	9.93
670.833	10.03
671.021	10.16
671.21	10.06
671.398	10.19
671.586	10.3
671.774	10.3
671.962	10.25
672.15	10.38
672.338	10.31
672.526	10.34
672.714	10.29
672.902	10.29
673.09	10.3
673.278	10.48
673.466	10.48
673.654	10.62
673.842	10.85
674.03	10.95
674.218	10.95
674.405	11.02
674.593	11.14
674.781	11.11
674.969	11.25
675.157	11.42
675.344	11.52
675.532	11.48
675.72	11.52
675.908	11.45
676.095	11.33
676.283	11.45
676.471	11.52
676.658	11.59
676.846	11.64
677.033	11.73
677.221	11.84
677.409	11.92
677.596	12.01
677.784	12.29
677.971	12.39
678.159	12.48
678.346	12.55
678.534	12.65
678.721	12.85
678.909	13.04
679.096	13.15
679.283	13.4
679.471	13.57
679.658	13.57
679.846	13.71
680.033	13.88
680.22	14.07
680.408	14.07
680.595	14.23
680.782	14.4
680.969	14.67
681.157	14.67
681.344	14.79
681.531	14.89
681.718	14.92
681.905	14.95
682.093	15.3
682.28	15.66
682.467	15.95
682.654	16.2
682.841	16.54
683.028	16.59
683.215	17.02
683.402	17.1
683.589	17.35
683.776	17.4
683.963	17.85
684.15	17.94
684.337	18.2
684.524	18.56
684.711	18.97
684.898	19.04
685.085	19.21
685.271	19.57
685.458	19.81
685.645	20.07
685.832	20.39
686.019	20.59
686.205	21.09
686.392	21.56
686.579	21.84
686.766	22.24
686.952	22.66
687.139	22.95
687.326	23.32
687.512	23.77
687.699	24.28
687.886	24.86
688.072	25.26
688.259	25.69
688.445	26.19
688.632	26.53
688.818	27.1
689.005	27.51
689.191	28.02
689.378	28.53
689.564	29.27
689.751	29.75
689.937	30.5
690.124	30.94
690.31	31.39
690.496	31.96
690.683	32.61
690.869	32.91
691.055	33.79
691.242	34.29
691.428	34.6
691.614	35.18
691.8	35.9
691.987	36.43
692.173	37.14
692.359	37.88
692.545	38.64
692.731	39.2
692.918	39.53
693.104	40.13
693.29	40.68
693.476	40.95
693.662	41.5
693.848	42.11
694.034	42.67
694.22	43.44
694.406	44.05
694.592	44.69
694.778	45.29
694.964	45.91
695.15	46.38
695.336	46.96
695.522	47.59
695.708	48.35
695.894	48.77
696.08	49.29
696.265	49.87
696.451	50.32
696.637	50.75
696.823	51.36
697.009	51.9
697.194	52.5
697.38	53.23
697.566	53.73
697.751	54.37
697.937	55.11
698.123	55.38
698.308	55.66
698.494	56.43
698.68	56.8
698.865	56.89
699.051	57.28
699.236	57.87
699.422	58.12
699.607	58.48
699.793	59.17
699.978	59.57
700.164	59.84
700.349	60.34
700.535	60.6
700.72	60.83
700.906	61.28
701.091	61.67
701.276	61.66
701.462	62.5
701.647	62.94
701.832	63.24
702.018	63.66
702.203	63.91
702.388	64.13
702.573	64.43
702.759	64.98
702.944	64.89
703.129	65.29
703.314	65.31
703.499	65.52
703.684	65.79
703.87	66.22
704.055	66.57
704.24	66.86
704.425	67.09
704.61	67.23
704.795	67.53
704.98	67.55
705.165	67.57
705.35	67.63
705.535	67.83
705.72	67.88
705.905	68.26
706.09	69
706.275	69.56
706.459	69.91
706.644	70.27
706.829	70.53
707.014	70.5
707.199	70.65
707.384	70.72
707.568	70.95
707.753	71.26
707.938	71.43
708.123	71.79
708.307	71.89
708.492	72.13
708.677	72.27
708.861	72.38
709.046	72
709.231	72.16
709.415	72.17
709.6	72.19
709.784	72.08
709.969	72.74
710.153	72.39
710.338	72.84
710.522	73.18
710.707	73.24
710.891	73.03
711.076	73.7
711.26	73.79
711.445	73.72
711.629	74.1
711.813	74.26
711.998	74.68
712.182	74.23
712.366	74.66
712.551	74.88
712.735	74.97
712.919	74.94
713.103	75.68
713.288	75.33
713.472	75.38
713.656	75.41
713.84	75.62
714.024	75.33
714.208	75.44
714.393	75.48
714.577	75.73
714.761	75.55
714.945	75.59
715.129	75.64
715.313	75.7
715.497	75.67
715.681	75.44
715.865	75.35
716.049	75.28
716.233	75.03
716.417	74.98
716.601	75.56
716.785	76.07
716.968	76.69
717.152	76.87
717.336	77.05
717.52	76.82
717.704	77.01
717.888	76.81
718.071	77.27
718.255	77.52
718.439	77.72
718.622	77.75
718.806	77.73
718.99	77.4
719.174	77.65
719.357	77.65
719.541	77.69
719.724	77.88
719.908	78
720.092	77.48
720.275	77.58
720.459	77.43
720.642	77.39
720.826	77.45
721.009	77.16
721.193	76.88
721.376	77.13
721.559	77.43
721.743	77.78
721.926	78.46
722.11	78.89
722.293	79.16
722.476	78.91
722.66	79.15
722.843	78.94
723.026	78.91
723.21	78.63
723.393	79.5
723.576	79.56
723.759	79.65
723.942	79.8
724.126	79.75
724.309	79.23
724.492	79.1
724.675	79.62
724.858	79.87
725.041	80.1
725.224	80.27
725.407	79.98
725.59	79.49
725.774	78.59
725.957	78.78
726.14	78.88
726.322	79.62
726.505	80.17
726.688	80.8
726.871	80.74
727.054	80.47
727.237	79.76
727.42	79.27
727.603	79.41
727.786	79.72
727.968	79.56
728.151	80.42
728.334	81.36
728.517	81.91
728.699	81.82
728.882	82.11
729.065	81.59
729.248	81.49
729.43	81.32
729.613	80.88
729.796	81.78
729.978	81.83
730.161	81.83
730.343	81.98
730.526	82.35
730.708	81.61
730.891	82.1
731.073	81.99
731.256	81.95
731.438	82.48
731.621	82.97
731.803	82.84
731.986	82.98
732.168	83.59
732.35	83.3
732.533	83.16
732.715	83.32
732.898	83.55
733.08	83.6
733.262	83.53
733.444	83.46
733.627	82.8
733.809	82.56
733.991	82.04
734.173	82.03
734.355	82.33
734.538	83.01
734.72	82.8
734.902	82.91
735.084	82.86
735.266	82.97
735.448	83.53
735.63	84.2
735.812	84.1
735.994	84.39
736.176	84.8
736.358	84.44
736.54	84.43
736.722	84.14
736.904	83.79
737.086	82.83
737.268	83.5
737.45	83.4
737.632	83.89
737.814	85.05
737.995	85.83
738.177	85.56
738.359	85.69
738.541	85.88
738.723	85.33
738.904	84.82
739.086	84.83
739.268	84.87
739.449	84.5
739.631	85
739.813	85.34
739.994	85.11
740.176	85.62
740.358	86.52
740.539	86.27
740.721	86.82
740.902	87.17
741.084	87.01
741.265	86.69
741.447	87.46
741.628	87.21
741.81	87.67
741.991	87.65
742.172	88.18
742.354	87.72
742.535	87.49
742.717	86.77
742.898	87.24
743.079	86.88
743.261	86.67
743.442	85.18
743.623	85.18
743.804	84.98
743.986	84.98
744.167	84.81
744.348	85.38
744.529	85.15
744.71	84.05
744.891	83.38
745.073	83.82
745.254	85.07
745.435	85.49
745.616	86.11
745.797	85.97
745.978	86.22
746.159	85.73
746.34	85.88
746.521	85.92
746.702	87.21
746.883	86.55
747.064	86.27
747.245	86.52
747.426	87.07
747.606	86.54
747.787	87.43
747.968	87.55
748.149	86.71
748.33	86.03
748.51	85.12
748.691	83.91
748.872	84.95
749.053	85.19
749.233	84.66
749.414	85.7
749.595	86.57
749.775	85
749.956	85.21
750.137	85.03
750.317	83.69
750.498	82.74
750.678	83.59
750.859	84.19
751.04	84.94
751.22	85.74
751.4	85.89
751.581	87.32
751.761	86.28
751.942	85.67
752.122	85.2
752.303	86.54
752.483	86.17
752.663	86.14
752.844	86.18
753.024	86.61
753.204	86.35
753.385	84.63
753.565	84.02
753.745	84.37
753.925	83.32
754.106	82.8
754.286	83.21
754.466	83.44
754.646	83.28
754.826	85.5
755.006	84.56
755.187	85.44
755.367	86.35
755.547	87.45
755.727	86
755.907	87.13
756.087	85.98
756.267	84.8
756.447	83.66
756.627	83.57
756.807	84
756.987	84.91
757.167	85.89
757.346	85.76
757.526	86.84
757.706	85.68
757.886	84.95
758.066	85.08
758.246	84.01
758.425	83.02
758.605	83.56
758.785	83.21
758.965	83.86
759.144	83.67
759.324	84.29
759.504	84.84
759.683	85.04
759.863	83.97
760.043	84.97
760.222	84.53
760.402	82.05
760.581	82.05
760.761	81.39
760.94	81.1
761.12	81.17
761.299	83.14
761.479	83.53
761.658	83.27
761.838	84.38
762.017	84.73
762.197	83.28
762.376	82.72
762.555	83.05
762.735	82.37
762.914	80.71
763.093	81.42
763.273	80.97
763.452	79.42
763.631	78.57
763.81	79.58
763.99	79.47
764.169	80.42
764.348	81.59
764.527	82.52
764.706	82.9
764.885	83.14
765.064	84.39
765.243	85.22
765.423	86.86
765.602	87.66
765.781	85.31
765.96	84.19
766.139	83.71
766.318	83.07
766.497	81.28
766.676	82.07
766.854	82.86
767.033	83.78
767.212	83.9
767.391	84.7
767.57	87.96
767.749	86.08
767.928	86.27
768.106	84.62
768.285	84.02
768.464	82.58
768.643	82.68
768.821	81.4
769	82.7
769.179	82.36
769.357	81.06
769.536	81.1
769.715	79.97
769.893	80.26
770.072	77.55
770.25	77.24
770.429	76.17
770.607	77.56
770.786	74.69
770.964	78.33
771.143	79.59
771.321	79.39
771.5	80.7
771.678	80.99
771.857	80
772.035	80.4
772.213	81.27
772.392	78.7
772.57	80.65
772.748	80.03
772.927	79.86
773.105	81.26
773.283	83.23
773.461	82.81
773.64	83.69
773.818	82.77
773.996	83.09
774.174	82.46
774.352	80.94
774.531	79.88
774.709	82.01
774.887	79.24
775.065	77.77
775.243	78.65
775.421	79.59
775.599	78.24
775.777	78.57
775.955	79.48
776.133	80.49
776.311	80.28
776.489	79.28
776.667	79.57
776.844	79.19
777.022	78.83
777.2	77.81
777.378	76.55
777.556	78.73
777.734	80.13
777.911	80.8
778.089	82.51
778.267	83.14
778.445	84.75
778.622	85.12
778.8	80.25
778.978	83.06
779.155	83.73
779.333	80.03
779.511	78.49
779.688	82.7
779.866	79.7
780.043	79.75
780.221	79.69
780.398	79.41
780.576	77.89
780.753	76.42
780.931	76.81
781.108	77.92
781.286	80.47
781.463	79.07
781.64	79.23
781.818	78.79
781.995	77.27
782.172	74.02
782.35	77.47
782.527	79.3
782.704	77.86
782.882	76.63
783.059	77.13
783.236	75.86
783.413	75.18
783.59	75.9
783.768	76.84
783.945	76.53
784.122	76.41
784.299	76.16
784.476	73.71
784.653	73.36
784.83	70.76
785.007	69.89
785.184	68.65
785.361	72.37
785.538	72.57
785.715	78.58
785.892	79.25
786.069	82.12
786.246	82.09
786.423	83.09
786.6	81.54
786.776	80.93
786.953	78.55
787.13	79.09
787.307	78.29
787.484	73.77
787.66	72.47
787.837	69.88
788.014	69.66
788.191	69.46
788.367	70.15
788.544	72.32
788.721	71.59
788.897	71.81
789.074	71.38
789.25	71.15
789.427	69.17
789.603	70.7
789.78	67.18
789.956	65.43
790.133	63.96
790.309	64.27
790.486	67.36
790.662	70.8
790.839	74.31
791.015	78.15
791.192	76.32
791.368	73.77
791.544	72.07
791.721	70.43
791.897	68.31
792.073	69.4
792.249	71.22
792.426	69.25
792.602	68.01
792.778	65.12
792.954	65.1
793.13	64.1
793.307	65.96
793.483	65
793.659	68.17
793.835	71.36
794.011	72.64
794.187	70.94
794.363	70.7
794.539	69.41
794.715	68.03
794.891	66.19
795.067	64.42
795.243	66.48
795.419	65.95
795.595	69.96
795.771	69.09
795.947	69
796.122	65.34
796.298	65.56
796.474	64.13
796.65	69.48
796.826	71.62
797.001	72.98
797.177	67.4
797.353	62.68
797.529	57.38
797.704	58.49
797.88	60.38
798.056	66.84
798.231	65.95
798.407	68.84
798.582	66.5
798.758	64.75
798.934	64.22
799.109	63.87
799.285	64.77
799.46	66.93
799.636	71.77
799.811	74.73
799.986	75.83
800.162	69.3
800.337	69.64
800.513	66.79
800.688	60.54
800.863	63.56
801.039	68.9
801.214	67.25
801.389	66.17
801.565	70.26
801.74	64.02
801.915	60.45
802.09	62.29
802.265	63.4
802.441	60.34
802.616	61.46
802.791	64.5
802.966	66.74
803.141	68.23
803.316	72.76
803.491	72.98
803.666	79.97
803.841	74.72
804.016	76.75
804.191	73.99
804.366	78.09
804.541	73.63
804.716	71.97
804.891	68.36
805.066	71.23
805.241	72.11
805.416	71.16
805.591	73.37
805.765	76.4
805.94	67.2
806.115	64.43
806.29	63.22
806.464	69.7
806.639	68.5
806.814	74.09
806.989	69.07
807.163	78.62
807.338	75.15
807.512	74.78
807.687	68.8
807.862	76.24
808.036	70.7
808.211	70.47
808.385	73.13
808.56	76.89
808.734	69.71
808.909	68.75
809.083	65.84
809.258	59.14
809.432	62.4
809.606	64.96
809.781	64.16
809.955	72.04
810.13	70.89
810.304	66.72
810.478	68.78
810.652	65.81
810.827	63.6
811.001	66.12
811.175	66.26
811.349	65.27
811.524	64.46
811.698	58
811.872	62.72
812.046	58.61
812.22	55.5
812.394	55.29
812.568	61.99
812.742	56.58
812.916	62.43
813.09	60.68
813.264	59.59
813.438	55.51
813.612	52.93
813.786	49.76
813.96	56.64
814.134	53.81
814.308	58.13
814.482	57.94
814.656	52.02
814.83	43.19
815.003	54.93
815.177	61.57
815.351	68.06
815.525	74.51
815.698	72.85
815.872	54.14
816.046	41.29
816.219	42.62
816.393	36.26
816.567	41.8
816.74	51.27
816.914	53.34
817.088	54.6
817.261	59.7
817.435	60.09
817.608	53.83
817.782	47.46
817.955	47.98
818.129	55.85
818.302	62
818.475	65.14
818.649	62.11
818.822	50
818.996	58.21
819.169	61.29
819.342	68.52
819.516	80
819.689	79.84
819.862	74.37
820.035	75.59
820.209	66.31
820.382	57.61
820.555	67.61
820.728	62.5
820.901	51.08
821.075	62.77
821.248	61.43
821.421	49.5
821.594	47.15
821.767	43.83
821.94	39.79
822.113	46.17
822.286	48.99
822.459	66.17
822.632	69.91
822.805	78.12
822.978	74.81
823.151	76.02
823.324	47.71
823.496	47.49
823.669	38.61
823.842	41.69
824.015	38.73
824.188	35.64
824.361	35.2
824.533	30.67
824.706	28.33
824.879	33.75
825.051	56.66
825.224	59.91
825.397	69.04
825.569	66.56
825.742	80.26
825.915	76.61
826.087	69.31
826.26	60.66
826.432	66.97
826.605	53.34
826.777	51.71
826.95	54.5
827.122	42.78
827.295	42.79
827.467	46.64
827.64	26.96
827.812	33.57
827.984	69.29
828.157	42.75
828.329	33.88
828.501	41.25
828.674	45.74
828.846	35.21
829.018	49.71
829.19	46.08
829.363	48.31
829.535	43.34
829.707	35.67
829.879	21.72
830.051	30.25
830.223	45.33
830.395	25.46
830.568	29.1
830.74	36.03
830.912	45.12
831.084	32.06
831.256	33.81
831.428	33.53
831.6	24.42
831.772	1.04
831.943	-11.68
832.115	9.22
832.287	20.68
832.459	33.79
832.631	43.41
832.803	62.42
832.975	65.47
833.146	62.35
833.318	62.13
833.49	67.72
833.662	65.99
833.833	40.41
834.005	56.53
834.177	66.16
834.348	62.27
834.52	58.39
834.692	65.37
834.863	54.04
835.035	46.38
835.206	35.5
835.378	42.03
835.549	42.71
835.721	43.98
835.892	43.49
836.064	59.51
836.235	65.67
836.407	63.1
836.578	64.11
836.749	58.64
836.921	43.99
837.092	26.23
837.264	30.06
837.435	35.52
837.606	51.61
837.777	59.02
837.949	63.67
838.12	58.44
838.291	58.37
838.462	59.19
838.633	48.71
838.805	38.92
838.976	41.54
839.147	40.51
839.318	35.31
839.489	40.4
839.66	56.4
839.831	52.11
840.002	48.71
840.173	46.41
840.344	43.07
840.515	26.61
840.686	29.5
840.857	34.27
841.028	32.43
841.199	31.7
841.369	35.83
841.54	23.16
841.711	33.69
841.882	29.7
842.053	24.96
842.223	5.26
842.394	20.34
842.565	5.19
842.736	14.48
842.906	20.38
843.077	34.99
843.248	26.8
843.418	28.33
843.589	22.19
843.759	32.91
843.93	35.52
844.101	41.66
844.271	59.9
844.442	60.45
844.612	59.44
844.783	50.73
844.953	45.81
845.123	33.82
845.294	40.09
845.464	13.62
845.635	12.48
845.805	13.74
845.975	47.49
846.146	33.02
846.316	50.62
846.486	69.7
846.656	63.46
846.827	58.29
846.997	65.64
847.167	55.5
847.337	44.56
847.507	47.82
847.677	36.87
847.848	45.82
848.018	59.84
848.188	64.58
848.358	52.6
848.528	70.47
848.698	48.49
848.868	32.73
849.038	16.22
849.208	29.42
849.378	26.05
849.548	14.42
849.718	5.51
849.887	-17.6
850.057	-49.2
850.227	-31.15
850.397	-4.7
850.567	-14.99
850.737	30.97
850.906	35.87
851.076	-5.36
851.246	5.62
851.415	38.69
851.585	32.09
851.755	48.02
851.924	70.64
852.094	54.82
852.264	15.44
852.433	-3.53
852.603	-8.22
852.772	4.39
852.942	39.5
853.111	47.37
853.281	60.53
853.45	39.65
853.62	26.57
853.789	-17.01
853.959	16.2
854.128	9.97
854.297	25.65
854.467	26.5
854.636	37.76
854.805	17.56
854.975	5.2
855.144	23.84
855.313	21.75
855.482	22.18
855.652	23.51
855.821	28.59
855.99	3.38
856.159	2.14
856.328	28.02
856.497	28.49
856.667	33.51
856.836	60.65
857.005	71.72
857.174	52.13
857.343	39.96
857.512	41.37
857.681	-14.39
857.85	-17.47
858.019	-75.97
858.188	-89.4
858.356	-45.2
858.525	-11.09
858.694	-22.97
858.863	-6.12
859.032	4.38
859.201	-58.06
859.369	-52.89
859.538	-11.6
859.707	-14.47
859.876	15.81
860.044	48.38
860.213	45.56
860.382	48.62
860.55	42.99
860.719	27.44
860.888	-7.1
861.056	-36.23
861.225	-57.24
861.393	-25.78
861.562	-9.66
861.73	14.62
861.899	18.46
862.067	25.34
862.236	22.18
862.404	11.2
862.572	-7.29
862.741	-17.93
862.909	-11.64
863.078	11.83
863.246	10.22
863.414	50.94
863.582	61.27
863.751	70.73
863.919	38.7
864.087	56.98
864.255	18
864.424	-39.41
864.592	2.2
864.76	-1.44
864.928	16.32
865.096	15.83
865.264	15.43
865.432	34.05
865.6	70.53
865.768	6.08
865.936	9.5
866.104	42.34
866.272	-78.92
866.44	-83.26
866.608	-34.7
866.776	-15.94
866.944	27.51
867.112	53.84
867.28	33.13
867.448	53.66
867.615	36.56
867.783	23.52
867.951	21.46
868.119	37.61
868.286	15.46
868.454	47.38
868.622	5.34
868.789	2.04
868.957	14.33
869.125	13.64
869.292	-47.41
869.46	-6.89
869.627	-5.02
869.795	-17.68
869.963	19
870.13	35.16
870.298	37.88
870.465	29.05
870.632	44.63
870.8	42.17
870.967	60.56
871.135	68.49
871.302	54.86
871.469	81.93
871.637	79.65
871.804	64.35
871.971	61.93
872.139	59.68
872.306	28.09
872.473	13.48
872.64	-36.63
872.807	-8.02
872.975	-20.75
873.142	-14.09
873.309	-10.25
873.476	38.96
873.643	45.63
873.81	18.2
873.977	-11.27
874.144	25.59
874.311	-39.34
874.478	-99.91
874.645	-122.31
874.812	5.25
874.979	-0.96
875.146	11.09
875.313	48.67
875.48	99.63
875.647	70.09
875.813	5.66
875.98	-0.38
876.147	-74.53
876.314	-55.97
876.481	-49.59
876.647	36.31
876.814	39.42
876.981	57.66
877.147	68.54
877.314	60.32
877.481	51.56
877.647	57.38
877.814	54.15
877.98	50.34
878.147	53.34
878.314	71.48
878.48	54.06
878.647	74.79
878.813	67.63
878.979	66.92
879.146	76.3
879.312	83.13
879.479	65.03
879.645	62.33
879.811	42.78
879.978	8.42
880.144	6.14
880.31	-15.33
880.477	-14.47
880.643	-8.89
880.809	-45.49
880.975	-26.64
881.142	-79.04
881.308	318.03
881.474	367.24
881.64	-26.9
881.806	-127.35
881.972	-23.92
882.138	-12.47
882.304	-28.58
882.47	-53.96
882.636	-23.3
882.802	-19.27
882.968	-31.86
883.134	1.1
883.3	-20.56
883.466	18.17
883.632	34.21
883.798	-20.63
883.964	-116.65
884.129	-502.62
884.295	-103.33
884.461	-219.1
884.627	-82.78
884.793	-89.19
884.958	-24.82
885.124	-40.24
885.29	-59.51
885.455	-64.24
885.621	0.05
885.787	4.71
885.952	-46.79
886.118	17.65
886.283	13.89
886.449	-5.75
886.614	-19.2
886.78	9.75
886.945	-40.04
887.111	-54.39
887.276	-58.38
887.442	-132.79
887.607	-108.89
887.773	-54.17
887.938	-42.03
888.103	-35.26
888.269	6.3
888.434	21.77
888.599	8.18
888.764	42.72
888.93	61.64
889.095	34.33
889.26	22.74
889.425	50.67
889.59	53.53
889.756	-5.08
889.921	11
890.086	62.31
890.251	111
890.416	29.06
890.581	64.3
890.746	114.41
890.911	73.5
891.076	34.69
891.241	32.93
891.406	11.1
891.571	-38.68
891.736	-149.77
891.901	29.79
892.065	40.71
892.23	71.14
892.395	55.22
892.56	62.76
892.725	81.46
892.889	95.66
893.054	23.25
893.219	-51.4
893.384	-137.83
893.548	-210.94
893.713	-296.56
893.878	-426.39
