Data from Ofra_1a_PS_8HS23_Reflection_2.txt Node
Date: Tue Jul 20 11:02:45 EDT 2021
User: Adam
Spectrometer: FLMT01687
Trigger mode: 0
Integration Time (sec): 1.004000E0
Scans to average: 2
Electric dark correction enabled: true
Nonlinearity correction enabled: false
Boxcar width: 2
XAxis mode: Wavelengths
Number of Pixels in Spectrum: 3648
>>>>>Begin Spectral Data<<<<<
179.494	-292.39
179.716	-357.25
179.937	686.29
180.158	-603.82
180.38	78.96
180.601	55.42
180.823	44.13
181.044	100.15
181.265	65.87
181.486	-6.17
181.708	15.14
181.929	-327.27
182.15	35.54
182.372	82.76
182.593	-53.48
182.814	26.49
183.035	30.71
183.257	52.95
183.478	-1.5
183.699	-48.22
183.92	-82.17
184.141	-77.01
184.363	-75.5
184.584	-59.31
184.805	-2.16
185.026	29.93
185.247	9.72
185.468	-17.29
185.689	-8.84
185.91	-15.69
186.132	-14.64
186.353	3.49
186.574	23.24
186.795	10.8
187.016	28.28
187.237	22.59
187.458	17.36
187.679	-0.95
187.9	43.77
188.121	59.17
188.342	77.76
188.563	78.53
188.784	90.15
189.005	50.32
189.226	33.5
189.447	15.81
189.667	12.74
189.888	0.41
190.109	-7.53
190.33	2.12
190.551	3.46
190.772	-0.78
190.993	-10.21
191.214	-11.38
191.434	-27.54
191.655	-26.74
191.876	36.31
192.097	60.71
192.318	79.89
192.538	47.7
192.759	52.32
192.98	55.55
193.201	25.38
193.421	18.2
193.642	34.4
193.863	37.17
194.083	5.05
194.304	32.7
194.525	20.76
194.745	22.5
194.966	5.44
195.187	17.68
195.407	8.37
195.628	12.34
195.848	7
196.069	6.36
196.29	0
196.51	-5.34
196.731	-8.4
196.951	0.55
197.172	24.87
197.392	-0.26
197.613	31.03
197.833	14.64
198.054	21.34
198.274	1.52
198.495	20.26
198.715	17.12
198.936	47.09
199.156	35.3
199.377	33.17
199.597	40.75
199.817	21.76
200.038	-8.57
200.258	15.31
200.479	17.15
200.699	10.87
200.919	-5.79
201.14	6.88
201.36	-5.61
201.58	-6.44
201.801	-14.73
202.021	-16.02
202.241	-10.22
202.461	-18.49
202.682	-1.04
202.902	6.92
203.122	30.98
203.342	21.84
203.563	23.88
203.783	19.95
204.003	17.48
204.223	30.58
204.443	65.78
204.663	62.36
204.884	85.03
205.104	81.68
205.324	38.86
205.544	-8.43
205.764	50.79
205.984	32.64
206.204	36.85
206.424	46.21
206.644	41
206.864	7.39
207.084	24.08
207.304	28.41
207.525	28.53
207.745	39.18
207.964	31.42
208.184	24.26
208.404	16.51
208.624	27.19
208.844	24.06
209.064	21.3
209.284	10.04
209.504	5.16
209.724	-5.71
209.944	-13.27
210.164	-5.74
210.384	-7.71
210.604	-12.11
210.823	-19.76
211.043	-4.28
211.263	-18.08
211.483	5.73
211.703	13.3
211.922	18.66
212.142	34.18
212.362	60.04
212.582	71.04
212.801	62.97
213.021	45.54
213.241	13.84
213.461	-14.02
213.68	-20.19
213.9	-30.11
214.12	-15.93
214.339	-11.04
214.559	-3.92
214.779	8.41
214.998	34.24
215.218	18.55
215.438	21.48
215.657	7.33
215.877	-10.08
216.096	-3.7
216.316	-8.83
216.535	-20.43
216.755	-8.8
216.974	-19.04
217.194	-38.47
217.413	-29.5
217.633	-17.61
217.852	-9.12
218.072	7.82
218.291	16.51
218.511	16.15
218.73	2.14
218.95	-29.71
219.169	-59.69
219.389	-44.99
219.608	-35.59
219.827	-16.11
220.047	0.57
220.266	9.84
220.485	-6.75
220.705	5.1
220.924	-5.22
221.143	20.22
221.363	35.88
221.582	51.13
221.801	59.73
222.021	71.12
222.24	75.1
222.459	65.41
222.678	57.47
222.897	42.49
223.117	33.65
223.336	43
223.555	34.73
223.774	70.62
223.993	56.68
224.213	50.27
224.432	30.42
224.651	32.16
224.87	9.59
225.089	12.09
225.308	27.79
225.527	17.54
225.746	20
225.965	8.18
226.184	8.86
226.404	-8.59
226.623	10.36
226.842	7.5
227.061	28.69
227.28	38.29
227.499	42.97
227.718	40.8
227.936	44.86
228.155	26.67
228.374	14.69
228.593	17.32
228.812	15.71
229.031	22.18
229.25	29.33
229.469	31.25
229.688	33.44
229.907	34.4
230.125	23.2
230.344	25.03
230.563	26.86
230.782	18.41
231.001	5.85
231.22	5.86
231.438	19.39
231.657	18.47
231.876	19.59
232.095	37.72
232.313	39.59
232.532	30.62
232.751	38.84
232.969	37.81
233.188	14.15
233.407	21.77
233.625	2.1
233.844	5.38
234.063	15.46
234.281	30.42
234.5	18.92
234.719	30.07
234.937	10.35
235.156	-2.39
235.374	-9.65
235.593	5.32
235.811	16.73
236.03	25.03
236.249	30.29
236.467	28.85
236.686	10.74
236.904	6.64
237.123	-2.4
237.341	-15.41
237.559	-18.88
237.778	17.81
237.996	-4.96
238.215	0.43
238.433	-8.02
238.652	7.12
238.87	-12.85
239.088	6.6
239.307	8.48
239.525	15.03
239.743	5.97
239.962	2.7
240.18	5.98
240.398	7.44
240.617	13.81
240.835	19.25
241.053	17.69
241.271	40.73
241.49	45.65
241.708	31.87
241.926	36.56
242.144	38.55
242.363	6.3
242.581	-21.49
242.799	-36.9
243.017	-33.98
243.235	-7.47
243.453	-8.46
243.672	3.34
243.89	13.02
244.108	23.43
244.326	39.01
244.544	38.47
244.762	27.34
244.98	40.8
245.198	33.38
245.416	18.96
245.634	25.47
245.852	31.81
246.07	36.42
246.288	37.99
246.506	37.49
246.724	26.11
246.942	34.42
247.16	17.43
247.378	26.54
247.596	24.71
247.814	26.68
248.032	-8.44
248.25	8.95
248.468	13.54
248.685	21.46
248.903	11.59
249.121	18.54
249.339	23.08
249.557	31.33
249.775	33.01
249.992	43.56
250.21	30.91
250.428	20.09
250.646	10.07
250.863	-2.76
251.081	-8.8
251.299	6.93
251.517	26.38
251.734	37.34
251.952	41.8
252.17	47.89
252.387	45.32
252.605	29
252.823	22.13
253.04	42.53
253.258	23.48
253.475	12.67
253.693	18.4
253.911	6.56
254.128	0
254.346	12.28
254.563	25.36
254.781	14.05
254.998	25.6
255.216	7.81
255.433	14.88
255.651	18.79
255.868	17.31
256.086	26.22
256.303	17.11
256.521	8.23
256.738	-0.36
256.956	3.96
257.173	-1.55
257.39	19.3
257.608	20.47
257.825	17.54
258.043	28.81
258.26	26.75
258.477	30.92
258.695	36.79
258.912	39.53
259.129	20.46
259.346	21.48
259.564	21.93
259.781	24.99
259.998	40.21
260.216	56.37
260.433	38.78
260.65	36.09
260.867	29.63
261.084	19.85
261.302	12.99
261.519	37.66
261.736	33.26
261.953	32.58
262.17	43.4
262.387	29.66
262.604	12.86
262.822	13.94
263.039	8.79
263.256	1.81
263.473	-1.95
263.69	-2.17
263.907	1.91
264.124	34.71
264.341	36.89
264.558	47.93
264.775	79.2
264.992	64.31
265.209	29.63
265.426	37.18
265.643	34.73
265.86	23.58
266.077	18.72
266.294	31.13
266.51	39.12
266.727	35.4
266.944	32.06
267.161	35.88
267.378	22.28
267.595	-0.16
267.812	-14.03
268.028	-33.33
268.245	-32.87
268.462	15.32
268.679	31.88
268.896	46.02
269.112	44.3
269.329	33.6
269.546	42.67
269.763	37.33
269.979	23.58
270.196	38.52
270.413	36.6
270.629	4.08
270.846	-2.96
271.063	3.17
271.279	-8.95
271.496	-13.7
271.712	-6.98
271.929	3.91
272.146	-0.6
272.362	9.65
272.579	15.53
272.795	20.69
273.012	24.39
273.228	17.24
273.445	11.76
273.661	-1.4
273.878	-6.15
274.094	9.41
274.311	17.52
274.527	21.69
274.744	56.9
274.96	51.82
275.177	34.44
275.393	41.23
275.609	41.17
275.826	38.35
276.042	26.41
276.259	23.33
276.475	13.38
276.691	3.6
276.908	-16.78
277.124	9.61
277.34	11.97
277.557	-7.11
277.773	-21.81
277.989	-8.35
278.205	-15.91
278.422	2.83
278.638	28.47
278.854	23.89
279.07	28.5
279.286	25.95
279.503	23.44
279.719	22.99
279.935	31.14
280.151	17.62
280.367	16.41
280.583	7.76
280.799	2.88
281.016	-18.07
281.232	13.11
281.448	9
281.664	5.64
281.88	13.9
282.096	22.55
282.312	13.52
282.528	17.68
282.744	20.61
282.96	-5.79
283.176	-21.85
283.392	-63.12
283.608	-45.95
283.824	-56.21
284.04	-56.09
284.256	-19.95
284.471	-6.76
284.687	-7.47
284.903	-2.12
285.119	16.35
285.335	22
285.551	31.4
285.767	24.39
285.982	12.58
286.198	-15.21
286.414	-31.14
286.63	-35.79
286.846	-27.79
287.061	2.3
287.277	2.51
287.493	-9.87
287.709	-7.03
287.924	7.05
288.14	9.54
288.356	18.51
288.571	27.4
288.787	13.39
289.003	9.5
289.218	-6.49
289.434	-13.18
289.65	6.08
289.865	12.77
290.081	20.57
290.296	31.58
290.512	39.46
290.727	36.17
290.943	26.24
291.159	14.23
291.374	-15.63
291.59	-8.86
291.805	-33.88
292.021	-22.47
292.236	-15.37
292.451	6.16
292.667	1.58
292.882	20
293.098	26.03
293.313	18.73
293.529	21.39
293.744	3.56
293.959	0
294.175	-2.07
294.39	-15.44
294.605	2.01
294.821	7.47
295.036	12.15
295.251	14.42
295.467	17.9
295.682	17.93
295.897	12.82
296.112	8.41
296.328	14.46
296.543	8.2
296.758	-13.81
296.973	2.49
297.188	1.61
297.404	-29.91
297.619	-21.54
297.834	-16.5
298.049	-19.35
298.264	-21.69
298.479	-0.97
298.694	33.03
298.909	39.6
299.125	35.13
299.34	50.52
299.555	54.02
299.77	47.68
299.985	48.31
300.2	52.35
300.415	44.58
300.63	44.75
300.845	51.72
301.06	44.5
301.275	43.66
301.49	41.14
301.704	31.91
301.919	13.47
302.134	13.2
302.349	14.59
302.564	4.66
302.779	-8.09
302.994	6.76
303.209	-2.92
303.423	-11.2
303.638	4.58
303.853	-3.45
304.068	-19.09
304.283	-9.13
304.497	-5.24
304.712	-2.78
304.927	8.89
305.142	12.68
305.356	20.69
305.571	16.64
305.786	14.39
306	17.24
306.215	15.82
306.43	2.19
306.644	18.41
306.859	21.48
307.074	28.96
307.288	35.41
307.503	39.68
307.717	23.47
307.932	19.25
308.147	9.54
308.361	3.23
308.576	-20.19
308.79	-5.67
309.005	-23.09
309.219	12.93
309.434	12.55
309.648	21.23
309.863	26.24
310.077	43.97
310.292	41.25
310.506	44.33
310.72	40.43
310.935	40.52
311.149	33.28
311.364	17.88
311.578	7.52
311.792	14.7
312.007	0.97
312.221	-20.76
312.435	1.16
312.649	34.35
312.864	25.96
313.078	27.05
313.292	33.66
313.507	34.36
313.721	18.78
313.935	21.33
314.149	18.12
314.363	21.61
314.578	8.14
314.792	-10.99
315.006	-8.27
315.22	16.5
315.434	20.42
315.648	13.31
315.862	14.24
316.077	10.18
316.291	-1.58
316.505	-25.6
316.719	-6.54
316.933	-5.59
317.147	2.88
317.361	9.3
317.575	14.94
317.789	17.62
318.003	28.55
318.217	49.99
318.431	37.02
318.645	39.04
318.859	38.55
319.073	32.08
319.287	15.36
319.5	18.25
319.714	11.42
319.928	6.95
320.142	4.5
320.356	23.22
320.57	5.71
320.784	16.33
320.997	-8.86
321.211	1.74
321.425	-40.71
321.639	-3.43
321.853	3.45
322.066	17.69
322.28	5.81
322.494	12.13
322.707	6.37
322.921	-8.78
323.135	-9.77
323.349	4.4
323.562	9
323.776	7.87
323.989	26.17
324.203	16.69
324.417	20.69
324.63	15.85
324.844	-8.94
325.057	-21.9
325.271	-8.82
325.485	-18.6
325.698	1.53
325.912	42.65
326.125	21.39
326.339	23.3
326.552	16.25
326.766	-1.9
326.979	-8.1
327.193	11.11
327.406	-8.51
327.619	-5.44
327.833	-4.63
328.046	-10.75
328.26	-10.83
328.473	-2.04
328.686	3.42
328.9	7.92
329.113	2.11
329.326	-7.74
329.54	5.19
329.753	13.41
329.966	18.33
330.179	21.56
330.393	19.47
330.606	19.82
330.819	1.34
331.032	-1.38
331.246	10.01
331.459	25.11
331.672	17.17
331.885	24.05
332.098	38.31
332.311	25.16
332.525	26.38
332.738	27.13
332.951	20.4
333.164	8.5
333.377	11.04
333.59	4.61
333.803	2.37
334.016	21.58
334.229	22.74
334.442	15.77
334.655	22.29
334.868	15.45
335.081	7.65
335.294	-2.04
335.507	6.79
335.72	0.91
335.933	6.93
336.146	17.64
336.359	25.2
336.572	20.17
336.785	-0.92
336.997	-10.93
337.21	-30.78
337.423	-44.03
337.636	-25.77
337.849	8.24
338.062	9.49
338.274	24.18
338.487	16.77
338.7	6.48
338.913	7.86
339.125	-2.68
339.338	-1.62
339.551	2.79
339.763	3.94
339.976	-7.43
340.189	10.66
340.402	16.13
340.614	22.55
340.827	34.91
341.039	49
341.252	38.16
341.465	16.54
341.677	25.08
341.89	7.06
342.102	15.31
342.315	32.79
342.527	48.25
342.74	34.53
342.952	53.67
343.165	40.69
343.377	26.32
343.59	28.94
343.802	34.7
344.015	33.09
344.227	37.26
344.44	27.92
344.652	21.28
344.864	30.57
345.077	37.5
345.289	28.03
345.502	40.12
345.714	40.6
345.926	34.16
346.139	8.76
346.351	25.23
346.563	34.14
346.775	22.49
346.988	32.15
347.2	32.83
347.412	21.95
347.624	11.54
347.837	12.94
348.049	5.47
348.261	2.45
348.473	-7.8
348.685	7.87
348.897	10.51
349.11	-0.16
349.322	13.11
349.534	16.04
349.746	-11.63
349.958	-18.65
350.17	-39.6
350.382	-41.08
350.594	-34.63
350.806	3.15
351.018	18.07
351.23	33.09
351.442	34.81
351.654	36.97
351.866	24.52
352.078	22.03
352.29	10.77
352.502	4.82
352.714	-4.74
352.926	1.14
353.138	4.22
353.35	1.12
353.561	2.97
353.773	5.4
353.985	10.25
354.197	10.12
354.409	11.01
354.621	-0.87
354.832	-1.21
355.044	-17.81
355.256	-15.96
355.468	2.06
355.679	18.31
355.891	29.54
356.103	19.55
356.314	10.92
356.526	-5.1
356.738	-6.37
356.949	-9.83
357.161	24.21
357.373	30.85
357.584	37.96
357.796	37.02
358.008	33.33
358.219	20.65
358.431	18
358.642	25.13
358.854	31.27
359.065	19.51
359.277	16.59
359.488	8.62
359.7	3.36
359.911	-12.81
360.123	6.79
360.334	4.56
360.546	12.42
360.757	5.06
360.969	23.1
361.18	2.62
361.391	22.25
361.603	20.12
361.814	35.69
362.025	23.39
362.237	32.24
362.448	22.36
362.659	15.02
362.871	-11.17
363.082	-24
363.293	-21.3
363.504	-37.93
363.716	-17.99
363.927	14.69
364.138	13.13
364.349	7.27
364.56	4.26
364.772	3.74
364.983	9.93
365.194	18.25
365.405	20.85
365.616	31.56
365.827	24.73
366.038	22.86
366.25	19.49
366.461	12.84
366.672	15.62
366.883	13.02
367.094	4.45
367.305	-1.09
367.516	13.16
367.727	1.11
367.938	9.14
368.149	11.31
368.36	21.59
368.571	4.81
368.781	11.13
368.992	4.27
369.203	3.65
369.414	3.76
369.625	9.89
369.836	29.37
370.047	35.21
370.258	40.17
370.468	37.15
370.679	37.04
370.89	23.8
371.101	36.08
371.312	22.25
371.522	20.79
371.733	11
371.944	3.76
372.155	6.8
372.365	18.41
372.576	17.15
372.787	31.76
372.997	26.99
373.208	15.33
373.419	13.17
373.629	4.54
373.84	-4.91
374.05	4.71
374.261	-5.81
374.472	-3.5
374.682	13.79
374.893	8.04
375.103	9.1
375.314	18.63
375.524	17.84
375.735	15.65
375.945	13.7
376.156	11.49
376.366	7.79
376.577	8.74
376.787	5.88
376.997	22.7
377.208	24.37
377.418	19.82
377.629	19.31
377.839	30.7
378.049	22.15
378.26	7.76
378.47	10.74
378.68	8.9
378.89	5.08
379.101	8.29
379.311	16.2
379.521	8.27
379.732	15.14
379.942	4.43
380.152	-10.81
380.362	-12.69
380.572	-0.87
380.783	0.19
380.993	4.13
381.203	9.25
381.413	12.05
381.623	13.68
381.833	17.45
382.043	15.45
382.253	13.69
382.463	25.76
382.674	23.98
382.884	19.42
383.094	18.03
383.304	17.16
383.514	9.97
383.724	8.66
383.934	1.57
384.144	8.58
384.353	15.16
384.563	11.27
384.773	13.24
384.983	8.28
385.193	5.66
385.403	0.15
385.613	4.47
385.823	-4.2
386.033	1.49
386.242	2.58
386.452	9.2
386.662	5.13
386.872	9.18
387.082	4.24
387.291	-2.07
387.501	-5.37
387.711	0.18
387.921	-0.45
388.13	7.08
388.34	11.95
388.55	8.77
388.759	1.47
388.969	3.06
389.179	4.99
389.388	-0.71
389.598	-2.02
389.807	-1.31
390.017	-0.04
390.227	-7.31
390.436	-4.23
390.646	-1.15
390.855	1.69
391.065	-1.65
391.274	0.13
391.484	0.1
391.693	-2.58
391.903	-3.03
392.112	-1.73
392.322	-1.59
392.531	-2.05
392.74	0.2
392.95	-0.94
393.159	1.28
393.369	1.69
393.578	1.19
393.787	0.57
393.997	1.1
394.206	-0.63
394.415	-0.12
394.625	0.51
394.834	0.37
395.043	1.03
395.252	3.71
395.462	4.74
395.671	5.17
395.88	6.61
396.089	6.67
396.298	6.06
396.508	5.81
396.717	5.77
396.926	4.74
397.135	4.93
397.344	3.96
397.553	3.5
397.762	4.24
397.971	4.64
398.181	3.97
398.39	4.17
398.599	4.02
398.808	3.21
399.017	3.9
399.226	4
399.435	3.79
399.644	4.58
399.853	5.13
400.062	4.42
400.27	4
400.479	4.12
400.688	3.6
400.897	3.19
401.106	3.26
401.315	3.76
401.524	3.9
401.733	3.7
401.941	3.95
402.15	3.85
402.359	3.57
402.568	3.59
402.777	3.97
402.985	3.71
403.194	3.92
403.403	4.33
403.612	4.17
403.82	3.83
404.029	4.06
404.238	4.06
404.446	3.94
404.655	3.94
404.864	3.99
405.072	3.88
405.281	3.91
405.489	3.76
405.698	3.85
405.906	4.02
406.115	3.93
406.324	3.89
406.532	3.95
406.741	3.84
406.949	3.87
407.158	3.89
407.366	3.78
407.574	3.72
407.783	3.8
407.991	3.79
408.2	4.01
408.408	4.1
408.617	4.04
408.825	3.86
409.033	3.72
409.242	3.66
409.45	3.66
409.658	3.7
409.867	3.69
410.075	3.74
410.283	3.51
410.491	3.45
410.7	3.33
410.908	3.55
411.116	3.73
411.324	3.8
411.533	3.67
411.741	3.82
411.949	3.76
412.157	3.53
412.365	3.6
412.573	3.71
412.781	3.67
412.99	3.65
413.198	3.69
413.406	3.71
413.614	3.73
413.822	3.8
414.03	3.78
414.238	3.78
414.446	3.73
414.654	3.69
414.862	3.65
415.07	3.51
415.278	3.6
415.486	3.37
415.694	3.37
415.902	3.27
416.109	3.2
416.317	3.04
416.525	3.16
416.733	3.03
416.941	3.11
417.149	3.06
417.357	3.16
417.564	3.23
417.772	3.42
417.98	3.34
418.188	3.37
418.395	3.06
418.603	2.82
418.811	2.72
419.019	2.69
419.226	2.87
419.434	3.04
419.642	3.02
419.849	2.96
420.057	3.13
420.265	3.09
420.472	3.17
420.68	3.23
420.887	3.25
421.095	3.12
421.302	3.11
421.51	2.99
421.717	3.09
421.925	3.17
422.132	3.13
422.34	3.02
422.547	3.02
422.755	3.13
422.962	3.14
423.17	2.95
423.377	2.91
423.585	2.96
423.792	2.88
423.999	2.86
424.207	2.88
424.414	3.04
424.621	2.93
424.829	2.9
425.036	2.91
425.243	2.95
425.451	2.92
425.658	2.96
425.865	2.93
426.072	2.85
426.28	3.05
426.487	3.1
426.694	3.04
426.901	3.08
427.108	3.02
427.315	2.95
427.523	2.77
427.73	2.77
427.937	2.56
428.144	2.55
428.351	2.59
428.558	2.77
428.765	2.93
428.972	3.16
429.179	3.14
429.386	3.19
429.593	3.02
429.8	2.98
430.007	2.99
430.214	3.17
430.421	3.26
430.628	3.3
430.835	3.27
431.042	3.2
431.249	3.2
431.456	3.03
431.662	3.21
431.869	3.39
432.076	3.46
432.283	3.55
432.49	3.62
432.697	3.54
432.903	3.43
433.11	3.51
433.317	3.38
433.524	3.36
433.73	3.36
433.937	3.43
434.144	3.3
434.35	3.26
434.557	3.33
434.764	3.42
434.97	3.29
435.177	3.42
435.384	3.6
435.59	3.59
435.797	3.58
436.003	3.78
436.21	3.68
436.416	3.54
436.623	3.62
436.829	3.55
437.036	3.39
437.242	3.53
437.449	3.65
437.655	3.75
437.862	3.84
438.068	3.86
438.275	3.9
438.481	3.9
438.687	3.8
438.894	3.88
439.1	3.91
439.307	4.01
439.513	4.06
439.719	4.07
439.926	4.04
440.132	4.22
440.338	4.13
440.544	4.09
440.751	4.03
440.957	4.12
441.163	3.95
441.369	3.86
441.575	3.8
441.782	3.89
441.988	3.79
442.194	3.8
442.4	3.83
442.606	4.03
442.812	4.04
443.018	4.07
443.224	4.18
443.431	4.23
443.637	4.05
443.843	4.03
444.049	4.13
444.255	4.23
444.461	4.1
444.667	4.21
444.873	4.22
445.079	4.11
445.284	4.02
445.49	4.11
445.696	4
445.902	4.01
446.108	4.07
446.314	4.05
446.52	4.21
446.726	4.28
446.931	4.35
447.137	4.32
447.343	4.39
447.549	4.3
447.755	4.37
447.96	4.36
448.166	4.47
448.372	4.43
448.578	4.42
448.783	4.42
448.989	4.41
449.195	4.41
449.4	4.45
449.606	4.43
449.812	4.38
450.017	4.44
450.223	4.35
450.428	4.35
450.634	4.4
450.84	4.46
451.045	4.45
451.251	4.56
451.456	4.65
451.662	4.71
451.867	4.7
452.073	4.74
452.278	4.75
452.483	4.69
452.689	4.78
452.894	4.89
453.1	4.83
453.305	4.85
453.51	4.87
453.716	4.81
453.921	4.76
454.127	4.83
454.332	4.77
454.537	4.79
454.742	4.7
454.948	4.7
455.153	4.7
455.358	4.71
455.563	4.75
455.769	4.79
455.974	4.72
456.179	4.67
456.384	4.67
456.589	4.55
456.795	4.52
457	4.5
457.205	4.46
457.41	4.46
457.615	4.44
457.82	4.51
458.025	4.61
458.23	4.74
458.435	4.79
458.64	4.87
458.845	4.89
459.05	4.93
459.255	4.87
459.46	4.87
459.665	4.87
459.87	4.85
460.075	4.88
460.28	4.94
460.485	5
460.69	5.05
460.895	5.11
461.099	5
461.304	4.92
461.509	4.95
461.714	4.97
461.919	4.91
462.123	5.05
462.328	4.99
462.533	4.89
462.738	4.79
462.942	4.8
463.147	4.74
463.352	4.93
463.556	4.97
463.761	5.1
463.966	5.08
464.17	5.14
464.375	5.18
464.58	5.07
464.784	5.03
464.989	5.16
465.193	5.18
465.398	5.13
465.602	5.41
465.807	5.44
466.011	5.41
466.216	5.3
466.42	5.41
466.625	5.34
466.829	5.35
467.034	5.43
467.238	5.57
467.443	5.43
467.647	5.46
467.851	5.49
468.056	5.54
468.26	5.58
468.464	5.7
468.669	5.73
468.873	5.79
469.077	5.68
469.282	5.7
469.486	5.61
469.69	5.54
469.894	5.49
470.099	5.58
470.303	5.54
470.507	5.66
470.711	5.73
470.915	5.82
471.119	5.84
471.324	5.91
471.528	5.98
471.732	6
471.936	5.99
472.14	5.97
472.344	6.02
472.548	6.06
472.752	6.09
472.956	6.14
473.16	6.15
473.364	6.15
473.568	6
473.772	5.98
473.976	6.08
474.18	6.17
474.384	6.15
474.588	6.32
474.792	6.32
474.995	6.29
475.199	6.22
475.403	6.24
475.607	6.27
475.811	6.34
476.015	6.29
476.218	6.26
476.422	6.3
476.626	6.34
476.83	6.45
477.033	6.54
477.237	6.67
477.441	6.65
477.644	6.55
477.848	6.52
478.052	6.44
478.255	6.45
478.459	6.48
478.663	6.61
478.866	6.68
479.07	6.65
479.273	6.71
479.477	6.71
479.681	6.75
479.884	6.71
480.088	6.84
480.291	6.81
480.495	6.86
480.698	6.85
480.901	6.81
481.105	6.8
481.308	6.8
481.512	6.78
481.715	6.87
481.919	6.97
482.122	6.99
482.325	7.06
482.529	7.1
482.732	7.03
482.935	6.97
483.138	6.95
483.342	6.96
483.545	7.08
483.748	7.1
483.952	7.2
484.155	7.3
484.358	7.31
484.561	7.25
484.764	7.28
484.967	7.27
485.171	7.22
485.374	7.16
485.577	7.17
485.78	7.16
485.983	7.11
486.186	7.16
486.389	7.19
486.592	7.15
486.795	7.18
486.998	7.14
487.201	7.13
487.404	7.29
487.607	7.34
487.81	7.25
488.013	7.34
488.216	7.37
488.419	7.25
488.622	7.15
488.825	7.24
489.028	7.24
489.231	7.24
489.433	7.23
489.636	7.34
489.839	7.34
490.042	7.33
490.245	7.34
490.447	7.36
490.65	7.37
490.853	7.39
491.056	7.45
491.258	7.57
491.461	7.55
491.664	7.59
491.866	7.56
492.069	7.59
492.272	7.45
492.474	7.56
492.677	7.56
492.879	7.57
493.082	7.52
493.285	7.62
493.487	7.54
493.69	7.51
493.892	7.5
494.095	7.51
494.297	7.49
494.5	7.53
494.702	7.57
494.905	7.66
495.107	7.65
495.309	7.62
495.512	7.63
495.714	7.66
495.917	7.68
496.119	7.74
496.321	7.73
496.524	7.71
496.726	7.68
496.928	7.62
497.13	7.59
497.333	7.59
497.535	7.67
497.737	7.67
497.939	7.68
498.142	7.73
498.344	7.71
498.546	7.65
498.748	7.72
498.95	7.77
499.152	7.76
499.355	7.82
499.557	7.89
499.759	7.88
499.961	7.86
500.163	7.84
500.365	7.87
500.567	7.84
500.769	7.85
500.971	7.89
501.173	7.93
501.375	7.99
501.577	8.02
501.779	8.01
501.981	7.99
502.183	8
502.385	7.98
502.587	8.04
502.788	8.11
502.99	8.18
503.192	8.31
503.394	8.29
503.596	8.25
503.798	8.18
503.999	8.17
504.201	8.13
504.403	8.18
504.605	8.29
504.806	8.32
505.008	8.37
505.21	8.3
505.411	8.31
505.613	8.27
505.815	8.35
506.016	8.4
506.218	8.5
506.42	8.52
506.621	8.59
506.823	8.53
507.024	8.5
507.226	8.55
507.427	8.61
507.629	8.61
507.83	8.74
508.032	8.73
508.233	8.75
508.435	8.68
508.636	8.75
508.838	8.74
509.039	8.78
509.24	8.79
509.442	8.91
509.643	8.91
509.845	8.95
510.046	9.01
510.247	9.06
510.448	9.06
510.65	9.02
510.851	9.01
511.052	9.01
511.254	9.08
511.455	9.07
511.656	9.09
511.857	9.09
512.058	9.12
512.26	9.1
512.461	9.17
512.662	9.19
512.863	9.15
513.064	9.1
513.265	9.05
513.466	9.04
513.667	9.1
513.868	9.12
514.069	9.18
514.27	9.23
514.471	9.21
514.672	9.2
514.873	9.28
515.074	9.29
515.275	9.32
515.476	9.33
515.677	9.39
515.878	9.41
516.079	9.42
516.28	9.43
516.481	9.47
516.682	9.46
516.882	9.43
517.083	9.49
517.284	9.56
517.485	9.58
517.686	9.62
517.886	9.64
518.087	9.62
518.288	9.58
518.488	9.61
518.689	9.56
518.89	9.56
519.091	9.63
519.291	9.55
519.492	9.55
519.692	9.58
519.893	9.7
520.094	9.65
520.294	9.77
520.495	9.77
520.695	9.87
520.896	9.78
521.096	9.83
521.297	9.84
521.497	9.86
521.698	9.77
521.898	9.85
522.099	9.87
522.299	9.84
522.499	9.81
522.7	9.94
522.9	9.89
523.101	9.82
523.301	9.87
523.501	9.96
523.702	9.9
523.902	9.97
524.102	10.13
524.302	10.16
524.503	10.15
524.703	10.07
524.903	10.1
525.103	10
525.304	9.97
525.504	10.07
525.704	10.18
525.904	10.15
526.104	10.21
526.304	10.27
526.504	10.21
526.705	10.19
526.905	10.22
527.105	10.22
527.305	10.18
527.505	10.16
527.705	10.15
527.905	10.24
528.105	10.26
528.305	10.28
528.505	10.36
528.705	10.39
528.905	10.32
529.105	10.26
529.304	10.34
529.504	10.35
529.704	10.38
529.904	10.46
530.104	10.56
530.304	10.59
530.503	10.62
530.703	10.58
530.903	10.57
531.103	10.57
531.303	10.53
531.502	10.61
531.702	10.7
531.902	10.74
532.101	10.74
532.301	10.76
532.501	10.78
532.7	10.78
532.9	10.77
533.1	10.85
533.299	10.82
533.499	10.77
533.698	10.78
533.898	10.78
534.097	10.76
534.297	10.81
534.496	10.83
534.696	10.84
534.895	10.91
535.095	10.95
535.294	11
535.494	11.01
535.693	11.04
535.892	11.02
536.092	11.02
536.291	11.01
536.491	11.06
536.69	11.13
536.889	11.13
537.088	11.15
537.288	11.16
537.487	11.17
537.686	11.09
537.886	11.18
538.085	11.18
538.284	11.21
538.483	11.19
538.682	11.25
538.882	11.23
539.081	11.25
539.28	11.26
539.479	11.29
539.678	11.3
539.877	11.3
540.076	11.34
540.275	11.44
540.474	11.46
540.673	11.55
540.872	11.54
541.071	11.59
541.27	11.57
541.469	11.63
541.668	11.63
541.867	11.76
542.066	11.82
542.265	11.9
542.464	11.9
542.663	12
542.862	12.09
543.06	12.13
543.259	12.23
543.458	12.34
543.657	12.33
543.856	12.31
544.054	12.28
544.253	12.26
544.452	12.26
544.651	12.31
544.849	12.33
545.048	12.48
545.247	12.51
545.445	12.53
545.644	12.62
545.843	12.67
546.041	12.66
546.24	12.69
546.438	12.76
546.637	12.72
546.836	12.81
547.034	12.87
547.233	12.99
547.431	13.04
547.63	13.06
547.828	13.03
548.027	13
548.225	12.93
548.423	12.99
548.622	13.11
548.82	13.22
549.019	13.31
549.217	13.44
549.415	13.48
549.614	13.62
549.812	13.62
550.01	13.7
550.209	13.78
550.407	13.84
550.605	13.74
550.803	13.87
551.002	13.94
551.2	13.91
551.398	14.03
551.596	14.17
551.794	14.21
551.993	14.25
552.191	14.45
552.389	14.53
552.587	14.57
552.785	14.59
552.983	14.7
553.181	14.74
553.379	14.75
553.577	14.87
553.775	15.06
553.973	15.1
554.171	15.14
554.369	15.19
554.567	15.29
554.765	15.18
554.963	15.27
555.161	15.3
555.359	15.46
555.557	15.54
555.755	15.74
555.952	15.81
556.15	15.94
556.348	15.94
556.546	16.07
556.744	16.11
556.941	16.19
557.139	16.34
557.337	16.54
557.535	16.54
557.732	16.62
557.93	16.79
558.128	16.87
558.325	16.84
558.523	16.98
558.721	17.17
558.918	17.21
559.116	17.28
559.313	17.4
559.511	17.5
559.708	17.61
559.906	17.76
560.104	17.8
560.301	17.9
560.498	18
560.696	17.98
560.893	18.06
561.091	18.18
561.288	18.3
561.486	18.38
561.683	18.52
561.88	18.69
562.078	18.78
562.275	18.93
562.473	18.99
562.67	19.1
562.867	19.07
563.064	19.2
563.262	19.17
563.459	19.34
563.656	19.45
563.853	19.5
564.051	19.65
564.248	19.8
564.445	19.88
564.642	19.95
564.839	20.09
565.036	20.2
565.234	20.38
565.431	20.54
565.628	20.66
565.825	20.8
566.022	20.87
566.219	20.91
566.416	20.95
566.613	21.03
566.81	21.16
567.007	21.18
567.204	21.25
567.401	21.35
567.598	21.48
567.795	21.53
567.991	21.61
568.188	21.78
568.385	21.83
568.582	21.96
568.779	21.98
568.976	22.14
569.172	22.17
569.369	22.26
569.566	22.27
569.763	22.31
569.96	22.36
570.156	22.42
570.353	22.46
570.55	22.48
570.746	22.65
570.943	22.7
571.14	22.75
571.336	22.88
571.533	22.98
571.729	22.96
571.926	22.99
572.123	23.06
572.319	23.11
572.516	23.12
572.712	23.21
572.909	23.27
573.105	23.36
573.302	23.36
573.498	23.45
573.695	23.47
573.891	23.45
574.087	23.35
574.284	23.32
574.48	23.32
574.677	23.37
574.873	23.42
575.069	23.55
575.266	23.63
575.462	23.58
575.658	23.62
575.854	23.72
576.051	23.71
576.247	23.64
576.443	23.65
576.639	23.59
576.835	23.53
577.032	23.51
577.228	23.62
577.424	23.69
577.62	23.67
577.816	23.77
578.012	23.75
578.208	23.72
578.404	23.78
578.6	23.87
578.796	23.8
578.993	23.88
579.189	23.95
579.384	23.84
579.58	23.95
579.776	23.94
579.972	23.92
580.168	23.84
580.364	23.96
580.56	23.8
580.756	23.88
580.952	23.93
581.148	24.09
581.343	24.08
581.539	24.19
581.735	24.17
581.931	24.1
582.127	23.97
582.322	23.93
582.518	23.86
582.714	23.88
582.909	23.93
583.105	23.99
583.301	24
583.496	23.94
583.692	23.81
583.888	23.83
584.083	23.79
584.279	23.73
584.474	23.73
584.67	23.83
584.866	23.8
585.061	23.8
585.257	23.88
585.452	23.98
585.648	23.86
585.843	23.82
586.039	23.9
586.234	23.8
586.429	23.8
586.625	24.04
586.82	24.1
587.015	24.15
587.211	24.27
587.406	24.23
587.601	24.18
587.797	24.22
587.992	24.1
588.187	24.05
588.383	24.06
588.578	24.14
588.773	24.15
588.968	24.19
589.163	24.25
589.359	24.33
589.554	24.31
589.749	24.38
589.944	24.47
590.139	24.55
590.334	24.54
590.529	24.49
590.724	24.53
590.919	24.55
591.114	24.58
591.309	24.68
591.504	24.82
591.699	24.79
591.894	24.72
592.089	24.66
592.284	24.65
592.479	24.63
592.674	24.66
592.869	24.78
593.064	24.84
593.259	24.95
593.454	25
593.648	25.03
593.843	25.1
594.038	25.22
594.233	25.22
594.428	25.36
594.622	25.56
594.817	25.61
595.012	25.61
595.206	25.71
595.401	25.75
595.596	25.85
595.79	25.91
595.985	26
596.18	26.06
596.374	26.18
596.569	26.15
596.763	26.24
596.958	26.42
597.153	26.43
597.347	26.41
597.542	26.48
597.736	26.55
597.931	26.5
598.125	26.6
598.319	26.62
598.514	26.64
598.708	26.71
598.903	26.83
599.097	26.87
599.291	26.97
599.486	27.19
599.68	27.16
599.874	27.25
600.069	27.44
600.263	27.58
600.457	27.54
600.651	27.64
600.846	27.62
601.04	27.57
601.234	27.51
601.428	27.61
601.622	27.61
601.817	27.67
602.011	27.71
602.205	27.78
602.399	27.69
602.593	27.81
602.787	27.8
602.981	27.69
603.175	27.72
603.369	27.67
603.563	27.66
603.757	27.71
603.951	27.74
604.145	27.64
604.339	27.79
604.533	27.71
604.727	27.62
604.921	27.71
605.115	27.77
605.309	27.6
605.502	27.65
605.696	27.68
605.89	27.73
606.084	27.79
606.278	27.86
606.471	27.77
606.665	27.68
606.859	27.55
607.053	27.41
607.246	27.29
607.44	27.21
607.634	27.25
607.827	27.28
608.021	27.23
608.214	27.25
608.408	27.24
608.602	27.17
608.795	27.08
608.989	26.99
609.182	26.94
609.376	27
609.569	26.94
609.763	26.89
609.956	26.92
610.15	26.78
610.343	26.69
610.537	26.69
610.73	26.53
610.923	26.5
611.117	26.56
611.31	26.39
611.504	26.3
611.697	26.24
611.89	26.11
612.083	25.97
612.277	25.94
612.47	25.81
612.663	25.83
612.856	25.74
613.05	25.66
613.243	25.62
613.436	25.63
613.629	25.49
613.822	25.48
614.015	25.41
614.209	25.31
614.402	25.19
614.595	25.2
614.788	25.12
614.981	24.97
615.174	24.9
615.367	24.85
615.56	24.7
615.753	24.73
615.946	24.78
616.139	24.88
616.332	24.86
616.525	24.9
616.718	24.79
616.911	24.75
617.103	24.69
617.296	24.63
617.489	24.46
617.682	24.36
617.875	24.31
618.067	24.21
618.26	24.13
618.453	24.22
618.646	24.21
618.838	24.15
619.031	24.07
619.224	24.02
619.417	24.07
619.609	24.03
619.802	24.02
619.994	24.12
620.187	24.06
620.38	23.99
620.572	23.96
620.765	23.97
620.957	23.82
621.15	23.81
621.342	23.76
621.535	23.75
621.727	23.75
621.92	23.77
622.112	23.79
622.305	23.7
622.497	23.58
622.69	23.47
622.882	23.48
623.074	23.44
623.267	23.43
623.459	23.52
623.651	23.63
623.844	23.56
624.036	23.65
624.228	23.68
624.42	23.58
624.613	23.44
624.805	23.39
624.997	23.31
625.189	23.26
625.381	23.24
625.574	23.21
625.766	23.18
625.958	23.15
626.15	23.14
626.342	23.08
626.534	23.1
626.726	22.98
626.918	22.97
627.11	22.89
627.302	22.89
627.494	22.79
627.686	22.83
627.878	22.69
628.07	22.76
628.262	22.78
628.454	22.8
628.646	22.79
628.838	22.86
629.029	22.73
629.221	22.6
629.413	22.6
629.605	22.56
629.797	22.53
629.989	22.48
630.18	22.51
630.372	22.45
630.564	22.43
630.755	22.44
630.947	22.48
631.139	22.4
631.33	22.38
631.522	22.41
631.714	22.33
631.905	22.23
632.097	22.14
632.289	22.12
632.48	22.02
632.672	21.97
632.863	21.9
633.055	22.05
633.246	22.05
633.438	22.02
633.629	22
633.821	22.06
634.012	21.96
634.203	21.95
634.395	21.98
634.586	21.97
634.777	21.87
634.969	21.86
635.16	21.73
635.351	21.63
635.543	21.58
635.734	21.67
635.925	21.68
636.117	21.76
636.308	21.87
636.499	21.86
636.69	21.83
636.881	21.76
637.073	21.81
637.264	21.72
637.455	21.76
637.646	21.76
637.837	21.75
638.028	21.64
638.219	21.74
638.41	21.76
638.601	21.79
638.792	21.79
638.983	21.72
639.174	21.6
639.365	21.55
639.556	21.38
639.747	21.41
639.938	21.48
640.129	21.51
640.32	21.52
640.511	21.61
640.701	21.58
640.892	21.51
641.083	21.42
641.274	21.29
641.465	21.27
641.655	21.27
641.846	21.23
642.037	21.12
642.228	21.07
642.418	21.03
642.609	20.93
642.8	20.94
642.99	20.96
643.181	21.02
643.372	21
643.562	20.97
643.753	20.89
643.943	20.88
644.134	20.74
644.324	20.73
644.515	20.73
644.705	20.7
644.896	20.81
645.086	20.91
645.277	20.82
645.467	20.8
645.658	20.75
645.848	20.69
646.038	20.63
646.229	20.67
646.419	20.59
646.61	20.61
646.8	20.71
646.99	20.61
647.18	20.52
647.371	20.55
647.561	20.49
647.751	20.36
647.941	20.43
648.132	20.4
648.322	20.25
648.512	20.36
648.702	20.37
648.892	20.3
649.082	20.41
649.272	20.53
649.462	20.43
649.653	20.29
649.843	20.27
650.033	20.22
650.223	20.2
650.413	20.21
650.603	20.28
650.793	20.35
650.983	20.26
651.172	20.26
651.362	20.16
651.552	20.17
651.742	19.98
651.932	19.95
652.122	19.94
652.312	19.92
652.502	19.71
652.691	19.7
652.881	19.68
653.071	19.49
653.261	19.36
653.45	19.38
653.64	19.32
653.83	19.23
654.019	19.08
654.209	19.07
654.399	18.85
654.588	18.7
654.778	18.56
654.968	18.53
655.157	18.34
655.347	18.25
655.536	18.19
655.726	17.99
655.915	17.99
656.105	17.81
656.294	17.77
656.484	17.59
656.673	17.51
656.863	17.33
657.052	17.32
657.241	17.1
657.431	16.96
657.62	16.76
657.809	16.51
657.999	16.31
658.188	16.29
658.377	16.18
658.567	16.07
658.756	15.85
658.945	15.61
659.134	15.33
659.324	15.07
659.513	14.96
659.702	14.86
659.891	14.73
660.08	14.63
660.269	14.53
660.458	14.3
660.648	14.1
660.837	13.96
661.026	13.73
661.215	13.53
661.404	13.31
661.593	13.2
661.782	13.01
661.971	12.84
662.16	12.77
662.349	12.63
662.538	12.48
662.726	12.42
662.915	12.36
663.104	12.1
663.293	12.11
663.482	11.99
663.671	11.79
663.86	11.66
664.048	11.68
664.237	11.52
664.426	11.45
664.615	11.29
664.803	11.12
664.992	10.89
665.181	10.82
665.369	10.66
665.558	10.64
665.747	10.64
665.935	10.72
666.124	10.69
666.312	10.62
666.501	10.62
666.69	10.59
666.878	10.48
667.067	10.34
667.255	10.27
667.444	10.25
667.632	10.2
667.82	10.19
668.009	10.16
668.197	10.22
668.386	10.06
668.574	10
668.762	9.88
668.951	9.91
669.139	9.83
669.327	9.81
669.516	9.8
669.704	9.84
669.892	9.81
670.08	9.82
670.269	9.8
670.457	9.74
670.645	9.67
670.833	9.68
671.021	9.71
671.21	9.76
671.398	9.87
671.586	9.94
671.774	9.95
671.962	9.96
672.15	10.03
672.338	10.03
672.526	10.09
672.714	10.14
672.902	10.15
673.09	10.22
673.278	10.33
673.466	10.4
673.654	10.44
673.842	10.59
674.03	10.62
674.218	10.67
674.405	10.62
674.593	10.66
674.781	10.58
674.969	10.76
675.157	10.77
675.344	10.91
675.532	10.96
675.72	11.14
675.908	11.04
676.095	11.06
676.283	11.16
676.471	11.4
676.658	11.45
676.846	11.49
677.033	11.61
677.221	11.62
677.409	11.56
677.596	11.64
677.784	11.9
677.971	11.97
678.159	12.19
678.346	12.3
678.534	12.4
678.721	12.45
678.909	12.68
679.096	12.79
679.283	12.86
679.471	13.06
679.658	13.17
679.846	13.16
680.033	13.41
680.22	13.7
680.408	13.69
680.595	13.84
680.782	14.1
680.969	14.13
681.157	14.21
681.344	14.3
681.531	14.32
681.718	14.48
681.905	14.6
682.093	14.74
682.28	15.13
682.467	15.49
682.654	15.65
682.841	15.88
683.028	16.13
683.215	16.42
683.402	16.45
683.589	16.56
683.776	16.66
683.963	16.87
684.15	17
684.337	17.39
684.524	17.88
684.711	18.28
684.898	18.4
685.085	18.74
685.271	19.07
685.458	19.18
685.645	19.4
685.832	19.8
686.019	20.01
686.205	20.22
686.392	20.74
686.579	21.14
686.766	21.45
686.952	21.9
687.139	22.39
687.326	22.7
687.512	22.79
687.699	23.4
687.886	23.59
688.072	23.77
688.259	24.08
688.445	24.7
688.632	24.88
688.818	25.4
689.005	25.9
689.191	26.53
689.378	27.09
689.564	27.79
689.751	28.33
689.937	28.98
690.124	29.48
690.31	29.83
690.496	30.17
690.683	30.7
690.869	31.3
691.055	31.84
691.242	32.34
691.428	32.85
691.614	33.52
691.8	34.03
691.987	34.57
692.173	35.2
692.359	35.95
692.545	36.62
692.731	37.18
692.918	37.52
693.104	38.2
693.29	38.67
693.476	39.16
693.662	39.74
693.848	40.49
694.034	41.16
694.22	41.88
694.406	42.18
694.592	42.67
694.778	43.2
694.964	43.57
695.15	44.07
695.336	44.88
695.522	45.35
695.708	45.94
695.894	46.49
696.08	46.88
696.265	47.34
696.451	47.98
696.637	48.43
696.823	48.8
697.009	49.44
697.194	50
697.38	50.5
697.566	51.03
697.751	51.7
697.937	52.36
698.123	52.59
698.308	52.91
698.494	53.57
698.68	54.08
698.865	54.14
699.051	54.63
699.236	55
699.422	55.29
699.607	55.71
699.793	56.49
699.978	56.91
700.164	57.25
700.349	57.53
700.535	57.48
700.72	57.48
700.906	57.63
701.091	58.18
701.276	58.42
701.462	58.87
701.647	59.45
701.832	59.91
702.018	60.31
702.203	60.92
702.388	61.32
702.573	61.44
702.759	61.8
702.944	61.95
703.129	61.98
703.314	62.14
703.499	62.28
703.684	62.62
703.87	62.86
704.055	63.27
704.24	63.72
704.425	64.25
704.61	64.25
704.795	64.8
704.98	64.68
705.165	64.83
705.35	64.94
705.535	65.21
705.72	64.94
705.905	65.6
706.09	66.03
706.275	66.02
706.459	66.52
706.644	66.84
706.829	66.89
707.014	67.06
707.199	67.58
707.384	67.44
707.568	67.83
707.753	68.18
707.938	68.2
708.123	68.37
708.307	68.86
708.492	69.01
708.677	68.94
708.861	68.94
709.046	68.96
709.231	68.6
709.415	68.58
709.6	68.39
709.784	68.64
709.969	69.2
710.153	69.54
710.338	69.82
710.522	70.16
710.707	70.29
710.891	69.89
711.076	69.76
711.26	69.87
711.445	70.17
711.629	70.13
711.813	70.22
711.998	70.65
712.182	70.39
712.366	70.89
712.551	71.06
712.735	71.12
712.919	71.53
713.103	71.99
713.288	71.66
713.472	71.73
713.656	71.93
713.84	71.64
714.024	71.39
714.208	71.33
714.393	71.58
714.577	71.94
714.761	71.82
714.945	72.03
715.129	72.09
715.313	72
715.497	71.45
715.681	71.78
715.865	71.99
716.049	72.19
716.233	72.08
716.417	72.27
716.601	72.19
716.785	72.21
716.968	72.26
717.152	72.52
717.336	73.06
717.52	73.38
717.704	73.68
717.888	74.21
718.071	74.19
718.255	74.28
718.439	74.34
718.622	74.09
718.806	73.39
718.99	73.13
719.174	73.03
719.357	73.01
719.541	73.11
719.724	73.4
719.908	73.96
720.092	74.27
720.275	74.51
720.459	74.52
720.642	74.16
720.826	73.97
721.009	73.54
721.193	72.99
721.376	73.06
721.559	73.91
721.743	74.47
721.926	74.71
722.11	75.25
722.293	75.47
722.476	74.89
722.66	75.11
722.843	74.91
723.026	75.06
723.21	75.18
723.393	76.07
723.576	76.03
723.759	76.3
723.942	76.37
724.126	76.09
724.309	75.19
724.492	75.27
724.675	74.96
724.858	75.13
725.041	75.63
725.224	75.89
725.407	75.47
725.59	75.75
725.774	75.46
725.957	75.28
726.14	75.7
726.322	76.59
726.505	76.97
726.688	77.14
726.871	76.97
727.054	76.79
727.237	75.95
727.42	75.72
727.603	76.34
727.786	76.58
727.968	76.32
728.151	76.43
728.334	76.59
728.517	75.61
728.699	75.48
728.882	75.89
729.065	75.87
729.248	76.02
729.43	76.88
729.613	77.34
729.796	78.07
729.978	78.31
730.161	78.04
730.343	77.98
730.526	77.71
730.708	76.94
730.891	77.3
731.073	77.67
731.256	78.02
731.438	79.17
731.621	79.46
731.803	79.67
731.986	80.15
732.168	80.05
732.35	79.68
732.533	79.67
732.715	79.45
732.898	79.33
733.08	79.26
733.262	78.53
733.444	79.04
733.627	78.93
733.809	79.18
733.991	79.25
734.173	79.23
734.355	79.1
734.538	79.62
734.72	79.06
734.902	78.52
735.084	79.52
735.266	80.27
735.448	79.75
735.63	80.37
735.812	81.3
735.994	80.79
736.176	80.37
736.358	81.44
736.54	81.79
736.722	80.99
736.904	80.75
737.086	80.07
737.268	80.83
737.45	80.77
737.632	81.49
737.814	82.12
737.995	82.92
738.177	82.15
738.359	81.44
738.541	80.84
738.723	80.79
738.904	81.09
739.086	81.52
739.268	81.98
739.449	82.42
739.631	82.59
739.813	81.79
739.994	80.41
740.176	81.27
740.358	81.9
740.539	81.6
740.721	82.6
740.902	83.4
741.084	82.74
741.265	82.19
741.447	83.26
741.628	82.71
741.81	83
741.991	83.95
742.172	84.39
742.354	83.83
742.535	83.8
742.717	82.64
742.898	82.14
743.079	82.95
743.261	82.56
743.442	82.25
743.623	83.33
743.804	82.12
743.986	81.79
744.167	81.55
744.348	81.1
744.529	81.15
744.71	81.52
744.891	80.46
745.073	80.59
745.254	81.83
745.435	81.99
745.616	82.72
745.797	82.8
745.978	83.29
746.159	82.18
746.34	82.3
746.521	82.9
746.702	82.84
746.883	83.23
747.064	83.86
747.245	83.75
747.426	82.43
747.606	83.28
747.787	83.39
747.968	83.23
748.149	82.24
748.33	81.8
748.51	81.01
748.691	80.56
748.872	83.04
749.053	84.09
749.233	84.88
749.414	85.83
749.595	86.14
749.775	83.51
749.956	82.43
750.137	81.92
750.317	80.78
750.498	80.02
750.678	79.95
750.859	80.6
751.04	80.95
751.22	81.31
751.4	81.89
751.581	82.94
751.761	82.82
751.942	83.64
752.122	82.99
752.303	82.98
752.483	82.52
752.663	83.46
752.844	82
753.024	83.51
753.204	82.63
753.385	83.12
753.565	81.68
753.745	81.81
753.925	79.81
754.106	81.28
754.286	79.64
754.466	80.37
754.646	80.3
754.826	81.95
755.006	79.87
755.187	82.97
755.367	82.43
755.547	83.34
755.727	83.57
755.907	84.48
756.087	81.47
756.267	80.26
756.447	80.36
756.627	80.81
756.807	83.04
756.987	82.5
757.167	84.19
757.346	84.29
757.526	84.29
757.706	82.62
757.886	82.94
758.066	83.39
758.246	82.07
758.425	79.72
758.605	78.73
758.785	79.29
758.965	79.64
759.144	78.53
759.324	80.55
759.504	81.54
759.683	80.97
759.863	79.61
760.043	80.47
760.222	79.29
760.402	77.9
760.581	79.42
760.761	79.26
760.94	79.67
761.12	80.11
761.299	81.14
761.479	79.93
761.658	79.77
761.838	81.21
762.017	81.75
762.197	79.61
762.376	79.94
762.555	80.35
762.735	79.58
762.914	77.61
763.093	80.1
763.273	79.51
763.452	78.89
763.631	78.81
763.81	79.6
763.99	77.08
764.169	77.4
764.348	75.84
764.527	74.24
764.706	75.2
764.885	78.68
765.064	80.41
765.243	81.92
765.423	83.71
765.602	83.37
765.781	79.79
765.96	78.97
766.139	79.55
766.318	79.14
766.497	78.8
766.676	79.98
766.854	78.81
767.033	79.58
767.212	81.08
767.391	80.99
767.57	83
767.749	82.09
767.928	82.14
768.106	78.86
768.285	78.62
768.464	76.03
768.643	75.87
768.821	74.57
769	75.04
769.179	75.09
769.357	74.78
769.536	75.61
769.715	74.63
769.893	74.92
770.072	74.37
770.25	74.83
770.429	74.7
770.607	76.26
770.786	75.99
770.964	76.64
771.143	77.02
771.321	75.7
771.5	75.23
771.678	76.57
771.857	75.03
772.035	76.01
772.213	77.18
772.392	75.45
772.57	74.58
772.748	73.92
772.927	73.84
773.105	75.98
773.283	77.65
773.461	78.87
773.64	80.7
773.818	80.1
773.996	79.79
774.174	80.01
774.352	78.13
774.531	77.05
774.709	77.4
774.887	75.87
775.065	74.73
775.243	74.85
775.421	75.09
775.599	75.78
775.777	74.28
775.955	72.78
776.133	73.09
776.311	73.19
776.489	72.03
776.667	72.98
776.844	72.95
777.022	71.51
777.2	71.69
777.378	70.48
777.556	70.52
777.734	73.92
777.911	76.67
778.089	78.27
778.267	79.25
778.445	80.37
778.622	78.6
778.8	75.3
778.978	75.42
779.155	74.56
779.333	75.7
779.511	75.32
779.688	76.65
779.866	75.37
780.043	77.73
780.221	75.24
780.398	76.53
780.576	75.1
780.753	74.31
780.931	72.42
781.108	74.17
781.286	74.49
781.463	74.99
781.64	74.97
781.818	77.07
781.995	75.66
782.172	74.85
782.35	75.49
782.527	75.7
782.704	74.75
782.882	72.32
783.059	71.06
783.236	73.15
783.413	71.94
783.59	71.75
783.768	72.88
783.945	73.14
784.122	70.34
784.299	71.51
784.476	68.87
784.653	68.48
784.83	66.2
785.007	67.58
785.184	68.11
785.361	71.63
785.538	70.69
785.715	79.39
785.892	78.4
786.069	79.4
786.246	77.88
786.423	78.01
786.6	72.36
786.776	73.63
786.953	71.8
787.13	72.12
787.307	71.86
787.484	68.5
787.66	68.91
787.837	69.68
788.014	69.1
788.191	69.42
788.367	71.84
788.544	69.13
788.721	66.35
788.897	68.54
789.074	72.74
789.25	71.85
789.427	70.78
789.603	72.37
789.78	70.27
789.956	66.85
790.133	63.89
790.309	65.58
790.486	66.37
790.662	65.44
790.839	65.1
791.015	70.68
791.192	70.28
791.368	69.69
791.544	73.05
791.721	75
791.897	72.62
792.073	72.54
792.249	73.5
792.426	69.79
792.602	69.71
792.778	67.74
792.954	70.44
793.13	71.49
793.307	74.52
793.483	71.69
793.659	71.64
793.835	71.94
794.011	73.29
794.187	70.54
794.363	70.77
794.539	69.65
794.715	67.86
794.891	65.32
795.067	64.03
795.243	67.54
795.419	73.63
795.595	77.89
795.771	74.37
795.947	72.76
796.122	67.83
796.298	62.59
796.474	62.83
796.65	68.34
796.826	69.36
797.001	73.49
797.177	72.79
797.353	66.43
797.529	64.13
797.704	67.76
797.88	62.2
798.056	60.73
798.231	61.5
798.407	65.69
798.582	63.1
798.758	69.38
798.934	71.9
799.109	69.87
799.285	62.57
799.46	63.97
799.636	62.62
799.811	63.33
799.986	68.32
800.162	65.65
800.337	67.46
800.513	66.89
800.688	67.27
800.863	73.28
801.039	79.68
801.214	74.86
801.389	69.5
801.565	73.76
801.74	68.09
801.915	63.72
802.09	63.09
802.265	69.33
802.441	65.85
802.616	66.35
802.791	68.16
802.966	73.16
803.141	72.21
803.316	71.9
803.491	75.19
803.666	75.88
803.841	72.63
804.016	71.19
804.191	69.33
804.366	64.78
804.541	65.95
804.716	63.81
804.891	65.14
805.066	67.98
805.241	67.42
805.416	73.95
805.591	76.95
805.765	79.77
805.94	77.27
806.115	73.1
806.29	64.9
806.464	65.05
806.639	65.41
806.814	67.99
806.989	64.49
807.163	70.02
807.338	68.18
807.512	69.65
807.687	70.8
807.862	79.27
808.036	80.57
808.211	82.71
808.385	76.65
808.56	70.63
808.734	71.75
808.909	68.89
809.083	69.63
809.258	66.64
809.432	71.89
809.606	64.28
809.781	68.36
809.955	70.53
810.13	72.48
810.304	64.41
810.478	61.28
810.652	60.64
810.827	56.14
811.001	55.6
811.175	60.03
811.349	60.94
811.524	60.49
811.698	60.33
811.872	62.71
812.046	56.22
812.22	60.99
812.394	54.29
812.568	57.48
812.742	55.2
812.916	63.27
813.09	54.52
813.264	53.74
813.438	53.44
813.612	53.06
813.786	52.69
813.96	63.82
814.134	67.3
814.308	70.19
814.482	70.07
814.656	65.75
814.83	64.2
815.003	69.83
815.177	69.95
815.351	76.13
815.525	85.6
815.698	80.05
815.872	67.67
816.046	60.27
816.219	58.81
816.393	51.12
816.567	50.46
816.74	55.62
816.914	59.34
817.088	59.33
817.261	56.13
817.435	63.23
817.608	64.21
817.782	66.32
817.955	64.86
818.129	70.49
818.302	66.33
818.475	65.33
818.649	62.37
818.822	59.05
818.996	70.99
819.169	83.01
819.342	79.24
819.516	91.59
819.689	89.05
819.862	81.27
820.035	78.04
820.209	82.51
820.382	75.05
820.555	79.93
820.728	75.85
820.901	50.35
821.075	49.79
821.248	48.15
821.421	43.73
821.594	40.29
821.767	50.5
821.94	46.17
822.113	45.58
822.286	44.81
822.459	58.83
822.632	68.37
822.805	71.15
822.978	68.4
823.151	63.48
823.324	46.63
823.496	36.24
823.669	29.66
823.842	46.23
824.015	49.33
824.188	46.94
824.361	49.59
824.533	49.21
824.706	40.17
824.879	47.02
825.051	57
825.224	60.73
825.397	67.68
825.569	63.36
825.742	71.25
825.915	70.05
826.087	61.79
826.26	58.24
826.432	59.59
826.605	54.66
826.777	62.07
826.95	63.21
827.122	65.17
827.295	75.82
827.467	80.51
827.64	68.85
827.812	68.48
827.984	87.84
828.157	69.4
828.329	68.63
828.501	58.58
828.674	71.33
828.846	59.02
829.018	55.55
829.19	57.77
829.363	68.79
829.535	58.09
829.707	63.25
829.879	61.97
830.051	53.03
830.223	50.9
830.395	44.69
830.568	38.83
830.74	29.94
830.912	35.35
831.084	40.17
831.256	29.45
831.428	32.95
831.6	39.52
831.772	30.03
831.943	12.21
832.115	28.4
832.287	35.79
832.459	22.02
832.631	24.08
832.803	29.62
832.975	41.55
833.146	32.42
833.318	48.87
833.49	59.54
833.662	77.42
833.833	59.08
834.005	60.71
834.177	52.84
834.348	34.94
834.52	36.15
834.692	41.67
834.863	41.85
835.035	54.9
835.206	63.15
835.378	70.29
835.549	63.99
835.721	60.26
835.892	53.88
836.064	57.6
836.235	39.53
836.407	43.14
836.578	44.82
836.749	43.07
836.921	45.17
837.092	49.82
837.264	46.74
837.435	39.53
837.606	38.45
837.777	35.27
837.949	41.89
838.12	42.14
838.291	42.77
838.462	43.05
838.633	38.47
838.805	21.35
838.976	28.99
839.147	40.03
839.318	38.7
839.489	26.98
839.66	39.6
839.831	39.04
840.002	26.12
840.173	34
840.344	35.47
840.515	17.48
840.686	14.75
840.857	27.25
841.028	23.02
841.199	47.22
841.369	64.54
841.54	96.12
841.711	98.95
841.882	99.11
842.053	58.56
842.223	48.28
842.394	41.74
842.565	35.92
842.736	33.11
842.906	31.45
843.077	51.7
843.248	51
843.418	52.05
843.589	52.12
843.759	70.67
843.93	64.9
844.101	62.9
844.271	83.18
844.442	87.94
844.612	87.74
844.783	87.35
844.953	68.7
845.123	65.82
845.294	63.45
845.464	57.59
845.635	64.08
845.805	104.4
845.975	123.7
846.146	104.22
846.316	87.17
846.486	70.78
846.656	62.06
846.827	41.29
846.997	35.25
847.167	33.86
847.337	33.33
847.507	43.01
847.677	48.79
847.848	56.73
848.018	60.49
848.188	78.7
848.358	58.79
848.528	59.05
848.698	55.75
848.868	57.34
849.038	37.52
849.208	61.85
849.378	55.81
849.548	32.96
849.718	21.61
849.887	40.71
850.057	-2.27
850.227	29.9
850.397	42.26
850.567	21.62
850.737	32
850.906	24.9
851.076	-14.67
851.246	-8.22
851.415	13.67
851.585	5.48
851.755	52.26
851.924	74.77
852.094	89.77
852.264	67.27
852.433	38.52
852.603	-9.28
852.772	-0.34
852.942	16.12
853.111	21.72
853.281	52.62
853.45	64.13
853.62	60.28
853.789	39.41
853.959	48.95
854.128	37.87
854.297	37.27
854.467	43.7
854.636	58.33
854.805	55.35
854.975	50.79
855.144	58.55
855.313	59.73
855.482	37.49
855.652	29.2
855.821	16.07
855.99	22.56
856.159	22.81
856.328	25.33
856.497	25.69
856.667	43.59
856.836	49.79
857.005	43.43
857.174	51
857.343	42.77
857.512	30.32
857.681	8.85
857.85	-7.22
858.019	-58.66
858.188	-19.73
858.356	-4.46
858.525	14.66
858.694	49.19
858.863	39.67
859.032	30.55
859.201	43.91
859.369	-7.72
859.538	-10.17
859.707	-5.62
859.876	1.2
860.044	15.65
860.213	54.44
860.382	60.97
860.55	74.77
860.719	99.01
860.888	96.84
861.056	70.49
861.225	59.64
861.393	47.7
861.562	35.28
861.73	12.67
861.899	22.18
862.067	10.89
862.236	3.29
862.404	2.94
862.572	19.04
862.741	26.94
862.909	33.93
863.078	37.37
863.246	13.88
863.414	20
863.582	25.45
863.751	41.15
863.919	17.36
864.087	11.27
864.255	21.48
864.424	-21.48
864.592	-5.1
864.76	0.59
864.928	53.59
865.096	44.06
865.264	58.42
865.432	53.8
865.6	73.28
865.768	12.55
865.936	-23.86
866.104	-9.96
866.272	-18.87
866.44	13.42
866.608	29.33
866.776	46.86
866.944	73.86
867.112	33.67
867.28	40.52
867.448	41.62
867.615	61.64
867.783	40.76
867.951	65.72
868.119	84.18
868.286	60.67
868.454	22.29
868.622	12.04
868.789	16.42
868.957	24.16
869.125	35.82
869.292	12.74
869.46	33.33
869.627	14.81
869.795	-34.24
869.963	12.77
870.13	40.91
870.298	55.54
870.465	86.35
870.632	69.5
870.8	46.07
870.967	58.7
871.135	30.34
871.302	7.27
871.469	44.27
871.637	46.59
871.804	44.74
871.971	41.56
872.139	49.65
872.306	47.42
872.473	54.6
872.64	35.13
872.807	33.07
872.975	-35.78
873.142	-4.04
873.309	12.05
873.476	49.46
873.643	88.75
873.81	97.42
873.977	83.68
874.144	92.79
874.311	24.69
874.478	-18.02
874.645	-95.36
874.812	20.14
874.979	-7
875.146	-8.58
875.313	-12.61
875.48	34.92
875.647	-5.33
875.813	-35.92
875.98	-28.62
876.147	-102.84
876.314	-77.44
876.481	-33.97
876.647	-25.73
876.814	1.09
876.981	42.34
877.147	28.34
877.314	12.92
877.481	38.88
877.647	52.65
877.814	32.75
877.98	45.38
878.147	79.7
878.314	100.26
878.48	95.93
878.647	82.68
878.813	96.17
878.979	60.77
879.146	24.13
879.312	35.43
879.479	34.21
879.645	45.03
879.811	6.89
879.978	33.33
880.144	21.8
880.31	7.53
880.477	1.18
880.643	11.42
880.809	-58.31
880.975	-61.46
881.142	-105.76
881.308	387.62
881.474	411.13
881.64	-11.9
881.806	-1.83
881.972	26.89
882.138	47.01
882.304	64.66
882.47	57.12
882.636	22.59
882.802	52.11
882.968	52.1
883.134	37.71
883.3	20.97
883.466	117.49
883.632	135.37
883.798	135.03
883.964	133.57
884.129	607.86
884.295	74.73
884.461	-10.08
884.627	49.36
884.793	41.45
884.958	47.36
885.124	39.57
885.29	24.77
885.455	45.43
885.621	89.96
885.787	88.75
885.952	67.99
886.118	90.86
886.283	72.24
886.449	52.37
886.614	26.22
886.78	32.21
886.945	16.03
887.111	-36.28
887.276	-60.15
887.442	-77.81
887.607	-42.12
887.773	-36.99
887.938	-5.17
888.103	27.27
888.269	44.68
888.434	44.44
888.599	42.85
888.764	51.69
888.93	45.48
889.095	28.63
889.26	12.62
889.425	31.36
889.59	37.56
889.756	43.57
889.921	13.59
890.086	66.62
890.251	74.26
890.416	56.66
890.581	58.9
890.746	116.23
890.911	73.75
891.076	61.81
891.241	37.05
891.406	41.26
891.571	31.86
891.736	-10.86
891.901	19.99
892.065	4.14
892.23	11.71
892.395	4.07
892.56	3.14
892.725	27.4
892.889	222.92
893.054	60.76
893.219	10.44
893.384	6.97
893.548	-60.1
893.713	-125.62
893.878	-165.06
