Data from Ofra_2a_PS_2CX12_Reflection_2.txt Node
Date: Tue Jul 20 09:38:08 EDT 2021
User: Adam
Spectrometer: FLMT01687
Trigger mode: 0
Integration Time (sec): 9.450000E-1
Scans to average: 3
Electric dark correction enabled: true
Nonlinearity correction enabled: false
Boxcar width: 3
XAxis mode: Wavelengths
Number of Pixels in Spectrum: 3648
>>>>>Begin Spectral Data<<<<<
179.494	325.44
179.716	76.76
179.937	169.23
180.158	362.5
180.38	-39.53
180.601	47.58
180.823	76.16
181.044	162.15
181.265	72.73
181.486	139.95
181.708	1013.04
181.929	134.88
182.15	420.45
182.372	54.51
182.593	-14.04
182.814	179.04
183.035	71.49
183.257	64.26
183.478	68.93
183.699	68.05
183.92	61.36
184.141	52.84
184.363	37.98
184.584	34.32
184.805	43.54
185.026	32.88
185.247	38.49
185.468	34.78
185.689	44.11
185.91	51.36
186.132	72.43
186.353	51.32
186.574	41.91
186.795	20.8
187.016	25.91
187.237	15.93
187.458	-10.79
187.679	-65.14
187.9	-32.18
188.121	-18.54
188.342	12.3
188.563	18.88
188.784	33.25
189.005	42.6
189.226	48.7
189.447	43.39
189.667	27.49
189.888	40.07
190.109	33.55
190.33	15.25
190.551	14.5
190.772	13.8
190.993	25.91
191.214	38.43
191.434	35.07
191.655	41
191.876	46.31
192.097	39.39
192.318	41.2
192.538	39.21
192.759	32.58
192.98	15.67
193.201	22.92
193.421	28.41
193.642	38.16
193.863	28.62
194.083	10.39
194.304	27.91
194.525	51.62
194.745	27.87
194.966	31.32
195.187	41.94
195.407	42.41
195.628	42.99
195.848	35.31
196.069	23.01
196.29	27.85
196.51	14.35
196.731	11.48
196.951	21.72
197.172	20.87
197.392	24.33
197.613	25.11
197.833	16.87
198.054	13.87
198.274	1.95
198.495	2.71
198.715	6.15
198.936	9.83
199.156	2.6
199.377	32.74
199.597	45.07
199.817	39.97
200.038	41.84
200.258	43.67
200.479	43.35
200.699	54.09
200.919	21.32
201.14	33.22
201.36	53.96
201.58	48.9
201.801	46.2
202.021	50.75
202.241	49.57
202.461	56.33
202.682	51.42
202.902	35.81
203.122	30.26
203.342	37.48
203.563	28.63
203.783	31.85
204.003	35.86
204.223	32.03
204.443	35.49
204.663	36.38
204.884	29.61
205.104	34.67
205.324	42.23
205.544	37.7
205.764	39.71
205.984	44.55
206.204	44.19
206.424	35.57
206.644	29.71
206.864	18.53
207.084	38.49
207.304	41.47
207.525	28.7
207.745	36.19
207.964	39.82
208.184	30.13
208.404	23.78
208.624	1.08
208.844	-12.48
209.064	7.06
209.284	7.56
209.504	12.76
209.724	-5.52
209.944	9.03
210.164	6.59
210.384	19.04
210.604	9.79
210.823	3.18
211.043	-4.31
211.263	22.07
211.483	17.68
211.703	28.97
211.922	26.93
212.142	26.94
212.362	23.76
212.582	30.42
212.801	24.38
213.021	27.94
213.241	22.97
213.461	14.34
213.68	14.57
213.9	17.77
214.12	9.34
214.339	10.39
214.559	23.38
214.779	26.72
214.998	29.57
215.218	37.18
215.438	54.72
215.657	55.65
215.877	61.57
216.096	52.01
216.316	43.98
216.535	51.1
216.755	39.67
216.974	33.43
217.194	28.58
217.413	46.39
217.633	46.05
217.852	53.83
218.072	51.2
218.291	57.2
218.511	48.07
218.73	54.92
218.95	36.03
219.169	27.81
219.389	23.59
219.608	30.65
219.827	15.42
220.047	19.6
220.266	22.93
220.485	23.33
220.705	16.89
220.924	21.86
221.143	14.45
221.363	23.71
221.582	10.73
221.801	0.88
222.021	8.47
222.24	8.06
222.459	2.57
222.678	6.17
222.897	5.73
223.117	15.75
223.336	31.59
223.555	24.07
223.774	46.07
223.993	42.24
224.213	33.08
224.432	39.3
224.651	36.36
224.87	26.34
225.089	40.27
225.308	28.44
225.527	35.86
225.746	38.84
225.965	27.3
226.184	34.48
226.404	40.81
226.623	40.81
226.842	29.82
227.061	35.67
227.28	41.42
227.499	45.53
227.718	40.74
227.936	35.73
228.155	29.19
228.374	40.74
228.593	37.67
228.812	33.1
229.031	27.28
229.25	35.58
229.469	45.8
229.688	48.82
229.907	32.35
230.125	28.74
230.344	29.4
230.563	38.57
230.782	24.46
231.001	19.72
231.22	18.56
231.438	37.68
231.657	43.61
231.876	44.09
232.095	32.78
232.313	50.97
232.532	50.39
232.751	49.46
232.969	50.24
233.188	41.97
233.407	41.46
233.625	49.28
233.844	33.72
234.063	29.02
234.281	20.43
234.5	22.37
234.719	21.2
234.937	29.16
235.156	24.67
235.374	25.49
235.593	23.22
235.811	22.5
236.03	8.53
236.249	21.94
236.467	28.35
236.686	35.84
236.904	30.59
237.123	38.93
237.341	48.03
237.559	48.15
237.778	54.06
237.996	52.54
238.215	43.04
238.433	49.3
238.652	45.78
238.87	39.36
239.088	33.68
239.307	29.91
239.525	19.21
239.743	20.17
239.962	17.76
240.18	26.27
240.398	35.75
240.617	43.75
240.835	41.14
241.053	40.44
241.271	46.49
241.49	40.1
241.708	28.54
241.926	14.44
242.144	9.96
242.363	2.46
242.581	15.69
242.799	4.27
243.017	10.62
243.235	10.77
243.453	13.54
243.672	17.23
243.89	31.03
244.108	28.58
244.326	29.27
244.544	33.92
244.762	32.16
244.98	39.12
245.198	26.86
245.416	27.87
245.634	35.74
245.852	48.37
246.07	44.23
246.288	45.11
246.506	48.38
246.724	62.21
246.942	59.81
247.16	43.25
247.378	25.39
247.596	32.82
247.814	23.36
248.032	19.6
248.25	6.45
248.468	0.26
248.685	7.06
248.903	8.09
249.121	4.11
249.339	16.95
249.557	18.78
249.775	15.13
249.992	15.64
250.21	2.93
250.428	0.23
250.646	5.95
250.863	11.2
251.081	12.43
251.299	40.87
251.517	44.26
251.734	54.63
251.952	72.52
252.17	61.07
252.387	52.34
252.605	58.57
252.823	27.53
253.04	30.8
253.258	21.25
253.475	14.43
253.693	26.01
253.911	24.08
254.128	12.27
254.346	21.43
254.563	15.16
254.781	21.24
254.998	15.32
255.216	16.36
255.433	10.95
255.651	16.43
255.868	19.39
256.086	34.5
256.303	32.77
256.521	37.76
256.738	23.46
256.956	13.48
257.173	19.05
257.39	19.1
257.608	10.07
257.825	8.56
258.043	22.16
258.26	22.39
258.477	33.24
258.695	41.88
258.912	48.68
259.129	52.05
259.346	52.03
259.564	40.85
259.781	52.25
259.998	59.3
260.216	52.52
260.433	45.56
260.65	50.64
260.867	50.03
261.084	58.63
261.302	48.26
261.519	40.93
261.736	24.41
261.953	25.61
262.17	22.46
262.387	20.51
262.604	1.33
262.822	13.97
263.039	18.03
263.256	21.86
263.473	11.76
263.69	13.45
263.907	9.21
264.124	13.39
264.341	0.65
264.558	6.27
264.775	3.77
264.992	7.52
265.209	12.21
265.426	17.98
265.643	21.13
265.86	23.07
266.077	23.64
266.294	25.26
266.51	29.64
266.727	17.12
266.944	-23.64
267.161	-37.9
267.378	-31.57
267.595	-36.88
267.812	-45.68
268.028	-51.98
268.245	-37.07
268.462	1.79
268.679	1.51
268.896	-2.66
269.112	8.8
269.329	28.11
269.546	32.02
269.763	37.25
269.979	31.03
270.196	43.97
270.413	45.26
270.629	38.24
270.846	35.41
271.063	37.72
271.279	27.96
271.496	24.96
271.712	13.67
271.929	21.24
272.146	25.97
272.362	3.28
272.579	-0.68
272.795	11.63
273.012	15.29
273.228	19.83
273.445	20.58
273.661	15.66
273.878	32.07
274.094	42.46
274.311	33.8
274.527	40
274.744	38.46
274.96	30.45
275.177	30.07
275.393	30.57
275.609	28.55
275.826	28.44
276.042	34.34
276.259	42.26
276.475	42.22
276.691	52.75
276.908	38.61
277.124	28.05
277.34	25.72
277.557	21.83
277.773	15.88
277.989	12.03
278.205	-4.54
278.422	9.51
278.638	25.64
278.854	30.26
279.07	25.06
279.286	19.91
279.503	21.79
279.719	34.78
279.935	11.09
280.151	4.46
280.367	3.81
280.583	-0.47
280.799	9.72
281.016	15.8
281.232	5.3
281.448	16.22
281.664	16.47
281.88	21.06
282.096	28.45
282.312	20.5
282.528	6.95
282.744	8.05
282.96	13.35
283.176	15.59
283.392	24.69
283.608	23.98
283.824	20.66
284.04	29.03
284.256	30.26
284.471	37.74
284.687	32.32
284.903	27.27
285.119	20.16
285.335	23.22
285.551	32.96
285.767	27.76
285.982	20.59
286.198	32.33
286.414	37.61
286.63	42.02
286.846	44.03
287.061	37.34
287.277	42.67
287.493	44.48
287.709	40.32
287.924	37.76
288.14	38.19
288.356	35.6
288.571	30.1
288.787	32.72
289.003	29.7
289.218	24.94
289.434	18.93
289.65	17.2
289.865	23.72
290.081	28.38
290.296	23.65
290.512	30.98
290.727	49.3
290.943	51.06
291.159	50.7
291.374	50.7
291.59	41.32
291.805	48.12
292.021	32.85
292.236	17.19
292.451	13.18
292.667	19.18
292.882	17.36
293.098	18
293.313	18.43
293.529	28.41
293.744	27.91
293.959	27.39
294.175	31.25
294.39	42.79
294.605	47.63
294.821	36.38
295.036	34.77
295.251	28.21
295.467	28.51
295.682	26.84
295.897	22.03
296.112	27.48
296.328	35.35
296.543	33.23
296.758	31.19
296.973	28.06
297.188	23.12
297.404	19.7
297.619	11.42
297.834	14.33
298.049	9.84
298.264	6.87
298.479	-3.1
298.694	-0.78
298.909	-7.14
299.125	0.82
299.34	-6.49
299.555	1.2
299.77	3.55
299.985	9.68
300.2	15.78
300.415	24.12
300.63	20.88
300.845	29.52
301.06	31.86
301.275	35.66
301.49	44.53
301.704	36.2
301.919	28.72
302.134	22.45
302.349	14.52
302.564	3.79
302.779	0.6
302.994	-13.48
303.209	-21.81
303.423	-11.49
303.638	-1.46
303.853	6.59
304.068	15.97
304.283	16.2
304.497	21.42
304.712	29.52
304.927	25.96
305.142	20.75
305.356	12.49
305.571	19.42
305.786	18.31
306	20.62
306.215	18.09
306.43	23.18
306.644	31.67
306.859	41.94
307.074	32.61
307.288	32.37
307.503	28.81
307.717	28.34
307.932	27.49
308.147	30.94
308.361	29.23
308.576	28.84
308.79	29.11
309.005	27.34
309.219	31.69
309.434	26.29
309.648	12.11
309.863	13.36
310.077	14.45
310.292	17
310.506	32.53
310.72	34.35
310.935	42.02
311.149	40.92
311.364	39.67
311.578	36.66
311.792	33.41
312.007	19.02
312.221	14.62
312.435	13.77
312.649	32.99
312.864	23.49
313.078	36.08
313.292	39.66
313.507	48.89
313.721	56.35
313.935	61.95
314.149	39.13
314.363	42.07
314.578	37.27
314.792	38.95
315.006	33.6
315.22	39.39
315.434	24.05
315.648	22.4
315.862	22.89
316.077	24.36
316.291	23.36
316.505	26.27
316.719	10.87
316.933	29.62
317.147	29.79
317.361	36.81
317.575	46.07
317.789	48.57
318.003	49.87
318.217	48.34
318.431	48.76
318.645	53.72
318.859	40.03
319.073	33.4
319.287	31.05
319.5	34.12
319.714	37.85
319.928	36.19
320.142	32.94
320.356	44.6
320.57	36.67
320.784	33.91
320.997	28.76
321.211	24.95
321.425	21.07
321.639	21.36
321.853	16.19
322.066	24.6
322.28	31.48
322.494	34.8
322.707	36.95
322.921	32.64
323.135	40.01
323.349	44.86
323.562	47
323.776	38.31
323.989	35.58
324.203	34.38
324.417	34.68
324.63	23.03
324.844	12.36
325.057	13.04
325.271	4.75
325.485	9.22
325.698	9.38
325.912	22.28
326.125	30.12
326.339	35.76
326.552	30.01
326.766	41.8
326.979	40.07
327.193	39.26
327.406	36.74
327.619	20.26
327.833	19.73
328.046	19.09
328.26	14.35
328.473	11.06
328.686	2.86
328.9	-7.49
329.113	3.21
329.326	3.52
329.54	7.67
329.753	6.35
329.966	14.67
330.179	23.83
330.393	26.22
330.606	27.09
330.819	30.96
331.032	27.64
331.246	27.67
331.459	22.58
331.672	22.07
331.885	19.52
332.098	27.39
332.311	11.91
332.525	17.89
332.738	19
332.951	21.13
333.164	18.4
333.377	12.44
333.59	12.21
333.803	22.34
334.016	14.3
334.229	22.05
334.442	21.25
334.655	25.3
334.868	37.26
335.081	33.19
335.294	36.58
335.507	46.72
335.72	39.27
335.933	39.72
336.146	43.25
336.359	37.47
336.572	36.55
336.785	40.49
336.997	32.06
337.21	34.31
337.423	28.15
337.636	29.29
337.849	31.51
338.062	32.33
338.274	28.9
338.487	26.4
338.7	24.12
338.913	30.69
339.125	23.82
339.338	25.78
339.551	26.75
339.763	26.06
339.976	29.06
340.189	28.85
340.402	24.75
340.614	32.31
340.827	23.31
341.039	21.25
341.252	21.08
341.465	20.86
341.677	20.83
341.89	20.84
342.102	19.12
342.315	32.69
342.527	26.27
342.74	15.35
342.952	17.47
343.165	20.33
343.377	22.18
343.59	20.13
343.802	17.4
344.015	25.17
344.227	31.62
344.44	27.56
344.652	26.78
344.864	35.65
345.077	35.58
345.289	28.04
345.502	31.67
345.714	24.58
345.926	30.72
346.139	27.09
346.351	4.55
346.563	10.86
346.775	2.25
346.988	-1.08
347.2	10.8
347.412	5.92
347.624	5.77
347.837	17.07
348.049	10.05
348.261	16.11
348.473	14.78
348.685	16.22
348.897	15
349.11	11.77
349.322	4.26
349.534	3.04
349.746	16.5
349.958	19.02
350.17	15.53
350.382	20.28
350.594	28.34
350.806	36.71
351.018	43.53
351.23	34.93
351.442	30.83
351.654	33.64
351.866	27.11
352.078	16.83
352.29	15.04
352.502	12.07
352.714	9.95
352.926	12.87
353.138	0.83
353.35	5.21
353.561	9.43
353.773	15.13
353.985	20.52
354.197	21.85
354.409	20.02
354.621	29.56
354.832	28.69
355.044	40.83
355.256	29.55
355.468	19.02
355.679	22.07
355.891	23.95
356.103	21.45
356.314	25.88
356.526	13.33
356.738	16.73
356.949	19.03
357.161	14.57
357.373	7.48
357.584	15.71
357.796	9.03
358.008	14.12
358.219	18.66
358.431	19.23
358.642	20.01
358.854	26.45
359.065	21.09
359.277	15.8
359.488	15.33
359.7	12.52
359.911	8.73
360.123	14.53
360.334	14.52
360.546	3.09
360.757	15.57
360.969	28.93
361.18	28.71
361.391	32.71
361.603	32.34
361.814	30.34
362.025	34.27
362.237	35.41
362.448	26.9
362.659	13.64
362.871	6.9
363.082	9.28
363.293	14.94
363.504	18.58
363.716	18.31
363.927	13.33
364.138	25.84
364.349	32.2
364.56	23.78
364.772	24.23
364.983	20.06
365.194	20.31
365.405	22.87
365.616	10.38
365.827	1.35
366.038	18.8
366.25	16.6
366.461	23.13
366.672	21.16
366.883	28.97
367.094	38.73
367.305	38.02
367.516	30.05
367.727	27.74
367.938	27.91
368.149	29.7
368.36	28.61
368.571	26.32
368.781	27.93
368.992	30.1
369.203	33.91
369.414	28.82
369.625	24.85
369.836	20.98
370.047	22.67
370.258	19.68
370.468	19.41
370.679	5.94
370.89	19.24
371.101	14.39
371.312	10.98
371.522	10.9
371.733	11.05
371.944	10.05
372.155	14.14
372.365	2.29
372.576	6.28
372.787	4.32
372.997	-1.38
373.208	8.24
373.419	12.73
373.629	20.76
373.84	20.58
374.05	23.45
374.261	22.4
374.472	26.73
374.682	15.94
374.893	10.61
375.103	15.3
375.314	15.68
375.524	14.28
375.735	18.18
375.945	18.33
376.156	26.37
376.366	29.74
376.577	21.28
376.787	25.33
376.997	27.37
377.208	28.38
377.418	28.22
377.629	23.73
377.839	19.93
378.049	24.41
378.26	21.73
378.47	21.9
378.68	23
378.89	19.99
379.101	13.51
379.311	12.56
379.521	10.53
379.732	10.85
379.942	8.06
380.152	11.01
380.362	13.28
380.572	19.58
380.783	19.41
380.993	18.92
381.203	15.04
381.413	18.79
381.623	17.93
381.833	18.2
382.043	12.97
382.253	13.41
382.463	18.95
382.674	22.02
382.884	18.28
383.094	12.27
383.304	10.98
383.514	15.03
383.724	14.59
383.934	10.35
384.144	10.55
384.353	10.24
384.563	7.55
384.773	7.19
384.983	8.13
385.193	11.31
385.403	11.28
385.613	6.25
385.823	6.28
386.033	10.12
386.242	9.18
386.452	8.58
386.662	5.32
386.872	2.55
387.082	4.13
387.291	4.46
387.501	5.61
387.711	7.17
387.921	5.93
388.13	4.83
388.34	5.14
388.55	8.69
388.759	8.34
388.969	3.71
389.179	7.67
389.388	7.37
389.598	7.08
389.807	7.24
390.017	5.15
390.227	3.46
390.436	5.2
390.646	4.29
390.855	4.19
391.065	5.12
391.274	3.37
391.484	3.81
391.693	6.16
391.903	7.12
392.112	3.87
392.322	5.95
392.531	6.56
392.74	6.24
392.95	6.64
393.159	6.01
393.369	4.87
393.578	6.02
393.787	5.35
393.997	5.46
394.206	7.01
394.415	6.84
394.625	5.79
394.834	5.81
395.043	6
395.252	5.48
395.462	4.69
395.671	4.98
395.88	4.33
396.089	4.48
396.298	4.77
396.508	4.67
396.717	4.15
396.926	4.14
397.135	3.27
397.344	3.32
397.553	3.7
397.762	3.5
397.971	3.06
398.181	3.12
398.39	3.16
398.599	3.62
398.808	3.81
399.017	3.83
399.226	4.02
399.435	4.31
399.644	4.42
399.853	4.54
400.062	4.2
400.27	4.13
400.479	3.96
400.688	3.96
400.897	3.97
401.106	4.09
401.315	3.83
401.524	4.13
401.733	4.13
401.941	4.17
402.15	3.96
402.359	3.89
402.568	3.8
402.777	3.92
402.985	3.68
403.194	3.68
403.403	3.5
403.612	3.49
403.82	3.47
404.029	3.34
404.238	3.39
404.446	3.36
404.655	3.3
404.864	3.35
405.072	3.38
405.281	3.23
405.489	3.37
405.698	3.29
405.906	3.26
406.115	3.35
406.324	3.23
406.532	3.25
406.741	3.42
406.949	3.39
407.158	3.46
407.366	3.53
407.574	3.46
407.783	3.53
407.991	3.45
408.2	3.26
408.408	3.21
408.617	3.08
408.825	3.01
409.033	2.98
409.242	2.97
409.45	2.99
409.658	3.08
409.867	3.11
410.075	3.11
410.283	3.09
410.491	3.11
410.7	3.08
410.908	3.11
411.116	3.06
411.324	3.01
411.533	2.96
411.741	2.93
411.949	2.94
412.157	3.03
412.365	2.95
412.573	3.04
412.781	3.1
412.99	3.22
413.198	3.27
413.406	3.15
413.614	3.11
413.822	3.1
414.03	3
414.238	2.96
414.446	2.83
414.654	2.8
414.862	2.86
415.07	2.9
415.278	2.89
415.486	3.01
415.694	2.93
415.902	2.93
416.109	2.96
416.317	2.93
416.525	2.95
416.733	3.02
416.941	2.9
417.149	3.01
417.357	3.07
417.564	3
417.772	3
417.98	2.93
418.188	2.8
418.395	2.8
418.603	2.69
418.811	2.53
419.019	2.54
419.226	2.54
419.434	2.47
419.642	2.56
419.849	2.53
420.057	2.56
420.265	2.77
420.472	2.68
420.68	2.63
420.887	2.69
421.095	2.62
421.302	2.72
421.51	2.74
421.717	2.69
421.925	2.69
422.132	2.67
422.34	2.7
422.547	2.63
422.755	2.52
422.962	2.38
423.17	2.29
423.377	2.46
423.585	2.56
423.792	2.49
423.999	2.55
424.207	2.49
424.414	2.6
424.621	2.75
424.829	2.62
425.036	2.54
425.243	2.59
425.451	2.57
425.658	2.69
425.865	2.6
426.072	2.54
426.28	2.56
426.487	2.58
426.694	2.49
426.901	2.46
427.108	2.46
427.315	2.53
427.523	2.52
427.73	2.54
427.937	2.59
428.144	2.69
428.351	2.77
428.558	2.73
428.765	2.63
428.972	2.52
429.179	2.49
429.386	2.47
429.593	2.39
429.8	2.39
430.007	2.46
430.214	2.58
430.421	2.64
430.628	2.55
430.835	2.53
431.042	2.56
431.249	2.55
431.456	2.51
431.662	2.43
431.869	2.47
432.076	2.52
432.283	2.49
432.49	2.49
432.697	2.44
432.903	2.46
433.11	2.55
433.317	2.51
433.524	2.5
433.73	2.55
433.937	2.53
434.144	2.63
434.35	2.6
434.557	2.55
434.764	2.57
434.97	2.59
435.177	2.53
435.384	2.59
435.59	2.54
435.797	2.58
436.003	2.56
436.21	2.52
436.416	2.54
436.623	2.59
436.829	2.54
437.036	2.58
437.242	2.59
437.449	2.68
437.655	2.71
437.862	2.71
438.068	2.75
438.275	2.75
438.481	2.76
438.687	2.81
438.894	2.75
439.1	2.81
439.307	2.81
439.513	2.8
439.719	2.89
439.926	2.88
440.132	2.82
440.338	2.87
440.544	2.89
440.751	2.89
440.957	2.84
441.163	2.84
441.369	2.81
441.575	2.81
441.782	2.77
441.988	2.75
442.194	2.81
442.4	2.85
442.606	2.85
442.812	2.88
443.018	2.9
443.224	2.92
443.431	2.96
443.637	2.89
443.843	2.91
444.049	2.85
444.255	2.85
444.461	2.83
444.667	2.81
444.873	2.79
445.079	2.79
445.284	2.78
445.49	2.75
445.696	2.74
445.902	2.79
446.108	2.81
446.314	2.85
446.52	2.93
446.726	2.99
446.931	3.03
447.137	3.04
447.343	3.04
447.549	3.02
447.755	2.95
447.96	2.92
448.166	2.88
448.372	2.92
448.578	2.94
448.783	2.91
448.989	2.95
449.195	2.98
449.4	2.97
449.606	2.93
449.812	2.9
450.017	2.9
450.223	2.92
450.428	2.92
450.634	2.97
450.84	2.97
451.045	2.99
451.251	3.05
451.456	3.04
451.662	3.02
451.867	3
452.073	2.95
452.278	3.01
452.483	3.03
452.689	3.01
452.894	3.01
453.1	3.02
453.305	3.06
453.51	3.07
453.716	3.01
453.921	2.98
454.127	3
454.332	3.02
454.537	3.09
454.742	3.04
454.948	3.02
455.153	3.04
455.358	3.07
455.563	3.09
455.769	3.06
455.974	2.97
456.179	2.95
456.384	2.96
456.589	3
456.795	2.97
457	2.96
457.205	2.93
457.41	2.95
457.615	2.99
457.82	3.05
458.025	3
458.23	3.05
458.435	3.01
458.64	3.11
458.845	3.11
459.05	3.12
459.255	3.1
459.46	3.09
459.665	3.12
459.87	3.15
460.075	3.06
460.28	3.08
460.485	3.09
460.69	3.04
460.895	3.1
461.099	3.1
461.304	3.13
461.509	3.13
461.714	3.15
461.919	3.12
462.123	3.2
462.328	3.15
462.533	3.15
462.738	3.1
462.942	3.19
463.147	3.19
463.352	3.27
463.556	3.29
463.761	3.26
463.966	3.3
464.17	3.36
464.375	3.32
464.58	3.32
464.784	3.29
464.989	3.27
465.193	3.36
465.398	3.34
465.602	3.33
465.807	3.36
466.011	3.36
466.216	3.35
466.42	3.37
466.625	3.35
466.829	3.39
467.034	3.4
467.238	3.42
467.443	3.48
467.647	3.5
467.851	3.48
468.056	3.52
468.26	3.47
468.464	3.47
468.669	3.5
468.873	3.44
469.077	3.43
469.282	3.48
469.486	3.47
469.69	3.48
469.894	3.53
470.099	3.49
470.303	3.56
470.507	3.57
470.711	3.55
470.915	3.61
471.119	3.65
471.324	3.6
471.528	3.65
471.732	3.64
471.936	3.69
472.14	3.68
472.344	3.65
472.548	3.65
472.752	3.7
472.956	3.71
473.16	3.76
473.364	3.76
473.568	3.81
473.772	3.86
473.976	3.88
474.18	3.88
474.384	3.88
474.588	3.87
474.792	3.87
474.995	3.91
475.199	3.89
475.403	3.9
475.607	3.92
475.811	3.89
476.015	3.94
476.218	3.96
476.422	3.93
476.626	3.92
476.83	3.96
477.033	3.96
477.237	4.01
477.441	3.96
477.644	3.99
477.848	4.01
478.052	4.05
478.255	4.01
478.459	4.1
478.663	4.09
478.866	4.11
479.07	4.13
479.273	4.17
479.477	4.18
479.681	4.22
479.884	4.16
480.088	4.2
480.291	4.23
480.495	4.26
480.698	4.22
480.901	4.25
481.105	4.26
481.308	4.26
481.512	4.27
481.715	4.31
481.919	4.27
482.122	4.32
482.325	4.31
482.529	4.34
482.732	4.39
482.935	4.43
483.138	4.41
483.342	4.47
483.545	4.47
483.748	4.48
483.952	4.48
484.155	4.5
484.358	4.47
484.561	4.49
484.764	4.52
484.967	4.58
485.171	4.59
485.374	4.63
485.577	4.64
485.78	4.64
485.983	4.65
486.186	4.62
486.389	4.55
486.592	4.57
486.795	4.57
486.998	4.57
487.201	4.61
487.404	4.66
487.607	4.65
487.81	4.71
488.013	4.7
488.216	4.64
488.419	4.61
488.622	4.58
488.825	4.52
489.028	4.51
489.231	4.48
489.433	4.49
489.636	4.49
489.839	4.54
490.042	4.57
490.245	4.6
490.447	4.63
490.65	4.63
490.853	4.63
491.056	4.68
491.258	4.68
491.461	4.66
491.664	4.63
491.866	4.63
492.069	4.65
492.272	4.66
492.474	4.68
492.677	4.68
492.879	4.7
493.082	4.75
493.285	4.74
493.487	4.76
493.69	4.78
493.892	4.79
494.095	4.78
494.297	4.82
494.5	4.85
494.702	4.9
494.905	4.89
495.107	4.9
495.309	4.87
495.512	4.91
495.714	4.91
495.917	4.9
496.119	4.91
496.321	4.96
496.524	4.99
496.726	5.01
496.928	5.03
497.13	5.09
497.333	5.15
497.535	5.18
497.737	5.17
497.939	5.19
498.142	5.21
498.344	5.21
498.546	5.23
498.748	5.2
498.95	5.19
499.152	5.2
499.355	5.21
499.557	5.31
499.759	5.38
499.961	5.39
500.163	5.46
500.365	5.44
500.567	5.48
500.769	5.52
500.971	5.48
501.173	5.47
501.375	5.47
501.577	5.47
501.779	5.56
501.981	5.59
502.183	5.59
502.385	5.59
502.587	5.65
502.788	5.64
502.99	5.61
503.192	5.64
503.394	5.66
503.596	5.69
503.798	5.78
503.999	5.77
504.201	5.82
504.403	5.89
504.605	5.9
504.806	5.87
505.008	5.85
505.21	5.83
505.411	5.87
505.613	5.92
505.815	5.92
506.016	5.96
506.218	6.01
506.42	6.05
506.621	6.06
506.823	6.09
507.024	6.09
507.226	6.09
507.427	6.05
507.629	6.1
507.83	6.11
508.032	6.15
508.233	6.14
508.435	6.11
508.636	6.15
508.838	6.24
509.039	6.24
509.24	6.25
509.442	6.2
509.643	6.21
509.845	6.25
510.046	6.23
510.247	6.24
510.448	6.27
510.65	6.34
510.851	6.41
511.052	6.45
511.254	6.48
511.455	6.52
511.656	6.51
511.857	6.52
512.058	6.52
512.26	6.5
512.461	6.54
512.662	6.53
512.863	6.54
513.064	6.54
513.265	6.56
513.466	6.6
513.667	6.65
513.868	6.62
514.069	6.67
514.27	6.7
514.471	6.74
514.672	6.77
514.873	6.78
515.074	6.8
515.275	6.82
515.476	6.82
515.677	6.87
515.878	6.9
516.079	6.87
516.28	6.84
516.481	6.83
516.682	6.86
516.882	6.85
517.083	6.83
517.284	6.8
517.485	6.82
517.686	6.87
517.886	6.89
518.087	6.92
518.288	6.96
518.488	7
518.689	7.02
518.89	7.07
519.091	7.07
519.291	7.09
519.492	7.07
519.692	7.08
519.893	7.1
520.094	7.11
520.294	7.08
520.495	7.09
520.695	7.08
520.896	7.1
521.096	7.11
521.297	7.13
521.497	7.15
521.698	7.19
521.898	7.22
522.099	7.24
522.299	7.25
522.499	7.27
522.7	7.26
522.9	7.26
523.101	7.26
523.301	7.26
523.501	7.28
523.702	7.29
523.902	7.31
524.102	7.32
524.302	7.34
524.503	7.36
524.703	7.41
524.903	7.43
525.103	7.44
525.304	7.46
525.504	7.5
525.704	7.53
525.904	7.53
526.104	7.52
526.304	7.53
526.504	7.57
526.705	7.56
526.905	7.56
527.105	7.55
527.305	7.57
527.505	7.6
527.705	7.57
527.905	7.57
528.105	7.59
528.305	7.63
528.505	7.66
528.705	7.69
528.905	7.68
529.105	7.73
529.304	7.76
529.504	7.77
529.704	7.78
529.904	7.78
530.104	7.76
530.304	7.81
530.503	7.82
530.703	7.82
530.903	7.84
531.103	7.86
531.303	7.89
531.502	7.92
531.702	7.93
531.902	7.94
532.101	7.98
532.301	8.02
532.501	8.05
532.7	8.06
532.9	8.08
533.1	8.09
533.299	8.16
533.499	8.15
533.698	8.2
533.898	8.2
534.097	8.24
534.297	8.25
534.496	8.26
534.696	8.23
534.895	8.27
535.095	8.26
535.294	8.26
535.494	8.27
535.693	8.31
535.892	8.37
536.092	8.41
536.291	8.43
536.491	8.47
536.69	8.53
536.889	8.55
537.088	8.56
537.288	8.63
537.487	8.64
537.686	8.7
537.886	8.73
538.085	8.77
538.284	8.79
538.483	8.85
538.682	8.83
538.882	8.87
539.081	8.88
539.28	8.88
539.479	8.92
539.678	8.95
539.877	8.99
540.076	9.03
540.275	9.06
540.474	9.05
540.673	9.08
540.872	9.1
541.071	9.17
541.27	9.16
541.469	9.21
541.668	9.23
541.867	9.28
542.066	9.35
542.265	9.39
542.464	9.4
542.663	9.46
542.862	9.48
543.06	9.55
543.259	9.58
543.458	9.63
543.657	9.67
543.856	9.71
544.054	9.76
544.253	9.8
544.452	9.8
544.651	9.86
544.849	9.86
545.048	9.9
545.247	9.95
545.445	9.96
545.644	10.01
545.843	10.07
546.041	10.13
546.24	10.23
546.438	10.31
546.637	10.41
546.836	10.49
547.034	10.55
547.233	10.65
547.431	10.69
547.63	10.73
547.828	10.76
548.027	10.77
548.225	10.84
548.423	10.88
548.622	10.93
548.82	11.01
549.019	11.06
549.217	11.13
549.415	11.2
549.614	11.24
549.812	11.3
550.01	11.33
550.209	11.37
550.407	11.47
550.605	11.58
550.803	11.65
551.002	11.76
551.2	11.87
551.398	11.93
551.596	12.05
551.794	12.14
551.993	12.16
552.191	12.29
552.389	12.41
552.587	12.46
552.785	12.59
552.983	12.65
553.181	12.68
553.379	12.79
553.577	12.85
553.775	12.92
553.973	13.05
554.171	13.11
554.369	13.21
554.567	13.35
554.765	13.42
554.963	13.53
555.161	13.61
555.359	13.68
555.557	13.79
555.755	13.89
555.952	13.95
556.15	14.05
556.348	14.12
556.546	14.17
556.744	14.29
556.941	14.39
557.139	14.54
557.337	14.64
557.535	14.76
557.732	14.88
557.93	15.01
558.128	15.04
558.325	15.16
558.523	15.24
558.721	15.36
558.918	15.5
559.116	15.57
559.313	15.75
559.511	15.87
559.708	15.97
559.906	16.02
560.104	16.15
560.301	16.22
560.498	16.3
560.696	16.32
560.893	16.46
561.091	16.57
561.288	16.73
561.486	16.83
561.683	16.95
561.88	17.15
562.078	17.28
562.275	17.41
562.473	17.54
562.67	17.64
562.867	17.76
563.064	17.9
563.262	18.01
563.459	18.15
563.656	18.32
563.853	18.44
564.051	18.53
564.248	18.63
564.445	18.73
564.642	18.82
564.839	18.96
565.036	19.03
565.234	19.19
565.431	19.32
565.628	19.48
565.825	19.61
566.022	19.66
566.219	19.75
566.416	19.93
566.613	20.05
566.81	20.12
567.007	20.16
567.204	20.25
567.401	20.42
567.598	20.5
567.795	20.57
567.991	20.64
568.188	20.76
568.385	20.9
568.582	21.03
568.779	21.1
568.976	21.21
569.172	21.28
569.369	21.34
569.566	21.38
569.763	21.43
569.96	21.46
570.156	21.54
570.353	21.63
570.55	21.67
570.746	21.75
570.943	21.95
571.14	21.98
571.336	22.06
571.533	22.17
571.729	22.2
571.926	22.28
572.123	22.36
572.319	22.37
572.516	22.48
572.712	22.56
572.909	22.6
573.105	22.65
573.302	22.68
573.498	22.69
573.695	22.69
573.891	22.74
574.087	22.78
574.284	22.76
574.48	22.83
574.677	22.89
574.873	22.98
575.069	23.08
575.266	23.11
575.462	23.14
575.658	23.21
575.854	23.23
576.051	23.29
576.247	23.27
576.443	23.29
576.639	23.28
576.835	23.29
577.032	23.3
577.228	23.31
577.424	23.31
577.62	23.28
577.816	23.26
578.012	23.28
578.208	23.32
578.404	23.33
578.6	23.35
578.796	23.38
578.993	23.41
579.189	23.42
579.384	23.4
579.58	23.39
579.776	23.36
579.972	23.35
580.168	23.3
580.364	23.33
580.56	23.3
580.756	23.31
580.952	23.32
581.148	23.29
581.343	23.31
581.539	23.28
581.735	23.2
581.931	23.23
582.127	23.19
582.322	23.2
582.518	23.16
582.714	23.1
582.909	23.12
583.105	23.14
583.301	23.12
583.496	23.15
583.692	23.07
583.888	23.11
584.083	23.15
584.279	23.12
584.474	23.09
584.67	23.13
584.866	23.13
585.061	23.16
585.257	23.21
585.452	23.15
585.648	23.23
585.843	23.26
586.039	23.24
586.234	23.18
586.429	23.22
586.625	23.21
586.82	23.21
587.015	23.19
587.211	23.2
587.406	23.22
587.601	23.26
587.797	23.2
587.992	23.17
588.187	23.23
588.383	23.21
588.578	23.16
588.773	23.11
588.968	23.16
589.163	23.23
589.359	23.26
589.554	23.26
589.749	23.29
589.944	23.35
590.139	23.44
590.334	23.42
590.529	23.51
590.724	23.58
590.919	23.67
591.114	23.7
591.309	23.75
591.504	23.76
591.699	23.83
591.894	23.79
592.089	23.8
592.284	23.76
592.479	23.78
592.674	23.85
592.869	23.88
593.064	24.03
593.259	24.08
593.454	24.16
593.648	24.24
593.843	24.32
594.038	24.4
594.233	24.48
594.428	24.5
594.622	24.64
594.817	24.7
595.012	24.79
595.206	24.88
595.401	24.95
595.596	25.04
595.79	25.09
595.985	25.11
596.18	25.18
596.374	25.25
596.569	25.36
596.763	25.46
596.958	25.54
597.153	25.62
597.347	25.72
597.542	25.83
597.736	25.91
597.931	25.97
598.125	26.06
598.319	26.12
598.514	26.19
598.708	26.3
598.903	26.41
599.097	26.54
599.291	26.6
599.486	26.67
599.68	26.69
599.874	26.82
600.069	26.84
600.263	26.84
600.457	26.85
600.651	26.92
600.846	26.95
601.04	27.03
601.234	27.08
601.428	27.12
601.622	27.14
601.817	27.23
602.011	27.23
602.205	27.27
602.399	27.33
602.593	27.32
602.787	27.4
602.981	27.42
603.175	27.35
603.369	27.35
603.563	27.34
603.757	27.29
603.951	27.24
604.145	27.2
604.339	27.23
604.533	27.26
604.727	27.27
604.921	27.21
605.115	27.21
605.309	27.21
605.502	27.16
605.696	27.06
605.89	27.06
606.084	27.02
606.278	27.04
606.471	27.01
606.665	26.95
606.859	26.85
607.053	26.83
607.246	26.76
607.44	26.69
607.634	26.62
607.827	26.53
608.021	26.48
608.214	26.51
608.408	26.44
608.602	26.38
608.795	26.33
608.989	26.3
609.182	26.32
609.376	26.22
609.569	26.14
609.763	26.19
609.956	26.08
610.15	26.01
610.343	25.9
610.537	25.77
610.73	25.76
610.923	25.63
611.117	25.41
611.31	25.34
611.504	25.26
611.697	25.19
611.89	25.09
612.083	24.92
612.277	24.83
612.47	24.8
612.663	24.76
612.856	24.62
613.05	24.56
613.243	24.47
613.436	24.47
613.629	24.44
613.822	24.33
614.015	24.18
614.209	24.17
614.402	24.08
614.595	24.01
614.788	23.86
614.981	23.73
615.174	23.69
615.367	23.62
615.56	23.52
615.753	23.45
615.946	23.43
616.139	23.38
616.332	23.28
616.525	23.2
616.718	23.14
616.911	23.08
617.103	22.98
617.296	22.89
617.489	22.89
617.682	22.93
617.875	22.89
618.067	22.85
618.26	22.81
618.453	22.77
618.646	22.72
618.838	22.69
619.031	22.63
619.224	22.62
619.417	22.61
619.609	22.58
619.802	22.61
619.994	22.6
620.187	22.51
620.38	22.47
620.572	22.42
620.765	22.31
620.957	22.22
621.15	22.19
621.342	22.16
621.535	22.13
621.727	22.11
621.92	22.07
622.112	22.11
622.305	22.1
622.497	22.03
622.69	21.99
622.882	21.99
623.074	21.9
623.267	21.83
623.459	21.83
623.651	21.77
623.844	21.78
624.036	21.78
624.228	21.76
624.42	21.8
624.613	21.83
624.805	21.77
624.997	21.78
625.189	21.74
625.381	21.62
625.574	21.57
625.766	21.53
625.958	21.46
626.15	21.45
626.342	21.38
626.534	21.32
626.726	21.35
626.918	21.25
627.11	21.18
627.302	21.17
627.494	21.1
627.686	21.11
627.878	21.05
628.07	20.97
628.262	20.96
628.454	20.96
628.646	20.85
628.838	20.78
629.029	20.69
629.221	20.68
629.413	20.64
629.605	20.63
629.797	20.59
629.989	20.56
630.18	20.53
630.372	20.54
630.564	20.52
630.755	20.49
630.947	20.42
631.139	20.33
631.33	20.31
631.522	20.28
631.714	20.22
631.905	20.15
632.097	20.11
632.289	20.12
632.48	20.07
632.672	20.04
632.863	20.02
633.055	20.03
633.246	20.03
633.438	20.01
633.629	20
633.821	20.07
634.012	20.08
634.203	20.12
634.395	20.13
634.586	20.11
634.777	20.09
634.969	20.03
635.16	19.96
635.351	19.91
635.543	19.9
635.734	19.84
635.925	19.83
636.117	19.85
636.308	19.87
636.499	19.85
636.69	19.91
636.881	19.89
637.073	19.88
637.264	19.83
637.455	19.79
637.646	19.8
637.837	19.84
638.028	19.83
638.219	19.77
638.41	19.76
638.601	19.81
638.792	19.78
638.983	19.7
639.174	19.69
639.365	19.65
639.556	19.67
639.747	19.67
639.938	19.68
640.129	19.63
640.32	19.61
640.511	19.57
640.701	19.49
640.892	19.46
641.083	19.45
641.274	19.41
641.465	19.43
641.655	19.45
641.846	19.41
642.037	19.42
642.228	19.4
642.418	19.33
642.609	19.24
642.8	19.18
642.99	19.08
643.181	19.03
643.372	19
643.562	19.02
643.753	18.97
643.943	18.93
644.134	18.94
644.324	18.99
644.515	19.03
644.705	19
644.896	18.94
645.086	18.93
645.277	18.99
645.467	18.94
645.658	18.93
645.848	18.86
646.038	18.75
646.229	18.7
646.419	18.74
646.61	18.68
646.8	18.61
646.99	18.55
647.18	18.49
647.371	18.53
647.561	18.5
647.751	18.4
647.941	18.37
648.132	18.45
648.322	18.46
648.512	18.56
648.702	18.55
648.892	18.61
649.082	18.58
649.272	18.55
649.462	18.51
649.653	18.48
649.843	18.33
650.033	18.31
650.223	18.25
650.413	18.25
650.603	18.2
650.793	18.11
650.983	18.09
651.172	18.07
651.362	17.99
651.552	17.91
651.742	17.92
651.932	17.87
652.122	17.87
652.312	17.71
652.502	17.64
652.691	17.61
652.881	17.55
653.071	17.42
653.261	17.39
653.45	17.29
653.64	17.27
653.83	17.21
654.019	17.03
654.209	16.94
654.399	16.8
654.588	16.64
654.778	16.53
654.968	16.35
655.157	16.19
655.347	16.07
655.536	15.8
655.726	15.69
655.915	15.49
656.105	15.32
656.294	15.19
656.484	15.05
656.673	14.96
656.863	14.86
657.052	14.7
657.241	14.62
657.431	14.43
657.62	14.22
657.809	14.03
657.999	13.82
658.188	13.65
658.377	13.5
658.567	13.28
658.756	13.1
658.945	12.98
659.134	12.78
659.324	12.6
659.513	12.39
659.702	12.12
659.891	11.92
660.08	11.75
660.269	11.54
660.458	11.34
660.648	11.16
660.837	11.05
661.026	10.97
661.215	10.82
661.404	10.67
661.593	10.53
661.782	10.39
661.971	10.26
662.16	10.08
662.349	9.86
662.538	9.72
662.726	9.52
662.915	9.39
663.104	9.21
663.293	9.04
663.482	8.92
663.671	8.83
663.86	8.74
664.048	8.65
664.237	8.57
664.426	8.55
664.615	8.46
664.803	8.32
664.992	8.28
665.181	8.15
665.369	8.04
665.558	7.94
665.747	7.87
665.935	7.85
666.124	7.84
666.312	7.67
666.501	7.57
666.69	7.54
666.878	7.45
667.067	7.42
667.255	7.37
667.444	7.34
667.632	7.33
667.82	7.3
668.009	7.3
668.197	7.28
668.386	7.16
668.574	7.07
668.762	7.01
668.951	7.02
669.139	7.05
669.327	7.01
669.516	7.03
669.704	7.05
669.892	7.01
670.08	6.98
670.269	6.94
670.457	6.93
670.645	6.91
670.833	6.9
671.021	6.87
671.21	6.91
671.398	6.95
671.586	7
671.774	6.99
671.962	7.01
672.15	6.99
672.338	7.08
672.526	7.14
672.714	7.18
672.902	7.17
673.09	7.23
673.278	7.27
673.466	7.41
673.654	7.44
673.842	7.46
674.03	7.48
674.218	7.53
674.405	7.65
674.593	7.72
674.781	7.73
674.969	7.81
675.157	7.85
675.344	7.91
675.532	8.01
675.72	7.95
675.908	8.02
676.095	8.16
676.283	8.17
676.471	8.27
676.658	8.4
676.846	8.47
677.033	8.59
677.221	8.63
677.409	8.65
677.596	8.81
677.784	8.88
677.971	8.88
678.159	8.91
678.346	9.03
678.534	9.15
678.721	9.24
678.909	9.35
679.096	9.46
679.283	9.69
679.471	9.88
679.658	10.01
679.846	10.11
680.033	10.27
680.22	10.3
680.408	10.36
680.595	10.39
680.782	10.49
680.969	10.53
681.157	10.67
681.344	10.77
681.531	10.96
681.718	11.21
681.905	11.39
682.093	11.57
682.28	11.82
682.467	11.92
682.654	12.11
682.841	12.2
683.028	12.44
683.215	12.65
683.402	12.78
683.589	12.98
683.776	13.31
683.963	13.5
684.15	13.81
684.337	13.96
684.524	14.18
684.711	14.47
684.898	14.73
685.085	14.93
685.271	15.15
685.458	15.44
685.645	15.74
685.832	16.15
686.019	16.51
686.205	16.85
686.392	17.23
686.579	17.55
686.766	17.97
686.952	18.44
687.139	18.72
687.326	19.16
687.512	19.6
687.699	20.06
687.886	20.53
688.072	20.97
688.259	21.37
688.445	21.9
688.632	22.45
688.818	22.9
689.005	23.47
689.191	24.11
689.378	24.67
689.564	25.31
689.751	25.98
689.937	26.46
690.124	27.09
690.31	27.63
690.496	28.22
690.683	28.89
690.869	29.52
691.055	30.16
691.242	30.75
691.428	31.44
691.614	32.23
691.8	32.94
691.987	33.67
692.173	34.41
692.359	35.08
692.545	35.99
692.731	36.75
692.918	37.46
693.104	38.11
693.29	38.86
693.476	39.5
693.662	40.19
693.848	40.82
694.034	41.35
694.22	42.08
694.406	42.89
694.592	43.45
694.778	44.14
694.964	44.76
695.15	45.53
695.336	46.47
695.522	47.02
695.708	47.76
695.894	48.52
696.08	49.18
696.265	49.9
696.451	50.58
696.637	51.22
696.823	51.99
697.009	52.65
697.194	53.31
697.38	53.9
697.566	54.54
697.751	55
697.937	55.64
698.123	56.18
698.308	56.57
698.494	57.08
698.68	57.78
698.865	58.38
699.051	59.09
699.236	59.59
699.422	60.03
699.607	60.56
699.793	61.25
699.978	61.76
700.164	62.13
700.349	62.54
700.535	63.03
700.72	63.65
700.906	64.28
701.091	64.45
701.276	64.98
701.462	65.54
701.647	65.92
701.832	66.28
702.018	66.64
702.203	67.04
702.388	67.48
702.573	67.83
702.759	68.27
702.944	68.84
703.129	69.26
703.314	69.76
703.499	70.2
703.684	70.74
703.87	70.92
704.055	71.13
704.24	71.41
704.425	71.87
704.61	71.97
704.795	72.32
704.98	72.53
705.165	72.99
705.35	73.29
705.535	73.65
705.72	73.87
705.905	74.05
706.09	73.96
706.275	74.19
706.459	74.4
706.644	74.74
706.829	74.88
707.014	74.84
707.199	75.14
707.384	75.64
707.568	75.7
707.753	76.12
707.938	76.32
708.123	76.39
708.307	77.03
708.492	77.36
708.677	77.67
708.861	78.05
709.046	78.02
709.231	78.37
709.415	78.61
709.6	78.51
709.784	78.69
709.969	78.83
710.153	79.28
710.338	79.51
710.522	79.38
710.707	79.39
710.891	79.72
711.076	79.81
711.26	79.87
711.445	79.63
711.629	79.85
711.813	79.89
711.998	80.14
712.182	80.37
712.366	80.66
712.551	80.84
712.735	80.89
712.919	80.97
713.103	81.43
713.288	81.77
713.472	81.73
713.656	81.62
713.84	81.63
714.024	82.27
714.208	82.32
714.393	82.37
714.577	82.32
714.761	82.49
714.945	82.54
715.129	82.59
715.313	82.4
715.497	82.61
715.681	82.79
715.865	82.9
716.049	82.97
716.233	83.39
716.417	83.62
716.601	83.74
716.785	83.64
716.968	83.58
717.152	83.67
717.336	83.67
717.52	83.61
717.704	83.71
717.888	84.06
718.071	84.42
718.255	84.46
718.439	84.56
718.622	84.94
718.806	84.78
718.99	84.98
719.174	84.74
719.357	84.79
719.541	84.97
719.724	85.11
719.908	84.87
720.092	85.31
720.275	85.41
720.459	85.61
720.642	85.5
720.826	85.6
721.009	85.52
721.193	85.63
721.376	85.37
721.559	84.89
721.743	84.88
721.926	84.62
722.11	84.94
722.293	84.59
722.476	84.53
722.66	84.78
722.843	85.38
723.026	85.37
723.21	85.9
723.393	85.77
723.576	86.48
723.759	86.66
723.942	86.88
724.126	86.89
724.309	86.96
724.492	86.91
724.675	86.89
724.858	86.85
725.041	86.87
725.224	86.77
725.407	86.39
725.59	86.6
725.774	86.62
725.957	86.91
726.14	86.9
726.322	86.56
726.505	87.05
726.688	87.72
726.871	88
727.054	88.11
727.237	87.79
727.42	87.92
727.603	88.42
727.786	88.24
727.968	88.16
728.151	88.14
728.334	88.3
728.517	88.64
728.699	89.27
728.882	89.91
729.065	90.02
729.248	90.32
729.43	90.39
729.613	90.62
729.796	90.47
729.978	90.09
730.161	90
730.343	90.34
730.526	90.05
730.708	90.39
730.891	90.11
731.073	90.33
731.256	90.41
731.438	90.6
731.621	90.61
731.803	90.8
731.986	90.62
732.168	90.97
732.35	91.37
732.533	91.63
732.715	91.45
732.898	91.3
733.08	91.52
733.262	91.51
733.444	91.28
733.627	90.83
733.809	90.83
733.991	90.74
734.173	90.52
734.355	90.7
734.538	90.94
734.72	91.36
734.902	91.76
735.084	91.93
735.266	91.96
735.448	92.36
735.63	92.21
735.812	92.05
735.994	91.75
736.176	91.97
736.358	91.56
736.54	91.66
736.722	91.63
736.904	91.65
737.086	91.47
737.268	91.75
737.45	91.66
737.632	91.54
737.814	91.77
737.995	92.08
738.177	92.44
738.359	92.88
738.541	92.81
738.723	92.95
738.904	93.08
739.086	93.39
739.268	94.13
739.449	94.1
739.631	94.07
739.813	93.77
739.994	93.75
740.176	93.96
740.358	93.9
740.539	92.85
740.721	92.55
740.902	92.16
741.084	92.64
741.265	92.6
741.447	92.12
741.628	91.82
741.81	92.27
741.991	92.6
742.172	92.9
742.354	93.37
742.535	93.49
742.717	94.15
742.898	94.45
743.079	94.17
743.261	94.52
743.442	94.85
743.623	94.5
743.804	94.72
743.986	94.41
744.167	93.91
744.348	94.25
744.529	93.21
744.71	92.67
744.891	93.05
745.073	92.59
745.254	93.04
745.435	92.98
745.616	92.73
745.797	93.07
745.978	93.76
746.159	92.86
746.34	93.03
746.521	93.26
746.702	93.72
746.883	93.59
747.064	93.37
747.245	93.93
747.426	94.65
747.606	94.73
747.787	94.42
747.968	94.59
748.149	94.39
748.33	94.93
748.51	94.17
748.691	94.04
748.872	93.97
749.053	94.26
749.233	93.38
749.414	93.44
749.595	92.67
749.775	92.48
749.956	92.15
750.137	92.06
750.317	91.48
750.498	92.6
750.678	93.36
750.859	94.22
751.04	94.4
751.22	94.17
751.4	94.08
751.581	94.52
751.761	93.91
751.942	92.95
752.122	92.95
752.303	92.49
752.483	93.79
752.663	94.41
752.844	94.21
753.024	94.36
753.204	94.51
753.385	93.97
753.565	94.1
753.745	92.49
753.925	92.25
754.106	92.42
754.286	92.66
754.466	93.4
754.646	93.29
754.826	93.46
755.006	93.9
755.187	93.89
755.367	93.48
755.547	93.47
755.727	93.49
755.907	94.03
756.087	93.98
756.267	93.76
756.447	92.9
756.627	92.86
756.807	93.4
756.987	93.65
757.167	93.79
757.346	93.71
757.526	94.02
757.706	94.36
757.886	94.26
758.066	93.27
758.246	92.44
758.425	92.53
758.605	93.2
758.785	93.24
758.965	92.87
759.144	94.06
759.324	94.65
759.504	94.72
759.683	93.83
759.863	93.39
760.043	93.23
760.222	93.08
760.402	92.65
760.581	91.65
760.761	90.69
760.94	90.39
761.12	89.41
761.299	89
761.479	89.71
761.658	89.28
761.838	88.77
762.017	89.98
762.197	91.29
762.376	92.05
762.555	92.34
762.735	91.33
762.914	91.04
763.093	91.47
763.273	91.15
763.452	90.55
763.631	90.17
763.81	89.94
763.99	91.1
764.169	90.42
764.348	91.07
764.527	90.11
764.706	90.49
764.885	90.24
765.064	90.48
765.243	89.27
765.423	90.25
765.602	89.41
765.781	90.34
765.96	89.51
766.139	89.74
766.318	90.67
766.497	91.42
766.676	91.91
766.854	91.7
767.033	91.36
767.212	91.13
767.391	90.99
767.57	90.63
767.749	91.01
767.928	89.25
768.106	89.85
768.285	90.54
768.464	91.22
768.643	91.82
768.821	91.14
769	91.14
769.179	91.38
769.357	91.12
769.536	90.23
769.715	90.04
769.893	89.29
770.072	89.39
770.25	88.65
770.429	89.84
770.607	91.01
770.786	91.53
770.964	90.99
771.143	91.03
771.321	90.28
771.5	90.75
771.678	90.51
771.857	88.63
772.035	88.14
772.213	88.69
772.392	89.19
772.57	90.15
772.748	89.32
772.927	88.96
773.105	90.93
773.283	90.8
773.461	89.7
773.64	88.22
773.818	87.24
773.996	87.84
774.174	87.99
774.352	86.28
774.531	86.12
774.709	87.09
774.887	88.69
775.065	89.48
775.243	89.51
775.421	89.25
775.599	88.93
775.777	89.66
775.955	88.83
776.133	87.91
776.311	87.37
776.489	87.1
776.667	87.6
776.844	87.83
777.022	87.01
777.2	87.48
777.378	87.17
777.556	87.66
777.734	88.04
777.911	87.63
778.089	87.98
778.267	87.01
778.445	86.13
778.622	86.44
778.8	84.46
778.978	83.62
779.155	82.89
779.333	81.69
779.511	82.61
779.688	82.48
779.866	81.78
780.043	83.55
780.221	83.53
780.398	84.05
780.576	85.64
780.753	85.11
780.931	86.17
781.108	88.3
781.286	88.01
781.463	88.26
781.64	87.92
781.818	86.99
781.995	87.89
782.172	87.44
782.35	84.53
782.527	86.12
782.704	84.51
782.882	85.04
783.059	83.49
783.236	83.58
783.413	84.58
783.59	85.91
783.768	83.95
783.945	86.02
784.122	84.44
784.299	86.75
784.476	86.27
784.653	85.57
784.83	84.45
785.007	84.44
785.184	83.32
785.361	84.49
785.538	85.82
785.715	85.25
785.892	83.47
786.069	85.53
786.246	84.27
786.423	86.43
786.6	85.43
786.776	83.91
786.953	84.27
787.13	85.8
787.307	86.54
787.484	88.78
787.66	86.9
787.837	88.6
788.014	87.38
788.191	85.36
788.367	84.84
788.544	84.41
788.721	84.78
788.897	85.64
789.074	84.76
789.25	87.42
789.427	88.52
789.603	91.2
789.78	91.35
789.956	89.99
790.133	88.87
790.309	88.39
790.486	89.01
790.662	89.97
790.839	88.16
791.015	86.66
791.192	85.6
791.368	87.39
791.544	88.65
791.721	82.06
791.897	82.77
792.073	82.67
792.249	83.61
792.426	84.52
792.602	81.98
792.778	80.98
792.954	84.81
793.13	85.19
793.307	83.23
793.483	81.34
793.659	81.28
793.835	83.47
794.011	83.64
794.187	81.35
794.363	81.55
794.539	83.66
794.715	84.95
794.891	83.23
795.067	82.97
795.243	82.89
795.419	84.92
795.595	82.65
795.771	85.03
795.947	84.43
796.122	85.38
796.298	83.89
796.474	85.47
796.65	86.03
796.826	88.69
797.001	85.88
797.177	86.09
797.353	90.6
797.529	89.94
797.704	87.99
797.88	88.21
798.056	88.89
798.231	86.47
798.407	85.87
798.582	82.38
798.758	82.09
798.934	80
799.109	79.23
799.285	78.83
799.46	79.93
799.636	82.25
799.811	82.3
799.986	84.84
800.162	86.99
800.337	86.59
800.513	86.58
800.688	88.61
800.863	87.24
801.039	84.93
801.214	84.79
801.389	83.66
801.565	86.01
801.74	82.79
801.915	81.4
802.09	81.29
802.265	83.34
802.441	81.8
802.616	81.63
802.791	80.65
802.966	83.45
803.141	81.31
803.316	84.27
803.491	79.75
803.666	80.14
803.841	81.02
804.016	80.72
804.191	75.77
804.366	76.85
804.541	73.11
804.716	72.69
804.891	75.87
805.066	76.45
805.241	76.15
805.416	80.17
805.591	82.68
805.765	83.92
805.94	85.52
806.115	81.05
806.29	80.41
806.464	77.83
806.639	77.26
806.814	73.66
806.989	71.08
807.163	73.56
807.338	75.45
807.512	71.63
807.687	72.7
807.862	70.64
808.036	71.33
808.211	76.92
808.385	74.73
808.56	77.99
808.734	82.8
808.909	84.33
809.083	84.73
809.258	89.49
809.432	83.43
809.606	86.26
809.781	82.53
809.955	87.83
810.13	89.98
810.304	88.93
810.478	87.48
810.652	88.52
810.827	89.27
811.001	90.63
811.175	83.59
811.349	81.69
811.524	84.78
811.698	81.5
811.872	80.65
812.046	77.44
812.22	72.01
812.394	73.87
812.568	75.36
812.742	73.87
812.916	75.41
813.09	78.16
813.264	79.59
813.438	88.56
813.612	87.13
813.786	87.45
813.96	86.36
814.134	87.94
814.308	84.03
814.482	84.17
814.656	83.5
814.83	82.29
815.003	80.89
815.177	85.71
815.351	87.71
815.525	87.14
815.698	86.55
815.872	81.17
816.046	82.63
816.219	82.61
816.393	77.42
816.567	71
816.74	77.01
816.914	80.75
817.088	82.62
817.261	82.51
817.435	76.96
817.608	77.63
817.782	83.73
817.955	78.65
818.129	81.93
818.302	81.53
818.475	82.8
818.649	86.7
818.822	87.66
818.996	84.73
819.169	85.64
819.342	79.81
819.516	78.37
819.689	78.55
819.862	73.07
820.035	69.03
820.209	68.72
820.382	64.91
820.555	69.54
820.728	68.77
820.901	63.53
821.075	68.38
821.248	70.6
821.421	63.68
821.594	68.5
821.767	59.46
821.94	56.93
822.113	61.67
822.286	61.74
822.459	69.24
822.632	83.25
822.805	81.91
822.978	84.64
823.151	91.84
823.324	86.83
823.496	83.28
823.669	80.58
823.842	78.45
824.015	75.94
824.188	78.92
824.361	77.31
824.533	74.88
824.706	87.57
824.879	77.91
825.051	73.5
825.224	74.93
825.397	74.88
825.569	77.84
825.742	85.63
825.915	79.47
826.087	78.27
826.26	83.35
826.432	94.41
826.605	85.86
826.777	89.54
826.95	82.92
827.122	80.17
827.295	84.59
827.467	76.57
827.64	67.98
827.812	74.36
827.984	74.52
828.157	75.61
828.329	75.92
828.501	71.06
828.674	72.98
828.846	69.35
829.018	67.74
829.19	52.32
829.363	51.46
829.535	53.78
829.707	54.71
829.879	55.84
830.051	60.53
830.223	56.11
830.395	60.07
830.568	66.75
830.74	68.54
830.912	69.84
831.084	68.07
831.256	62.95
831.428	68.58
831.6	67.94
831.772	61.93
831.943	67.57
832.115	68.81
832.287	69.26
832.459	77.52
832.631	72.2
832.803	85.06
832.975	93.71
833.146	85.41
833.318	82.11
833.49	90.77
833.662	89.87
833.833	93.84
834.005	92.28
834.177	87.46
834.348	86.8
834.52	97.63
834.692	86.41
834.863	83.84
835.035	80.41
835.206	66.3
835.378	63.76
835.549	65.48
835.721	52.97
835.892	57.57
836.064	60.37
836.235	65.88
836.407	68.07
836.578	73.08
836.749	72.89
836.921	81.44
837.092	89.38
837.264	80.92
837.435	67.26
837.606	69.21
837.777	59.74
837.949	58.59
838.12	57.06
838.291	58.42
838.462	60.3
838.633	67.13
838.805	68.78
838.976	72.44
839.147	67.92
839.318	64.74
839.489	50.95
839.66	63.99
839.831	60.79
840.002	54.45
840.173	53.04
840.344	60.91
840.515	64.67
840.686	72.44
840.857	59.91
841.028	55.11
841.199	57.2
841.369	59.6
841.54	61.16
841.711	64.61
841.882	60.33
842.053	68.95
842.223	91.35
842.394	75.69
842.565	79.58
842.736	70.13
842.906	67.72
843.077	66.66
843.248	62.86
843.418	57.97
843.589	67.92
843.759	61.78
843.93	73.3
844.101	69.15
844.271	76.63
844.442	81.54
844.612	75.79
844.783	53.1
844.953	54.8
845.123	53.42
845.294	56.09
845.464	57.91
845.635	49.64
845.805	67.46
845.975	81.53
846.146	67.61
846.316	68.04
846.486	64.73
846.656	63.45
846.827	64.97
846.997	71.34
847.167	70.99
847.337	87.89
847.507	86.99
847.677	96.56
847.848	103.77
848.018	99.47
848.188	86.67
848.358	99.44
848.528	107.33
848.698	88.65
848.868	82.74
849.038	74.63
849.208	86.35
849.378	81.99
849.548	90.05
849.718	67.22
849.887	64.71
850.057	50.75
850.227	49.98
850.397	30.7
850.567	31.72
850.737	20.4
850.906	31.11
851.076	43.96
851.246	54.79
851.415	57.93
851.585	67.68
851.755	76
851.924	80.89
852.094	76.82
852.264	71.25
852.433	85.79
852.603	93.19
852.772	90.31
852.942	72.24
853.111	72.03
853.281	74.02
853.45	74.97
853.62	59.86
853.789	49.98
853.959	47.58
854.128	45.43
854.297	40.54
854.467	40.28
854.636	36.37
854.805	41.75
854.975	39.25
855.144	41.24
855.313	45.04
855.482	55.1
855.652	44.22
855.821	44.75
855.99	53.49
856.159	54.05
856.328	52.8
856.497	53.76
856.667	47.48
856.836	55.56
857.005	56.03
857.174	61.26
857.343	69.41
857.512	66.32
857.681	53.61
857.85	50.51
858.019	55.14
858.188	57.99
858.356	23.52
858.525	25.77
858.694	36.88
858.863	50.51
859.032	47.33
859.201	22.51
859.369	37.44
859.538	31.69
859.707	26.53
859.876	33.54
860.044	32.27
860.213	53.05
860.382	66.65
860.55	59.33
860.719	78.08
860.888	78.51
861.056	75.23
861.225	75.93
861.393	80.78
861.562	75.92
861.73	84.83
861.899	76.2
862.067	82.77
862.236	77.64
862.404	70.05
862.572	60.62
862.741	55.83
862.909	49.65
863.078	41.19
863.246	46.13
863.414	32.26
863.582	42.04
863.751	21.93
863.919	51.46
864.087	57.18
864.255	69.69
864.424	57.39
864.592	79.23
864.76	78.12
864.928	85.1
865.096	67.75
865.264	63.9
865.432	60.74
865.6	53.46
865.768	45.96
865.936	25.5
866.104	18.96
866.272	0.84
866.44	-27.38
866.608	-25.38
866.776	0.96
866.944	-31.74
867.112	-22.56
867.28	-50.55
867.448	10.68
867.615	39.68
867.783	21.33
867.951	62.37
868.119	88.71
868.286	81.69
868.454	84.3
868.622	79.3
868.789	77.24
868.957	105.46
869.125	74.54
869.292	76.01
869.46	78.76
869.627	73.06
869.795	65.48
869.963	55.31
870.13	50.9
870.298	42.62
870.465	22.37
870.632	55.49
870.8	59.86
870.967	60.34
871.135	56.6
871.302	56.33
871.469	67.49
871.637	67.93
871.804	49.98
871.971	47.44
872.139	45.65
872.306	41.84
872.473	16.75
872.64	9.48
872.807	-18.99
872.975	-6.17
873.142	0.98
873.309	9.82
873.476	71.97
873.643	119.71
873.81	135.85
873.977	117.19
874.144	142.52
874.311	94.88
874.478	22.35
874.645	15.83
874.812	33.28
874.979	22.39
875.146	11.83
875.313	-32.93
875.48	28.12
875.647	66.28
875.813	44.01
875.98	-10.42
876.147	43.17
876.314	62.12
876.481	60.52
876.647	52.76
876.814	61.76
876.981	52.6
877.147	47.42
877.314	44.63
877.481	45.69
877.647	57.96
877.814	45.05
877.98	55.28
878.147	73.64
878.314	96.95
878.48	74.62
878.647	94.72
878.813	86.27
878.979	128.71
879.146	72.39
879.312	77.57
879.479	67.54
879.645	70.94
879.811	52.72
879.978	77.12
880.144	63.18
880.31	98.27
880.477	82.39
880.643	201.76
880.809	179.19
880.975	132.06
881.142	85.17
881.308	83.8
881.474	105.87
881.64	41.26
881.806	36.36
881.972	29.4
882.138	56.59
882.304	-3.94
882.47	36.27
882.636	-19.75
882.802	36.17
882.968	13.93
883.134	26.38
883.3	33.39
883.466	92.87
883.632	74.42
883.798	87.33
883.964	100.48
884.129	108.27
884.295	74.91
884.461	99.76
884.627	136.01
884.793	116.16
884.958	112.63
885.124	107.04
885.29	80.15
885.455	74.66
885.621	49.44
885.787	39.95
885.952	18.76
886.118	41.91
886.283	40.09
886.449	21.75
886.614	44.54
886.78	58.31
886.945	40.63
887.111	70.11
887.276	31.64
887.442	41.06
887.607	50.64
887.773	30.15
887.938	29.06
888.103	45.9
888.269	44.89
888.434	56.27
888.599	56.92
888.764	61.08
888.93	58.72
889.095	59.85
889.26	83.87
889.425	106.61
889.59	72.12
889.756	57.14
889.921	53.16
890.086	42.16
890.251	25.28
890.416	-25.87
890.581	-65.3
890.746	-60.14
890.911	-62.92
891.076	-92.52
891.241	-91.39
891.406	9.94
891.571	31.51
891.736	40.37
891.901	73.85
892.065	72.85
892.23	59.71
892.395	45.98
892.56	17.66
892.725	16.4
892.889	-8.94
893.054	-37.92
893.219	-66.91
893.384	-77
893.548	-146.67
893.713	126.73
893.878	148.91
