Data from Ofra_2a_PS_6CX18_Reflection_2.txt Node
Date: Tue Jul 20 09:52:07 EDT 2021
User: Adam
Spectrometer: FLMT01687
Trigger mode: 0
Integration Time (sec): 9.450000E-1
Scans to average: 3
Electric dark correction enabled: true
Nonlinearity correction enabled: false
Boxcar width: 3
XAxis mode: Wavelengths
Number of Pixels in Spectrum: 3648
>>>>>Begin Spectral Data<<<<<
179.494	1275.15
179.716	722.71
179.937	934.07
180.158	3796.09
180.38	-2015.7
180.601	-414.68
180.823	-183.15
181.044	-90.64
181.265	-80.14
181.486	152.22
181.708	1958.7
181.929	120.23
182.15	498.86
182.372	-91.16
182.593	-43.32
182.814	273.35
183.035	145.25
183.257	62.62
183.478	44.86
183.699	43.31
183.92	28.57
184.141	32.99
184.363	17.76
184.584	12.88
184.805	22.63
185.026	17.42
185.247	-14.47
185.468	-2.29
185.689	1.34
185.91	-2.48
186.132	-1.73
186.353	-27.22
186.574	-7.63
186.795	-11.41
187.016	-15.95
187.237	-6.05
187.458	-28.93
187.679	-49.71
187.9	-28.37
188.121	-34.8
188.342	-4
188.563	1.83
188.784	-9.59
189.005	16.81
189.226	13.29
189.447	5.97
189.667	-4.77
189.888	9.25
190.109	5.11
190.33	-24.86
190.551	-19.49
190.772	-8.12
190.993	10.37
191.214	14.97
191.434	1.08
191.655	2.81
191.876	27.37
192.097	15.61
192.318	19.8
192.538	19.95
192.759	26.23
192.98	19.67
193.201	43.46
193.421	41.22
193.642	30.62
193.863	13.45
194.083	-10.57
194.304	-16.87
194.525	11.23
194.745	-38.4
194.966	-30.86
195.187	-5.77
195.407	-5.77
195.628	7.23
195.848	-2.77
196.069	-14.45
196.29	-6.37
196.51	-14.37
196.731	-17.19
196.951	-11.75
197.172	-33.72
197.392	-6.56
197.613	-21.21
197.833	-16.31
198.054	-27.59
198.274	-44.14
198.495	-48.11
198.715	-43.95
198.936	-65.78
199.156	-44.04
199.377	-35.79
199.597	-20.42
199.817	-28.37
200.038	-16.88
200.258	-7.6
200.479	-11.61
200.699	-1.57
200.919	-35.91
201.14	-33.88
201.36	-24.14
201.58	-20.01
201.801	-23.61
202.021	-12.42
202.241	-11.97
202.461	14.2
202.682	22.32
202.902	17.98
203.122	6.67
203.342	18.29
203.563	19.22
203.783	9.06
204.003	10.59
204.223	11.74
204.443	12.73
204.663	17.7
204.884	-4.48
205.104	-7.93
205.324	4.96
205.544	5.66
205.764	-6.86
205.984	6.36
206.204	7.49
206.424	16.55
206.644	13.56
206.864	6.58
207.084	10.52
207.304	11.49
207.525	-5.11
207.745	2.98
207.964	1.95
208.184	11.92
208.404	19.53
208.624	2.55
208.844	-9.74
209.064	6.56
209.284	6.2
209.504	14.01
209.724	-23.73
209.944	-44.9
210.164	-25.63
210.384	-4.09
210.604	-30.9
210.823	-40.33
211.043	-52.82
211.263	-19.52
211.483	-15.68
211.703	-16.77
211.922	-18.14
212.142	-3.56
212.362	-0.81
212.582	-1.6
212.801	-5
213.021	4.92
213.241	-0.81
213.461	-11.31
213.68	-3.46
213.9	7.84
214.12	5.08
214.339	4.73
214.559	3.74
214.779	0.89
214.998	7.3
215.218	-10.5
215.438	-9.06
215.657	3.13
215.877	5.76
216.096	3.78
216.316	-0.64
216.535	5.99
216.755	2.21
216.974	-0.69
217.194	-9.26
217.413	6.27
217.633	7.09
217.852	13.1
218.072	-1.97
218.291	24.97
218.511	15.41
218.73	8.59
218.95	-1.55
219.169	2.24
219.389	4.6
219.608	16.36
219.827	-2.4
220.047	0.62
220.266	7.36
220.485	11.49
220.705	1.76
220.924	6.3
221.143	-7.03
221.363	-5.46
221.582	3.7
221.801	11.53
222.021	6.44
222.24	12.16
222.459	9.79
222.678	13.04
222.897	-1.61
223.117	-10.59
223.336	-11.06
223.555	-23.96
223.774	-10.48
223.993	-11.56
224.213	-13.89
224.432	-10.49
224.651	-16.92
224.87	-16.77
225.089	1.35
225.308	-3.82
225.527	-8.1
225.746	4.23
225.965	-4.99
226.184	-9.79
226.404	-19.15
226.623	-24.2
226.842	-26.16
227.061	-14.06
227.28	-13.84
227.499	18.26
227.718	16.01
227.936	11.36
228.155	10.78
228.374	7.86
228.593	10.88
228.812	9.72
229.031	-8.18
229.25	4.49
229.469	12.75
229.688	19.27
229.907	15.98
230.125	11.41
230.344	15.3
230.563	23.38
230.782	11.27
231.001	15.34
231.22	8.69
231.438	28.22
231.657	31.44
231.876	21.83
232.095	16.38
232.313	18.92
232.532	22.69
232.751	26.7
232.969	18.38
233.188	15.09
233.407	19.56
233.625	23.44
233.844	37.55
234.063	32.01
234.281	25
234.5	24.7
234.719	20.92
234.937	24.45
235.156	13.75
235.374	-9.41
235.593	-5.39
235.811	-32.28
236.03	-61.29
236.249	-44.07
236.467	-36.87
236.686	-20.06
236.904	-13.56
237.123	-19.56
237.341	1.4
237.559	7.99
237.778	15.24
237.996	11.39
238.215	7.41
238.433	15.6
238.652	15.63
238.87	14.6
239.088	5.42
239.307	0.55
239.525	-4.44
239.743	-9.39
239.962	-8.67
240.18	-4.54
240.398	-1.52
240.617	14.13
240.835	10.98
241.053	19.18
241.271	19.5
241.49	3.36
241.708	2.85
241.926	-2.57
242.144	-1.07
242.363	1.01
242.581	3.62
242.799	-0.91
243.017	13.04
243.235	4.34
243.453	8.57
243.672	-4.73
243.89	-5.3
244.108	-2.18
244.326	-7.26
244.544	5.19
244.762	18.15
244.98	9.82
245.198	6.41
245.416	1.66
245.634	1.91
245.852	4.35
246.07	-4
246.288	-26.08
246.506	-20.58
246.724	-7.98
246.942	5.18
247.16	-4.14
247.378	-7.36
247.596	-13.87
247.814	-15.15
248.032	-9.12
248.25	-21.49
248.468	-20.51
248.685	-9.73
248.903	-12.75
249.121	-8.17
249.339	4.48
249.557	-0.97
249.775	-8.6
249.992	-14.03
250.21	-27.99
250.428	-24.67
250.646	-23.72
250.863	-29.06
251.081	-26.59
251.299	-4.21
251.517	-7.2
251.734	6.62
251.952	17.96
252.17	-0.24
252.387	1.41
252.605	-8.9
252.823	-26.42
253.04	-21.01
253.258	-28.58
253.475	-27.81
253.693	-3.25
253.911	5.17
254.128	0.5
254.346	1.41
254.563	-6.63
254.781	-4.02
254.998	4.38
255.216	5.45
255.433	-8
255.651	-4.67
255.868	4.64
256.086	7.07
256.303	3.79
256.521	-17.55
256.738	-23.48
256.956	-16.37
257.173	-10.06
257.39	-9.09
257.608	1.66
257.825	1.62
258.043	15.3
258.26	11.7
258.477	12.72
258.695	15.2
258.912	19.8
259.129	7.9
259.346	10.28
259.564	0.32
259.781	10.82
259.998	19.41
260.216	23.89
260.433	10.19
260.65	24.04
260.867	14.32
261.084	22.42
261.302	17.03
261.519	5.13
261.736	4.5
261.953	15.3
262.17	2.93
262.387	1.16
262.604	-22.86
262.822	-17.73
263.039	-17.23
263.256	-18.76
263.473	-29.55
263.69	-29.48
263.907	-17.62
264.124	-5.52
264.341	-10.92
264.558	-7.32
264.775	-9.98
264.992	-8.67
265.209	-1.43
265.426	-2.38
265.643	-4.02
265.86	-5.41
266.077	-4.04
266.294	-6.12
266.51	2.87
266.727	-5.7
266.944	-12.34
267.161	-14.74
267.378	-10.85
267.595	-16.18
267.812	-16.58
268.028	-27.05
268.245	-34.69
268.462	-22.92
268.679	-24.35
268.896	-24.15
269.112	-10.31
269.329	-1.56
269.546	-1.36
269.763	12.91
269.979	7.6
270.196	14.4
270.413	16.72
270.629	8.82
270.846	6.17
271.063	4.69
271.279	0.78
271.496	-11.49
271.712	-11.33
271.929	-13.94
272.146	-13.81
272.362	-37.18
272.579	-30.11
272.795	-41.53
273.012	-19.18
273.228	-15.13
273.445	-10.95
273.661	-17.75
273.878	-0.94
274.094	2.89
274.311	5.72
274.527	1.78
274.744	-3.65
274.96	-0.3
275.177	14.98
275.393	16.32
275.609	19.41
275.826	27.15
276.042	30.6
276.259	31.26
276.475	20.05
276.691	17.91
276.908	11.86
277.124	9.88
277.34	5.75
277.557	8.72
277.773	0.77
277.989	-4.27
278.205	-17.88
278.422	-7.31
278.638	-7.61
278.854	-7.03
279.07	-18.8
279.286	-18.66
279.503	-10.76
279.719	4.93
279.935	-4.5
280.151	-0.55
280.367	-1.74
280.583	0.76
280.799	14.31
281.016	14.34
281.232	5.72
281.448	-1.92
281.664	-9.48
281.88	-5.75
282.096	-2.65
282.312	-29.17
282.528	-53.15
282.744	-42.18
282.96	-27.84
283.176	-16.73
283.392	-12.3
283.608	-9.13
283.824	-6.29
284.04	14.47
284.256	11
284.471	13.44
284.687	7.3
284.903	-1.56
285.119	-16.43
285.335	-9.03
285.551	-13.98
285.767	-20.73
285.982	-17.91
286.198	-17.98
286.414	-3.94
286.63	9.45
286.846	10.42
287.061	12.39
287.277	19.61
287.493	21.63
287.709	15.3
287.924	18.41
288.14	11.93
288.356	18.01
288.571	2.9
288.787	8.02
289.003	3.35
289.218	9.39
289.434	-1.47
289.65	13.4
289.865	23.99
290.081	28.97
290.296	28.07
290.512	35.32
290.727	38.71
290.943	38.07
291.159	20.76
291.374	12.74
291.59	14.96
291.805	2.66
292.021	-9.32
292.236	-11.5
292.451	-15.75
292.667	-14.53
292.882	-19.36
293.098	-22.7
293.313	-15.81
293.529	-14.88
293.744	-18.41
293.959	-11.06
294.175	-12.66
294.39	-6.65
294.605	3.49
294.821	-3.24
295.036	-2.22
295.251	0.9
295.467	-4.02
295.682	8.61
295.897	-0.13
296.112	-4.75
296.328	-1.92
296.543	-11.74
296.758	-3.22
296.973	-1.01
297.188	-4.34
297.404	-2.87
297.619	-2.22
297.834	9.08
298.049	16.04
298.264	9.48
298.479	2.17
298.694	9.51
298.909	3.21
299.125	1.37
299.34	-5.69
299.555	-0.25
299.77	-4.66
299.985	-8.46
300.2	-10.95
300.415	-1.37
300.63	-4.63
300.845	2.48
301.06	4.09
301.275	14.28
301.49	23.65
301.704	22.94
301.919	21.46
302.134	19.88
302.349	10.27
302.564	4.7
302.779	-4.87
302.994	-3.58
303.209	-16.97
303.423	-10.74
303.638	-6.88
303.853	-2.36
304.068	1.03
304.283	-4.02
304.497	-2.83
304.712	3.25
304.927	-2.63
305.142	-7.69
305.356	-5.65
305.571	-3.57
305.786	-4.64
306	-6.05
306.215	-1.37
306.43	7.85
306.644	13.27
306.859	13.58
307.074	1.18
307.288	13.82
307.503	14.96
307.717	10.34
307.932	11.02
308.147	5.85
308.361	8.4
308.576	14.18
308.79	4.07
309.005	2.55
309.219	5.17
309.434	-6.76
309.648	-13.89
309.863	-21.52
310.077	-28.36
310.292	-29.81
310.506	-16.63
310.72	-18.55
310.935	-19.94
311.149	-4.25
311.364	9.85
311.578	8.8
311.792	9.65
312.007	-0.28
312.221	4.51
312.435	8.01
312.649	-28.59
312.864	-51.83
313.078	-34.31
313.292	-32.23
313.507	-18.62
313.721	-32.95
313.935	-15.06
314.149	21.81
314.363	22.17
314.578	40.98
314.792	43.7
315.006	34.89
315.22	39.79
315.434	32.64
315.648	22.77
315.862	22.5
316.077	10.28
316.291	9
316.505	0.93
316.719	-14.55
316.933	-12.73
317.147	-7.84
317.361	-8.85
317.575	-11.23
317.789	-9.24
318.003	1.02
318.217	11.45
318.431	11.76
318.645	18.95
318.859	14.54
319.073	-0.36
319.287	3.95
319.5	7.25
319.714	9.61
319.928	16.88
320.142	8.41
320.356	27.49
320.57	27.87
320.784	24.3
320.997	24.85
321.211	25.05
321.425	12.28
321.639	15.12
321.853	-1.74
322.066	5.19
322.28	4.08
322.494	-6.51
322.707	-11.95
322.921	-8.36
323.135	-2.34
323.349	1.83
323.562	1.49
323.776	-3.05
323.989	3.06
324.203	12.09
324.417	8.93
324.63	-3.78
324.844	-19.36
325.057	-22.75
325.271	-29.56
325.485	-28.68
325.698	-32.75
325.912	-18.7
326.125	-9.73
326.339	2.48
326.552	14.3
326.766	27.07
326.979	24.35
327.193	19.62
327.406	13.38
327.619	-11.85
327.833	-8.77
328.046	-18.85
328.26	-34.91
328.473	-27.3
328.686	-17.83
328.9	-30.64
329.113	-3.71
329.326	1.56
329.54	6.41
329.753	10.72
329.966	8.34
330.179	6.83
330.393	19.45
330.606	17.18
330.819	16.98
331.032	16.65
331.246	16.4
331.459	19.78
331.672	14.72
331.885	10.1
332.098	9.25
332.311	-10.07
332.525	0.43
332.738	4.73
332.951	3.39
333.164	1.11
333.377	-10.1
333.59	-13.21
333.803	-1.11
334.016	-32.03
334.229	-19.65
334.442	-14.98
334.655	-11.27
334.868	4.6
335.081	16.93
335.294	4.95
335.507	23.98
335.72	-5.73
335.933	-7.64
336.146	-5.13
336.359	-9.34
336.572	-24.16
336.785	-8.49
336.997	-16.03
337.21	0.74
337.423	-7.18
337.636	-5.15
337.849	-2.55
338.062	2.97
338.274	1.87
338.487	-7.48
338.7	0.01
338.913	-2.74
339.125	-5.28
339.338	1.35
339.551	9.04
339.763	5.05
339.976	14.28
340.189	8.13
340.402	13.93
340.614	16.09
340.827	2.77
341.039	-4.44
341.252	-10.35
341.465	-24.25
341.677	-27.77
341.89	-29.28
342.102	-27.72
342.315	-14.08
342.527	-19.15
342.74	-17.78
342.952	-5.87
343.165	-0.53
343.377	5.32
343.59	0.71
343.802	-1.23
344.015	4.77
344.227	3.46
344.44	-2.74
344.652	0.15
344.864	-2.35
345.077	1.83
345.289	-0.07
345.502	1.85
345.714	8.83
345.926	21.42
346.139	11.9
346.351	3.68
346.563	10.38
346.775	0.1
346.988	3.65
347.2	4.37
347.412	-0.35
347.624	3
347.837	2.76
348.049	-3.46
348.261	-2.96
348.473	-13.83
348.685	-15.89
348.897	-19.83
349.11	-14.85
349.322	-16.59
349.534	-22.14
349.746	-9.8
349.958	-9.47
350.17	-13.87
350.382	-15.95
350.594	-16.1
350.806	-4.77
351.018	-1.24
351.23	1.2
351.442	6.62
351.654	14.51
351.866	24.27
352.078	15.89
352.29	10.55
352.502	11.97
352.714	15.74
352.926	10.01
353.138	0.01
353.35	-9.04
353.561	-6.55
353.773	-7.2
353.985	0.01
354.197	-8.27
354.409	-5.41
354.621	1.26
354.832	-6.35
355.044	1.65
355.256	2.44
355.468	-5.03
355.679	2.55
355.891	5.22
356.103	7.34
356.314	19.31
356.526	12.36
356.738	12.96
356.949	20.21
357.161	20.08
357.373	20.8
357.584	31.85
357.796	27.12
358.008	27.03
358.219	37.75
358.431	44.95
358.642	35.03
358.854	32.23
359.065	17.78
359.277	14.04
359.488	16
359.7	12.76
359.911	0.49
360.123	9.31
360.334	7.53
360.546	1.2
360.757	6.82
360.969	8.16
361.18	1.03
361.391	-2.95
361.603	-5.33
361.814	4.51
362.025	10.68
362.237	7.71
362.448	9.59
362.659	-2.33
362.871	4.13
363.082	5.25
363.293	0.89
363.504	0.82
363.716	1.96
363.927	0.01
364.138	14.01
364.349	14.53
364.56	10.32
364.772	6.57
364.983	-1.03
365.194	-4.27
365.405	-8.94
365.616	-23.76
365.827	-29.31
366.038	-14.43
366.25	-12.45
366.461	-3.66
366.672	-6.24
366.883	0.55
367.094	3.48
367.305	6.49
367.516	-7.75
367.727	-11.59
367.938	-15.77
368.149	-8.89
368.36	-7.89
368.571	-6.31
368.781	-8.66
368.992	-0.81
369.203	2.46
369.414	5.4
369.625	3.52
369.836	-0.11
370.047	7.83
370.258	2.42
370.468	-5.77
370.679	-8.37
370.89	2.39
371.101	-1.94
371.312	-0.4
371.522	-8.89
371.733	-13.69
371.944	-9.3
372.155	-13.79
372.365	-22.41
372.576	-17.87
372.787	-23.91
372.997	-18.93
373.208	-2.12
373.419	0.85
373.629	14.2
373.84	9.53
374.05	9.18
374.261	11.28
374.472	5.65
374.682	-3.66
374.893	-15.33
375.103	-15.12
375.314	-9.56
375.524	-4.53
375.735	-0.56
375.945	0.13
376.156	4.49
376.366	13.22
376.577	12.38
376.787	12.26
376.997	9.12
377.208	4.02
377.418	4.44
377.629	6.89
377.839	9.37
378.049	8.99
378.26	7.59
378.47	7.82
378.68	6.54
378.89	1.44
379.101	-5.83
379.311	-12.63
379.521	-9.76
379.732	-19.82
379.942	-22.55
380.152	-16.47
380.362	-5.55
380.572	2.77
380.783	3.1
380.993	-3.45
381.203	4.25
381.413	8.07
381.623	9.93
381.833	7.82
382.043	0.5
382.253	2.26
382.463	3.49
382.674	3.18
382.884	-1.01
383.094	-7.86
383.304	-10.79
383.514	-4.74
383.724	-8.53
383.934	-9.14
384.144	-6.62
384.353	-2.89
384.563	0.45
384.773	2.26
384.983	2.97
385.193	12.34
385.403	15.1
385.613	13.36
385.823	14.37
386.033	12.58
386.242	10.22
386.452	5.25
386.662	0.45
386.872	-0.8
387.082	-2.61
387.291	-5.71
387.501	-3.36
387.711	-0.55
387.921	1.26
388.13	-0.49
388.34	-0.5
388.55	3.33
388.759	3.9
388.969	1.69
389.179	2.19
389.388	2.74
389.598	4.23
389.807	3.06
390.017	2.49
390.227	2.15
390.436	3.61
390.646	3.89
390.855	3.17
391.065	2.48
391.274	2.48
391.484	3.26
391.693	3.75
391.903	4.91
392.112	4.01
392.322	4.59
392.531	4.14
392.74	3.11
392.95	2.55
393.159	3.03
393.369	2.76
393.578	2.18
393.787	2.52
393.997	4.4
394.206	5.22
394.415	5.26
394.625	3.58
394.834	1.96
395.043	2.95
395.252	3.04
395.462	2.62
395.671	3.59
395.88	3.52
396.089	4.56
396.298	5.08
396.508	4.46
396.717	3.86
396.926	3.77
397.135	2.88
397.344	3.07
397.553	3.16
397.762	3.35
397.971	3.18
398.181	2.99
398.39	2.8
398.599	3.6
398.808	3.7
399.017	4
399.226	4.16
399.435	4.34
399.644	4.62
399.853	4.87
400.062	4.39
400.27	4.25
400.479	3.97
400.688	3.82
400.897	4.2
401.106	4.29
401.315	4.14
401.524	4.44
401.733	4.22
401.941	4.11
402.15	3.97
402.359	3.91
402.568	3.88
402.777	3.8
402.985	3.54
403.194	3.9
403.403	3.91
403.612	4.13
403.82	4
404.029	3.9
404.238	4.01
404.446	4
404.655	3.72
404.864	3.67
405.072	3.56
405.281	3.37
405.489	3.47
405.698	3.42
405.906	3.4
406.115	3.58
406.324	3.52
406.532	3.55
406.741	3.7
406.949	3.61
407.158	3.69
407.366	3.78
407.574	3.71
407.783	3.75
407.991	3.65
408.2	3.61
408.408	3.63
408.617	3.51
408.825	3.47
409.033	3.4
409.242	3.41
409.45	3.41
409.658	3.36
409.867	3.34
410.075	3.29
410.283	3.23
410.491	3.18
410.7	3.17
410.908	3.23
411.116	3.2
411.324	3.23
411.533	3.24
411.741	3.19
411.949	3.29
412.157	3.35
412.365	3.33
412.573	3.4
412.781	3.3
412.99	3.39
413.198	3.53
413.406	3.51
413.614	3.45
413.822	3.37
414.03	3.26
414.238	3.39
414.446	3.29
414.654	3.18
414.862	3.11
415.07	3.14
415.278	3.16
415.486	3.31
415.694	3.2
415.902	3.16
416.109	3.25
416.317	3.2
416.525	3.25
416.733	3.36
416.941	3.23
417.149	3.34
417.357	3.41
417.564	3.27
417.772	3.35
417.98	3.2
418.188	3.04
418.395	3.12
418.603	2.96
418.811	2.82
419.019	2.95
419.226	2.91
419.434	2.95
419.642	3.05
419.849	2.99
420.057	3.04
420.265	3.09
420.472	2.96
420.68	2.98
420.887	2.99
421.095	2.98
421.302	2.96
421.51	3.07
421.717	3.13
421.925	3.1
422.132	3.07
422.34	2.98
422.547	2.86
422.755	2.92
422.962	2.73
423.17	2.65
423.377	2.7
423.585	2.72
423.792	2.77
423.999	2.8
424.207	2.73
424.414	2.82
424.621	2.88
424.829	2.95
425.036	2.91
425.243	2.96
425.451	3.04
425.658	3.17
425.865	3.13
426.072	3.13
426.28	3.1
426.487	3.15
426.694	3.08
426.901	2.94
427.108	2.9
427.315	2.96
427.523	2.99
427.73	3.02
427.937	3.04
428.144	3.09
428.351	3.29
428.558	3.2
428.765	3.13
428.972	3.12
429.179	2.96
429.386	3.03
429.593	2.95
429.8	2.88
430.007	3
430.214	3.12
430.421	3.06
430.628	3.03
430.835	2.91
431.042	2.93
431.249	2.98
431.456	3
431.662	3.03
431.869	3.12
432.076	3.31
432.283	3.34
432.49	3.34
432.697	3.41
432.903	3.4
433.11	3.39
433.317	3.36
433.524	3.25
433.73	3.29
433.937	3.33
434.144	3.33
434.35	3.32
434.557	3.3
434.764	3.32
434.97	3.37
435.177	3.34
435.384	3.39
435.59	3.36
435.797	3.37
436.003	3.35
436.21	3.32
436.416	3.32
436.623	3.35
436.829	3.29
437.036	3.25
437.242	3.21
437.449	3.25
437.655	3.31
437.862	3.33
438.068	3.34
438.275	3.38
438.481	3.41
438.687	3.52
438.894	3.52
439.1	3.5
439.307	3.5
439.513	3.47
439.719	3.49
439.926	3.54
440.132	3.47
440.338	3.54
440.544	3.56
440.751	3.59
440.957	3.59
441.163	3.63
441.369	3.58
441.575	3.62
441.782	3.53
441.988	3.54
442.194	3.64
442.4	3.72
442.606	3.68
442.812	3.75
443.018	3.74
443.224	3.77
443.431	3.77
443.637	3.66
443.843	3.63
444.049	3.63
444.255	3.58
444.461	3.56
444.667	3.57
444.873	3.59
445.079	3.63
445.284	3.59
445.49	3.56
445.696	3.59
445.902	3.65
446.108	3.68
446.314	3.68
446.52	3.68
446.726	3.76
446.931	3.8
447.137	3.75
447.343	3.72
447.549	3.71
447.755	3.7
447.96	3.7
448.166	3.75
448.372	3.74
448.578	3.8
448.783	3.82
448.989	3.83
449.195	3.82
449.4	3.87
449.606	3.81
449.812	3.85
450.017	3.89
450.223	3.9
450.428	3.93
450.634	4
450.84	3.98
451.045	4
451.251	4.03
451.456	3.97
451.662	3.98
451.867	3.98
452.073	3.94
452.278	3.97
452.483	3.96
452.689	3.91
452.894	3.93
453.1	3.86
453.305	3.82
453.51	3.84
453.716	3.87
453.921	3.85
454.127	3.84
454.332	3.81
454.537	3.9
454.742	3.92
454.948	3.87
455.153	3.85
455.358	3.94
455.563	3.99
455.769	4.05
455.974	4
456.179	3.97
456.384	4.06
456.589	4.09
456.795	4.01
457	4.02
457.205	3.97
457.41	4.06
457.615	4.1
457.82	4.11
458.025	4.11
458.23	4.15
458.435	4.08
458.64	4.15
458.845	4.11
459.05	4.15
459.255	4.08
459.46	4.04
459.665	4.06
459.87	4.1
460.075	4.07
460.28	4.13
460.485	4.12
460.69	4.11
460.895	4.14
461.099	4.17
461.304	4.17
461.509	4.11
461.714	4.12
461.919	4.09
462.123	4.21
462.328	4.21
462.533	4.2
462.738	4.25
462.942	4.37
463.147	4.38
463.352	4.41
463.556	4.41
463.761	4.41
463.966	4.44
464.17	4.45
464.375	4.37
464.58	4.33
464.784	4.35
464.989	4.33
465.193	4.37
465.398	4.38
465.602	4.39
465.807	4.44
466.011	4.48
466.216	4.5
466.42	4.54
466.625	4.56
466.829	4.57
467.034	4.63
467.238	4.64
467.443	4.65
467.647	4.64
467.851	4.67
468.056	4.66
468.26	4.6
468.464	4.58
468.669	4.56
468.873	4.56
469.077	4.59
469.282	4.55
469.486	4.56
469.69	4.6
469.894	4.66
470.099	4.8
470.303	4.8
470.507	4.81
470.711	4.83
470.915	4.9
471.119	4.96
471.324	4.92
471.528	4.86
471.732	4.82
471.936	4.83
472.14	4.84
472.344	4.82
472.548	4.82
472.752	4.83
472.956	4.88
473.16	4.94
473.364	4.92
473.568	4.94
473.772	4.96
473.976	4.94
474.18	4.96
474.384	4.92
474.588	4.96
474.792	4.97
474.995	4.95
475.199	4.97
475.403	4.95
475.607	4.96
475.811	4.96
476.015	4.98
476.218	5.01
476.422	5.02
476.626	5
476.83	5.04
477.033	5.05
477.237	5.05
477.441	5.04
477.644	5.03
477.848	5.02
478.052	5.04
478.255	5.02
478.459	5.05
478.663	5.08
478.866	5.06
479.07	5.1
479.273	5.16
479.477	5.18
479.681	5.23
479.884	5.17
480.088	5.17
480.291	5.22
480.495	5.26
480.698	5.24
480.901	5.23
481.105	5.25
481.308	5.3
481.512	5.31
481.715	5.28
481.919	5.25
482.122	5.28
482.325	5.3
482.529	5.32
482.732	5.36
482.935	5.35
483.138	5.38
483.342	5.38
483.545	5.38
483.748	5.39
483.952	5.39
484.155	5.39
484.358	5.37
484.561	5.37
484.764	5.38
484.967	5.41
485.171	5.37
485.374	5.33
485.577	5.34
485.78	5.41
485.983	5.42
486.186	5.4
486.389	5.37
486.592	5.4
486.795	5.43
486.998	5.4
487.201	5.36
487.404	5.42
487.607	5.43
487.81	5.48
488.013	5.45
488.216	5.43
488.419	5.4
488.622	5.39
488.825	5.32
489.028	5.33
489.231	5.27
489.433	5.28
489.636	5.27
489.839	5.34
490.042	5.34
490.245	5.37
490.447	5.36
490.65	5.4
490.853	5.41
491.056	5.44
491.258	5.43
491.461	5.43
491.664	5.39
491.866	5.38
492.069	5.35
492.272	5.32
492.474	5.32
492.677	5.27
492.879	5.32
493.082	5.37
493.285	5.38
493.487	5.38
493.69	5.38
493.892	5.41
494.095	5.4
494.297	5.34
494.5	5.37
494.702	5.39
494.905	5.42
495.107	5.43
495.309	5.39
495.512	5.43
495.714	5.51
495.917	5.46
496.119	5.48
496.321	5.5
496.524	5.51
496.726	5.51
496.928	5.53
497.13	5.54
497.333	5.54
497.535	5.51
497.737	5.46
497.939	5.49
498.142	5.48
498.344	5.43
498.546	5.44
498.748	5.45
498.95	5.46
499.152	5.44
499.355	5.41
499.557	5.47
499.759	5.52
499.961	5.5
500.163	5.52
500.365	5.53
500.567	5.57
500.769	5.61
500.971	5.54
501.173	5.52
501.375	5.53
501.577	5.55
501.779	5.55
501.981	5.54
502.183	5.52
502.385	5.55
502.587	5.56
502.788	5.54
502.99	5.48
503.192	5.51
503.394	5.52
503.596	5.57
503.798	5.6
503.999	5.57
504.201	5.58
504.403	5.61
504.605	5.62
504.806	5.62
505.008	5.59
505.21	5.58
505.411	5.63
505.613	5.63
505.815	5.62
506.016	5.69
506.218	5.69
506.42	5.73
506.621	5.73
506.823	5.73
507.024	5.76
507.226	5.79
507.427	5.71
507.629	5.73
507.83	5.68
508.032	5.72
508.233	5.73
508.435	5.74
508.636	5.73
508.838	5.76
509.039	5.76
509.24	5.77
509.442	5.7
509.643	5.7
509.845	5.64
510.046	5.66
510.247	5.69
510.448	5.71
510.65	5.75
510.851	5.79
511.052	5.8
511.254	5.83
511.455	5.8
511.656	5.76
511.857	5.76
512.058	5.76
512.26	5.78
512.461	5.78
512.662	5.75
512.863	5.77
513.064	5.78
513.265	5.82
513.466	5.83
513.667	5.84
513.868	5.86
514.069	5.91
514.27	5.91
514.471	5.93
514.672	5.92
514.873	5.96
515.074	5.96
515.275	5.93
515.476	5.94
515.677	5.96
515.878	5.96
516.079	5.97
516.28	5.91
516.481	5.87
516.682	5.89
516.882	5.88
517.083	5.89
517.284	5.87
517.485	5.87
517.686	5.89
517.886	5.92
518.087	5.92
518.288	5.92
518.488	5.93
518.689	5.93
518.89	5.97
519.091	5.98
519.291	5.99
519.492	6.03
519.692	6.07
519.893	6.06
520.094	6.09
520.294	6.06
520.495	6.08
520.695	6.08
520.896	6.1
521.096	6.1
521.297	6.12
521.497	6.09
521.698	6.14
521.898	6.16
522.099	6.19
522.299	6.15
522.499	6.15
522.7	6.18
522.9	6.19
523.101	6.18
523.301	6.15
523.501	6.17
523.702	6.19
523.902	6.2
524.102	6.22
524.302	6.21
524.503	6.24
524.703	6.28
524.903	6.29
525.103	6.32
525.304	6.32
525.504	6.27
525.704	6.28
525.904	6.27
526.104	6.26
526.304	6.27
526.504	6.23
526.705	6.24
526.905	6.29
527.105	6.3
527.305	6.28
527.505	6.28
527.705	6.27
527.905	6.3
528.105	6.26
528.305	6.27
528.505	6.29
528.705	6.29
528.905	6.27
529.105	6.29
529.304	6.31
529.504	6.33
529.704	6.35
529.904	6.34
530.104	6.35
530.304	6.4
530.503	6.4
530.703	6.43
530.903	6.45
531.103	6.42
531.303	6.45
531.502	6.46
531.702	6.45
531.902	6.42
532.101	6.4
532.301	6.36
532.501	6.4
532.7	6.37
532.9	6.39
533.1	6.38
533.299	6.44
533.499	6.46
533.698	6.51
533.898	6.51
534.097	6.55
534.297	6.56
534.496	6.58
534.696	6.56
534.895	6.62
535.095	6.63
535.294	6.64
535.494	6.64
535.693	6.66
535.892	6.65
536.092	6.65
536.291	6.62
536.491	6.63
536.69	6.63
536.889	6.63
537.088	6.64
537.288	6.69
537.487	6.71
537.686	6.73
537.886	6.73
538.085	6.8
538.284	6.84
538.483	6.86
538.682	6.88
538.882	6.9
539.081	6.92
539.28	6.92
539.479	6.9
539.678	6.94
539.877	6.95
540.076	6.95
540.275	6.97
540.474	6.95
540.673	6.98
540.872	7.01
541.071	6.98
541.27	6.99
541.469	7.04
541.668	7.06
541.867	7.14
542.066	7.16
542.265	7.19
542.464	7.23
542.663	7.31
542.862	7.31
543.06	7.33
543.259	7.34
543.458	7.36
543.657	7.39
543.856	7.39
544.054	7.39
544.253	7.41
544.452	7.41
544.651	7.42
544.849	7.42
545.048	7.44
545.247	7.49
545.445	7.47
545.644	7.53
545.843	7.57
546.041	7.58
546.24	7.65
546.438	7.69
546.637	7.72
546.836	7.75
547.034	7.75
547.233	7.79
547.431	7.83
547.63	7.84
547.828	7.88
548.027	7.91
548.225	7.96
548.423	8.01
548.622	8.03
548.82	8.1
549.019	8.12
549.217	8.18
549.415	8.25
549.614	8.27
549.812	8.32
550.01	8.41
550.209	8.45
550.407	8.51
550.605	8.52
550.803	8.54
551.002	8.6
551.2	8.67
551.398	8.65
551.596	8.67
551.794	8.73
551.993	8.75
552.191	8.81
552.389	8.87
552.587	8.88
552.785	8.98
552.983	9.06
553.181	9.1
553.379	9.21
553.577	9.28
553.775	9.35
553.973	9.44
554.171	9.49
554.369	9.53
554.567	9.59
554.765	9.62
554.963	9.68
555.161	9.71
555.359	9.76
555.557	9.82
555.755	9.93
555.952	9.99
556.15	10.07
556.348	10.16
556.546	10.21
556.744	10.29
556.941	10.39
557.139	10.45
557.337	10.52
557.535	10.59
557.732	10.65
557.93	10.73
558.128	10.8
558.325	10.86
558.523	10.9
558.721	10.99
558.918	11.1
559.116	11.15
559.313	11.26
559.511	11.32
559.708	11.41
559.906	11.52
560.104	11.58
560.301	11.62
560.498	11.69
560.696	11.75
560.893	11.8
561.091	11.85
561.288	11.93
561.486	12
561.683	12.1
561.88	12.19
562.078	12.24
562.275	12.39
562.473	12.49
562.67	12.52
562.867	12.63
563.064	12.69
563.262	12.81
563.459	12.95
563.656	13.02
563.853	13.1
564.051	13.21
564.248	13.3
564.445	13.39
564.642	13.47
564.839	13.54
565.036	13.63
565.234	13.76
565.431	13.82
565.628	13.87
565.825	13.95
566.022	14.01
566.219	14.05
566.416	14.14
566.613	14.23
566.81	14.31
567.007	14.39
567.204	14.45
567.401	14.56
567.598	14.61
567.795	14.65
567.991	14.7
568.188	14.79
568.385	14.9
568.582	14.97
568.779	15.03
568.976	15.17
569.172	15.27
569.369	15.33
569.566	15.39
569.763	15.46
569.96	15.52
570.156	15.54
570.353	15.58
570.55	15.62
570.746	15.64
570.943	15.71
571.14	15.74
571.336	15.79
571.533	15.87
571.729	15.9
571.926	15.95
572.123	16
572.319	16.04
572.516	16.07
572.712	16.16
572.909	16.21
573.105	16.28
573.302	16.34
573.498	16.44
573.695	16.47
573.891	16.51
574.087	16.47
574.284	16.47
574.48	16.47
574.677	16.48
574.873	16.51
575.069	16.54
575.266	16.55
575.462	16.63
575.658	16.68
575.854	16.71
576.051	16.71
576.247	16.68
576.443	16.74
576.639	16.8
576.835	16.79
577.032	16.81
577.228	16.87
577.424	16.93
577.62	16.92
577.816	16.9
578.012	16.92
578.208	16.95
578.404	16.96
578.6	16.92
578.796	16.94
578.993	16.96
579.189	16.95
579.384	16.9
579.58	16.87
579.776	16.82
579.972	16.8
580.168	16.74
580.364	16.8
580.56	16.79
580.756	16.78
580.952	16.79
581.148	16.84
581.343	16.87
581.539	16.89
581.735	16.86
581.931	16.88
582.127	16.87
582.322	16.86
582.518	16.78
582.714	16.76
582.909	16.71
583.105	16.66
583.301	16.62
583.496	16.61
583.692	16.6
583.888	16.63
584.083	16.67
584.279	16.7
584.474	16.67
584.67	16.69
584.866	16.73
585.061	16.76
585.257	16.82
585.452	16.75
585.648	16.72
585.843	16.78
586.039	16.78
586.234	16.73
586.429	16.65
586.625	16.57
586.82	16.59
587.015	16.6
587.211	16.62
587.406	16.65
587.601	16.7
587.797	16.71
587.992	16.76
588.187	16.78
588.383	16.82
588.578	16.8
588.773	16.78
588.968	16.87
589.163	16.96
589.359	16.98
589.554	17.02
589.749	17.05
589.944	17.07
590.139	17.12
590.334	17.08
590.529	17.11
590.724	17.12
590.919	17.17
591.114	17.17
591.309	17.22
591.504	17.28
591.699	17.34
591.894	17.35
592.089	17.38
592.284	17.36
592.479	17.36
592.674	17.4
592.869	17.39
593.064	17.46
593.259	17.48
593.454	17.52
593.648	17.59
593.843	17.66
594.038	17.7
594.233	17.74
594.428	17.76
594.622	17.82
594.817	17.88
595.012	17.93
595.206	17.99
595.401	18.04
595.596	18.16
595.79	18.22
595.985	18.29
596.18	18.35
596.374	18.4
596.569	18.51
596.763	18.61
596.958	18.64
597.153	18.67
597.347	18.71
597.542	18.8
597.736	18.9
597.931	18.91
598.125	18.95
598.319	18.96
598.514	19.07
598.708	19.14
598.903	19.2
599.097	19.26
599.291	19.32
599.486	19.39
599.68	19.47
599.874	19.55
600.069	19.61
600.263	19.6
600.457	19.6
600.651	19.64
600.846	19.66
601.04	19.7
601.234	19.73
601.428	19.73
601.622	19.76
601.817	19.84
602.011	19.9
602.205	19.91
602.399	19.95
602.593	19.88
602.787	19.91
602.981	20.01
603.175	19.98
603.369	19.96
603.563	19.98
603.757	19.92
603.951	19.93
604.145	19.95
604.339	19.89
604.533	19.84
604.727	19.8
604.921	19.77
605.115	19.8
605.309	19.84
605.502	19.83
605.696	19.8
605.89	19.83
606.084	19.82
606.278	19.78
606.471	19.69
606.665	19.61
606.859	19.57
607.053	19.55
607.246	19.46
607.44	19.41
607.634	19.34
607.827	19.28
608.021	19.21
608.214	19.17
608.408	19.1
608.602	19.08
608.795	18.99
608.989	18.97
609.182	19.01
609.376	19.01
609.569	18.95
609.763	18.97
609.956	18.9
610.15	18.88
610.343	18.86
610.537	18.79
610.73	18.69
610.923	18.6
611.117	18.45
611.31	18.44
611.504	18.4
611.697	18.35
611.89	18.28
612.083	18.2
612.277	18.17
612.47	18.13
612.663	18
612.856	17.94
613.05	17.81
613.243	17.74
613.436	17.68
613.629	17.64
613.822	17.56
614.015	17.5
614.209	17.43
614.402	17.43
614.595	17.3
614.788	17.22
614.981	17.08
615.174	17.05
615.367	17
615.56	16.93
615.753	16.84
615.946	16.85
616.139	16.86
616.332	16.83
616.525	16.77
616.718	16.72
616.911	16.74
617.103	16.68
617.296	16.59
617.489	16.54
617.682	16.54
617.875	16.48
618.067	16.44
618.26	16.33
618.453	16.28
618.646	16.28
618.838	16.22
619.031	16.16
619.224	16.18
619.417	16.14
619.609	16.11
619.802	16.13
619.994	16.11
620.187	16.12
620.38	16.07
620.572	16.03
620.765	16.02
620.957	15.98
621.15	15.88
621.342	15.85
621.535	15.83
621.727	15.82
621.92	15.81
622.112	15.8
622.305	15.78
622.497	15.76
622.69	15.71
622.882	15.67
623.074	15.65
623.267	15.6
623.459	15.55
623.651	15.57
623.844	15.62
624.036	15.67
624.228	15.65
624.42	15.62
624.613	15.6
624.805	15.61
624.997	15.5
625.189	15.46
625.381	15.36
625.574	15.31
625.766	15.27
625.958	15.28
626.15	15.24
626.342	15.25
626.534	15.22
626.726	15.25
626.918	15.22
627.11	15.17
627.302	15.11
627.494	15.11
627.686	15.07
627.878	15.05
628.07	14.99
628.262	14.98
628.454	14.98
628.646	14.96
628.838	14.87
629.029	14.84
629.221	14.83
629.413	14.8
629.605	14.76
629.797	14.74
629.989	14.71
630.18	14.69
630.372	14.74
630.564	14.68
630.755	14.63
630.947	14.6
631.139	14.54
631.33	14.55
631.522	14.53
631.714	14.48
631.905	14.48
632.097	14.49
632.289	14.43
632.48	14.42
632.672	14.31
632.863	14.33
633.055	14.36
633.246	14.35
633.438	14.29
633.629	14.37
633.821	14.39
634.012	14.44
634.203	14.42
634.395	14.38
634.586	14.31
634.777	14.3
634.969	14.22
635.16	14.18
635.351	14.12
635.543	14.07
635.734	14.03
635.925	14.11
636.117	14.14
636.308	14.13
636.499	14.1
636.69	14.15
636.881	14.2
637.073	14.17
637.264	14.1
637.455	14.11
637.646	14.12
637.837	14.13
638.028	14.13
638.219	14.09
638.41	14.11
638.601	14.12
638.792	14.06
638.983	14.04
639.174	14.04
639.365	13.96
639.556	13.93
639.747	13.91
639.938	13.9
640.129	13.89
640.32	13.91
640.511	13.92
640.701	13.87
640.892	13.87
641.083	13.88
641.274	13.83
641.465	13.82
641.655	13.76
641.846	13.67
642.037	13.67
642.228	13.67
642.418	13.59
642.609	13.54
642.8	13.5
642.99	13.51
643.181	13.53
643.372	13.53
643.562	13.47
643.753	13.48
643.943	13.48
644.134	13.52
644.324	13.48
644.515	13.45
644.705	13.43
644.896	13.42
645.086	13.38
645.277	13.42
645.467	13.39
645.658	13.37
645.848	13.33
646.038	13.31
646.229	13.3
646.419	13.34
646.61	13.27
646.8	13.26
646.99	13.23
647.18	13.21
647.371	13.21
647.561	13.16
647.751	13.08
647.941	13.04
648.132	13.03
648.322	13.05
648.512	13.07
648.702	13.01
648.892	13.06
649.082	13.07
649.272	13.03
649.462	13.01
649.653	12.99
649.843	12.96
650.033	12.94
650.223	12.91
650.413	12.92
650.603	12.97
650.793	12.88
650.983	12.86
651.172	12.85
651.362	12.85
651.552	12.78
651.742	12.72
651.932	12.63
652.122	12.64
652.312	12.48
652.502	12.36
652.691	12.28
652.881	12.23
653.071	12.13
653.261	12.1
653.45	12.05
653.64	12.08
653.83	12.07
654.019	11.94
654.209	11.88
654.399	11.84
654.588	11.76
654.778	11.64
654.968	11.52
655.157	11.39
655.347	11.3
655.536	11.17
655.726	11.08
655.915	10.94
656.105	10.88
656.294	10.77
656.484	10.75
656.673	10.66
656.863	10.6
657.052	10.46
657.241	10.37
657.431	10.19
657.62	10.04
657.809	9.91
657.999	9.85
658.188	9.71
658.377	9.62
658.567	9.51
658.756	9.4
658.945	9.3
659.134	9.17
659.324	9.02
659.513	8.88
659.702	8.73
659.891	8.58
660.08	8.5
660.269	8.46
660.458	8.3
660.648	8.22
660.837	8.18
661.026	8.14
661.215	8.11
661.404	7.98
661.593	7.84
661.782	7.78
661.971	7.61
662.16	7.49
662.349	7.38
662.538	7.3
662.726	7.23
662.915	7.19
663.104	7.07
663.293	7.1
663.482	7.02
663.671	6.95
663.86	6.88
664.048	6.81
664.237	6.74
664.426	6.8
664.615	6.69
664.803	6.63
664.992	6.63
665.181	6.58
665.369	6.51
665.558	6.45
665.747	6.42
665.935	6.47
666.124	6.53
666.312	6.42
666.501	6.4
666.69	6.45
666.878	6.39
667.067	6.38
667.255	6.31
667.444	6.33
667.632	6.34
667.82	6.36
668.009	6.37
668.197	6.42
668.386	6.33
668.574	6.31
668.762	6.26
668.951	6.32
669.139	6.36
669.327	6.36
669.516	6.39
669.704	6.49
669.892	6.55
670.08	6.58
670.269	6.58
670.457	6.55
670.645	6.53
670.833	6.54
671.021	6.5
671.21	6.53
671.398	6.51
671.586	6.56
671.774	6.58
671.962	6.63
672.15	6.61
672.338	6.73
672.526	6.78
672.714	6.92
672.902	6.95
673.09	7.04
673.278	7.1
673.466	7.27
673.654	7.29
673.842	7.34
674.03	7.36
674.218	7.41
674.405	7.49
674.593	7.49
674.781	7.5
674.969	7.51
675.157	7.6
675.344	7.65
675.532	7.73
675.72	7.76
675.908	7.87
676.095	8.01
676.283	8.04
676.471	8.07
676.658	8.12
676.846	8.18
677.033	8.23
677.221	8.31
677.409	8.35
677.596	8.53
677.784	8.56
677.971	8.67
678.159	8.8
678.346	8.9
678.534	9.02
678.721	8.99
678.909	8.97
679.096	9.1
679.283	9.15
679.471	9.19
679.658	9.25
679.846	9.35
680.033	9.59
680.22	9.66
680.408	9.67
680.595	9.71
680.782	9.77
680.969	9.79
681.157	9.83
681.344	9.83
681.531	9.92
681.718	10.07
681.905	10.24
682.093	10.34
682.28	10.56
682.467	10.64
682.654	10.71
682.841	10.87
683.028	11.02
683.215	11.13
683.402	11.19
683.589	11.23
683.776	11.38
683.963	11.55
684.15	11.65
684.337	11.8
684.524	11.93
684.711	12.14
684.898	12.28
685.085	12.49
685.271	12.66
685.458	12.92
685.645	13.06
685.832	13.29
686.019	13.53
686.205	13.8
686.392	14.01
686.579	14.26
686.766	14.45
686.952	14.76
687.139	15.01
687.326	15.32
687.512	15.55
687.699	15.83
687.886	16.07
688.072	16.38
688.259	16.67
688.445	16.89
688.632	17.29
688.818	17.75
689.005	18.27
689.191	18.77
689.378	19.24
689.564	19.75
689.751	20.32
689.937	20.64
690.124	21.13
690.31	21.39
690.496	21.88
690.683	22.39
690.869	22.8
691.055	23.37
691.242	23.87
691.428	24.4
691.614	25.02
691.8	25.43
691.987	26
692.173	26.68
692.359	27.15
692.545	27.83
692.731	28.38
692.918	28.97
693.104	29.59
693.29	30.19
693.476	30.73
693.662	31.37
693.848	31.84
694.034	32.46
694.22	33.03
694.406	33.7
694.592	34.27
694.778	34.86
694.964	35.47
695.15	36.34
695.336	37.04
695.522	37.69
695.708	38.26
695.894	38.99
696.08	39.53
696.265	40.17
696.451	40.78
696.637	41.27
696.823	41.82
697.009	42.39
697.194	43.02
697.38	43.66
697.566	44.22
697.751	44.71
697.937	45.4
698.123	46.03
698.308	46.66
698.494	47.02
698.68	47.57
698.865	48.22
699.051	48.76
699.236	49.28
699.422	49.78
699.607	50.22
699.793	50.79
699.978	51.3
700.164	51.77
700.349	52.26
700.535	52.66
700.72	53.08
700.906	53.74
701.091	54.18
701.276	54.73
701.462	55.29
701.647	55.71
701.832	56.31
702.018	56.86
702.203	57.21
702.388	57.62
702.573	58.04
702.759	58.25
702.944	58.77
703.129	59.06
703.314	59.5
703.499	59.93
703.684	60.52
703.87	60.95
704.055	61.42
704.24	61.79
704.425	62.36
704.61	62.61
704.795	62.93
704.98	63.08
705.165	63.36
705.35	63.65
705.535	64.07
705.72	64.01
705.905	64.38
706.09	64.66
706.275	64.87
706.459	65.17
706.644	65.5
706.829	65.52
707.014	65.89
707.199	66.05
707.384	66.36
707.568	66.73
707.753	67.04
707.938	67.28
708.123	67.33
708.307	67.71
708.492	67.99
708.677	68.33
708.861	68.61
709.046	68.76
709.231	68.86
709.415	69.31
709.6	69.4
709.784	69.83
709.969	69.97
710.153	70.22
710.338	70.27
710.522	70.48
710.707	70.44
710.891	70.81
711.076	70.59
711.26	70.72
711.445	70.76
711.629	71.06
711.813	71.24
711.998	71.5
712.182	71.54
712.366	71.88
712.551	71.96
712.735	71.96
712.919	72.16
713.103	72.33
713.288	72.67
713.472	72.75
713.656	72.75
713.84	73.02
714.024	73.43
714.208	73.4
714.393	73.59
714.577	73.65
714.761	73.87
714.945	73.99
715.129	74.12
715.313	74.17
715.497	74.68
715.681	75.05
715.865	75.12
716.049	75.46
716.233	75.8
716.417	75.99
716.601	76.32
716.785	76.21
716.968	75.89
717.152	76.06
717.336	75.87
717.52	75.76
717.704	75.73
717.888	75.62
718.071	75.79
718.255	76.09
718.439	76.02
718.622	76.23
718.806	76.48
718.99	76.66
719.174	76.68
719.357	76.61
719.541	76.76
719.724	77.07
719.908	77.04
720.092	76.89
720.275	77.07
720.459	77.25
720.642	77.39
720.826	77.23
721.009	77.32
721.193	77.4
721.376	77.75
721.559	77.68
721.743	77.62
721.926	77.46
722.11	77.74
722.293	77.51
722.476	77.26
722.66	77.17
722.843	77.24
723.026	77.38
723.21	77.58
723.393	77.65
723.576	77.69
723.759	78.25
723.942	78.46
724.126	78.6
724.309	78.68
724.492	78.75
724.675	78.8
724.858	79.3
725.041	79.23
725.224	79.35
725.407	79.06
725.59	79.17
725.774	79.14
725.957	79.41
726.14	79.2
726.322	79.18
726.505	79.45
726.688	79.73
726.871	79.85
727.054	80.32
727.237	80.17
727.42	80.6
727.603	80.75
727.786	80.76
727.968	81.15
728.151	81.52
728.334	81.17
728.517	81.32
728.699	81.31
728.882	81.65
729.065	81.65
729.248	81.39
729.43	81.46
729.613	82.07
729.796	81.9
729.978	81.8
730.161	82.21
730.343	82.39
730.526	82.46
730.708	82.43
730.891	82.31
731.073	82.6
731.256	82.75
731.438	82.67
731.621	82.71
731.803	83.18
731.986	83.34
732.168	83.33
732.35	83.47
732.533	83.9
732.715	83.86
732.898	84.17
733.08	84.31
733.262	84.09
733.444	84.16
733.627	84.13
733.809	84.02
733.991	84.15
734.173	83.96
734.355	84.21
734.538	84.52
734.72	85.12
734.902	85.19
735.084	85.07
735.266	84.87
735.448	85.17
735.63	85.12
735.812	85.28
735.994	84.78
736.176	85.01
736.358	85.26
736.54	85.15
736.722	84.75
736.904	84.55
737.086	84.21
737.268	84.44
737.45	84.38
737.632	84.02
737.814	84.29
737.995	84.51
738.177	84.92
738.359	85.42
738.541	85.37
738.723	85.9
738.904	86.24
739.086	86.67
739.268	86.71
739.449	86.26
739.631	86.36
739.813	86.45
739.994	86.62
740.176	86.72
740.358	86.99
740.539	87.68
740.721	87.82
740.902	87.59
741.084	87.75
741.265	87.28
741.447	86.92
741.628	86.06
741.81	85.85
741.991	86.13
742.172	86.12
742.354	86.12
742.535	86.33
742.717	86.64
742.898	87.45
743.079	87.04
743.261	86.95
743.442	87
743.623	87.06
743.804	87.18
743.986	87.25
744.167	86.66
744.348	87.1
744.529	87.07
744.71	86.89
744.891	87.19
745.073	86.46
745.254	86.38
745.435	85.97
745.616	85.48
745.797	85.02
745.978	85.53
746.159	85.13
746.34	85.92
746.521	86.03
746.702	86.05
746.883	85.8
747.064	85.85
747.245	86.09
747.426	86.37
747.606	85.41
747.787	85.92
747.968	86.76
748.149	87.26
748.33	88.13
748.51	87.38
748.691	87.7
748.872	88.5
749.053	88.22
749.233	88.05
749.414	87.85
749.595	87.23
749.775	87.23
749.956	86.42
750.137	86.43
750.317	85.59
750.498	85.72
750.678	85.77
750.859	85.8
751.04	86.19
751.22	85.8
751.4	85.53
751.581	85.67
751.761	85.84
751.942	85.78
752.122	85.84
752.303	85.34
752.483	86.51
752.663	87.15
752.844	87.19
753.024	87.34
753.204	87.15
753.385	86.8
753.565	86.9
753.745	85.62
753.925	84.89
754.106	84.99
754.286	84.93
754.466	85.65
754.646	85.51
754.826	85.79
755.006	86.1
755.187	86.13
755.367	86.27
755.547	85.85
755.727	85.59
755.907	86.47
756.087	86.73
756.267	86.52
756.447	86.79
756.627	86.4
756.807	86.95
756.987	87.22
757.167	86.41
757.346	85.28
757.526	85.84
757.706	85.69
757.886	85.78
758.066	85.15
758.246	84.55
758.425	85.32
758.605	86.03
758.785	85.62
758.965	84.84
759.144	85.22
759.324	85.4
759.504	85.65
759.683	85.14
759.863	85.15
760.043	85.07
760.222	85.32
760.402	85.97
760.581	86.04
760.761	85.09
760.94	84.82
761.12	85.24
761.299	85.57
761.479	86.07
761.658	84.94
761.838	84.72
762.017	85.85
762.197	85.86
762.376	85.78
762.555	85.53
762.735	84.1
762.914	84.41
763.093	83.56
763.273	82.84
763.452	82.28
763.631	80.88
763.81	81.66
763.99	83.27
764.169	83.46
764.348	84.62
764.527	84.95
764.706	86.36
764.885	87.31
765.064	86.38
765.243	85.41
765.423	85.96
765.602	85.22
765.781	84.73
765.96	84.57
766.139	84.15
766.318	85.43
766.497	85.98
766.676	86.3
766.854	85.6
767.033	86.09
767.212	85.24
767.391	85.69
767.57	84.27
767.749	84.71
767.928	82.82
768.106	83.97
768.285	82.87
768.464	83.45
768.643	83.55
768.821	83.77
769	83.17
769.179	82.27
769.357	81.08
769.536	82.19
769.715	81.68
769.893	80.53
770.072	80.38
770.25	79.66
770.429	80.81
770.607	81.79
770.786	82.32
770.964	81.62
771.143	81.54
771.321	81.93
771.5	81.56
771.678	81.84
771.857	81.83
772.035	81.02
772.213	81.54
772.392	82.64
772.57	81.43
772.748	83.01
772.927	83.43
773.105	83.65
773.283	83.12
773.461	83.03
773.64	81.7
773.818	81.77
773.996	80.77
774.174	80.47
774.352	79.74
774.531	79.36
774.709	80.3
774.887	80.44
775.065	81.36
775.243	82.9
775.421	82.92
775.599	81.74
775.777	82.3
775.955	81.56
776.133	81.64
776.311	80.5
776.489	79.16
776.667	78.51
776.844	79.53
777.022	79.52
777.2	79.28
777.378	78.89
777.556	80.67
777.734	80.41
777.911	81.24
778.089	81.44
778.267	81.23
778.445	80.47
778.622	79.92
778.8	78.12
778.978	78.04
779.155	76.86
779.333	74.74
779.511	74.78
779.688	73.97
779.866	74.72
780.043	76.21
780.221	75.73
780.398	76.19
780.576	78.07
780.753	77.84
780.931	79.99
781.108	81.89
781.286	79.73
781.463	80.86
781.64	80.5
781.818	79.68
781.995	80.85
782.172	79.41
782.35	77.64
782.527	79.11
782.704	78.88
782.882	79.34
783.059	78.8
783.236	77.78
783.413	78.84
783.59	77.67
783.768	76.27
783.945	76.23
784.122	75.75
784.299	76.07
784.476	75.83
784.653	73.85
784.83	73.42
785.007	74.88
785.184	73.63
785.361	74.99
785.538	76.37
785.715	76.34
785.892	75.98
786.069	77.45
786.246	76.09
786.423	78.19
786.6	76.68
786.776	74.87
786.953	73.82
787.13	75.23
787.307	74.43
787.484	75.51
787.66	72.7
787.837	72.89
788.014	73.53
788.191	73.74
788.367	74.28
788.544	74.53
788.721	74.81
788.897	77.18
789.074	76.26
789.25	77.46
789.427	77.82
789.603	79.61
789.78	81.21
789.956	79.62
790.133	78.27
790.309	79.05
790.486	79.77
790.662	80.81
790.839	79.86
791.015	79.61
791.192	80.47
791.368	81.29
791.544	81.35
791.721	80.16
791.897	80.25
792.073	78.47
792.249	80.2
792.426	81.14
792.602	79.72
792.778	78.07
792.954	76.78
793.13	76.85
793.307	75.71
793.483	72.77
793.659	72.97
793.835	72.65
794.011	72.74
794.187	70.25
794.363	71.2
794.539	71.62
794.715	70.03
794.891	65.1
795.067	66.3
795.243	68.98
795.419	73.02
795.595	69.93
795.771	71.34
795.947	72.52
796.122	75.34
796.298	74.04
796.474	74.32
796.65	73.86
796.826	76.04
797.001	74.89
797.177	74.64
797.353	76.23
797.529	75.68
797.704	73.04
797.88	72.41
798.056	73.08
798.231	72.52
798.407	72.91
798.582	71.56
798.758	73.03
798.934	74.34
799.109	72.38
799.285	72.35
799.46	71.73
799.636	71.26
799.811	73.44
799.986	74.6
800.162	73.25
800.337	73.86
800.513	71.98
800.688	75.79
800.863	75.7
801.039	72.56
801.214	71.2
801.389	71.28
801.565	72.44
801.74	71.85
801.915	70.71
802.09	69.46
802.265	70.85
802.441	71.14
802.616	72.28
802.791	75.02
802.966	74.74
803.141	68.38
803.316	70.67
803.491	66.27
803.666	67.35
803.841	66.02
804.016	63.64
804.191	64.1
804.366	68.82
804.541	67.7
804.716	67.16
804.891	68.81
805.066	65.94
805.241	64.01
805.416	63.22
805.591	63.58
805.765	65.12
805.94	68.7
806.115	60.71
806.29	63.15
806.464	63.88
806.639	61.63
806.814	58.24
806.989	59.33
807.163	57.75
807.338	62.44
807.512	57.39
807.687	56.32
807.862	59.28
808.036	61.35
808.211	60.67
808.385	59.18
808.56	59.87
808.734	61.77
808.909	61.67
809.083	62.18
809.258	64.91
809.432	61.27
809.606	64.26
809.781	65.37
809.955	70.5
810.13	73.09
810.304	70.04
810.478	68.14
810.652	72.6
810.827	73.13
811.001	71.46
811.175	66.42
811.349	65.06
811.524	63.47
811.698	63.39
811.872	63.83
812.046	62.67
812.22	59.14
812.394	60.27
812.568	65.72
812.742	68.15
812.916	65.89
813.09	61.61
813.264	61.86
813.438	72.71
813.612	72.92
813.786	70.03
813.96	74.01
814.134	78.01
814.308	74.68
814.482	77.89
814.656	73.03
814.83	73.1
815.003	67.85
815.177	64.9
815.351	63.29
815.525	65.27
815.698	60.68
815.872	58.53
816.046	60.29
816.219	66.24
816.393	60.32
816.567	60.9
816.74	62.39
816.914	65.31
817.088	62.49
817.261	67.92
817.435	61.98
817.608	69.27
817.782	68.09
817.955	64.17
818.129	61.22
818.302	64.9
818.475	61.99
818.649	59.73
818.822	64.96
818.996	64.48
819.169	67.33
819.342	68.53
819.516	67.95
819.689	69.2
819.862	68.85
820.035	60.29
820.209	60
820.382	57.9
820.555	55.05
820.728	47.48
820.901	41.43
821.075	45.86
821.248	48.08
821.421	46.97
821.594	49.23
821.767	52.52
821.94	54.49
822.113	52.48
822.286	55.01
822.459	58.37
822.632	62.23
822.805	60.49
822.978	57.46
823.151	61.01
823.324	60.35
823.496	47.59
823.669	50.13
823.842	49.12
824.015	46.29
824.188	51.18
824.361	49.49
824.533	54.04
824.706	66.36
824.879	66.27
825.051	73.67
825.224	78.44
825.397	70.07
825.569	75.11
825.742	78.32
825.915	73.32
826.087	63.64
826.26	58.04
826.432	58.61
826.605	61.85
826.777	52.15
826.95	45.73
827.122	50.82
827.295	62.75
827.467	52.69
827.64	43.03
827.812	41.94
827.984	50.8
828.157	56.83
828.329	48.67
828.501	45.77
828.674	52.15
828.846	59.61
829.018	51.3
829.19	43.15
829.363	36.52
829.535	40.7
829.707	38.41
829.879	42.43
830.051	45.13
830.223	43.17
830.395	45.48
830.568	53.89
830.74	57.17
830.912	53.74
831.084	44.24
831.256	35.93
831.428	36.13
831.6	35.99
831.772	28.84
831.943	26.06
832.115	28.84
832.287	31.21
832.459	35.63
832.631	47.91
832.803	46.86
832.975	50.8
833.146	43.53
833.318	55.04
833.49	56.12
833.662	57.56
833.833	59.15
834.005	64.24
834.177	62.84
834.348	58.57
834.52	50.7
834.692	52.54
834.863	50.63
835.035	47.1
835.206	41
835.378	34.16
835.549	36.61
835.721	31.21
835.892	30.64
836.064	29.4
836.235	32.53
836.407	31.75
836.578	35.04
836.749	42.3
836.921	43.29
837.092	53.95
837.264	48.31
837.435	35.01
837.606	40.72
837.777	48.37
837.949	43.15
838.12	42.79
838.291	34.38
838.462	32.26
838.633	35.66
838.805	33.38
838.976	20.21
839.147	11.61
839.318	6.11
839.489	11.63
839.66	27
839.831	23.51
840.002	19.2
840.173	35.04
840.344	52.69
840.515	54.09
840.686	58.57
840.857	46.5
841.028	51.91
841.199	46.28
841.369	34.98
841.54	30.29
841.711	38.61
841.882	27.07
842.053	23.4
842.223	15.47
842.394	31.75
842.565	42.44
842.736	42.72
842.906	41.35
843.077	48.1
843.248	51.22
843.418	41.21
843.589	35.89
843.759	40.5
843.93	45.58
844.101	35.49
844.271	25.65
844.442	29.96
844.612	35.67
844.783	20.95
844.953	0.23
845.123	5.6
845.294	15.99
845.464	24.25
845.635	30.58
845.805	40.31
845.975	41.84
846.146	48.19
846.316	38.17
846.486	33.9
846.656	40.71
846.827	26.16
846.997	43.16
847.167	57
847.337	63.53
847.507	62.15
847.677	70.8
847.848	68
848.018	77.4
848.188	53.34
848.358	69.3
848.528	77.38
848.698	58.56
848.868	49.21
849.038	49.76
849.208	54.75
849.378	49.51
849.548	41.15
849.718	27.96
849.887	29.64
850.057	21.7
850.227	21.99
850.397	6.77
850.567	16.81
850.737	-0.93
850.906	-7.74
851.076	-0.92
851.246	18.37
851.415	16.85
851.585	10.58
851.755	11.46
851.924	21.42
852.094	19.08
852.264	14.69
852.433	9.82
852.603	18.31
852.772	21.56
852.942	18.39
853.111	12.9
853.281	20.78
853.45	26.65
853.62	14.1
853.789	6.72
853.959	8.83
854.128	-1
854.297	4.52
854.467	-6.03
854.636	8.96
854.805	17.52
854.975	25.2
855.144	38.56
855.313	46.35
855.482	44.92
855.652	45.3
855.821	45.02
855.99	50.69
856.159	36.84
856.328	21.98
856.497	15.9
856.667	26.8
856.836	34.78
857.005	28.44
857.174	30.29
857.343	16.92
857.512	8.69
857.681	8.31
857.85	-13.52
858.019	-15.78
858.188	-32.82
858.356	-57.06
858.525	-17.59
858.694	3.69
858.863	16.71
859.032	24.68
859.201	28.66
859.369	30.27
859.538	40.41
859.707	30.91
859.876	31.2
860.044	32.88
860.213	23.57
860.382	25.96
860.55	46.08
860.719	45.8
860.888	35.45
861.056	17.61
861.225	21.86
861.393	47.51
861.562	32.7
861.73	6.98
861.899	-5.28
862.067	17.5
862.236	23.91
862.404	18.08
862.572	5.98
862.741	10.3
862.909	12.44
863.078	11.78
863.246	5.62
863.414	12.08
863.582	6.18
863.751	1.59
863.919	9.78
864.087	4.38
864.255	12
864.424	18.11
864.592	11.02
864.76	22.77
864.928	37.07
865.096	22.54
865.264	35.14
865.432	26.15
865.6	8.53
865.768	-9.72
865.936	-25.06
866.104	-60.91
866.272	-63.23
866.44	-117.46
866.608	-111.61
866.776	-54.31
866.944	-67.22
867.112	-75.79
867.28	-113.28
867.448	-52.41
867.615	-25.73
867.783	-24.54
867.951	-15.7
868.119	26.74
868.286	44.96
868.454	57.97
868.622	58.68
868.789	66.93
868.957	58.96
869.125	42.46
869.292	52.43
869.46	49.92
869.627	27.96
869.795	29.98
869.963	34.36
870.13	44.74
870.298	47.37
870.465	-0.88
870.632	18.9
870.8	22.29
870.967	18.19
871.135	14.22
871.302	20.95
871.469	18.54
871.637	37.73
871.804	30.97
871.971	39.8
872.139	46.17
872.306	27.57
872.473	9.39
872.64	8.13
872.807	-2.38
872.975	-12.85
873.142	-50.27
873.309	-110.37
873.476	-135.88
873.643	-41.51
873.81	-75.31
873.977	-71.3
874.144	-105.28
874.311	-135.02
874.478	-118.34
874.645	-99.42
874.812	-65.97
874.979	-83.06
875.146	-143.62
875.313	-209.33
875.48	-123.34
875.647	-129.78
875.813	-150.15
875.98	-183.18
876.147	-55.21
876.314	-26
876.481	-24.89
876.647	-7.76
876.814	16.39
876.981	10.72
877.147	9.59
877.314	-11.31
877.481	-1.93
877.647	13.57
877.814	4.75
877.98	0.25
878.147	-11.51
878.314	-20.1
878.48	-1.62
878.647	8.51
878.813	-8.08
878.979	-20.39
879.146	-35.73
879.312	0.99
879.479	29.5
879.645	3.52
879.811	-17.06
879.978	12.31
880.144	35.13
880.31	19.61
880.477	0.93
880.643	-106.16
880.809	-15.3
880.975	-37.53
881.142	-41.87
881.308	-44.65
881.474	-0.63
881.64	-2.16
881.806	23.27
881.972	44.85
882.138	58.51
882.304	-2.89
882.47	-46.94
882.636	-106.6
882.802	-153.12
882.968	-253.18
883.134	-510.58
883.3	-247.41
883.466	-87.04
883.632	-57.82
883.798	-11.88
883.964	-25.88
884.129	-12.47
884.295	-5.18
884.461	-34.46
884.627	-95.02
884.793	-52.61
884.958	-71.21
885.124	-108.62
885.29	-65.09
885.455	-42.21
885.621	-30.1
885.787	-12.07
885.952	-34.68
886.118	-23.95
886.283	-2.34
886.449	-26.58
886.614	-23.76
886.78	17.63
886.945	-5.67
887.111	7.06
887.276	-15.61
887.442	8.06
887.607	3.89
887.773	-13.3
887.938	-35.55
888.103	10.11
888.269	17.74
888.434	34.5
888.599	35.2
888.764	45.53
888.93	60.74
889.095	51.8
889.26	46.57
889.425	54.09
889.59	35.66
889.756	8.18
889.921	19.62
890.086	19.96
890.251	12.26
890.416	-35.61
890.581	-53.09
890.746	-51.84
890.911	-53.27
891.076	-95.76
891.241	-165.47
891.406	-41.54
891.571	-8.55
891.736	-13.67
891.901	10.26
892.065	-0.84
892.23	-36.09
892.395	-33.94
892.56	-57.09
892.725	-67.1
892.889	-87.43
893.054	-126.66
893.219	-126.78
893.384	-113.9
893.548	-188.33
893.713	151.98
893.878	60.87
