Data from Ofra_1a_PS_OGT5_Reflection_2.txt Node
Date: Tue Jul 20 10:44:01 EDT 2021
User: Adam
Spectrometer: FLMT01687
Trigger mode: 0
Integration Time (sec): 1.004000E0
Scans to average: 2
Electric dark correction enabled: true
Nonlinearity correction enabled: false
Boxcar width: 2
XAxis mode: Wavelengths
Number of Pixels in Spectrum: 3648
>>>>>Begin Spectral Data<<<<<
179.494	-395.94
179.716	-609.16
179.937	1328.43
180.158	-1383.44
180.38	107.42
180.601	70.04
180.823	-39.82
181.044	-125.19
181.265	-111.69
181.486	44.4
181.708	46.43
181.929	3709.09
182.15	-99.86
182.372	478.82
182.593	401.11
182.814	-213.92
183.035	-74.83
183.257	-6.35
183.478	-35.02
183.699	-54.4
183.92	-88.33
184.141	-66.41
184.363	-62.37
184.584	-91.76
184.805	-38
185.026	1.87
185.247	-8.21
185.468	-38.91
185.689	-7.37
185.91	-34.45
186.132	-13.8
186.353	-2.33
186.574	-6.54
186.795	-0.5
187.016	18.42
187.237	10.73
187.458	16.52
187.679	18.03
187.9	20.39
188.121	17
188.342	-5.98
188.563	1.81
188.784	29.05
189.005	-0.87
189.226	-1.54
189.447	-4.59
189.667	-29.65
189.888	-47.95
190.109	-46.48
190.33	-20.7
190.551	-18.43
190.772	6.99
190.993	-1.24
191.214	-20.28
191.434	-71.4
191.655	-98.04
191.876	-96.12
192.097	-54.53
192.318	-7.75
192.538	-27.42
192.759	-16.51
192.98	7.68
193.201	3.97
193.421	-13.15
193.642	9.63
193.863	18.58
194.083	-7.21
194.304	3.78
194.525	-10.38
194.745	-24.82
194.966	-23.05
195.187	-18.68
195.407	-39.74
195.628	-9.12
195.848	-11
196.069	-23.96
196.29	-10.84
196.51	-15.77
196.731	-26.5
196.951	-44.89
197.172	-42.6
197.392	-40.71
197.613	-0.36
197.833	2.72
198.054	0.48
198.274	-4.57
198.495	-11.76
198.715	-23.17
198.936	0.86
199.156	2.86
199.377	14.64
199.597	10.34
199.817	-12.24
200.038	-70.55
200.258	-19.25
200.479	3.19
200.699	5.57
200.919	10.33
201.14	29.24
201.36	12.38
201.58	-23.19
201.801	-45.13
202.021	-52.23
202.241	-51.74
202.461	-32.94
202.682	-13.73
202.902	16.56
203.122	17.95
203.342	7.28
203.563	1.42
203.783	-17.93
204.003	-36.12
204.223	-13.92
204.443	-3.11
204.663	-9.83
204.884	38.53
205.104	49.99
205.324	57.34
205.544	53.24
205.764	48.12
205.984	16.96
206.204	-2.44
206.424	-20.16
206.644	-31.17
206.864	-75.68
207.084	-34.62
207.304	-40.47
207.525	-37.8
207.745	-17.96
207.964	-3.06
208.184	-10.66
208.404	-6.57
208.624	6.39
208.844	-4.56
209.064	-14.13
209.284	-28.78
209.504	-20.42
209.724	-21.56
209.944	-25.44
210.164	-20.08
210.384	8.51
210.604	-21.09
210.823	-54.63
211.043	-21.38
211.263	-71.83
211.483	-50.16
211.703	-26.85
211.922	-24.66
212.142	-13.1
212.362	19.85
212.582	8.78
212.801	-13.43
213.021	-25.87
213.241	-56.38
213.461	-52.56
213.68	-32.57
213.9	-23.52
214.12	-12.45
214.339	-6.59
214.559	-7.01
214.779	-34.15
214.998	-29.99
215.218	-18.97
215.438	-15.18
215.657	-34.05
215.877	-28.39
216.096	-7.39
216.316	-3.4
216.535	-9.23
216.755	0.36
216.974	-1.73
217.194	4.04
217.413	-1.08
217.633	5.87
217.852	-0.37
218.072	4.14
218.291	-20.28
218.511	-34.23
218.73	-41.87
218.95	-67.41
219.169	-81.77
219.389	-35.99
219.608	-34.81
219.827	-22.38
220.047	-5.66
220.266	-17.28
220.485	-56.12
220.705	-45.63
220.924	-76.68
221.143	-46.43
221.363	-17.06
221.582	-2.05
221.801	8.78
222.021	16.79
222.24	26.66
222.459	27.91
222.678	8.97
222.897	-7.99
223.117	1.76
223.336	-9.25
223.555	3.76
223.774	49.53
223.993	90.29
224.213	119.57
224.432	91.49
224.651	58.96
224.87	34.87
225.089	15.93
225.308	-9.2
225.527	-2.71
225.746	-13.12
225.965	-4.29
226.184	-9.49
226.404	-24.74
226.623	-12.54
226.842	4.5
227.061	0.7
227.28	13.62
227.499	25.89
227.718	19.64
227.936	20.81
228.155	31.95
228.374	19.9
228.593	14.38
228.812	2.68
229.031	11.26
229.25	0.81
229.469	3.31
229.688	6.45
229.907	9.91
230.125	-1.34
230.344	4.08
230.563	7.19
230.782	3.09
231.001	11.52
231.22	10.44
231.438	8.28
231.657	15.64
231.876	15.55
232.095	20.49
232.313	5.34
232.532	4.57
232.751	-11.73
232.969	-2.92
233.188	-21.51
233.407	6.53
233.625	5.95
233.844	4.54
234.063	-5.71
234.281	0.31
234.5	-11.08
234.719	-16.74
234.937	-38.3
235.156	-34.05
235.374	-40.46
235.593	-26.38
235.811	-8.26
236.03	10.04
236.249	5.76
236.467	11.76
236.686	-9.59
236.904	-16.22
237.123	-15.06
237.341	-5.93
237.559	-3.73
237.778	14.37
237.996	-4.96
238.215	-30.46
238.433	-97.13
238.652	-42.46
238.87	-50.27
239.088	-29.72
239.307	-10.1
239.525	14.02
239.743	8.08
239.962	7.07
240.18	22.75
240.398	25.04
240.617	10.54
240.835	-2.87
241.053	-6.17
241.271	-16.05
241.49	-10.76
241.708	-11.41
241.926	-12.12
242.144	8.43
242.363	-14.52
242.581	-51.38
242.799	-46.34
243.017	-11.23
243.235	-12.86
243.453	-15.67
243.672	-4.9
243.89	4.73
244.108	12.91
244.326	28.98
244.544	41.55
244.762	36.58
244.98	39.06
245.198	33.1
245.416	31.03
245.634	16.66
245.852	13.53
246.07	39.79
246.288	46.87
246.506	30.97
246.724	28.88
246.942	25.13
247.16	-11.28
247.378	-41.74
247.596	-41.47
247.814	-46.25
248.032	-32.09
248.25	7.16
248.468	13.24
248.685	16.97
248.903	11.86
249.121	14.5
249.339	7.93
249.557	10
249.775	17.47
249.992	33.53
250.21	30.91
250.428	34.22
250.646	23.69
250.863	8.12
251.081	0.94
251.299	4.44
251.517	5.93
251.734	9.77
251.952	11.54
252.17	5.44
252.387	-25.64
252.605	-39.88
252.823	-72.9
253.04	-73.5
253.258	-56.55
253.475	-21.53
253.693	-23.92
253.911	-18.97
254.128	-17.68
254.346	-15.48
254.563	-2.93
254.781	-5.54
254.998	3.43
255.216	-20.57
255.433	-26.1
255.651	-29.07
255.868	-11.9
256.086	-9.14
256.303	17.77
256.521	12.27
256.738	4.73
256.956	-0.18
257.173	-4.14
257.39	-9.25
257.608	-9.37
257.825	1.32
258.043	9.42
258.26	10.42
258.477	15.74
258.695	10.23
258.912	-6.2
259.129	-23.59
259.346	-34.26
259.564	-43.29
259.781	-29.59
259.998	-12.74
260.216	4.79
260.433	-2.08
260.65	-12.65
260.867	-30.15
261.084	-22.58
261.302	-48.02
261.519	-22.42
261.736	-14.58
261.953	6.7
262.17	13.85
262.387	19.97
262.604	19.59
262.822	25.47
263.039	21.02
263.256	15.3
263.473	17.19
263.69	17.63
263.907	22.24
264.124	28.02
264.341	30.09
264.558	18.68
264.775	14.87
264.992	12.65
265.209	-7.26
265.426	-45.72
265.643	-20.84
265.86	-38.37
266.077	-58.51
266.294	-5.01
266.51	25
266.727	11.67
266.944	19.03
267.161	18.39
267.378	10.87
267.595	-1.75
267.812	-15.09
268.028	-31.24
268.245	-23.21
268.462	-21.21
268.679	-19.6
268.896	-2.65
269.112	-8.1
269.329	-27.32
269.546	-12.99
269.763	-3.1
269.979	-2.99
270.196	3.85
270.413	18.84
270.629	-3.59
270.846	2.22
271.063	1.12
271.279	0.37
271.496	-22.08
271.712	2.21
271.929	-8.96
272.146	-16.3
272.362	-6.57
272.579	-9.22
272.795	-13.54
273.012	-5.93
273.228	14.4
273.445	11.76
273.661	26.2
273.878	16.26
274.094	11.65
274.311	-3.74
274.527	-21.69
274.744	-6.45
274.96	-6.64
275.177	-10.15
275.393	9.68
275.609	12.84
275.826	10.38
276.042	-5.08
276.259	-12.37
276.475	-29.59
276.691	-40.41
276.908	-56.09
277.124	-32.34
277.34	-31.72
277.557	-57.1
277.773	-50.97
277.989	-23.95
278.205	-24.05
278.422	-35.77
278.638	-24.65
278.854	-20.57
279.07	-17.53
279.286	-11.07
279.503	21.42
279.719	30.19
279.935	13.55
280.151	-8.81
280.367	-4.81
280.583	-27.25
280.799	-37.72
281.016	-60.03
281.232	-28.27
281.448	-43.35
281.664	-19.73
281.88	-4.86
282.096	13.4
282.312	7.57
282.528	2.34
282.744	-16.58
282.96	-26.44
283.176	-32.38
283.392	-96.9
283.608	-73.89
283.824	-86.51
284.04	-131.64
284.256	-66.58
284.471	-9.12
284.687	-1.3
284.903	4.38
285.119	22.18
285.335	14.75
285.551	-2.37
285.767	-21.97
285.982	-10.95
286.198	-38.86
286.414	-40.32
286.63	-40.45
286.846	-24.06
287.061	-5.47
287.277	-5.02
287.493	-26.66
287.709	-17.33
287.924	8.92
288.14	-4.24
288.356	6.96
288.571	20.51
288.787	10.58
289.003	-7.6
289.218	-26.77
289.434	-27.9
289.65	-13.28
289.865	-14.8
290.081	-7
290.296	10.28
290.512	-2.31
290.727	-14.09
290.943	10.57
291.159	10.07
291.374	-15.79
291.59	-2.1
291.805	-9.04
292.021	-25.21
292.236	-30.37
292.451	-7.82
292.667	-4.93
292.882	4.25
293.098	-2.64
293.313	7.62
293.529	12.73
293.744	0.51
293.959	9.62
294.175	31.6
294.39	3.86
294.605	14.97
294.821	22.25
295.036	17.88
295.251	0.4
295.467	2.96
295.682	-12.96
295.897	-21.26
296.112	-36.4
296.328	-32.3
296.543	-29.5
296.758	-22.83
296.973	-24.42
297.188	-11.06
297.404	-15.38
297.619	-39.22
297.834	-58.07
298.049	-31.93
298.264	-34.12
298.479	-55.46
298.694	-0.9
298.909	-1.66
299.125	-2.05
299.34	6.13
299.555	33.55
299.77	30.49
299.985	33.16
300.2	29.76
300.415	17.9
300.63	5.54
300.845	-8.12
301.06	-15.08
301.275	-39.33
301.49	-28.7
301.704	-27.94
301.919	-38.66
302.134	-46.65
302.349	-16.28
302.564	-16.08
302.779	-15.03
302.994	-4.83
303.209	20.1
303.423	4.75
303.638	-8.2
303.853	-32.31
304.068	-35.9
304.283	-54.76
304.497	-55.35
304.712	-15
304.927	6.94
305.142	17.22
305.356	15.97
305.571	28.12
305.786	19.85
306	33.39
306.215	5.27
306.43	2.19
306.644	-25.23
306.859	-35.32
307.074	-21.77
307.288	-5.32
307.503	4.96
307.717	20.27
307.932	21.31
308.147	6.32
308.361	7.85
308.576	-9.04
308.79	-16.69
309.005	-46.18
309.219	-18.21
309.434	-16.73
309.648	4.18
309.863	1.15
310.077	8.58
310.292	1.87
310.506	-13.72
310.72	-14.2
310.935	7.58
311.149	16
311.364	12.77
311.578	9.57
311.792	0
312.007	-27.29
312.221	-57.17
312.435	-37.57
312.649	-20.85
312.864	-51.06
313.078	-56.4
313.292	-63.12
313.507	-66.4
313.721	-62.73
313.935	-34.5
314.149	-11.96
314.363	25.94
314.578	8.5
314.792	-26.17
315.006	-13.95
315.22	-3.49
315.434	-12.91
315.648	-17.62
315.862	-11.86
316.077	-32.67
316.291	-54.75
316.505	-82.92
316.719	-66.65
316.933	-40.59
317.147	-20.98
317.361	-18.96
317.575	-17.49
317.789	-18.41
318.003	-12.63
318.217	2.03
318.431	0
318.645	6.09
318.859	17.47
319.073	10.74
319.287	-0.71
319.5	3.39
319.714	8.72
319.928	-1.71
320.142	-0.66
320.356	6.39
320.57	-27.73
320.784	-32
320.997	-42.19
321.211	-25.48
321.425	-65.76
321.639	-16.12
321.853	-12.91
322.066	-13.27
322.28	-34.05
322.494	-15.96
322.707	-21.88
322.921	-27.89
323.135	-14.49
323.349	-1.56
323.562	6.05
323.776	2.36
323.989	13.96
324.203	-6.07
324.417	-2.92
324.63	-20.1
324.844	-19.33
325.057	-57.22
325.271	-37.27
325.485	-35.44
325.698	-18.57
325.912	-10
326.125	-15.63
326.339	-15.77
326.552	-27.43
326.766	-37.58
326.979	-47.14
327.193	-15.66
327.406	-17.39
327.619	-10.05
327.833	-11.4
328.046	2.62
328.26	-5.77
328.473	-3.4
328.686	-3.86
328.9	-0.26
329.113	-12.22
329.326	-9.41
329.54	-2.24
329.753	8.52
329.966	18.09
330.179	24.28
330.393	19.09
330.606	7.95
330.819	-1.79
331.032	-15.75
331.246	-13.35
331.459	-2.03
331.672	-2.36
331.885	-8.93
332.098	-4.67
332.311	0.34
332.525	0
332.738	3.16
332.951	-2
333.164	13.87
333.377	13.01
333.59	5.85
333.803	16.44
334.016	23.75
334.229	2.65
334.442	-6.67
334.655	-10.09
334.868	-23.44
335.081	-34.11
335.294	-47.02
335.507	-41.93
335.72	-31.71
335.933	-29.03
336.146	-19.78
336.359	-9.75
336.572	-6.35
336.785	-10.29
336.997	-14.65
337.21	-8.51
337.423	-11.66
337.636	-7.11
337.849	-6.13
338.062	12.32
338.274	26.14
338.487	3.47
338.7	-16.04
338.913	-5.04
339.125	-37.66
339.338	-60.02
339.551	-37.86
339.763	-16.24
339.976	-23.65
340.189	-12.35
340.402	22.76
340.614	37.23
340.827	26.61
341.039	17
341.252	5.47
341.465	-7.73
341.677	-21.45
341.89	-25.45
342.102	-10.94
342.315	5.79
342.527	0
342.74	-7.73
342.952	-2.91
343.165	-4.38
343.377	-0.48
343.59	11.09
343.802	15.68
344.015	19.9
344.227	25.99
344.44	20.18
344.652	13.71
344.864	21.76
345.077	29.11
345.289	18.21
345.502	17.95
345.714	28.87
345.926	22.54
346.139	-9.14
346.351	-2.82
346.563	-3.73
346.775	-21.06
346.988	-9.48
347.2	-1.13
347.412	-1.6
347.624	-2.47
347.837	-3.13
348.049	-3.6
348.261	-3.4
348.473	-8.39
348.685	-4.1
348.897	-17.39
349.11	-23.4
349.322	-12.37
349.534	-10.05
349.746	-4.19
349.958	-8.41
350.17	-11.57
350.382	-21.24
350.594	-16.81
350.806	-0.3
351.018	13.59
351.23	24.67
351.442	25.38
351.654	27.88
351.866	11.05
352.078	24.28
352.29	6.63
352.502	3.73
352.714	1.52
352.926	7.49
353.138	-0.3
353.35	2.93
353.561	-1.55
353.773	-7.28
353.985	-1.91
354.197	-11.14
354.409	-7.31
354.621	-23.44
354.832	-20.94
355.044	-32.68
355.256	-31.74
355.468	-46.91
355.679	5.14
355.891	11.99
356.103	12.44
356.314	16.38
356.526	19.09
356.738	7.13
356.949	-6.24
357.161	3.8
357.373	4.92
357.584	13.77
357.796	7.43
358.008	19.5
358.219	17.51
358.431	3.5
358.642	5.64
358.854	4.2
359.065	-16.26
359.277	-16.59
359.488	-16.02
359.7	-23.66
359.911	-38.16
360.123	-21.64
360.334	-31.51
360.546	-29.98
360.757	-31.9
360.969	-27.99
361.18	-34.26
361.391	-15.37
361.603	-2.29
361.814	3.92
362.025	17.09
362.237	15.56
362.448	10.32
362.659	3.67
362.871	-8.17
363.082	-17.69
363.293	-31.22
363.504	-51.13
363.716	-58.15
363.927	-22.25
364.138	-47.83
364.349	-51.07
364.56	-56.19
364.772	-33.86
364.983	-35.01
365.194	-7.59
365.405	1.9
365.616	20.23
365.827	15.63
366.038	18.66
366.25	12.1
366.461	17.13
366.672	10.94
366.883	5.56
367.094	-2.23
367.305	-10.57
367.516	-8.77
367.727	-26.03
367.938	-24.78
368.149	-23.83
368.36	-12.99
368.571	-39.99
368.781	-21.89
368.992	-18.46
369.203	-16.56
369.414	-44.51
369.625	-21.14
369.836	0.38
370.047	6.06
370.258	13.44
370.468	29.83
370.679	26.32
370.89	4.3
371.101	21.82
371.312	10.25
371.522	13.2
371.733	5.01
371.944	-4.34
372.155	-46.67
372.365	-39.68
372.576	-37.51
372.787	-23.22
372.997	-23.74
373.208	0.43
373.419	-7.09
373.629	-16.37
373.84	-31.54
374.05	-23.96
374.261	-57.41
374.472	-49.77
374.682	-38.48
374.893	-33.28
375.103	-28.22
375.314	-8.98
375.524	-5.73
375.735	-3.85
375.945	-3.85
376.156	-5.52
376.366	3.04
376.577	9.62
376.787	9.66
376.997	17.02
377.208	18.45
377.418	6.17
377.629	4.79
377.839	0.82
378.049	-4.05
378.26	-9.62
378.47	-9.88
378.68	-14.35
378.89	-12.15
379.101	-14.85
379.311	-14.28
379.521	-11.49
379.732	-6.24
379.942	-4.54
380.152	-9.39
380.362	-1.71
380.572	12.75
380.783	6.91
380.993	6.51
381.203	13.21
381.413	10.96
381.623	2.91
381.833	8.14
382.043	3.17
382.253	-3.45
382.463	0.7
382.674	-1.36
382.884	6.09
383.094	10.56
383.304	12.87
383.514	10.9
383.724	3.1
383.934	-10.06
384.144	-2.01
384.353	0.83
384.563	4.93
384.773	16.29
384.983	13.09
385.193	7.25
385.403	3.98
385.613	-1.7
385.823	-5.09
386.033	-2.13
386.242	-7.73
386.452	-6.88
386.662	-4.84
386.872	0.69
387.082	-0.33
387.291	-0.19
387.501	2.81
387.711	2.34
387.921	-3.21
388.13	1.35
388.34	3.81
388.55	-1.53
388.759	-5.67
388.969	-4.16
389.179	-6.42
389.388	-8.76
389.598	-9.61
389.807	-11.64
390.017	-16.08
390.227	-17.43
390.436	-17.58
390.646	-15.7
390.855	-11.52
391.065	-6.23
391.274	-3.76
391.484	-3.38
391.693	-2.49
391.903	-3.15
392.112	-4.85
392.322	-4.73
392.531	-3.6
392.74	-3.66
392.95	-2.76
393.159	-3.4
393.369	-2.66
393.578	-1.86
393.787	-2.14
393.997	-2.02
394.206	-0.89
394.415	-1.29
394.625	-0.51
394.834	-0.58
395.043	-0.28
395.252	0.9
395.462	1.14
395.671	-0.01
395.88	1.13
396.089	0.59
396.298	0.31
396.508	0.59
396.717	1.26
396.926	1.03
397.135	2.26
397.344	1.7
397.553	0.87
397.762	2.13
397.971	1.5
398.181	0.37
398.39	0.48
398.599	1.24
398.808	0.18
399.017	1.43
399.226	2.07
399.435	1.75
399.644	1.78
399.853	2.13
400.062	1.6
400.27	1.03
400.479	1.54
400.688	1.55
400.897	1.34
401.106	1.37
401.315	1.49
401.524	1.38
401.733	1.06
401.941	1.12
402.15	1.27
402.359	1.56
402.568	1.88
402.777	2.11
402.985	2.02
403.194	1.77
403.403	1.97
403.612	1.61
403.82	1.35
404.029	1.67
404.238	1.85
404.446	1.89
404.655	2.08
404.864	2.21
405.072	2.05
405.281	1.94
405.489	1.7
405.698	1.66
405.906	1.96
406.115	1.91
406.324	1.97
406.532	2.28
406.741	2.31
406.949	2.16
407.158	2.2
407.366	2.08
407.574	1.9
407.783	1.98
407.991	2.02
408.2	2.16
408.408	2.23
408.617	2.27
408.825	2.03
409.033	1.96
409.242	1.85
409.45	1.77
409.658	1.66
409.867	1.87
410.075	2.01
410.283	1.98
410.491	1.93
410.7	1.94
410.908	1.91
411.116	1.82
411.324	1.83
411.533	1.85
411.741	1.93
411.949	1.87
412.157	1.79
412.365	1.91
412.573	1.97
412.781	1.88
412.99	1.93
413.198	1.94
413.406	1.84
413.614	2.01
413.822	2.07
414.03	2.06
414.238	2.16
414.446	2.22
414.654	2.01
414.862	1.95
415.07	1.9
415.278	1.98
415.486	1.7
415.694	1.8
415.902	1.81
416.109	1.68
416.317	1.54
416.525	1.72
416.733	1.68
416.941	1.74
417.149	1.82
417.357	1.84
417.564	1.87
417.772	1.94
417.98	1.88
418.188	1.88
418.395	1.66
418.603	1.43
418.811	1.29
419.019	1.26
419.226	1.3
419.434	1.44
419.642	1.51
419.849	1.51
420.057	1.6
420.265	1.51
420.472	1.47
420.68	1.6
420.887	1.68
421.095	1.66
421.302	1.71
421.51	1.62
421.717	1.58
421.925	1.62
422.132	1.65
422.34	1.47
422.547	1.59
422.755	1.52
422.962	1.52
423.17	1.34
423.377	1.53
423.585	1.71
423.792	1.78
423.999	1.78
424.207	1.74
424.414	1.68
424.621	1.49
424.829	1.58
425.036	1.52
425.243	1.73
425.451	1.84
425.658	1.74
425.865	1.57
426.072	1.51
426.28	1.25
426.487	1.26
426.694	1.29
426.901	1.38
427.108	1.49
427.315	1.68
427.523	1.54
427.73	1.6
427.937	1.38
428.144	1.37
428.351	1.38
428.558	1.54
428.765	1.39
428.972	1.56
429.179	1.51
429.386	1.5
429.593	1.31
429.8	1.39
430.007	1.43
430.214	1.36
430.421	1.45
430.628	1.54
430.835	1.51
431.042	1.48
431.249	1.54
431.456	1.42
431.662	1.54
431.869	1.7
432.076	1.7
432.283	1.84
432.49	1.84
432.697	1.75
432.903	1.65
433.11	1.79
433.317	1.74
433.524	1.85
433.73	1.85
433.937	1.99
434.144	1.77
434.35	1.6
434.557	1.53
434.764	1.57
434.97	1.29
435.177	1.51
435.384	1.65
435.59	1.61
435.797	1.62
436.003	1.85
436.21	1.78
436.416	1.88
436.623	1.91
436.829	1.84
437.036	1.79
437.242	1.83
437.449	1.76
437.655	1.84
437.862	1.9
438.068	1.89
438.275	1.89
438.481	1.91
438.687	1.85
438.894	1.96
439.1	1.93
439.307	2
439.513	2
439.719	2.03
439.926	1.95
440.132	2.01
440.338	1.92
440.544	1.92
440.751	1.85
440.957	1.9
441.163	1.84
441.369	1.89
441.575	1.82
441.782	1.93
441.988	1.87
442.194	1.85
442.4	1.82
442.606	2.05
442.812	1.97
443.018	1.95
443.224	2.07
443.431	2.13
443.637	1.99
443.843	2.09
444.049	2.21
444.255	2.17
444.461	2.07
444.667	1.98
444.873	1.89
445.079	1.81
445.284	1.8
445.49	1.83
445.696	1.85
445.902	1.91
446.108	1.93
446.314	1.98
446.52	2.02
446.726	2.08
446.931	2.09
447.137	2.08
447.343	2.15
447.549	2.17
447.755	2.14
447.96	2.12
448.166	2.16
448.372	2.1
448.578	2.02
448.783	2.08
448.989	2.17
449.195	2.18
449.4	2.22
449.606	2.28
449.812	2.22
450.017	2.2
450.223	2.13
450.428	2.14
450.634	2.22
450.84	2.25
451.045	2.25
451.251	2.29
451.456	2.33
451.662	2.28
451.867	2.34
452.073	2.33
452.278	2.3
452.483	2.2
452.689	2.18
452.894	2.26
453.1	2.24
453.305	2.32
453.51	2.4
453.716	2.34
453.921	2.33
454.127	2.35
454.332	2.27
454.537	2.25
454.742	2.25
454.948	2.14
455.153	2.15
455.358	2.18
455.563	2.24
455.769	2.24
455.974	2.21
456.179	2.22
456.384	2.26
456.589	2.08
456.795	2.17
457	2.2
457.205	2.18
457.41	2.11
457.615	2.25
457.82	2.28
458.025	2.31
458.23	2.32
458.435	2.39
458.64	2.35
458.845	2.33
459.05	2.29
459.255	2.34
459.46	2.28
459.665	2.27
459.87	2.24
460.075	2.33
460.28	2.33
460.485	2.35
460.69	2.34
460.895	2.38
461.099	2.22
461.304	2.02
461.509	2.13
461.714	2.16
461.919	2.11
462.123	2.28
462.328	2.32
462.533	2.21
462.738	2.15
462.942	2.15
463.147	2.07
463.352	2.15
463.556	2.21
463.761	2.29
463.966	2.31
464.17	2.37
464.375	2.42
464.58	2.29
464.784	2.2
464.989	2.23
465.193	2.22
465.398	2.25
465.602	2.5
465.807	2.55
466.011	2.5
466.216	2.41
466.42	2.39
466.625	2.38
466.829	2.44
467.034	2.53
467.238	2.7
467.443	2.73
467.647	2.64
467.851	2.67
468.056	2.62
468.26	2.63
468.464	2.64
468.669	2.71
468.873	2.7
469.077	2.69
469.282	2.64
469.486	2.65
469.69	2.65
469.894	2.67
470.099	2.7
470.303	2.71
470.507	2.74
470.711	2.74
470.915	2.8
471.119	2.79
471.324	2.8
471.528	2.8
471.732	2.85
471.936	2.82
472.14	2.81
472.344	2.88
472.548	2.88
472.752	2.89
472.956	2.86
473.16	2.9
473.364	2.9
473.568	2.8
473.772	2.72
473.976	2.9
474.18	2.89
474.384	2.87
474.588	2.99
474.792	3.08
474.995	2.96
475.199	2.98
475.403	2.97
475.607	2.96
475.811	2.92
476.015	2.81
476.218	2.8
476.422	2.83
476.626	2.76
476.83	2.86
477.033	2.99
477.237	3.04
477.441	3
477.644	3.04
477.848	3.01
478.052	3
478.255	3.03
478.459	3.01
478.663	3.12
478.866	3.1
479.07	3.07
479.273	3.1
479.477	3.18
479.681	3.2
479.884	3.18
480.088	3.19
480.291	3.13
480.495	3.15
480.698	3.08
480.901	3.11
481.105	3.12
481.308	3.15
481.512	3.18
481.715	3.24
481.919	3.29
482.122	3.34
482.325	3.4
482.529	3.39
482.732	3.33
482.935	3.25
483.138	3.2
483.342	3.2
483.545	3.22
483.748	3.35
483.952	3.42
484.155	3.53
484.358	3.52
484.561	3.53
484.764	3.46
484.967	3.44
485.171	3.43
485.374	3.41
485.577	3.44
485.78	3.5
485.983	3.47
486.186	3.51
486.389	3.59
486.592	3.56
486.795	3.58
486.998	3.6
487.201	3.59
487.404	3.7
487.607	3.75
487.81	3.7
488.013	3.8
488.216	3.83
488.419	3.75
488.622	3.76
488.825	3.83
489.028	3.84
489.231	3.85
489.433	3.83
489.636	3.88
489.839	3.95
490.042	4.01
490.245	3.99
490.447	4.06
490.65	4.08
490.853	4.11
491.056	4.13
491.258	4.26
491.461	4.31
491.664	4.38
491.866	4.37
492.069	4.41
492.272	4.39
492.474	4.46
492.677	4.46
492.879	4.58
493.082	4.64
493.285	4.75
493.487	4.77
493.69	4.84
493.892	4.86
494.095	4.92
494.297	4.99
494.5	5.02
494.702	5.08
494.905	5.16
495.107	5.19
495.309	5.2
495.512	5.32
495.714	5.34
495.917	5.44
496.119	5.51
496.321	5.59
496.524	5.59
496.726	5.7
496.928	5.7
497.13	5.73
497.333	5.77
497.535	5.86
497.737	5.88
497.939	5.96
498.142	6.05
498.344	6.07
498.546	6.13
498.748	6.25
498.95	6.3
499.152	6.27
499.355	6.35
499.557	6.4
499.759	6.44
499.961	6.45
500.163	6.53
500.365	6.59
500.567	6.56
500.769	6.53
500.971	6.61
501.173	6.61
501.375	6.68
501.577	6.7
501.779	6.74
501.981	6.71
502.183	6.74
502.385	6.68
502.587	6.74
502.788	6.78
502.99	6.81
503.192	6.83
503.394	6.81
503.596	6.78
503.798	6.68
503.999	6.62
504.201	6.63
504.403	6.71
504.605	6.77
504.806	6.83
505.008	6.89
505.21	6.88
505.411	6.77
505.613	6.75
505.815	6.69
506.016	6.67
506.218	6.61
506.42	6.6
506.621	6.59
506.823	6.59
507.024	6.53
507.226	6.51
507.427	6.5
507.629	6.41
507.83	6.4
508.032	6.38
508.233	6.37
508.435	6.37
508.636	6.45
508.838	6.43
509.039	6.39
509.24	6.43
509.442	6.38
509.643	6.32
509.845	6.26
510.046	6.3
510.247	6.2
510.448	6.25
510.65	6.22
510.851	6.27
511.052	6.27
511.254	6.31
511.455	6.22
511.656	6.12
511.857	6.02
512.058	5.97
512.26	5.91
512.461	5.94
512.662	5.96
512.863	5.91
513.064	5.85
513.265	5.86
513.466	5.87
513.667	5.92
513.868	5.95
514.069	5.96
514.27	5.97
514.471	5.9
514.672	5.9
514.873	5.94
515.074	6.01
515.275	5.92
515.476	5.91
515.677	5.87
515.878	5.84
516.079	5.8
516.28	5.81
516.481	5.78
516.682	5.75
516.882	5.72
517.083	5.69
517.284	5.72
517.485	5.71
517.686	5.72
517.886	5.7
518.087	5.64
518.288	5.62
518.488	5.58
518.689	5.52
518.89	5.54
519.091	5.62
519.291	5.57
519.492	5.63
519.692	5.66
519.893	5.64
520.094	5.56
520.294	5.6
520.495	5.56
520.695	5.56
520.896	5.54
521.096	5.6
521.297	5.59
521.497	5.57
521.698	5.54
521.898	5.53
522.099	5.47
522.299	5.44
522.499	5.47
522.7	5.48
522.9	5.48
523.101	5.45
523.301	5.48
523.501	5.49
523.702	5.49
523.902	5.5
524.102	5.64
524.302	5.67
524.503	5.64
524.703	5.62
524.903	5.66
525.103	5.56
525.304	5.56
525.504	5.59
525.704	5.62
525.904	5.54
526.104	5.57
526.304	5.57
526.504	5.56
526.705	5.52
526.905	5.55
527.105	5.52
527.305	5.47
527.505	5.39
527.705	5.37
527.905	5.43
528.105	5.44
528.305	5.46
528.505	5.55
528.705	5.66
528.905	5.63
529.105	5.66
529.304	5.68
529.504	5.68
529.704	5.65
529.904	5.66
530.104	5.63
530.304	5.6
530.503	5.61
530.703	5.57
530.903	5.59
531.103	5.64
531.303	5.67
531.502	5.67
531.702	5.7
531.902	5.74
532.101	5.72
532.301	5.75
532.501	5.85
532.7	5.85
532.9	5.83
533.1	5.84
533.299	5.82
533.499	5.69
533.698	5.72
533.898	5.75
534.097	5.74
534.297	5.75
534.496	5.8
534.696	5.77
534.895	5.8
535.095	5.81
535.294	5.83
535.494	5.87
535.693	5.9
535.892	5.88
536.092	5.88
536.291	5.9
536.491	5.9
536.69	5.89
536.889	5.86
537.088	5.9
537.288	5.86
537.487	5.86
537.686	5.87
537.886	5.93
538.085	5.96
538.284	6.01
538.483	5.99
538.682	6.02
538.882	6
539.081	6
539.28	6
539.479	5.97
539.678	5.95
539.877	5.94
540.076	5.94
540.275	5.94
540.474	6.02
540.673	6.05
540.872	6.06
541.071	6.05
541.27	6.09
541.469	6.1
541.668	6.13
541.867	6.24
542.066	6.3
542.265	6.31
542.464	6.33
542.663	6.39
542.862	6.38
543.06	6.43
543.259	6.48
543.458	6.48
543.657	6.52
543.856	6.56
544.054	6.53
544.253	6.56
544.452	6.62
544.651	6.57
544.849	6.56
545.048	6.57
545.247	6.59
545.445	6.6
545.644	6.64
545.843	6.66
546.041	6.67
546.24	6.67
546.438	6.71
546.637	6.73
546.836	6.74
547.034	6.78
547.233	6.82
547.431	6.83
547.63	6.9
547.828	6.93
548.027	6.99
548.225	6.96
548.423	7
548.622	7.02
548.82	7.07
549.019	7.1
549.217	7.16
549.415	7.13
549.614	7.21
549.812	7.22
550.01	7.25
550.209	7.31
550.407	7.41
550.605	7.32
550.803	7.39
551.002	7.42
551.2	7.42
551.398	7.52
551.596	7.62
551.794	7.66
551.993	7.72
552.191	7.79
552.389	7.79
552.587	7.9
552.785	7.9
552.983	8.01
553.181	8.02
553.379	8.03
553.577	8
553.775	8.1
553.973	8.12
554.171	8.14
554.369	8.23
554.567	8.3
554.765	8.31
554.963	8.33
555.161	8.4
555.359	8.49
555.557	8.55
555.755	8.65
555.952	8.7
556.15	8.77
556.348	8.76
556.546	8.81
556.744	8.82
556.941	8.8
557.139	8.85
557.337	8.99
557.535	9.06
557.732	9.13
557.93	9.32
558.128	9.44
558.325	9.45
558.523	9.55
558.721	9.61
558.918	9.7
559.116	9.82
559.313	9.94
559.511	9.98
559.708	10.04
559.906	10.07
560.104	10.07
560.301	10.1
560.498	10.17
560.696	10.27
560.893	10.31
561.091	10.43
561.288	10.49
561.486	10.52
561.683	10.59
561.88	10.74
562.078	10.78
562.275	10.84
562.473	11
562.67	11.07
562.867	11.1
563.064	11.2
563.262	11.25
563.459	11.33
563.656	11.43
563.853	11.46
564.051	11.52
564.248	11.66
564.445	11.75
564.642	11.87
564.839	12.03
565.036	12.17
565.234	12.28
565.431	12.28
565.628	12.3
565.825	12.35
566.022	12.44
566.219	12.49
566.416	12.62
566.613	12.78
566.81	12.89
567.007	12.92
567.204	13.03
567.401	13.1
567.598	13.13
567.795	13.17
567.991	13.19
568.188	13.26
568.385	13.35
568.582	13.46
568.779	13.55
568.976	13.68
569.172	13.78
569.369	13.88
569.566	13.98
569.763	14
569.96	14.08
570.156	14.16
570.353	14.22
570.55	14.29
570.746	14.47
570.943	14.57
571.14	14.61
571.336	14.64
571.533	14.67
571.729	14.76
571.926	14.86
572.123	15.02
572.319	15.15
572.516	15.28
572.712	15.22
572.909	15.21
573.105	15.25
573.302	15.28
573.498	15.37
573.695	15.55
573.891	15.63
574.087	15.52
574.284	15.59
574.48	15.54
574.677	15.56
574.873	15.56
575.069	15.8
575.266	15.88
575.462	15.95
575.658	15.98
575.854	16.12
576.051	16.09
576.247	16.05
576.443	16.1
576.639	16.11
576.835	16.1
577.032	16.14
577.228	16.24
577.424	16.32
577.62	16.38
577.816	16.43
578.012	16.47
578.208	16.53
578.404	16.51
578.6	16.62
578.796	16.67
578.993	16.68
579.189	16.64
579.384	16.7
579.58	16.7
579.776	16.66
579.972	16.71
580.168	16.74
580.364	16.8
580.56	16.76
580.756	16.8
580.952	16.78
581.148	16.8
581.343	16.74
581.539	16.77
581.735	16.82
581.931	16.79
582.127	16.72
582.322	16.72
582.518	16.67
582.714	16.63
582.909	16.6
583.105	16.59
583.301	16.69
583.496	16.73
583.692	16.67
583.888	16.76
584.083	16.81
584.279	16.67
584.474	16.59
584.67	16.61
584.866	16.56
585.061	16.57
585.257	16.6
585.452	16.72
585.648	16.67
585.843	16.72
586.039	16.75
586.234	16.79
586.429	16.73
586.625	16.82
586.82	16.8
587.015	16.68
587.211	16.62
587.406	16.55
587.601	16.52
587.797	16.5
587.992	16.46
588.187	16.48
588.383	16.51
588.578	16.5
588.773	16.48
588.968	16.61
589.163	16.66
589.359	16.69
589.554	16.72
589.749	16.85
589.944	16.89
590.139	16.87
590.334	16.98
590.529	17.04
590.724	17.03
590.919	17.03
591.114	17.12
591.309	17.08
591.504	17.08
591.699	17.08
591.894	17.08
592.089	17.07
592.284	17.08
592.479	17.12
592.674	17.17
592.869	17.17
593.064	17.26
593.259	17.36
593.454	17.28
593.648	17.27
593.843	17.32
594.038	17.35
594.233	17.34
594.428	17.55
594.622	17.65
594.817	17.8
595.012	17.77
595.206	17.87
595.401	17.97
595.596	18.03
595.79	18
595.985	18.1
596.18	18.17
596.374	18.2
596.569	18.31
596.763	18.41
596.958	18.47
597.153	18.52
597.347	18.5
597.542	18.52
597.736	18.59
597.931	18.68
598.125	18.79
598.319	18.91
598.514	18.91
598.708	18.96
598.903	19.03
599.097	19
599.291	19.12
599.486	19.19
599.68	19.29
599.874	19.34
600.069	19.49
600.263	19.5
600.457	19.6
600.651	19.51
600.846	19.53
601.04	19.48
601.234	19.43
601.428	19.43
601.622	19.5
601.817	19.51
602.011	19.55
602.205	19.54
602.399	19.53
602.593	19.62
602.787	19.54
602.981	19.53
603.175	19.74
603.369	19.74
603.563	19.71
603.757	19.83
603.951	19.85
604.145	19.67
604.339	19.75
604.533	19.7
604.727	19.61
604.921	19.59
605.115	19.66
605.309	19.54
605.502	19.59
605.696	19.65
605.89	19.72
606.084	19.79
606.278	19.75
606.471	19.64
606.665	19.53
606.859	19.36
607.053	19.04
607.246	19
607.44	18.92
607.634	18.91
607.827	18.87
608.021	18.99
608.214	19.02
608.408	19.05
608.602	18.99
608.795	19
608.989	18.91
609.182	18.85
609.376	18.8
609.569	18.78
609.763	18.7
609.956	18.63
610.15	18.47
610.343	18.38
610.537	18.25
610.73	18.07
610.923	17.96
611.117	17.98
611.31	17.85
611.504	17.82
611.697	17.83
611.89	17.87
612.083	17.78
612.277	17.78
612.47	17.66
612.663	17.62
612.856	17.54
613.05	17.47
613.243	17.32
613.436	17.35
613.629	17.27
613.822	17.16
614.015	17.09
614.209	17.02
614.402	16.93
614.595	16.92
614.788	16.85
614.981	16.82
615.174	16.73
615.367	16.63
615.56	16.54
615.753	16.52
615.946	16.45
616.139	16.44
616.332	16.48
616.525	16.34
616.718	16.21
616.911	16.1
617.103	16.11
617.296	15.98
617.489	15.94
617.682	15.96
617.875	16.02
618.067	15.91
618.26	15.81
618.453	15.83
618.646	15.76
618.838	15.6
619.031	15.55
619.224	15.51
619.417	15.57
619.609	15.52
619.802	15.62
619.994	15.64
620.187	15.57
620.38	15.46
620.572	15.38
620.765	15.29
620.957	15.26
621.15	15.25
621.342	15.23
621.535	15.25
621.727	15.16
621.92	15.13
622.112	15.15
622.305	15.11
622.497	15.09
622.69	15.14
622.882	15.2
623.074	15.17
623.267	15.12
623.459	15.04
623.651	14.96
623.844	14.9
624.036	15
624.228	15.07
624.42	15.09
624.613	15.08
624.805	15.02
624.997	14.91
625.189	14.81
625.381	14.78
625.574	14.82
625.766	14.78
625.958	14.71
626.15	14.71
626.342	14.72
626.534	14.66
626.726	14.69
626.918	14.71
627.11	14.6
627.302	14.58
627.494	14.58
627.686	14.5
627.878	14.46
628.07	14.47
628.262	14.52
628.454	14.43
628.646	14.44
628.838	14.36
629.029	14.35
629.221	14.26
629.413	14.27
629.605	14.21
629.797	14.26
629.989	14.24
630.18	14.26
630.372	14.24
630.564	14.24
630.755	14.14
630.947	14.16
631.139	14.03
631.33	13.96
631.522	13.92
631.714	13.88
631.905	13.82
632.097	13.8
632.289	13.81
632.48	13.8
632.672	13.86
632.863	13.81
633.055	13.8
633.246	13.84
633.438	13.82
633.629	13.77
633.821	13.77
634.012	13.83
634.203	13.76
634.395	13.76
634.586	13.76
634.777	13.73
634.969	13.76
635.16	13.71
635.351	13.64
635.543	13.59
635.734	13.61
635.925	13.53
636.117	13.61
636.308	13.68
636.499	13.64
636.69	13.59
636.881	13.56
637.073	13.53
637.264	13.48
637.455	13.54
637.646	13.62
637.837	13.67
638.028	13.6
638.219	13.58
638.41	13.58
638.601	13.54
638.792	13.49
638.983	13.54
639.174	13.53
639.365	13.54
639.556	13.44
639.747	13.38
639.938	13.35
640.129	13.4
640.32	13.31
640.511	13.38
640.701	13.4
640.892	13.42
641.083	13.3
641.274	13.29
641.465	13.29
641.655	13.27
641.846	13.27
642.037	13.28
642.228	13.29
642.418	13.22
642.609	13.23
642.8	13.19
642.99	13.15
643.181	13.12
643.372	13.15
643.562	13.15
643.753	13.09
643.943	13.01
644.134	12.91
644.324	12.99
644.515	12.91
644.705	12.9
644.896	13.02
645.086	13.07
645.277	12.86
645.467	12.89
645.658	12.8
645.848	12.76
646.038	12.78
646.229	12.82
646.419	12.71
646.61	12.84
646.8	12.86
646.99	12.8
647.18	12.75
647.371	12.75
647.561	12.54
647.751	12.43
647.941	12.4
648.132	12.41
648.322	12.45
648.512	12.56
648.702	12.56
648.892	12.58
649.082	12.58
649.272	12.5
649.462	12.47
649.653	12.42
649.843	12.39
650.033	12.42
650.223	12.33
650.413	12.28
650.603	12.28
650.793	12.24
650.983	12.19
651.172	12.2
651.362	12.14
651.552	12.07
651.742	12
651.932	11.93
652.122	11.92
652.312	11.91
652.502	11.79
652.691	11.72
652.881	11.65
653.071	11.61
653.261	11.52
653.45	11.5
653.64	11.39
653.83	11.31
654.019	11.14
654.209	11.09
654.399	11.02
654.588	10.93
654.778	10.72
654.968	10.71
655.157	10.55
655.347	10.41
655.536	10.28
655.726	10.23
655.915	10.06
656.105	9.99
656.294	9.88
656.484	9.77
656.673	9.69
656.863	9.61
657.052	9.47
657.241	9.37
657.431	9.34
657.62	9.27
657.809	9.08
657.999	8.98
658.188	8.87
658.377	8.63
658.567	8.53
658.756	8.43
658.945	8.31
659.134	8.15
659.324	8.11
659.513	7.93
659.702	7.7
659.891	7.58
660.08	7.43
660.269	7.31
660.458	7.16
660.648	7.11
660.837	7
661.026	6.92
661.215	6.84
661.404	6.76
661.593	6.69
661.782	6.51
661.971	6.37
662.16	6.19
662.349	6.04
662.538	5.97
662.726	5.94
662.915	5.96
663.104	5.88
663.293	5.86
663.482	5.81
663.671	5.74
663.86	5.66
664.048	5.77
664.237	5.75
664.426	5.68
664.615	5.57
664.803	5.46
664.992	5.28
665.181	5.16
665.369	5.06
665.558	5.04
665.747	5.04
665.935	5
666.124	5.04
666.312	5.04
666.501	5.08
666.69	5.08
666.878	5.11
667.067	4.99
667.255	4.94
667.444	4.89
667.632	4.87
667.82	4.83
668.009	4.83
668.197	4.81
668.386	4.74
668.574	4.73
668.762	4.73
668.951	4.8
669.139	4.85
669.327	4.96
669.516	4.94
669.704	4.92
669.892	4.88
670.08	4.8
670.269	4.75
670.457	4.79
670.645	4.76
670.833	4.84
671.021	5.06
671.21	5.13
671.398	5.16
671.586	5.27
671.774	5.32
671.962	5.3
672.15	5.38
672.338	5.32
672.526	5.41
672.714	5.32
672.902	5.24
673.09	5.21
673.278	5.34
673.466	5.37
673.654	5.47
673.842	5.6
674.03	5.61
674.218	5.69
674.405	5.73
674.593	5.82
674.781	5.84
674.969	6
675.157	6.08
675.344	6.08
675.532	6.15
675.72	6.21
675.908	6.13
676.095	6.11
676.283	6.14
676.471	6.13
676.658	6.18
676.846	6.29
677.033	6.29
677.221	6.34
677.409	6.45
677.596	6.59
677.784	6.65
677.971	6.73
678.159	6.79
678.346	6.82
678.534	6.83
678.721	6.95
678.909	7.15
679.096	7.25
679.283	7.33
679.471	7.37
679.658	7.4
679.846	7.37
680.033	7.59
680.22	7.69
680.408	7.78
680.595	7.87
680.782	8.05
680.969	8.01
681.157	8.14
681.344	8.18
681.531	8.39
681.718	8.43
681.905	8.48
682.093	8.53
682.28	8.73
682.467	8.77
682.654	8.8
682.841	9.02
683.028	9
683.215	9.16
683.402	9.19
683.589	9.4
683.776	9.39
683.963	9.65
684.15	9.8
684.337	10.09
684.524	10.21
684.711	10.55
684.898	10.66
685.085	10.64
685.271	10.83
685.458	11
685.645	11.09
685.832	11.29
686.019	11.6
686.205	11.78
686.392	12.05
686.579	12.31
686.766	12.57
686.952	12.82
687.139	13.14
687.326	13.43
687.512	13.82
687.699	14.27
687.886	14.65
688.072	14.81
688.259	15.08
688.445	15.4
688.632	15.6
688.818	15.94
689.005	16.43
689.191	16.97
689.378	17.48
689.564	18.11
689.751	18.64
689.937	19.25
690.124	19.77
690.31	20.1
690.496	20.66
690.683	21.33
690.869	21.73
691.055	22.21
691.242	22.87
691.428	23.28
691.614	23.79
691.8	24.38
691.987	25.15
692.173	25.77
692.359	26.52
692.545	27.24
692.731	27.91
692.918	28.41
693.104	29.13
693.29	29.69
693.476	30.36
693.662	31.17
693.848	31.82
694.034	32.48
694.22	33.22
694.406	33.54
694.592	34.21
694.778	34.94
694.964	35.58
695.15	36.33
695.336	37.18
695.522	37.83
695.708	38.63
695.894	39.51
696.08	40.12
696.265	40.91
696.451	41.53
696.637	42.43
696.823	42.92
697.009	43.47
697.194	44.16
697.38	45.06
697.566	45.39
697.751	46.26
697.937	47.27
698.123	47.83
698.308	48.32
698.494	49.47
698.68	50.15
698.865	50.59
699.051	51.33
699.236	51.83
699.422	52.15
699.607	52.64
699.793	53.58
699.978	54.38
700.164	54.87
700.349	55.39
700.535	55.81
700.72	56.08
700.906	56.53
701.091	57.38
701.276	57.84
701.462	58.49
701.647	58.95
701.832	59.5
702.018	59.95
702.203	60.44
702.388	60.93
702.573	61.82
702.759	62.31
702.944	62.64
703.129	63.28
703.314	63.68
703.499	63.99
703.684	64.58
703.87	65.24
704.055	65.85
704.24	66.17
704.425	66.36
704.61	66.65
704.795	67.01
704.98	67.14
705.165	67.66
705.35	68.04
705.535	68.33
705.72	68.44
705.905	69.18
706.09	69.57
706.275	70.06
706.459	70.51
706.644	71.07
706.829	71.23
707.014	71.81
707.199	72.16
707.384	72.25
707.568	72.35
707.753	72.44
707.938	72.46
708.123	72.73
708.307	73.05
708.492	73.57
708.677	73.63
708.861	73.79
709.046	73.84
709.231	73.92
709.415	74.02
709.6	74.69
709.784	75.2
709.969	75.79
710.153	76.22
710.338	76.72
710.522	76.55
710.707	76.4
710.891	76.32
711.076	76.36
711.26	76.69
711.445	77.06
711.629	77.46
711.813	77.46
711.998	78.12
712.182	77.83
712.366	78.31
712.551	78.82
712.735	79.18
712.919	79.17
713.103	79.75
713.288	79.88
713.472	79.91
713.656	79.89
713.84	79.89
714.024	79.95
714.208	79.82
714.393	80.23
714.577	80.56
714.761	80.91
714.945	81.14
715.129	81.18
715.313	80.73
715.497	80.84
715.681	80.35
715.865	79.99
716.049	79.79
716.233	79.98
716.417	80.02
716.601	80.48
716.785	81.09
716.968	81.74
717.152	82.07
717.336	82.49
717.52	82.65
717.704	82.43
717.888	82.28
718.071	82.41
718.255	82.38
718.439	82.13
718.622	82.47
718.806	82.38
718.99	82.07
719.174	82.07
719.357	82.92
719.541	82.84
719.724	82.96
719.908	82.93
720.092	82.74
720.275	82.36
720.459	82.29
720.642	82.27
720.826	82.19
721.009	82.7
721.193	82.69
721.376	83.13
721.559	83.64
721.743	84.53
721.926	84.81
722.11	85.31
722.293	85.63
722.476	85.19
722.66	85.37
722.843	84.95
723.026	84.67
723.21	84.21
723.393	85.21
723.576	85.1
723.759	85.74
723.942	86.31
724.126	86.27
724.309	85.73
724.492	85.8
724.675	85.24
724.858	84.9
725.041	85.31
725.224	85.92
725.407	85.82
725.59	85.95
725.774	86.14
725.957	86.4
726.14	85.71
726.322	86.02
726.505	86.35
726.688	86.45
726.871	86.02
727.054	86.92
727.237	86.58
727.42	86.31
727.603	86.47
727.786	86.75
727.968	86.39
728.151	86.47
728.334	87.33
728.517	87.44
728.699	87.75
728.882	88.03
729.065	87.88
729.248	87.86
729.43	88.06
729.613	88.13
729.796	88.44
729.978	88.64
730.161	88.59
730.343	88.39
730.526	88.3
730.708	87.94
730.891	88.61
731.073	88.53
731.256	89.25
731.438	89.63
731.621	89.65
731.803	89.28
731.986	89.92
732.168	89.52
732.35	90.03
732.533	89.68
732.715	89.79
732.898	89.24
733.08	89.12
733.262	88.74
733.444	89.8
733.627	90.18
733.809	90.99
733.991	91.56
734.173	91.62
734.355	91.52
734.538	92.18
734.72	91.75
734.902	91.6
735.084	91.98
735.266	92.01
735.448	91.54
735.63	91.99
735.812	91.92
735.994	91.36
736.176	91.87
736.358	92.13
736.54	92.23
736.722	91.64
736.904	91.85
737.086	91.41
737.268	91.77
737.45	92.37
737.632	93.55
737.814	94.03
737.995	94.16
738.177	93.56
738.359	92.68
738.541	92.3
738.723	91.79
738.904	92
739.086	91.54
739.268	91.93
739.449	92.1
739.631	92.32
739.813	91.29
739.994	91.61
740.176	91.25
740.358	91.15
740.539	90.78
740.721	91.89
740.902	91.58
741.084	91.79
741.265	92.01
741.447	92.09
741.628	92.39
741.81	93.03
741.991	92.82
742.172	92.54
742.354	93.75
742.535	93.04
742.717	92.02
742.898	91.89
743.079	92.44
743.261	90.75
743.442	89.72
743.623	90.96
743.804	91.64
743.986	90.92
744.167	91.09
744.348	91.86
744.529	91.56
744.71	90.92
744.891	91.01
745.073	92
745.254	92.54
745.435	92.77
745.616	92.51
745.797	92.24
745.978	92.35
746.159	91.3
746.34	91.58
746.521	92.61
746.702	93.19
746.883	91.92
747.064	92.72
747.245	92.53
747.426	92.22
747.606	92.59
747.787	93.64
747.968	93.01
748.149	92.75
748.33	92.51
748.51	91.49
748.691	91.5
748.872	92.83
749.053	92.19
749.233	91.8
749.414	92.1
749.595	92.24
749.775	90.72
749.956	90.61
750.137	90.87
750.317	90.08
750.498	89.66
750.678	90.6
750.859	91.57
751.04	91.76
751.22	91.21
751.4	91.35
751.581	92.79
751.761	93.03
751.942	93.14
752.122	93.76
752.303	93.47
752.483	91.37
752.663	90.83
752.844	90.64
753.024	92.82
753.204	92.17
753.385	92.35
753.565	92.4
753.745	91.22
753.925	88.83
754.106	90.04
754.286	89.66
754.466	89.63
754.646	90.78
754.826	92.37
755.006	91.56
755.187	92.95
755.367	91.51
755.547	90.17
755.727	89.9
755.907	89.4
756.087	88.29
756.267	89.05
756.447	90.98
756.627	91.3
756.807	92.81
756.987	93.49
757.167	94.37
757.346	93.03
757.526	93.2
757.706	92.15
757.886	91.48
758.066	91.82
758.246	90.98
758.425	89.49
758.605	89.72
758.785	90.06
758.965	89.35
759.144	89.44
759.324	91.64
759.504	92.47
759.683	91.45
759.863	91.3
760.043	91.48
760.222	91.2
760.402	89.77
760.581	90.39
760.761	91.13
760.94	90.86
761.12	88.29
761.299	89.92
761.479	90.45
761.658	89.08
761.838	90.64
762.017	92.24
762.197	90.81
762.376	91.02
762.555	92.57
762.735	91.72
762.914	90.96
763.093	89.62
763.273	88.58
763.452	86.41
763.631	85.73
763.81	85.63
763.99	87.83
764.169	88.37
764.348	88.56
764.527	89.32
764.706	89.6
764.885	89.98
765.064	90.68
765.243	90.55
765.423	90.8
765.602	90.82
765.781	89.36
765.96	88.18
766.139	88.6
766.318	87.15
766.497	86.48
766.676	86.32
766.854	87.43
767.033	88.97
767.212	91.17
767.391	92.04
767.57	94.43
767.749	93.24
767.928	92.79
768.106	91.82
768.285	91.2
768.464	88.61
768.643	87.54
768.821	85.5
769	84.76
769.179	86.19
769.357	86.62
769.536	86.14
769.715	86.29
769.893	87.7
770.072	84.72
770.25	83.51
770.429	85.69
770.607	86.92
770.786	86.06
770.964	89.28
771.143	89.63
771.321	87.27
771.5	87.61
771.678	85.65
771.857	82
772.035	83.11
772.213	84.09
772.392	80.63
772.57	81.33
772.748	82.3
772.927	82.78
773.105	82.95
773.283	85.04
773.461	86.89
773.64	88.28
773.818	87.14
773.996	87.9
774.174	88.63
774.352	87
774.531	85.31
774.709	85.03
774.887	82.11
775.065	82.67
775.243	83.22
775.421	83.59
775.599	83.19
775.777	84.35
775.955	83.48
776.133	81.94
776.311	81.13
776.489	82.46
776.667	81.5
776.844	81.26
777.022	83.35
777.2	83.68
777.378	83.34
777.556	87.08
777.734	88.39
777.911	88.11
778.089	90.31
778.267	87.62
778.445	88.85
778.622	89.39
778.8	88.27
778.978	87.52
779.155	90.65
779.333	88.67
779.511	85.62
779.688	85.98
779.866	85.9
780.043	85.64
780.221	84.55
780.398	85.61
780.576	84.64
780.753	84.81
780.931	84.44
781.108	85.88
781.286	88.1
781.463	87.76
781.64	86.11
781.818	87.69
781.995	85.28
782.172	83.44
782.35	86.17
782.527	86.32
782.704	84.15
782.882	81.12
783.059	79.73
783.236	79.83
783.413	79.27
783.59	79.48
783.768	82.4
783.945	83.12
784.122	83.7
784.299	87.2
784.476	83.12
784.653	82.32
784.83	81.91
785.007	77.99
785.184	75.09
785.361	79.83
785.538	81.9
785.715	83.68
785.892	84.04
786.069	87.4
786.246	86.09
786.423	84.96
786.6	82.68
786.776	84.54
786.953	80.93
787.13	79.96
787.307	78.98
787.484	76.84
787.66	77.09
787.837	77.96
788.014	79.06
788.191	79.42
788.367	79.78
788.544	76.27
788.721	75.06
788.897	75.17
789.074	77.3
789.25	78.91
789.427	81.15
789.603	80.07
789.78	80.04
789.956	76.43
790.133	77.02
790.309	78.82
790.486	79.09
790.662	82.28
790.839	82.11
791.015	84.01
791.192	81.08
791.368	80.37
791.544	76.91
791.721	76.31
791.897	72.15
792.073	69.9
792.249	72.49
792.426	72.82
792.602	74.67
792.778	77.35
792.954	79.91
793.13	78.38
793.307	77.83
793.483	75.75
793.659	72.96
793.835	75.36
794.011	79.3
794.187	82.77
794.363	83.22
794.539	85.35
794.715	82.38
794.891	81.3
795.067	76.25
795.243	77.72
795.419	75.48
795.595	79.64
795.771	71.42
795.947	68.56
796.122	69.19
796.298	72.24
796.474	72.4
796.65	78.47
796.826	81.77
797.001	80.03
797.177	75.16
797.353	68.99
797.529	70.83
797.704	72.09
797.88	69.88
798.056	73.22
798.231	74.77
798.407	78.14
798.582	72.07
798.758	74.98
798.934	78
799.109	77.55
799.285	73.32
799.46	75.64
799.636	74.71
799.811	74.21
799.986	71.67
800.162	67.17
800.337	73.68
800.513	73.78
800.688	68.24
800.863	79.27
801.039	81.65
801.214	75.57
801.389	76.06
801.565	77.1
801.74	70.32
801.915	70.42
802.09	64.41
802.265	64.63
802.441	65.69
802.616	66.66
802.791	66.86
802.966	74.25
803.141	74.87
803.316	77.32
803.491	77.56
803.666	78.51
803.841	74.88
804.016	70.29
804.191	68.9
804.366	66.81
804.541	66.22
804.716	66.59
804.891	69.96
805.066	73.42
805.241	72.3
805.416	77.34
805.591	78.17
805.765	84.44
805.94	81.74
806.115	79.73
806.29	73.92
806.464	76.74
806.639	73.57
806.814	69.11
806.989	74.04
807.163	76.03
807.338	75.86
807.512	73.91
807.687	79.5
807.862	75.85
808.036	79.18
808.211	75.42
808.385	76.07
808.56	70.78
808.734	70.83
808.909	69.11
809.083	76.91
809.258	77.85
809.432	72.05
809.606	72.77
809.781	71.34
809.955	72.53
810.13	69.97
810.304	71.53
810.478	72.46
810.652	67.9
810.827	62.74
811.001	60.97
811.175	65.02
811.349	63.52
811.524	66.81
811.698	63.21
811.872	65.26
812.046	61.94
812.22	64.15
812.394	61.19
812.568	68.42
812.742	64.36
812.916	71.75
813.09	64.64
813.264	63.06
813.438	57.58
813.612	64.48
813.786	63.75
813.96	75.48
814.134	70.57
814.308	75.53
814.482	70.4
814.656	62.74
814.83	55.49
815.003	66.69
815.177	61.81
815.351	65.74
815.525	81.84
815.698	74.62
815.872	64.47
816.046	59.32
816.219	61.94
816.393	44.31
816.567	52.81
816.74	66.33
816.914	78.5
817.088	75.54
817.261	73.19
817.435	78.25
817.608	62.01
817.782	60.33
817.955	59.34
818.129	69.78
818.302	63.67
818.475	75.92
818.649	70.71
818.822	62.9
818.996	64.55
819.169	70.11
819.342	66.54
819.516	68.3
819.689	73.41
819.862	73.9
820.035	69.06
820.209	65.81
820.382	64.16
820.555	51.9
820.728	43.01
820.901	33.09
821.075	33.33
821.248	37.07
821.421	50.25
821.594	49.54
821.767	60.32
821.94	56.38
822.113	55.79
822.286	52.83
822.459	61.31
822.632	64.78
822.805	70.03
822.978	70.13
823.151	74.93
823.324	56.79
823.496	45.69
823.669	46.11
823.842	58.95
824.015	62.19
824.188	67.42
824.361	68.61
824.533	65.52
824.706	50.57
824.879	39.95
825.051	46.99
825.224	43.39
825.397	36.15
825.569	42.35
825.742	51.63
825.915	54.14
826.087	50.2
826.26	63.95
826.432	68.61
826.605	65.99
826.777	68.75
826.95	85.09
827.122	79.76
827.295	78.77
827.467	76.58
827.64	77.03
827.812	67.11
827.984	72.37
828.157	66.26
828.329	75.62
828.501	64.64
828.674	65.06
828.846	60.99
829.018	57.74
829.19	51.21
829.363	38.77
829.535	35.71
829.707	37.2
829.879	38.32
830.051	40.7
830.223	66
830.395	57.09
830.568	58.86
830.74	56.38
830.912	53.03
831.084	47
831.256	46.84
831.428	46.25
831.6	44.09
831.772	38.22
831.943	23.21
832.115	35.39
832.287	24.9
832.459	39.43
832.631	55.37
832.803	73.29
832.975	67.58
833.146	69.62
833.318	68.87
833.49	63.56
833.662	65.2
833.833	64.81
834.005	63.19
834.177	63.38
834.348	55.35
834.52	50.45
834.692	42.89
834.863	40.26
835.035	39.54
835.206	39.13
835.378	30.74
835.549	29.3
835.721	36.49
835.892	40.96
836.064	43.84
836.235	42.54
836.407	51.42
836.578	52.66
836.749	37.6
836.921	27.3
837.092	17.48
837.264	19.86
837.435	11.32
837.606	43.42
837.777	56.76
837.949	84.02
838.12	78.8
838.291	83.27
838.462	70.84
838.633	72.53
838.805	62.74
838.976	59.93
839.147	60.44
839.318	62.71
839.489	45.85
839.66	53.06
839.831	52.24
840.002	45.57
840.173	40
840.344	45.62
840.515	38.3
840.686	53.03
840.857	61.77
841.028	58.3
841.199	55.78
841.369	42.9
841.54	31.95
841.711	17.68
841.882	45.23
842.053	41.64
842.223	37.35
842.394	22.86
842.565	25.56
842.736	26.36
842.906	29.27
843.077	38.78
843.248	53.39
843.418	32.12
843.589	23.1
843.759	27.06
843.93	28.36
844.101	19.95
844.271	56.9
844.442	48.88
844.612	48.39
844.783	26.17
844.953	24.65
845.123	14.03
845.294	18.27
845.464	-11.46
845.635	5.34
845.805	0
845.975	15.17
846.146	-5.23
846.316	6.71
846.486	27.82
846.656	34.94
846.827	28.72
846.997	59.86
847.167	49.11
847.337	47.15
847.507	57.54
847.677	61.17
847.848	51.79
848.018	60.32
848.188	54.55
848.358	15.32
848.528	21.99
848.698	14.74
848.868	19.48
849.038	13.66
849.208	46.48
849.378	35.69
849.548	39.33
849.718	65.47
849.887	84.58
850.057	38.25
850.227	40.58
850.397	42.58
850.567	-2.4
850.737	36.5
850.906	12.07
851.076	-0.6
851.246	-0.33
851.415	10.54
851.585	-15.61
851.755	46.01
851.924	79.48
852.094	63.25
852.264	76.58
852.433	88.23
852.603	47.07
852.772	34.22
852.942	47.42
853.111	33.98
853.281	14.35
853.45	2.45
853.62	-9.81
853.789	-9.73
853.959	-8.09
854.128	7.57
854.297	31.55
854.467	36.42
854.636	33.33
854.805	32.16
854.975	9.96
855.144	2.98
855.313	-1.28
855.482	-14.77
855.652	-13.01
855.821	3.87
855.99	7.01
856.159	0.27
856.328	17.66
856.497	18.75
856.667	4.19
856.836	19.27
857.005	7.32
857.174	19.01
857.343	19.26
857.512	38.34
857.681	39.01
857.85	49.71
858.019	22.72
858.188	31.57
858.356	47.01
858.525	44.44
858.694	56.94
858.863	40.28
859.032	39.28
859.201	4.39
859.369	-13.23
859.538	12.59
859.707	47.92
859.876	53.82
860.044	61.98
860.213	69.8
860.382	44.55
860.55	24.12
860.719	12.38
860.888	8.26
861.056	-17.96
861.225	3.73
861.393	18.62
861.562	-3.46
861.73	-14.6
861.899	0
862.067	-2.56
862.236	7.78
862.404	49.4
862.572	54.2
862.741	17.57
862.909	14.96
863.078	6.56
863.246	-30.3
863.414	-0.93
863.582	12.61
863.751	-23.18
863.919	-16.84
864.087	-0.3
864.255	-12.5
864.424	-49.59
864.592	8.49
864.76	5.86
864.928	24.13
865.096	0.3
865.264	21.51
865.432	21.17
865.6	22.3
865.768	4.18
865.936	29.62
866.104	32.77
866.272	2.1
866.44	-0.93
866.608	-1.2
866.776	-22.56
866.944	-3.09
867.112	13.26
867.28	4.57
867.448	-6.01
867.615	7.83
867.783	-16.78
867.951	-11.89
868.119	6.01
868.286	19.39
868.454	41.78
868.622	36.69
868.789	46.96
868.957	31.09
869.125	37.58
869.292	3.82
869.46	20.24
869.627	-4.71
869.795	-14.17
869.963	-9.85
870.13	11.97
870.298	0.82
870.465	18.27
870.632	10.41
870.8	21.89
870.967	-4.59
871.135	-10.89
871.302	-1.21
871.469	4.22
871.637	-39.8
871.804	-18.88
871.971	-11.63
872.139	-42.99
872.306	-56.9
872.473	-44.94
872.64	-74.17
872.807	-71.28
872.975	-62.61
873.142	-37.36
873.309	-15.6
873.476	16.58
873.643	46.3
873.81	19.88
873.977	-0.45
874.144	-4.03
874.311	-50.56
874.478	-101.59
874.645	-95.93
874.812	10.82
874.979	-3
875.146	20.85
875.313	32.87
875.48	44.47
875.647	24.17
875.813	51.93
875.98	59.32
876.147	53.59
876.314	84.03
876.481	139.79
876.647	75.92
876.814	38.03
876.981	33.67
877.147	8.1
877.314	-13.23
877.481	-25.61
877.647	-30.4
877.814	-11.72
877.98	23.35
878.147	52.21
878.314	80.38
878.48	118.35
878.647	91.18
878.813	93.31
878.979	73
879.146	37.06
879.312	17.72
879.479	24.33
879.645	14.44
879.811	6.21
879.978	18.97
880.144	21.27
880.31	26.37
880.477	31.35
880.643	20.89
880.809	17.21
880.975	-1.24
881.142	-51.63
881.308	339.17
881.474	416.27
881.64	-49.97
881.806	-5.5
881.972	36.24
882.138	22.61
882.304	45.34
882.47	-3.57
882.636	-22.22
882.802	-33.97
882.968	12.23
883.134	22.77
883.3	54.66
883.466	56.7
883.632	37.32
883.798	-37.81
883.964	-151.45
884.129	-1262.88
884.295	-139.03
884.461	-182.23
884.627	-46.43
884.793	-39.01
884.958	1.75
885.124	-24.65
885.29	-19.12
885.455	-92.95
885.621	-64.09
885.787	-27.09
885.952	-18.46
886.118	31.3
886.283	64.82
886.449	45.91
886.614	35.65
886.78	41.02
886.945	13.67
887.111	-27.4
887.276	-52.79
887.442	-138.53
887.607	-89.85
887.773	-39.18
887.938	-49.3
888.103	-25.13
888.269	-5.07
888.434	-14.58
888.599	-29.02
888.764	1.8
888.93	1.89
889.095	-2.95
889.26	6.82
889.425	21.24
889.59	9.55
889.756	5.64
889.921	42.09
890.086	-16.65
890.251	-22
890.416	-18.89
890.581	-12.49
890.746	-26.04
890.911	4.92
891.076	6.18
891.241	-4.47
891.406	19.46
891.571	33.11
891.736	7.6
891.901	19.99
892.065	-4.48
892.23	-41.41
892.395	-65.59
892.56	-61.55
892.725	-141.03
892.889	-41.98
893.054	-7.2
893.219	-13.42
893.384	-0.77
893.548	-25.48
893.713	-84.37
893.878	-138.29
