Data from Ofra_2a_PS_2CX80_Reflection_2.txt Node
Date: Tue Jul 20 09:38:56 EDT 2021
User: Adam
Spectrometer: FLMT01687
Trigger mode: 0
Integration Time (sec): 9.450000E-1
Scans to average: 3
Electric dark correction enabled: true
Nonlinearity correction enabled: false
Boxcar width: 3
XAxis mode: Wavelengths
Number of Pixels in Spectrum: 3648
>>>>>Begin Spectral Data<<<<<
179.494	782.25
179.716	505.55
179.937	469.78
180.158	1755.08
180.38	-849.13
180.601	-104.18
180.823	1.3
181.044	164.44
181.265	111.36
181.486	13.73
181.708	-357.61
181.929	31.51
182.15	-936.93
182.372	140.16
182.593	220.29
182.814	202.25
183.035	285.85
183.257	120.18
183.478	71.2
183.699	105.97
183.92	75.19
184.141	69.31
184.363	34.99
184.584	20.44
184.805	21.62
185.026	-1.1
185.247	-11.28
185.468	8.86
185.689	21.5
185.91	25.52
186.132	30.51
186.353	22.08
186.574	29.58
186.795	14.12
187.016	0.3
187.237	3.64
187.458	-3.81
187.679	-13.06
187.9	11.8
188.121	8
188.342	28.22
188.563	27.13
188.784	14.01
189.005	12.67
189.226	8.5
189.447	5.14
189.667	3.27
189.888	7.7
190.109	16.2
190.33	8.89
190.551	8.4
190.772	11.7
190.993	12.49
191.214	14.7
191.434	-1.82
191.655	-3.44
191.876	10.48
192.097	8.02
192.318	12.99
192.538	8.81
192.759	12.39
192.98	12.7
193.201	27.71
193.421	26.16
193.642	35.69
193.863	25.41
194.083	19.88
194.304	6.78
194.525	25.44
194.745	-0.73
194.966	12.23
195.187	16.74
195.407	23.5
195.628	18.88
195.848	27.03
196.069	23.37
196.29	17.38
196.51	-3.34
196.731	-2.77
196.951	-6.03
197.172	5.33
197.392	9.01
197.613	2.68
197.833	4.47
198.054	15.15
198.274	-2.92
198.495	-18.24
198.715	-43.29
198.936	-69.21
199.156	-47.28
199.377	-40.77
199.597	-46.55
199.817	-14.77
200.038	8.64
200.258	26.3
200.479	33.46
200.699	38.69
200.919	31.66
201.14	28.18
201.36	20.55
201.58	5.19
201.801	5.92
202.021	0.88
202.241	0.99
202.461	8.64
202.682	8.98
202.902	16.38
203.122	12.69
203.342	19.2
203.563	35.5
203.783	32.85
204.003	33.19
204.223	48.65
204.443	47.05
204.663	57.34
204.884	47.3
205.104	27.97
205.324	41.99
205.544	43.8
205.764	20.47
205.984	20.66
206.204	9.95
206.424	33.22
206.644	36.43
206.864	26.61
207.084	44.95
207.304	40.22
207.525	37.16
207.745	42.33
207.964	31.81
208.184	34
208.404	33.07
208.624	-3.43
208.844	-13.43
209.064	-7.81
209.284	-10.68
209.504	-10.84
209.724	-40.22
209.944	-41.81
210.164	-14.22
210.384	10.02
210.604	11.68
210.823	19.98
211.043	13.7
211.263	29.75
211.483	29.72
211.703	24.89
211.922	18.39
212.142	19.52
212.362	17.53
212.582	28.17
212.801	26.46
213.021	23.36
213.241	20.22
213.461	22.49
213.68	9.11
213.9	4.49
214.12	-4.14
214.339	8.68
214.559	12.99
214.779	21.87
214.998	25.69
215.218	38.36
215.438	57.15
215.657	42.05
215.877	31.49
216.096	32.21
216.316	20.14
216.535	6.54
216.755	-1.69
216.974	-17.08
217.194	-2.76
217.413	15.24
217.633	17.06
217.852	20.6
218.072	23.72
218.291	30.59
218.511	28.02
218.73	23.1
218.95	14.4
219.169	16.68
219.389	10.88
219.608	18.69
219.827	16.26
220.047	26.64
220.266	26
220.485	32.03
220.705	18.26
220.924	34.12
221.143	34.92
221.363	30.09
221.582	20.25
221.801	28.17
222.021	15.38
222.24	19.85
222.459	7.12
222.678	8.33
222.897	5.59
223.117	-0.4
223.336	5.09
223.555	12.75
223.774	16.6
223.993	25.46
224.213	14.66
224.432	28.32
224.651	26.43
224.87	20.85
225.089	34.59
225.308	36.32
225.527	33.45
225.746	21.99
225.965	10.34
226.184	17.87
226.404	16.03
226.623	13.56
226.842	9.9
227.061	8.33
227.28	41.29
227.499	45.18
227.718	36.63
227.936	31.99
228.155	19.96
228.374	23.67
228.593	25.82
228.812	11.13
229.031	1.05
229.25	22.24
229.469	27.94
229.688	38.46
229.907	33.46
230.125	30.07
230.344	42.21
230.563	45.65
230.782	34.05
231.001	34.61
231.22	27.9
231.438	31.05
231.657	39.77
231.876	34.56
232.095	31.17
232.313	39.64
232.532	29.72
232.751	39.56
232.969	38.62
233.188	32.01
233.407	23.34
233.625	36.04
233.844	37.67
234.063	45.93
234.281	29.65
234.5	22.37
234.719	16.37
234.937	24.82
235.156	19.43
235.374	5.95
235.593	6.48
235.811	-0.89
236.03	-7.06
236.249	1.8
236.467	-0.94
236.686	3.04
236.904	2.13
237.123	2.87
237.341	13.24
237.559	16.34
237.778	25.1
237.996	27.9
238.215	18.26
238.433	24.52
238.652	26.69
238.87	25.47
239.088	18.69
239.307	22.44
239.525	14.82
239.743	7.09
239.962	1.64
240.18	3.69
240.398	11.23
240.617	23.42
240.835	15.5
241.053	28.8
241.271	35.72
241.49	23
241.708	10.21
241.926	-2.07
242.144	8.96
242.363	4.85
242.581	9.05
242.799	7.85
243.017	25.21
243.235	35
243.453	37.52
243.672	18.73
243.89	26.65
244.108	14.7
244.326	2.18
244.544	1.79
244.762	6.67
244.98	6.48
245.198	9.25
245.416	13.37
245.634	27.16
245.852	37.76
246.07	35.56
246.288	28.74
246.506	43.45
246.724	44.08
246.942	35.97
247.16	25.51
247.378	21.89
247.596	29.1
247.814	28.99
248.032	16.78
248.25	24.97
248.468	19.14
248.685	22.63
248.903	18.95
249.121	12.4
249.339	21.5
249.557	24.14
249.775	4.88
249.992	9.63
250.21	1.27
250.428	11.41
250.646	16.02
250.863	15.7
251.081	15.25
251.299	40.14
251.517	49.1
251.734	48.75
251.952	39.65
252.17	12.79
252.387	7.68
252.605	8.44
252.823	-18.64
253.04	-31.28
253.258	-16.31
253.475	-8.04
253.693	23.25
253.911	26.92
254.128	23.27
254.346	25.63
254.563	24.1
254.781	23.42
254.998	31.14
255.216	26.57
255.433	27.45
255.651	23.7
255.868	28.21
256.086	38.62
256.303	36.63
256.521	15.09
256.738	9.6
256.956	-0.04
257.173	12.89
257.39	18.84
257.608	12.39
257.825	14.97
258.043	28.08
258.26	23.81
258.477	32.37
258.695	38.31
258.912	32.71
259.129	29.58
259.346	24.49
259.564	21.36
259.781	36
259.998	40.28
260.216	35.6
260.433	41.3
260.65	51.29
260.867	45.67
261.084	38.78
261.302	24.06
261.519	13.28
261.736	9.82
261.953	1.29
262.17	4.29
262.387	14.41
262.604	5.42
262.822	18.95
263.039	16.6
263.256	26.93
263.473	20.11
263.69	23.92
263.907	23.2
264.124	19.97
264.341	17.09
264.558	22.77
264.775	19.96
264.992	22.46
265.209	20.55
265.426	18.24
265.643	21.12
265.86	15.51
266.077	16.85
266.294	7.81
266.51	9.23
266.727	0.89
266.944	-0.64
267.161	-6.77
267.378	-4.88
267.595	-27.77
267.812	-15.75
268.028	-8.27
268.245	-3.76
268.462	0.05
268.679	2.18
268.896	-8.01
269.112	14.71
269.329	16.13
269.546	13.21
269.763	10.43
269.979	5.46
270.196	15.05
270.413	27.84
270.629	16.38
270.846	17.22
271.063	21.83
271.279	18.65
271.496	13.69
271.712	10.81
271.929	18.51
272.146	26.7
272.362	8.38
272.579	10.19
272.795	11.23
273.012	18.64
273.228	8.29
273.445	5.12
273.661	-4.41
273.878	9.08
274.094	5.79
274.311	5.53
274.527	2.94
274.744	6.9
274.96	4.54
275.177	12.23
275.393	7.77
275.609	14.59
275.826	22.18
276.042	39.69
276.259	41.91
276.475	36.1
276.691	32.77
276.908	25.39
277.124	22.6
277.34	20.59
277.557	10.67
277.773	3.45
277.989	2.74
278.205	-8.73
278.422	12.23
278.638	21.06
278.854	23.13
279.07	14.49
279.286	20.32
279.503	13.68
279.719	30.84
279.935	8.91
280.151	5.25
280.367	3.4
280.583	13.53
280.799	21.77
281.016	32.27
281.232	29.31
281.448	34.07
281.664	31.49
281.88	37.24
282.096	28.36
282.312	19.02
282.528	-1.62
282.744	-0.78
282.96	8.88
283.176	7.39
283.392	5.69
283.608	10.63
283.824	2.56
284.04	22.99
284.256	18.79
284.471	18.65
284.687	22.33
284.903	10.22
285.119	0.73
285.335	6.79
285.551	2.73
285.767	-3.28
285.982	-5.95
286.198	-14.4
286.414	5.61
286.63	19.9
286.846	25.16
287.061	22.77
287.277	31.3
287.493	40.2
287.709	37.97
287.924	41.73
288.14	33.25
288.356	38.09
288.571	35.2
288.787	29.95
289.003	29.52
289.218	29.66
289.434	23.03
289.65	24.52
289.865	27.5
290.081	30.8
290.296	28.58
290.512	25.94
290.727	29.8
290.943	27.73
291.159	20.88
291.374	15.13
291.59	14.49
291.805	15.26
292.021	-1.21
292.236	6.21
292.451	6.34
292.667	14.83
292.882	7.17
293.098	7.92
293.313	2.25
293.529	13.59
293.744	7.95
293.959	10.48
294.175	7.42
294.39	13.09
294.605	15.47
294.821	28.29
295.036	36.53
295.251	38.31
295.467	34.46
295.682	38.34
295.897	36.35
296.112	39.01
296.328	35.19
296.543	28.6
296.758	31.18
296.973	29.94
297.188	23.74
297.404	25.97
297.619	22.57
297.834	25.44
298.049	26.02
298.264	19.13
298.479	16.74
298.694	21.08
298.909	16.34
299.125	18.45
299.34	11.86
299.555	17.22
299.77	23.14
299.985	19.51
300.2	17.24
300.415	20.4
300.63	17.61
300.845	23.32
301.06	19.06
301.275	16.12
301.49	15.31
301.704	15.61
301.919	11.62
302.134	7.99
302.349	-1.88
302.564	-3.5
302.779	-1.4
302.994	5.08
303.209	-0.04
303.423	3.05
303.638	1.93
303.853	12.38
304.068	12.56
304.283	8.65
304.497	10.12
304.712	16.63
304.927	6.33
305.142	7.21
305.356	3.33
305.571	8.04
305.786	1.4
306	4.73
306.215	9.72
306.43	29.61
306.644	30.49
306.859	32.85
307.074	34.51
307.288	36.35
307.503	37.29
307.717	27.86
307.932	23.77
308.147	29.73
308.361	39.84
308.576	38.1
308.79	38.64
309.005	38.25
309.219	41.05
309.434	36.96
309.648	26.93
309.863	14.85
310.077	4.76
310.292	12.67
310.506	21.94
310.72	16.86
310.935	17.46
311.149	23.6
311.364	28.8
311.578	25.03
311.792	21.67
312.007	9.89
312.221	19.72
312.435	20.41
312.649	19.63
312.864	18.22
313.078	24.49
313.292	30.82
313.507	39.72
313.721	38.49
313.935	45.81
314.149	47.44
314.363	46.82
314.578	70.65
314.792	66.83
315.006	55.81
315.22	59.56
315.434	47.01
315.648	37.57
315.862	29.37
316.077	6.16
316.291	7.05
316.505	20.17
316.719	1.89
316.933	11.58
317.147	13.51
317.361	29.56
317.575	43.29
317.789	47.31
318.003	42.22
318.217	41.52
318.431	39.87
318.645	47.87
318.859	25.22
319.073	19.01
319.287	18.74
319.5	16.84
319.714	17.44
319.928	22.11
320.142	14.79
320.356	34.77
320.57	29.26
320.784	24.94
320.997	28.03
321.211	31.47
321.425	20.19
321.639	19.26
321.853	9.64
322.066	14.23
322.28	20.24
322.494	10.79
322.707	9.43
322.921	14.8
323.135	13.65
323.349	19.41
323.562	23.65
323.776	15.48
323.989	18.42
324.203	18.55
324.417	12.76
324.63	10.38
324.844	-2.78
325.057	-5.48
325.271	-16.39
325.485	-10.68
325.698	-5.18
325.912	4.46
326.125	9.09
326.339	22.38
326.552	26.32
326.766	36.45
326.979	35.49
327.193	36.55
327.406	35.4
327.619	29.25
327.833	21.63
328.046	17.14
328.26	21.54
328.473	27.84
328.686	29.54
328.9	25.87
329.113	36.22
329.326	44.11
329.54	39.56
329.753	26.65
329.966	20.38
330.179	15.45
330.393	23.59
330.606	25.34
330.819	23.42
331.032	25.88
331.246	29.55
331.459	31.45
331.672	32.24
331.885	34.22
332.098	27.77
332.311	10.84
332.525	19.01
332.738	23.29
332.951	23.25
333.164	22.43
333.377	3.98
333.59	11.29
333.803	27.81
334.016	27.15
334.229	17.4
334.442	25.41
334.655	30.98
334.868	42.07
335.081	39.95
335.294	32.57
335.507	37.27
335.72	34.55
335.933	27.86
336.146	19.56
336.359	18.55
336.572	13.83
336.785	20.45
336.997	13.9
337.21	23.15
337.423	23.55
337.636	22.88
337.849	13.51
338.062	14.89
338.274	10.23
338.487	14.03
338.7	13.91
338.913	11.24
339.125	10.7
339.338	24.15
339.551	26.1
339.763	27.14
339.976	23.16
340.189	19.47
340.402	20.83
340.614	26.04
340.827	15.88
341.039	21.55
341.252	25.84
341.465	24.93
341.677	20.43
341.89	17.32
342.102	17.99
342.315	24.48
342.527	14.18
342.74	12.84
342.952	11.73
343.165	26.34
343.377	34.93
343.59	32.41
343.802	31.53
344.015	35.48
344.227	31.27
344.44	34.89
344.652	25.96
344.864	22.88
345.077	17.61
345.289	18.21
345.502	17.23
345.714	9.44
345.926	11.15
346.139	14.09
346.351	1.24
346.563	8.83
346.775	7.66
346.988	9.59
347.2	15.63
347.412	19
347.624	14.35
347.837	22.26
348.049	21.4
348.261	23.48
348.473	19.77
348.685	17.14
348.897	11.3
349.11	6.86
349.322	5.93
349.534	-3.95
349.746	4.96
349.958	5.37
350.17	8.67
350.382	4.23
350.594	7.77
350.806	10.62
351.018	21.36
351.23	17.98
351.442	19.11
351.654	22.12
351.866	25.97
352.078	27.72
352.29	27.26
352.502	21.04
352.714	17.57
352.926	14.75
353.138	9.64
353.35	6.48
353.561	0.1
353.773	3.09
353.985	13.53
354.197	7.2
354.409	9.23
354.621	8.06
354.832	5.75
355.044	22.63
355.256	13.23
355.468	4.86
355.679	7.43
355.891	7
356.103	9.9
356.314	14.01
356.526	0.11
356.738	-0.37
356.949	-2
357.161	-5.31
357.373	2.86
357.584	13.47
357.796	11.12
358.008	17.67
358.219	29.43
358.431	36.21
358.642	39.69
358.854	32.92
359.065	19.68
359.277	15.11
359.488	7.54
359.7	10.7
359.911	4.66
360.123	9.34
360.334	9.12
360.546	4.28
360.757	17.41
360.969	26.92
361.18	16.16
361.391	18.53
361.603	18.03
361.814	23.3
362.025	27.21
362.237	20
362.448	13.81
362.659	8.32
362.871	12.26
363.082	13.83
363.293	16.29
363.504	19.39
363.716	19.49
363.927	25.24
364.138	28.03
364.349	25.11
364.56	14.58
364.772	8.33
364.983	1.63
365.194	-1.8
365.405	-7.38
365.616	-12.23
365.827	-12.1
366.038	10.98
366.25	3.76
366.461	10.32
366.672	13.43
366.883	18.12
367.094	23.34
367.305	24.42
367.516	13.65
367.727	17.97
367.938	16.83
368.149	17.23
368.36	17.5
368.571	17.73
368.781	15.87
368.992	18.97
369.203	20.98
369.414	21.08
369.625	20.97
369.836	16.98
370.047	14.67
370.258	12.65
370.468	5.3
370.679	5.68
370.89	14.59
371.101	10.66
371.312	4.95
371.522	12.06
371.733	3.83
371.944	18.72
372.155	10.07
372.365	-3.37
372.576	-6.5
372.787	-4.92
372.997	-10.86
373.208	3.92
373.419	-6.15
373.629	5.13
373.84	9.93
374.05	18.89
374.261	26.87
374.472	26.4
374.682	14.97
374.893	7.36
375.103	13.46
375.314	10.68
375.524	10.24
375.735	10.95
375.945	14.27
376.156	22.33
376.366	27.61
376.577	25.21
376.787	20.88
376.997	19.34
377.208	11.95
377.418	6.36
377.629	3.85
377.839	12.36
378.049	13.51
378.26	23.68
378.47	25.44
378.68	25.22
378.89	23.32
379.101	18.07
379.311	4.11
379.521	6.92
379.732	-2.77
379.942	-4.73
380.152	2.17
380.362	9.76
380.572	14.1
380.783	17.47
380.993	11.38
381.203	14.98
381.413	14.58
381.623	13.55
381.833	9.79
382.043	10.75
382.253	14.95
382.463	16.66
382.674	17.94
382.884	13.38
383.094	14.3
383.304	12.11
383.514	8.23
383.724	4.81
383.934	2.59
384.144	1.62
384.353	7.77
384.563	8.59
384.773	9.8
384.983	12.88
385.193	17.81
385.403	19.8
385.613	17.64
385.823	14.42
386.033	11.91
386.242	12.42
386.452	12.4
386.662	9.39
386.872	6.41
387.082	5.23
387.291	6.78
387.501	6.21
387.711	6.81
387.921	6.78
388.13	5.61
388.34	6.88
388.55	9.37
388.759	9.42
388.969	10.49
389.179	11.95
389.388	10.24
389.598	10.33
389.807	8.72
390.017	8.39
390.227	6.97
390.436	4.8
390.646	3.55
390.855	4.35
391.065	3.28
391.274	2.85
391.484	2.38
391.693	3.76
391.903	4.54
392.112	2.82
392.322	4.25
392.531	6.03
392.74	5.63
392.95	7.05
393.159	6.8
393.369	6.02
393.578	6.62
393.787	5.17
393.997	5.91
394.206	6.68
394.415	6.44
394.625	5.36
394.834	5.46
395.043	5.36
395.252	6.14
395.462	5.55
395.671	5.84
395.88	5.82
396.089	5.61
396.298	5.53
396.508	5.57
396.717	4.85
396.926	4.33
397.135	3.38
397.344	3.13
397.553	3.76
397.762	3.9
397.971	3.62
398.181	3.67
398.39	3.56
398.599	4.21
398.808	4.13
399.017	4.17
399.226	4.33
399.435	4.6
399.644	4.54
399.853	4.7
400.062	4.52
400.27	4.58
400.479	4.42
400.688	4.43
400.897	4.38
401.106	4.54
401.315	4.46
401.524	4.47
401.733	4.33
401.941	4.32
402.15	3.98
402.359	3.99
402.568	3.95
402.777	3.86
402.985	3.89
403.194	3.98
403.403	3.83
403.612	3.99
403.82	4.04
404.029	3.86
404.238	3.97
404.446	3.93
404.655	3.81
404.864	3.88
405.072	3.87
405.281	3.79
405.489	4.06
405.698	3.97
405.906	3.86
406.115	4.02
406.324	3.98
406.532	4.04
406.741	4.16
406.949	3.97
407.158	4.13
407.366	4.27
407.574	4.29
407.783	4.22
407.991	4.15
408.2	4.03
408.408	4.03
408.617	3.9
408.825	3.77
409.033	3.59
409.242	3.62
409.45	3.62
409.658	3.58
409.867	3.53
410.075	3.51
410.283	3.47
410.491	3.52
410.7	3.59
410.908	3.57
411.116	3.53
411.324	3.57
411.533	3.49
411.741	3.49
411.949	3.54
412.157	3.53
412.365	3.58
412.573	3.59
412.781	3.59
412.99	3.72
413.198	3.77
413.406	3.7
413.614	3.67
413.822	3.59
414.03	3.53
414.238	3.56
414.446	3.45
414.654	3.46
414.862	3.48
415.07	3.56
415.278	3.56
415.486	3.7
415.694	3.59
415.902	3.63
416.109	3.63
416.317	3.53
416.525	3.45
416.733	3.48
416.941	3.41
417.149	3.51
417.357	3.47
417.564	3.34
417.772	3.41
417.98	3.27
418.188	3.15
418.395	3.11
418.603	2.99
418.811	2.9
419.019	2.95
419.226	2.96
419.434	2.97
419.642	2.99
419.849	3
420.057	3.06
420.265	3.22
420.472	3.2
420.68	3.11
420.887	3.19
421.095	3.26
421.302	3.3
421.51	3.34
421.717	3.33
421.925	3.25
422.132	3.23
422.34	3.15
422.547	3.16
422.755	3.17
422.962	3.01
423.17	2.92
423.377	3.04
423.585	3.14
423.792	3.12
423.999	3.14
424.207	3.04
424.414	3.18
424.621	3.32
424.829	3.26
425.036	3.22
425.243	3.3
425.451	3.26
425.658	3.38
425.865	3.28
426.072	3.21
426.28	3.24
426.487	3.24
426.694	3.18
426.901	3.07
427.108	3.03
427.315	3.04
427.523	3.02
427.73	3.08
427.937	3.08
428.144	3.13
428.351	3.21
428.558	3.17
428.765	3.11
428.972	3.08
429.179	2.98
429.386	3
429.593	2.91
429.8	2.95
430.007	2.98
430.214	3.07
430.421	3.09
430.628	3.02
430.835	2.98
431.042	3.04
431.249	2.95
431.456	3
431.662	3
431.869	3.03
432.076	3.11
432.283	3.05
432.49	3.01
432.697	3.04
432.903	3.02
433.11	3.03
433.317	2.97
433.524	2.95
433.73	3.02
433.937	3
434.144	3.04
434.35	3.07
434.557	3.02
434.764	3.08
434.97	3.14
435.177	3.14
435.384	3.28
435.59	3.27
435.797	3.24
436.003	3.25
436.21	3.21
436.416	3.12
436.623	3.1
436.829	3
437.036	2.99
437.242	3
437.449	3.03
437.655	2.99
437.862	3.07
438.068	3.17
438.275	3.25
438.481	3.27
438.687	3.3
438.894	3.3
439.1	3.4
439.307	3.36
439.513	3.29
439.719	3.32
439.926	3.38
440.132	3.37
440.338	3.44
440.544	3.39
440.751	3.41
440.957	3.36
441.163	3.33
441.369	3.29
441.575	3.24
441.782	3.17
441.988	3.2
442.194	3.23
442.4	3.3
442.606	3.3
442.812	3.28
443.018	3.3
443.224	3.34
443.431	3.35
443.637	3.3
443.843	3.3
444.049	3.25
444.255	3.27
444.461	3.27
444.667	3.23
444.873	3.18
445.079	3.24
445.284	3.18
445.49	3.15
445.696	3.17
445.902	3.21
446.108	3.25
446.314	3.35
446.52	3.35
446.726	3.42
446.931	3.5
447.137	3.48
447.343	3.47
447.549	3.4
447.755	3.35
447.96	3.31
448.166	3.28
448.372	3.3
448.578	3.32
448.783	3.27
448.989	3.37
449.195	3.37
449.4	3.45
449.606	3.47
449.812	3.51
450.017	3.5
450.223	3.55
450.428	3.5
450.634	3.52
450.84	3.48
451.045	3.44
451.251	3.47
451.456	3.44
451.662	3.41
451.867	3.48
452.073	3.45
452.278	3.48
452.483	3.51
452.689	3.51
452.894	3.54
453.1	3.55
453.305	3.49
453.51	3.5
453.716	3.5
453.921	3.49
454.127	3.42
454.332	3.41
454.537	3.45
454.742	3.5
454.948	3.48
455.153	3.46
455.358	3.59
455.563	3.64
455.769	3.66
455.974	3.61
456.179	3.58
456.384	3.65
456.589	3.77
456.795	3.65
457	3.66
457.205	3.63
457.41	3.69
457.615	3.78
457.82	3.81
458.025	3.75
458.23	3.82
458.435	3.78
458.64	3.88
458.845	3.86
459.05	3.86
459.255	3.82
459.46	3.82
459.665	3.86
459.87	3.91
460.075	3.92
460.28	3.97
460.485	3.95
460.69	3.94
460.895	4.02
461.099	4.02
461.304	4.01
461.509	3.93
461.714	3.98
461.919	3.99
462.123	4.08
462.328	4.07
462.533	4.09
462.738	4.1
462.942	4.18
463.147	4.17
463.352	4.24
463.556	4.26
463.761	4.27
463.966	4.29
464.17	4.37
464.375	4.36
464.58	4.36
464.784	4.38
464.989	4.38
465.193	4.39
465.398	4.47
465.602	4.42
465.807	4.48
466.011	4.52
466.216	4.53
466.42	4.55
466.625	4.55
466.829	4.52
467.034	4.64
467.238	4.68
467.443	4.68
467.647	4.69
467.851	4.73
468.056	4.76
468.26	4.76
468.464	4.7
468.669	4.69
468.873	4.68
469.077	4.69
469.282	4.71
469.486	4.78
469.69	4.82
469.894	4.93
470.099	4.94
470.303	5
470.507	5.04
470.711	5
470.915	5.01
471.119	5.07
471.324	5.01
471.528	5.09
471.732	5.13
471.936	5.2
472.14	5.2
472.344	5.22
472.548	5.21
472.752	5.26
472.956	5.28
473.16	5.28
473.364	5.22
473.568	5.31
473.772	5.36
473.976	5.35
474.18	5.32
474.384	5.29
474.588	5.31
474.792	5.33
474.995	5.3
475.199	5.25
475.403	5.27
475.607	5.3
475.811	5.33
476.015	5.33
476.218	5.38
476.422	5.41
476.626	5.41
476.83	5.44
477.033	5.48
477.237	5.49
477.441	5.52
477.644	5.55
477.848	5.55
478.052	5.57
478.255	5.58
478.459	5.62
478.663	5.6
478.866	5.6
479.07	5.58
479.273	5.62
479.477	5.67
479.681	5.68
479.884	5.63
480.088	5.64
480.291	5.65
480.495	5.69
480.698	5.67
480.901	5.63
481.105	5.66
481.308	5.66
481.512	5.68
481.715	5.72
481.919	5.69
482.122	5.67
482.325	5.72
482.529	5.72
482.732	5.74
482.935	5.75
483.138	5.72
483.342	5.71
483.545	5.71
483.748	5.7
483.952	5.7
484.155	5.71
484.358	5.69
484.561	5.7
484.764	5.69
484.967	5.73
485.171	5.71
485.374	5.71
485.577	5.75
485.78	5.75
485.983	5.75
486.186	5.77
486.389	5.77
486.592	5.79
486.795	5.76
486.998	5.77
487.201	5.76
487.404	5.81
487.607	5.79
487.81	5.83
488.013	5.79
488.216	5.82
488.419	5.76
488.622	5.76
488.825	5.72
489.028	5.71
489.231	5.67
489.433	5.67
489.636	5.63
489.839	5.65
490.042	5.68
490.245	5.68
490.447	5.72
490.65	5.74
490.853	5.74
491.056	5.77
491.258	5.75
491.461	5.67
491.664	5.62
491.866	5.61
492.069	5.61
492.272	5.63
492.474	5.61
492.677	5.62
492.879	5.66
493.082	5.74
493.285	5.75
493.487	5.74
493.69	5.75
493.892	5.81
494.095	5.79
494.297	5.86
494.5	5.84
494.702	5.82
494.905	5.84
495.107	5.82
495.309	5.77
495.512	5.83
495.714	5.81
495.917	5.8
496.119	5.84
496.321	5.87
496.524	5.89
496.726	5.9
496.928	5.9
497.13	5.94
497.333	5.97
497.535	5.99
497.737	5.98
497.939	6
498.142	6.04
498.344	6
498.546	6.02
498.748	5.98
498.95	5.95
499.152	5.93
499.355	5.92
499.557	5.96
499.759	6.03
499.961	6.05
500.163	6.11
500.365	6.15
500.567	6.17
500.769	6.19
500.971	6.16
501.173	6.14
501.375	6.09
501.577	6.1
501.779	6.1
501.981	6.13
502.183	6.12
502.385	6.13
502.587	6.12
502.788	6.13
502.99	6.08
503.192	6.09
503.394	6.09
503.596	6.11
503.798	6.21
503.999	6.24
504.201	6.24
504.403	6.29
504.605	6.29
504.806	6.33
505.008	6.31
505.21	6.25
505.411	6.31
505.613	6.34
505.815	6.39
506.016	6.42
506.218	6.42
506.42	6.42
506.621	6.46
506.823	6.44
507.024	6.46
507.226	6.41
507.427	6.36
507.629	6.35
507.83	6.39
508.032	6.41
508.233	6.42
508.435	6.41
508.636	6.44
508.838	6.46
509.039	6.49
509.24	6.48
509.442	6.42
509.643	6.43
509.845	6.44
510.046	6.44
510.247	6.5
510.448	6.5
510.65	6.52
510.851	6.56
511.052	6.58
511.254	6.57
511.455	6.57
511.656	6.54
511.857	6.55
512.058	6.58
512.26	6.55
512.461	6.53
512.662	6.52
512.863	6.52
513.064	6.51
513.265	6.52
513.466	6.53
513.667	6.55
513.868	6.57
514.069	6.59
514.27	6.6
514.471	6.63
514.672	6.61
514.873	6.59
515.074	6.62
515.275	6.58
515.476	6.57
515.677	6.57
515.878	6.57
516.079	6.58
516.28	6.55
516.481	6.52
516.682	6.53
516.882	6.54
517.083	6.54
517.284	6.51
517.485	6.53
517.686	6.57
517.886	6.55
518.087	6.56
518.288	6.54
518.488	6.54
518.689	6.55
518.89	6.55
519.091	6.56
519.291	6.57
519.492	6.61
519.692	6.63
519.893	6.63
520.094	6.66
520.294	6.63
520.495	6.66
520.695	6.67
520.896	6.64
521.096	6.67
521.297	6.67
521.497	6.65
521.698	6.67
521.898	6.64
522.099	6.66
522.299	6.65
522.499	6.62
522.7	6.63
522.9	6.64
523.101	6.65
523.301	6.65
523.501	6.63
523.702	6.62
523.902	6.64
524.102	6.65
524.302	6.66
524.503	6.67
524.703	6.7
524.903	6.74
525.103	6.79
525.304	6.8
525.504	6.78
525.704	6.79
525.904	6.79
526.104	6.78
526.304	6.73
526.504	6.67
526.705	6.67
526.905	6.7
527.105	6.67
527.305	6.64
527.505	6.65
527.705	6.69
527.905	6.69
528.105	6.69
528.305	6.73
528.505	6.77
528.705	6.78
528.905	6.78
529.105	6.78
529.304	6.84
529.504	6.82
529.704	6.8
529.904	6.81
530.104	6.82
530.304	6.85
530.503	6.87
530.703	6.91
530.903	6.95
531.103	6.98
531.303	7.04
531.502	7.05
531.702	7
531.902	6.98
532.101	6.95
532.301	6.95
532.501	6.96
532.7	6.92
532.9	6.95
533.1	6.99
533.299	7.03
533.499	7.02
533.698	7.07
533.898	7.06
534.097	7.09
534.297	7.09
534.496	7.11
534.696	7.12
534.895	7.19
535.095	7.17
535.294	7.17
535.494	7.2
535.693	7.22
535.892	7.23
536.092	7.26
536.291	7.27
536.491	7.3
536.69	7.33
536.889	7.31
537.088	7.33
537.288	7.38
537.487	7.39
537.686	7.4
537.886	7.43
538.085	7.45
538.284	7.46
538.483	7.53
538.682	7.53
538.882	7.54
539.081	7.56
539.28	7.56
539.479	7.59
539.678	7.68
539.877	7.67
540.076	7.71
540.275	7.74
540.474	7.74
540.673	7.78
540.872	7.82
541.071	7.82
541.27	7.82
541.469	7.83
541.668	7.89
541.867	7.93
542.066	7.96
542.265	7.96
542.464	8
542.663	8.05
542.862	8.09
543.06	8.11
543.259	8.13
543.458	8.16
543.657	8.23
543.856	8.25
544.054	8.28
544.253	8.31
544.452	8.3
544.651	8.33
544.849	8.37
545.048	8.41
545.247	8.45
545.445	8.44
545.644	8.49
545.843	8.56
546.041	8.62
546.24	8.65
546.438	8.69
546.637	8.74
546.836	8.78
547.034	8.8
547.233	8.84
547.431	8.86
547.63	8.94
547.828	8.97
548.027	9
548.225	9.08
548.423	9.15
548.622	9.19
548.82	9.22
549.019	9.23
549.217	9.29
549.415	9.36
549.614	9.37
549.812	9.41
550.01	9.46
550.209	9.56
550.407	9.65
550.605	9.7
550.803	9.76
551.002	9.83
551.2	9.94
551.398	9.99
551.596	10.03
551.794	10.08
551.993	10.12
552.191	10.24
552.389	10.3
552.587	10.31
552.785	10.43
552.983	10.52
553.181	10.54
553.379	10.62
553.577	10.68
553.775	10.77
553.973	10.88
554.171	10.88
554.369	10.92
554.567	11.05
554.765	11.09
554.963	11.11
555.161	11.19
555.359	11.22
555.557	11.34
555.755	11.44
555.952	11.49
556.15	11.61
556.348	11.74
556.546	11.8
556.744	11.91
556.941	11.97
557.139	12.1
557.337	12.19
557.535	12.28
557.732	12.34
557.93	12.44
558.128	12.52
558.325	12.63
558.523	12.69
558.721	12.77
558.918	12.86
559.116	12.96
559.313	13.08
559.511	13.16
559.708	13.23
559.906	13.3
560.104	13.41
560.301	13.46
560.498	13.49
560.696	13.54
560.893	13.64
561.091	13.72
561.288	13.81
561.486	13.91
561.683	13.98
561.88	14.09
562.078	14.18
562.275	14.3
562.473	14.38
562.67	14.45
562.867	14.52
563.064	14.65
563.262	14.79
563.459	14.89
563.656	15
563.853	15.11
564.051	15.22
564.248	15.34
564.445	15.41
564.642	15.46
564.839	15.56
565.036	15.68
565.234	15.77
565.431	15.86
565.628	15.96
565.825	16.07
566.022	16.17
566.219	16.25
566.416	16.29
566.613	16.39
566.81	16.46
567.007	16.52
567.204	16.6
567.401	16.68
567.598	16.71
567.795	16.71
567.991	16.77
568.188	16.87
568.385	16.97
568.582	17.05
568.779	17.09
568.976	17.19
569.172	17.37
569.369	17.42
569.566	17.44
569.763	17.45
569.96	17.46
570.156	17.52
570.353	17.55
570.55	17.58
570.746	17.59
570.943	17.68
571.14	17.71
571.336	17.72
571.533	17.77
571.729	17.85
571.926	17.87
572.123	17.93
572.319	17.98
572.516	18.05
572.712	18.16
572.909	18.23
573.105	18.26
573.302	18.24
573.498	18.26
573.695	18.29
573.891	18.31
574.087	18.33
574.284	18.33
574.48	18.3
574.677	18.36
574.873	18.36
575.069	18.41
575.266	18.47
575.462	18.48
575.658	18.48
575.854	18.5
576.051	18.48
576.247	18.53
576.443	18.51
576.639	18.48
576.835	18.46
577.032	18.46
577.228	18.52
577.424	18.58
577.62	18.61
577.816	18.55
578.012	18.53
578.208	18.55
578.404	18.61
578.6	18.65
578.796	18.61
578.993	18.53
579.189	18.56
579.384	18.54
579.58	18.49
579.776	18.47
579.972	18.37
580.168	18.37
580.364	18.42
580.56	18.4
580.756	18.41
580.952	18.43
581.148	18.41
581.343	18.4
581.539	18.35
581.735	18.32
581.931	18.31
582.127	18.29
582.322	18.25
582.518	18.22
582.714	18.18
582.909	18.16
583.105	18.09
583.301	18.04
583.496	18.01
583.692	17.99
583.888	17.94
584.083	17.93
584.279	17.93
584.474	17.95
584.67	17.97
584.866	17.94
585.061	17.93
585.257	17.92
585.452	17.92
585.648	17.9
585.843	17.89
586.039	17.88
586.234	17.89
586.429	17.86
586.625	17.88
586.82	17.87
587.015	17.84
587.211	17.84
587.406	17.86
587.601	17.87
587.797	17.87
587.992	17.8
588.187	17.81
588.383	17.82
588.578	17.78
588.773	17.77
588.968	17.77
589.163	17.79
589.359	17.79
589.554	17.77
589.749	17.79
589.944	17.84
590.139	17.85
590.334	17.87
590.529	17.93
590.724	17.99
590.919	18.08
591.114	18.08
591.309	18.08
591.504	18.13
591.699	18.18
591.894	18.17
592.089	18.22
592.284	18.15
592.479	18.17
592.674	18.2
592.869	18.21
593.064	18.24
593.259	18.26
593.454	18.25
593.648	18.33
593.843	18.42
594.038	18.51
594.233	18.6
594.428	18.67
594.622	18.72
594.817	18.81
595.012	18.89
595.206	18.89
595.401	18.91
595.596	18.97
595.79	18.96
595.985	19.08
596.18	19.15
596.374	19.22
596.569	19.33
596.763	19.44
596.958	19.46
597.153	19.55
597.347	19.62
597.542	19.67
597.736	19.72
597.931	19.79
598.125	19.82
598.319	19.92
598.514	19.98
598.708	20
598.903	20.13
599.097	20.2
599.291	20.27
599.486	20.33
599.68	20.32
599.874	20.38
600.069	20.43
600.263	20.4
600.457	20.45
600.651	20.49
600.846	20.52
601.04	20.62
601.234	20.74
601.428	20.75
601.622	20.75
601.817	20.82
602.011	20.83
602.205	20.87
602.399	20.91
602.593	20.88
602.787	20.91
602.981	20.98
603.175	20.92
603.369	20.91
603.563	20.94
603.757	20.86
603.951	20.85
604.145	20.85
604.339	20.83
604.533	20.83
604.727	20.82
604.921	20.78
605.115	20.74
605.309	20.75
605.502	20.71
605.696	20.68
605.89	20.7
606.084	20.69
606.278	20.64
606.471	20.63
606.665	20.55
606.859	20.47
607.053	20.42
607.246	20.3
607.44	20.21
607.634	20.14
607.827	20.05
608.021	19.93
608.214	19.91
608.408	19.81
608.602	19.75
608.795	19.67
608.989	19.65
609.182	19.67
609.376	19.64
609.569	19.55
609.763	19.57
609.956	19.51
610.15	19.46
610.343	19.36
610.537	19.24
610.73	19.2
610.923	19.14
611.117	18.99
611.31	18.88
611.504	18.8
611.697	18.74
611.89	18.65
612.083	18.55
612.277	18.42
612.47	18.39
612.663	18.36
612.856	18.23
613.05	18.13
613.243	18.04
613.436	17.94
613.629	17.92
613.822	17.8
614.015	17.7
614.209	17.71
614.402	17.65
614.595	17.58
614.788	17.51
614.981	17.43
615.174	17.41
615.367	17.4
615.56	17.24
615.753	17.14
615.946	17.1
616.139	17.06
616.332	16.97
616.525	16.89
616.718	16.81
616.911	16.79
617.103	16.74
617.296	16.66
617.489	16.61
617.682	16.6
617.875	16.55
618.067	16.44
618.26	16.42
618.453	16.39
618.646	16.36
618.838	16.33
619.031	16.25
619.224	16.19
619.417	16.23
619.609	16.18
619.802	16.1
619.994	16.03
620.187	15.96
620.38	15.91
620.572	15.92
620.765	15.8
620.957	15.72
621.15	15.71
621.342	15.71
621.535	15.7
621.727	15.66
621.92	15.62
622.112	15.64
622.305	15.65
622.497	15.63
622.69	15.59
622.882	15.57
623.074	15.61
623.267	15.54
623.459	15.48
623.651	15.47
623.844	15.51
624.036	15.5
624.228	15.45
624.42	15.4
624.613	15.4
624.805	15.41
624.997	15.4
625.189	15.35
625.381	15.3
625.574	15.3
625.766	15.26
625.958	15.24
626.15	15.22
626.342	15.18
626.534	15.1
626.726	15.12
626.918	15.06
627.11	15.03
627.302	15.03
627.494	15.03
627.686	14.98
627.878	14.98
628.07	14.94
628.262	14.9
628.454	14.88
628.646	14.81
628.838	14.76
629.029	14.68
629.221	14.64
629.413	14.56
629.605	14.54
629.797	14.48
629.989	14.46
630.18	14.42
630.372	14.43
630.564	14.42
630.755	14.41
630.947	14.35
631.139	14.36
631.33	14.35
631.522	14.33
631.714	14.31
631.905	14.29
632.097	14.28
632.289	14.3
632.48	14.2
632.672	14.11
632.863	14.08
633.055	14.07
633.246	14.04
633.438	14
633.629	14
633.821	14.02
634.012	14.02
634.203	14.03
634.395	13.97
634.586	13.91
634.777	13.88
634.969	13.85
635.16	13.81
635.351	13.83
635.543	13.76
635.734	13.74
635.925	13.78
636.117	13.79
636.308	13.81
636.499	13.79
636.69	13.78
636.881	13.76
637.073	13.74
637.264	13.72
637.455	13.76
637.646	13.73
637.837	13.75
638.028	13.73
638.219	13.75
638.41	13.77
638.601	13.75
638.792	13.64
638.983	13.58
639.174	13.56
639.365	13.52
639.556	13.51
639.747	13.53
639.938	13.56
640.129	13.56
640.32	13.54
640.511	13.51
640.701	13.45
640.892	13.41
641.083	13.34
641.274	13.26
641.465	13.23
641.655	13.22
641.846	13.16
642.037	13.18
642.228	13.14
642.418	13.09
642.609	13.07
642.8	13.07
642.99	13.09
643.181	13.12
643.372	13.08
643.562	13.09
643.753	13.08
643.943	13.06
644.134	13.02
644.324	12.98
644.515	12.95
644.705	12.94
644.896	12.9
645.086	12.84
645.277	12.82
645.467	12.83
645.658	12.82
645.848	12.8
646.038	12.78
646.229	12.77
646.419	12.79
646.61	12.77
646.8	12.74
646.99	12.69
647.18	12.66
647.371	12.63
647.561	12.62
647.751	12.59
647.941	12.55
648.132	12.55
648.322	12.59
648.512	12.6
648.702	12.55
648.892	12.58
649.082	12.57
649.272	12.51
649.462	12.47
649.653	12.41
649.843	12.36
650.033	12.4
650.223	12.38
650.413	12.39
650.603	12.45
650.793	12.38
650.983	12.4
651.172	12.36
651.362	12.27
651.552	12.17
651.742	12.11
651.932	12.07
652.122	12.07
652.312	11.93
652.502	11.92
652.691	11.89
652.881	11.91
653.071	11.8
653.261	11.72
653.45	11.64
653.64	11.63
653.83	11.53
654.019	11.44
654.209	11.34
654.399	11.29
654.588	11.2
654.778	11.1
654.968	10.97
655.157	10.84
655.347	10.71
655.536	10.57
655.726	10.49
655.915	10.36
656.105	10.29
656.294	10.19
656.484	10.08
656.673	10.02
656.863	9.92
657.052	9.74
657.241	9.65
657.431	9.52
657.62	9.37
657.809	9.24
657.999	9.11
658.188	8.96
658.377	8.9
658.567	8.76
658.756	8.63
658.945	8.52
659.134	8.41
659.324	8.26
659.513	8.16
659.702	8.02
659.891	7.85
660.08	7.76
660.269	7.7
660.458	7.62
660.648	7.51
660.837	7.45
661.026	7.37
661.215	7.32
661.404	7.25
661.593	7.13
661.782	7
661.971	6.88
662.16	6.73
662.349	6.63
662.538	6.55
662.726	6.41
662.915	6.34
663.104	6.24
663.293	6.17
663.482	6.07
663.671	6.01
663.86	5.94
664.048	5.89
664.237	5.85
664.426	5.85
664.615	5.8
664.803	5.72
664.992	5.72
665.181	5.66
665.369	5.62
665.558	5.56
665.747	5.57
665.935	5.54
666.124	5.6
666.312	5.48
666.501	5.45
666.69	5.4
666.878	5.38
667.067	5.37
667.255	5.35
667.444	5.33
667.632	5.39
667.82	5.38
668.009	5.48
668.197	5.51
668.386	5.39
668.574	5.41
668.762	5.38
668.951	5.36
669.139	5.39
669.327	5.37
669.516	5.36
669.704	5.47
669.892	5.5
670.08	5.55
670.269	5.62
670.457	5.58
670.645	5.59
670.833	5.56
671.021	5.5
671.21	5.54
671.398	5.52
671.586	5.49
671.774	5.52
671.962	5.55
672.15	5.6
672.338	5.72
672.526	5.73
672.714	5.77
672.902	5.81
673.09	5.85
673.278	5.86
673.466	5.97
673.654	5.97
673.842	6.01
674.03	6.08
674.218	6.15
674.405	6.3
674.593	6.3
674.781	6.29
674.969	6.34
675.157	6.41
675.344	6.48
675.532	6.54
675.72	6.55
675.908	6.63
676.095	6.73
676.283	6.8
676.471	6.85
676.658	6.93
676.846	7
677.033	7.1
677.221	7.24
677.409	7.27
677.596	7.42
677.784	7.45
677.971	7.47
678.159	7.49
678.346	7.56
678.534	7.64
678.721	7.7
678.909	7.73
679.096	7.8
679.283	7.91
679.471	8.04
679.658	8.08
679.846	8.1
680.033	8.21
680.22	8.22
680.408	8.29
680.595	8.32
680.782	8.37
680.969	8.37
681.157	8.44
681.344	8.55
681.531	8.68
681.718	8.8
681.905	8.91
682.093	9.04
682.28	9.28
682.467	9.36
682.654	9.41
682.841	9.54
683.028	9.7
683.215	9.87
683.402	9.88
683.589	10.01
683.776	10.22
683.963	10.39
684.15	10.52
684.337	10.68
684.524	10.83
684.711	11.11
684.898	11.22
685.085	11.37
685.271	11.53
685.458	11.74
685.645	11.92
685.832	12.11
686.019	12.38
686.205	12.63
686.392	12.92
686.579	13.12
686.766	13.4
686.952	13.75
687.139	14.05
687.326	14.35
687.512	14.7
687.699	14.98
687.886	15.35
688.072	15.79
688.259	16.04
688.445	16.32
688.632	16.7
688.818	16.95
689.005	17.46
689.191	18.01
689.378	18.33
689.564	18.77
689.751	19.39
689.937	19.76
690.124	20.34
690.31	20.68
690.496	21.18
690.683	21.81
690.869	22.4
691.055	22.97
691.242	23.57
691.428	24.28
691.614	24.95
691.8	25.45
691.987	26.04
692.173	26.69
692.359	27.35
692.545	28.07
692.731	28.63
692.918	29.36
693.104	30.08
693.29	30.82
693.476	31.49
693.662	32.14
693.848	32.86
694.034	33.5
694.22	34.16
694.406	34.97
694.592	35.6
694.778	36.24
694.964	36.81
695.15	37.47
695.336	38.37
695.522	39.06
695.708	39.73
695.894	40.49
696.08	41.19
696.265	42.07
696.451	42.96
696.637	43.54
696.823	44.37
697.009	45.02
697.194	45.7
697.38	46.38
697.566	47.01
697.751	47.67
697.937	48.42
698.123	49.1
698.308	49.79
698.494	50.48
698.68	51.24
698.865	51.97
699.051	52.6
699.236	53.34
699.422	53.85
699.607	54.46
699.793	55.12
699.978	55.8
700.164	56.42
700.349	56.91
700.535	57.28
700.72	57.98
700.906	58.52
701.091	58.98
701.276	59.45
701.462	59.93
701.647	60.5
701.832	61.15
702.018	61.62
702.203	62.23
702.388	62.68
702.573	63.5
702.759	63.96
702.944	64.42
703.129	64.87
703.314	65.34
703.499	65.82
703.684	66.3
703.87	66.58
704.055	67.17
704.24	67.68
704.425	68.28
704.61	68.78
704.795	69.27
704.98	69.79
705.165	70.05
705.35	70.39
705.535	70.86
705.72	71.14
705.905	71.26
706.09	71.52
706.275	71.67
706.459	72.31
706.644	72.68
706.829	72.97
707.014	73.3
707.199	73.68
707.384	74.09
707.568	74.63
707.753	74.94
707.938	75.2
708.123	75.36
708.307	75.99
708.492	76.3
708.677	76.57
708.861	76.9
709.046	76.91
709.231	77.58
709.415	77.96
709.6	77.76
709.784	78.05
709.969	78.38
710.153	78.75
710.338	79.07
710.522	78.82
710.707	78.63
710.891	78.92
711.076	79.15
711.26	79.29
711.445	79.34
711.629	79.78
711.813	79.98
711.998	80.61
712.182	81.08
712.366	81.42
712.551	81.74
712.735	82.02
712.919	82.1
713.103	82.5
713.288	82.89
713.472	82.67
713.656	82.59
713.84	82.65
714.024	82.81
714.208	82.77
714.393	83.07
714.577	82.97
714.761	83.43
714.945	83.9
715.129	84.08
715.313	84.1
715.497	84.6
715.681	84.64
715.865	84.84
716.049	84.87
716.233	85.16
716.417	85.46
716.601	85.71
716.785	85.79
716.968	85.73
717.152	85.93
717.336	86.04
717.52	85.96
717.704	86.19
717.888	86.29
718.071	86.39
718.255	86.58
718.439	86.5
718.622	86.69
718.806	86.68
718.99	86.64
719.174	86.53
719.357	86.63
719.541	86.85
719.724	87.14
719.908	87.23
720.092	87.55
720.275	87.59
720.459	87.94
720.642	87.94
720.826	88.04
721.009	87.98
721.193	87.95
721.376	87.89
721.559	87.88
721.743	87.9
721.926	87.69
722.11	87.89
722.293	87.85
722.476	87.99
722.66	87.99
722.843	88.19
723.026	88.34
723.21	88.64
723.393	88.72
723.576	88.89
723.759	89.32
723.942	89.6
724.126	89.46
724.309	89.64
724.492	89.84
724.675	89.81
724.858	90.28
725.041	90.05
725.224	90.12
725.407	90.22
725.59	90.25
725.774	90.36
725.957	90.56
726.14	90.47
726.322	90.65
726.505	90.8
726.688	91.07
726.871	91.25
727.054	91.32
727.237	90.75
727.42	90.96
727.603	91.13
727.786	91.38
727.968	91.63
728.151	92.17
728.334	92.22
728.517	93.14
728.699	93.16
728.882	93.26
729.065	93.16
729.248	92.91
729.43	92.22
729.613	92.39
729.796	92.34
729.978	92.34
730.161	92.4
730.343	92.62
730.526	92.91
730.708	93.4
730.891	93.53
731.073	93.47
731.256	93.55
731.438	93.91
731.621	94.37
731.803	94.63
731.986	94.52
732.168	94.44
732.35	94.43
732.533	94.63
732.715	94.52
732.898	94.19
733.08	94.31
733.262	94.39
733.444	94.41
733.627	94.39
733.809	94.4
733.991	94.42
734.173	94.24
734.355	94.33
734.538	94.12
734.72	94.17
734.902	94.62
735.084	94.42
735.266	94.06
735.448	94.22
735.63	94.23
735.812	94.68
735.994	95.07
736.176	94.65
736.358	95.27
736.54	95.94
736.722	96.03
736.904	95.92
737.086	95.52
737.268	95.41
737.45	95.81
737.632	94.98
737.814	94.59
737.995	94.98
738.177	95.47
738.359	95.83
738.541	95.58
738.723	95.41
738.904	95.69
739.086	96.49
739.268	96.59
739.449	96.36
739.631	96.44
739.813	96.42
739.994	96.78
740.176	97.12
740.358	96.55
740.539	96.02
740.721	95.49
740.902	95.28
741.084	95.74
741.265	96.01
741.447	95.21
741.628	95.22
741.81	95.44
741.991	96.39
742.172	96.33
742.354	96.79
742.535	96.41
742.717	96.8
742.898	97.24
743.079	97.87
743.261	97.46
743.442	97.75
743.623	97.23
743.804	97.06
743.986	97.14
744.167	96.73
744.348	96.32
744.529	95.76
744.71	95.59
744.891	95.77
745.073	96.08
745.254	96.28
745.435	96.21
745.616	95.61
745.797	95.7
745.978	96.14
746.159	95.82
746.34	95.45
746.521	95.7
746.702	95.66
746.883	96.14
747.064	95.92
747.245	95.74
747.426	96.01
747.606	96.14
747.787	96.48
747.968	96.85
748.149	96.82
748.33	97.75
748.51	98
748.691	98.37
748.872	98.2
749.053	97.59
749.233	97.54
749.414	97.54
749.595	96.26
749.775	95.99
749.956	94.78
750.137	94.75
750.317	95.29
750.498	95.06
750.678	95.33
750.859	95.54
751.04	95.4
751.22	95.77
751.4	96.17
751.581	96.21
751.761	96.32
751.942	96.52
752.122	97.13
752.303	97.14
752.483	97.74
752.663	98.06
752.844	96.61
753.024	96.44
753.204	95.4
753.385	95.1
753.565	94.64
753.745	93.7
753.925	93.38
754.106	94.34
754.286	94.19
754.466	95.08
754.646	94.75
754.826	95.42
755.006	95.75
755.187	95.34
755.367	94.92
755.547	95.19
755.727	94.23
755.907	95.17
756.087	95.07
756.267	94.65
756.447	95.26
756.627	94.81
756.807	95.15
756.987	96.37
757.167	96.23
757.346	95.56
757.526	96.37
757.706	95.57
757.886	97.1
758.066	96.22
758.246	95.43
758.425	95.3
758.605	95.88
758.785	95.37
758.965	94.63
759.144	94.26
759.324	94.98
759.504	95.16
759.683	94.83
759.863	95.15
760.043	95.52
760.222	96.13
760.402	96.2
760.581	95.17
760.761	93.97
760.94	93.7
761.12	93.39
761.299	92.29
761.479	93.23
761.658	92.58
761.838	93.14
762.017	94
762.197	94.74
762.376	94.53
762.555	95.2
762.735	93.99
762.914	93.98
763.093	94.11
763.273	94.46
763.452	93.27
763.631	92.47
763.81	93.39
763.99	94.91
764.169	94.78
764.348	94.85
764.527	93.93
764.706	94.84
764.885	96.2
765.064	95.53
765.243	94.66
765.423	95.12
765.602	94.86
765.781	94.8
765.96	94.66
766.139	93.53
766.318	93.41
766.497	93.22
766.676	93.1
766.854	92.26
767.033	92.35
767.212	92.02
767.391	91.77
767.57	92.06
767.749	92.41
767.928	91.89
768.106	92.41
768.285	92.67
768.464	93.36
768.643	94.32
768.821	93.37
769	93.27
769.179	92.52
769.357	92.5
769.536	92.43
769.715	91.89
769.893	91.51
770.072	91.8
770.25	91.45
770.429	92.95
770.607	93.03
770.786	93.05
770.964	93.04
771.143	92.74
771.321	92.14
771.5	91.04
771.678	91.07
771.857	91.12
772.035	91.01
772.213	91.25
772.392	92.04
772.57	92.97
772.748	93.22
772.927	92.46
773.105	92.66
773.283	92.07
773.461	91.31
773.64	89.81
773.818	89.22
773.996	90.09
774.174	90.58
774.352	89.96
774.531	89.27
774.709	90.55
774.887	90.72
775.065	90.21
775.243	89.7
775.421	88.98
775.599	88.03
775.777	88.77
775.955	87.3
776.133	87.64
776.311	88.48
776.489	88.13
776.667	87.42
776.844	87.97
777.022	87.68
777.2	87.98
777.378	88.48
777.556	89.24
777.734	89.53
777.911	90.92
778.089	90.44
778.267	90.77
778.445	90.05
778.622	88.59
778.8	87.81
778.978	87.02
779.155	86.17
779.333	86.24
779.511	86.3
779.688	85.24
779.866	85.17
780.043	85.88
780.221	86.85
780.398	87.52
780.576	87.89
780.753	85.74
780.931	87.19
781.108	87.82
781.286	86.07
781.463	85.26
781.64	84.55
781.818	83.62
781.995	85.52
782.172	84.94
782.35	84.44
782.527	86.06
782.704	85.06
782.882	86.2
783.059	86.67
783.236	87.75
783.413	88.91
783.59	89.05
783.768	86.49
783.945	88.08
784.122	87.03
784.299	86.85
784.476	85.86
784.653	85.76
784.83	85.13
785.007	85.28
785.184	86.94
785.361	86.4
785.538	86.75
785.715	86.43
785.892	84.37
786.069	83.54
786.246	84.18
786.423	83.3
786.6	82.52
786.776	81.88
786.953	80.98
787.13	83.45
787.307	85.21
787.484	85.59
787.66	84.06
787.837	84.99
788.014	85.77
788.191	86.19
788.367	82.63
788.544	82.18
788.721	81.18
788.897	83.67
789.074	82.84
789.25	83.81
789.427	83.41
789.603	87.93
789.78	88.43
789.956	88.64
790.133	86.88
790.309	85.63
790.486	87.5
790.662	87.2
790.839	87.7
791.015	89.13
791.192	89.98
791.368	91.36
791.544	93.18
791.721	89.65
791.897	90.89
792.073	88.36
792.249	88.52
792.426	88.26
792.602	85.44
792.778	85.18
792.954	86.18
793.13	87.53
793.307	86.88
793.483	84.53
793.659	86.9
793.835	88.99
794.011	89.04
794.187	86.75
794.363	86.45
794.539	85.01
794.715	85.27
794.891	80.58
795.067	80.12
795.243	80.13
795.419	83.71
795.595	78.25
795.771	81.27
795.947	82.1
796.122	85.05
796.298	83.57
796.474	84.16
796.65	82.86
796.826	90.29
797.001	89.58
797.177	89.2
797.353	90.16
797.529	90.48
797.704	89.35
797.88	87.66
798.056	86.54
798.231	85.78
798.407	83.35
798.582	82.55
798.758	82.53
798.934	82.07
799.109	80.13
799.285	78.95
799.46	78.79
799.636	78.68
799.811	79.02
799.986	78.47
800.162	80.47
800.337	82.8
800.513	83.94
800.688	83.08
800.863	83.58
801.039	79.99
801.214	78.82
801.389	75.88
801.565	78.61
801.74	75.41
801.915	76.62
802.09	78.31
802.265	82.47
802.441	83.98
802.616	85.04
802.791	82.02
802.966	80.92
803.141	78.28
803.316	80.36
803.491	75.46
803.666	74.85
803.841	77.8
804.016	77.52
804.191	79.13
804.366	79.41
804.541	76.33
804.716	75.6
804.891	77.89
805.066	75.6
805.241	72.34
805.416	74.18
805.591	77.31
805.765	80.01
805.94	83.81
806.115	79.41
806.29	78.37
806.464	80.58
806.639	78.5
806.814	73.68
806.989	70.18
807.163	67.6
807.338	70.85
807.512	66.14
807.687	64.55
807.862	68.66
808.036	69.01
808.211	68.69
808.385	66.38
808.56	69.82
808.734	75.35
808.909	75.16
809.083	70.04
809.258	76.53
809.432	77.12
809.606	78.57
809.781	75.98
809.955	77.35
810.13	80.43
810.304	82.75
810.478	79.65
810.652	84.91
810.827	86.26
811.001	83.92
811.175	80.43
811.349	75.97
811.524	73.18
811.698	73.09
811.872	69.85
812.046	71.12
812.22	69.9
812.394	71.59
812.568	78.06
812.742	79.35
812.916	78.65
813.09	75.64
813.264	73.8
813.438	82.53
813.612	76.56
813.786	74.47
813.96	78.3
814.134	80.14
814.308	72.95
814.482	71.42
814.656	67.49
814.83	76.56
815.003	76.01
815.177	76.05
815.351	77.05
815.525	80.59
815.698	81.44
815.872	80.64
816.046	77.67
816.219	77.28
816.393	71.31
816.567	67.87
816.74	72.98
816.914	77.72
817.088	75.8
817.261	75.89
817.435	75.39
817.608	76.97
817.782	74.71
817.955	70.13
818.129	65.32
818.302	63.1
818.475	62.53
818.649	63.03
818.822	68.14
818.996	69.76
819.169	71.84
819.342	69.87
819.516	74.18
819.689	74.1
819.862	73.64
820.035	69.48
820.209	67.37
820.382	65
820.555	66.27
820.728	58.92
820.901	60.11
821.075	60.71
821.248	60.93
821.421	61.64
821.594	67.91
821.767	67.28
821.94	67.12
822.113	70.56
822.286	73.43
822.459	77.73
822.632	85.54
822.805	78.72
822.978	75.06
823.151	77.11
823.324	70.43
823.496	65.53
823.669	67.67
823.842	58.8
824.015	56.58
824.188	66.32
824.361	68.78
824.533	67.74
824.706	72.78
824.879	64.94
825.051	74.03
825.224	71.76
825.397	58.89
825.569	58.19
825.742	62.45
825.915	64.06
826.087	62.99
826.26	62.83
826.432	69.5
826.605	77.2
826.777	74.16
826.95	64.21
827.122	62.43
827.295	70.34
827.467	61.91
827.64	53.89
827.812	51.99
827.984	56.69
828.157	63.84
828.329	59.97
828.501	53.98
828.674	56.23
828.846	60.98
829.018	58.35
829.19	54.11
829.363	53.99
829.535	55.88
829.707	48.88
829.879	49.58
830.051	46.23
830.223	43.4
830.395	41.74
830.568	43.57
830.74	46.51
830.912	48.19
831.084	46.64
831.256	47.31
831.428	54.08
831.6	54.87
831.772	53.53
831.943	54
832.115	63.82
832.287	68.87
832.459	70.04
832.631	73.66
832.803	82.48
832.975	83.09
833.146	80.74
833.318	78.16
833.49	85.33
833.662	91.4
833.833	87.67
834.005	83.03
834.177	84.2
834.348	80.67
834.52	86.02
834.692	80.3
834.863	74.38
835.035	71.71
835.206	73.25
835.378	63.76
835.549	61.55
835.721	58.46
835.892	54.14
836.064	53.08
836.235	59.69
836.407	54.93
836.578	62.63
836.749	73.22
836.921	62.03
837.092	73.36
837.264	72.67
837.435	58.77
837.606	64.68
837.777	65.92
837.949	44.99
838.12	58.27
838.291	53.55
838.462	54.57
838.633	58.7
838.805	59.39
838.976	51.84
839.147	57.63
839.318	48.02
839.489	54.34
839.66	64.3
839.831	58.82
840.002	54.19
840.173	60.02
840.344	68.35
840.515	68.9
840.686	61.28
840.857	48.86
841.028	57.55
841.199	55.78
841.369	53.24
841.54	51.47
841.711	57.81
841.882	64.14
842.053	69.71
842.223	68.64
842.394	63.4
842.565	69.71
842.736	67.72
842.906	68.26
843.077	64.31
843.248	64.84
843.418	70.34
843.589	73.23
843.759	70.86
843.93	77.64
844.101	74.92
844.271	65.32
844.442	78.95
844.612	65.87
844.783	51.12
844.953	35.21
845.123	38.17
845.294	23.51
845.464	36.02
845.635	18.49
845.805	37.53
845.975	38.77
846.146	54.33
846.316	65.44
846.486	69.33
846.656	78.17
846.827	79.94
846.997	84.14
847.167	85.95
847.337	89.28
847.507	78.58
847.677	87.09
847.848	77.37
848.018	68.46
848.188	61.37
848.358	77.22
848.528	62.22
848.698	52.66
848.868	50.8
849.038	62.36
849.208	82.37
849.378	66.37
849.548	62.84
849.718	54.24
849.887	54.82
850.057	45.86
850.227	34.45
850.397	23.33
850.567	38.7
850.737	27.83
850.906	46.03
851.076	51.5
851.246	58.87
851.415	63.95
851.585	67.14
851.755	61.92
851.924	76.2
852.094	65.08
852.264	61.56
852.433	59.18
852.603	61.13
852.772	52.84
852.942	49.67
853.111	44.89
853.281	38.62
853.45	38.64
853.62	31.28
853.789	36.95
853.959	36.69
854.128	20.06
854.297	4.96
854.467	24.16
854.636	28.34
854.805	45.31
854.975	46.13
855.144	53.24
855.313	74.78
855.482	82.89
855.652	78.09
855.821	77.82
855.99	77.51
856.159	70.76
856.328	65.47
856.497	58.83
856.667	68.57
856.836	63.74
857.005	60.77
857.174	65.12
857.343	64.57
857.512	49.08
857.681	55.67
857.85	40.98
858.019	56.91
858.188	51.11
858.356	26.07
858.525	29.12
858.694	46.78
858.863	36.86
859.032	35.1
859.201	10.2
859.369	25.74
859.538	23.81
859.707	26.13
859.876	28.73
860.044	21.71
860.213	19.25
860.382	33.77
860.55	48.97
860.719	62.81
860.888	43.84
861.056	36.37
861.225	45.66
861.393	63.46
861.562	47.15
861.73	27.28
861.899	20.7
862.067	39.38
862.236	40.97
862.404	39.52
862.572	21.65
862.741	31.78
862.909	36.99
863.078	33.56
863.246	37.86
863.414	44.6
863.582	56.6
863.751	72.3
863.919	73.66
864.087	72.17
864.255	78.41
864.424	72.92
864.592	81.66
864.76	81.74
864.928	79.07
865.096	72.18
865.264	71.28
865.432	72.52
865.6	72.27
865.768	50.94
865.936	41.34
866.104	18.94
866.272	19.23
866.44	-14.15
866.608	-33.21
866.776	-8.49
866.944	-14.66
867.112	-46.6
867.28	-39.27
867.448	-16.77
867.615	19.89
867.783	4.47
867.951	12.7
868.119	31.39
868.286	38.88
868.454	47.6
868.622	48.23
868.789	43.16
868.957	65.49
869.125	59.37
869.292	65.89
869.46	85.54
869.627	74.52
869.795	72.62
869.963	72.38
870.13	79.4
870.298	68.07
870.465	51.89
870.632	39.88
870.8	36.83
870.967	28.24
871.135	20.01
871.302	13.62
871.469	13.93
871.637	15.08
871.804	18.63
871.971	25.1
872.139	36.76
872.306	39.5
872.473	32.94
872.64	50.91
872.807	62.33
872.975	65.29
873.142	60.31
873.309	45.49
873.476	116.65
873.643	137.73
873.81	98.37
873.977	65.6
874.144	37.6
874.311	31.48
874.478	-1.42
874.645	-17.99
874.812	-5.3
874.979	-43.75
875.146	-85.86
875.313	-74.39
875.48	-8.48
875.647	-10.78
875.813	-12.48
875.98	0.63
876.147	66.47
876.314	87.72
876.481	66.69
876.647	63.17
876.814	62.31
876.981	56.16
877.147	45.97
877.314	16.53
877.481	26.84
877.647	35.41
877.814	23.71
877.98	24.44
878.147	21.86
878.314	41
878.48	51.43
878.647	59.28
878.813	71.06
878.979	82.39
879.146	63.11
879.312	93.66
879.479	80.93
879.645	79.02
879.811	67.33
879.978	65.03
880.144	79.72
880.31	71.5
880.477	47.43
880.643	50.19
880.809	61.3
880.975	49.31
881.142	45.79
881.308	51.38
881.474	107.91
881.64	92.95
881.806	56.02
881.972	52.06
882.138	46.24
882.304	-23.42
882.47	-43.91
882.636	-75.91
882.802	-105.49
882.968	-32.84
883.134	26.3
883.3	87.8
883.466	133.76
883.632	101.47
883.798	114.38
883.964	114.62
884.129	80.55
884.295	55.48
884.461	71.59
884.627	47.03
884.793	9.8
884.958	7.76
885.124	-7.47
885.29	0.95
885.455	1.61
885.621	-30.96
885.787	-26.03
885.952	-1.85
886.118	9.67
886.283	11.74
886.449	2.52
886.614	-5.25
886.78	42.91
886.945	52.41
887.111	40.89
887.276	17.62
887.442	28.9
887.607	20.28
887.773	20.9
887.938	43.13
888.103	52.08
888.269	52.75
888.434	66.5
888.599	76.25
888.764	76.39
888.93	74.89
889.095	44.75
889.26	51.58
889.425	82.51
889.59	58.63
889.756	39.98
889.921	53.35
890.086	76.7
890.251	91.15
890.416	47.23
890.581	0.96
890.746	12.53
890.911	-9.3
891.076	-80.04
891.241	-148.37
891.406	-55.19
891.571	-24.62
891.736	-23.63
891.901	-24.35
892.065	-4.69
892.23	-4.25
892.395	-8.06
892.56	-16.83
892.725	-17.6
892.889	-22.65
893.054	-48.8
893.219	-64.28
893.384	-71.65
893.548	-80.83
893.713	301.73
893.878	157.61
