Data from Ofra_2a_PS_6GT17_Reflection_2.txt Node
Date: Tue Jul 20 09:54:06 EDT 2021
User: Adam
Spectrometer: FLMT01687
Trigger mode: 0
Integration Time (sec): 9.450000E-1
Scans to average: 3
Electric dark correction enabled: true
Nonlinearity correction enabled: false
Boxcar width: 3
XAxis mode: Wavelengths
Number of Pixels in Spectrum: 3648
>>>>>Begin Spectral Data<<<<<
179.494	868.64
179.716	502.73
179.937	590.66
180.158	2072.27
180.38	-844.48
180.601	-79.28
180.823	25.41
181.044	-31.18
181.265	-202.51
181.486	-22.49
181.708	-1435.87
181.929	-160.58
182.15	-491.48
182.372	69.4
182.593	-78
182.814	522.6
183.035	454.86
183.257	147.61
183.478	115.6
183.699	100.72
183.92	77.26
184.141	75.81
184.363	56.89
184.584	35.12
184.805	61.26
185.026	62.45
185.247	46.8
185.468	54.48
185.689	53.68
185.91	50.6
186.132	59.37
186.353	39.3
186.574	31.85
186.795	9.99
187.016	9.62
187.237	3.42
187.458	13.49
187.679	20.63
187.9	25.05
188.121	29.62
188.342	59.56
188.563	62.03
188.784	61.14
189.005	74.85
189.226	62.9
189.447	63.81
189.667	67.34
189.888	64.71
190.109	61.95
190.33	46.12
190.551	20.74
190.772	16.39
190.993	23.77
191.214	25.18
191.434	30.39
191.655	33.94
191.876	43.45
192.097	46.45
192.318	47.24
192.538	49.78
192.759	47.77
192.98	31.89
193.201	37.06
193.421	41.88
193.642	40.22
193.863	38.42
194.083	25.86
194.304	18.05
194.525	32.28
194.745	6.33
194.966	17.28
195.187	38.3
195.407	38.87
195.628	38
195.848	48.25
196.069	47.8
196.29	48.44
196.51	29.2
196.731	17.34
196.951	18.48
197.172	17.7
197.392	9.48
197.613	6.85
197.833	11.11
198.054	14.65
198.274	-7.12
198.495	-1.61
198.715	-13.31
198.936	-24.36
199.156	-0.68
199.377	9.91
199.597	23.14
199.817	45.16
200.038	47.13
200.258	51.2
200.479	68.89
200.699	62.75
200.919	52.39
201.14	42.4
201.36	46.32
201.58	39.25
201.801	41.63
202.021	33.92
202.241	46.08
202.461	56.07
202.682	59.58
202.902	45.49
203.122	41.09
203.342	46.64
203.563	48.05
203.783	40.1
204.003	33.66
204.223	42.82
204.443	50.79
204.663	55.13
204.884	55.27
205.104	55.71
205.324	68.56
205.544	77.81
205.764	79.89
205.984	74.68
206.204	73.63
206.424	64.42
206.644	71.23
206.864	62.05
207.084	66.08
207.304	58.33
207.525	46.89
207.745	41.54
207.964	39.56
208.184	22.61
208.404	15.19
208.624	-6.9
208.844	-21.14
209.064	-2.01
209.284	19.09
209.504	21.56
209.724	-0.44
209.944	1.9
210.164	7.01
210.384	29.41
210.604	26.6
210.823	-7.58
211.043	-7.58
211.263	26.86
211.483	31.58
211.703	38.56
211.922	41.34
212.142	47.48
212.362	59.94
212.582	53.28
212.801	50.62
213.021	47.34
213.241	40.89
213.461	31.43
213.68	28.97
213.9	26.98
214.12	33.08
214.339	26.05
214.559	40.65
214.779	42.06
214.998	35.88
215.218	33.04
215.438	41.37
215.657	41.61
215.877	44.79
216.096	31.47
216.316	33.77
216.535	35.23
216.755	24.67
216.974	17.73
217.194	3.86
217.413	10.41
217.633	14.02
217.852	6.4
218.072	-2.47
218.291	24.64
218.511	19.94
218.73	19.04
218.95	18.47
219.169	12.81
219.389	8.81
219.608	23.8
219.827	7.6
220.047	7.79
220.266	20.12
220.485	23.99
220.705	18.2
220.924	30.62
221.143	26.57
221.363	32.56
221.582	25.94
221.801	27.09
222.021	26.09
222.24	27.75
222.459	21.17
222.678	13
222.897	7.01
223.117	23.56
223.336	31.4
223.555	24.22
223.774	47.38
223.993	54.91
224.213	57.81
224.432	76.1
224.651	72.42
224.87	73.88
225.089	80.04
225.308	65.37
225.527	58.3
225.746	56.94
225.965	57.89
226.184	50.49
226.404	27.83
226.623	36
226.842	43.87
227.061	40.47
227.28	60.56
227.499	49.57
227.718	53.3
227.936	53.81
228.155	49.71
228.374	49.41
228.593	48.63
228.812	30.49
229.031	21.75
229.25	27.55
229.469	37.36
229.688	40.74
229.907	37.94
230.125	42.23
230.344	47.91
230.563	55.24
230.782	43.59
231.001	43.15
231.22	36.51
231.438	40.9
231.657	39.4
231.876	43.54
232.095	39.29
232.313	56.07
232.532	43.82
232.751	46.07
232.969	47
233.188	46.07
233.407	42.06
233.625	42.22
233.844	35.98
234.063	35.11
234.281	22.3
234.5	18.12
234.719	22.27
234.937	20.52
235.156	9.97
235.374	-3.54
235.593	-4.7
235.811	-2.42
236.03	-13.45
236.249	-20.51
236.467	-15.99
236.686	2.6
236.904	0.86
237.123	17.34
237.341	14.57
237.559	21.89
237.778	27.08
237.996	37.34
238.215	32.17
238.433	35.69
238.652	29.26
238.87	34.07
239.088	19.81
239.307	26.23
239.525	8.57
239.743	-0.3
239.962	1.66
240.18	4.27
240.398	13.87
240.617	40.63
240.835	39
241.053	58.01
241.271	59.95
241.49	52.94
241.708	60.29
241.926	45.91
242.144	31.65
242.363	33.7
242.581	19.98
242.799	22.44
243.017	28.94
243.235	17.65
243.453	30.76
243.672	37.95
243.89	34.48
244.108	41.76
244.326	40.41
244.544	45.37
244.762	38.81
244.98	33.65
245.198	26.45
245.416	21.51
245.634	33.57
245.852	44.06
246.07	40.24
246.288	45.02
246.506	50.58
246.724	70.35
246.942	64.34
247.16	45.95
247.378	29.97
247.596	41.35
247.814	32.07
248.032	33.72
248.25	18.93
248.468	23.8
248.685	25.74
248.903	30.7
249.121	18.44
249.339	24.05
249.557	28.65
249.775	15.67
249.992	11.6
250.21	11.47
250.428	2.64
250.646	12.84
250.863	14.99
251.081	9.1
251.299	38.32
251.517	72.66
251.734	76.06
251.952	89.04
252.17	73.69
252.387	63.21
252.605	68.6
252.823	54.88
253.04	36.57
253.258	15.11
253.475	21.25
253.693	37.55
253.911	41.13
254.128	36.71
254.346	27.54
254.563	21.12
254.781	34.25
254.998	30.26
255.216	26.45
255.433	20.47
255.651	8.6
255.868	16.64
256.086	27.84
256.303	25.79
256.521	14.92
256.738	5.74
256.956	10.23
257.173	22.01
257.39	21.61
257.608	20.19
257.825	20.05
258.043	30.49
258.26	25.57
258.477	27.89
258.695	26.21
258.912	38.72
259.129	25.48
259.346	19.26
259.564	12.37
259.781	30.95
259.998	27.09
260.216	31.29
260.433	26.46
260.65	37.62
260.867	31.61
261.084	32.81
261.302	20.35
261.519	14.65
261.736	20.07
261.953	10.25
262.17	5.73
262.387	11.21
262.604	-3.54
262.822	10.99
263.039	14.8
263.256	8
263.473	6.15
263.69	9.79
263.907	15.67
264.124	23.74
264.341	9.57
264.558	17.84
264.775	19.98
264.992	19.8
265.209	28.63
265.426	29.08
265.643	32.47
265.86	38.07
266.077	40.8
266.294	42.99
266.51	49.6
266.727	41.77
266.944	41.47
267.161	38.29
267.378	33.22
267.595	22.01
267.812	8.96
268.028	8.84
268.245	9.67
268.462	15.01
268.679	8.85
268.896	12.16
269.112	29.95
269.329	35.07
269.546	28.9
269.763	37.19
269.979	28.52
270.196	37.3
270.413	40.44
270.629	25.86
270.846	24.88
271.063	25.43
271.279	19.02
271.496	17.68
271.712	11.09
271.929	21.43
272.146	25.82
272.362	19.49
272.579	23.33
272.795	23.51
273.012	25.39
273.228	28.68
273.445	19.87
273.661	13.37
273.878	24.6
274.094	33.64
274.311	35.26
274.527	31.69
274.744	29.44
274.96	24.96
275.177	36.18
275.393	29.45
275.609	22.79
275.826	25.63
276.042	49.66
276.259	53.74
276.475	50.85
276.691	42.4
276.908	38.12
277.124	39.02
277.34	36.51
277.557	18.03
277.773	11.73
277.989	16.65
278.205	10.28
278.422	24.96
278.638	34.81
278.854	36.78
279.07	33.67
279.286	38.52
279.503	44.08
279.719	63.4
279.935	50.97
280.151	43.24
280.367	38.82
280.583	53.57
280.799	48.57
281.016	42.65
281.232	33.99
281.448	42.18
281.664	41.85
281.88	45.27
282.096	34.91
282.312	29.77
282.528	24.89
282.744	21.51
282.96	25.02
283.176	23.99
283.392	30.15
283.608	29.24
283.824	39.99
284.04	45.88
284.256	46.25
284.471	47.57
284.687	43.78
284.903	47.4
285.119	36.8
285.335	40.29
285.551	43.77
285.767	40.84
285.982	30.29
286.198	28.91
286.414	24.58
286.63	41.29
286.846	29.41
287.061	22.57
287.277	25.08
287.493	28.98
287.709	25.22
287.924	32.23
288.14	31.47
288.356	39.36
288.571	40.52
288.787	43.07
289.003	44.24
289.218	43.87
289.434	30.83
289.65	30.52
289.865	35.33
290.081	36.36
290.296	34.57
290.512	38.35
290.727	48.01
290.943	40.64
291.159	33.08
291.374	34.96
291.59	30.06
291.805	26.27
292.021	11.87
292.236	11.95
292.451	25.05
292.667	19.44
292.882	19.29
293.098	19.61
293.313	23.02
293.529	31.24
293.744	37.86
293.959	28.46
294.175	37.11
294.39	37.92
294.605	43.14
294.821	37.89
295.036	39.07
295.251	36.57
295.467	44.67
295.682	43.62
295.897	36.81
296.112	43.63
296.328	45.44
296.543	38.63
296.758	20.78
296.973	19.01
297.188	16.24
297.404	14.13
297.619	8.63
297.834	11.02
298.049	9.86
298.264	19.68
298.479	16.77
298.694	21.56
298.909	18.53
299.125	9.3
299.34	8.13
299.555	16.28
299.77	14.16
299.985	13.66
300.2	6.84
300.415	11.31
300.63	10.97
300.845	20.49
301.06	17.29
301.275	19.59
301.49	24.12
301.704	30.22
301.919	26.38
302.134	25.41
302.349	19.41
302.564	17.68
302.779	20.45
302.994	17.33
303.209	0.95
303.423	12.74
303.638	15.77
303.853	3.51
304.068	10.75
304.283	7.28
304.497	9.42
304.712	30.28
304.927	25.71
305.142	32.22
305.356	35.22
305.571	32.32
305.786	32.86
306	37.38
306.215	20.79
306.43	30.33
306.644	29.43
306.859	38.53
307.074	38.19
307.288	42.21
307.503	38.59
307.717	46.6
307.932	42.03
308.147	45.7
308.361	40.65
308.576	37.67
308.79	39.76
309.005	39.31
309.219	30.14
309.434	22.89
309.648	13.9
309.863	13.08
310.077	10.18
310.292	8.9
310.506	22.78
310.72	27.01
310.935	30.79
311.149	28.16
311.364	27.99
311.578	29.14
311.792	25.13
312.007	13
312.221	22.06
312.435	23.62
312.649	37.65
312.864	35.28
313.078	40.53
313.292	47.45
313.507	54.43
313.721	62.29
313.935	75.78
314.149	54.7
314.363	59.64
314.578	72.86
314.792	67.65
315.006	65.69
315.22	60.89
315.434	45.32
315.648	43.53
315.862	43.66
316.077	33.04
316.291	37.17
316.505	39.15
316.719	30.04
316.933	32.84
317.147	37.26
317.361	40.33
317.575	36.22
317.789	33.42
318.003	38.61
318.217	45.2
318.431	53.22
318.645	48.16
318.859	33.56
319.073	34.1
319.287	32.59
319.5	23.1
319.714	18.84
319.928	17.88
320.142	22.65
320.356	39.93
320.57	33.36
320.784	32.97
320.997	36.14
321.211	28.96
321.425	18.73
321.639	25.85
321.853	17.77
322.066	23.2
322.28	21.92
322.494	17.19
322.707	23.18
322.921	26.6
323.135	16.52
323.349	18.15
323.562	21.92
323.776	24.68
323.989	28.14
324.203	25.71
324.417	24.25
324.63	16.95
324.844	3.73
325.057	2.24
325.271	-1.57
325.485	7.58
325.698	7.14
325.912	13.89
326.125	23.03
326.339	32.64
326.552	31.88
326.766	33.2
326.979	26.37
327.193	20.21
327.406	16.04
327.619	-3.55
327.833	-1.54
328.046	2.18
328.26	-11.46
328.473	-12.03
328.686	0.82
328.9	-0.71
329.113	14.48
329.326	18.9
329.54	20.14
329.753	35.25
329.966	35.97
330.179	41.04
330.393	43.83
330.606	51.08
330.819	60.19
331.032	56.3
331.246	55.17
331.459	51.39
331.672	44.92
331.885	40.69
332.098	43.25
332.311	16.8
332.525	23.17
332.738	23.04
332.951	28.1
333.164	24.72
333.377	23.02
333.59	24.55
333.803	36.91
334.016	36.57
334.229	35.59
334.442	36.91
334.655	49.18
334.868	56.62
335.081	59.04
335.294	52.77
335.507	61.2
335.72	53.82
335.933	63
336.146	58.48
336.359	51.66
336.572	41.65
336.785	52.81
336.997	41.01
337.21	47.89
337.423	37.73
337.636	38.11
337.849	34.75
338.062	38.7
338.274	34.33
338.487	38.92
338.7	37.73
338.913	38.31
339.125	31.52
339.338	36.12
339.551	30.54
339.763	26.32
339.976	21.91
340.189	17.99
340.402	18.66
340.614	21.47
340.827	14.55
341.039	14.99
341.252	14.18
341.465	12.95
341.677	7.45
341.89	6.67
342.102	5.09
342.315	12.41
342.527	5.97
342.74	-2.2
342.952	4.65
343.165	19.74
343.377	17.77
343.59	28.52
343.802	23.87
344.015	29.2
344.227	31.98
344.44	32.02
344.652	28.29
344.864	32.9
345.077	27.85
345.289	34.14
345.502	33.78
345.714	24.36
345.926	17.29
346.139	9.01
346.351	-5.96
346.563	-0.62
346.775	-11.47
346.988	-7.69
347.2	10
347.412	10.17
347.624	18.53
347.837	26.28
348.049	22.01
348.261	24.93
348.473	18.83
348.685	27.88
348.897	36.05
349.11	27.72
349.322	16.76
349.534	17.03
349.746	30.81
349.958	31.38
350.17	10.8
350.382	5.42
350.594	13.42
350.806	20.99
351.018	23.47
351.23	19.13
351.442	25.92
351.654	38.19
351.866	43.01
352.078	41.06
352.29	49.78
352.502	47.25
352.714	50.14
352.926	44.39
353.138	38.52
353.35	32.46
353.561	26.97
353.773	25.05
353.985	33.85
354.197	23.66
354.409	30.95
354.621	34.46
354.832	37.08
355.044	45.9
355.256	41.57
355.468	38
355.679	43.09
355.891	36.08
356.103	28.15
356.314	24.36
356.526	14.62
356.738	10.78
356.949	19.05
357.161	23.43
357.373	22.44
357.584	35.54
357.796	35.56
358.008	43.64
358.219	48.83
358.431	42.33
358.642	39.31
358.854	34.33
359.065	27.26
359.277	23.66
359.488	16.84
359.7	20.7
359.911	17.3
360.123	21.63
360.334	26.82
360.546	17.34
360.757	25.85
360.969	33.85
361.18	33
361.391	26.69
361.603	26.4
361.814	31.34
362.025	35.69
362.237	30.25
362.448	24.52
362.659	9.23
362.871	15.22
363.082	13.54
363.293	8.12
363.504	9.96
363.716	16.15
363.927	16.32
364.138	22.4
364.349	22.16
364.56	24.59
364.772	27.38
364.983	22.04
365.194	20.85
365.405	21.98
365.616	16.65
365.827	18.95
366.038	26.79
366.25	27.62
366.461	38.25
366.672	37.43
366.883	36.21
367.094	43.46
367.305	41.91
367.516	32.25
367.727	28.54
367.938	24.43
368.149	24.25
368.36	20.79
368.571	25.58
368.781	21.11
368.992	19.15
369.203	22.65
369.414	23.02
369.625	15.49
369.836	18.41
370.047	12.38
370.258	11.18
370.468	11.37
370.679	4.52
370.89	8.19
371.101	6.84
371.312	3.56
371.522	7.48
371.733	5.62
371.944	11.28
372.155	4.12
372.365	-0.97
372.576	5.64
372.787	5.19
372.997	-1.24
373.208	8.81
373.419	3.28
373.629	16.76
373.84	8.95
374.05	8.84
374.261	8.25
374.472	12.69
374.682	4.56
374.893	-0.9
375.103	6.77
375.314	13.67
375.524	14.06
375.735	13.81
375.945	10.88
376.156	12.1
376.366	16.15
376.577	7.77
376.787	8.6
376.997	8.5
377.208	9.44
377.418	14.76
377.629	21.2
377.839	29.97
378.049	33.74
378.26	35.53
378.47	36.37
378.68	38.75
378.89	34.31
379.101	25.65
379.311	16
379.521	19.04
379.732	9.8
379.942	6.8
380.152	9.22
380.362	14.87
380.572	19.9
380.783	24.93
380.993	20.79
381.203	27.83
381.413	35.53
381.623	33.5
381.833	23.54
382.043	20.71
382.253	18.45
382.463	16.52
382.674	12.22
382.884	6.69
383.094	7.04
383.304	8.88
383.514	14.06
383.724	12.01
383.934	10.88
384.144	15.83
384.353	14.14
384.563	11.62
384.773	19.67
384.983	18.11
385.193	20.3
385.403	22.1
385.613	16.6
385.823	18.38
386.033	16.77
386.242	13.19
386.452	11.47
386.662	11
386.872	11.81
387.082	9.73
387.291	7.98
387.501	10.81
387.711	8.9
387.921	10.19
388.13	8.85
388.34	7.59
388.55	11.8
388.759	8.92
388.969	5.52
389.179	7.2
389.388	6.37
389.598	4.42
389.807	4.43
390.017	2.9
390.227	6.97
390.436	8.46
390.646	9.19
390.855	8.47
391.065	8.88
391.274	7.45
391.484	8.64
391.693	6.83
391.903	5.08
392.112	2.76
392.322	4.82
392.531	5.9
392.74	5.56
392.95	5.19
393.159	5.74
393.369	6.5
393.578	7.31
393.787	6.43
393.997	7.29
394.206	7.71
394.415	7.25
394.625	5.65
394.834	5.24
395.043	5.74
395.252	5.51
395.462	4.94
395.671	4.9
395.88	4.86
396.089	5.6
396.298	5.78
396.508	5.1
396.717	4.65
396.926	4.1
397.135	3.36
397.344	3.1
397.553	3.17
397.762	2.83
397.971	2.79
398.181	2.33
398.39	2.69
398.599	3.26
398.808	3.43
399.017	3.62
399.226	4.06
399.435	4.25
399.644	4.48
399.853	4.31
400.062	4.05
400.27	4
400.479	3.62
400.688	3.46
400.897	3.51
401.106	3.62
401.315	3.48
401.524	3.48
401.733	3.69
401.941	3.68
402.15	3.39
402.359	3.2
402.568	3.09
402.777	3
402.985	3
403.194	2.72
403.403	2.6
403.612	2.66
403.82	2.72
404.029	2.73
404.238	2.82
404.446	2.73
404.655	2.56
404.864	2.61
405.072	2.7
405.281	2.51
405.489	2.55
405.698	2.39
405.906	2.33
406.115	2.53
406.324	2.48
406.532	2.45
406.741	2.59
406.949	2.47
407.158	2.67
407.366	2.83
407.574	2.83
407.783	2.82
407.991	2.69
408.2	2.56
408.408	2.65
408.617	2.48
408.825	2.45
409.033	2.4
409.242	2.38
409.45	2.52
409.658	2.53
409.867	2.46
410.075	2.47
410.283	2.35
410.491	2.3
410.7	2.36
410.908	2.3
411.116	2.23
411.324	2.25
411.533	2.22
411.741	2.25
411.949	2.31
412.157	2.28
412.365	2.25
412.573	2.37
412.781	2.34
412.99	2.48
413.198	2.49
413.406	2.47
413.614	2.46
413.822	2.43
414.03	2.39
414.238	2.47
414.446	2.34
414.654	2.34
414.862	2.26
415.07	2.32
415.278	2.32
415.486	2.38
415.694	2.22
415.902	2.22
416.109	2.29
416.317	2.24
416.525	2.21
416.733	2.3
416.941	2.2
417.149	2.42
417.357	2.44
417.564	2.36
417.772	2.47
417.98	2.47
418.188	2.29
418.395	2.28
418.603	1.99
418.811	1.94
419.019	1.98
419.226	2.04
419.434	1.91
419.642	1.92
419.849	1.91
420.057	2.08
420.265	2.1
420.472	2.07
420.68	1.96
420.887	2.01
421.095	2.1
421.302	2.16
421.51	2.2
421.717	2.24
421.925	2.12
422.132	2.05
422.34	2.03
422.547	2.04
422.755	1.94
422.962	1.81
423.17	1.8
423.377	1.93
423.585	1.99
423.792	2.06
423.999	2.04
424.207	2.02
424.414	2.21
424.621	2.18
424.829	2.09
425.036	2.04
425.243	2.01
425.451	2.02
425.658	2.11
425.865	1.91
426.072	1.98
426.28	2.06
426.487	2.1
426.694	2.09
426.901	2.05
427.108	2.01
427.315	2.04
427.523	1.99
427.73	1.99
427.937	2
428.144	2.07
428.351	2.19
428.558	2.22
428.765	2.22
428.972	2.24
429.179	2.12
429.386	2.15
429.593	2.11
429.8	2.11
430.007	2.1
430.214	2.11
430.421	2.1
430.628	2.07
430.835	2.05
431.042	2.08
431.249	1.98
431.456	2
431.662	2.05
431.869	2.15
432.076	2.25
432.283	2.19
432.49	2.12
432.697	2.13
432.903	2.19
433.11	2.22
433.317	2.14
433.524	2.09
433.73	2.15
433.937	2.2
434.144	2.29
434.35	2.22
434.557	2.18
434.764	2.15
434.97	2.23
435.177	2.19
435.384	2.28
435.59	2.15
435.797	2.16
436.003	2.14
436.21	2.16
436.416	2.1
436.623	2.14
436.829	2.09
437.036	2.16
437.242	2.18
437.449	2.21
437.655	2.21
437.862	2.29
438.068	2.36
438.275	2.34
438.481	2.39
438.687	2.49
438.894	2.49
439.1	2.53
439.307	2.5
439.513	2.47
439.719	2.52
439.926	2.52
440.132	2.45
440.338	2.45
440.544	2.39
440.751	2.39
440.957	2.3
441.163	2.31
441.369	2.29
441.575	2.28
441.782	2.22
441.988	2.3
442.194	2.35
442.4	2.46
442.606	2.48
442.812	2.47
443.018	2.54
443.224	2.62
443.431	2.62
443.637	2.57
443.843	2.54
444.049	2.51
444.255	2.54
444.461	2.49
444.667	2.51
444.873	2.51
445.079	2.52
445.284	2.53
445.49	2.47
445.696	2.47
445.902	2.49
446.108	2.46
446.314	2.51
446.52	2.52
446.726	2.52
446.931	2.6
447.137	2.6
447.343	2.58
447.549	2.57
447.755	2.51
447.96	2.53
448.166	2.55
448.372	2.53
448.578	2.56
448.783	2.55
448.989	2.61
449.195	2.63
449.4	2.6
449.606	2.6
449.812	2.65
450.017	2.68
450.223	2.66
450.428	2.65
450.634	2.68
450.84	2.72
451.045	2.69
451.251	2.7
451.456	2.66
451.662	2.7
451.867	2.68
452.073	2.58
452.278	2.59
452.483	2.63
452.689	2.59
452.894	2.61
453.1	2.54
453.305	2.58
453.51	2.69
453.716	2.69
453.921	2.69
454.127	2.68
454.332	2.65
454.537	2.75
454.742	2.74
454.948	2.69
455.153	2.63
455.358	2.67
455.563	2.67
455.769	2.69
455.974	2.63
456.179	2.59
456.384	2.66
456.589	2.72
456.795	2.7
457	2.71
457.205	2.67
457.41	2.68
457.615	2.74
457.82	2.75
458.025	2.7
458.23	2.71
458.435	2.67
458.64	2.76
458.845	2.75
459.05	2.74
459.255	2.69
459.46	2.69
459.665	2.7
459.87	2.75
460.075	2.66
460.28	2.69
460.485	2.71
460.69	2.69
460.895	2.72
461.099	2.74
461.304	2.73
461.509	2.72
461.714	2.75
461.919	2.71
462.123	2.78
462.328	2.75
462.533	2.77
462.738	2.77
462.942	2.87
463.147	2.86
463.352	2.89
463.556	2.87
463.761	2.88
463.966	2.88
464.17	2.9
464.375	2.84
464.58	2.79
464.784	2.79
464.989	2.79
465.193	2.83
465.398	2.86
465.602	2.84
465.807	2.86
466.011	2.99
466.216	2.98
466.42	3.01
466.625	3.07
466.829	3.1
467.034	3.18
467.238	3.21
467.443	3.14
467.647	3.17
467.851	3.14
468.056	3.09
468.26	3.03
468.464	2.97
468.669	2.98
468.873	3.01
469.077	3.03
469.282	3.08
469.486	3.11
469.69	3.18
469.894	3.25
470.099	3.29
470.303	3.29
470.507	3.26
470.711	3.24
470.915	3.26
471.119	3.24
471.324	3.19
471.528	3.2
471.732	3.2
471.936	3.26
472.14	3.28
472.344	3.28
472.548	3.31
472.752	3.36
472.956	3.37
473.16	3.43
473.364	3.39
473.568	3.42
473.772	3.49
473.976	3.5
474.18	3.51
474.384	3.48
474.588	3.47
474.792	3.49
474.995	3.49
475.199	3.46
475.403	3.45
475.607	3.44
475.811	3.47
476.015	3.52
476.218	3.52
476.422	3.54
476.626	3.53
476.83	3.54
477.033	3.59
477.237	3.63
477.441	3.64
477.644	3.69
477.848	3.68
478.052	3.74
478.255	3.74
478.459	3.79
478.663	3.76
478.866	3.72
479.07	3.72
479.273	3.74
479.477	3.73
479.681	3.76
479.884	3.7
480.088	3.73
480.291	3.77
480.495	3.79
480.698	3.79
480.901	3.8
481.105	3.86
481.308	3.9
481.512	3.89
481.715	3.95
481.919	3.95
482.122	3.94
482.325	3.95
482.529	3.98
482.732	4.02
482.935	4.05
483.138	4.03
483.342	4.08
483.545	4.08
483.748	4.1
483.952	4.07
484.155	4.08
484.358	4.06
484.561	4.07
484.764	4.04
484.967	4.09
485.171	4.06
485.374	4.05
485.577	4.02
485.78	4.02
485.983	4.01
486.186	4.02
486.389	3.98
486.592	4.02
486.795	4.06
486.998	4.12
487.201	4.12
487.404	4.18
487.607	4.19
487.81	4.25
488.013	4.25
488.216	4.2
488.419	4.17
488.622	4.16
488.825	4.11
489.028	4.1
489.231	4.07
489.433	4.05
489.636	4.05
489.839	4.07
490.042	4.08
490.245	4.11
490.447	4.13
490.65	4.18
490.853	4.2
491.056	4.21
491.258	4.26
491.461	4.25
491.664	4.24
491.866	4.24
492.069	4.22
492.272	4.17
492.474	4.16
492.677	4.08
492.879	4.11
493.082	4.13
493.285	4.12
493.487	4.11
493.69	4.13
493.892	4.17
494.095	4.19
494.297	4.19
494.5	4.23
494.702	4.26
494.905	4.31
495.107	4.34
495.309	4.26
495.512	4.3
495.714	4.35
495.917	4.34
496.119	4.38
496.321	4.41
496.524	4.41
496.726	4.47
496.928	4.49
497.13	4.51
497.333	4.5
497.535	4.48
497.737	4.45
497.939	4.48
498.142	4.5
498.344	4.48
498.546	4.52
498.748	4.52
498.95	4.51
499.152	4.5
499.355	4.49
499.557	4.51
499.759	4.57
499.961	4.53
500.163	4.59
500.365	4.6
500.567	4.62
500.769	4.66
500.971	4.64
501.173	4.6
501.375	4.6
501.577	4.57
501.779	4.59
501.981	4.62
502.183	4.63
502.385	4.66
502.587	4.69
502.788	4.71
502.99	4.72
503.192	4.75
503.394	4.77
503.596	4.79
503.798	4.86
503.999	4.87
504.201	4.92
504.403	4.93
504.605	4.93
504.806	4.95
505.008	4.92
505.21	4.9
505.411	4.92
505.613	4.94
505.815	4.97
506.016	5.03
506.218	5
506.42	5.05
506.621	5.05
506.823	5.09
507.024	5.12
507.226	5.13
507.427	5.09
507.629	5.14
507.83	5.14
508.032	5.18
508.233	5.17
508.435	5.15
508.636	5.1
508.838	5.12
509.039	5.1
509.24	5.12
509.442	5.08
509.643	5.1
509.845	5.12
510.046	5.19
510.247	5.25
510.448	5.31
510.65	5.32
510.851	5.37
511.052	5.38
511.254	5.4
511.455	5.38
511.656	5.39
511.857	5.36
512.058	5.39
512.26	5.38
512.461	5.42
512.662	5.39
512.863	5.41
513.064	5.39
513.265	5.44
513.466	5.48
513.667	5.53
513.868	5.52
514.069	5.58
514.27	5.57
514.471	5.62
514.672	5.6
514.873	5.65
515.074	5.65
515.275	5.66
515.476	5.68
515.677	5.71
515.878	5.75
516.079	5.77
516.28	5.75
516.481	5.75
516.682	5.78
516.882	5.78
517.083	5.79
517.284	5.76
517.485	5.78
517.686	5.78
517.886	5.79
518.087	5.81
518.288	5.81
518.488	5.82
518.689	5.83
518.89	5.88
519.091	5.89
519.291	5.89
519.492	5.91
519.692	5.94
519.893	5.95
520.094	5.97
520.294	5.96
520.495	6.01
520.695	6.02
520.896	6
521.096	6.02
521.297	6.04
521.497	6.03
521.698	6.03
521.898	6.02
522.099	6.03
522.299	6.07
522.499	6.06
522.7	6.08
522.9	6.08
523.101	6.09
523.301	6.09
523.501	6.13
523.702	6.1
523.902	6.12
524.102	6.1
524.302	6.13
524.503	6.15
524.703	6.18
524.903	6.19
525.103	6.24
525.304	6.26
525.504	6.29
525.704	6.27
525.904	6.26
526.104	6.27
526.304	6.27
526.504	6.26
526.705	6.31
526.905	6.34
527.105	6.38
527.305	6.4
527.505	6.4
527.705	6.4
527.905	6.41
528.105	6.39
528.305	6.38
528.505	6.39
528.705	6.38
528.905	6.37
529.105	6.41
529.304	6.44
529.504	6.45
529.704	6.48
529.904	6.5
530.104	6.54
530.304	6.58
530.503	6.59
530.703	6.61
530.903	6.63
531.103	6.64
531.303	6.67
531.502	6.67
531.702	6.67
531.902	6.7
532.101	6.7
532.301	6.72
532.501	6.75
532.7	6.76
532.9	6.81
533.1	6.8
533.299	6.85
533.499	6.85
533.698	6.89
533.898	6.9
534.097	6.92
534.297	6.91
534.496	6.93
534.696	6.9
534.895	6.96
535.095	6.98
535.294	6.95
535.494	6.98
535.693	7
535.892	7.04
536.092	7.07
536.291	7.11
536.491	7.12
536.69	7.15
536.889	7.15
537.088	7.17
537.288	7.21
537.487	7.24
537.686	7.23
537.886	7.22
538.085	7.26
538.284	7.29
538.483	7.33
538.682	7.32
538.882	7.35
539.081	7.37
539.28	7.41
539.479	7.45
539.678	7.5
539.877	7.52
540.076	7.58
540.275	7.62
540.474	7.63
540.673	7.67
540.872	7.68
541.071	7.69
541.27	7.7
541.469	7.74
541.668	7.76
541.867	7.81
542.066	7.84
542.265	7.87
542.464	7.92
542.663	8.01
542.862	8.05
543.06	8.04
543.259	8.08
543.458	8.11
543.657	8.15
543.856	8.15
544.054	8.17
544.253	8.19
544.452	8.22
544.651	8.26
544.849	8.28
545.048	8.33
545.247	8.39
545.445	8.38
545.644	8.43
545.843	8.51
546.041	8.56
546.24	8.63
546.438	8.71
546.637	8.78
546.836	8.87
547.034	8.89
547.233	8.94
547.431	8.97
547.63	9.03
547.828	9.09
548.027	9.11
548.225	9.16
548.423	9.23
548.622	9.29
548.82	9.32
549.019	9.33
549.217	9.39
549.415	9.45
549.614	9.48
549.812	9.57
550.01	9.63
550.209	9.74
550.407	9.82
550.605	9.87
550.803	9.92
551.002	9.99
551.2	10.09
551.398	10.12
551.596	10.17
551.794	10.25
551.993	10.31
552.191	10.45
552.389	10.52
552.587	10.54
552.785	10.69
552.983	10.76
553.181	10.84
553.379	10.96
553.577	11.03
553.775	11.12
553.973	11.23
554.171	11.27
554.369	11.36
554.567	11.43
554.765	11.42
554.963	11.42
555.161	11.53
555.359	11.61
555.557	11.68
555.755	11.77
555.952	11.86
556.15	12
556.348	12.16
556.546	12.22
556.744	12.33
556.941	12.48
557.139	12.56
557.337	12.66
557.535	12.76
557.732	12.85
557.93	13
558.128	13.1
558.325	13.16
558.523	13.25
558.721	13.36
558.918	13.46
559.116	13.53
559.313	13.62
559.511	13.69
559.708	13.77
559.906	13.88
560.104	13.99
560.301	14.1
560.498	14.21
560.696	14.24
560.893	14.36
561.091	14.47
561.288	14.54
561.486	14.63
561.683	14.73
561.88	14.82
562.078	14.92
562.275	15.02
562.473	15.14
562.67	15.24
562.867	15.33
563.064	15.46
563.262	15.59
563.459	15.74
563.656	15.88
563.853	15.96
564.051	16.07
564.248	16.18
564.445	16.28
564.642	16.39
564.839	16.47
565.036	16.58
565.234	16.71
565.431	16.84
565.628	16.93
565.825	17.03
566.022	17.12
566.219	17.25
566.416	17.33
566.613	17.46
566.81	17.53
567.007	17.61
567.204	17.66
567.401	17.73
567.598	17.79
567.795	17.87
567.991	17.93
568.188	18.04
568.385	18.14
568.582	18.28
568.779	18.4
568.976	18.53
569.172	18.61
569.369	18.67
569.566	18.73
569.763	18.8
569.96	18.86
570.156	18.9
570.353	18.94
570.55	19.06
570.746	19.14
570.943	19.22
571.14	19.29
571.336	19.36
571.533	19.42
571.729	19.44
571.926	19.42
572.123	19.46
572.319	19.51
572.516	19.56
572.712	19.64
572.909	19.71
573.105	19.79
573.302	19.8
573.498	19.89
573.695	19.92
573.891	19.98
574.087	19.97
574.284	20.01
574.48	19.99
574.677	20.11
574.873	20.16
575.069	20.24
575.266	20.2
575.462	20.26
575.658	20.32
575.854	20.39
576.051	20.36
576.247	20.32
576.443	20.32
576.639	20.39
576.835	20.44
577.032	20.39
577.228	20.39
577.424	20.47
577.62	20.48
577.816	20.49
578.012	20.48
578.208	20.45
578.404	20.53
578.6	20.59
578.796	20.6
578.993	20.61
579.189	20.56
579.384	20.58
579.58	20.62
579.776	20.54
579.972	20.48
580.168	20.48
580.364	20.49
580.56	20.54
580.756	20.53
580.952	20.5
581.148	20.54
581.343	20.57
581.539	20.58
581.735	20.55
581.931	20.54
582.127	20.53
582.322	20.52
582.518	20.48
582.714	20.46
582.909	20.43
583.105	20.43
583.301	20.4
583.496	20.4
583.692	20.39
583.888	20.39
584.083	20.47
584.279	20.46
584.474	20.47
584.67	20.51
584.866	20.5
585.061	20.55
585.257	20.54
585.452	20.45
585.648	20.47
585.843	20.49
586.039	20.44
586.234	20.44
586.429	20.39
586.625	20.37
586.82	20.39
587.015	20.35
587.211	20.36
587.406	20.46
587.601	20.43
587.797	20.43
587.992	20.47
588.187	20.55
588.383	20.58
588.578	20.55
588.773	20.48
588.968	20.58
589.163	20.66
589.359	20.67
589.554	20.65
589.749	20.72
589.944	20.78
590.139	20.88
590.334	20.83
590.529	20.84
590.724	20.9
590.919	20.95
591.114	21.01
591.309	21.02
591.504	21.05
591.699	21.11
591.894	21.16
592.089	21.2
592.284	21.16
592.479	21.18
592.674	21.27
592.869	21.29
593.064	21.42
593.259	21.44
593.454	21.5
593.648	21.57
593.843	21.61
594.038	21.61
594.233	21.72
594.428	21.76
594.622	21.84
594.817	21.96
595.012	22.1
595.206	22.16
595.401	22.26
595.596	22.33
595.79	22.36
595.985	22.42
596.18	22.5
596.374	22.53
596.569	22.6
596.763	22.69
596.958	22.75
597.153	22.81
597.347	22.88
597.542	22.92
597.736	23
597.931	23.11
598.125	23.17
598.319	23.25
598.514	23.38
598.708	23.43
598.903	23.5
599.097	23.59
599.291	23.63
599.486	23.68
599.68	23.69
599.874	23.81
600.069	23.9
600.263	23.93
600.457	23.93
600.651	23.98
600.846	24.05
601.04	24.15
601.234	24.17
601.428	24.16
601.622	24.2
601.817	24.29
602.011	24.35
602.205	24.37
602.399	24.39
602.593	24.37
602.787	24.41
602.981	24.43
603.175	24.38
603.369	24.37
603.563	24.35
603.757	24.29
603.951	24.23
604.145	24.25
604.339	24.25
604.533	24.28
604.727	24.2
604.921	24.18
605.115	24.14
605.309	24.13
605.502	24.12
605.696	24.03
605.89	24.04
606.084	24.04
606.278	24.03
606.471	24.03
606.665	24.01
606.859	23.97
607.053	23.93
607.246	23.82
607.44	23.76
607.634	23.71
607.827	23.62
608.021	23.58
608.214	23.51
608.408	23.45
608.602	23.42
608.795	23.38
608.989	23.29
609.182	23.34
609.376	23.26
609.569	23.17
609.763	23.14
609.956	23.02
610.15	22.93
610.343	22.87
610.537	22.76
610.73	22.76
610.923	22.72
611.117	22.6
611.31	22.6
611.504	22.57
611.697	22.51
611.89	22.37
612.083	22.24
612.277	22.14
612.47	22.05
612.663	21.94
612.856	21.82
613.05	21.7
613.243	21.65
613.436	21.54
613.629	21.49
613.822	21.44
614.015	21.37
614.209	21.36
614.402	21.34
614.595	21.23
614.788	21.13
614.981	21.02
615.174	20.98
615.367	20.9
615.56	20.81
615.753	20.69
615.946	20.73
616.139	20.7
616.332	20.69
616.525	20.68
616.718	20.61
616.911	20.54
617.103	20.5
617.296	20.43
617.489	20.47
617.682	20.42
617.875	20.33
618.067	20.25
618.26	20.21
618.453	20.14
618.646	20.1
618.838	19.96
619.031	19.9
619.224	19.86
619.417	19.89
619.609	19.84
619.802	19.9
619.994	19.8
620.187	19.83
620.38	19.76
620.572	19.79
620.765	19.72
620.957	19.64
621.15	19.57
621.342	19.62
621.535	19.58
621.727	19.57
621.92	19.52
622.112	19.51
622.305	19.56
622.497	19.49
622.69	19.39
622.882	19.36
623.074	19.36
623.267	19.26
623.459	19.23
623.651	19.19
623.844	19.21
624.036	19.28
624.228	19.24
624.42	19.22
624.613	19.21
624.805	19.18
624.997	19.19
625.189	19.15
625.381	19.05
625.574	19.06
625.766	19.04
625.958	19.01
626.15	19.04
626.342	18.97
626.534	18.91
626.726	18.91
626.918	18.82
627.11	18.79
627.302	18.73
627.494	18.72
627.686	18.71
627.878	18.68
628.07	18.61
628.262	18.58
628.454	18.55
628.646	18.54
628.838	18.44
629.029	18.33
629.221	18.31
629.413	18.27
629.605	18.23
629.797	18.21
629.989	18.18
630.18	18.13
630.372	18.15
630.564	18.13
630.755	18.13
630.947	18.12
631.139	18.04
631.33	18.03
631.522	18.01
631.714	17.99
631.905	17.97
632.097	17.93
632.289	17.87
632.48	17.82
632.672	17.7
632.863	17.68
633.055	17.63
633.246	17.61
633.438	17.55
633.629	17.58
633.821	17.62
634.012	17.71
634.203	17.75
634.395	17.81
634.586	17.78
634.777	17.79
634.969	17.76
635.16	17.71
635.351	17.68
635.543	17.59
635.734	17.51
635.925	17.5
636.117	17.51
636.308	17.51
636.499	17.51
636.69	17.54
636.881	17.59
637.073	17.61
637.264	17.57
637.455	17.56
637.646	17.57
637.837	17.58
638.028	17.56
638.219	17.49
638.41	17.47
638.601	17.48
638.792	17.47
638.983	17.39
639.174	17.37
639.365	17.33
639.556	17.35
639.747	17.37
639.938	17.38
640.129	17.35
640.32	17.38
640.511	17.38
640.701	17.33
640.892	17.38
641.083	17.33
641.274	17.32
641.465	17.31
641.655	17.33
641.846	17.31
642.037	17.29
642.228	17.23
642.418	17.2
642.609	17.14
642.8	17.09
642.99	17.02
643.181	17
643.372	17
643.562	16.95
643.753	16.93
643.943	16.92
644.134	16.94
644.324	16.96
644.515	16.95
644.705	16.95
644.896	16.89
645.086	16.89
645.277	16.91
645.467	16.92
645.658	16.88
645.848	16.86
646.038	16.85
646.229	16.87
646.419	16.88
646.61	16.84
646.8	16.78
646.99	16.71
647.18	16.65
647.371	16.62
647.561	16.6
647.751	16.53
647.941	16.51
648.132	16.51
648.322	16.55
648.512	16.55
648.702	16.48
648.892	16.49
649.082	16.43
649.272	16.34
649.462	16.29
649.653	16.25
649.843	16.22
650.033	16.17
650.223	16.13
650.413	16.14
650.603	16.18
650.793	16.12
650.983	16.06
651.172	15.99
651.362	15.95
651.552	15.85
651.742	15.79
651.932	15.75
652.122	15.71
652.312	15.6
652.502	15.55
652.691	15.52
652.881	15.48
653.071	15.36
653.261	15.22
653.45	15.1
653.64	15.11
653.83	15.03
654.019	14.88
654.209	14.78
654.399	14.72
654.588	14.64
654.778	14.54
654.968	14.39
655.157	14.2
655.347	14.06
655.536	13.89
655.726	13.8
655.915	13.64
656.105	13.52
656.294	13.41
656.484	13.29
656.673	13.2
656.863	13.07
657.052	12.9
657.241	12.67
657.431	12.51
657.62	12.26
657.809	12.14
657.999	11.94
658.188	11.75
658.377	11.65
658.567	11.53
658.756	11.37
658.945	11.23
659.134	11.03
659.324	10.86
659.513	10.7
659.702	10.49
659.891	10.33
660.08	10.21
660.269	10.05
660.458	9.89
660.648	9.81
660.837	9.69
661.026	9.54
661.215	9.44
661.404	9.25
661.593	9.13
661.782	9.01
661.971	8.84
662.16	8.71
662.349	8.55
662.538	8.48
662.726	8.33
662.915	8.2
663.104	8.01
663.293	7.92
663.482	7.77
663.671	7.67
663.86	7.51
664.048	7.39
664.237	7.3
664.426	7.27
664.615	7.19
664.803	7.14
664.992	7.06
665.181	6.97
665.369	6.93
665.558	6.88
665.747	6.88
665.935	6.83
666.124	6.76
666.312	6.66
666.501	6.62
666.69	6.58
666.878	6.56
667.067	6.5
667.255	6.44
667.444	6.42
667.632	6.39
667.82	6.34
668.009	6.31
668.197	6.21
668.386	6.12
668.574	6.1
668.762	6.05
668.951	6.09
669.139	6.11
669.327	6.08
669.516	6.13
669.704	6.19
669.892	6.19
670.08	6.19
670.269	6.15
670.457	6.12
670.645	6.15
670.833	6.13
671.021	6.11
671.21	6.1
671.398	6.1
671.586	6.18
671.774	6.23
671.962	6.27
672.15	6.29
672.338	6.32
672.526	6.35
672.714	6.36
672.902	6.36
673.09	6.39
673.278	6.4
673.466	6.53
673.654	6.59
673.842	6.68
674.03	6.8
674.218	6.85
674.405	6.94
674.593	7.01
674.781	7.01
674.969	7.06
675.157	7.11
675.344	7.15
675.532	7.22
675.72	7.27
675.908	7.34
676.095	7.45
676.283	7.51
676.471	7.55
676.658	7.65
676.846	7.79
677.033	7.87
677.221	7.95
677.409	7.99
677.596	8.11
677.784	8.17
677.971	8.25
678.159	8.28
678.346	8.24
678.534	8.32
678.721	8.39
678.909	8.38
679.096	8.45
679.283	8.51
679.471	8.61
679.658	8.82
679.846	8.96
680.033	9.04
680.22	9.22
680.408	9.37
680.595	9.49
680.782	9.57
680.969	9.6
681.157	9.69
681.344	9.85
681.531	9.95
681.718	10.07
681.905	10.18
682.093	10.46
682.28	10.71
682.467	10.79
682.654	10.89
682.841	11.09
683.028	11.29
683.215	11.39
683.402	11.42
683.589	11.55
683.776	11.77
683.963	11.98
684.15	12.12
684.337	12.26
684.524	12.57
684.711	12.82
684.898	13.01
685.085	13.31
685.271	13.57
685.458	13.94
685.645	14.23
685.832	14.46
686.019	14.68
686.205	15
686.392	15.31
686.579	15.58
686.766	15.9
686.952	16.32
687.139	16.64
687.326	17.17
687.512	17.59
687.699	17.93
687.886	18.23
688.072	18.61
688.259	19.01
688.445	19.44
688.632	19.82
688.818	20.25
689.005	20.75
689.191	21.43
689.378	21.9
689.564	22.33
689.751	22.93
689.937	23.29
690.124	23.88
690.31	24.41
690.496	24.89
690.683	25.44
690.869	26.01
691.055	26.59
691.242	27.25
691.428	27.9
691.614	28.5
691.8	29.08
691.987	29.7
692.173	30.45
692.359	31.01
692.545	31.64
692.731	32.22
692.918	32.87
693.104	33.56
693.29	34.25
693.476	34.72
693.662	35.42
693.848	36.01
694.034	36.48
694.22	37.08
694.406	37.77
694.592	38.3
694.778	39.1
694.964	39.66
695.15	40.3
695.336	41.2
695.522	41.81
695.708	42.41
695.894	43.05
696.08	43.54
696.265	44.16
696.451	44.88
696.637	45.24
696.823	45.81
697.009	46.29
697.194	46.9
697.38	47.35
697.566	47.9
697.751	48.41
697.937	48.99
698.123	49.47
698.308	49.99
698.494	50.49
698.68	51.17
698.865	51.75
699.051	52.23
699.236	52.75
699.422	53.3
699.607	53.76
699.793	54.25
699.978	54.51
700.164	55.01
700.349	55.46
700.535	55.87
700.72	56.26
700.906	56.85
701.091	57.07
701.276	57.59
701.462	57.91
701.647	58.28
701.832	58.81
702.018	59.18
702.203	59.42
702.388	59.86
702.573	60.28
702.759	60.63
702.944	60.87
703.129	61.09
703.314	61.54
703.499	61.9
703.684	62.5
703.87	62.89
704.055	63.05
704.24	63.46
704.425	63.8
704.61	63.88
704.795	64.33
704.98	64.39
705.165	64.48
705.35	64.87
705.535	65.27
705.72	65.39
705.905	65.73
706.09	65.76
706.275	65.83
706.459	66.29
706.644	66.52
706.829	66.7
707.014	66.89
707.199	67.03
707.384	67.33
707.568	67.88
707.753	67.96
707.938	68.28
708.123	68.32
708.307	68.78
708.492	68.92
708.677	69.23
708.861	69.2
709.046	69.21
709.231	69.18
709.415	69.36
709.6	69.28
709.784	69.57
709.969	69.61
710.153	70.02
710.338	70.24
710.522	70.29
710.707	70.16
710.891	70.43
711.076	70.38
711.26	70.56
711.445	70.42
711.629	70.71
711.813	70.85
711.998	71.21
712.182	71.32
712.366	71.65
712.551	71.6
712.735	71.61
712.919	71.84
713.103	71.95
713.288	72.19
713.472	72.11
713.656	71.99
713.84	72.15
714.024	72.45
714.208	72.29
714.393	72.45
714.577	72.4
714.761	72.75
714.945	72.99
715.129	72.99
715.313	72.96
715.497	73.24
715.681	73.54
715.865	73.76
716.049	73.79
716.233	73.96
716.417	74.2
716.601	74.52
716.785	74.46
716.968	74.45
717.152	74.45
717.336	74.56
717.52	74.59
717.704	74.68
717.888	74.47
718.071	74.83
718.255	74.77
718.439	74.65
718.622	74.77
718.806	74.73
718.99	74.56
719.174	74.88
719.357	74.78
719.541	75.18
719.724	75.58
719.908	75.55
720.092	75.68
720.275	75.92
720.459	75.88
720.642	75.6
720.826	75.5
721.009	75.58
721.193	75.77
721.376	75.85
721.559	76.04
721.743	75.99
721.926	76.31
722.11	76.37
722.293	75.86
722.476	75.53
722.66	75.51
722.843	75.28
723.026	75.71
723.21	75.81
723.393	75.88
723.576	76.18
723.759	76.64
723.942	76.99
724.126	77.27
724.309	77.09
724.492	77.15
724.675	77.2
724.858	77.65
725.041	77.57
725.224	77.44
725.407	77.27
725.59	77.21
725.774	77.13
725.957	77.54
726.14	77.35
726.322	77.21
726.505	77.36
726.688	77.67
726.871	77.98
727.054	78.21
727.237	77.72
727.42	78.3
727.603	78.75
727.786	78.63
727.968	78.85
728.151	78.84
728.334	78.89
728.517	79.19
728.699	78.9
728.882	79.17
729.065	79.21
729.248	79.09
729.43	79.12
729.613	79.2
729.796	79.06
729.978	79.45
730.161	79.43
730.343	79.76
730.526	80.05
730.708	80.11
730.891	80.06
731.073	80.27
731.256	80
731.438	79.76
731.621	79.98
731.803	79.98
731.986	80.34
732.168	80.24
732.35	80.57
732.533	80.85
732.715	81.38
732.898	81.24
733.08	81.55
733.262	81.07
733.444	81.36
733.627	81.26
733.809	81.13
733.991	81.15
734.173	81.17
734.355	81.11
734.538	81.16
734.72	81.55
734.902	81.53
735.084	81.28
735.266	81.18
735.448	81.38
735.63	81.2
735.812	81.72
735.994	81.32
736.176	81.76
736.358	82.48
736.54	81.86
736.722	81.71
736.904	81.99
737.086	81.41
737.268	81.78
737.45	81.59
737.632	81.1
737.814	81.62
737.995	82.03
738.177	81.87
738.359	82.6
738.541	82.31
738.723	82.38
738.904	82.15
739.086	82.11
739.268	82.37
739.449	82.46
739.631	82.43
739.813	82.6
739.994	82.97
740.176	83.32
740.358	83.87
740.539	83.36
740.721	83.52
740.902	83.07
741.084	83.43
741.265	82.89
741.447	82.56
741.628	81.87
741.81	81.97
741.991	81.92
742.172	82.35
742.354	82.34
742.535	82
742.717	82.03
742.898	82.85
743.079	82.4
743.261	82.52
743.442	82.69
743.623	82.48
743.804	83.08
743.986	83.09
744.167	81.89
744.348	82.69
744.529	82.45
744.71	81.97
744.891	81.7
745.073	81.4
745.254	81.55
745.435	81.68
745.616	81.3
745.797	81.17
745.978	81.93
746.159	81.8
746.34	82.07
746.521	81.93
746.702	82.28
746.883	83
747.064	82.94
747.245	82.98
747.426	83.27
747.606	83.07
747.787	83.7
747.968	84.39
748.149	83.34
748.33	83.95
748.51	83.08
748.691	83.53
748.872	83.33
749.053	83.25
749.233	82.7
749.414	82.67
749.595	81.91
749.775	82.08
749.956	80.95
750.137	80.89
750.317	80.63
750.498	80.95
750.678	81.14
750.859	81.32
751.04	81.37
751.22	81.29
751.4	81.99
751.581	81.95
751.761	81.88
751.942	81.83
752.122	81.67
752.303	81.3
752.483	82.65
752.663	83.2
752.844	82.86
753.024	82.66
753.204	82.39
753.385	82.14
753.565	81.72
753.745	80.86
753.925	79.45
754.106	79.95
754.286	79.78
754.466	79.89
754.646	79.98
754.826	80.52
755.006	80.6
755.187	81.54
755.367	80.92
755.547	80.84
755.727	81
755.907	81.72
756.087	81.84
756.267	81.53
756.447	81.24
756.627	81.53
756.807	82.29
756.987	83.18
757.167	82.9
757.346	82.71
757.526	83.28
757.706	83.47
757.886	83.74
758.066	83.36
758.246	82.32
758.425	82.46
758.605	82.47
758.785	82.49
758.965	81.7
759.144	81.65
759.324	81.81
759.504	81.82
759.683	80.95
759.863	81.11
760.043	80.24
760.222	80.29
760.402	80.63
760.581	79.45
760.761	78.8
760.94	78.61
761.12	77.92
761.299	78.57
761.479	78.98
761.658	78.62
761.838	79.01
762.017	80.08
762.197	81.77
762.376	82.55
762.555	82.08
762.735	80.9
762.914	80.75
763.093	80.59
763.273	80.36
763.452	79.12
763.631	78.19
763.81	78.62
763.99	79.2
764.169	78.97
764.348	80.24
764.527	80.01
764.706	79.98
764.885	80.95
765.064	80.77
765.243	81.05
765.423	81.72
765.602	79.68
765.781	79.27
765.96	79.67
766.139	78.89
766.318	79.34
766.497	79.58
766.676	80.17
766.854	80.37
767.033	79.91
767.212	78.9
767.391	79.74
767.57	78.89
767.749	78.35
767.928	76.86
768.106	77.42
768.285	77.49
768.464	77.91
768.643	77.57
768.821	77.34
769	77.75
769.179	77.14
769.357	75.92
769.536	76.42
769.715	76.53
769.893	76.43
770.072	76.61
770.25	75.36
770.429	76.23
770.607	77.1
770.786	77.66
770.964	77.27
771.143	76.6
771.321	75.95
771.5	75.8
771.678	75.71
771.857	75.16
772.035	74.77
772.213	75.07
772.392	74.87
772.57	76.33
772.748	76.27
772.927	76.31
773.105	77.36
773.283	76.73
773.461	76.07
773.64	75.85
773.818	73.38
773.996	74.42
774.174	75.04
774.352	74.25
774.531	74.48
774.709	74.61
774.887	74.66
775.065	76.11
775.243	76.04
775.421	75.04
775.599	74.24
775.777	74.17
775.955	73.87
776.133	73.86
776.311	72.36
776.489	72.07
776.667	72.99
776.844	73.55
777.022	73.73
777.2	74.2
777.378	74.38
777.556	77.03
777.734	77.49
777.911	77.46
778.089	76.58
778.267	76.09
778.445	76.2
778.622	76.63
778.8	75.7
778.978	75.47
779.155	73.43
779.333	73.58
779.511	74.41
779.688	73.36
779.866	72.91
780.043	72.89
780.221	73
780.398	73.65
780.576	73.89
780.753	71.75
780.931	73.57
781.108	73.98
781.286	72.95
781.463	72.75
781.64	73.07
781.818	73.94
781.995	76.18
782.172	75.47
782.35	73.54
782.527	74.84
782.704	73.06
782.882	73.44
783.059	71.94
783.236	72.27
783.413	72.55
783.59	73.09
783.768	72.44
783.945	73.32
784.122	73.07
784.299	75.22
784.476	73.86
784.653	72.9
784.83	72.26
785.007	72.69
785.184	73.71
785.361	72.66
785.538	71.26
785.715	70.06
785.892	70.17
786.069	72.17
786.246	70.93
786.423	71.94
786.6	71.95
786.776	71.65
786.953	72.3
787.13	73.5
787.307	73.45
787.484	73.55
787.66	70.39
787.837	71.58
788.014	72.23
788.191	71.75
788.367	70.13
788.544	67.66
788.721	68.22
788.897	71.58
789.074	70.09
789.25	72.2
789.427	72.36
789.603	73.23
789.78	76.97
789.956	75.58
790.133	72.99
790.309	74.67
790.486	74.64
790.662	76.76
790.839	79.67
791.015	77.25
791.192	79.83
791.368	81.41
791.544	81.78
791.721	79.84
791.897	78.67
792.073	75.93
792.249	77.95
792.426	78.17
792.602	76
792.778	73.93
792.954	74.01
793.13	75.61
793.307	73.65
793.483	71.06
793.659	71.67
793.835	72.3
794.011	71.54
794.187	68.25
794.363	67.36
794.539	66.45
794.715	66.58
794.891	61.37
795.067	62.4
795.243	64.23
795.419	68.18
795.595	66.27
795.771	69.67
795.947	71.12
796.122	72.94
796.298	71.59
796.474	72.81
796.65	71.49
796.826	74.1
797.001	72.6
797.177	72.97
797.353	76.5
797.529	78.51
797.704	75.8
797.88	74.93
798.056	75.25
798.231	78.17
798.407	78.29
798.582	76.39
798.758	76.4
798.934	76.15
799.109	75.86
799.285	74.67
799.46	72.67
799.636	74.36
799.811	75.8
799.986	75.02
800.162	75.5
800.337	74.79
800.513	75.88
800.688	78.11
800.863	76.74
801.039	73.76
801.214	71.39
801.389	70.52
801.565	75.02
801.74	73.95
801.915	71.53
802.09	68.58
802.265	68.71
802.441	69.47
802.616	71.63
802.791	67.28
802.966	66.89
803.141	62.64
803.316	66.16
803.491	69.86
803.666	70.23
803.841	69.44
804.016	72.72
804.191	72.07
804.366	74.19
804.541	71.31
804.716	65.27
804.891	70.22
805.066	69.22
805.241	65.47
805.416	64.78
805.591	68.34
805.765	68.85
805.94	72.27
806.115	66.34
806.29	69.68
806.464	69.69
806.639	67.99
806.814	64.09
806.989	63.03
807.163	59.5
807.338	61.83
807.512	56
807.687	55.19
807.862	58.56
808.036	58.49
808.211	61.08
808.385	63.88
808.56	67.94
808.734	71.42
808.909	73.18
809.083	71.39
809.258	75.15
809.432	72.61
809.606	73.55
809.781	68.25
809.955	68.71
810.13	72.16
810.304	69.54
810.478	67.21
810.652	69.29
810.827	68.61
811.001	66.27
811.175	63.2
811.349	61.23
811.524	63.61
811.698	64.59
811.872	63.24
812.046	60.19
812.22	61.3
812.394	64.86
812.568	67.01
812.742	66.19
812.916	64.2
813.09	60.98
813.264	59.96
813.438	67.73
813.612	63.22
813.786	64.12
813.96	68.77
814.134	73.61
814.308	77.11
814.482	79.05
814.656	75.24
814.83	80.13
815.003	79.26
815.177	77.55
815.351	77.32
815.525	75.75
815.698	76.41
815.872	74.39
816.046	70.15
816.219	70.76
816.393	62.28
816.567	55.86
816.74	62.79
816.914	65.3
817.088	67.17
817.261	69.19
817.435	63.33
817.608	68.43
817.782	80.04
817.955	78.61
818.129	79.23
818.302	75.22
818.475	77.44
818.649	79.18
818.822	84.16
818.996	75.83
819.169	69.4
819.342	66.98
819.516	67.86
819.689	65.77
819.862	65.08
820.035	61.7
820.209	59.03
820.382	58.68
820.555	62.55
820.728	63.23
820.901	61.52
821.075	67.56
821.248	65.62
821.421	65.8
821.594	67.66
821.767	63.77
821.94	54.39
822.113	58.23
822.286	57.06
822.459	66.37
822.632	70.25
822.805	73.39
822.978	73.4
823.151	86.14
823.324	70.73
823.496	59.65
823.669	55.9
823.842	55.39
824.015	51.71
824.188	52.76
824.361	51.01
824.533	70.14
824.706	85.91
824.879	85.7
825.051	88.98
825.224	86.79
825.397	80.44
825.569	85.12
825.742	81.54
825.915	74.35
826.087	70.14
826.26	68.77
826.432	73.05
826.605	75.97
826.777	73.65
826.95	68.7
827.122	71.99
827.295	76.11
827.467	63.89
827.64	57.52
827.812	59.67
827.984	63.27
828.157	63.4
828.329	63.02
828.501	58.32
828.674	71.47
828.846	73.15
829.018	69.37
829.19	59.11
829.363	55.22
829.535	48.39
829.707	45.49
829.879	44.81
830.051	49.04
830.223	44.81
830.395	46.69
830.568	56.97
830.74	69.14
830.912	68.45
831.084	62.65
831.256	53.57
831.428	63.57
831.6	65.14
831.772	59.15
831.943	60.63
832.115	66.14
832.287	63.84
832.459	77.62
832.631	68.22
832.803	75.93
832.975	72.94
833.146	70.18
833.318	65.04
833.49	73.74
833.662	65.63
833.833	67.13
834.005	59.82
834.177	65.11
834.348	54.51
834.52	61.41
834.692	64.41
834.863	61.61
835.035	58.93
835.206	66.24
835.378	69.13
835.549	74.63
835.721	70.47
835.892	60.94
836.064	70.37
836.235	74.05
836.407	67.5
836.578	68.75
836.749	68.25
836.921	58.36
837.092	70.61
837.264	61.78
837.435	54.02
837.606	50.09
837.777	37.81
837.949	37.32
838.12	46.81
838.291	44.48
838.462	44.24
838.633	48.28
838.805	54.02
838.976	56.86
839.147	51.24
839.318	43.95
839.489	40.97
839.66	48.71
839.831	50.28
840.002	44.63
840.173	43.17
840.344	51.85
840.515	48.21
840.686	49.39
840.857	39.11
841.028	34.21
841.199	30.06
841.369	34.04
841.54	36.97
841.711	49.82
841.882	43.8
842.053	45.35
842.223	50.78
842.394	59.61
842.565	74.05
842.736	78.2
842.906	85.98
843.077	90.47
843.248	97.08
843.418	96.24
843.589	99.45
843.759	95.28
843.93	91.12
844.101	79.84
844.271	84.2
844.442	76.74
844.612	64.92
844.783	50.39
844.953	35.67
845.123	45.5
845.294	52.52
845.464	45.43
845.635	49.78
845.805	63.26
845.975	64.43
846.146	72.54
846.316	83.77
846.486	86.08
846.656	90.54
846.827	85.25
846.997	96.98
847.167	96.3
847.337	100.89
847.507	85.88
847.677	87.89
847.848	88.4
848.018	99.71
848.188	83.05
848.358	104.53
848.528	99.19
848.698	91.87
848.868	86.44
849.038	82.36
849.208	81.08
849.378	74.56
849.548	73.23
849.718	68.68
849.887	72.67
850.057	54.37
850.227	45.42
850.397	34.58
850.567	56.38
850.737	37.76
850.906	35.49
851.076	33.61
851.246	49.84
851.415	61.69
851.585	56.4
851.755	52.44
851.924	72.75
852.094	76.05
852.264	66.98
852.433	75.48
852.603	81.49
852.772	83.76
852.942	65.12
853.111	64.2
853.281	67.09
853.45	76.78
853.62	58.67
853.789	54.35
853.959	50.81
854.128	41.62
854.297	35.31
854.467	39.21
854.636	26.15
854.805	35.68
854.975	33.41
855.144	45.06
855.313	72.78
855.482	73.92
855.652	65.37
855.821	74.63
855.99	85.09
856.159	77.83
856.328	68.8
856.497	56.27
856.667	55.17
856.836	53.08
857.005	57.04
857.174	62.38
857.343	64.6
857.512	53.34
857.681	49.26
857.85	45.59
858.019	42.43
858.188	34.66
858.356	-4.82
858.525	2.01
858.694	39.22
858.863	42.9
859.032	33.99
859.201	42.16
859.369	54.83
859.538	71.71
859.707	80.58
859.876	57.66
860.044	64.61
860.213	79.56
860.382	72.54
860.55	84.02
860.719	86.34
860.888	74.37
861.056	80.38
861.225	87.32
861.393	77.17
861.562	74.09
861.73	48.83
861.899	36.52
862.067	52.82
862.236	52.35
862.404	45.82
862.572	55.2
862.741	53.47
862.909	54.15
863.078	51.75
863.246	45.04
863.414	58.2
863.582	60.21
863.751	25.54
863.919	31.07
864.087	46.93
864.255	49.51
864.424	57.9
864.592	58.09
864.76	56.5
864.928	69.91
865.096	56.57
865.264	62.08
865.432	71.34
865.6	58.13
865.768	35.28
865.936	49.7
866.104	58.36
866.272	92.24
866.44	56.13
866.608	25.81
866.776	60.06
866.944	63.77
867.112	3.29
867.28	36.93
867.448	44.97
867.615	57.31
867.783	43.18
867.951	30.94
868.119	74.01
868.286	91.11
868.454	43.2
868.622	32.42
868.789	38.63
868.957	54.18
869.125	50.92
869.292	44.78
869.46	45.86
869.627	43.36
869.795	35.87
869.963	31.69
870.13	54.49
870.298	54.68
870.465	41.2
870.632	62.34
870.8	71.7
870.967	60.68
871.135	62.09
871.302	41.84
871.469	40.56
871.637	34.7
871.804	29.74
871.971	30.95
872.139	55.03
872.306	38.81
872.473	27.79
872.64	40.64
872.807	48.31
872.975	93.96
873.142	81.97
873.309	53.71
873.476	126.39
873.643	198.13
873.81	153.38
873.977	120.64
874.144	76.97
874.311	45.15
874.478	-7.09
874.645	4.76
874.812	32.39
874.979	18.01
875.146	-1.79
875.313	-44.65
875.48	71.43
875.647	115.73
875.813	109.22
875.98	54.19
876.147	62.7
876.314	71.65
876.481	59.11
876.647	42.79
876.814	59.21
876.981	49.51
877.147	52.83
877.314	54.53
877.481	57.55
877.647	65.71
877.814	50.35
877.98	54.25
878.147	56.75
878.314	47.58
878.48	49.28
878.647	67.26
878.813	86.53
878.979	129.55
879.146	83.93
879.312	105.99
879.479	87.23
879.645	47.47
879.811	25.62
879.978	16.42
880.144	-5.95
880.31	-31.95
880.477	-74.29
880.643	-83.73
880.809	109.43
880.975	75.16
881.142	63.57
881.308	73.19
881.474	112.86
881.64	103.79
881.806	70.32
881.972	92.13
882.138	83.24
882.304	50.67
882.47	36.67
882.636	9.02
882.802	-25.57
882.968	-151.9
883.134	-365.41
883.3	-134.24
883.466	-27.3
883.632	-25.1
883.798	3.21
883.964	7.66
884.129	41.98
884.295	37.07
884.461	34.73
884.627	74.52
884.793	98.5
884.958	55.5
885.124	58.44
885.29	50.02
885.455	54.8
885.621	49.47
885.787	28.44
885.952	13.28
886.118	48.14
886.283	55.91
886.449	18
886.614	26.76
886.78	46.31
886.945	31.05
887.111	37.34
887.276	32.52
887.442	31.9
887.607	57.04
887.773	19
887.938	-5.75
888.103	33.22
888.269	38.2
888.434	18.3
888.599	30.41
888.764	34.61
888.93	62.16
889.095	54.81
889.26	82.52
889.425	99.82
889.59	88.6
889.756	94.05
889.921	80.89
890.086	87.82
890.251	94.17
890.416	32.64
890.581	12.32
890.746	-2.13
890.911	-27.51
891.076	-55.72
891.241	-70.17
891.406	-9.49
891.571	12.36
891.736	-10.07
891.901	26.6
892.065	22.97
892.23	37.86
892.395	19.48
892.56	25.79
892.725	24.17
892.889	31.37
893.054	-2.48
893.219	10.2
893.384	-24.65
893.548	-22.5
893.713	293.81
893.878	147.28
