Data from Ofra_PS_T2_1A_6EV18_Reflection_2.txt Node
Date: Wed Jul 21 18:09:51 EDT 2021
User: Adam
Spectrometer: FLMT01687
Trigger mode: 0
Integration Time (sec): 1.100000E0
Scans to average: 2
Electric dark correction enabled: true
Nonlinearity correction enabled: false
Boxcar width: 2
XAxis mode: Wavelengths
Number of Pixels in Spectrum: 3648
>>>>>Begin Spectral Data<<<<<
179.494	498.8
179.716	556.47
179.937	530.54
180.158	561.12
180.38	949.06
180.601	235.64
180.823	73.79
181.044	-77.96
181.265	-134.19
181.486	29.89
181.708	164.32
181.929	1060.2
182.15	-545.77
182.372	60.64
182.593	85.54
182.814	51.03
183.035	83.39
183.257	27.36
183.478	-100.32
183.699	-56.14
183.92	-53.63
184.141	-44.31
184.363	-83.77
184.584	-20.78
184.805	-1.59
185.026	14.21
185.247	9.12
185.468	-5.3
185.689	-15.83
185.91	-22.39
186.132	-13.83
186.353	-8.94
186.574	26.16
186.795	21.94
187.016	-21.83
187.237	-41.54
187.458	-97.76
187.679	-63.61
187.9	-33.64
188.121	-16.17
188.342	-11.01
188.563	21.86
188.784	46.35
189.005	52.05
189.226	116.2
189.447	130.27
189.667	162.86
189.888	-153.94
190.109	-892.86
190.33	-668.06
190.551	-1314.6
190.772	-300.12
190.993	-246.42
191.214	-180.24
191.434	-105.26
191.655	-7.42
191.876	-25.67
192.097	-50.44
192.318	-142.73
192.538	-268.48
192.759	-211.96
192.98	-78.62
193.201	-42.86
193.421	-5.97
193.642	19.44
193.863	22.61
194.083	-5.49
194.304	-17.13
194.525	-22.61
194.745	-67.98
194.966	-60.17
195.187	-55.44
195.407	-58.1
195.628	-121.94
195.848	-106.16
196.069	-107.03
196.29	-66.82
196.51	-83.82
196.731	-42.13
196.951	-50.85
197.172	-81.11
197.392	-121.38
197.613	-127.39
197.833	-167.3
198.054	-128.66
198.274	-65.64
198.495	-100.12
198.715	-55.92
198.936	-99.86
199.156	-93.73
199.377	-210.94
199.597	-159.56
199.817	-162.66
200.038	-67.35
200.258	-117.68
200.479	-22.59
200.699	-17.58
200.919	-6.25
201.14	-2.83
201.36	-6.96
201.58	-4.42
201.801	11.07
202.021	-17.31
202.241	-27.11
202.461	-22.59
202.682	-88.11
202.902	-122.14
203.122	-74.11
203.342	-64.68
203.563	-33.72
203.783	-16.68
204.003	-67.79
204.223	-57.3
204.443	3.44
204.663	-32.34
204.884	2.45
205.104	40.27
205.324	62.47
205.544	56.34
205.764	60.1
205.984	40.29
206.204	41.47
206.424	18
206.644	-24.93
206.864	-14.83
207.084	-93.55
207.304	-94.24
207.525	-174.53
207.745	-107.04
207.964	-28.99
208.184	-13.77
208.404	-59.29
208.624	-81.58
208.844	-75.29
209.064	-389.98
209.284	-414.38
209.504	-227.49
209.724	-58.88
209.944	-43
210.164	-3.12
210.384	-1.57
210.604	-4.13
210.823	-50.74
211.043	-54.52
211.263	-49.64
211.483	-54.11
211.703	-96.79
211.922	-73.19
212.142	-18.66
212.362	5.68
212.582	3.76
212.801	5.97
213.021	-15.22
213.241	-37.41
213.461	-78.46
213.68	-102.99
213.9	-74.43
214.12	-44.3
214.339	-101.59
214.559	-89.88
214.779	-27.84
214.998	-40.65
215.218	-113.51
215.438	-72.53
215.657	-77.96
215.877	-98.46
216.096	-40.82
216.316	-14.3
216.535	-26.52
216.755	-22.33
216.974	-121.99
217.194	-198.96
217.413	-194.14
217.633	-197.9
217.852	-301.25
218.072	-119.22
218.291	-68.5
218.511	-22.2
218.73	-13
218.95	-22.3
219.169	-30.19
219.389	-70.35
219.608	-52.72
219.827	-69.82
220.047	-57.94
220.266	-33.26
220.485	-16.81
220.705	-5.07
220.924	-18.42
221.143	21.44
221.363	-0.03
221.582	1.33
221.801	-15.7
222.021	-0.24
222.24	-71.72
222.459	-18.16
222.678	-27.1
222.897	-67.01
223.117	-111.5
223.336	-104.98
223.555	-89.77
223.774	-50.65
223.993	-43.38
224.213	22.52
224.432	-9.45
224.651	21.82
224.87	-6.65
225.089	19.91
225.308	-0.2
225.527	31.64
225.746	21.57
225.965	8.67
226.184	-31.44
226.404	10.81
226.623	-27.97
226.842	-18.28
227.061	8.33
227.28	19.49
227.499	-9.91
227.718	14.58
227.936	2.04
228.155	13.05
228.374	-5.28
228.593	8.27
228.812	16.75
229.031	10.83
229.25	-50.64
229.469	-51.57
229.688	-55.66
229.907	-41.17
230.125	-35.78
230.344	3.04
230.563	25.95
230.782	34.42
231.001	-39.24
231.22	-34.1
231.438	-12.71
231.657	-16.39
231.876	-30.43
232.095	15.86
232.313	13.59
232.532	-14.63
232.751	-53.98
232.969	-59.93
233.188	-117.28
233.407	-38.43
233.625	-36.04
233.844	-71.61
234.063	-69.14
234.281	-46.14
234.5	-60.15
234.719	-44.48
234.937	-13.68
235.156	-11.15
235.374	-10.07
235.593	-25.87
235.811	-21.26
236.03	-17.85
236.249	-53.01
236.467	-63.3
236.686	-16.51
236.904	-14.6
237.123	-46.21
237.341	-34.3
237.559	-20.99
237.778	-46.57
237.996	-76.78
238.215	-13.59
238.433	6.96
238.652	2.89
238.87	-14.27
239.088	3.78
239.307	-8.23
239.525	-24.08
239.743	-48.44
239.962	-48.66
240.18	-52.88
240.398	-84.77
240.617	-88.26
240.835	-68.04
241.053	-31.79
241.271	-13.62
241.49	14.32
241.708	-9.07
241.926	-24.33
242.144	-24.47
242.363	-78.06
242.581	-110.18
242.799	-46.03
243.017	-21.09
243.235	-36.74
243.453	-16.01
243.672	-24.47
243.89	-36.17
244.108	-42.74
244.326	-11.65
244.544	-3.09
244.762	-7.49
244.98	-5.6
245.198	-12.49
245.416	-52.44
245.634	-59.45
245.852	-76.36
246.07	-71.55
246.288	-57.6
246.506	-83.58
246.724	-73.7
246.942	-39.97
247.16	-19.92
247.378	-16.72
247.596	2.05
247.814	11.87
248.032	-8.99
248.25	-7.02
248.468	9.77
248.685	30.47
248.903	44.3
249.121	46.52
249.339	25.46
249.557	8.94
249.775	14.93
249.992	-59.69
250.21	-61.33
250.428	-44.61
250.646	-75.86
250.863	-104.13
251.081	-62.09
251.299	-49.7
251.517	-39.97
251.734	-24.54
251.952	-35.46
252.17	-26.21
252.387	-19.67
252.605	-34.65
252.823	-27.99
253.04	1.47
253.258	11.9
253.475	8.64
253.693	23.46
253.911	29.83
254.128	21.31
254.346	0.88
254.563	-26.1
254.781	-40.9
254.998	-84.46
255.216	-113.23
255.433	-78.3
255.651	-8.43
255.868	36.38
256.086	79.75
256.303	80.25
256.521	53.46
256.738	20.35
256.956	-12.49
257.173	-44.39
257.39	-44.03
257.608	-53.84
257.825	16.34
258.043	42.68
258.26	64.75
258.477	81.79
258.695	80.53
258.912	10.11
259.129	11.27
259.346	-36.37
259.564	-75.47
259.781	-99.28
259.998	-21.91
260.216	-3.02
260.433	41.11
260.65	44.74
260.867	53.86
261.084	15.69
261.302	1.31
261.519	-28.64
261.736	-56.57
261.953	-72.95
262.17	-37.29
262.387	-78.25
262.604	-95.22
262.822	-77.71
263.039	-72.01
263.256	-110.86
263.473	-64.35
263.69	-32.02
263.907	5.69
264.124	39.6
264.341	53.74
264.558	33.48
264.775	40.75
264.992	5.05
265.209	3.52
265.426	8.58
265.643	21.23
265.86	21.73
266.077	43.22
266.294	3.79
266.51	-35.75
266.727	-59.27
266.944	-56.51
267.161	-55.03
267.378	-39.19
267.595	-6.05
267.812	-23
268.028	-46.98
268.245	-25.39
268.462	-57.36
268.679	-61.19
268.896	4.12
269.112	13.18
269.329	7.71
269.546	29.25
269.763	22.73
269.979	4.87
270.196	-2.41
270.413	-36.87
270.629	-60.2
270.846	-82.06
271.063	-91.49
271.279	-116.57
271.496	-105.45
271.712	-67.43
271.929	-40.27
272.146	-56.21
272.362	-13.68
272.579	30.41
272.795	50.34
273.012	28.77
273.228	45.92
273.445	25.86
273.661	2.57
273.878	-54.79
274.094	-19.96
274.311	-56.51
274.527	0.93
274.744	-11.26
274.96	-8.79
275.177	-12.91
275.393	13.15
275.609	3.88
275.826	36.5
276.042	22.07
276.259	15.27
276.475	7.81
276.691	-10.22
276.908	-40.52
277.124	-19.97
277.34	-29.15
277.557	-35.29
277.773	-26.9
277.989	-19.94
278.205	-30.97
278.422	-10.33
278.638	6.96
278.854	23.27
279.07	19.47
279.286	30.94
279.503	0.62
279.719	-33.47
279.935	-65.72
280.151	-77.85
280.367	-50.7
280.583	-55.08
280.799	-27.51
281.016	-53.61
281.232	-19.66
281.448	-28.72
281.664	7.19
281.88	-17.33
282.096	2.01
282.312	20.97
282.528	47.78
282.744	32.46
282.96	17.44
283.176	13.38
283.392	4.86
283.608	-19.37
283.824	-24.38
284.04	-11.4
284.256	8.29
284.471	-7
284.687	-2.72
284.903	22.33
285.119	43.66
285.335	8.41
285.551	38.75
285.767	33.18
285.982	10.09
286.198	-33.4
286.414	22.81
286.63	19.62
286.846	33.23
287.061	8.5
287.277	28.9
287.493	0.99
287.709	14.49
287.924	-6.21
288.14	34.36
288.356	40.21
288.571	55.8
288.787	30.93
289.003	37.26
289.218	17.59
289.434	-6.7
289.65	-13.96
289.865	-31.22
290.081	-16.98
290.296	-5.62
290.512	-14.65
290.727	-41.19
290.943	-28.54
291.159	-37.29
291.374	-47.01
291.59	-63.99
291.805	-34.57
292.021	-35.85
292.236	-33.21
292.451	-14.19
292.667	-0.31
292.882	5.07
293.098	6.91
293.313	-10.95
293.529	-20.57
293.744	-45.38
293.959	-43.64
294.175	-40.21
294.39	-7.95
294.605	2.47
294.821	22.55
295.036	18.78
295.251	23.15
295.467	-7.13
295.682	-29.36
295.897	-69.75
296.112	-86.22
296.328	-71.81
296.543	-71.53
296.758	-59.8
296.973	-1.01
297.188	36.15
297.404	5.98
297.619	-0.03
297.834	-14.66
298.049	-22.18
298.264	-55.68
298.479	-1.98
298.694	0.67
298.909	19.52
299.125	10.96
299.34	22.92
299.555	-4.23
299.77	9.45
299.985	-22.15
300.2	-67.86
300.415	-91.66
300.63	-46.75
300.845	-53.83
301.06	-40.91
301.275	-4.52
301.49	7.54
301.704	-5.05
301.919	-15.3
302.134	-36.03
302.349	-51.48
302.564	-105.09
302.779	-169.13
302.994	-164.66
303.209	-118.66
303.423	-64.96
303.638	9.39
303.853	-22.01
304.068	-28.75
304.283	-18.05
304.497	-20.41
304.712	-36.66
304.927	-4.68
305.142	-12.27
305.356	-8.39
305.571	-18.81
305.786	-26.95
306	-65.38
306.215	-52.85
306.43	-74.57
306.644	-65.5
306.859	-41.2
307.074	-6.96
307.288	-41.48
307.503	-59.28
307.717	-59.08
307.932	-66.03
308.147	-83.44
308.361	-49.7
308.576	-50.22
308.79	-90.1
309.005	-74.05
309.219	-43.21
309.434	-64.48
309.648	-57.05
309.863	-27.4
310.077	-24.16
310.292	-29.42
310.506	-15.93
310.72	-6.48
310.935	-1.15
311.149	-1.63
311.364	22.2
311.578	21.9
311.792	14.57
312.007	20.31
312.221	1.68
312.435	-16.1
312.649	-28.43
312.864	-12.46
313.078	-12.46
313.292	45.33
313.507	27.95
313.721	50.41
313.935	14.9
314.149	1.69
314.363	-15.87
314.578	-23.55
314.792	-29.2
315.006	-35.44
315.22	-12.17
315.434	-9.69
315.648	1.4
315.862	2.3
316.077	5.68
316.291	-17.39
316.505	-25
316.719	-11.76
316.933	-12.52
317.147	-28.88
317.361	-85.98
317.575	-102.1
317.789	-144.72
318.003	-228.98
318.217	-183.37
318.431	-68.61
318.645	-17.1
318.859	-19.05
319.073	4.9
319.287	-1.35
319.5	-35.85
319.714	-81.32
319.928	-104.9
320.142	-134.22
320.356	-82.25
320.57	-27.6
320.784	-19.02
320.997	-18.79
321.211	12.12
321.425	-44.68
321.639	-95.4
321.853	-47.25
322.066	-22.24
322.28	-40.54
322.494	-30.97
322.707	-12.05
322.921	-22.56
323.135	-28.19
323.349	-3.32
323.562	-25.53
323.776	-26.93
323.989	-19.51
324.203	-20.24
324.417	-33.93
324.63	-41.4
324.844	-46.46
325.057	-60.12
325.271	-28.15
325.485	8.43
325.698	28.35
325.912	40.31
326.125	28.81
326.339	12.54
326.552	-28.82
326.766	-15.86
326.979	-6.42
327.193	30.99
327.406	12.44
327.619	11.77
327.833	11.74
328.046	-20.56
328.26	-62
328.473	-32.1
328.686	-59.35
328.9	-64.16
329.113	-37.46
329.326	-63.37
329.54	-55.69
329.753	-62.62
329.966	-86.51
330.179	-78.38
330.393	-39.43
330.606	-30.32
330.819	-4.2
331.032	23.23
331.246	20.71
331.459	45.98
331.672	35.6
331.885	20.7
332.098	-15.53
332.311	-28.38
332.525	-103.09
332.738	-87.96
332.951	-60.86
333.164	-16
333.377	-0.19
333.59	27.92
333.803	26.15
334.016	25.77
334.229	22.12
334.442	39.41
334.655	44.44
334.868	45.17
335.081	31.93
335.294	1.06
335.507	-18.4
335.72	-9.52
335.933	-16.59
336.146	-28.38
336.359	-11.64
336.572	-36.24
336.785	-80.84
336.997	-71.42
337.21	-32.15
337.423	-38.9
337.636	-33.26
337.849	-16.73
338.062	-29.86
338.274	-30.17
338.487	-35.51
338.7	-42.92
338.913	-71.46
339.125	-90.4
339.338	-149.76
339.551	-129.26
339.763	-84.27
339.976	-42.92
340.189	-9.82
340.402	12.12
340.614	5.5
340.827	5.09
341.039	-11.71
341.252	-18.02
341.465	-5.67
341.677	-14.17
341.89	-47.87
342.102	-21.57
342.315	-34.26
342.527	-92.09
342.74	-74.37
342.952	-26.97
343.165	-35.86
343.377	-12.13
343.59	-3.71
343.802	24.82
344.015	7.4
344.227	18.36
344.44	6.88
344.652	21.37
344.864	-8.15
345.077	13.45
345.289	14.39
345.502	10.52
345.714	-5.76
345.926	6.93
346.139	-8.29
346.351	-6.53
346.563	11.62
346.775	19.35
346.988	0.53
347.2	-10.93
347.412	-43.9
347.624	-54.47
347.837	-87.72
348.049	-71.59
348.261	-39.2
348.473	-31.71
348.685	-51.51
348.897	-30.76
349.11	-43.2
349.322	-64.83
349.534	-60.41
349.746	-32.88
349.958	-12.71
350.17	9.56
350.382	17.46
350.594	21.47
350.806	31.27
351.018	8.69
351.23	-23.23
351.442	-77.53
351.654	-105.52
351.866	-117.06
352.078	-76.05
352.29	-37.88
352.502	-1.54
352.714	17.02
352.926	14.41
353.138	2.71
353.35	-6.71
353.561	-12.97
353.773	-29.84
353.985	-25.65
354.197	-37.05
354.409	-28.99
354.621	-24.39
354.832	-14.8
355.044	-17.47
355.256	-6.92
355.468	5.01
355.679	-7.74
355.891	-1.76
356.103	-21.45
356.314	-14.25
356.526	-27.4
356.738	4.49
356.949	4.99
357.161	17.92
357.373	13.02
357.584	-1.59
357.796	-12.18
358.008	-28.32
358.219	-11.24
358.431	-24.83
358.642	-9.74
358.854	-10.87
359.065	-16.97
359.277	-42.47
359.488	-44.78
359.7	-66.87
359.911	-78.8
360.123	-41.1
360.334	-40.57
360.546	-39.53
360.757	-38.03
360.969	-27.11
361.18	-13.21
361.391	-1.96
361.603	-16.02
361.814	4.19
362.025	7.01
362.237	-6.68
362.448	-1.74
362.659	6.44
362.871	-6.06
363.082	-17.27
363.293	-18.82
363.504	-27.14
363.716	-43.29
363.927	-48.11
364.138	-64.13
364.349	-73.61
364.56	-70.22
364.772	-49.49
364.983	-26.99
365.194	-21.98
365.405	-14.73
365.616	1.28
365.827	-7.18
366.038	-35.88
366.25	-34.19
366.461	-60.48
366.672	-42.71
366.883	-17.85
367.094	-4.17
367.305	-10.06
367.516	3.69
367.727	-21.65
367.938	-40.13
368.149	-42.17
368.36	-22.84
368.571	-20.68
368.781	-37.03
368.992	-46.49
369.203	-66.32
369.414	-103.77
369.625	-114.79
369.836	-92.03
370.047	-110.01
370.258	-80.37
370.468	-64.49
370.679	-79.5
370.89	-79
371.101	-49.29
371.312	-50.4
371.522	-41.42
371.733	-18.25
371.944	4
372.155	1.31
372.365	-18.53
372.576	-26.45
372.787	-36.61
372.997	-74.72
373.208	-58.46
373.419	-23.7
373.629	-45.2
373.84	-51.34
374.05	-55.31
374.261	-72.03
374.472	-81.53
374.682	-25.17
374.893	-19.45
375.103	20.95
375.314	19.53
375.524	16.3
375.735	12.19
375.945	16.95
376.156	-14.19
376.366	-5.63
376.577	-1.5
376.787	-12.68
376.997	-16
377.208	-11.57
377.418	-19.9
377.629	-14.33
377.839	-20.63
378.049	-18.52
378.26	0.93
378.47	8.61
378.68	-1.34
378.89	-2.22
379.101	-2.25
379.311	-36.6
379.521	-71.26
379.732	-71.36
379.942	-77.98
380.152	-98.28
380.362	-58.27
380.572	-39.48
380.783	-31.51
380.993	-10.97
381.203	6.86
381.413	20.14
381.623	22.94
381.833	23.28
382.043	12.72
382.253	4.26
382.463	-5.93
382.674	-23.02
382.884	-41.15
383.094	-37.74
383.304	-33.5
383.514	-30.57
383.724	-12.01
383.934	-11.49
384.144	-22.21
384.353	-22.77
384.563	-19.19
384.773	-19.83
384.983	-27.67
385.193	-8.36
385.403	-4.78
385.613	-5.1
385.823	-18.56
386.033	-7.41
386.242	-12.34
386.452	-19.85
386.662	-34.93
386.872	-20.43
387.082	-25.82
387.291	-33.45
387.501	-34.64
387.711	-16.46
387.921	-22.99
388.13	-19.2
388.34	-3.19
388.55	-6.9
388.759	-12
388.969	-3.5
389.179	-9.51
389.388	-16.25
389.598	-8
389.807	-14.08
390.017	-17.44
390.227	-11.65
390.436	-13.92
390.646	-14.67
390.855	-7.39
391.065	-7.5
391.274	-9.43
391.484	-14.02
391.693	-10.04
391.903	-8.93
392.112	-4.74
392.322	-2.5
392.531	4.57
392.74	2.55
392.95	-2.7
393.159	-6.64
393.369	-6.55
393.578	-6.61
393.787	-7.53
393.997	-5.31
394.206	-5.68
394.415	-5.75
394.625	-6.34
394.834	-5.36
395.043	-4.41
395.252	-1.38
395.462	0.85
395.671	1.87
395.88	2.22
396.089	2.83
396.298	1.88
396.508	0.81
396.717	0.7
396.926	0.46
397.135	0.06
397.344	-1.27
397.553	0.32
397.762	1.55
397.971	1.66
398.181	2.46
398.39	2.85
398.599	1.96
398.808	1.34
399.017	2.05
399.226	2.92
399.435	4.09
399.644	4.25
399.853	3.15
400.062	2.32
400.27	1.75
400.479	1.26
400.688	0.53
400.897	1.2
401.106	1.5
401.315	1.11
401.524	1.28
401.733	1.79
401.941	2.52
402.15	2.62
402.359	2.67
402.568	2.74
402.777	2.82
402.985	2.15
403.194	2.06
403.403	2.2
403.612	1.8
403.82	1.65
404.029	2
404.238	1.87
404.446	2.04
404.655	1.85
404.864	1.8
405.072	1.5
405.281	1.93
405.489	1.67
405.698	1.89
405.906	1.98
406.115	1.93
406.324	1.61
406.532	1.74
406.741	2.11
406.949	2.15
407.158	2.21
407.366	2.43
407.574	2.32
407.783	2.18
407.991	1.96
408.2	2.16
408.408	1.99
408.617	1.97
408.825	1.81
409.033	2.03
409.242	2.01
409.45	2.11
409.658	1.98
409.867	2.16
410.075	1.96
410.283	1.85
410.491	1.77
410.7	1.8
410.908	1.74
411.116	2.09
411.324	2.06
411.533	2.03
411.741	2.28
411.949	2.27
412.157	1.96
412.365	1.99
412.573	2.1
412.781	2.1
412.99	1.91
413.198	2.12
413.406	2.13
413.614	2.11
413.822	1.96
414.03	2.01
414.238	1.62
414.446	1.78
414.654	1.51
414.862	1.64
415.07	1.77
415.278	2.16
415.486	1.76
415.694	1.9
415.902	1.67
416.109	1.55
416.317	1.5
416.525	1.47
416.733	1.59
416.941	1.75
417.149	1.72
417.357	1.71
417.564	1.91
417.772	2
417.98	2.05
418.188	2.05
418.395	2.04
418.603	2.17
418.811	1.79
419.019	1.52
419.226	1.76
419.434	1.9
419.642	1.64
419.849	1.87
420.057	2
420.265	1.87
420.472	1.49
420.68	1.58
420.887	1.53
421.095	1.56
421.302	1.52
421.51	1.84
421.717	2.03
421.925	2.16
422.132	2.01
422.34	1.82
422.547	1.89
422.755	1.65
422.962	1.5
423.17	1.51
423.377	1.68
423.585	1.5
423.792	1.55
423.999	1.51
424.207	1.45
424.414	1.56
424.621	1.61
424.829	1.65
425.036	1.76
425.243	1.92
425.451	1.78
425.658	1.58
425.865	1.7
426.072	1.69
426.28	1.92
426.487	1.81
426.694	1.88
426.901	1.59
427.108	1.59
427.315	1.37
427.523	1.72
427.73	1.72
427.937	1.8
428.144	1.66
428.351	1.59
428.558	1.67
428.765	1.53
428.972	1.53
429.179	1.62
429.386	1.87
429.593	1.51
429.8	1.53
430.007	1.58
430.214	1.68
430.421	1.48
430.628	1.38
430.835	1.3
431.042	1.41
431.249	1.37
431.456	1.33
431.662	1.51
431.869	1.79
432.076	1.83
432.283	1.89
432.49	1.82
432.697	1.84
432.903	1.49
433.11	1.36
433.317	1.36
433.524	1.61
433.73	1.5
433.937	1.79
434.144	1.7
434.35	1.73
434.557	1.56
434.764	1.62
434.97	1.51
435.177	1.74
435.384	1.68
435.59	1.8
435.797	2.02
436.003	2.12
436.21	2.02
436.416	2.02
436.623	1.95
436.829	1.96
437.036	2.01
437.242	2.01
437.449	1.93
437.655	1.97
437.862	1.92
438.068	1.75
438.275	1.9
438.481	2.17
438.687	2.08
438.894	2.03
439.1	2.17
439.307	2.27
439.513	2.05
439.719	2.07
439.926	2.24
440.132	2.13
440.338	1.93
440.544	2.13
440.751	2.09
440.957	2.05
441.163	2.02
441.369	2.11
441.575	1.87
441.782	1.86
441.988	1.64
442.194	1.76
442.4	1.68
442.606	2.04
442.812	2.12
443.018	2.27
443.224	2.28
443.431	2.32
443.637	2.02
443.843	2.02
444.049	1.96
444.255	1.86
444.461	1.93
444.667	1.89
444.873	1.96
445.079	2.02
445.284	2.12
445.49	1.92
445.696	1.84
445.902	1.68
446.108	1.63
446.314	1.64
446.52	1.72
446.726	2.03
446.931	2.2
447.137	2.21
447.343	2.17
447.549	2.13
447.755	1.96
447.96	1.94
448.166	1.94
448.372	1.92
448.578	1.98
448.783	1.96
448.989	2.02
449.195	2.12
449.4	2.18
449.606	2.22
449.812	2.16
450.017	2.1
450.223	2.01
450.428	1.82
450.634	1.87
450.84	2.04
451.045	2.02
451.251	1.93
451.456	2.3
451.662	2.38
451.867	2.33
452.073	2.3
452.278	2.45
452.483	2.48
452.689	2.33
452.894	2.39
453.1	2.4
453.305	2.33
453.51	2.08
453.716	2.07
453.921	2.04
454.127	1.98
454.332	1.95
454.537	1.94
454.742	1.94
454.948	1.87
455.153	2.04
455.358	2.09
455.563	2.23
455.769	2.38
455.974	2.43
456.179	2.27
456.384	2.26
456.589	2.18
456.795	2
457	1.97
457.205	2.23
457.41	2.22
457.615	2.14
457.82	2.24
458.025	2.3
458.23	2.1
458.435	2.09
458.64	2.11
458.845	2.16
459.05	2.07
459.255	2.04
459.46	2.1
459.665	2.12
459.87	2.12
460.075	2.22
460.28	2.34
460.485	2.42
460.69	2.48
460.895	2.33
461.099	2.23
461.304	2.16
461.509	2.1
461.714	2.01
461.919	2.11
462.123	2.06
462.328	2.2
462.533	2.08
462.738	2.18
462.942	2.12
463.147	2.22
463.352	2.11
463.556	2.25
463.761	2.27
463.966	2.28
464.17	2.21
464.375	2.24
464.58	2.15
464.784	1.97
464.989	1.97
465.193	2.04
465.398	1.99
465.602	2.1
465.807	2.14
466.011	2.19
466.216	2.19
466.42	2.27
466.625	2.34
466.829	2.49
467.034	2.53
467.238	2.63
467.443	2.6
467.647	2.45
467.851	2.55
468.056	2.54
468.26	2.51
468.464	2.56
468.669	2.66
468.873	2.71
469.077	2.76
469.282	2.79
469.486	2.8
469.69	2.81
469.894	2.58
470.099	2.56
470.303	2.56
470.507	2.47
470.711	2.33
470.915	2.4
471.119	2.32
471.324	2.23
471.528	2.29
471.732	2.4
471.936	2.32
472.14	2.41
472.344	2.56
472.548	2.54
472.752	2.71
472.956	2.97
473.16	2.93
473.364	2.8
473.568	2.82
473.772	2.76
473.976	2.65
474.18	2.62
474.384	2.71
474.588	2.71
474.792	2.58
474.995	2.59
475.199	2.69
475.403	2.71
475.607	2.79
475.811	2.8
476.015	2.79
476.218	2.83
476.422	2.79
476.626	2.85
476.83	2.99
477.033	3.01
477.237	2.91
477.441	2.96
477.644	2.93
477.848	2.88
478.052	2.87
478.255	2.9
478.459	2.93
478.663	2.99
478.866	3.01
479.07	2.98
479.273	3.13
479.477	3.18
479.681	3.13
479.884	3.07
480.088	3.12
480.291	2.98
480.495	3.01
480.698	3.01
480.901	3.09
481.105	3.19
481.308	3.19
481.512	3.13
481.715	3.15
481.919	3.22
482.122	3.2
482.325	3.25
482.529	3.28
482.732	3.32
482.935	3.21
483.138	3.08
483.342	3.15
483.545	3.23
483.748	3.27
483.952	3.32
484.155	3.53
484.358	3.53
484.561	3.51
484.764	3.45
484.967	3.55
485.171	3.58
485.374	3.52
485.577	3.59
485.78	3.63
485.983	3.61
486.186	3.49
486.389	3.5
486.592	3.45
486.795	3.48
486.998	3.45
487.201	3.5
487.404	3.61
487.607	3.65
487.81	3.63
488.013	3.67
488.216	3.65
488.419	3.62
488.622	3.55
488.825	3.5
489.028	3.41
489.231	3.39
489.433	3.31
489.636	3.29
489.839	3.31
490.042	3.32
490.245	3.32
490.447	3.38
490.65	3.38
490.853	3.38
491.056	3.48
491.258	3.48
491.461	3.57
491.664	3.64
491.866	3.6
492.069	3.65
492.272	3.62
492.474	3.59
492.677	3.59
492.879	3.67
493.082	3.68
493.285	3.8
493.487	3.74
493.69	3.73
493.892	3.66
494.095	3.65
494.297	3.66
494.5	3.72
494.702	3.74
494.905	3.8
495.107	3.72
495.309	3.67
495.512	3.64
495.714	3.7
495.917	3.74
496.119	3.77
496.321	3.85
496.524	3.89
496.726	3.86
496.928	3.87
497.13	3.85
497.333	3.85
497.535	3.89
497.737	3.91
497.939	3.9
498.142	4
498.344	3.92
498.546	3.8
498.748	3.83
498.95	3.93
499.152	3.92
499.355	4.01
499.557	4.15
499.759	4.21
499.961	4.15
500.163	4.19
500.365	4.22
500.567	4.28
500.769	4.22
500.971	4.29
501.173	4.21
501.375	4.24
501.577	4.18
501.779	4.19
501.981	4.23
502.183	4.34
502.385	4.29
502.587	4.27
502.788	4.36
502.99	4.34
503.192	4.33
503.394	4.38
503.596	4.45
503.798	4.44
503.999	4.52
504.201	4.56
504.403	4.61
504.605	4.61
504.806	4.59
505.008	4.58
505.21	4.67
505.411	4.64
505.613	4.65
505.815	4.71
506.016	4.77
506.218	4.79
506.42	4.81
506.621	4.88
506.823	4.93
507.024	4.82
507.226	4.79
507.427	4.8
507.629	4.78
507.83	4.78
508.032	4.89
508.233	4.97
508.435	5.03
508.636	5.15
508.838	5.13
509.039	5.11
509.24	5.12
509.442	5.19
509.643	5.13
509.845	5.14
510.046	5.26
510.247	5.32
510.448	5.3
510.65	5.35
510.851	5.52
511.052	5.5
511.254	5.45
511.455	5.53
511.656	5.54
511.857	5.56
512.058	5.56
512.26	5.56
512.461	5.52
512.662	5.56
512.863	5.48
513.064	5.48
513.265	5.55
513.466	5.59
513.667	5.59
513.868	5.65
514.069	5.74
514.27	5.74
514.471	5.69
514.672	5.68
514.873	5.67
515.074	5.69
515.275	5.62
515.476	5.69
515.677	5.75
515.878	5.85
516.079	5.81
516.28	5.91
516.481	6.02
516.682	6.03
516.882	5.94
517.083	5.95
517.284	5.89
517.485	5.82
517.686	5.81
517.886	5.83
518.087	5.83
518.288	5.89
518.488	5.88
518.689	5.86
518.89	5.8
519.091	5.84
519.291	5.83
519.492	5.88
519.692	5.91
519.893	6.03
520.094	6.05
520.294	6.03
520.495	6.05
520.695	6.07
520.896	6.07
521.096	6.11
521.297	6.17
521.497	6.14
521.698	6.11
521.898	6.06
522.099	6.04
522.299	6.11
522.499	6.12
522.7	6.14
522.9	6.14
523.101	6.22
523.301	6.16
523.501	6.15
523.702	6.18
523.902	6.26
524.102	6.29
524.302	6.28
524.503	6.39
524.703	6.38
524.903	6.41
525.103	6.34
525.304	6.4
525.504	6.4
525.704	6.46
525.904	6.41
526.104	6.41
526.304	6.41
526.504	6.39
526.705	6.39
526.905	6.49
527.105	6.5
527.305	6.5
527.505	6.4
527.705	6.35
527.905	6.32
528.105	6.36
528.305	6.32
528.505	6.46
528.705	6.58
528.905	6.56
529.105	6.6
529.304	6.74
529.504	6.81
529.704	6.76
529.904	6.79
530.104	6.77
530.304	6.72
530.503	6.64
530.703	6.6
530.903	6.61
531.103	6.65
531.303	6.65
531.502	6.66
531.702	6.78
531.902	6.8
532.101	6.79
532.301	6.76
532.501	6.79
532.7	6.71
532.9	6.7
533.1	6.75
533.299	6.84
533.499	6.93
533.698	6.94
533.898	6.95
534.097	6.93
534.297	6.97
534.496	6.89
534.696	6.95
534.895	7.08
535.095	7.22
535.294	7.18
535.494	7.15
535.693	7.12
535.892	7.14
536.092	6.99
536.291	7.04
536.491	7.16
536.69	7.22
536.889	7.17
537.088	7.22
537.288	7.25
537.487	7.29
537.686	7.33
537.886	7.37
538.085	7.41
538.284	7.49
538.483	7.45
538.682	7.49
538.882	7.51
539.081	7.6
539.28	7.5
539.479	7.48
539.678	7.47
539.877	7.55
540.076	7.51
540.275	7.55
540.474	7.65
540.673	7.66
540.872	7.64
541.071	7.73
541.27	7.77
541.469	7.78
541.668	7.87
541.867	7.88
542.066	7.92
542.265	8.02
542.464	8.05
542.663	8.02
542.862	8.14
543.06	8.21
543.259	8.27
543.458	8.31
543.657	8.44
543.856	8.46
544.054	8.41
544.253	8.36
544.452	8.38
544.651	8.43
544.849	8.43
545.048	8.52
545.247	8.56
545.445	8.63
545.644	8.61
545.843	8.61
546.041	8.65
546.24	8.77
546.438	8.87
546.637	8.92
546.836	9.06
547.034	9.15
547.233	9.18
547.431	9.15
547.63	9.22
547.828	9.22
548.027	9.2
548.225	9.2
548.423	9.23
548.622	9.35
548.82	9.38
549.019	9.46
549.217	9.6
549.415	9.68
549.614	9.71
549.812	9.76
550.01	9.81
550.209	9.81
550.407	9.9
550.605	9.9
550.803	10.06
551.002	10.17
551.2	10.25
551.398	10.37
551.596	10.56
551.794	10.62
551.993	10.68
552.191	10.78
552.389	10.88
552.587	10.87
552.785	10.92
552.983	10.98
553.181	11.08
553.379	11.14
553.577	11.22
553.775	11.33
553.973	11.42
554.171	11.54
554.369	11.5
554.567	11.57
554.765	11.63
554.963	11.75
555.161	11.67
555.359	11.84
555.557	11.98
555.755	12.05
555.952	12.13
556.15	12.3
556.348	12.46
556.546	12.55
556.744	12.61
556.941	12.67
557.139	12.78
557.337	12.79
557.535	12.83
557.732	12.93
557.93	13.08
558.128	13.21
558.325	13.38
558.523	13.46
558.721	13.6
558.918	13.64
559.116	13.69
559.313	13.7
559.511	13.84
559.708	13.84
559.906	13.92
560.104	13.98
560.301	14.18
560.498	14.24
560.696	14.36
560.893	14.46
561.091	14.65
561.288	14.7
561.486	14.82
561.683	15
561.88	15.14
562.078	15.2
562.275	15.22
562.473	15.32
562.67	15.41
562.867	15.51
563.064	15.58
563.262	15.7
563.459	15.75
563.656	15.92
563.853	16.02
564.051	16.18
564.248	16.31
564.445	16.46
564.642	16.51
564.839	16.66
565.036	16.81
565.234	16.98
565.431	17.09
565.628	17.22
565.825	17.42
566.022	17.53
566.219	17.55
566.416	17.64
566.613	17.73
566.81	17.72
567.007	17.73
567.204	17.82
567.401	17.95
567.598	18.1
567.795	18.13
567.991	18.18
568.188	18.29
568.385	18.34
568.582	18.38
568.779	18.47
568.976	18.59
569.172	18.71
569.369	18.75
569.566	18.73
569.763	18.86
569.96	18.83
570.156	18.81
570.353	18.83
570.55	18.98
570.746	18.97
570.943	19.12
571.14	19.14
571.336	19.27
571.533	19.28
571.729	19.3
571.926	19.35
572.123	19.47
572.319	19.55
572.516	19.6
572.712	19.75
572.909	19.83
573.105	19.89
573.302	19.87
573.498	19.94
573.695	19.91
573.891	19.94
574.087	19.98
574.284	20.04
574.48	19.99
574.677	20.05
574.873	20
575.069	20.02
575.266	20.04
575.462	20.02
575.658	20.14
575.854	20.3
576.051	20.35
576.247	20.35
576.443	20.47
576.639	20.33
576.835	20.19
577.032	20.16
577.228	20.3
577.424	20.38
577.62	20.44
577.816	20.61
578.012	20.62
578.208	20.51
578.404	20.52
578.6	20.51
578.796	20.44
578.993	20.51
579.189	20.53
579.384	20.43
579.58	20.34
579.776	20.39
579.972	20.32
580.168	20.26
580.364	20.31
580.56	20.34
580.756	20.27
580.952	20.24
581.148	20.31
581.343	20.27
581.539	20.37
581.735	20.44
581.931	20.5
582.127	20.54
582.322	20.55
582.518	20.51
582.714	20.44
582.909	20.41
583.105	20.28
583.301	20.2
583.496	20.23
583.692	20.15
583.888	20.14
584.083	20.24
584.279	20.31
584.474	20.29
584.67	20.34
584.866	20.32
585.061	20.11
585.257	20.12
585.452	20.1
585.648	20.15
585.843	20.16
586.039	20.25
586.234	20.21
586.429	20.19
586.625	20.27
586.82	20.24
587.015	20.24
587.211	20.15
587.406	20.21
587.601	20.06
587.797	20.03
587.992	20.08
588.187	20.24
588.383	20.19
588.578	20.25
588.773	20.29
588.968	20.23
589.163	20.28
589.359	20.31
589.554	20.32
589.749	20.42
589.944	20.64
590.139	20.61
590.334	20.66
590.529	20.73
590.724	20.71
590.919	20.68
591.114	20.68
591.309	20.75
591.504	20.78
591.699	20.71
591.894	20.76
592.089	20.71
592.284	20.64
592.479	20.72
592.674	20.8
592.869	20.83
593.064	20.99
593.259	21.2
593.454	21.26
593.648	21.31
593.843	21.31
594.038	21.24
594.233	21.13
594.428	21.02
594.622	21.18
594.817	21.36
595.012	21.49
595.206	21.58
595.401	21.72
595.596	21.72
595.79	21.82
595.985	21.92
596.18	22.07
596.374	22.25
596.569	22.33
596.763	22.28
596.958	22.39
597.153	22.36
597.347	22.25
597.542	22.37
597.736	22.39
597.931	22.39
598.125	22.48
598.319	22.68
598.514	22.71
598.708	22.89
598.903	22.91
599.097	22.98
599.291	22.95
599.486	22.94
599.68	22.93
599.874	23.07
600.069	23.1
600.263	23.14
600.457	23.26
600.651	23.3
600.846	23.34
601.04	23.39
601.234	23.42
601.428	23.46
601.622	23.59
601.817	23.58
602.011	23.71
602.205	23.89
602.399	23.83
602.593	23.75
602.787	23.85
602.981	23.81
603.175	23.77
603.369	23.78
603.563	23.85
603.757	23.85
603.951	23.83
604.145	23.81
604.339	23.84
604.533	23.68
604.727	23.59
604.921	23.55
605.115	23.52
605.309	23.55
605.502	23.67
605.696	23.72
605.89	23.67
606.084	23.63
606.278	23.53
606.471	23.37
606.665	23.25
606.859	23.13
607.053	23.07
607.246	23.03
607.44	23.08
607.634	23.03
607.827	23.12
608.021	23.04
608.214	22.96
608.408	22.81
608.602	22.77
608.795	22.63
608.989	22.55
609.182	22.54
609.376	22.58
609.569	22.49
609.763	22.5
609.956	22.38
610.15	22.23
610.343	22.17
610.537	22.04
610.73	21.9
610.923	21.95
611.117	21.95
611.31	21.79
611.504	21.79
611.697	21.79
611.89	21.67
612.083	21.64
612.277	21.63
612.47	21.6
612.663	21.48
612.856	21.44
613.05	21.36
613.243	21.28
613.436	21.13
613.629	21.05
613.822	20.91
614.015	20.83
614.209	20.68
614.402	20.67
614.595	20.7
614.788	20.67
614.981	20.53
615.174	20.49
615.367	20.37
615.56	20.16
615.753	20.09
615.946	20.02
616.139	20
616.332	20.05
616.525	20.03
616.718	20.06
616.911	19.98
617.103	19.93
617.296	19.85
617.489	19.81
617.682	19.67
617.875	19.76
618.067	19.76
618.26	19.61
618.453	19.68
618.646	19.63
618.838	19.45
619.031	19.44
619.224	19.47
619.417	19.34
619.609	19.41
619.802	19.47
619.994	19.45
620.187	19.47
620.38	19.39
620.572	19.3
620.765	19.24
620.957	19.06
621.15	18.9
621.342	18.82
621.535	18.81
621.727	18.77
621.92	18.8
622.112	18.75
622.305	18.85
622.497	18.83
622.69	18.83
622.882	18.8
623.074	18.88
623.267	18.78
623.459	18.61
623.651	18.52
623.844	18.47
624.036	18.46
624.228	18.43
624.42	18.49
624.613	18.59
624.805	18.58
624.997	18.55
625.189	18.6
625.381	18.65
625.574	18.52
625.766	18.49
625.958	18.46
626.15	18.43
626.342	18.28
626.534	18.35
626.726	18.35
626.918	18.34
627.11	18.26
627.302	18.3
627.494	18.19
627.686	18.18
627.878	18.1
628.07	18.08
628.262	17.98
628.454	17.99
628.646	17.94
628.838	17.9
629.029	17.82
629.221	17.87
629.413	17.74
629.605	17.61
629.797	17.55
629.989	17.6
630.18	17.54
630.372	17.52
630.564	17.57
630.755	17.63
630.947	17.61
631.139	17.43
631.33	17.35
631.522	17.45
631.714	17.43
631.905	17.41
632.097	17.48
632.289	17.53
632.48	17.34
632.672	17.26
632.863	17.07
633.055	17.03
633.246	17.01
633.438	16.94
633.629	16.9
633.821	17
634.012	16.97
634.203	16.87
634.395	16.92
634.586	16.97
634.777	16.89
634.969	16.91
635.16	17.05
635.351	16.98
635.543	16.96
635.734	16.95
635.925	16.99
636.117	17.02
636.308	17.06
636.499	16.96
636.69	16.92
636.881	16.8
637.073	16.84
637.264	16.84
637.455	16.92
637.646	17.06
637.837	17.11
638.028	16.87
638.219	16.95
638.41	16.83
638.601	16.7
638.792	16.81
638.983	16.8
639.174	16.66
639.365	16.7
639.556	16.7
639.747	16.55
639.938	16.63
640.129	16.67
640.32	16.62
640.511	16.63
640.701	16.71
640.892	16.58
641.083	16.61
641.274	16.71
641.465	16.7
641.655	16.64
641.846	16.63
642.037	16.49
642.228	16.34
642.418	16.39
642.609	16.35
642.8	16.44
642.99	16.41
643.181	16.48
643.372	16.39
643.562	16.26
643.753	16.11
643.943	16.05
644.134	15.84
644.324	15.89
644.515	15.9
644.705	15.98
644.896	15.98
645.086	16.08
645.277	15.92
645.467	16.1
645.658	16.08
645.848	16.12
646.038	16.13
646.229	16.17
646.419	15.97
646.61	15.86
646.8	15.81
646.99	15.7
647.18	15.66
647.371	15.68
647.561	15.66
647.751	15.68
647.941	15.68
648.132	15.66
648.322	15.52
648.512	15.57
648.702	15.55
648.892	15.59
649.082	15.56
649.272	15.55
649.462	15.43
649.653	15.29
649.843	15.2
650.033	15.23
650.223	15.16
650.413	15.13
650.603	15.21
650.793	15.22
650.983	15.13
651.172	15.14
651.362	15.21
651.552	15.06
651.742	14.93
651.932	14.83
652.122	14.79
652.312	14.78
652.502	14.82
652.691	14.82
652.881	14.75
653.071	14.81
653.261	14.63
653.45	14.47
653.64	14.42
653.83	14.31
654.019	14.12
654.209	14.06
654.399	14.01
654.588	13.95
654.778	13.86
654.968	13.71
655.157	13.67
655.347	13.54
655.536	13.35
655.726	13.19
655.915	13.15
656.105	12.97
656.294	12.9
656.484	12.73
656.673	12.63
656.863	12.49
657.052	12.3
657.241	12.06
657.431	11.96
657.62	11.79
657.809	11.42
657.999	11.22
658.188	11.12
658.377	10.88
658.567	10.81
658.756	10.73
658.945	10.59
659.134	10.36
659.324	10.2
659.513	9.99
659.702	9.88
659.891	9.77
660.08	9.64
660.269	9.62
660.458	9.46
660.648	9.27
660.837	9.14
661.026	9.04
661.215	8.84
661.404	8.7
661.593	8.71
661.782	8.49
661.971	8.33
662.16	8.16
662.349	8.11
662.538	7.89
662.726	7.82
662.915	7.62
663.104	7.46
663.293	7.37
663.482	7.35
663.671	7.18
663.86	7.12
664.048	7.07
664.237	6.99
664.426	6.79
664.615	6.73
664.803	6.69
664.992	6.59
665.181	6.45
665.369	6.35
665.558	6.3
665.747	6.13
665.935	6.2
666.124	6.17
666.312	6.19
666.501	6.18
666.69	6.16
666.878	6.03
667.067	5.89
667.255	5.94
667.444	6.13
667.632	6.2
667.82	6.32
668.009	6.35
668.197	6.2
668.386	6.04
668.574	6.03
668.762	5.83
668.951	5.77
669.139	5.8
669.327	5.73
669.516	5.84
669.704	5.87
669.892	6.02
670.08	6.03
670.269	5.91
670.457	5.82
670.645	5.65
670.833	5.74
671.021	5.75
671.21	5.84
671.398	5.99
671.586	6.2
671.774	6.02
671.962	6.04
672.15	6.12
672.338	5.96
672.526	5.94
672.714	5.86
672.902	5.89
673.09	6.07
673.278	6.22
673.466	6.31
673.654	6.65
673.842	6.69
674.03	6.62
674.218	6.49
674.405	6.55
674.593	6.38
674.781	6.5
674.969	6.51
675.157	6.74
675.344	6.93
675.532	7.05
675.72	7.17
675.908	7.3
676.095	7.14
676.283	7.13
676.471	7.31
676.658	7.35
676.846	7.35
677.033	7.64
677.221	7.65
677.409	7.6
677.596	7.52
677.784	7.63
677.971	7.66
678.159	7.77
678.346	7.88
678.534	8.16
678.721	8.26
678.909	8.18
679.096	8.28
679.283	8.43
679.471	8.43
679.658	8.54
679.846	8.83
680.033	9.09
680.22	9.12
680.408	9.14
680.595	9.22
680.782	9.17
680.969	9.21
681.157	9.23
681.344	9.42
681.531	9.48
681.718	9.65
681.905	9.72
682.093	10
682.28	10.25
682.467	10.53
682.654	10.7
682.841	10.87
683.028	11.04
683.215	11.15
683.402	11.12
683.589	11.3
683.776	11.44
683.963	11.54
684.15	11.79
684.337	12.07
684.524	12.32
684.711	12.59
684.898	12.75
685.085	12.89
685.271	13.25
685.458	13.41
685.645	13.6
685.832	14.02
686.019	14.28
686.205	14.51
686.392	14.83
686.579	15.09
686.766	15.41
686.952	15.78
687.139	16.19
687.326	16.42
687.512	16.85
687.699	17.23
687.886	17.46
688.072	17.7
688.259	18.21
688.445	18.77
688.632	19.03
688.818	19.79
689.005	20.03
689.191	20.54
689.378	21
689.564	21.69
689.751	22.02
689.937	22.71
690.124	23.1
690.31	23.38
690.496	23.84
690.683	24.33
690.869	24.91
691.055	25.46
691.242	26.44
691.428	27.07
691.614	27.55
691.8	28.27
691.987	29.13
692.173	29.48
692.359	30.12
692.545	30.86
692.731	31.36
692.918	31.92
693.104	32.51
693.29	33.09
693.476	33.67
693.662	34.33
693.848	34.94
694.034	35.43
694.22	35.86
694.406	36.7
694.592	37.4
694.778	37.92
694.964	38.76
695.15	39.47
695.336	39.85
695.522	40.66
695.708	41.28
695.894	41.75
696.08	42.71
696.265	43.25
696.451	43.65
696.637	44.49
696.823	44.89
697.009	45.16
697.194	45.73
697.38	46.11
697.566	46.3
697.751	47.07
697.937	47.76
698.123	48.32
698.308	49.07
698.494	49.79
698.68	50.4
698.865	50.9
699.051	51.57
699.236	52.04
699.422	52.34
699.607	52.6
699.793	52.79
699.978	53.22
700.164	53.32
700.349	53.89
700.535	54.25
700.72	54.81
700.906	55.47
701.091	56.02
701.276	56.42
701.462	57.28
701.647	58.06
701.832	58.1
702.018	58.62
702.203	59.15
702.388	59.18
702.573	59.32
702.759	60.15
702.944	60.38
703.129	60.5
703.314	60.79
703.499	60.98
703.684	60.89
703.87	62.01
704.055	62.59
704.24	63
704.425	63.6
704.61	63.98
704.795	63.34
704.98	63.57
705.165	63.62
705.35	63.54
705.535	63.86
705.72	64.28
705.905	64.72
706.09	65.05
706.275	65.18
706.459	65.18
706.644	65.57
706.829	65.45
707.014	65.73
707.199	66.14
707.384	66.36
707.568	66.55
707.753	67.17
707.938	67.53
708.123	67.42
708.307	67.63
708.492	67.75
708.677	67.76
708.861	67.58
709.046	67.5
709.231	68.32
709.415	68.71
709.6	68.57
709.784	68.82
709.969	69.36
710.153	68.84
710.338	68.69
710.522	69
710.707	69.42
710.891	69.47
711.076	69.61
711.26	69.79
711.445	70.15
711.629	69.99
711.813	70.38
711.998	70.78
712.182	70.58
712.366	70.87
712.551	71.92
712.735	72.19
712.919	72.24
713.103	72.9
713.288	72.49
713.472	71.49
713.656	71.61
713.84	71.6
714.024	71.78
714.208	71.93
714.393	72.68
714.577	72.64
714.761	73.03
714.945	72.8
715.129	72.89
715.313	72.99
715.497	73.06
715.681	73.48
715.865	73.52
716.049	73.6
716.233	73.54
716.417	73.59
716.601	73.05
716.785	73.23
716.968	73.46
717.152	73.2
717.336	73.25
717.52	73.51
717.704	73.71
717.888	73.9
718.071	74.24
718.255	74.43
718.439	74.18
718.622	74.28
718.806	74.34
718.99	73.8
719.174	74.02
719.357	74.42
719.541	74.87
719.724	74.67
719.908	75.73
720.092	75.8
720.275	76.03
720.459	75.28
720.642	74.9
720.826	74.43
721.009	74.26
721.193	74
721.376	74.43
721.559	75.27
721.743	75.82
721.926	76.09
722.11	75.98
722.293	75.59
722.476	74.83
722.66	74.58
722.843	73.9
723.026	73.56
723.21	74.15
723.393	74.97
723.576	75.25
723.759	75.3
723.942	75.69
724.126	75.73
724.309	75.99
724.492	75.74
724.675	76.19
724.858	76.65
725.041	77
725.224	76.6
725.407	77.01
725.59	77.24
725.774	77.03
725.957	76.41
726.14	76.4
726.322	76.69
726.505	76.75
726.688	77.65
726.871	77.8
727.054	78.22
727.237	77.79
727.42	77.88
727.603	77.62
727.786	77.44
727.968	77.15
728.151	77.23
728.334	77.37
728.517	77.14
728.699	78.12
728.882	78.04
729.065	78.75
729.248	78.79
729.43	79.28
729.613	79.61
729.796	80.55
729.978	79.8
730.161	79.66
730.343	78.8
730.526	78.52
730.708	77.98
730.891	78.27
731.073	78.33
731.256	78.17
731.438	77.84
731.621	78.39
731.803	78.08
731.986	78.25
732.168	78.14
732.35	78.43
732.533	78.21
732.715	78.94
732.898	79.86
733.08	80.64
733.262	80.59
733.444	80.4
733.627	80.16
733.809	80
733.991	80.7
734.173	80.38
734.355	80.66
734.538	81.57
734.72	80.76
734.902	80.68
735.084	81.26
735.266	81.36
735.448	80.79
735.63	80.76
735.812	80.71
735.994	81.36
736.176	81.24
736.358	80.93
736.54	82.16
736.722	81.81
736.904	81.18
737.086	80.85
737.268	81.63
737.45	80.98
737.632	80.92
737.814	80.7
737.995	81.82
738.177	81.27
738.359	80.81
738.541	81.12
738.723	81.49
738.904	81.25
739.086	81.29
739.268	81.5
739.449	82.09
739.631	82.09
739.813	82.75
739.994	82.6
740.176	83.34
740.358	82.2
740.539	82.9
740.721	83
740.902	84.1
741.084	83.98
741.265	84.47
741.447	84.17
741.628	83.87
741.81	82.8
741.991	83.29
742.172	84.47
742.354	84.76
742.535	84.15
742.717	85.04
742.898	84.88
743.079	84.88
743.261	84.53
743.442	84.31
743.623	84.85
743.804	85.2
743.986	85.08
744.167	84.09
744.348	83.64
744.529	82.89
744.71	81.64
744.891	81.82
745.073	81.72
745.254	82.04
745.435	81.52
745.616	81.18
745.797	80.32
745.978	81.3
746.159	82.27
746.34	81.88
746.521	83.19
746.702	82.05
746.883	81.57
747.064	80.51
747.245	80.95
747.426	80.04
747.606	81.47
747.787	81.89
747.968	81.82
748.149	82.35
748.33	82.62
748.51	82.15
748.691	81.37
748.872	82.79
749.053	81.96
749.233	81.44
749.414	80.9
749.595	80.28
749.775	78.98
749.956	78.65
750.137	78.69
750.317	80.09
750.498	83.4
750.678	83.91
750.859	85.04
751.04	85.04
751.22	82.47
751.4	80.55
751.581	79.11
751.761	78.79
751.942	79.41
752.122	79.95
752.303	78.88
752.483	79.95
752.663	78.99
752.844	77.94
753.024	80.06
753.204	81.1
753.385	80.1
753.565	80.77
753.745	81.16
753.925	79.65
754.106	78.64
754.286	79.05
754.466	78.88
754.646	79.52
754.826	79.6
755.006	79.46
755.187	80.45
755.367	81.06
755.547	81
755.727	82.29
755.907	83.21
756.087	83.55
756.267	82.94
756.447	81.95
756.627	79.2
756.807	78.87
756.987	77.78
757.167	77.36
757.346	78.39
757.526	78.59
757.706	79.42
757.886	79.8
758.066	80.66
758.246	81.62
758.425	81.84
758.605	81.64
758.785	81.25
758.965	80.88
759.144	77.85
759.324	79.59
759.504	78.67
759.683	78.7
759.863	78.13
760.043	79.26
760.222	79.14
760.402	79.05
760.581	78.61
760.761	80.91
760.94	80.63
761.12	81.52
761.299	81.46
761.479	81.53
761.658	79.64
761.838	79.63
762.017	78.95
762.197	79.2
762.376	79.27
762.555	78.61
762.735	79.71
762.914	77.92
763.093	77.5
763.273	76.87
763.452	77.49
763.631	75.59
763.81	75.23
763.99	75.88
764.169	77.17
764.348	74.56
764.527	74.74
764.706	76.97
764.885	78.25
765.064	76.57
765.243	78.46
765.423	78.35
765.602	77.29
765.781	73.97
765.96	72.91
766.139	71.4
766.318	72.91
766.497	72.67
766.676	74.3
766.854	76.26
767.033	76.98
767.212	76.11
767.391	74.89
767.57	76.25
767.749	76.83
767.928	78.88
768.106	77.96
768.285	77.75
768.464	76.59
768.643	75.93
768.821	75.32
769	77.26
769.179	78.05
769.357	76.4
769.536	76.05
769.715	75.95
769.893	77.19
770.072	76.78
770.25	77.68
770.429	78.29
770.607	76.85
770.786	74.1
770.964	75.63
771.143	73.91
771.321	74.52
771.5	75.94
771.678	74.75
771.857	72.77
772.035	73.07
772.213	71.29
772.392	67.57
772.57	69.98
772.748	71.09
772.927	70.32
773.105	69.43
773.283	72.46
773.461	72.05
773.64	72.18
773.818	74.61
773.996	77.42
774.174	76.45
774.352	75.1
774.531	73.3
774.709	73.82
774.887	71.65
775.065	69.73
775.243	69.88
775.421	72.14
775.599	72.07
775.777	69.14
775.955	70.31
776.133	68.77
776.311	66.63
776.489	64.05
776.667	67.36
776.844	67.39
777.022	67.58
777.2	66.59
777.378	65.88
777.556	65.41
777.734	67.99
777.911	70.46
778.089	70.75
778.267	73.59
778.445	72.75
778.622	69.47
778.8	67.77
778.978	72.1
779.155	68.93
779.333	68.46
779.511	70.05
779.688	71.61
779.866	65.96
780.043	66.79
780.221	67.33
780.398	64.6
780.576	64.41
780.753	66.75
780.931	67.3
781.108	66.97
781.286	69.86
781.463	68.07
781.64	63.04
781.818	66.4
781.995	65.95
782.172	65.51
782.35	66.96
782.527	72.3
782.704	67.55
782.882	70.8
783.059	69.5
783.236	68.51
783.413	69.86
783.59	72.68
783.768	68.15
783.945	70.59
784.122	72.21
784.299	71.42
784.476	67.26
784.653	68.44
784.83	64.78
785.007	61.6
785.184	63.03
785.361	63.37
785.538	67.77
785.715	73.28
785.892	74.52
786.069	74.4
786.246	79.11
786.423	78.03
786.6	72.74
786.776	74.03
786.953	70.57
787.13	70.95
787.307	68.39
787.484	70.25
787.66	70.07
787.837	68.91
788.014	64.42
788.191	61.82
788.367	58.48
788.544	58.57
788.721	59.46
788.897	63.51
789.074	65.5
789.25	66.7
789.427	66.4
789.603	66.66
789.78	63.8
789.956	66.23
790.133	64.48
790.309	66.52
790.486	69.35
790.662	67.11
790.839	65.48
791.015	67.83
791.192	63.69
791.368	64
791.544	64.95
791.721	66.38
791.897	64.86
792.073	62.65
792.249	55.86
792.426	58.03
792.602	58.07
792.778	57.08
792.954	59.41
793.13	62.04
793.307	57.36
793.483	49.98
793.659	52.57
793.835	50.62
794.011	47.17
794.187	46.85
794.363	46.55
794.539	47.13
794.715	49.49
794.891	53.78
795.067	49.29
795.243	55.06
795.419	53.58
795.595	49.98
795.771	49.26
795.947	53.94
796.122	52
796.298	55.58
796.474	58.65
796.65	58.56
796.826	63.09
797.001	62.12
797.177	60.08
797.353	64.96
797.529	63.71
797.704	60.79
797.88	58.03
798.056	54.47
798.231	50.55
798.407	54.7
798.582	57.16
798.758	67.92
798.934	72.72
799.109	68.91
799.285	66.56
799.46	64.86
799.636	57.57
799.811	51.68
799.986	56.58
800.162	58.11
800.337	58.62
800.513	57.3
800.688	62.04
800.863	74.16
801.039	64.27
801.214	58.81
801.389	58.37
801.565	55.12
801.74	31.46
801.915	42.87
802.09	49.65
802.265	59.16
802.441	57.98
802.616	63.54
802.791	65.15
802.966	63.54
803.141	55.98
803.316	55.16
803.491	60.46
803.666	58.38
803.841	53.39
804.016	52.4
804.191	50.79
804.366	49.25
804.541	44.9
804.716	47.38
804.891	45.19
805.066	50.34
805.241	49.57
805.416	49.76
805.591	45.99
805.765	53.52
805.94	55.65
806.115	54.53
806.29	49.83
806.464	52.06
806.639	44.08
806.814	36.45
806.989	28.87
807.163	41.63
807.338	45.04
807.512	43.6
807.687	35.69
807.862	58.03
808.036	62.69
808.211	64.65
808.385	73.38
808.56	85.71
808.734	72.41
808.909	60.66
809.083	46.96
809.258	49.53
809.432	53.42
809.606	37.1
809.781	35.63
809.955	48.97
810.13	46.93
810.304	42.87
810.478	47.32
810.652	60.88
810.827	58.86
811.001	58.78
811.175	54.41
811.349	56.93
811.524	44
811.698	32.25
811.872	33.63
812.046	38.95
812.22	50.62
812.394	48.17
812.568	52.25
812.742	53.82
812.916	50.98
813.09	41.88
813.264	49.86
813.438	56.02
813.612	48.22
813.786	45.22
813.96	49.88
814.134	40.37
814.308	54.07
814.482	58.09
814.656	58.67
814.83	59.36
815.003	67.12
815.177	45.58
815.351	44.51
815.525	45.19
815.698	42.93
815.872	35.62
816.046	28.19
816.219	25.35
816.393	33.39
816.567	27.5
816.74	28.94
816.914	42.22
817.088	43.75
817.261	31.55
817.435	32.31
817.608	33.94
817.782	25.41
817.955	31.27
818.129	25.56
818.302	29.64
818.475	41.06
818.649	45.75
818.822	37.7
818.996	61.47
819.169	57.41
819.342	36.42
819.516	50.37
819.689	55.35
819.862	38.47
820.035	36.58
820.209	44.2
820.382	35.4
820.555	32.79
820.728	24.73
820.901	27.98
821.075	23.48
821.248	33.07
821.421	18.09
821.594	25.72
821.767	48.37
821.94	60.1
822.113	31.15
822.286	36.83
822.459	37.41
822.632	16.05
822.805	4.07
822.978	8.82
823.151	5.4
823.324	-1.75
823.496	-11.97
823.669	-8.66
823.842	1.01
824.015	-4.05
824.188	-12.4
824.361	-10.78
824.533	-4.59
824.706	7.91
824.879	18.09
825.051	24.12
825.224	33.06
825.397	22.28
825.569	4.3
825.742	13.94
825.915	25.6
826.087	14.4
826.26	23.1
826.432	27.69
826.605	30.23
826.777	18.68
826.95	24.53
827.122	9.84
827.295	8.35
827.467	8.68
827.64	-7
827.812	-16.05
827.984	0.49
828.157	5.6
828.329	-38.27
828.501	-18.72
828.674	20.68
828.846	3.08
829.018	27.5
829.19	21.8
829.363	32.86
829.535	18.7
829.707	24.12
829.879	-10.46
830.051	-7.69
830.223	-1.55
830.395	-37.86
830.568	-32.08
830.74	-30.12
830.912	9.03
831.084	-10.68
831.256	2.99
831.428	-2.11
831.6	-25.87
831.772	-66.18
831.943	-59.68
832.115	-19.58
832.287	-0.96
832.459	31.5
832.631	36.85
832.803	51.11
832.975	63.2
833.146	43.71
833.318	29.03
833.49	47.67
833.662	24.76
833.833	-16.43
834.005	-4.12
834.177	2.32
834.348	-6.43
834.52	-19.21
834.692	12.98
834.863	-14.36
835.035	-28.49
835.206	-88.93
835.378	-64.27
835.549	-86.75
835.721	-56.76
835.892	-52.1
836.064	-29.76
836.235	-36.87
836.407	-22.23
836.578	-45.7
836.749	-67.55
836.921	-103.61
837.092	-109.06
837.264	-97.2
837.435	-98.35
837.606	-44.01
837.777	-10.05
837.949	10.2
838.12	8.03
838.291	13.89
838.462	9.68
838.633	-15.66
838.805	-14.04
838.976	-5.15
839.147	-58.65
839.318	-60.1
839.489	-89.89
839.66	-105.43
839.831	-47.28
840.002	-23.96
840.173	-70.03
840.344	-26.94
840.515	-62.44
840.686	-288.82
840.857	-213.8
841.028	-174.61
841.199	-123.74
841.369	-116.79
841.54	-83.13
841.711	-57.03
841.882	-57.05
842.053	-58.06
842.223	-39.22
842.394	-4.36
842.565	-5.56
842.736	19.51
842.906	14.24
843.077	6.42
843.248	-7.88
843.418	-22.85
843.589	-99.81
843.759	-98.08
843.93	-53.58
844.101	-10.38
844.271	1.01
844.442	22.2
844.612	36.71
844.783	10.37
844.953	-40.49
845.123	-69
845.294	-67.62
845.464	-237.46
845.635	-84.55
845.805	17.04
845.975	35.33
846.146	-27.02
846.316	-39.09
846.486	-15.11
846.656	0.62
846.827	-14.35
846.997	-10.89
847.167	4.66
847.337	-18.23
847.507	-57.85
847.677	-33.22
847.848	26.84
848.018	22.66
848.188	31.16
848.358	17.71
848.528	6.62
848.698	-21.49
848.868	-108.48
849.038	-236.45
849.208	-93.7
849.378	-62.07
849.548	-48.24
849.718	-20.56
849.887	11.28
850.057	1.33
850.227	-38.38
850.397	-81.47
850.567	-143.32
850.737	-387.61
850.906	-1301.88
851.076	-944.92
851.246	-322.25
851.415	-59.33
851.585	-39.03
851.755	-72.49
851.924	-12.35
852.094	-80.36
852.264	-166.7
852.433	-1209.13
852.603	-237
852.772	-263.31
852.942	-111.05
853.111	-125.78
853.281	-65.75
853.45	-35.01
853.62	-94.08
853.789	-105.99
853.959	-57.35
854.128	-52.29
854.297	-84.79
854.467	-95.13
854.636	-58.99
854.805	-24.2
854.975	-64.93
855.144	-121.78
855.313	83.57
855.482	-153.65
855.652	-88.91
855.821	-84.74
855.99	43.86
856.159	23.58
856.328	16.38
856.497	0.74
856.667	15.46
856.836	0.52
857.005	-33.99
857.174	-55.45
857.343	-121.74
857.512	-150.09
857.681	-197.17
857.85	-218.99
858.019	-132.52
858.188	-82.23
858.356	-75.55
858.525	-133.79
858.694	-142.57
858.863	-291.96
859.032	-258.56
859.201	-386.06
859.369	-319.26
859.538	-163.51
859.707	-91
859.876	-90.37
860.044	-56.86
860.213	40.09
860.382	-11.17
860.55	-14.62
860.719	18.55
860.888	22.73
861.056	-40.73
861.225	-28.64
861.393	28.32
861.562	13.6
861.73	-80.96
861.899	-193.46
862.067	-2153.45
862.236	-130.92
862.404	-307.93
862.572	-169.9
862.741	-61.64
862.909	-53.46
863.078	-222
863.246	-147.11
863.414	-132.71
863.582	-92.68
863.751	-96.69
863.919	-49.54
864.087	-9.92
864.255	-46.02
864.424	-420.92
864.592	-81.89
864.76	-165.17
864.928	-557.2
865.096	-196.97
865.264	-169.95
865.432	-2026.14
865.6	-166.75
865.768	-122.47
865.936	-138.65
866.104	-143.1
866.272	-208.28
866.44	-517.52
866.608	903.53
866.776	492.23
866.944	4459.3
867.112	-823.94
867.28	-315.74
867.448	-145.26
867.615	-55.79
867.783	-19.44
867.951	-34.04
868.119	2.47
868.286	-25.58
868.454	-136.01
868.622	-169.81
868.789	-162.59
868.957	-4139.29
869.125	-2638.16
869.292	-147.54
869.46	-164.22
869.627	2.1
869.795	-43
869.963	-0.88
870.13	19.82
870.298	36.18
870.465	-41.2
870.632	-31.64
870.8	-39.1
870.967	-101.16
871.135	-179.98
871.302	-143.63
871.469	-146.13
871.637	-149.64
871.804	-115.48
871.971	-143.58
872.139	-594.65
872.306	-88.4
872.473	-105.3
872.64	-408.37
872.807	-187.18
872.975	-4.19
873.142	-352.55
873.309	2871.62
873.476	-84.61
873.643	-20.85
873.81	-43.03
873.977	31.55
874.144	51.84
874.311	-36.12
874.478	-166.36
874.645	-145.42
874.812	-113.64
874.979	-62.23
875.146	-70.12
875.313	-52.38
875.48	-0.7
875.647	-23.98
875.813	-85.27
875.98	-64.76
876.147	-99.87
876.314	-222.73
876.481	1552.48
876.647	-1766.85
876.814	657.77
876.981	-142.12
877.147	-51.2
877.314	7.6
877.481	38.84
877.647	28.63
877.814	-37.17
877.98	-137.09
878.147	-85.54
878.314	-44.25
878.48	-96.32
878.647	-4.16
878.813	59.76
878.979	39.31
879.146	0.25
879.312	0.25
879.479	-96.76
879.645	-187.77
879.811	-347.48
879.978	-866.03
880.144	-195.65
880.31	-86.19
880.477	-304.71
880.643	-323.42
880.809	-123.15
880.975	-124.61
881.142	-897.73
881.308	-107.91
881.474	-66.37
881.64	-79.32
881.806	-199.88
881.972	-68.45
882.138	-70.24
882.304	-82.28
882.47	-281.03
882.636	-1077.46
882.802	-389.97
882.968	-114.67
883.134	-77.7
883.3	-60.73
883.466	16.83
883.632	55.06
883.798	9.39
883.964	8.29
884.129	4.83
884.295	-1.42
884.461	-87.77
884.627	-122.03
884.793	-134.79
884.958	-63.76
885.124	-159.7
885.29	-237.4
885.455	-463.35
885.621	-145.91
885.787	-231.49
885.952	-92.88
886.118	-107.55
886.283	-81.33
886.449	-214.66
886.614	-213.3
886.78	-485.96
886.945	1884.43
887.111	-811.85
887.276	-651.42
887.442	-1167.73
887.607	-535.14
887.773	-333.6
887.938	-307.96
888.103	-323.37
888.269	-220.63
888.434	-285.68
888.599	-97.51
888.764	-30.57
888.93	-18.09
889.095	-53.76
889.26	-98.44
889.425	-95.45
889.59	-65.78
889.756	-82.05
889.921	-32.38
890.086	6.58
890.251	15.55
890.416	-140.16
890.581	-1142.74
890.746	97.68
890.911	390.13
891.076	204.23
891.241	-571.27
891.406	-35.71
891.571	-112.44
891.736	-282.34
891.901	-680.09
892.065	692.86
892.23	209.78
892.395	301.27
892.56	470.09
892.725	-576.95
892.889	-2218.29
893.054	-313.41
893.219	-179.77
893.384	-118.11
893.548	-199.13
893.713	-198.93
893.878	-158.18
