Data from Ofra_2a_PS_2GT38_Reflection_3.txt Node
Date: Tue Jul 20 09:43:00 EDT 2021
User: Adam
Spectrometer: FLMT01687
Trigger mode: 0
Integration Time (sec): 9.450000E-1
Scans to average: 3
Electric dark correction enabled: true
Nonlinearity correction enabled: false
Boxcar width: 3
XAxis mode: Wavelengths
Number of Pixels in Spectrum: 3648
>>>>>Begin Spectral Data<<<<<
179.494	691.12
179.716	385.48
179.937	376.37
180.158	1266.02
180.38	-806.1
180.601	-195.26
180.823	-215.41
181.044	-139.94
181.265	-282.89
181.486	-128.33
181.708	-2179.35
181.929	-65.7
182.15	-14.2
182.372	-111.46
182.593	-172.52
182.814	723.8
183.035	526.76
183.257	153.25
183.478	88.35
183.699	89.4
183.92	65.44
184.141	52.31
184.363	34.05
184.584	27.61
184.805	35.72
185.026	39.2
185.247	17.98
185.468	16.6
185.689	32.26
185.91	33.6
186.132	47.02
186.353	32.34
186.574	31.53
186.795	22.98
187.016	37.56
187.237	40.24
187.458	24.06
187.679	3.52
187.9	29.87
188.121	30.97
188.342	57.55
188.563	46.41
188.784	38.31
189.005	62.13
189.226	57.67
189.447	48.36
189.667	29.85
189.888	24.26
190.109	20.85
190.33	10.75
190.551	-0.38
190.772	0.46
190.993	18.05
191.214	29.78
191.434	30.98
191.655	32.64
191.876	41.21
192.097	43.99
192.318	46.67
192.538	33.51
192.759	39.73
192.98	21.52
193.201	35.1
193.421	34.76
193.642	21.28
193.863	-0.47
194.083	10.9
194.304	-1.18
194.525	35.22
194.745	13.74
194.966	16.8
195.187	30.38
195.407	40.99
195.628	33.34
195.848	33.78
196.069	15.31
196.29	9.75
196.51	2.98
196.731	0.12
196.951	-3.74
197.172	-18.57
197.392	8.08
197.613	6.63
197.833	18.17
198.054	12.83
198.274	4.36
198.495	9.88
198.715	20.24
198.936	-2.49
199.156	8.27
199.377	7.55
199.597	17.73
199.817	36.18
200.038	38.07
200.258	35.96
200.479	44.38
200.699	37.27
200.919	23.54
201.14	30.16
201.36	11.22
201.58	-5.52
201.801	7.33
202.021	12.33
202.241	17.66
202.461	31.44
202.682	25.57
202.902	37.01
203.122	41.95
203.342	60.2
203.563	60.47
203.783	61.38
204.003	55.87
204.223	66.68
204.443	60.13
204.663	57.21
204.884	38.53
205.104	37.41
205.324	44.95
205.544	43.6
205.764	28.57
205.984	28.28
206.204	24.46
206.424	25.38
206.644	20.93
206.864	13.89
207.084	30.79
207.304	30.4
207.525	22.16
207.745	31.48
207.964	41.64
208.184	39.7
208.404	43.32
208.624	18.26
208.844	5.87
209.064	22.39
209.284	23.97
209.504	24.05
209.724	6.9
209.944	-7.5
210.164	11.47
210.384	22.12
210.604	16.4
210.823	4.33
211.043	4.25
211.263	17.09
211.483	25.91
211.703	21.77
211.922	21.54
212.142	24.43
212.362	32.21
212.582	24.89
212.801	19.49
213.021	23.39
213.241	20.86
213.461	20.95
213.68	19.46
213.9	22.33
214.12	25.86
214.339	25.25
214.559	18.51
214.779	27.04
214.998	28.06
215.218	33.53
215.438	32.88
215.657	28.87
215.877	22.65
216.096	32.63
216.316	25.7
216.535	31.99
216.755	20.17
216.974	23.05
217.194	27.45
217.413	41.21
217.633	30.67
217.852	34.62
218.072	8.58
218.291	25.05
218.511	22.22
218.73	21.43
218.95	13.32
219.169	12.15
219.389	9.04
219.608	23.9
219.827	13.64
220.047	7.19
220.266	17.39
220.485	27.07
220.705	17.09
220.924	23.55
221.143	19.52
221.363	15.41
221.582	27.83
221.801	34.42
222.021	32.61
222.24	37.87
222.459	11.18
222.678	-10.13
222.897	-1.89
223.117	-2.48
223.336	-9.49
223.555	-17.16
223.774	0.37
223.993	29.05
224.213	40.31
224.432	62.79
224.651	56.85
224.87	53.66
225.089	57.28
225.308	50.01
225.527	46.29
225.746	50.26
225.965	22.08
226.184	9.32
226.404	4.19
226.623	26.96
226.842	25.92
227.061	35.47
227.28	50.2
227.499	61.35
227.718	58.93
227.936	55.31
228.155	41.29
228.374	33.63
228.593	23.42
228.812	12.69
229.031	-3.65
229.25	15.38
229.469	19.7
229.688	25.18
229.907	32.75
230.125	31.84
230.344	37.47
230.563	46.05
230.782	27.02
231.001	21.02
231.22	21.64
231.438	24.28
231.657	32.46
231.876	24.57
232.095	17.33
232.313	27.18
232.532	31.92
232.751	32.12
232.969	30.72
233.188	24.45
233.407	28.45
233.625	16.71
233.844	19.19
234.063	12.13
234.281	3.93
234.5	9.97
234.719	12.7
234.937	15.26
235.156	26.08
235.374	28.56
235.593	36.4
235.811	40.73
236.03	26.72
236.249	32.6
236.467	33.19
236.686	50.84
236.904	46.91
237.123	49.91
237.341	48.58
237.559	56.93
237.778	54.7
237.996	55.34
238.215	40.4
238.433	37.58
238.652	27.42
238.87	25.92
239.088	15.13
239.307	14.46
239.525	7.49
239.743	2.93
239.962	-3.43
240.18	9.82
240.398	15.13
240.617	31.84
240.835	27.87
241.053	34.56
241.271	44.31
241.49	35.35
241.708	21.23
241.926	13.36
242.144	5.04
242.363	9.07
242.581	10.6
242.799	-5.85
243.017	9.93
243.235	11.36
243.453	10.13
243.672	16.85
243.89	12.91
244.108	16.49
244.326	5.85
244.544	11.63
244.762	20.76
244.98	24.85
245.198	9.36
245.416	18.05
245.634	16.33
245.852	29.4
246.07	12.5
246.288	-4.27
246.506	0.45
246.724	26.22
246.942	18.22
247.16	19.5
247.378	1.35
247.596	11.63
247.814	15.8
248.032	13.02
248.25	-10.2
248.468	-13.98
248.685	-9.33
248.903	9.49
249.121	10.98
249.339	12.9
249.557	15.93
249.775	13.35
249.992	9.41
250.21	-1.92
250.428	-4.19
250.646	-5.81
250.863	-1.3
251.081	-6.4
251.299	8.03
251.517	12.18
251.734	16.01
251.952	33.86
252.17	20.62
252.387	18.24
252.605	25.11
252.823	12.59
253.04	20.25
253.258	6.67
253.475	-6.91
253.693	5.84
253.911	2.94
254.128	-1.61
254.346	4.97
254.563	5.59
254.781	12.98
254.998	17.56
255.216	21.96
255.433	13.07
255.651	23.31
255.868	31.35
256.086	31.5
256.303	31.36
256.521	24.66
256.738	24.31
256.956	37.47
257.173	22.46
257.39	24.01
257.608	28.35
257.825	19.41
258.043	24.58
258.26	21.7
258.477	23.82
258.695	27.31
258.912	22.39
259.129	14.3
259.346	25.6
259.564	27.08
259.781	32.4
259.998	26.24
260.216	30.47
260.433	21.5
260.65	25.42
260.867	15.02
261.084	11.37
261.302	-4.24
261.519	-11.78
261.736	-8.98
261.953	-3.36
262.17	-0.57
262.387	9.88
262.604	3.75
262.822	9.75
263.039	8.62
263.256	4
263.473	4.22
263.69	8.14
263.907	-0.85
264.124	0.64
264.341	7.28
264.558	16.43
264.775	18.43
264.992	22.97
265.209	30.58
265.426	42.77
265.643	49.65
265.86	48.91
266.077	44.85
266.294	45.65
266.51	35.24
266.727	16.64
266.944	-6.94
267.161	-12.7
267.378	-24.9
267.595	-18.37
267.812	-19.97
268.028	0.72
268.245	1.2
268.462	15.1
268.679	13.54
268.896	13.23
269.112	31.29
269.329	34.2
269.546	28.01
269.763	36.48
269.979	36.68
270.196	38.06
270.413	40.44
270.629	20.27
270.846	22.31
271.063	26.94
271.279	23.22
271.496	14.59
271.712	15.46
271.929	10.88
272.146	24.26
272.362	5.2
272.579	-5.96
272.795	-4.12
273.012	-0.27
273.228	-5.48
273.445	-0.91
273.661	-9.8
273.878	-1.62
274.094	0.75
274.311	2.81
274.527	-0.85
274.744	0.38
274.96	2.86
275.177	13.86
275.393	26.47
275.609	34.53
275.826	35.73
276.042	53.61
276.259	49.33
276.475	38.54
276.691	35.1
276.908	37.91
277.124	37.71
277.34	30.78
277.557	20.47
277.773	26.27
277.989	26.01
278.205	29.77
278.422	35.35
278.638	35.77
278.854	43.98
279.07	36.72
279.286	30.87
279.503	45.24
279.719	41.08
279.935	21.01
280.151	28.18
280.367	31.31
280.583	35.13
280.799	33.29
281.016	28.13
281.232	22.05
281.448	30.81
281.664	18.98
281.88	9.98
282.096	13.12
282.312	6.77
282.528	-4.97
282.744	-3.79
282.96	0.27
283.176	1.46
283.392	17.65
283.608	26.19
283.824	27.92
284.04	40.52
284.256	44.67
284.471	38.54
284.687	43.19
284.903	37.15
285.119	17.2
285.335	22.28
285.551	20.85
285.767	15.09
285.982	19.89
286.198	9.04
286.414	10.39
286.63	26.79
286.846	26.24
287.061	26.26
287.277	32.24
287.493	25.97
287.709	32.9
287.924	40.93
288.14	40.6
288.356	48
288.571	39.37
288.787	43.96
289.003	51.16
289.218	44.53
289.434	39.48
289.65	32.82
289.865	32.34
290.081	28.19
290.296	24.14
290.512	31.13
290.727	39.57
290.943	31.76
291.159	31.49
291.374	38.08
291.59	49.79
291.805	47.07
292.021	31.07
292.236	16.86
292.451	19.85
292.667	21.2
292.882	6.37
293.098	-0.45
293.313	-3.7
293.529	6.55
293.744	17.74
293.959	25.14
294.175	29.02
294.39	37.82
294.605	45.31
294.821	50.7
295.036	46.89
295.251	48.93
295.467	49.19
295.682	42.21
295.897	39.34
296.112	37.5
296.328	37.08
296.543	31.91
296.758	27.82
296.973	24.06
297.188	33.49
297.404	32.46
297.619	39.67
297.834	38.29
298.049	34.76
298.264	33.39
298.479	18.23
298.694	22.02
298.909	18.77
299.125	22.8
299.34	18.76
299.555	27.16
299.77	22.4
299.985	24.59
300.2	15.74
300.415	20.66
300.63	8.75
300.845	17.08
301.06	13.46
301.275	23.09
301.49	30.3
301.704	28.37
301.919	21.59
302.134	13.9
302.349	4.64
302.564	-7.81
302.779	-11.05
302.994	-15.83
303.209	-15.09
303.423	-0.81
303.638	14.13
303.853	13.35
304.068	28.4
304.283	22.1
304.497	31.36
304.712	32.57
304.927	24.49
305.142	25.59
305.356	33.48
305.571	35.15
305.786	34.36
306	25.33
306.215	24.61
306.43	35.38
306.644	40.35
306.859	34.27
307.074	29.48
307.288	31.67
307.503	37.58
307.717	34.1
307.932	29.78
308.147	27.12
308.361	27.89
308.576	26.11
308.79	22.68
309.005	23.39
309.219	26.07
309.434	26.31
309.648	16.51
309.863	15.17
310.077	13.38
310.292	17.89
310.506	21.24
310.72	16.89
310.935	15.1
311.149	25.07
311.364	33.91
311.578	30.31
311.792	24.12
312.007	14.08
312.221	18.85
312.435	20.58
312.649	24.08
312.864	7.98
313.078	28.53
313.292	38.73
313.507	42.46
313.721	55.47
313.935	63.76
314.149	42.15
314.363	43.57
314.578	53.27
314.792	52.09
315.006	51.06
315.22	50.01
315.434	37.3
315.648	44.19
315.862	44.89
316.077	31.15
316.291	29.48
316.505	35.4
316.719	15.38
316.933	20.62
317.147	16.66
317.361	18.41
317.575	23.96
317.789	24.58
318.003	18.69
318.217	30.25
318.431	30.06
318.645	29.95
318.859	12.34
319.073	9.61
319.287	15.17
319.5	14.82
319.714	14.33
319.928	22.45
320.142	21.03
320.356	38.64
320.57	33.9
320.784	34.94
320.997	38.77
321.211	41.66
321.425	24.46
321.639	26.63
321.853	17.44
322.066	17.01
322.28	8.61
322.494	1.71
322.707	-3.86
322.921	0.81
323.135	8.4
323.349	17.88
323.562	23.74
323.776	28.74
323.989	31.53
324.203	30.37
324.417	25.86
324.63	12.26
324.844	-2.42
325.057	-0.73
325.271	-14.89
325.485	-13.96
325.698	-21.01
325.912	-8.67
326.125	1.62
326.339	9.63
326.552	9.67
326.766	23.45
326.979	26.16
327.193	32.87
327.406	28.82
327.619	16.07
327.833	19.75
328.046	8.67
328.26	-9.66
328.473	-5.14
328.686	-1.25
328.9	-12.13
329.113	-4.62
329.326	2.23
329.54	6.39
329.753	11.8
329.966	7.38
330.179	9.03
330.393	19.64
330.606	19.39
330.819	18.47
331.032	20.81
331.246	27.55
331.459	35.42
331.672	29.7
331.885	31.72
332.098	39.37
332.311	24.85
332.525	23.45
332.738	17.83
332.951	10.12
333.164	13.28
333.377	-1.14
333.59	-1.41
333.803	16.88
334.016	15.91
334.229	24.29
334.442	39.41
334.655	46.06
334.868	50.5
335.081	54.58
335.294	45.62
335.507	48.65
335.72	38.13
335.933	29.07
336.146	25.28
336.359	24.9
336.572	12.46
336.785	15.52
336.997	2.81
337.21	9.18
337.423	10.75
337.636	8.94
337.849	5.12
338.062	15.29
338.274	19.79
338.487	22.25
338.7	29.04
338.913	27.68
339.125	29.57
339.338	32.37
339.551	32.43
339.763	25.12
339.976	25.11
340.189	12.76
340.402	12.68
340.614	17.56
340.827	14.49
341.039	17.67
341.252	19.65
341.465	16.54
341.677	11.94
341.89	12.22
342.102	14.73
342.315	22.24
342.527	16.68
342.74	28.39
342.952	27.6
343.165	45.34
343.377	52.44
343.59	42.75
343.802	41.88
344.015	37.24
344.227	21.98
344.44	23.55
344.652	17.37
344.864	19.92
345.077	20.25
345.289	15.98
345.502	24.02
345.714	22.03
345.926	20.78
346.139	26.4
346.351	5.12
346.563	13.17
346.775	9.97
346.988	2.58
347.2	12.11
347.412	11.81
347.624	16.38
347.837	16.61
348.049	17.24
348.261	12.86
348.473	6.59
348.685	12.51
348.897	14.13
349.11	3.75
349.322	6.75
349.534	-5.2
349.746	15.23
349.958	21.36
350.17	7.38
350.382	10.69
350.594	14.51
350.806	24.75
351.018	32.08
351.23	28.29
351.442	27.91
351.654	38.96
351.866	38.17
352.078	36.01
352.29	36.14
352.502	30.5
352.714	28.19
352.926	33.75
353.138	28.43
353.35	27.72
353.561	21.59
353.773	15.94
353.985	18.7
354.197	16.74
354.409	13.69
354.621	12.72
354.832	9.22
355.044	20.75
355.256	24.22
355.468	23.25
355.679	22.81
355.891	23.4
356.103	26.65
356.314	28.46
356.526	24.37
356.738	12.13
356.949	19.11
357.161	23.96
357.373	21.93
357.584	24.78
357.796	30.39
358.008	25.2
358.219	38.37
358.431	33.29
358.642	25.68
358.854	25.28
359.065	20.64
359.277	7.97
359.488	7.28
359.7	8.09
359.911	7.92
360.123	15.68
360.334	15.29
360.546	9.2
360.757	17.49
360.969	30.13
361.18	21.59
361.391	23.62
361.603	21.48
361.814	20.79
362.025	20.99
362.237	17.99
362.448	11.79
362.659	8.28
362.871	7.38
363.082	6.3
363.293	11.54
363.504	16.45
363.716	21.68
363.927	22.57
364.138	30.2
364.349	28.54
364.56	29.72
364.772	28.02
364.983	24
365.194	24.67
365.405	26.35
365.616	20.72
365.827	20.48
366.038	29.24
366.25	30.54
366.461	32.28
366.672	29.71
366.883	27.11
367.094	32.2
367.305	31.37
367.516	23.13
367.727	23.86
367.938	31.55
368.149	27.26
368.36	28.38
368.571	26.28
368.781	23.72
368.992	23.73
369.203	22.14
369.414	12.99
369.625	20.69
369.836	19.89
370.047	15.28
370.258	16.45
370.468	14.1
370.679	7.56
370.89	14.11
371.101	6.08
371.312	-0.36
371.522	5.7
371.733	2.81
371.944	11.28
372.155	11.45
372.365	5.2
372.576	5.22
372.787	8.87
372.997	4.88
373.208	9.84
373.419	5.53
373.629	7.9
373.84	6.57
374.05	6.66
374.261	0.37
374.472	3.23
374.682	-2.77
374.893	-7.26
375.103	3.41
375.314	5.29
375.524	2.43
375.735	6.31
375.945	7.92
376.156	13.84
376.366	14.48
376.577	6.35
376.787	14.58
376.997	24.37
377.208	22.65
377.418	19.14
377.629	18.54
377.839	25.21
378.049	32.64
378.26	27.47
378.47	25.36
378.68	27.36
378.89	22.82
379.101	13.24
379.311	5.9
379.521	4.49
379.732	-9.24
379.942	-11.69
380.152	-5.74
380.362	4.58
380.572	14.22
380.783	15.99
380.993	14.14
381.203	25.14
381.413	27.67
381.623	23.68
381.833	17.82
382.043	12.64
382.253	16.61
382.463	22.7
382.674	23.92
382.884	19.03
383.094	19.08
383.304	21.6
383.514	25.55
383.724	18.47
383.934	15.45
384.144	15.55
384.353	18.04
384.563	19.9
384.773	21.35
384.983	20.72
385.193	25.47
385.403	27.8
385.613	23.31
385.823	20.48
386.033	19.22
386.242	14.21
386.452	11.6
386.662	8.68
386.872	2.55
387.082	2.68
387.291	2.72
387.501	4.25
387.711	6.04
387.921	7.01
388.13	7.16
388.34	5.07
388.55	6.82
388.759	7.08
388.969	2.51
389.179	3.16
389.388	2.14
389.598	1.71
389.807	3.64
390.017	4.56
390.227	3.73
390.436	5.11
390.646	6.61
390.855	6.36
391.065	6.33
391.274	5.97
391.484	5.92
391.693	6.95
391.903	7.4
392.112	4.88
392.322	7.21
392.531	7.87
392.74	6.63
392.95	6.81
393.159	7.42
393.369	5.83
393.578	5.44
393.787	4.74
393.997	4.64
394.206	4.93
394.415	5.04
394.625	3.42
394.834	3.87
395.043	5.19
395.252	5.19
395.462	4.78
395.671	5.7
395.88	5.7
396.089	6.71
396.298	7.17
396.508	6.6
396.717	6.02
396.926	6.11
397.135	5.58
397.344	5.32
397.553	5.32
397.762	4.86
397.971	4.69
398.181	4.42
398.39	4.31
398.599	4.63
398.808	4.6
399.017	4.68
399.226	5.28
399.435	5.51
399.644	5.62
399.853	5.89
400.062	5.62
400.27	5.51
400.479	5.43
400.688	5.34
400.897	5.4
401.106	5.53
401.315	5.36
401.524	5.65
401.733	5.85
401.941	5.86
402.15	5.48
402.359	5.44
402.568	5.34
402.777	5.12
402.985	4.85
403.194	4.73
403.403	4.37
403.612	4.49
403.82	4.39
404.029	4.42
404.238	4.62
404.446	4.55
404.655	4.51
404.864	4.63
405.072	4.64
405.281	4.66
405.489	4.75
405.698	4.56
405.906	4.63
406.115	4.7
406.324	4.67
406.532	4.66
406.741	4.66
406.949	4.61
407.158	4.72
407.366	4.69
407.574	4.61
407.783	4.59
407.991	4.5
408.2	4.44
408.408	4.38
408.617	4.38
408.825	4.46
409.033	4.46
409.242	4.45
409.45	4.48
409.658	4.53
409.867	4.58
410.075	4.54
410.283	4.42
410.491	4.38
410.7	4.41
410.908	4.41
411.116	4.3
411.324	4.27
411.533	4.19
411.741	4.21
411.949	4.26
412.157	4.25
412.365	4.3
412.573	4.29
412.781	4.27
412.99	4.39
413.198	4.38
413.406	4.32
413.614	4.32
413.822	4.27
414.03	4.27
414.238	4.32
414.446	4.18
414.654	4.23
414.862	4.22
415.07	4.24
415.278	4.16
415.486	4.34
415.694	4.18
415.902	4.2
416.109	4.24
416.317	4.2
416.525	4.23
416.733	4.32
416.941	4.14
417.149	4.29
417.357	4.33
417.564	4.21
417.772	4.32
417.98	4.17
418.188	4.07
418.395	4.11
418.603	4
418.811	3.87
419.019	4
419.226	3.99
419.434	3.95
419.642	3.95
419.849	3.85
420.057	3.93
420.265	4.03
420.472	3.88
420.68	3.77
420.887	3.78
421.095	3.88
421.302	4.06
421.51	4.11
421.717	4.13
421.925	4.04
422.132	3.94
422.34	3.98
422.547	3.86
422.755	3.7
422.962	3.6
423.17	3.49
423.377	3.71
423.585	3.79
423.792	3.73
423.999	3.76
424.207	3.73
424.414	3.76
424.621	3.79
424.829	3.63
425.036	3.61
425.243	3.74
425.451	3.71
425.658	3.84
425.865	3.76
426.072	3.84
426.28	3.85
426.487	3.87
426.694	3.77
426.901	3.75
427.108	3.66
427.315	3.67
427.523	3.65
427.73	3.72
427.937	3.75
428.144	3.81
428.351	3.91
428.558	3.88
428.765	3.84
428.972	3.79
429.179	3.63
429.386	3.64
429.593	3.58
429.8	3.6
430.007	3.67
430.214	3.74
430.421	3.72
430.628	3.66
430.835	3.63
431.042	3.72
431.249	3.71
431.456	3.77
431.662	3.8
431.869	3.96
432.076	4.11
432.283	4.07
432.49	3.99
432.697	3.96
432.903	3.95
433.11	3.9
433.317	3.86
433.524	3.76
433.73	3.82
433.937	3.82
434.144	3.98
434.35	3.93
434.557	3.93
434.764	3.85
434.97	3.98
435.177	3.95
435.384	4.02
435.59	3.93
435.797	3.99
436.003	3.95
436.21	3.95
436.416	3.88
436.623	3.92
436.829	3.89
437.036	3.91
437.242	3.9
437.449	3.95
437.655	3.99
437.862	3.98
438.068	4.01
438.275	4.03
438.481	4.08
438.687	4.11
438.894	4.08
439.1	4.11
439.307	4.16
439.513	4.1
439.719	4.11
439.926	4.06
440.132	4.04
440.338	4.11
440.544	4.08
440.751	4.07
440.957	4.08
441.163	4.09
441.369	4.1
441.575	4.09
441.782	4.07
441.988	4.08
442.194	4.14
442.4	4.2
442.606	4.23
442.812	4.21
443.018	4.26
443.224	4.3
443.431	4.33
443.637	4.31
443.843	4.32
444.049	4.3
444.255	4.27
444.461	4.23
444.667	4.21
444.873	4.2
445.079	4.22
445.284	4.23
445.49	4.2
445.696	4.26
445.902	4.3
446.108	4.3
446.314	4.32
446.52	4.39
446.726	4.34
446.931	4.39
447.137	4.4
447.343	4.38
447.549	4.36
447.755	4.33
447.96	4.27
448.166	4.34
448.372	4.32
448.578	4.32
448.783	4.31
448.989	4.36
449.195	4.37
449.4	4.41
449.606	4.39
449.812	4.43
450.017	4.45
450.223	4.45
450.428	4.45
450.634	4.48
450.84	4.41
451.045	4.39
451.251	4.42
451.456	4.38
451.662	4.39
451.867	4.4
452.073	4.36
452.278	4.42
452.483	4.47
452.689	4.46
452.894	4.45
453.1	4.39
453.305	4.37
453.51	4.4
453.716	4.41
453.921	4.41
454.127	4.4
454.332	4.49
454.537	4.57
454.742	4.56
454.948	4.5
455.153	4.45
455.358	4.46
455.563	4.49
455.769	4.43
455.974	4.4
456.179	4.34
456.384	4.42
456.589	4.45
456.795	4.43
457	4.43
457.205	4.38
457.41	4.39
457.615	4.45
457.82	4.51
458.025	4.49
458.23	4.47
458.435	4.42
458.64	4.49
458.845	4.48
459.05	4.54
459.255	4.47
459.46	4.47
459.665	4.53
459.87	4.58
460.075	4.55
460.28	4.57
460.485	4.57
460.69	4.55
460.895	4.63
461.099	4.64
461.304	4.61
461.509	4.59
461.714	4.62
461.919	4.64
462.123	4.71
462.328	4.69
462.533	4.65
462.738	4.66
462.942	4.72
463.147	4.72
463.352	4.71
463.556	4.7
463.761	4.7
463.966	4.81
464.17	4.85
464.375	4.82
464.58	4.79
464.784	4.83
464.989	4.87
465.193	4.86
465.398	4.77
465.602	4.73
465.807	4.78
466.011	4.84
466.216	4.85
466.42	4.84
466.625	4.85
466.829	4.9
467.034	4.97
467.238	5.01
467.443	4.99
467.647	4.97
467.851	4.96
468.056	4.95
468.26	4.93
468.464	4.93
468.669	4.94
468.873	4.93
469.077	4.99
469.282	5.03
469.486	5.1
469.69	5.14
469.894	5.18
470.099	5.19
470.303	5.16
470.507	5.18
470.711	5.14
470.915	5.14
471.119	5.14
471.324	5.07
471.528	5.07
471.732	5.14
471.936	5.16
472.14	5.23
472.344	5.24
472.548	5.28
472.752	5.33
472.956	5.37
473.16	5.41
473.364	5.34
473.568	5.34
473.772	5.38
473.976	5.36
474.18	5.35
474.384	5.33
474.588	5.29
474.792	5.35
474.995	5.39
475.199	5.38
475.403	5.43
475.607	5.45
475.811	5.49
476.015	5.6
476.218	5.59
476.422	5.58
476.626	5.61
476.83	5.63
477.033	5.64
477.237	5.63
477.441	5.57
477.644	5.62
477.848	5.63
478.052	5.69
478.255	5.67
478.459	5.75
478.663	5.76
478.866	5.75
479.07	5.76
479.273	5.71
479.477	5.69
479.681	5.7
479.884	5.68
480.088	5.71
480.291	5.76
480.495	5.8
480.698	5.86
480.901	5.86
481.105	5.9
481.308	5.9
481.512	5.9
481.715	5.92
481.919	5.89
482.122	5.91
482.325	5.96
482.529	6
482.732	6.04
482.935	6.04
483.138	6.06
483.342	6.06
483.545	6.08
483.748	6.08
483.952	6.06
484.155	6.07
484.358	6.09
484.561	6.1
484.764	6.11
484.967	6.13
485.171	6.12
485.374	6.12
485.577	6.11
485.78	6.12
485.983	6.12
486.186	6.13
486.389	6.08
486.592	6.14
486.795	6.08
486.998	6.11
487.201	6.11
487.404	6.18
487.607	6.19
487.81	6.23
488.013	6.19
488.216	6.22
488.419	6.21
488.622	6.18
488.825	6.11
489.028	6.12
489.231	6.11
489.433	6.1
489.636	6.09
489.839	6.08
490.042	6.12
490.245	6.12
490.447	6.11
490.65	6.1
490.853	6.11
491.056	6.12
491.258	6.17
491.461	6.16
491.664	6.15
491.866	6.17
492.069	6.15
492.272	6.15
492.474	6.15
492.677	6.13
492.879	6.14
493.082	6.17
493.285	6.18
493.487	6.17
493.69	6.16
493.892	6.21
494.095	6.17
494.297	6.22
494.5	6.22
494.702	6.19
494.905	6.25
495.107	6.28
495.309	6.23
495.512	6.29
495.714	6.28
495.917	6.34
496.119	6.44
496.321	6.46
496.524	6.45
496.726	6.48
496.928	6.48
497.13	6.49
497.333	6.47
497.535	6.44
497.737	6.42
497.939	6.44
498.142	6.43
498.344	6.42
498.546	6.45
498.748	6.46
498.95	6.44
499.152	6.46
499.355	6.49
499.557	6.59
499.759	6.68
499.961	6.69
500.163	6.75
500.365	6.78
500.567	6.79
500.769	6.87
500.971	6.79
501.173	6.8
501.375	6.8
501.577	6.79
501.779	6.79
501.981	6.81
502.183	6.75
502.385	6.8
502.587	6.8
502.788	6.82
502.99	6.82
503.192	6.85
503.394	6.88
503.596	6.91
503.798	7.02
503.999	7.03
504.201	7.07
504.403	7.12
504.605	7.15
504.806	7.17
505.008	7.21
505.21	7.16
505.411	7.21
505.613	7.21
505.815	7.25
506.016	7.28
506.218	7.3
506.42	7.32
506.621	7.35
506.823	7.38
507.024	7.4
507.226	7.42
507.427	7.41
507.629	7.46
507.83	7.47
508.032	7.55
508.233	7.54
508.435	7.59
508.636	7.62
508.838	7.68
509.039	7.68
509.24	7.7
509.442	7.62
509.643	7.66
509.845	7.69
510.046	7.68
510.247	7.7
510.448	7.73
510.65	7.8
510.851	7.88
511.052	7.92
511.254	7.9
511.455	7.96
511.656	7.97
511.857	8.02
512.058	7.99
512.26	8.01
512.461	8.02
512.662	8.08
512.863	8.07
513.064	8.08
513.265	8.09
513.466	8.15
513.667	8.17
513.868	8.2
514.069	8.22
514.27	8.27
514.471	8.32
514.672	8.34
514.873	8.38
515.074	8.42
515.275	8.41
515.476	8.43
515.677	8.45
515.878	8.51
516.079	8.56
516.28	8.53
516.481	8.53
516.682	8.58
516.882	8.59
517.083	8.59
517.284	8.56
517.485	8.57
517.686	8.58
517.886	8.58
518.087	8.58
518.288	8.6
518.488	8.63
518.689	8.62
518.89	8.65
519.091	8.67
519.291	8.68
519.492	8.73
519.692	8.74
519.893	8.75
520.094	8.78
520.294	8.73
520.495	8.72
520.695	8.75
520.896	8.76
521.096	8.78
521.297	8.8
521.497	8.81
521.698	8.83
521.898	8.9
522.099	8.9
522.299	8.9
522.499	8.9
522.7	8.91
522.9	8.95
523.101	9.01
523.301	8.99
523.501	9.01
523.702	9.02
523.902	9.06
524.102	9.08
524.302	9.09
524.503	9.14
524.703	9.18
524.903	9.22
525.103	9.24
525.304	9.24
525.504	9.24
525.704	9.24
525.904	9.24
526.104	9.24
526.304	9.27
526.504	9.29
526.705	9.29
526.905	9.35
527.105	9.37
527.305	9.34
527.505	9.37
527.705	9.35
527.905	9.34
528.105	9.36
528.305	9.36
528.505	9.39
528.705	9.43
528.905	9.43
529.105	9.47
529.304	9.51
529.504	9.52
529.704	9.55
529.904	9.56
530.104	9.57
530.304	9.59
530.503	9.58
530.703	9.63
530.903	9.66
531.103	9.69
531.303	9.73
531.502	9.74
531.702	9.76
531.902	9.81
532.101	9.83
532.301	9.84
532.501	9.83
532.7	9.83
532.9	9.88
533.1	9.9
533.299	9.93
533.499	9.94
533.698	9.99
533.898	10.03
534.097	10.08
534.297	10.09
534.496	10.11
534.696	10.12
534.895	10.16
535.095	10.2
535.294	10.21
535.494	10.2
535.693	10.25
535.892	10.3
536.092	10.31
536.291	10.35
536.491	10.37
536.69	10.36
536.889	10.38
537.088	10.39
537.288	10.43
537.487	10.48
537.686	10.47
537.886	10.48
538.085	10.57
538.284	10.64
538.483	10.69
538.682	10.7
538.882	10.72
539.081	10.78
539.28	10.82
539.479	10.83
539.678	10.88
539.877	10.89
540.076	10.96
540.275	10.99
540.474	11
540.673	11.07
540.872	11.12
541.071	11.16
541.27	11.19
541.469	11.22
541.668	11.28
541.867	11.34
542.066	11.35
542.265	11.4
542.464	11.45
542.663	11.54
542.862	11.61
543.06	11.68
543.259	11.72
543.458	11.79
543.657	11.81
543.856	11.85
544.054	11.86
544.253	11.88
544.452	11.86
544.651	11.9
544.849	11.95
545.048	11.99
545.247	12.01
545.445	12.07
545.644	12.13
545.843	12.22
546.041	12.28
546.24	12.36
546.438	12.41
546.637	12.48
546.836	12.53
547.034	12.59
547.233	12.63
547.431	12.7
547.63	12.74
547.828	12.79
548.027	12.84
548.225	12.89
548.423	12.96
548.622	13.04
548.82	13.11
549.019	13.19
549.217	13.31
549.415	13.43
549.614	13.5
549.812	13.52
550.01	13.61
550.209	13.7
550.407	13.75
550.605	13.83
550.803	13.9
551.002	14.01
551.2	14.17
551.398	14.21
551.596	14.28
551.794	14.41
551.993	14.45
552.191	14.57
552.389	14.68
552.587	14.71
552.785	14.82
552.983	14.92
553.181	14.94
553.379	15.04
553.577	15.15
553.775	15.21
553.973	15.34
554.171	15.42
554.369	15.49
554.567	15.61
554.765	15.65
554.963	15.7
555.161	15.8
555.359	15.84
555.557	15.98
555.755	16.12
555.952	16.22
556.15	16.33
556.348	16.43
556.546	16.54
556.744	16.7
556.941	16.79
557.139	16.9
557.337	16.97
557.535	17.13
557.732	17.29
557.93	17.36
558.128	17.45
558.325	17.56
558.523	17.67
558.721	17.86
558.918	17.99
559.116	18.06
559.313	18.17
559.511	18.23
559.708	18.35
559.906	18.41
560.104	18.48
560.301	18.54
560.498	18.65
560.696	18.77
560.893	18.94
561.091	19.04
561.288	19.17
561.486	19.28
561.683	19.43
561.88	19.5
562.078	19.62
562.275	19.76
562.473	19.86
562.67	19.96
562.867	20.11
563.064	20.21
563.262	20.42
563.459	20.54
563.656	20.64
563.853	20.78
564.051	20.86
564.248	20.97
564.445	21.08
564.642	21.14
564.839	21.25
565.036	21.34
565.234	21.47
565.431	21.62
565.628	21.73
565.825	21.85
566.022	21.96
566.219	22.04
566.416	22.16
566.613	22.23
566.81	22.32
567.007	22.38
567.204	22.49
567.401	22.6
567.598	22.72
567.795	22.78
567.991	22.88
568.188	22.95
568.385	23.08
568.582	23.13
568.779	23.23
568.976	23.33
569.172	23.48
569.369	23.55
569.566	23.63
569.763	23.7
569.96	23.77
570.156	23.82
570.353	23.89
570.55	23.92
570.746	24.01
570.943	24.1
571.14	24.15
571.336	24.23
571.533	24.3
571.729	24.33
571.926	24.37
572.123	24.37
572.319	24.42
572.516	24.46
572.712	24.54
572.909	24.63
573.105	24.71
573.302	24.75
573.498	24.81
573.695	24.89
573.891	24.94
574.087	24.96
574.284	24.95
574.48	24.93
574.677	24.99
574.873	25.1
575.069	25.13
575.266	25.12
575.462	25.16
575.658	25.2
575.854	25.25
576.051	25.27
576.247	25.23
576.443	25.24
576.639	25.3
576.835	25.34
577.032	25.39
577.228	25.42
577.424	25.43
577.62	25.46
577.816	25.44
578.012	25.44
578.208	25.44
578.404	25.46
578.6	25.48
578.796	25.48
578.993	25.47
579.189	25.47
579.384	25.46
579.58	25.44
579.776	25.36
579.972	25.31
580.168	25.31
580.364	25.28
580.56	25.29
580.756	25.27
580.952	25.25
581.148	25.27
581.343	25.26
581.539	25.22
581.735	25.22
581.931	25.17
582.127	25.18
582.322	25.18
582.518	25.14
582.714	25.11
582.909	25.09
583.105	25.05
583.301	25
583.496	24.95
583.692	24.86
583.888	24.82
584.083	24.84
584.279	24.9
584.474	24.88
584.67	24.97
584.866	24.99
585.061	25.05
585.257	25.06
585.452	25.05
585.648	25
585.843	25.06
586.039	25.02
586.234	25.01
586.429	25.04
586.625	25.02
586.82	24.97
587.015	24.94
587.211	24.94
587.406	24.94
587.601	24.91
587.797	24.85
587.992	24.85
588.187	24.88
588.383	24.95
588.578	24.91
588.773	24.91
588.968	24.95
589.163	24.97
589.359	24.95
589.554	25
589.749	25.01
589.944	25.06
590.139	25.12
590.334	25.15
590.529	25.22
590.724	25.29
590.919	25.31
591.114	25.31
591.309	25.33
591.504	25.3
591.699	25.28
591.894	25.26
592.089	25.32
592.284	25.34
592.479	25.36
592.674	25.38
592.869	25.48
593.064	25.58
593.259	25.66
593.454	25.67
593.648	25.71
593.843	25.77
594.038	25.84
594.233	25.89
594.428	25.98
594.622	26.02
594.817	26.1
595.012	26.2
595.206	26.27
595.401	26.28
595.596	26.38
595.79	26.4
595.985	26.44
596.18	26.52
596.374	26.62
596.569	26.7
596.763	26.87
596.958	26.89
597.153	26.94
597.347	27.08
597.542	27.14
597.736	27.17
597.931	27.27
598.125	27.29
598.319	27.37
598.514	27.42
598.708	27.47
598.903	27.56
599.097	27.65
599.291	27.67
599.486	27.72
599.68	27.71
599.874	27.82
600.069	27.86
600.263	27.88
600.457	27.89
600.651	27.96
600.846	27.97
601.04	27.99
601.234	28.03
601.428	28.02
601.622	28.04
601.817	28.07
602.011	28.12
602.205	28.16
602.399	28.23
602.593	28.22
602.787	28.28
602.981	28.36
603.175	28.34
603.369	28.31
603.563	28.31
603.757	28.31
603.951	28.31
604.145	28.25
604.339	28.19
604.533	28.18
604.727	28.15
604.921	28.13
605.115	28.11
605.309	28.1
605.502	28.16
605.696	28.11
605.89	28.09
606.084	28.07
606.278	28.01
606.471	27.96
606.665	27.86
606.859	27.78
607.053	27.74
607.246	27.67
607.44	27.6
607.634	27.55
607.827	27.44
608.021	27.34
608.214	27.25
608.408	27.16
608.602	27.1
608.795	27
608.989	26.94
609.182	26.96
609.376	26.86
609.569	26.78
609.763	26.76
609.956	26.64
610.15	26.62
610.343	26.54
610.537	26.4
610.73	26.42
610.923	26.36
611.117	26.21
611.31	26.18
611.504	26.06
611.697	25.97
611.89	25.89
612.083	25.75
612.277	25.64
612.47	25.62
612.663	25.56
612.856	25.44
613.05	25.36
613.243	25.31
613.436	25.23
613.629	25.15
613.822	25.01
614.015	24.87
614.209	24.86
614.402	24.77
614.595	24.66
614.788	24.59
614.981	24.49
615.174	24.44
615.367	24.39
615.56	24.23
615.753	24.12
615.946	24.09
616.139	24.04
616.332	23.97
616.525	23.94
616.718	23.84
616.911	23.87
617.103	23.86
617.296	23.78
617.489	23.71
617.682	23.71
617.875	23.58
618.067	23.55
618.26	23.44
618.453	23.33
618.646	23.29
618.838	23.21
619.031	23.12
619.224	23.12
619.417	23.05
619.609	22.99
619.802	22.99
619.994	22.89
620.187	22.88
620.38	22.8
620.572	22.79
620.765	22.77
620.957	22.71
621.15	22.62
621.342	22.66
621.535	22.59
621.727	22.56
621.92	22.44
622.112	22.4
622.305	22.36
622.497	22.31
622.69	22.22
622.882	22.19
623.074	22.2
623.267	22.18
623.459	22.13
623.651	22.18
623.844	22.23
624.036	22.19
624.228	22.17
624.42	22.09
624.613	22.07
624.805	22.08
624.997	21.98
625.189	21.93
625.381	21.87
625.574	21.86
625.766	21.84
625.958	21.81
626.15	21.77
626.342	21.72
626.534	21.63
626.726	21.65
626.918	21.6
627.11	21.58
627.302	21.53
627.494	21.48
627.686	21.47
627.878	21.43
628.07	21.37
628.262	21.32
628.454	21.33
628.646	21.3
628.838	21.2
629.029	21.09
629.221	21.03
629.413	20.98
629.605	20.9
629.797	20.83
629.989	20.77
630.18	20.72
630.372	20.72
630.564	20.75
630.755	20.76
630.947	20.7
631.139	20.62
631.33	20.61
631.522	20.55
631.714	20.53
631.905	20.47
632.097	20.41
632.289	20.39
632.48	20.34
632.672	20.27
632.863	20.3
633.055	20.28
633.246	20.27
633.438	20.26
633.629	20.31
633.821	20.36
634.012	20.35
634.203	20.36
634.395	20.34
634.586	20.28
634.777	20.22
634.969	20.16
635.16	20.1
635.351	20.16
635.543	20.12
635.734	20.08
635.925	20.16
636.117	20.17
636.308	20.14
636.499	20.15
636.69	20.16
636.881	20.23
637.073	20.27
637.264	20.23
637.455	20.29
637.646	20.33
637.837	20.35
638.028	20.34
638.219	20.25
638.41	20.22
638.601	20.16
638.792	20.07
638.983	20.04
639.174	20.01
639.365	19.91
639.556	19.89
639.747	19.91
639.938	19.98
640.129	19.98
640.32	19.99
640.511	19.98
640.701	19.98
640.892	20
641.083	19.92
641.274	19.83
641.465	19.84
641.655	19.78
641.846	19.71
642.037	19.7
642.228	19.66
642.418	19.64
642.609	19.6
642.8	19.52
642.99	19.52
643.181	19.53
643.372	19.5
643.562	19.47
643.753	19.45
643.943	19.41
644.134	19.4
644.324	19.39
644.515	19.42
644.705	19.41
644.896	19.34
645.086	19.31
645.277	19.39
645.467	19.38
645.658	19.29
645.848	19.28
646.038	19.22
646.229	19.24
646.419	19.23
646.61	19.14
646.8	19.12
646.99	19.1
647.18	19.01
647.371	19.01
647.561	18.97
647.751	18.94
647.941	18.92
648.132	18.91
648.322	18.89
648.512	18.92
648.702	18.91
648.892	18.92
649.082	18.88
649.272	18.81
649.462	18.78
649.653	18.8
649.843	18.73
650.033	18.7
650.223	18.64
650.413	18.63
650.603	18.65
650.793	18.61
650.983	18.62
651.172	18.59
651.362	18.54
651.552	18.48
651.742	18.41
651.932	18.33
652.122	18.28
652.312	18.14
652.502	18.06
652.691	18.03
652.881	17.98
653.071	17.91
653.261	17.89
653.45	17.8
653.64	17.74
653.83	17.62
654.019	17.41
654.209	17.33
654.399	17.28
654.588	17.08
654.778	16.96
654.968	16.81
655.157	16.7
655.347	16.59
655.536	16.38
655.726	16.2
655.915	16.09
656.105	15.99
656.294	15.84
656.484	15.71
656.673	15.59
656.863	15.49
657.052	15.32
657.241	15.14
657.431	14.89
657.62	14.68
657.809	14.5
657.999	14.37
658.188	14.2
658.377	14.11
658.567	13.99
658.756	13.88
658.945	13.76
659.134	13.6
659.324	13.37
659.513	13.16
659.702	12.93
659.891	12.75
660.08	12.56
660.269	12.42
660.458	12.27
660.648	12.13
660.837	12.06
661.026	11.94
661.215	11.81
661.404	11.69
661.593	11.51
661.782	11.36
661.971	11.23
662.16	11.02
662.349	10.84
662.538	10.72
662.726	10.56
662.915	10.45
663.104	10.29
663.293	10.17
663.482	10.07
663.671	9.99
663.86	9.83
664.048	9.75
664.237	9.65
664.426	9.6
664.615	9.5
664.803	9.37
664.992	9.27
665.181	9.22
665.369	9.1
665.558	9.08
665.747	9.06
665.935	8.96
666.124	8.97
666.312	8.86
666.501	8.77
666.69	8.76
666.878	8.68
667.067	8.62
667.255	8.59
667.444	8.52
667.632	8.54
667.82	8.52
668.009	8.5
668.197	8.45
668.386	8.36
668.574	8.37
668.762	8.4
668.951	8.36
669.139	8.35
669.327	8.34
669.516	8.37
669.704	8.43
669.892	8.42
670.08	8.39
670.269	8.45
670.457	8.46
670.645	8.49
670.833	8.49
671.021	8.49
671.21	8.55
671.398	8.52
671.586	8.52
671.774	8.58
671.962	8.59
672.15	8.6
672.338	8.6
672.526	8.59
672.714	8.67
672.902	8.7
673.09	8.77
673.278	8.79
673.466	8.97
673.654	9.06
673.842	9.14
674.03	9.27
674.218	9.32
674.405	9.42
674.593	9.52
674.781	9.5
674.969	9.55
675.157	9.58
675.344	9.68
675.532	9.81
675.72	9.79
675.908	9.84
676.095	9.97
676.283	10.07
676.471	10.2
676.658	10.26
676.846	10.36
677.033	10.48
677.221	10.63
677.409	10.72
677.596	10.88
677.784	10.99
677.971	11.1
678.159	11.19
678.346	11.32
678.534	11.42
678.721	11.54
678.909	11.6
679.096	11.7
679.283	11.83
679.471	11.97
679.658	12.08
679.846	12.23
680.033	12.35
680.22	12.45
680.408	12.55
680.595	12.67
680.782	12.82
680.969	12.93
681.157	13.06
681.344	13.24
681.531	13.41
681.718	13.63
681.905	13.81
682.093	14.01
682.28	14.27
682.467	14.41
682.654	14.54
682.841	14.8
683.028	15.06
683.215	15.31
683.402	15.45
683.589	15.66
683.776	15.95
683.963	16.18
684.15	16.43
684.337	16.64
684.524	16.89
684.711	17.17
684.898	17.47
685.085	17.74
685.271	18.06
685.458	18.38
685.645	18.69
685.832	18.99
686.019	19.38
686.205	19.69
686.392	20.11
686.579	20.54
686.766	20.93
686.952	21.46
687.139	21.8
687.326	22.29
687.512	22.75
687.699	23.16
687.886	23.59
688.072	24.11
688.259	24.51
688.445	25.01
688.632	25.56
688.818	26
689.005	26.6
689.191	27.18
689.378	27.62
689.564	28.17
689.751	28.92
689.937	29.36
690.124	30.09
690.31	30.68
690.496	31.32
690.683	32.03
690.869	32.65
691.055	33.29
691.242	33.96
691.428	34.58
691.614	35.31
691.8	35.94
691.987	36.7
692.173	37.53
692.359	38.11
692.545	38.78
692.731	39.46
692.918	40.11
693.104	40.77
693.29	41.49
693.476	41.91
693.662	42.74
693.848	43.39
694.034	43.93
694.22	44.61
694.406	45.27
694.592	45.77
694.778	46.52
694.964	47.18
695.15	47.88
695.336	48.69
695.522	49.23
695.708	49.93
695.894	50.68
696.08	51.39
696.265	51.91
696.451	52.67
696.637	53.27
696.823	53.94
697.009	54.57
697.194	55.17
697.38	55.63
697.566	56.14
697.751	56.61
697.937	57.12
698.123	57.77
698.308	58.18
698.494	58.57
698.68	59.12
698.865	59.68
699.051	60.21
699.236	60.74
699.422	61.22
699.607	61.64
699.793	62.19
699.978	62.43
700.164	62.94
700.349	63.33
700.535	63.89
700.72	64.21
700.906	64.8
701.091	65.13
701.276	65.83
701.462	66.14
701.647	66.54
701.832	66.78
702.018	67.26
702.203	67.55
702.388	67.82
702.573	68.19
702.759	68.44
702.944	68.73
703.129	68.98
703.314	69.33
703.499	69.73
703.684	70.28
703.87	70.64
704.055	71.02
704.24	71.44
704.425	71.89
704.61	72.16
704.795	72.56
704.98	72.69
705.165	72.81
705.35	72.94
705.535	73.39
705.72	73.67
705.905	73.66
706.09	73.68
706.275	73.83
706.459	74.21
706.644	74.57
706.829	74.58
707.014	74.64
707.199	74.78
707.384	75
707.568	75.44
707.753	75.53
707.938	75.91
708.123	76.06
708.307	76.37
708.492	76.68
708.677	76.89
708.861	77.02
709.046	77.22
709.231	77.29
709.415	77.54
709.6	77.65
709.784	77.96
709.969	78.14
710.153	78.5
710.338	78.5
710.522	78.56
710.707	78.29
710.891	78.66
711.076	78.54
711.26	78.68
711.445	78.52
711.629	78.81
711.813	78.91
711.998	79.29
712.182	79.32
712.366	79.82
712.551	79.99
712.735	80.16
712.919	80.21
713.103	80.33
713.288	80.57
713.472	80.49
713.656	80.25
713.84	80.33
714.024	80.59
714.208	80.94
714.393	81.11
714.577	81.24
714.761	81.41
714.945	81.74
715.129	81.92
715.313	81.79
715.497	81.88
715.681	82.17
715.865	82.18
716.049	82.49
716.233	82.78
716.417	82.9
716.601	83.16
716.785	83.1
716.968	83.15
717.152	83.25
717.336	83.22
717.52	83.05
717.704	83.22
717.888	83.3
718.071	83.47
718.255	83.48
718.439	83.17
718.622	83.24
718.806	83.07
718.99	82.89
719.174	82.9
719.357	83.04
719.541	83.15
719.724	83.61
719.908	83.63
720.092	84.03
720.275	84.22
720.459	84.36
720.642	84.59
720.826	84.77
721.009	84.73
721.193	84.67
721.376	84.59
721.559	84.95
721.743	85.19
721.926	84.75
722.11	84.8
722.293	84.61
722.476	84.61
722.66	84.71
722.843	84.39
723.026	84.28
723.21	84.36
723.393	84.44
723.576	84.79
723.759	85.16
723.942	84.96
724.126	84.91
724.309	84.93
724.492	85.3
724.675	85.28
724.858	85.66
725.041	85.51
725.224	86.09
725.407	86.29
725.59	86.47
725.774	86.63
725.957	86.7
726.14	86.73
726.322	86.83
726.505	87.03
726.688	87.14
726.871	87.24
727.054	87.29
727.237	86.86
727.42	86.84
727.603	87.06
727.786	87.1
727.968	87.4
728.151	87.43
728.334	87.06
728.517	87.5
728.699	87.68
728.882	88.11
729.065	88.01
729.248	87.74
729.43	87.77
729.613	88.36
729.796	88.39
729.978	88.35
730.161	88.46
730.343	88.63
730.526	89.1
730.708	89.36
730.891	89.4
731.073	89.67
731.256	89.84
731.438	89.82
731.621	89.91
731.803	89.96
731.986	90.08
732.168	89.89
732.35	90.14
732.533	90.35
732.715	90.22
732.898	90.39
733.08	90.55
733.262	90.28
733.444	90.39
733.627	90.33
733.809	90.52
733.991	90.71
734.173	90.24
734.355	90.39
734.538	90.43
734.72	91
734.902	90.92
735.084	90.79
735.266	91.26
735.448	91.66
735.63	91.66
735.812	92
735.994	91.53
736.176	91.37
736.358	91.39
736.54	90.67
736.722	90.61
736.904	90.57
737.086	90.34
737.268	90.49
737.45	90.9
737.632	90.63
737.814	91.31
737.995	91.63
738.177	91.8
738.359	92.34
738.541	92.21
738.723	92.23
738.904	92.25
739.086	92.05
739.268	92.32
739.449	92.19
739.631	92.07
739.813	92.11
739.994	92.62
740.176	93.14
740.358	92.93
740.539	92.5
740.721	92.19
740.902	91.87
741.084	92.08
741.265	91.72
741.447	91.24
741.628	91.34
741.81	91.5
741.991	91.96
742.172	92.15
742.354	92.51
742.535	92.43
742.717	92.61
742.898	92.87
743.079	92.66
743.261	93.18
743.442	93.61
743.623	93.1
743.804	93.48
743.986	93.67
744.167	93.18
744.348	93.69
744.529	92.89
744.71	92.18
744.891	92.68
745.073	92.39
745.254	92.22
745.435	92.3
745.616	91.71
745.797	91.76
745.978	92.7
746.159	92.47
746.34	92.42
746.521	92.35
746.702	92.33
746.883	93.01
747.064	92.98
747.245	92.59
747.426	92.44
747.606	92.48
747.787	92.67
747.968	93.31
748.149	92.77
748.33	93.12
748.51	92.91
748.691	93.08
748.872	92.84
749.053	92.69
749.233	92.31
749.414	92.32
749.595	91.72
749.775	91.56
749.956	90.85
750.137	90.67
750.317	90.52
750.498	90.32
750.678	90.52
750.859	90.46
751.04	90.33
751.22	90.35
751.4	90.91
751.581	90.74
751.761	91
751.942	90.88
752.122	90.76
752.303	90.97
752.483	91.25
752.663	91.39
752.844	91.29
753.024	91.4
753.204	91.37
753.385	91.57
753.565	90.82
753.745	90.1
753.925	89.81
754.106	90.48
754.286	90.29
754.466	90.5
754.646	90.22
754.826	90.59
755.006	91.32
755.187	91.2
755.367	90.7
755.547	90.79
755.727	90.43
755.907	90.6
756.087	91.16
756.267	91.14
756.447	91.02
756.627	90.89
756.807	91
756.987	91.61
757.167	91.77
757.346	90.66
757.526	90.61
757.706	90.57
757.886	90.74
758.066	90.07
758.246	89.74
758.425	90.08
758.605	90.3
758.785	90.03
758.965	88.81
759.144	89.17
759.324	89.53
759.504	88.91
759.683	88.53
759.863	88.18
760.043	88.71
760.222	89.14
760.402	89.6
760.581	89.01
760.761	89.19
760.94	88.4
761.12	88.93
761.299	88.65
761.479	89.44
761.658	87.98
761.838	87.66
762.017	87.94
762.197	88.76
762.376	88.21
762.555	87.91
762.735	87.35
762.914	88.55
763.093	89.3
763.273	89.11
763.452	88.87
763.631	89.13
763.81	89.86
763.99	89.98
764.169	88.93
764.348	88.97
764.527	88.28
764.706	87.92
764.885	89.58
765.064	88.94
765.243	88.45
765.423	89
765.602	88.24
765.781	88.18
765.96	88.74
766.139	86.85
766.318	87.34
766.497	87.94
766.676	89.16
766.854	88.07
767.033	88.63
767.212	87.85
767.391	87.23
767.57	86.01
767.749	86.16
767.928	84.66
768.106	86.16
768.285	86.24
768.464	87.25
768.643	88.69
768.821	88.93
769	88.75
769.179	88.15
769.357	87.17
769.536	87.16
769.715	86.33
769.893	85.67
770.072	85.85
770.25	85.77
770.429	86.66
770.607	88.3
770.786	88.17
770.964	87.83
771.143	87.03
771.321	86.22
771.5	86.29
771.678	86.73
771.857	85.41
772.035	85.22
772.213	85.85
772.392	87.01
772.57	87.92
772.748	87.26
772.927	85.97
773.105	87.27
773.283	86.24
773.461	85.33
773.64	84.51
773.818	84.01
773.996	84.2
774.174	84.79
774.352	83.29
774.531	83.02
774.709	84.2
774.887	84.33
775.065	83.76
775.243	84.34
775.421	83.37
775.599	82.93
775.777	84.67
775.955	83.59
776.133	82.29
776.311	82.97
776.489	82.77
776.667	83.86
776.844	84.18
777.022	83
777.2	83.1
777.378	85.65
777.556	85.77
777.734	85.3
777.911	85.75
778.089	86.3
778.267	85.97
778.445	85.62
778.622	84.15
778.8	83.99
778.978	84.09
779.155	82.72
779.333	81.12
779.511	81.86
779.688	81.42
779.866	81.01
780.043	81.01
780.221	80.96
780.398	81.93
780.576	82.87
780.753	82.06
780.931	83.84
781.108	85.09
781.286	84.53
781.463	84.24
781.64	84.02
781.818	84.56
781.995	85.27
782.172	83.82
782.35	82.52
782.527	83.48
782.704	83.73
782.882	83.47
783.059	82.79
783.236	82.87
783.413	83.13
783.59	82.03
783.768	80.47
783.945	80.16
784.122	79.62
784.299	80.34
784.476	80.04
784.653	79.01
784.83	79.94
785.007	80.6
785.184	80.88
785.361	80.36
785.538	80.47
785.715	79.34
785.892	79.13
786.069	79.3
786.246	78.23
786.423	78.61
786.6	78.57
786.776	79.25
786.953	80.1
787.13	82.36
787.307	83.96
787.484	86.16
787.66	84.27
787.837	83.52
788.014	81.41
788.191	80.29
788.367	78.39
788.544	77.75
788.721	78.35
788.897	80.1
789.074	81.62
789.25	81.9
789.427	82.53
789.603	83.55
789.78	83.42
789.956	82.65
790.133	83.52
790.309	82.55
790.486	83.4
790.662	85.76
790.839	86.06
791.015	86.74
791.192	86.34
791.368	85.83
791.544	87.72
791.721	86.16
791.897	84.71
792.073	83.17
792.249	84.29
792.426	84.37
792.602	80.47
792.778	77.71
792.954	77.22
793.13	77.64
793.307	77.12
793.483	75.39
793.659	76.24
793.835	77.96
794.011	77.66
794.187	76.34
794.363	75.66
794.539	77.17
794.715	75.68
794.891	72.09
795.067	73.42
795.243	72.45
795.419	77.27
795.595	77.49
795.771	77.9
795.947	76.8
796.122	76.68
796.298	76.19
796.474	77.8
796.65	76.32
796.826	78.12
797.001	78.44
797.177	80.97
797.353	83.81
797.529	83.44
797.704	84.49
797.88	80.67
798.056	80.66
798.231	80.19
798.407	80.62
798.582	79.28
798.758	82.34
798.934	81.06
799.109	83.25
799.285	80.68
799.46	80.34
799.636	80.24
799.811	82.09
799.986	82.17
800.162	84.49
800.337	83.86
800.513	83.6
800.688	84.28
800.863	86.16
801.039	84.86
801.214	83.23
801.389	82.48
801.565	87.44
801.74	84.28
801.915	85.05
802.09	82.87
802.265	83.15
802.441	82.89
802.616	80.52
802.791	76.59
802.966	78.42
803.141	73.33
803.316	72.96
803.491	70.05
803.666	68.29
803.841	70.74
804.016	71.09
804.191	71.28
804.366	71.37
804.541	69.54
804.716	70.45
804.891	74.4
805.066	72.44
805.241	71
805.416	72.68
805.591	78.97
805.765	78.18
805.94	75.24
806.115	68.88
806.29	69.18
806.464	68.7
806.639	65.72
806.814	59.22
806.989	60.5
807.163	64.42
807.338	68.31
807.512	66.47
807.687	69.59
807.862	69.16
808.036	71.25
808.211	71.96
808.385	69.91
808.56	77.21
808.734	78.97
808.909	77.93
809.083	79.49
809.258	83.2
809.432	81.46
809.606	81.64
809.781	74.08
809.955	80.44
810.13	82.93
810.304	82.76
810.478	79.15
810.652	79.5
810.827	82.28
811.001	81.36
811.175	76.46
811.349	70.74
811.524	70.47
811.698	69.98
811.872	73.08
812.046	72.53
812.22	69.98
812.394	68.21
812.568	74.14
812.742	74.58
812.916	76.35
813.09	73.46
813.264	74.16
813.438	83.93
813.612	82.5
813.786	79.92
813.96	84.85
814.134	90.66
814.308	90.59
814.482	87.38
814.656	84.38
814.83	86.44
815.003	90.64
815.177	86.68
815.351	83.72
815.525	80.39
815.698	79.08
815.872	75.89
816.046	78.86
816.219	78.49
816.393	73.73
816.567	67.61
816.74	70.17
816.914	71.87
817.088	70.02
817.261	65.88
817.435	58.19
817.608	62.29
817.782	71.59
817.955	72.92
818.129	81.58
818.302	84.11
818.475	88.04
818.649	90
818.822	87.07
818.996	83.09
819.169	81.73
819.342	76
819.516	74.97
819.689	72.83
819.862	72.43
820.035	69.98
820.209	65.03
820.382	62.78
820.555	61.57
820.728	54.12
820.901	51.88
821.075	56.5
821.248	60.63
821.421	60.86
821.594	62.46
821.767	64.9
821.94	66.4
822.113	70.36
822.286	70.02
822.459	75.24
822.632	77.53
822.805	78.68
822.978	69.18
823.151	71.75
823.324	62.12
823.496	53.25
823.669	48.04
823.842	49.44
824.015	37.5
824.188	41.55
824.361	46.72
824.533	50.3
824.706	60.88
824.879	62.1
825.051	61.66
825.224	70.71
825.397	64.98
825.569	68.94
825.742	69.28
825.915	64.81
826.087	63.9
826.26	68.71
826.432	74.71
826.605	75.37
826.777	68.65
826.95	69.95
827.122	67.37
827.295	71.23
827.467	60.03
827.64	48.08
827.812	50.8
827.984	51.08
828.157	51.93
828.329	58.99
828.501	61.8
828.674	64.24
828.846	73.94
829.018	71.3
829.19	69.21
829.363	69.66
829.535	65.25
829.707	54.92
829.879	58.9
830.051	57.98
830.223	49.84
830.395	48.95
830.568	53.59
830.74	55.9
830.912	56.86
831.084	51.91
831.256	48.34
831.428	62.91
831.6	67.13
831.772	65.66
831.943	71.24
832.115	74.96
832.287	83.39
832.459	92.72
832.631	82.23
832.803	86.26
832.975	87.52
833.146	73.85
833.318	71.12
833.49	77.53
833.662	73.28
833.833	82.5
834.005	76.42
834.177	68.57
834.348	75.64
834.52	80.76
834.692	72.06
834.863	70.2
835.035	65.81
835.206	61.43
835.378	65.95
835.549	66.86
835.721	63.39
835.892	67.97
836.064	67.41
836.235	65.78
836.407	66.59
836.578	72.51
836.749	74.99
836.921	77.53
837.092	76.26
837.264	82.23
837.435	76.03
837.606	70.88
837.777	51.31
837.949	34.33
838.12	25.79
838.291	25.96
838.462	27.29
838.633	28.9
838.805	31.85
838.976	41.02
839.147	48.23
839.318	49.55
839.489	51.46
839.66	52.79
839.831	44
840.002	43.37
840.173	39.48
840.344	44.8
840.515	45.5
840.686	38.33
840.857	29.43
841.028	49.88
841.199	47.1
841.369	51.43
841.54	53.36
841.711	66.15
841.882	69.47
842.053	74.22
842.223	60.82
842.394	77.64
842.565	87.44
842.736	89.59
842.906	87.37
843.077	83.25
843.248	80.26
843.418	87.55
843.589	86.17
843.759	80.08
843.93	79.42
844.101	70.06
844.271	66.75
844.442	71.48
844.612	62.94
844.783	40.09
844.953	32.81
845.123	38.2
845.294	39.9
845.464	46.77
845.635	33.99
845.805	35.35
845.975	44.82
846.146	41.23
846.316	34.97
846.486	46.09
846.656	55.63
846.827	64.58
846.997	72.31
847.167	70.18
847.337	78.41
847.507	81.36
847.677	87.21
847.848	86.83
848.018	72.03
848.188	63.57
848.358	77.69
848.528	67.48
848.698	38.32
848.868	25.8
849.038	21.51
849.208	31.53
849.378	36
849.548	39
849.718	47.59
849.887	54.27
850.057	56.81
850.227	53.98
850.397	60.01
850.567	83.52
850.737	70.66
850.906	48.19
851.076	53.08
851.246	66.2
851.415	79.56
851.585	83.23
851.755	66.01
851.924	73.75
852.094	84.37
852.264	86.05
852.433	76.88
852.603	76.06
852.772	69.28
852.942	63.69
853.111	60.54
853.281	65.66
853.45	65.96
853.62	60.8
853.789	52.65
853.959	45.77
854.128	36.37
854.297	34.54
854.467	29.44
854.636	30.09
854.805	42.81
854.975	44.7
855.144	53.8
855.313	74.14
855.482	78.54
855.652	66.16
855.821	59.92
855.99	59.11
856.159	56.19
856.328	64.45
856.497	52.49
856.667	50.81
856.836	55.96
857.005	58.82
857.174	59.26
857.343	56.25
857.512	55.68
857.681	48.8
857.85	46.52
858.019	55.81
858.188	44.44
858.356	16.02
858.525	19.08
858.694	11.8
858.863	22.44
859.032	19.81
859.201	-2.35
859.369	17.83
859.538	18.87
859.707	36.09
859.876	45.1
860.044	49.47
860.213	51.18
860.382	57.12
860.55	72.26
860.719	84.89
860.888	73.2
861.056	81.18
861.225	77.69
861.393	85.59
861.562	73.31
861.73	60.05
861.899	41.83
862.067	57.16
862.236	46.57
862.404	51.43
862.572	47.08
862.741	47.09
862.909	41.51
863.078	53.09
863.246	52.18
863.414	54.78
863.582	41.43
863.751	33.81
863.919	46.35
864.087	57.09
864.255	59.74
864.424	53.65
864.592	50.62
864.76	66.28
864.928	75.12
865.096	66.4
865.264	64.58
865.432	57
865.6	47.17
865.768	45.51
865.936	22.46
866.104	25.21
866.272	33.34
866.44	9.08
866.608	2.94
866.776	36.28
866.944	44.13
867.112	41.86
867.28	14.04
867.448	24.78
867.615	35.14
867.783	39.02
867.951	48.29
868.119	42.96
868.286	44.27
868.454	46.54
868.622	41.91
868.789	77.28
868.957	72.72
869.125	58.2
869.292	56.26
869.46	62.2
869.627	74.58
869.795	77.99
869.963	50.26
870.13	59.04
870.298	65.62
870.465	54.71
870.632	66.11
870.8	35.75
870.967	18.3
871.135	26.06
871.302	20.68
871.469	27.08
871.637	34.46
871.804	32.44
871.971	40.5
872.139	64.72
872.306	52.4
872.473	39.09
872.64	33.97
872.807	42.67
872.975	77.79
873.142	64.93
873.309	12.85
873.476	63.77
873.643	143.39
873.81	136.51
873.977	63.48
874.144	47.2
874.311	46.55
874.478	38.16
874.645	50.03
874.812	53.69
874.979	42.31
875.146	43.88
875.313	20.45
875.48	83.48
875.647	83.52
875.813	28.64
875.98	32.42
876.147	67
876.314	80.47
876.481	54.02
876.647	51.4
876.814	53.26
876.981	48.17
877.147	36.18
877.314	11.98
877.481	19.35
877.647	21.26
877.814	-1.23
877.98	2.15
878.147	15.76
878.314	10.56
878.48	19.11
878.647	30.14
878.813	43.05
878.979	45.75
879.146	18.14
879.312	31.04
879.479	46.29
879.645	26.67
879.811	15.36
879.978	27.03
880.144	50.89
880.31	38.81
880.477	11.72
880.643	-60.36
880.809	64.71
880.975	12.24
881.142	17.09
881.308	-4.24
881.474	43.81
881.64	0.71
881.806	19.03
881.972	19.26
882.138	36.29
882.304	-52.01
882.47	-60.54
882.636	-82.98
882.802	-46.71
882.968	-109.48
883.134	-273.39
883.3	-99.72
883.466	11.13
883.632	32.26
883.798	29.04
883.964	37.18
884.129	70.79
884.295	44.96
884.461	29.59
884.627	31.66
884.793	53.41
884.958	40.25
885.124	-5.84
885.29	1.43
885.455	35.09
885.621	31.34
885.787	9.33
885.952	-11.2
886.118	11.04
886.283	20.35
886.449	-0.22
886.614	-17.06
886.78	12.21
886.945	6.47
887.111	6.55
887.276	-8.25
887.442	-2.56
887.607	-1.38
887.773	-3.57
887.938	-1.69
888.103	34.81
888.269	29.84
888.434	47.06
888.599	69.8
888.764	63.42
888.93	73
889.095	54.81
889.26	76.68
889.425	110.44
889.59	69.22
889.756	50.98
889.921	33.41
890.086	24.7
890.251	34.17
890.416	-12.31
890.581	-56.1
890.746	-31.37
890.911	-75.6
891.076	-63.49
891.241	-41.17
891.406	40.99
891.571	48.25
891.736	68.07
891.901	88.17
892.065	113.63
892.23	99.62
892.395	46.58
892.56	35.24
892.725	41.05
892.889	21.71
893.054	-30.13
893.219	-82.38
893.384	-137.45
893.548	-179.17
893.713	525.5
893.878	339.67
