Data from Ofra_2a_PS_4HS13_Reflection_1.txt Node
Date: Tue Jul 20 09:50:11 EDT 2021
User: Adam
Spectrometer: FLMT01687
Trigger mode: 0
Integration Time (sec): 9.450000E-1
Scans to average: 3
Electric dark correction enabled: true
Nonlinearity correction enabled: false
Boxcar width: 3
XAxis mode: Wavelengths
Number of Pixels in Spectrum: 3648
>>>>>Begin Spectral Data<<<<<
179.494	1137.28
179.716	752.99
179.937	889.01
180.158	3544.53
180.38	-1242.44
180.601	-273.42
180.823	-98.77
181.044	-97.01
181.265	-44.74
181.486	88.9
181.708	793.48
181.929	-93.72
182.15	-614.77
182.372	59.75
182.593	71.06
182.814	-152.99
183.035	9.71
183.257	0.86
183.478	-3.86
183.699	29.47
183.92	26.65
184.141	38.53
184.363	53.19
184.584	30.65
184.805	40.75
185.026	35.75
185.247	10.99
185.468	18.91
185.689	21.69
185.91	16.59
186.132	16.2
186.353	-0.73
186.574	6.14
186.795	-7.88
187.016	-10.47
187.237	-27.21
187.458	-35.49
187.679	-64.32
187.9	-46.26
188.121	-34.09
188.342	3.13
188.563	-3.48
188.784	8.73
189.005	4.85
189.226	21.93
189.447	24.29
189.667	29.6
189.888	34.39
190.109	32.84
190.33	26.93
190.551	32.66
190.772	19.29
190.993	22.48
191.214	15.14
191.434	-2.38
191.655	6.37
191.876	10.78
192.097	-2.05
192.318	5.59
192.538	0.52
192.759	11.04
192.98	10.35
193.201	9.69
193.421	14.01
193.642	29.94
193.863	20.11
194.083	17.27
194.304	-6.58
194.525	13.24
194.745	-4.61
194.966	4.87
195.187	-2.98
195.407	8.76
195.628	10.63
195.848	10.73
196.069	8.07
196.29	15.55
196.51	-5.44
196.731	9.6
196.951	-3.6
197.172	-5.76
197.392	2.35
197.613	-3.39
197.833	-2.22
198.054	6.51
198.274	-22.1
198.495	-11.51
198.715	-20.43
198.936	-39.86
199.156	-39.62
199.377	-34.84
199.597	-36.03
199.817	-8.56
200.038	-6.88
200.258	-8.39
200.479	8.73
200.699	15.77
200.919	-3.15
201.14	6.04
201.36	21.29
201.58	20.82
201.801	27.06
202.021	20.75
202.241	27.78
202.461	35.54
202.682	27.45
202.902	21.05
203.122	17.93
203.342	22.68
203.563	21.19
203.783	12.59
204.003	8.16
204.223	17.82
204.443	12.54
204.663	11.59
204.884	-6.81
205.104	-7.13
205.324	-3.17
205.544	16.56
205.764	5.44
205.984	-1.26
206.204	11.43
206.424	19.86
206.644	18.08
206.864	16.55
207.084	21.54
207.304	18.44
207.525	26.38
207.745	19.63
207.964	21.17
208.184	9.05
208.404	12.12
208.624	-9.02
208.844	-15.8
209.064	-7.34
209.284	-13.91
209.504	-19.1
209.724	-30.97
209.944	-44
210.164	-28.22
210.384	-5.85
210.604	-15.24
210.823	-11.65
211.043	-9.11
211.263	13.9
211.483	22.66
211.703	33.06
211.922	16.67
212.142	20.58
212.362	22.59
212.582	17.72
212.801	9.45
213.021	1.51
213.241	-12.3
213.461	-1.85
213.68	-8.25
213.9	2.59
214.12	4.08
214.339	10.91
214.559	19.68
214.779	14.91
214.998	4.48
215.218	2.27
215.438	8.77
215.657	15.65
215.877	8.34
216.096	-4.26
216.316	-5.18
216.535	-0.73
216.755	-10.11
216.974	-21.07
217.194	-35.6
217.413	-19.47
217.633	-13.94
217.852	-10.41
218.072	-13.68
218.291	13.7
218.511	15.2
218.73	15.14
218.95	3.45
219.169	3.38
219.389	5.15
219.608	11.74
219.827	-0.38
220.047	1.48
220.266	6.85
220.485	5.08
220.705	5.59
220.924	9.6
221.143	-1.83
221.363	-4.99
221.582	-12.28
221.801	-9.69
222.021	-6.64
222.24	-19.13
222.459	-28.04
222.678	-36.02
222.897	-20.71
223.117	-9.33
223.336	3.18
223.555	18
223.774	45.58
223.993	57.97
224.213	52.8
224.432	55.66
224.651	47.3
224.87	46.8
225.089	45.73
225.308	29.31
225.527	21.36
225.746	24.25
225.965	5.35
226.184	-3.9
226.404	-23.53
226.623	-29.35
226.842	-16.73
227.061	-21.19
227.28	-8.39
227.499	18.66
227.718	26.6
227.936	25.44
228.155	21
228.374	17.93
228.593	13.04
228.812	3.13
229.031	-12.3
229.25	0.61
229.469	5.38
229.688	15.28
229.907	6.94
230.125	10.13
230.344	12.56
230.563	27.27
230.782	15.05
231.001	13.35
231.22	0.17
231.438	16.68
231.657	27.75
231.876	27.01
232.095	19.46
232.313	26.37
232.532	26.6
232.751	37.3
232.969	40.31
233.188	34.59
233.407	33.33
233.625	28.51
233.844	25.55
234.063	22.23
234.281	20.36
234.5	16.98
234.719	17.03
234.937	27.98
235.156	29.02
235.374	18.73
235.593	18.54
235.811	14.93
236.03	13.98
236.249	21.59
236.467	12.39
236.686	23.98
236.904	26.7
237.123	27.51
237.341	25.93
237.559	23.72
237.778	22.91
237.996	27.93
238.215	16.62
238.433	30.22
238.652	22.33
238.87	22.8
239.088	13.37
239.307	10.48
239.525	-2.04
239.743	-8.16
239.962	-12.87
240.18	-4.29
240.398	-2
240.617	10.11
240.835	16.3
241.053	21.12
241.271	34.64
241.49	17.75
241.708	9.73
241.926	-3.61
242.144	-4.47
242.363	-21.26
242.581	-13.18
242.799	-35.38
243.017	-17.35
243.235	-16.73
243.453	-6.71
243.672	-11.12
243.89	-6.1
244.108	-1.24
244.326	5.84
244.544	6.02
244.762	12.14
244.98	9.88
245.198	3.05
245.416	5.91
245.634	8.35
245.852	15.57
246.07	19.33
246.288	2.56
246.506	10.28
246.724	27.99
246.942	37.21
247.16	27.91
247.378	18.42
247.596	16.41
247.814	18.29
248.032	8.25
248.25	-8.15
248.468	-0.5
248.685	1.25
248.903	6.95
249.121	13.04
249.339	29.09
249.557	32.04
249.775	22.82
249.992	12.57
250.21	7.03
250.428	-0.95
250.646	-3.76
250.863	-6.55
251.081	-9.76
251.299	15.33
251.517	19.14
251.734	25.42
251.952	39.46
252.17	23.59
252.387	15.12
252.605	19.99
252.823	8.34
253.04	0.11
253.258	3.13
253.475	-0.57
253.693	16.4
253.911	21.06
254.128	7.7
254.346	4.47
254.563	5.65
254.781	4.71
254.998	5.47
255.216	2.31
255.433	1.93
255.651	9.18
255.868	11.92
256.086	9.24
256.303	6.73
256.521	-1.18
256.738	-5.66
256.956	-23.77
257.173	-13.3
257.39	-1.01
257.608	0.81
257.825	-2.9
258.043	8.09
258.26	3.14
258.477	16.99
258.695	16.45
258.912	32.55
259.129	33.45
259.346	39.2
259.564	30.32
259.781	39.83
259.998	41.54
260.216	40.32
260.433	15.83
260.65	23.63
260.867	16.15
261.084	24.77
261.302	22.9
261.519	11.97
261.736	13.78
261.953	16.04
262.17	6.67
262.387	13.39
262.604	-5.37
262.822	-4.06
263.039	-7.02
263.256	-5.71
263.473	-14.88
263.69	-14.67
263.907	-24.93
264.124	-18.56
264.341	-22.73
264.558	-8.01
264.775	-5.2
264.992	-4.48
265.209	5.6
265.426	16.53
265.643	24.85
265.86	18.87
266.077	13.48
266.294	15.39
266.51	20.13
266.727	-2.96
266.944	-18.2
267.161	-23.24
267.378	-20.44
267.595	-20.1
267.812	-30.75
268.028	-22.81
268.245	-5.97
268.462	-5.48
268.679	-11.86
268.896	-9.96
269.112	7.48
269.329	13.47
269.546	13.63
269.763	18.31
269.979	22.23
270.196	32.76
270.413	35.6
270.629	30.65
270.846	28.66
271.063	28.72
271.279	26.43
271.496	18.87
271.712	6.12
271.929	6.11
272.146	0.97
272.362	-14.5
272.579	-18.61
272.795	-15.1
273.012	-3.46
273.228	7.22
273.445	7.18
273.661	7.71
273.878	21.65
274.094	28.87
274.311	24.13
274.527	28.36
274.744	20.79
274.96	18.67
275.177	27.21
275.393	20.68
275.609	12.57
275.826	10.76
276.042	17.39
276.259	21.21
276.475	24.05
276.691	28.1
276.908	24.4
277.124	24.5
277.34	21.54
277.557	5.79
277.773	0.82
277.989	1.41
278.205	-23.77
278.422	-8.28
278.638	5.04
278.854	6.4
279.07	-5.87
279.286	9.83
279.503	13.26
279.719	37.29
279.935	21.09
280.151	17.85
280.367	23.56
280.583	33.93
280.799	24.66
281.016	17.57
281.232	4.79
281.448	4.2
281.664	0.35
281.88	9.02
282.096	24.35
282.312	19.83
282.528	19.02
282.744	14.47
282.96	20.74
283.176	26.57
283.392	28.71
283.608	19.23
283.824	18.91
284.04	21.25
284.256	33.75
284.471	36.42
284.687	27.45
284.903	23.34
285.119	11.06
285.335	8.63
285.551	16.12
285.767	3.04
285.982	-2.08
286.198	-4.15
286.414	-0.34
286.63	13.95
286.846	15.38
287.061	18.71
287.277	23.62
287.493	25.81
287.709	19.56
287.924	24.43
288.14	24.23
288.356	35.26
288.571	27.71
288.787	27.66
289.003	31.34
289.218	31.67
289.434	23.14
289.65	21.05
289.865	25.86
290.081	29.08
290.296	21.6
290.512	17.94
290.727	27.34
290.943	19.46
291.159	13.68
291.374	6.56
291.59	-1.38
291.805	-1.39
292.021	-22.4
292.236	-23.39
292.451	-18.42
292.667	-15.84
292.882	-20.63
293.098	-30.06
293.313	-30.52
293.529	-18.74
293.744	-21.16
293.959	-12.3
294.175	-16.19
294.39	-13.77
294.605	-1.71
294.821	1.56
295.036	4.64
295.251	-2.66
295.467	-3.28
295.682	4.82
295.897	4.33
296.112	4.5
296.328	0.06
296.543	0.24
296.758	6.86
296.973	-0.36
297.188	-4.92
297.404	0.33
297.619	-6.52
297.834	5.8
298.049	4.75
298.264	9.91
298.479	6.84
298.694	7.96
298.909	-3.53
299.125	5.09
299.34	0.96
299.555	9.06
299.77	5.9
299.985	10.31
300.2	12.41
300.415	19.04
300.63	10.77
300.845	15.93
301.06	12.28
301.275	15.95
301.49	19.45
301.704	13.28
301.919	11.5
302.134	11.7
302.349	-0.82
302.564	-10.76
302.779	-14.14
302.994	-19.53
303.209	-22.64
303.423	-16.66
303.638	-11.96
303.853	-13.89
304.068	-2.68
304.283	-4.14
304.497	4.46
304.712	19.62
304.927	12.58
305.142	8.56
305.356	19.7
305.571	18.81
305.786	19.39
306	19.18
306.215	3.97
306.43	17.37
306.644	23.15
306.859	24.19
307.074	22.67
307.288	25.26
307.503	13.26
307.717	16.67
307.932	15.6
308.147	14.72
308.361	5.65
308.576	4.49
308.79	4.37
309.005	8.96
309.219	12.01
309.434	4.04
309.648	-9
309.863	2.6
310.077	2.6
310.292	-1.48
310.506	15.1
310.72	22.57
310.935	25.94
311.149	37.15
311.364	30.12
311.578	31.76
311.792	26.41
312.007	15.58
312.221	10.95
312.435	8.41
312.649	6.71
312.864	6.38
313.078	-3.39
313.292	14.03
313.507	19.45
313.721	13.05
313.935	27.6
314.149	22.93
314.363	24.16
314.578	50.11
314.792	39.98
315.006	39.09
315.22	45.57
315.434	37.07
315.648	26.29
315.862	24.63
316.077	5.08
316.291	8.9
316.505	5.08
316.719	-19.53
316.933	-23.07
317.147	-12.28
317.361	-7.94
317.575	-4.53
317.789	1.24
318.003	5.7
318.217	24.77
318.431	30.53
318.645	23.1
318.859	7.7
319.073	6.07
319.287	6.34
319.5	1.92
319.714	-4.35
319.928	2.91
320.142	4.79
320.356	21.11
320.57	17.25
320.784	22.31
320.997	30.35
321.211	28.8
321.425	11.24
321.639	22.5
321.853	15.82
322.066	17.34
322.28	9.85
322.494	1.28
322.707	0.19
322.921	12.92
323.135	12.67
323.349	10.92
323.562	14.92
323.776	7.64
323.989	10.16
324.203	16.52
324.417	0.65
324.63	-10.87
324.844	-15.73
325.057	-14.44
325.271	-17.84
325.485	-19.99
325.698	-22.41
325.912	-11.21
326.125	-4.81
326.339	4.84
326.552	9.44
326.766	22.64
326.979	31.08
327.193	26.38
327.406	28.82
327.619	22.48
327.833	20.98
328.046	0.91
328.26	-6.45
328.473	-12.6
328.686	-9.93
328.9	-20.21
329.113	-17.49
329.326	-13.44
329.54	-1.66
329.753	-1.04
329.966	-0.74
330.179	17.33
330.393	25.31
330.606	28.28
330.819	29.66
331.032	33.53
331.246	34.03
331.459	34.22
331.672	17.91
331.885	17.43
332.098	32.91
332.311	16.88
332.525	11.65
332.738	8.73
332.951	9.29
333.164	6.67
333.377	-10.57
333.59	-21.84
333.803	-0.69
334.016	-15.2
334.229	-5.56
334.442	1.56
334.655	5.31
334.868	22.07
335.081	27.36
335.294	15.39
335.507	27.12
335.72	9.94
335.933	13.9
336.146	20.13
336.359	9.69
336.572	-3.29
336.785	9.07
336.997	-3.14
337.21	10.12
337.423	2.51
337.636	2.32
337.849	8.4
338.062	15.72
338.274	8.79
338.487	8.46
338.7	11.51
338.913	3.72
339.125	1.29
339.338	-0.86
339.551	1.29
339.763	-2.47
339.976	-0.79
340.189	-10.45
340.402	-7.3
340.614	-1.27
340.827	-8.42
341.039	-10.74
341.252	-11.81
341.465	-16.76
341.677	-13.67
341.89	-7.6
342.102	-12.51
342.315	4.13
342.527	0.13
342.74	4.61
342.952	8.95
343.165	15.33
343.377	19.46
343.59	16.45
343.802	13.75
344.015	15.33
344.227	11.22
344.44	8.52
344.652	7.93
344.864	2.63
345.077	2.36
345.289	-6.09
345.502	-4.1
345.714	-8.91
345.926	-5.96
346.139	-4.96
346.351	-22.8
346.563	-16.35
346.775	-15.24
346.988	-14.97
347.2	-5.46
347.412	-0.98
347.624	5
347.837	14.99
348.049	4.05
348.261	6.11
348.473	0.82
348.685	6.31
348.897	4.21
349.11	-4.38
349.322	-16.22
349.534	-8.28
349.746	-9.4
349.958	-0.17
350.17	-5.2
350.382	-9.96
350.594	-8.99
350.806	8.37
351.018	2.77
351.23	7.77
351.442	6.1
351.654	5.6
351.866	4.53
352.078	-0.01
352.29	-2.08
352.502	13.35
352.714	5.88
352.926	2.31
353.138	2.97
353.35	4.37
353.561	6.29
353.773	3.66
353.985	1.35
354.197	5.18
354.409	3.96
354.621	1.74
354.832	-8.32
355.044	3.54
355.256	-3.14
355.468	-18.83
355.679	-18.19
355.891	-13.12
356.103	-11.23
356.314	-1.29
356.526	-15.5
356.738	-10.73
356.949	-1.92
357.161	1.38
357.373	3.52
357.584	9.49
357.796	8.9
358.008	15.34
358.219	24.85
358.431	27.67
358.642	20.91
358.854	18.87
359.065	19.5
359.277	18.63
359.488	15.55
359.7	3.9
359.911	-2.84
360.123	3.66
360.334	4.82
360.546	-9.28
360.757	4.47
360.969	13.99
361.18	12.79
361.391	12.8
361.603	12.15
361.814	16.83
362.025	25.36
362.237	12.68
362.448	8.51
362.659	8.08
362.871	15.15
363.082	11.79
363.293	11.06
363.504	8.33
363.716	6.17
363.927	8.35
364.138	11.69
364.349	11.75
364.56	13.53
364.772	10.2
364.983	6.56
365.194	12.56
365.405	4.08
365.616	-0.17
365.827	-3.66
366.038	7.88
366.25	12.16
366.461	12.36
366.672	13.96
366.883	16.19
367.094	12.49
367.305	8.82
367.516	0.4
367.727	-7.86
367.938	-0.01
368.149	1.95
368.36	-0.2
368.571	5.91
368.781	7.88
368.992	5.77
369.203	9.67
369.414	-1.12
369.625	-6.61
369.836	-2.9
370.047	-7.65
370.258	-10.74
370.468	-15.74
370.679	-15.83
370.89	-6.49
371.101	-11.52
371.312	-10.07
371.522	-0.69
371.733	-7.17
371.944	3.17
372.155	-5.55
372.365	-7.72
372.576	-2.71
372.787	-4.05
372.997	-11.28
373.208	0.23
373.419	-3.1
373.629	9.87
373.84	7
374.05	5.5
374.261	-6.25
374.472	-9.14
374.682	-16.42
374.893	-15.93
375.103	-15.9
375.314	-11.31
375.524	-8.75
375.735	0.27
375.945	8.15
376.156	15.12
376.366	14.26
376.577	11.76
376.787	14.29
376.997	15.98
377.208	10.36
377.418	7.55
377.629	4.73
377.839	8.79
378.049	11.71
378.26	9.38
378.47	10.31
378.68	13.35
378.89	11.48
379.101	4.72
379.311	-7.51
379.521	2.93
379.732	-6.84
379.942	-7.16
380.152	-0.68
380.362	-1.33
380.572	6.78
380.783	11.1
380.993	3.45
381.203	12.51
381.413	11.4
381.623	7.14
381.833	3.92
382.043	-3.5
382.253	-0.37
382.463	0.64
382.674	2.27
382.884	2.07
383.094	3.73
383.304	5.69
383.514	11.84
383.724	9.69
383.934	6.1
384.144	7.67
384.353	10.6
384.563	8.42
384.773	12.07
384.983	12.79
385.193	14.11
385.403	14.99
385.613	9.89
385.823	3.88
386.033	1.75
386.242	-1.78
386.452	-3.49
386.662	-5.27
386.872	-6.8
387.082	-7.19
387.291	-3.52
387.501	1.71
387.711	4.82
387.921	2.03
388.13	1.19
388.34	3.29
388.55	7.1
388.759	6.41
388.969	1.42
389.179	3.07
389.388	5.17
389.598	3.4
389.807	2.43
390.017	2.39
390.227	1.28
390.436	3.91
390.646	2.14
390.855	1.21
391.065	2.5
391.274	1.77
391.484	1.76
391.693	3.54
391.903	2.45
392.112	2.12
392.322	3.91
392.531	5.32
392.74	4.76
392.95	4.33
393.159	3.82
393.369	4.71
393.578	3.97
393.787	2.91
393.997	2.45
394.206	3.34
394.415	3.28
394.625	2.37
394.834	1.98
395.043	3.01
395.252	3.55
395.462	2.97
395.671	3.01
395.88	2.81
396.089	3.26
396.298	2.97
396.508	2.58
396.717	2.07
396.926	2.05
397.135	1.57
397.344	1.75
397.553	2.04
397.762	2.13
397.971	2.01
398.181	1.84
398.39	2.12
398.599	2.64
398.808	2.72
399.017	2.8
399.226	3.02
399.435	3
399.644	3.14
399.853	3.07
400.062	2.88
400.27	2.8
400.479	2.64
400.688	2.54
400.897	2.9
401.106	3.05
401.315	2.92
401.524	2.92
401.733	3.07
401.941	3.15
402.15	2.93
402.359	2.7
402.568	2.61
402.777	2.59
402.985	2.48
403.194	2.42
403.403	2.18
403.612	2.3
403.82	2.3
404.029	2.28
404.238	2.45
404.446	2.42
404.655	2.21
404.864	2.3
405.072	2.28
405.281	2.15
405.489	2.25
405.698	2.09
405.906	2.13
406.115	2.22
406.324	2.19
406.532	2.22
406.741	2.31
406.949	2.18
407.158	2.28
407.366	2.37
407.574	2.34
407.783	2.26
407.991	2.16
408.2	2.09
408.408	2.06
408.617	2.02
408.825	2.01
409.033	1.98
409.242	2.06
409.45	2.13
409.658	2.16
409.867	2.22
410.075	2.14
410.283	2.04
410.491	2.04
410.7	2.13
410.908	2.14
411.116	2.1
411.324	2.18
411.533	2.13
411.741	2.13
411.949	2.19
412.157	2.06
412.365	2.02
412.573	2.06
412.781	1.97
412.99	2.12
413.198	2.15
413.406	2.04
413.614	2.07
413.822	2.01
414.03	1.98
414.238	2.06
414.446	1.94
414.654	1.88
414.862	1.92
415.07	1.99
415.278	1.95
415.486	1.99
415.694	1.84
415.902	1.81
416.109	1.81
416.317	1.77
416.525	1.71
416.733	1.87
416.941	1.76
417.149	1.93
417.357	1.97
417.564	1.97
417.772	2.02
417.98	1.91
418.188	1.75
418.395	1.76
418.603	1.57
418.811	1.48
419.019	1.5
419.226	1.58
419.434	1.54
419.642	1.54
419.849	1.57
420.057	1.58
420.265	1.61
420.472	1.48
420.68	1.32
420.887	1.47
421.095	1.48
421.302	1.52
421.51	1.55
421.717	1.68
421.925	1.72
422.132	1.77
422.34	1.74
422.547	1.87
422.755	1.83
422.962	1.79
423.17	1.73
423.377	1.85
423.585	1.87
423.792	1.81
423.999	1.71
424.207	1.63
424.414	1.76
424.621	1.71
424.829	1.62
425.036	1.54
425.243	1.62
425.451	1.63
425.658	1.79
425.865	1.58
426.072	1.62
426.28	1.6
426.487	1.56
426.694	1.5
426.901	1.4
427.108	1.43
427.315	1.55
427.523	1.59
427.73	1.62
427.937	1.68
428.144	1.7
428.351	1.87
428.558	1.7
428.765	1.71
428.972	1.64
429.179	1.56
429.386	1.61
429.593	1.6
429.8	1.53
430.007	1.63
430.214	1.66
430.421	1.62
430.628	1.52
430.835	1.49
431.042	1.55
431.249	1.54
431.456	1.59
431.662	1.58
431.869	1.7
432.076	1.83
432.283	1.78
432.49	1.75
432.697	1.75
432.903	1.71
433.11	1.7
433.317	1.71
433.524	1.68
433.73	1.71
433.937	1.69
434.144	1.76
434.35	1.7
434.557	1.65
434.764	1.55
434.97	1.61
435.177	1.57
435.384	1.63
435.59	1.58
435.797	1.63
436.003	1.66
436.21	1.64
436.416	1.56
436.623	1.65
436.829	1.56
437.036	1.53
437.242	1.49
437.449	1.5
437.655	1.55
437.862	1.61
438.068	1.63
438.275	1.63
438.481	1.69
438.687	1.71
438.894	1.76
439.1	1.76
439.307	1.75
439.513	1.71
439.719	1.78
439.926	1.77
440.132	1.77
440.338	1.8
440.544	1.83
440.751	1.86
440.957	1.8
441.163	1.8
441.369	1.81
441.575	1.79
441.782	1.71
441.988	1.72
442.194	1.74
442.4	1.9
442.606	1.93
442.812	1.94
443.018	1.95
443.224	2
443.431	1.98
443.637	1.94
443.843	1.87
444.049	1.82
444.255	1.81
444.461	1.81
444.667	1.8
444.873	1.82
445.079	1.83
445.284	1.76
445.49	1.74
445.696	1.79
445.902	1.85
446.108	1.86
446.314	1.9
446.52	1.96
446.726	2.01
446.931	2.05
447.137	2
447.343	1.96
447.549	1.91
447.755	1.82
447.96	1.75
448.166	1.82
448.372	1.86
448.578	1.85
448.783	1.85
448.989	1.89
449.195	1.92
449.4	1.92
449.606	1.87
449.812	1.83
450.017	1.86
450.223	1.88
450.428	1.87
450.634	1.88
450.84	1.92
451.045	1.91
451.251	1.92
451.456	1.89
451.662	1.86
451.867	1.9
452.073	1.88
452.278	1.86
452.483	1.85
452.689	1.82
452.894	1.85
453.1	1.83
453.305	1.8
453.51	1.79
453.716	1.79
453.921	1.81
454.127	1.8
454.332	1.8
454.537	1.92
454.742	1.92
454.948	1.93
455.153	1.97
455.358	2.01
455.563	2.02
455.769	2
455.974	1.92
456.179	1.87
456.384	1.92
456.589	1.89
456.795	1.84
457	1.88
457.205	1.85
457.41	1.86
457.615	1.92
457.82	1.94
458.025	1.91
458.23	1.9
458.435	1.82
458.64	1.9
458.845	1.86
459.05	1.82
459.255	1.76
459.46	1.79
459.665	1.83
459.87	1.87
460.075	1.83
460.28	1.89
460.485	1.93
460.69	1.84
460.895	1.86
461.099	1.83
461.304	1.82
461.509	1.77
461.714	1.77
461.919	1.74
462.123	1.87
462.328	1.87
462.533	1.88
462.738	1.86
462.942	1.93
463.147	1.89
463.352	1.95
463.556	1.97
463.761	1.97
463.966	2.01
464.17	2.05
464.375	2
464.58	2.02
464.784	1.98
464.989	1.92
465.193	1.93
465.398	1.95
465.602	1.97
465.807	2.02
466.011	2.04
466.216	2
466.42	2.03
466.625	2.05
466.829	2.02
467.034	2.02
467.238	2.02
467.443	2.03
467.647	2.07
467.851	2.1
468.056	2.07
468.26	2.07
468.464	2.08
468.669	2.12
468.873	2.13
469.077	2.17
469.282	2.16
469.486	2.21
469.69	2.25
469.894	2.29
470.099	2.28
470.303	2.24
470.507	2.22
470.711	2.2
470.915	2.22
471.119	2.21
471.324	2.13
471.528	2.18
471.732	2.18
471.936	2.18
472.14	2.21
472.344	2.2
472.548	2.2
472.752	2.31
472.956	2.3
473.16	2.34
473.364	2.33
473.568	2.36
473.772	2.44
473.976	2.45
474.18	2.36
474.384	2.36
474.588	2.36
474.792	2.36
474.995	2.36
475.199	2.33
475.403	2.35
475.607	2.44
475.811	2.44
476.015	2.48
476.218	2.5
476.422	2.5
476.626	2.49
476.83	2.47
477.033	2.45
477.237	2.47
477.441	2.48
477.644	2.49
477.848	2.48
478.052	2.5
478.255	2.52
478.459	2.55
478.663	2.6
478.866	2.59
479.07	2.62
479.273	2.64
479.477	2.67
479.681	2.64
479.884	2.59
480.088	2.6
480.291	2.65
480.495	2.65
480.698	2.66
480.901	2.65
481.105	2.72
481.308	2.72
481.512	2.68
481.715	2.7
481.919	2.7
482.122	2.71
482.325	2.73
482.529	2.75
482.732	2.81
482.935	2.84
483.138	2.82
483.342	2.87
483.545	2.9
483.748	2.94
483.952	2.88
484.155	2.9
484.358	2.89
484.561	2.92
484.764	2.92
484.967	2.88
485.171	2.83
485.374	2.87
485.577	2.84
485.78	2.86
485.983	2.85
486.186	2.82
486.389	2.82
486.592	2.86
486.795	2.88
486.998	2.89
487.201	2.89
487.404	2.91
487.607	2.92
487.81	2.98
488.013	2.95
488.216	2.95
488.419	2.94
488.622	2.91
488.825	2.92
489.028	2.92
489.231	2.91
489.433	2.94
489.636	2.87
489.839	2.88
490.042	2.89
490.245	2.88
490.447	2.88
490.65	2.89
490.853	2.89
491.056	2.94
491.258	2.96
491.461	2.96
491.664	2.94
491.866	2.93
492.069	2.93
492.272	2.91
492.474	2.88
492.677	2.85
492.879	2.86
493.082	2.91
493.285	2.93
493.487	2.9
493.69	2.88
493.892	2.97
494.095	2.97
494.297	2.98
494.5	3.02
494.702	3.02
494.905	3.05
495.107	3.09
495.309	3.04
495.512	3.09
495.714	3.11
495.917	3.08
496.119	3.1
496.321	3.14
496.524	3.13
496.726	3.16
496.928	3.18
497.13	3.21
497.333	3.22
497.535	3.2
497.737	3.2
497.939	3.24
498.142	3.22
498.344	3.21
498.546	3.26
498.748	3.24
498.95	3.26
499.152	3.22
499.355	3.22
499.557	3.29
499.759	3.34
499.961	3.32
500.163	3.37
500.365	3.4
500.567	3.43
500.769	3.49
500.971	3.46
501.173	3.45
501.375	3.43
501.577	3.46
501.779	3.49
501.981	3.51
502.183	3.48
502.385	3.49
502.587	3.51
502.788	3.52
502.99	3.54
503.192	3.54
503.394	3.58
503.596	3.6
503.798	3.68
503.999	3.69
504.201	3.74
504.403	3.74
504.605	3.76
504.806	3.77
505.008	3.8
505.21	3.79
505.411	3.84
505.613	3.86
505.815	3.91
506.016	3.95
506.218	3.95
506.42	3.97
506.621	4.01
506.823	4.01
507.024	4.02
507.226	4.01
507.427	3.96
507.629	4.02
507.83	3.99
508.032	3.98
508.233	4.01
508.435	4.04
508.636	4.04
508.838	4.09
509.039	4.11
509.24	4.15
509.442	4.14
509.643	4.11
509.845	4.11
510.046	4.12
510.247	4.16
510.448	4.18
510.65	4.22
510.851	4.25
511.052	4.31
511.254	4.33
511.455	4.36
511.656	4.37
511.857	4.38
512.058	4.39
512.26	4.38
512.461	4.42
512.662	4.44
512.863	4.44
513.064	4.46
513.265	4.47
513.466	4.48
513.667	4.51
513.868	4.5
514.069	4.56
514.27	4.58
514.471	4.59
514.672	4.6
514.873	4.68
515.074	4.71
515.275	4.73
515.476	4.7
515.677	4.74
515.878	4.77
516.079	4.78
516.28	4.72
516.481	4.71
516.682	4.74
516.882	4.74
517.083	4.73
517.284	4.72
517.485	4.72
517.686	4.75
517.886	4.77
518.087	4.77
518.288	4.78
518.488	4.82
518.689	4.8
518.89	4.89
519.091	4.91
519.291	4.92
519.492	4.94
519.692	5
519.893	5.01
520.094	5.05
520.294	5.01
520.495	5.03
520.695	5.07
520.896	5.09
521.096	5.08
521.297	5.08
521.497	5.12
521.698	5.13
521.898	5.15
522.099	5.15
522.299	5.13
522.499	5.14
522.7	5.18
522.9	5.16
523.101	5.18
523.301	5.18
523.501	5.25
523.702	5.27
523.902	5.28
524.102	5.27
524.302	5.29
524.503	5.32
524.703	5.36
524.903	5.36
525.103	5.41
525.304	5.45
525.504	5.5
525.704	5.53
525.904	5.56
526.104	5.55
526.304	5.56
526.504	5.53
526.705	5.53
526.905	5.52
527.105	5.53
527.305	5.5
527.505	5.54
527.705	5.54
527.905	5.55
528.105	5.57
528.305	5.6
528.505	5.59
528.705	5.62
528.905	5.61
529.105	5.66
529.304	5.7
529.504	5.71
529.704	5.73
529.904	5.75
530.104	5.76
530.304	5.81
530.503	5.77
530.703	5.79
530.903	5.84
531.103	5.83
531.303	5.88
531.502	5.88
531.702	5.88
531.902	5.9
532.101	5.91
532.301	5.92
532.501	5.98
532.7	5.95
532.9	6
533.1	6.01
533.299	6.06
533.499	6.07
533.698	6.1
533.898	6.1
534.097	6.14
534.297	6.17
534.496	6.18
534.696	6.18
534.895	6.25
535.095	6.27
535.294	6.28
535.494	6.34
535.693	6.36
535.892	6.36
536.092	6.38
536.291	6.4
536.491	6.39
536.69	6.42
536.889	6.41
537.088	6.44
537.288	6.56
537.487	6.61
537.686	6.6
537.886	6.65
538.085	6.74
538.284	6.79
538.483	6.79
538.682	6.74
538.882	6.75
539.081	6.79
539.28	6.82
539.479	6.81
539.678	6.85
539.877	6.88
540.076	6.95
540.275	7
540.474	7.03
540.673	7.06
540.872	7.09
541.071	7.1
541.27	7.17
541.469	7.21
541.668	7.24
541.867	7.27
542.066	7.32
542.265	7.35
542.464	7.41
542.663	7.46
542.862	7.5
543.06	7.56
543.259	7.61
543.458	7.67
543.657	7.72
543.856	7.74
544.054	7.76
544.253	7.76
544.452	7.74
544.651	7.76
544.849	7.79
545.048	7.83
545.247	7.87
545.445	7.88
545.644	7.95
545.843	8.02
546.041	8.09
546.24	8.15
546.438	8.19
546.637	8.24
546.836	8.31
547.034	8.37
547.233	8.43
547.431	8.46
547.63	8.51
547.828	8.57
548.027	8.6
548.225	8.68
548.423	8.73
548.622	8.76
548.82	8.82
549.019	8.86
549.217	8.95
549.415	9.05
549.614	9.04
549.812	9.1
550.01	9.18
550.209	9.28
550.407	9.35
550.605	9.44
550.803	9.49
551.002	9.58
551.2	9.66
551.398	9.71
551.596	9.75
551.794	9.84
551.993	9.87
552.191	9.94
552.389	10.07
552.587	10.13
552.785	10.24
552.983	10.32
553.181	10.35
553.379	10.4
553.577	10.45
553.775	10.48
553.973	10.55
554.171	10.59
554.369	10.69
554.567	10.79
554.765	10.85
554.963	10.93
555.161	11.02
555.359	11.09
555.557	11.18
555.755	11.26
555.952	11.35
556.15	11.45
556.348	11.58
556.546	11.67
556.744	11.75
556.941	11.86
557.139	11.96
557.337	12.04
557.535	12.16
557.732	12.24
557.93	12.32
558.128	12.41
558.325	12.47
558.523	12.52
558.721	12.62
558.918	12.72
559.116	12.77
559.313	12.91
559.511	12.99
559.708	13.09
559.906	13.2
560.104	13.3
560.301	13.37
560.498	13.47
560.696	13.53
560.893	13.63
561.091	13.73
561.288	13.79
561.486	13.84
561.683	13.92
561.88	14.02
562.078	14.1
562.275	14.21
562.473	14.28
562.67	14.33
562.867	14.45
563.064	14.56
563.262	14.69
563.459	14.8
563.656	14.91
563.853	15.01
564.051	15.15
564.248	15.18
564.445	15.27
564.642	15.31
564.839	15.44
565.036	15.54
565.234	15.64
565.431	15.78
565.628	15.9
565.825	16
566.022	16.1
566.219	16.13
566.416	16.23
566.613	16.32
566.81	16.37
567.007	16.43
567.204	16.5
567.401	16.59
567.598	16.65
567.795	16.68
567.991	16.73
568.188	16.78
568.385	16.87
568.582	16.99
568.779	17.04
568.976	17.18
569.172	17.26
569.369	17.32
569.566	17.38
569.763	17.4
569.96	17.37
570.156	17.42
570.353	17.4
570.55	17.45
570.746	17.51
570.943	17.62
571.14	17.7
571.336	17.77
571.533	17.8
571.729	17.83
571.926	17.83
572.123	17.9
572.319	17.87
572.516	17.88
572.712	17.91
572.909	17.98
573.105	18.05
573.302	18.09
573.498	18.11
573.695	18.15
573.891	18.23
574.087	18.27
574.284	18.25
574.48	18.28
574.677	18.33
574.873	18.38
575.069	18.43
575.266	18.39
575.462	18.42
575.658	18.51
575.854	18.53
576.051	18.52
576.247	18.49
576.443	18.49
576.639	18.53
576.835	18.53
577.032	18.5
577.228	18.46
577.424	18.5
577.62	18.5
577.816	18.5
578.012	18.48
578.208	18.49
578.404	18.51
578.6	18.57
578.796	18.57
578.993	18.58
579.189	18.54
579.384	18.52
579.58	18.52
579.776	18.5
579.972	18.45
580.168	18.44
580.364	18.41
580.56	18.44
580.756	18.46
580.952	18.45
581.148	18.45
581.343	18.45
581.539	18.43
581.735	18.43
581.931	18.42
582.127	18.42
582.322	18.35
582.518	18.33
582.714	18.29
582.909	18.25
583.105	18.22
583.301	18.19
583.496	18.15
583.692	18.19
583.888	18.2
584.083	18.23
584.279	18.26
584.474	18.27
584.67	18.26
584.866	18.27
585.061	18.26
585.257	18.25
585.452	18.18
585.648	18.18
585.843	18.2
586.039	18.2
586.234	18.19
586.429	18.16
586.625	18.1
586.82	18.06
587.015	18.04
587.211	18.01
587.406	18
587.601	18.01
587.797	17.98
587.992	18.04
588.187	18.14
588.383	18.18
588.578	18.14
588.773	18.14
588.968	18.17
589.163	18.25
589.359	18.19
589.554	18.13
589.749	18.11
589.944	18.17
590.139	18.19
590.334	18.19
590.529	18.25
590.724	18.3
590.919	18.38
591.114	18.38
591.309	18.42
591.504	18.49
591.699	18.5
591.894	18.47
592.089	18.52
592.284	18.54
592.479	18.59
592.674	18.64
592.869	18.65
593.064	18.78
593.259	18.83
593.454	18.86
593.648	18.86
593.843	18.92
594.038	18.93
594.233	18.99
594.428	18.97
594.622	18.98
594.817	19.02
595.012	19.1
595.206	19.16
595.401	19.17
595.596	19.27
595.79	19.35
595.985	19.46
596.18	19.58
596.374	19.68
596.569	19.74
596.763	19.89
596.958	19.93
597.153	19.97
597.347	20.03
597.542	20.09
597.736	20.14
597.931	20.18
598.125	20.22
598.319	20.29
598.514	20.36
598.708	20.43
598.903	20.48
599.097	20.51
599.291	20.61
599.486	20.67
599.68	20.7
599.874	20.83
600.069	20.86
600.263	20.85
600.457	20.91
600.651	20.93
600.846	20.98
601.04	20.99
601.234	20.98
601.428	21.01
601.622	21.08
601.817	21.11
602.011	21.19
602.205	21.17
602.399	21.19
602.593	21.17
602.787	21.23
602.981	21.24
603.175	21.2
603.369	21.2
603.563	21.26
603.757	21.28
603.951	21.25
604.145	21.21
604.339	21.17
604.533	21.21
604.727	21.14
604.921	21.06
605.115	21.02
605.309	20.98
605.502	21.02
605.696	20.99
605.89	21.01
606.084	21.01
606.278	21.03
606.471	21.02
606.665	21
606.859	20.91
607.053	20.88
607.246	20.8
607.44	20.72
607.634	20.6
607.827	20.51
608.021	20.43
608.214	20.38
608.408	20.34
608.602	20.28
608.795	20.2
608.989	20.15
609.182	20.17
609.376	20.16
609.569	20.11
609.763	20.07
609.956	19.97
610.15	19.95
610.343	19.93
610.537	19.8
610.73	19.76
610.923	19.73
611.117	19.62
611.31	19.59
611.504	19.57
611.697	19.53
611.89	19.46
612.083	19.36
612.277	19.23
612.47	19.17
612.663	19.11
612.856	18.99
613.05	18.91
613.243	18.85
613.436	18.76
613.629	18.75
613.822	18.66
614.015	18.58
614.209	18.56
614.402	18.48
614.595	18.37
614.788	18.29
614.981	18.13
615.174	18.07
615.367	18.01
615.56	17.88
615.753	17.82
615.946	17.79
616.139	17.76
616.332	17.75
616.525	17.74
616.718	17.69
616.911	17.68
617.103	17.62
617.296	17.59
617.489	17.56
617.682	17.51
617.875	17.45
618.067	17.36
618.26	17.32
618.453	17.26
618.646	17.22
618.838	17.19
619.031	17.16
619.224	17.16
619.417	17.18
619.609	17.18
619.802	17.19
619.994	17.15
620.187	17.14
620.38	17.07
620.572	17
620.765	16.92
620.957	16.81
621.15	16.76
621.342	16.75
621.535	16.71
621.727	16.7
621.92	16.67
622.112	16.69
622.305	16.66
622.497	16.62
622.69	16.59
622.882	16.53
623.074	16.53
623.267	16.5
623.459	16.44
623.651	16.4
623.844	16.36
624.036	16.34
624.228	16.3
624.42	16.24
624.613	16.25
624.805	16.25
624.997	16.27
625.189	16.3
625.381	16.23
625.574	16.22
625.766	16.23
625.958	16.2
626.15	16.19
626.342	16.16
626.534	16.12
626.726	16.15
626.918	16.1
627.11	16.04
627.302	16
627.494	15.99
627.686	15.92
627.878	15.88
628.07	15.82
628.262	15.82
628.454	15.79
628.646	15.72
628.838	15.64
629.029	15.61
629.221	15.53
629.413	15.46
629.605	15.41
629.797	15.38
629.989	15.34
630.18	15.29
630.372	15.28
630.564	15.3
630.755	15.29
630.947	15.25
631.139	15.19
631.33	15.21
631.522	15.13
631.714	15.14
631.905	15.12
632.097	15.12
632.289	15.09
632.48	15.09
632.672	15.03
632.863	15.05
633.055	15.01
633.246	14.98
633.438	14.97
633.629	14.96
633.821	14.98
634.012	14.99
634.203	15.07
634.395	15.06
634.586	15.04
634.777	14.99
634.969	15.02
635.16	14.93
635.351	14.89
635.543	14.82
635.734	14.79
635.925	14.84
636.117	14.87
636.308	14.82
636.499	14.83
636.69	14.87
636.881	14.9
637.073	14.89
637.264	14.83
637.455	14.84
637.646	14.88
637.837	14.87
638.028	14.9
638.219	14.84
638.41	14.84
638.601	14.85
638.792	14.78
638.983	14.72
639.174	14.78
639.365	14.7
639.556	14.71
639.747	14.74
639.938	14.71
640.129	14.69
640.32	14.65
640.511	14.6
640.701	14.56
640.892	14.57
641.083	14.49
641.274	14.47
641.465	14.45
641.655	14.46
641.846	14.42
642.037	14.41
642.228	14.34
642.418	14.34
642.609	14.34
642.8	14.3
642.99	14.29
643.181	14.29
643.372	14.29
643.562	14.27
643.753	14.2
643.943	14.18
644.134	14.19
644.324	14.14
644.515	14.09
644.705	14.07
644.896	14.07
645.086	14.06
645.277	14.06
645.467	14.06
645.658	14.05
645.848	14.06
646.038	14.01
646.229	14.01
646.419	14.05
646.61	14.02
646.8	14.01
646.99	14.01
647.18	13.99
647.371	14.01
647.561	13.94
647.751	13.91
647.941	13.85
648.132	13.83
648.322	13.84
648.512	13.82
648.702	13.82
648.892	13.88
649.082	13.8
649.272	13.78
649.462	13.73
649.653	13.7
649.843	13.66
650.033	13.59
650.223	13.55
650.413	13.59
650.603	13.6
650.793	13.57
650.983	13.48
651.172	13.47
651.362	13.46
651.552	13.36
651.742	13.32
651.932	13.31
652.122	13.28
652.312	13.16
652.502	13.1
652.691	13
652.881	12.96
653.071	12.84
653.261	12.72
653.45	12.64
653.64	12.64
653.83	12.58
654.019	12.44
654.209	12.35
654.399	12.29
654.588	12.21
654.778	12.14
654.968	12.04
655.157	11.92
655.347	11.87
655.536	11.73
655.726	11.65
655.915	11.55
656.105	11.45
656.294	11.27
656.484	11.18
656.673	11.09
656.863	10.99
657.052	10.79
657.241	10.58
657.431	10.37
657.62	10.23
657.809	10.02
657.999	9.89
658.188	9.75
658.377	9.68
658.567	9.57
658.756	9.44
658.945	9.34
659.134	9.24
659.324	9.04
659.513	8.86
659.702	8.66
659.891	8.5
660.08	8.4
660.269	8.26
660.458	8.12
660.648	8.01
660.837	7.97
661.026	7.87
661.215	7.73
661.404	7.6
661.593	7.45
661.782	7.35
661.971	7.19
662.16	7.01
662.349	6.89
662.538	6.89
662.726	6.78
662.915	6.69
663.104	6.51
663.293	6.48
663.482	6.35
663.671	6.25
663.86	6.04
664.048	5.97
664.237	5.92
664.426	5.94
664.615	5.82
664.803	5.78
664.992	5.78
665.181	5.76
665.369	5.65
665.558	5.61
665.747	5.58
665.935	5.61
666.124	5.58
666.312	5.47
666.501	5.39
666.69	5.35
666.878	5.32
667.067	5.29
667.255	5.17
667.444	5.19
667.632	5.21
667.82	5.21
668.009	5.25
668.197	5.2
668.386	5.11
668.574	5.12
668.762	5.1
668.951	5.04
669.139	5.12
669.327	5.1
669.516	5.13
669.704	5.2
669.892	5.25
670.08	5.22
670.269	5.25
670.457	5.23
670.645	5.26
670.833	5.23
671.021	5.19
671.21	5.24
671.398	5.32
671.586	5.37
671.774	5.34
671.962	5.4
672.15	5.43
672.338	5.51
672.526	5.47
672.714	5.46
672.902	5.48
673.09	5.59
673.278	5.61
673.466	5.72
673.654	5.73
673.842	5.83
674.03	5.93
674.218	5.97
674.405	6.05
674.593	6.07
674.781	6.13
674.969	6.23
675.157	6.27
675.344	6.35
675.532	6.43
675.72	6.41
675.908	6.47
676.095	6.57
676.283	6.57
676.471	6.67
676.658	6.75
676.846	6.82
677.033	6.94
677.221	7.03
677.409	7.05
677.596	7.28
677.784	7.3
677.971	7.37
678.159	7.5
678.346	7.61
678.534	7.72
678.721	7.77
678.909	7.81
679.096	7.88
679.283	7.97
679.471	8.13
679.658	8.22
679.846	8.35
680.033	8.49
680.22	8.46
680.408	8.58
680.595	8.65
680.782	8.66
680.969	8.75
681.157	8.8
681.344	8.98
681.531	9.17
681.718	9.29
681.905	9.51
682.093	9.72
682.28	9.91
682.467	10.04
682.654	10.13
682.841	10.26
683.028	10.52
683.215	10.57
683.402	10.58
683.589	10.75
683.776	10.88
683.963	11.04
684.15	11.28
684.337	11.35
684.524	11.63
684.711	11.93
684.898	12.17
685.085	12.47
685.271	12.72
685.458	13.01
685.645	13.31
685.832	13.54
686.019	13.84
686.205	14.06
686.392	14.35
686.579	14.6
686.766	14.9
686.952	15.27
687.139	15.58
687.326	15.92
687.512	16.22
687.699	16.48
687.886	16.83
688.072	17.17
688.259	17.39
688.445	17.72
688.632	18.13
688.818	18.46
689.005	19.05
689.191	19.56
689.378	19.95
689.564	20.34
689.751	20.9
689.937	21.28
690.124	21.95
690.31	22.39
690.496	22.93
690.683	23.47
690.869	24.13
691.055	24.75
691.242	25.29
691.428	25.86
691.614	26.51
691.8	26.99
691.987	27.62
692.173	28.28
692.359	28.77
692.545	29.4
692.731	30.01
692.918	30.5
693.104	31.09
693.29	31.72
693.476	32.19
693.662	32.85
693.848	33.48
694.034	33.88
694.22	34.51
694.406	35.18
694.592	35.72
694.778	36.42
694.964	36.99
695.15	37.6
695.336	38.41
695.522	39.02
695.708	39.72
695.894	40.3
696.08	40.78
696.265	41.34
696.451	41.99
696.637	42.5
696.823	43.03
697.009	43.51
697.194	44.19
697.38	44.72
697.566	45.34
697.751	45.8
697.937	46.3
698.123	46.9
698.308	47.44
698.494	47.89
698.68	48.5
698.865	49.04
699.051	49.6
699.236	50.18
699.422	50.69
699.607	51.23
699.793	51.59
699.978	51.93
700.164	52.35
700.349	52.79
700.535	53.18
700.72	53.49
700.906	53.83
701.091	54.3
701.276	54.82
701.462	55.22
701.647	55.48
701.832	55.87
702.018	56.23
702.203	56.38
702.388	56.6
702.573	57.06
702.759	57.42
702.944	57.88
703.129	58.15
703.314	58.46
703.499	58.94
703.684	59.48
703.87	59.58
704.055	59.96
704.24	60.17
704.425	60.53
704.61	60.6
704.795	60.83
704.98	61
705.165	61.33
705.35	61.45
705.535	61.82
705.72	61.99
705.905	62.44
706.09	62.67
706.275	62.94
706.459	63.26
706.644	63.48
706.829	63.63
707.014	63.87
707.199	63.98
707.384	64.24
707.568	64.6
707.753	64.81
707.938	64.98
708.123	65.03
708.307	65.28
708.492	65.58
708.677	65.94
708.861	65.92
709.046	65.79
709.231	65.89
709.415	66.22
709.6	66.28
709.784	66.52
709.969	66.72
710.153	67.01
710.338	67.43
710.522	67.63
710.707	67.42
710.891	67.66
711.076	67.7
711.26	67.75
711.445	67.74
711.629	68.05
711.813	68.01
711.998	68.28
712.182	68.52
712.366	68.82
712.551	68.81
712.735	68.85
712.919	68.77
713.103	68.98
713.288	69.19
713.472	69.11
713.656	68.94
713.84	69.07
714.024	69.41
714.208	69.59
714.393	69.75
714.577	69.97
714.761	70.37
714.945	70.54
715.129	70.81
715.313	70.92
715.497	70.91
715.681	71.3
715.865	71.18
716.049	71.05
716.233	71.43
716.417	71.59
716.601	71.63
716.785	71.98
716.968	71.82
717.152	72.22
717.336	72.36
717.52	72.19
717.704	72.05
717.888	72.05
718.071	71.79
718.255	71.95
718.439	71.65
718.622	71.63
718.806	71.64
718.99	71.78
719.174	71.83
719.357	72.15
719.541	72.2
719.724	72.42
719.908	72.49
720.092	72.73
720.275	72.83
720.459	73.07
720.642	73.1
720.826	73.23
721.009	73.19
721.193	73.29
721.376	73.07
721.559	72.98
721.743	73.03
721.926	72.98
722.11	72.99
722.293	73.07
722.476	72.94
722.66	73.22
722.843	73.48
723.026	73.8
723.21	73.86
723.393	73.75
723.576	73.9
723.759	74.05
723.942	74.24
724.126	74.41
724.309	73.95
724.492	74.22
724.675	74.52
724.858	74.74
725.041	74.88
725.224	74.85
725.407	74.48
725.59	74.75
725.774	74.74
725.957	74.82
726.14	74.73
726.322	74.68
726.505	74.72
726.688	74.9
726.871	75.11
727.054	75.31
727.237	75.07
727.42	75.6
727.603	76.05
727.786	76.24
727.968	76.85
728.151	76.79
728.334	76.53
728.517	76.97
728.699	76.95
728.882	77.02
729.065	77.13
729.248	76.86
729.43	76.95
729.613	77.43
729.796	77.3
729.978	77.33
730.161	77.49
730.343	77.76
730.526	77.63
730.708	77.78
730.891	77.66
731.073	77.87
731.256	77.81
731.438	77.85
731.621	77.6
731.803	78.1
731.986	78.28
732.168	78.39
732.35	78.4
732.533	78.67
732.715	78.64
732.898	78.79
733.08	78.6
733.262	78.64
733.444	78.9
733.627	78.95
733.809	78.97
733.991	79.23
734.173	79.13
734.355	79.45
734.538	79.63
734.72	79.65
734.902	79.8
735.084	80.01
735.266	79.74
735.448	79.97
735.63	79.75
735.812	79.46
735.994	79.4
736.176	79.62
736.358	79.6
736.54	79.85
736.722	79.79
736.904	79.84
737.086	79.69
737.268	79.87
737.45	79.83
737.632	79.3
737.814	79.04
737.995	79.57
738.177	79.64
738.359	80.36
738.541	80.11
738.723	80.44
738.904	80.75
739.086	81.11
739.268	80.99
739.449	81.41
739.631	81.31
739.813	81.51
739.994	81.59
740.176	81.84
740.358	81.47
740.539	81.32
740.721	80.82
740.902	80.58
741.084	80.29
741.265	80.03
741.447	79.74
741.628	79.68
741.81	80.26
741.991	80.64
742.172	80.63
742.354	81.03
742.535	81.13
742.717	81.26
742.898	82.13
743.079	81.74
743.261	82.08
743.442	82.55
743.623	82.64
743.804	82.52
743.986	82.24
744.167	81.25
744.348	81.37
744.529	80.71
744.71	79.76
744.891	79.24
745.073	78.4
745.254	78.9
745.435	79.2
745.616	78.85
745.797	78.95
745.978	79.49
746.159	79.54
746.34	80.4
746.521	80.31
746.702	80.31
746.883	79.97
747.064	80.18
747.245	80.21
747.426	80.84
747.606	80.89
747.787	81.13
747.968	81.94
748.149	82.62
748.33	83.14
748.51	82.98
748.691	83.08
748.872	82.5
749.053	82.04
749.233	81.33
749.414	81.13
749.595	79.94
749.775	79.79
749.956	78.71
750.137	79.03
750.317	79.37
750.498	79.56
750.678	79.75
750.859	80.18
751.04	80.7
751.22	80.66
751.4	80.52
751.581	79.6
751.761	80.03
751.942	79.73
752.122	80.17
752.303	80.18
752.483	80.71
752.663	81.38
752.844	81.37
753.024	80.76
753.204	80.5
753.385	79.95
753.565	79.22
753.745	79.17
753.925	78.17
754.106	78.87
754.286	79.14
754.466	78.89
754.646	78.87
754.826	79.33
755.006	79.44
755.187	80.04
755.367	79.86
755.547	79.88
755.727	79.83
755.907	80.13
756.087	80.04
756.267	79.7
756.447	80.07
756.627	80.34
756.807	80.43
756.987	80.76
757.167	80.33
757.346	80.13
757.526	79.86
757.706	79.97
757.886	80.22
758.066	79.77
758.246	79.99
758.425	80.08
758.605	79.86
758.785	80.34
758.965	78.85
759.144	78.96
759.324	79.67
759.504	79.51
759.683	79.18
759.863	79.14
760.043	78.78
760.222	78.89
760.402	78.28
760.581	77.35
760.761	76.35
760.94	76.46
761.12	76.04
761.299	75.62
761.479	76.26
761.658	75.36
761.838	75.72
762.017	75.73
762.197	75.76
762.376	75.87
762.555	76.2
762.735	75.44
762.914	76.29
763.093	76.48
763.273	76.64
763.452	76.17
763.631	75.55
763.81	76.35
763.99	77.02
764.169	76.09
764.348	75.75
764.527	76.34
764.706	76.75
764.885	77.68
765.064	77.14
765.243	76.23
765.423	77.58
765.602	77
765.781	76.76
765.96	77.07
766.139	76.38
766.318	76.88
766.497	78.14
766.676	78.47
766.854	78.57
767.033	78.04
767.212	77.02
767.391	77.85
767.57	77.4
767.749	76.98
767.928	74.72
768.106	74.23
768.285	75.13
768.464	76.58
768.643	76.94
768.821	76.99
769	77.27
769.179	77.86
769.357	78.02
769.536	76.99
769.715	76.11
769.893	74.33
770.072	74.2
770.25	74.15
770.429	74.87
770.607	75.63
770.786	75.92
770.964	75.36
771.143	76
771.321	75.68
771.5	74.07
771.678	74.25
771.857	73.25
772.035	72.86
772.213	73.14
772.392	74.3
772.57	74.64
772.748	75.56
772.927	75.4
773.105	76.5
773.283	76.8
773.461	76.82
773.64	75.5
773.818	74.91
773.996	74.55
774.174	74.63
774.352	74.53
774.531	74.02
774.709	74.66
774.887	74.72
775.065	74.57
775.243	75.34
775.421	75.73
775.599	73.61
775.777	74.36
775.955	72.9
776.133	72.08
776.311	71.99
776.489	71.3
776.667	68.83
776.844	69.39
777.022	69.95
777.2	70.33
777.378	71.87
777.556	72.79
777.734	72.39
777.911	74.37
778.089	75.06
778.267	72.66
778.445	72.15
778.622	71.33
778.8	70.12
778.978	69.95
779.155	68.79
779.333	67.83
779.511	68.72
779.688	67.68
779.866	67.49
780.043	68.35
780.221	69.72
780.398	69.85
780.576	69.63
780.753	69.45
780.931	71.3
781.108	72.56
781.286	71.16
781.463	70.32
781.64	70.71
781.818	72.01
781.995	73.12
782.172	73.4
782.35	71.63
782.527	73.15
782.704	73.24
782.882	73.62
783.059	71.84
783.236	71.91
783.413	72
783.59	71.55
783.768	71.41
783.945	70.95
784.122	71.16
784.299	73.57
784.476	73.36
784.653	71.42
784.83	70.97
785.007	70.9
785.184	71.6
785.361	69.48
785.538	68.03
785.715	66.79
785.892	66.62
786.069	68.59
786.246	67.28
786.423	67.5
786.6	68.71
786.776	68.9
786.953	69.36
787.13	70.29
787.307	69.51
787.484	70.54
787.66	69.99
787.837	70.83
788.014	69.85
788.191	69.36
788.367	70.09
788.544	70.72
788.721	70.49
788.897	70.28
789.074	69.82
789.25	71.99
789.427	72.58
789.603	72.61
789.78	72.54
789.956	70.71
790.133	69.34
790.309	68.16
790.486	69.08
790.662	69.92
790.839	71.56
791.015	71.38
791.192	71.48
791.368	73.74
791.544	73.79
791.721	72.44
791.897	73.21
792.073	69.76
792.249	70.52
792.426	71.15
792.602	69.63
792.778	69.43
792.954	67.8
793.13	68.89
793.307	69.61
793.483	68
793.659	68.74
793.835	69.2
794.011	68.07
794.187	64.77
794.363	61.78
794.539	60.04
794.715	59.28
794.891	56.01
795.067	57.26
795.243	58.59
795.419	63.37
795.595	63.18
795.771	65.35
795.947	66.07
796.122	69.03
796.298	66.75
796.474	69.02
796.65	68.56
796.826	68.55
797.001	68.55
797.177	67.98
797.353	68.75
797.529	69.11
797.704	67.61
797.88	65.33
798.056	66.14
798.231	64.31
798.407	64.43
798.582	64.19
798.758	66.77
798.934	65.72
799.109	66.12
799.285	66.89
799.46	69.37
799.636	70.02
799.811	67.49
799.986	65.35
800.162	67.4
800.337	65.68
800.513	66.15
800.688	65.7
800.863	66.55
801.039	65.43
801.214	65.05
801.389	63.99
801.565	67.75
801.74	64.99
801.915	64.14
802.09	61.61
802.265	65.13
802.441	64.18
802.616	61.03
802.791	60.62
802.966	63.04
803.141	58.98
803.316	60.31
803.491	57.85
803.666	60.23
803.841	62.39
804.016	62.72
804.191	62.65
804.366	65.57
804.541	64.35
804.716	60.61
804.891	61.56
805.066	62.14
805.241	59.59
805.416	56.91
805.591	60.3
805.765	62.22
805.94	64.72
806.115	59.26
806.29	57.55
806.464	57.04
806.639	58.11
806.814	52.84
806.989	52.32
807.163	50.78
807.338	56.27
807.512	54.59
807.687	54.4
807.862	56.13
808.036	57.8
808.211	57.68
808.385	59.24
808.56	60.29
808.734	62.62
808.909	63.08
809.083	59
809.258	63.51
809.432	62.41
809.606	61.72
809.781	58.72
809.955	61.17
810.13	60.6
810.304	60.83
810.478	59.04
810.652	59.98
810.827	65.44
811.001	65.69
811.175	61.87
811.349	62.62
811.524	62.98
811.698	63.44
811.872	64.91
812.046	61.59
812.22	57.46
812.394	61.81
812.568	67.08
812.742	64.79
812.916	64.72
813.09	61.26
813.264	66.48
813.438	77.05
813.612	68.08
813.786	66.47
813.96	69.48
814.134	67.01
814.308	66.95
814.482	63.17
814.656	59.76
814.83	66.34
815.003	64.33
815.177	66.19
815.351	67.09
815.525	66.46
815.698	64.74
815.872	63.13
816.046	59.78
816.219	60.78
816.393	51.23
816.567	46.06
816.74	48.55
816.914	55.07
817.088	50.51
817.261	54.22
817.435	49.64
817.608	54.69
817.782	62.95
817.955	56.09
818.129	51.7
818.302	58.25
818.475	57.63
818.649	53.54
818.822	55.97
818.996	54.51
819.169	55.17
819.342	52.64
819.516	49.55
819.689	47.34
819.862	55.99
820.035	59.03
820.209	60.81
820.382	64.05
820.555	63.57
820.728	59.09
820.901	57.29
821.075	53.51
821.248	51.89
821.421	46.29
821.594	49.57
821.767	49.62
821.94	54.64
822.113	55.5
822.286	54.34
822.459	56.76
822.632	55.62
822.805	51.14
822.978	47.97
823.151	47.51
823.324	41.55
823.496	35.72
823.669	38.94
823.842	41.19
824.015	43.94
824.188	50.43
824.361	47.78
824.533	56.32
824.706	77.09
824.879	69.71
825.051	76.78
825.224	71.46
825.397	66.34
825.569	73.45
825.742	73.55
825.915	66.05
826.087	60.19
826.26	53.08
826.432	58.79
826.605	58.59
826.777	53.93
826.95	48.51
827.122	52.28
827.295	56.57
827.467	51.66
827.64	38.76
827.812	35.11
827.984	41.96
828.157	43.77
828.329	37.55
828.501	37.69
828.674	42.93
828.846	52.32
829.018	53.89
829.19	47.8
829.363	50
829.535	48.78
829.707	40.73
829.879	39.87
830.051	37.45
830.223	31.56
830.395	24.4
830.568	24.82
830.74	29.35
830.912	37.39
831.084	34
831.256	32.22
831.428	39.48
831.6	44.08
831.772	42.16
831.943	45.91
832.115	47.41
832.287	49.81
832.459	56.52
832.631	61.97
832.803	70.22
832.975	71.99
833.146	63.75
833.318	62.97
833.49	63.02
833.662	59.8
833.833	56.72
834.005	52.24
834.177	55.68
834.348	53.79
834.52	51.07
834.692	62.17
834.863	64.18
835.035	51.66
835.206	49.92
835.378	51.59
835.549	51.4
835.721	49.6
835.892	44.42
836.064	49.61
836.235	60.69
836.407	58.32
836.578	55.25
836.749	54.08
836.921	57.43
837.092	66.73
837.264	61.69
837.435	49.77
837.606	53.65
837.777	54.62
837.949	53.65
838.12	49.23
838.291	42.9
838.462	38.51
838.633	38.16
838.805	39.63
838.976	28.97
839.147	31.29
839.318	29.23
839.489	30.8
839.66	34.43
839.831	28.27
840.002	25.18
840.173	31.23
840.344	30.61
840.515	36.48
840.686	31.74
840.857	23.42
841.028	44.27
841.199	45.88
841.369	47.19
841.54	56.33
841.711	60.47
841.882	57.48
842.053	60.03
842.223	48.46
842.394	46.29
842.565	50.57
842.736	35.85
842.906	36.43
843.077	46.04
843.248	46.53
843.418	51.15
843.589	47.25
843.759	41.46
843.93	55.22
844.101	50.13
844.271	52.85
844.442	57.62
844.612	46.2
844.783	35.37
844.953	41.58
845.123	35.94
845.294	36.67
845.464	36.71
845.635	38.1
845.805	46.63
845.975	48.03
846.146	39.66
846.316	51.22
846.486	65.33
846.656	65.87
846.827	58.99
846.997	57.82
847.167	66.36
847.337	66.99
847.507	62.36
847.677	55.46
847.848	52.99
848.018	58.23
848.188	59.91
848.358	65.46
848.528	69.02
848.698	39
848.868	22.73
849.038	13.09
849.208	19.85
849.378	4.51
849.548	6.35
849.718	-5.72
849.887	7.6
850.057	14.47
850.227	14.63
850.397	14.2
850.567	26.42
850.737	8.91
850.906	14.56
851.076	17.2
851.246	23.97
851.415	32.7
851.585	22.69
851.755	27.02
851.924	46.47
852.094	38.71
852.264	34.03
852.433	44.13
852.603	55.61
852.772	45.93
852.942	31.22
853.111	23.97
853.281	30.26
853.45	33.3
853.62	16.1
853.789	3.29
853.959	0.9
854.128	-6.3
854.297	-12.35
854.467	-15.16
854.636	4.71
854.805	21.74
854.975	31.03
855.144	41.58
855.313	54.14
855.482	50.17
855.652	51.02
855.821	40.42
855.99	29.86
856.159	9.95
856.328	14.19
856.497	16.51
856.667	34.05
856.836	25.83
857.005	17.41
857.174	31.46
857.343	30.98
857.512	16.1
857.681	13.1
857.85	8.29
858.019	18.97
858.188	22.58
858.356	-5
858.525	15.17
858.694	34.05
858.863	26.43
859.032	21.88
859.201	9.47
859.369	24.69
859.538	11.25
859.707	13.45
859.876	18.14
860.044	26.48
860.213	20.31
860.382	31.18
860.55	28.46
860.719	63.32
860.888	54.43
861.056	67.1
861.225	78.88
861.393	87.32
861.562	87.21
861.73	75.53
861.899	47.88
862.067	63.14
862.236	49.73
862.404	45.15
862.572	36.17
862.741	33.22
862.909	37.36
863.078	30.23
863.246	21.81
863.414	20.97
863.582	12.6
863.751	10.82
863.919	28.62
864.087	29.5
864.255	46.26
864.424	50
864.592	48.98
864.76	46.7
864.928	50.2
865.096	45.45
865.264	49.57
865.432	39.97
865.6	25.76
865.768	21.03
865.936	11.67
866.104	12.15
866.272	-12.69
866.44	-59.58
866.608	-78.88
866.776	-39
866.944	-47.88
867.112	-54.04
867.28	-94.9
867.448	-37.78
867.615	-24.4
867.783	-24.6
867.951	-48.35
868.119	-29.34
868.286	-20.69
868.454	7.76
868.622	-11.07
868.789	14.49
868.957	34.91
869.125	34.54
869.292	43.41
869.46	48.62
869.627	40.55
869.795	31.15
869.963	26.59
870.13	39.29
870.298	54.12
870.465	45.53
870.632	48.74
870.8	51.33
870.967	40.24
871.135	47.34
871.302	37.36
871.469	28.45
871.637	27
871.804	28.04
871.971	26.68
872.139	31.94
872.306	15.29
872.473	-0.02
872.64	7.76
872.807	9.83
872.975	6.76
873.142	-7.5
873.309	43.37
873.476	128.13
873.643	198.63
873.81	149.65
873.977	81.76
874.144	115.67
874.311	102.87
874.478	8.29
874.645	-20.78
874.812	-12.11
874.979	-28.01
875.146	-52.75
875.313	-92.94
875.48	-37.47
875.647	-38.84
875.813	-23.75
875.98	-10.36
876.147	57.25
876.314	77.01
876.481	61.83
876.647	53.47
876.814	56.84
876.981	45.59
877.147	23.58
877.314	-6.43
877.481	1.28
877.647	11.38
877.814	10.24
877.98	11.03
878.147	34.03
878.314	45.12
878.48	47.42
878.647	64.98
878.813	56.76
878.979	41.59
879.146	20.54
879.312	42.33
879.479	44.04
879.645	16.49
879.811	-0.79
879.978	5.37
880.144	18.25
880.31	-4.07
880.477	-63.75
880.643	-144.1
880.809	4.11
880.975	-42.81
881.142	-25.43
881.308	-46.71
881.474	-3.16
881.64	-58.07
881.806	-31.65
881.972	-8.55
882.138	26.82
882.304	-24.58
882.47	-1.66
882.636	-57.12
882.802	3.13
882.968	-12.4
883.134	-168.56
883.3	-110.45
883.466	8.94
883.632	-13.45
883.798	13.87
883.964	3.8
884.129	22.97
884.295	14.97
884.461	9.01
884.627	-19.15
884.793	30.71
884.958	27.84
885.124	-13.83
885.29	-21.95
885.455	7.29
885.621	1.05
885.787	-17.61
885.952	-28.73
886.118	-23.08
886.283	13.55
886.449	3.57
886.614	-5.73
886.78	29.99
886.945	22.18
887.111	-4.79
887.276	-19.18
887.442	-25.69
887.607	-36.04
887.773	-37.53
887.938	-64.77
888.103	-12.93
888.269	-3.31
888.434	6.07
888.599	16.15
888.764	24.8
888.93	30.73
889.095	2
889.26	13.06
889.425	37.25
889.59	29.88
889.756	14.11
889.921	-7.7
890.086	-6.04
890.251	-2.75
890.416	-70.78
890.581	-79.2
890.746	-91.18
890.911	-152.18
891.076	-197.77
891.241	-276.36
891.406	-105.59
891.571	-52.11
891.736	-47.56
891.901	-36.89
892.065	6.97
892.23	13.76
892.395	-4.12
892.56	9.62
892.725	4.55
892.889	-18.83
893.054	-42.07
893.219	-81.08
893.384	-110.5
893.548	-146.67
893.713	519.31
893.878	330.43
