Data from Ofra_1a_PS_2GT3_Reflection_3.txt Node
Date: Tue Jul 20 10:49:12 EDT 2021
User: Adam
Spectrometer: FLMT01687
Trigger mode: 0
Integration Time (sec): 1.004000E0
Scans to average: 2
Electric dark correction enabled: true
Nonlinearity correction enabled: false
Boxcar width: 2
XAxis mode: Wavelengths
Number of Pixels in Spectrum: 3648
>>>>>Begin Spectral Data<<<<<
179.494	-79.19
179.716	-160.31
179.937	445.48
180.158	-504.46
180.38	131.29
180.601	72.35
180.823	11.84
181.044	-12.52
181.265	65.87
181.486	148
181.708	60.56
181.929	8727.27
182.15	-184.49
182.372	307.39
182.593	207.24
182.814	-236.33
183.035	19.54
183.257	55.49
183.478	9.28
183.699	-44.11
183.92	-54.44
184.141	-61.82
184.363	-39.09
184.584	-51.85
184.805	5.66
185.026	35.13
185.247	5.83
185.468	-23.78
185.689	-3.68
185.91	-27.07
186.132	-15.49
186.353	-2.09
186.574	11.86
186.795	29.39
187.016	44.95
187.237	68.91
187.458	78.97
187.679	78.78
187.9	60.93
188.121	71.07
188.342	48.71
188.563	75.21
188.784	62.81
189.005	43.81
189.226	52.47
189.447	48.52
189.667	30.03
189.888	43.26
190.109	59.21
190.33	51.05
190.551	41.47
190.772	53.1
190.993	21.98
191.214	19.21
191.434	0.51
191.655	-28.01
191.876	45.28
192.097	91.97
192.318	78.19
192.538	78.27
192.759	67.2
192.98	43.43
193.201	30.39
193.421	22.7
193.642	27.98
193.863	35.12
194.083	39.9
194.304	48.1
194.525	36.45
194.745	15.54
194.966	26.86
195.187	15.7
195.407	-2.93
195.628	8.41
195.848	19.6
196.069	-6.84
196.29	-7.88
196.51	-21.11
196.731	-26.24
196.951	-56.19
197.172	-49
197.392	-67
197.613	-15.97
197.833	-38.07
198.054	-43.16
198.274	-11.11
198.495	8.71
198.715	-0.25
198.936	51.17
199.156	50.81
199.377	41.41
199.597	40.75
199.817	21.31
200.038	-45.42
200.258	2.41
200.479	5.15
200.699	7.16
200.919	16.12
201.14	28.17
201.36	2.57
201.58	-6.18
201.801	-11.28
202.021	1.28
202.241	-3.19
202.461	-5.2
202.682	-0.78
202.902	19.7
203.122	23.29
203.342	29.55
203.563	20.85
203.783	17.71
204.003	-12.82
204.223	-16.47
204.443	7.41
204.663	27.45
204.884	19.26
205.104	28.1
205.324	62.24
205.544	-15.32
205.764	12.56
205.984	34.44
206.204	39.02
206.424	14.56
206.644	22.75
206.864	-28.51
207.084	-21.5
207.304	-36.99
207.525	-28.53
207.745	10.61
207.964	29.59
208.184	59.45
208.404	50.09
208.624	48.17
208.844	16.39
209.064	25.52
209.284	-17.42
209.504	-19.25
209.724	-12.68
209.944	-21.01
210.164	-34.01
210.384	-19.14
210.604	-54.28
210.823	-66.26
211.043	-19.73
211.263	-54.75
211.483	-36.91
211.703	-29.92
211.922	-33.32
212.142	-8.62
212.362	12.25
212.582	21.7
212.801	27.16
213.021	12.4
213.241	-16.45
213.461	-10.98
213.68	-6.09
213.9	-8.12
214.12	0.73
214.339	5.23
214.559	2.68
214.779	-12.13
214.998	-0.5
215.218	9.38
215.438	18.15
215.657	32.97
215.877	25.92
216.096	40.33
216.316	41.42
216.535	33.2
216.755	12.74
216.974	9.09
217.194	-23.04
217.413	-24.29
217.633	-34.34
217.852	-23.09
218.072	-1.69
218.291	-5.39
218.511	-17.3
218.73	4.91
218.95	-9.43
219.169	-17.01
219.389	20.75
219.608	28.53
219.827	14.01
220.047	30
220.266	38.02
220.485	-4.6
220.705	-11.41
220.924	-36.94
221.143	-15.67
221.363	-5.91
221.582	0.23
221.801	21.41
222.021	38.11
222.24	33.1
222.459	37.08
222.678	52.65
222.897	33.33
223.117	44.61
223.336	55.04
223.555	65.71
223.774	46.17
223.993	84.6
224.213	77.82
224.432	83
224.651	42.47
224.87	42.06
225.089	25.27
225.308	31.4
225.527	11.75
225.746	41.93
225.965	41.71
226.184	31.43
226.404	10.43
226.623	20.54
226.842	13.04
227.061	23.94
227.28	39.43
227.499	37.6
227.718	27.38
227.936	25.31
228.155	14.69
228.374	2.69
228.593	14.21
228.812	9.46
229.031	14.57
229.25	7.29
229.469	7.17
229.688	-3.83
229.907	15.16
230.125	6.68
230.344	17.86
230.563	25.91
230.782	46.24
231.001	51.55
231.22	68.12
231.438	83.42
231.657	65.88
231.876	45.87
232.095	42.11
232.313	20.25
232.532	15.56
232.751	5.77
232.969	16.76
233.188	16.08
233.407	21.94
233.625	12.26
233.844	31.09
234.063	21.85
234.281	16.21
234.5	23.38
234.719	30.54
234.937	14.7
235.156	7.59
235.374	13.88
235.593	21.7
235.811	32.05
236.03	31.82
236.249	37.66
236.467	41.17
236.686	24.96
236.904	23.6
237.123	14.42
237.341	5.73
237.559	-6.76
237.778	11.74
237.996	-29.44
238.215	-82.8
238.433	-105.62
238.652	-23.01
238.87	-19.14
239.088	-7.21
239.307	28.48
239.525	29.56
239.743	8.26
239.962	6.86
240.18	10.3
240.398	7.24
240.617	-5.62
240.835	-9.77
241.053	-5.55
241.271	18.72
241.49	24.3
241.708	23.99
241.926	22.76
242.144	34.21
242.363	5.2
242.581	-53.25
242.799	-43.76
243.017	-13.48
243.235	-22.82
243.453	-27.11
243.672	0
243.89	3.55
244.108	6.83
244.326	21.33
244.544	33.64
244.762	31.14
244.98	41.2
245.198	43.21
245.416	41.53
245.634	30.81
245.852	16.17
246.07	11.3
246.288	10.2
246.506	-9.06
246.724	7.22
246.942	10.33
247.16	27.35
247.378	10.82
247.596	69.87
247.814	63.68
248.032	92.54
248.25	70.83
248.468	68.18
248.685	55.53
248.903	40.43
249.121	30.26
249.339	20.16
249.557	22.5
249.775	22.17
249.992	26.19
250.21	26.34
250.428	17.71
250.646	12.76
250.863	-4.59
251.081	-2.2
251.299	4.62
251.517	22.94
251.734	27.22
251.952	36.81
252.17	55.26
252.387	59.63
252.605	49.8
252.823	53.11
253.04	89.27
253.258	63.88
253.475	53.91
253.693	61.13
253.911	35.1
254.128	15.53
254.346	14.77
254.563	13.49
254.781	10.72
254.998	25
255.216	-4.17
255.433	-38.89
255.651	-30.82
255.868	-48.26
256.086	-33.73
256.303	-1.33
256.521	21.51
256.738	16
256.956	26.48
257.173	17.24
257.39	11
257.608	1.41
257.825	15.64
258.043	27.42
258.26	29.63
258.477	32.87
258.695	40.76
258.912	36.68
259.129	19.62
259.346	24.29
259.564	24.21
259.781	4.31
259.998	17.8
260.216	32.09
260.433	8.47
260.65	1.09
260.867	12.3
261.084	-0.18
261.302	-7.66
261.519	27.35
261.736	29.36
261.953	20.48
262.17	42.9
262.387	35.24
262.604	23.24
262.822	33.33
263.039	40.82
263.256	16.99
263.473	22.31
263.69	27.41
263.907	30.63
264.124	39.05
264.341	36.24
264.558	23.3
264.775	33.33
264.992	11.6
265.209	-19.12
265.426	-24.79
265.643	-9.92
265.86	-71.11
266.077	-36.11
266.294	-8.71
266.51	18.84
266.727	7.59
266.944	27.67
267.161	26.55
267.378	30.73
267.595	13.37
267.812	12.81
268.028	3.75
268.245	24.36
268.462	24.36
268.679	31.88
268.896	46.73
269.112	34.31
269.329	12.35
269.546	7.83
269.763	7.28
269.979	-1.83
270.196	20.54
270.413	20.87
270.629	12.4
270.846	18.89
271.063	26.3
271.279	22.38
271.496	16.56
271.712	12.13
271.929	18.08
272.146	11.13
272.362	12.52
272.579	6.47
272.795	16.05
273.012	5.71
273.228	21.7
273.445	13.01
273.661	18.6
273.878	25.27
274.094	35.99
274.311	32.08
274.527	30.17
274.744	27.18
274.96	18.93
275.177	9.32
275.393	5.19
275.609	13.2
275.826	7.21
276.042	-5.51
276.259	-0.43
276.475	-14.55
276.691	-24.14
276.908	-6.95
277.124	1.66
277.34	3.99
277.557	13.21
277.773	27.2
277.989	26.59
278.205	8.71
278.422	9.82
278.638	18.05
278.854	18.83
279.07	17.99
279.286	28.16
279.503	24.31
279.719	24.79
279.935	24.16
280.151	18.06
280.367	22.91
280.583	21.07
280.799	13.79
281.016	-11.85
281.232	9.83
281.448	12.06
281.664	12.93
281.88	22.11
282.096	27.57
282.312	13.15
282.528	14.3
282.744	6.76
282.96	-3.67
283.176	-6.17
283.392	-11.26
283.608	0.31
283.824	-7.74
284.04	-71.73
284.256	-34.1
284.471	-7.6
284.687	-6.98
284.903	-0.42
285.119	23.7
285.335	31.88
285.551	33.18
285.767	14.34
285.982	31.46
286.198	39.43
286.414	29.83
286.63	15.56
286.846	49.82
287.061	21.9
287.277	4.52
287.493	1.97
287.709	-6.28
287.924	-13.28
288.14	4.42
288.356	12.34
288.571	4.65
288.787	1.49
289.003	7.25
289.218	-17.04
289.434	-20.35
289.65	5.12
289.865	12.48
290.081	17.97
290.296	28.52
290.512	27.5
290.727	9.97
290.943	4.75
291.159	-3.78
291.374	-23.68
291.59	-9.76
291.805	-7.73
292.021	0
292.236	13.52
292.451	24.46
292.667	16.55
292.882	27.56
293.098	35.28
293.313	30
293.529	33.61
293.744	27.5
293.959	24.5
294.175	20.38
294.39	1.93
294.605	7.41
294.821	4.1
295.036	0.98
295.251	3.2
295.467	-4.58
295.682	2.34
295.897	-5.84
296.112	-3.56
296.328	0.98
296.543	4.1
296.758	-14.18
296.973	-3.99
297.188	-1.61
297.404	-19.37
297.619	-36
297.834	-54.11
298.049	-24.83
298.264	-18.78
298.479	-13.38
298.694	27.8
298.909	41.26
299.125	32.5
299.34	24.36
299.555	24.16
299.77	26.15
299.985	21.77
300.2	25.88
300.415	31.91
300.63	44.05
300.845	32.18
301.06	36.01
301.275	33.5
301.49	25.99
301.704	9.56
301.919	2.06
302.134	-2.99
302.349	2.46
302.564	5.14
302.779	-0.96
302.994	30.43
303.209	28.35
303.423	31.07
303.638	37.59
303.853	28.25
304.068	7.5
304.283	16.18
304.497	14.71
304.712	19.44
304.927	31.66
305.142	26.3
305.356	31.94
305.571	27.26
305.786	15.15
306	14.34
306.215	14.65
306.43	12.57
306.644	17.31
306.859	29.11
307.074	26.85
307.288	36.88
307.503	27.59
307.717	29.11
307.932	25.78
308.147	18.82
308.361	1.4
308.576	-12.31
308.79	-11.99
309.005	-9.44
309.219	4.37
309.434	37.64
309.648	39.12
309.863	39.46
310.077	35.21
310.292	41.42
310.506	29.22
310.72	25.05
310.935	47.93
311.149	37.59
311.364	33.02
311.578	30.25
311.792	28.67
312.007	8.94
312.221	5.13
312.435	15.41
312.649	15.04
312.864	19.11
313.078	9.35
313.292	13.83
313.507	16.02
313.721	15.57
313.935	20.41
314.149	16.41
314.363	16.73
314.578	0.72
314.792	-26.96
315.006	-31.2
315.22	-9.12
315.434	11.17
315.648	7.37
315.862	36.27
316.077	30.54
316.291	46.82
316.505	15.97
316.719	33.75
316.933	21.78
317.147	20.3
317.361	7.33
317.575	27.02
317.789	16.98
318.003	0.16
318.217	1.69
318.431	-13.36
318.645	-26.19
318.859	-19.58
319.073	6.98
319.287	6.43
319.5	9.51
319.714	8.6
319.928	14.27
320.142	4.9
320.356	14.66
320.57	-8.57
320.784	3.67
320.997	-31.01
321.211	-10.64
321.425	-26.84
321.639	18.01
321.853	13.96
322.066	26.39
322.28	12.46
322.494	16.22
322.707	10.8
322.921	11.71
323.135	16.77
323.349	11.93
323.562	8.55
323.776	3.15
323.989	10.87
324.203	0.88
324.417	6.8
324.63	-8.99
324.844	-11.5
325.057	-42.55
325.271	-36.47
325.485	-42.66
325.698	-4.43
325.912	8.12
326.125	20.03
326.339	23.44
326.552	16.54
326.766	4.65
326.979	2.21
327.193	5.1
327.406	0.57
327.619	9.06
327.833	1.32
328.046	0.87
328.26	0
328.473	6.94
328.686	2.82
328.9	13.66
329.113	7.09
329.326	9.41
329.54	9.4
329.753	23.75
329.966	25.21
330.179	25.4
330.393	16.94
330.606	14.6
330.819	-1.64
331.032	2.45
331.246	16.69
331.459	37.88
331.672	39.05
331.885	40.2
332.098	45.97
332.311	30.03
332.525	13.72
332.738	13.22
332.951	11.33
333.164	7.12
333.377	13.53
333.59	13.38
333.803	10.17
334.016	16.3
334.229	19
334.442	9.75
334.655	3.46
334.868	0.54
335.081	5.32
335.294	-9.25
335.507	8.49
335.72	6.98
335.933	8.06
336.146	-0.71
336.359	15.45
336.572	2.82
336.785	9.01
336.997	-1.16
337.21	-11.79
337.423	-39.11
337.636	-31.11
337.849	-28.16
338.062	-6.8
338.274	16.34
338.487	9.82
338.7	1.62
338.913	10.24
339.125	17.59
339.338	-1.29
339.551	5.57
339.763	8.04
339.976	0
340.189	-12.86
340.402	-4.12
340.614	5.07
340.827	20.68
341.039	25.67
341.252	41.22
341.465	26.12
341.677	27.88
341.89	18.72
342.102	14.37
342.315	4.02
342.527	6.17
342.74	-13.98
342.952	-20.15
343.165	-9.49
343.377	3.53
343.59	6.27
343.802	13.85
344.015	11.96
344.227	5.7
344.44	-0.46
344.652	-1.71
344.864	1.6
345.077	14.33
345.289	26.15
345.502	32.88
345.714	40.75
345.926	47.4
346.139	33.71
346.351	27.68
346.563	20.52
346.775	15.33
346.988	31.97
347.2	33.2
347.412	31.57
347.624	39.69
347.837	40.73
348.049	30.57
348.261	31.38
348.473	30.73
348.685	16.06
348.897	11.95
349.11	15.6
349.322	17.67
349.534	11.18
349.746	19.69
349.958	16.66
350.17	7.06
350.382	-2.2
350.594	9.85
350.806	15.46
351.018	22.01
351.23	32.37
351.442	39.69
351.654	35.85
351.866	25.03
352.078	28.03
352.29	20.85
352.502	12.13
352.714	-3.04
352.926	7.82
353.138	7.54
353.35	1.81
353.561	4.26
353.773	0.12
353.985	6.2
354.197	2.59
354.409	1.42
354.621	-19.82
354.832	-5.01
355.044	-32.02
355.256	-49.35
355.468	-47.11
355.679	1.19
355.891	3.66
356.103	-0.12
356.314	-5.33
356.526	-23.03
356.738	-44.61
356.949	-56.15
357.161	-30.53
357.373	-3.46
357.584	12.85
357.796	16.51
358.008	24.83
358.219	19.2
358.431	10.49
358.642	18.95
358.854	29.43
359.065	21.41
359.277	9.24
359.488	9.22
359.7	-0.87
359.911	-13.93
360.123	1.28
360.334	7.51
360.546	-4.76
360.757	2.78
360.969	4.35
361.18	-1.48
361.391	16.84
361.603	27.89
361.814	23.94
362.025	26.18
362.237	34.38
362.448	35.8
362.659	32.68
362.871	18.62
363.082	10.92
363.293	11.91
363.504	-16.29
363.716	3.97
363.927	21.36
364.138	3
364.349	-13.06
364.56	-27.32
364.772	-30.3
364.983	-31.92
365.194	-9.34
365.405	-6
365.616	17.64
365.827	10.47
366.038	15.39
366.25	20.02
366.461	26.19
366.672	15.74
366.883	12.39
367.094	9.79
367.305	0.47
367.516	-12.56
367.727	-18.09
367.938	-16.96
368.149	-8.6
368.36	-12.99
368.571	-19.26
368.781	-10.76
368.992	-11.96
369.203	-23.55
369.414	-27.9
369.625	-25.93
369.836	-7.28
370.047	3.66
370.258	18.17
370.468	20.85
370.679	23.53
370.89	10.91
371.101	21.12
371.312	8.49
371.522	18.66
371.733	3.62
371.944	1.74
372.155	-8.38
372.365	7.3
372.576	1.53
372.787	19.09
372.997	28.91
373.208	23.35
373.419	12.44
373.629	17.88
373.84	6.7
374.05	-9.83
374.261	-2.74
374.472	-3.96
374.682	3.94
374.893	2.52
375.103	24.88
375.314	13.54
375.524	22
375.735	16.15
375.945	19.14
376.156	10.46
376.366	17.42
376.577	17.92
376.787	16.65
376.997	26.12
377.208	17.28
377.418	15.05
377.629	10.6
377.839	17.35
378.049	10.74
378.26	17.17
378.47	14.07
378.68	12.57
378.89	7.18
379.101	7
379.311	7.14
379.521	-1.71
379.732	1.56
379.942	-12.06
380.152	-19.54
380.362	-14.07
380.572	9.47
380.783	11.67
380.993	20.64
381.203	21.76
381.413	22.19
381.623	13.33
381.833	13.56
382.043	16.07
382.253	22.11
382.463	25.85
382.674	28.14
382.884	26.66
383.094	17.79
383.304	23.01
383.514	16.12
383.724	17.08
383.934	7.91
384.144	16.26
384.353	12.66
384.563	14.24
384.773	13.69
384.983	12.43
385.193	3.11
385.403	-0.96
385.613	0.35
385.823	-5.68
386.033	3.77
386.242	5.85
386.452	8.18
386.662	7.69
386.872	12.63
387.082	5.1
387.291	7.78
387.501	3.82
387.711	5.39
387.921	0.56
388.13	4.92
388.34	2.78
388.55	1.78
388.759	-6.04
388.969	-4.43
389.179	-5.91
389.388	-5.67
389.598	-0.84
389.807	-0.61
390.017	0.48
390.227	0.89
390.436	3
390.646	3.44
390.855	7.17
391.065	6.89
391.274	6.51
391.484	6.66
391.693	4.92
391.903	5.25
392.112	4.32
392.322	2.76
392.531	1.1
392.74	0.91
392.95	-0.49
393.159	0.53
393.369	1.37
393.578	2.16
393.787	2.25
393.997	3.11
394.206	2.72
394.415	3.75
394.625	2.84
394.834	2.1
395.043	3.15
395.252	4.98
395.462	5
395.671	5.26
395.88	7.07
396.089	5.68
396.298	4.83
396.508	4.09
396.717	4.38
396.926	3.64
397.135	3.82
397.344	3.3
397.553	3.55
397.762	4.98
397.971	4.98
398.181	5.42
398.39	5.5
398.599	5.56
398.808	4.87
399.017	5.56
399.226	5.24
399.435	5.13
399.644	5.47
399.853	5.46
400.062	4.9
400.27	4.44
400.479	4.53
400.688	4.58
400.897	4.32
401.106	4.51
401.315	4.74
401.524	4.91
401.733	4.33
401.941	4.34
402.15	4.08
402.359	4.3
402.568	4.25
402.777	4.6
402.985	4.49
403.194	4.39
403.403	4.51
403.612	4.35
403.82	4.26
404.029	4.4
404.238	4.51
404.446	4.38
404.655	4.52
404.864	4.56
405.072	4.44
405.281	4.51
405.489	4.47
405.698	4.38
405.906	4.48
406.115	4.43
406.324	4.28
406.532	4.35
406.741	4.39
406.949	4.28
407.158	4.47
407.366	4.48
407.574	4.35
407.783	4.23
407.991	4.14
408.2	4.12
408.408	4.09
408.617	4.13
408.825	4.05
409.033	4.09
409.242	4.12
409.45	4.1
409.658	4.04
409.867	4.19
410.075	4.26
410.283	4.02
410.491	4.03
410.7	3.93
410.908	3.97
411.116	4.04
411.324	4.04
411.533	3.92
411.741	4
411.949	3.89
412.157	3.72
412.365	3.85
412.573	3.91
412.781	3.86
412.99	3.86
413.198	3.86
413.406	3.86
413.614	3.95
413.822	4.01
414.03	4.03
414.238	4.07
414.446	4.05
414.654	3.97
414.862	3.85
415.07	3.81
415.278	3.87
415.486	3.75
415.694	3.7
415.902	3.64
416.109	3.63
416.317	3.56
416.525	3.59
416.733	3.57
416.941	3.77
417.149	3.64
417.357	3.62
417.564	3.72
417.772	3.69
417.98	3.59
418.188	3.73
418.395	3.57
418.603	3.4
418.811	3.55
419.019	3.62
419.226	3.64
419.434	3.83
419.642	3.62
419.849	3.48
420.057	3.49
420.265	3.42
420.472	3.28
420.68	3.57
420.887	3.56
421.095	3.68
421.302	3.72
421.51	3.73
421.717	3.92
421.925	3.99
422.132	3.89
422.34	3.66
422.547	3.55
422.755	3.46
422.962	3.5
423.17	3.23
423.377	3.31
423.585	3.55
423.792	3.44
423.999	3.39
424.207	3.47
424.414	3.39
424.621	3.23
424.829	3.38
425.036	3.5
425.243	3.59
425.451	3.73
425.658	3.66
425.865	3.55
426.072	3.52
426.28	3.59
426.487	3.55
426.694	3.6
426.901	3.66
427.108	3.61
427.315	3.48
427.523	3.45
427.73	3.35
427.937	3.23
428.144	3.17
428.351	3.21
428.558	3.37
428.765	3.4
428.972	3.34
429.179	3.3
429.386	3.27
429.593	3.13
429.8	3.21
430.007	3.26
430.214	3.25
430.421	3.43
430.628	3.43
430.835	3.41
431.042	3.43
431.249	3.43
431.456	3.26
431.662	3.46
431.869	3.51
432.076	3.58
432.283	3.71
432.49	3.72
432.697	3.6
432.903	3.62
433.11	3.67
433.317	3.65
433.524	3.78
433.73	3.72
433.937	3.83
434.144	3.76
434.35	3.68
434.557	3.76
434.764	3.86
434.97	3.74
435.177	3.96
435.384	4.08
435.59	4
435.797	4.01
436.003	4.12
436.21	3.85
436.416	3.81
436.623	3.78
436.829	3.76
437.036	3.67
437.242	3.8
437.449	3.87
437.655	3.92
437.862	4.08
438.068	4.13
438.275	4.18
438.481	4.17
438.687	4.11
438.894	4.09
439.1	4.02
439.307	4.06
439.513	4.15
439.719	4.19
439.926	4.15
440.132	4.35
440.338	4.31
440.544	4.23
440.751	4.22
440.957	4.3
441.163	4.1
441.369	4.15
441.575	4.08
441.782	4.11
441.988	4.08
442.194	4.11
442.4	4.09
442.606	4.26
442.812	4.28
443.018	4.3
443.224	4.47
443.431	4.44
443.637	4.23
443.843	4.24
444.049	4.22
444.255	4.2
444.461	4.21
444.667	4.36
444.873	4.32
445.079	4.34
445.284	4.31
445.49	4.33
445.696	4.31
445.902	4.38
446.108	4.48
446.314	4.43
446.52	4.51
446.726	4.59
446.931	4.57
447.137	4.5
447.343	4.6
447.549	4.62
447.755	4.54
447.96	4.59
448.166	4.61
448.372	4.59
448.578	4.51
448.783	4.55
448.989	4.6
449.195	4.56
449.4	4.69
449.606	4.68
449.812	4.57
450.017	4.56
450.223	4.53
450.428	4.47
450.634	4.5
450.84	4.62
451.045	4.66
451.251	4.72
451.456	4.75
451.662	4.83
451.867	4.86
452.073	4.83
452.278	4.83
452.483	4.82
452.689	4.82
452.894	4.8
453.1	4.73
453.305	4.77
453.51	4.82
453.716	4.74
453.921	4.79
454.127	4.9
454.332	4.9
454.537	4.83
454.742	4.95
454.948	4.87
455.153	4.86
455.358	4.85
455.563	4.95
455.769	4.89
455.974	4.95
456.179	4.94
456.384	4.95
456.589	4.82
456.795	4.77
457	4.77
457.205	4.77
457.41	4.73
457.615	4.86
457.82	5.01
458.025	5.06
458.23	5.1
458.435	5.13
458.64	5.12
458.845	5.05
459.05	5.06
459.255	5.05
459.46	4.99
459.665	4.95
459.87	4.98
460.075	5.01
460.28	5.01
460.485	5.2
460.69	5.19
460.895	5.23
461.099	5.1
461.304	5.05
461.509	4.95
461.714	5.07
461.919	4.92
462.123	5.05
462.328	5.02
462.533	4.94
462.738	4.79
462.942	4.89
463.147	4.88
463.352	5.07
463.556	5.2
463.761	5.19
463.966	5.27
464.17	5.31
464.375	5.29
464.58	5.25
464.784	5.37
464.989	5.32
465.193	5.28
465.398	5.29
465.602	5.44
465.807	5.38
466.011	5.42
466.216	5.39
466.42	5.47
466.625	5.48
466.829	5.52
467.034	5.63
467.238	5.76
467.443	5.71
467.647	5.67
467.851	5.69
468.056	5.65
468.26	5.62
468.464	5.71
468.669	5.77
468.873	5.8
469.077	5.79
469.282	5.87
469.486	5.78
469.69	5.82
469.894	5.86
470.099	5.89
470.303	5.81
470.507	5.9
470.711	5.83
470.915	5.87
471.119	5.88
471.324	5.96
471.528	5.95
471.732	6.02
471.936	6.01
472.14	6.06
472.344	6.16
472.548	6.23
472.752	6.23
472.956	6.32
473.16	6.31
473.364	6.24
473.568	6.18
473.772	6.11
473.976	6.11
474.18	6.13
474.384	6.05
474.588	6.16
474.792	6.23
474.995	6.27
475.199	6.31
475.403	6.45
475.607	6.39
475.811	6.45
476.015	6.36
476.218	6.3
476.422	6.3
476.626	6.27
476.83	6.34
477.033	6.44
477.237	6.48
477.441	6.46
477.644	6.53
477.848	6.53
478.052	6.52
478.255	6.56
478.459	6.51
478.663	6.64
478.866	6.62
479.07	6.57
479.273	6.55
479.477	6.62
479.681	6.52
479.884	6.46
480.088	6.5
480.291	6.51
480.495	6.52
480.698	6.55
480.901	6.63
481.105	6.69
481.308	6.77
481.512	6.76
481.715	6.84
481.919	6.88
482.122	6.86
482.325	6.85
482.529	6.88
482.732	6.81
482.935	6.76
483.138	6.8
483.342	6.8
483.545	6.9
483.748	6.96
483.952	7.03
484.155	7.08
484.358	7.09
484.561	7.03
484.764	6.98
484.967	6.94
485.171	6.97
485.374	6.93
485.577	6.97
485.78	6.98
485.983	6.92
486.186	6.81
486.389	6.89
486.592	6.91
486.795	6.95
486.998	6.98
487.201	7.05
487.404	7.15
487.607	7.11
487.81	7.07
488.013	7.14
488.216	7.1
488.419	6.95
488.622	6.92
488.825	6.93
489.028	6.89
489.231	6.97
489.433	6.99
489.636	6.99
489.839	7.05
490.042	7.11
490.245	7.05
490.447	7.11
490.65	7.13
490.853	7.11
491.056	7.05
491.258	7.05
491.461	7.02
491.664	7.04
491.866	7
492.069	7.09
492.272	7.06
492.474	7.12
492.677	7.14
492.879	7.2
493.082	7.25
493.285	7.32
493.487	7.29
493.69	7.34
493.892	7.31
494.095	7.27
494.297	7.32
494.5	7.31
494.702	7.3
494.905	7.34
495.107	7.36
495.309	7.39
495.512	7.42
495.714	7.47
495.917	7.56
496.119	7.62
496.321	7.64
496.524	7.68
496.726	7.68
496.928	7.63
497.13	7.53
497.333	7.53
497.535	7.59
497.737	7.63
497.939	7.68
498.142	7.74
498.344	7.78
498.546	7.78
498.748	7.84
498.95	7.91
499.152	7.93
499.355	7.93
499.557	7.99
499.759	8.06
499.961	8.01
500.163	8.06
500.365	8.12
500.567	8.12
500.769	8.02
500.971	8.06
501.173	8.08
501.375	8.16
501.577	8.11
501.779	8.12
501.981	8.14
502.183	8.11
502.385	8.12
502.587	8.23
502.788	8.35
502.99	8.38
503.192	8.47
503.394	8.43
503.596	8.46
503.798	8.41
503.999	8.4
504.201	8.43
504.403	8.45
504.605	8.49
504.806	8.57
505.008	8.65
505.21	8.6
505.411	8.6
505.613	8.57
505.815	8.54
506.016	8.58
506.218	8.69
506.42	8.7
506.621	8.74
506.823	8.8
507.024	8.83
507.226	8.79
507.427	8.83
507.629	8.81
507.83	8.81
508.032	8.72
508.233	8.78
508.435	8.83
508.636	8.92
508.838	8.9
509.039	8.92
509.24	8.97
509.442	9.02
509.643	8.97
509.845	8.99
510.046	9.04
510.247	8.98
510.448	8.94
510.65	8.98
510.851	9.01
511.052	9.08
511.254	9.16
511.455	9.23
511.656	9.23
511.857	9.23
512.058	9.22
512.26	9.18
512.461	9.12
512.662	9.14
512.863	9.1
513.064	9.16
513.265	9.15
513.466	9.22
513.667	9.24
513.868	9.29
514.069	9.26
514.27	9.29
514.471	9.23
514.672	9.25
514.873	9.33
515.074	9.35
515.275	9.29
515.476	9.35
515.677	9.41
515.878	9.41
516.079	9.42
516.28	9.52
516.481	9.56
516.682	9.48
516.882	9.44
517.083	9.46
517.284	9.45
517.485	9.41
517.686	9.49
517.886	9.49
518.087	9.48
518.288	9.46
518.488	9.49
518.689	9.47
518.89	9.51
519.091	9.64
519.291	9.65
519.492	9.66
519.692	9.69
519.893	9.69
520.094	9.59
520.294	9.61
520.495	9.63
520.695	9.68
520.896	9.73
521.096	9.76
521.297	9.78
521.497	9.78
521.698	9.78
521.898	9.77
522.099	9.77
522.299	9.81
522.499	9.87
522.7	9.87
522.9	9.89
523.101	9.91
523.301	9.92
523.501	9.94
523.702	9.94
523.902	9.99
524.102	10.1
524.302	10.14
524.503	10.12
524.703	10.16
524.903	10.12
525.103	10.02
525.304	10
525.504	10.11
525.704	10.11
525.904	10.1
526.104	10.14
526.304	10.17
526.504	10.1
526.705	10.02
526.905	10.07
527.105	10.12
527.305	10.08
527.505	10.03
527.705	10.09
527.905	10.14
528.105	10.14
528.305	10.2
528.505	10.25
528.705	10.34
528.905	10.32
529.105	10.33
529.304	10.4
529.504	10.43
529.704	10.38
529.904	10.45
530.104	10.46
530.304	10.46
530.503	10.52
530.703	10.6
530.903	10.6
531.103	10.65
531.303	10.69
531.502	10.75
531.702	10.77
531.902	10.84
532.101	10.84
532.301	10.87
532.501	10.92
532.7	10.97
532.9	10.99
533.1	11.01
533.299	11.06
533.499	10.99
533.698	10.97
533.898	11
534.097	11.02
534.297	10.98
534.496	10.96
534.696	11.02
534.895	10.98
535.095	11.05
535.294	11.1
535.494	11.2
535.693	11.17
535.892	11.19
536.092	11.19
536.291	11.23
536.491	11.22
536.69	11.3
536.889	11.32
537.088	11.34
537.288	11.36
537.487	11.42
537.686	11.39
537.886	11.47
538.085	11.5
538.284	11.55
538.483	11.51
538.682	11.61
538.882	11.57
539.081	11.65
539.28	11.65
539.479	11.71
539.678	11.72
539.877	11.8
540.076	11.82
540.275	11.88
540.474	11.92
540.673	12.03
540.872	12.03
541.071	12.04
541.27	12.06
541.469	12.14
541.668	12.1
541.867	12.17
542.066	12.27
542.265	12.36
542.464	12.38
542.663	12.46
542.862	12.56
543.06	12.63
543.259	12.68
543.458	12.71
543.657	12.75
543.856	12.83
544.054	12.78
544.253	12.81
544.452	12.91
544.651	12.98
544.849	12.94
545.048	13.04
545.247	13.07
545.445	13.09
545.644	13.14
545.843	13.25
546.041	13.35
546.24	13.4
546.438	13.51
546.637	13.55
546.836	13.65
547.034	13.63
547.233	13.74
547.431	13.73
547.63	13.8
547.828	13.78
548.027	13.9
548.225	13.95
548.423	14.11
548.622	14.12
548.82	14.18
549.019	14.23
549.217	14.25
549.415	14.19
549.614	14.42
549.812	14.55
550.01	14.56
550.209	14.69
550.407	14.87
550.605	14.83
550.803	14.86
551.002	15.02
551.2	15.04
551.398	15.14
551.596	15.24
551.794	15.35
551.993	15.47
552.191	15.61
552.389	15.67
552.587	15.74
552.785	15.89
552.983	15.99
553.181	16.02
553.379	16.13
553.577	16.19
553.775	16.25
553.973	16.31
554.171	16.43
554.369	16.48
554.567	16.66
554.765	16.74
554.963	16.83
555.161	16.89
555.359	16.99
555.557	17.05
555.755	17.17
555.952	17.28
556.15	17.44
556.348	17.53
556.546	17.65
556.744	17.79
556.941	17.81
557.139	17.94
557.337	18.13
557.535	18.17
557.732	18.15
557.93	18.4
558.128	18.46
558.325	18.58
558.523	18.76
558.721	18.95
558.918	19.02
559.116	19.18
559.313	19.23
559.511	19.4
559.708	19.47
559.906	19.59
560.104	19.65
560.301	19.81
560.498	19.89
560.696	20.09
560.893	20.21
561.091	20.37
561.288	20.51
561.486	20.53
561.683	20.63
561.88	20.72
562.078	20.8
562.275	20.89
562.473	21.02
562.67	21.13
562.867	21.23
563.064	21.34
563.262	21.43
563.459	21.62
563.656	21.76
563.853	21.9
564.051	22.07
564.248	22.25
564.445	22.36
564.642	22.45
564.839	22.63
565.036	22.82
565.234	22.93
565.431	23.01
565.628	23.07
565.825	23.12
566.022	23.19
566.219	23.22
566.416	23.39
566.613	23.55
566.81	23.65
567.007	23.7
567.204	23.87
567.401	23.92
567.598	24.04
567.795	24.12
567.991	24.15
568.188	24.24
568.385	24.28
568.582	24.46
568.779	24.63
568.976	24.77
569.172	24.85
569.369	25.01
569.566	25.06
569.763	25.05
569.96	25.18
570.156	25.24
570.353	25.26
570.55	25.27
570.746	25.39
570.943	25.39
571.14	25.45
571.336	25.57
571.533	25.7
571.729	25.78
571.926	25.9
572.123	25.99
572.319	25.98
572.516	26
572.712	26.1
572.909	26.05
573.105	26.08
573.302	26.09
573.498	26.02
573.695	25.93
573.891	26.01
574.087	26.02
574.284	26.18
574.48	26.25
574.677	26.27
574.873	26.34
575.069	26.45
575.266	26.44
575.462	26.53
575.658	26.67
575.854	26.7
576.051	26.67
576.247	26.67
576.443	26.6
576.639	26.52
576.835	26.46
577.032	26.48
577.228	26.52
577.424	26.6
577.62	26.65
577.816	26.68
578.012	26.73
578.208	26.75
578.404	26.77
578.6	26.79
578.796	26.87
578.993	26.89
579.189	26.84
579.384	26.92
579.58	26.96
579.776	26.97
579.972	26.9
580.168	26.93
580.364	26.86
580.56	26.69
580.756	26.62
580.952	26.57
581.148	26.64
581.343	26.67
581.539	26.84
581.735	26.88
581.931	26.82
582.127	26.74
582.322	26.75
582.518	26.7
582.714	26.68
582.909	26.84
583.105	26.82
583.301	26.78
583.496	26.7
583.692	26.67
583.888	26.61
584.083	26.62
584.279	26.49
584.474	26.52
584.67	26.51
584.866	26.5
585.061	26.52
585.257	26.57
585.452	26.52
585.648	26.51
585.843	26.43
586.039	26.39
586.234	26.41
586.429	26.49
586.625	26.52
586.82	26.51
587.015	26.51
587.211	26.56
587.406	26.54
587.601	26.62
587.797	26.73
587.992	26.72
588.187	26.61
588.383	26.65
588.578	26.61
588.773	26.59
588.968	26.7
589.163	26.89
589.359	26.89
589.554	26.86
589.749	26.89
589.944	26.86
590.139	26.78
590.334	26.88
590.529	26.99
590.724	27.06
590.919	27.12
591.114	27.17
591.309	27.12
591.504	27.05
591.699	26.89
591.894	26.87
592.089	26.89
592.284	26.99
592.479	27.04
592.674	27.28
592.869	27.31
593.064	27.42
593.259	27.5
593.454	27.65
593.648	27.68
593.843	27.77
594.038	27.83
594.233	27.8
594.428	27.88
594.622	27.89
594.817	28.03
595.012	28.04
595.206	28.19
595.401	28.27
595.596	28.44
595.79	28.45
595.985	28.51
596.18	28.57
596.374	28.75
596.569	28.74
596.763	28.88
596.958	28.95
597.153	29.11
597.347	29.05
597.542	29.16
597.736	29.31
597.931	29.43
598.125	29.5
598.319	29.64
598.514	29.76
598.708	29.79
598.903	29.93
599.097	29.96
599.291	29.99
599.486	30.01
599.68	30.07
599.874	30.09
600.069	30.17
600.263	30.33
600.457	30.4
600.651	30.43
600.846	30.49
601.04	30.55
601.234	30.48
601.428	30.56
601.622	30.6
601.817	30.67
602.011	30.71
602.205	30.77
602.399	30.69
602.593	30.77
602.787	30.71
602.981	30.67
603.175	30.74
603.369	30.79
603.563	30.82
603.757	30.85
603.951	30.96
604.145	30.79
604.339	30.86
604.533	30.82
604.727	30.88
604.921	30.84
605.115	30.92
605.309	30.78
605.502	30.78
605.696	30.69
605.89	30.69
606.084	30.67
606.278	30.82
606.471	30.76
606.665	30.69
606.859	30.52
607.053	30.39
607.246	30.22
607.44	30.05
607.634	30.09
607.827	30.03
608.021	30.02
608.214	29.92
608.408	29.86
608.602	29.66
608.795	29.7
608.989	29.72
609.182	29.7
609.376	29.69
609.569	29.74
609.763	29.58
609.956	29.41
610.15	29.33
610.343	29.23
610.537	29.22
610.73	29.14
610.923	29.14
611.117	29.07
611.31	28.95
611.504	28.78
611.697	28.7
611.89	28.56
612.083	28.45
612.277	28.37
612.47	28.23
612.663	28.22
612.856	28.11
613.05	28.06
613.243	27.98
613.436	27.95
613.629	27.76
613.822	27.71
614.015	27.62
614.209	27.56
614.402	27.5
614.595	27.41
614.788	27.35
614.981	27.18
615.174	27.09
615.367	26.92
615.56	26.75
615.753	26.75
615.946	26.66
616.139	26.66
616.332	26.62
616.525	26.72
616.718	26.6
616.911	26.61
617.103	26.5
617.296	26.49
617.489	26.33
617.682	26.29
617.875	26.25
618.067	26.2
618.26	26.05
618.453	26.01
618.646	25.93
618.838	25.75
619.031	25.69
619.224	25.72
619.417	25.73
619.609	25.66
619.802	25.58
619.994	25.64
620.187	25.51
620.38	25.43
620.572	25.35
620.765	25.39
620.957	25.24
621.15	25.3
621.342	25.32
621.535	25.32
621.727	25.3
621.92	25.33
622.112	25.3
622.305	25.19
622.497	25.24
622.69	25.13
622.882	25.11
623.074	25.05
623.267	25.01
623.459	24.92
623.651	24.94
623.844	24.94
624.036	24.9
624.228	24.92
624.42	24.84
624.613	24.81
624.805	24.73
624.997	24.68
625.189	24.69
625.381	24.68
625.574	24.75
625.766	24.73
625.958	24.7
626.15	24.64
626.342	24.64
626.534	24.52
626.726	24.44
626.918	24.45
627.11	24.37
627.302	24.35
627.494	24.28
627.686	24.19
627.878	24.1
628.07	24.12
628.262	24.07
628.454	24.05
628.646	24
628.838	24.07
629.029	23.9
629.221	23.76
629.413	23.75
629.605	23.77
629.797	23.69
629.989	23.78
630.18	23.93
630.372	23.87
630.564	23.8
630.755	23.66
630.947	23.55
631.139	23.36
631.33	23.42
631.522	23.37
631.714	23.35
631.905	23.34
632.097	23.35
632.289	23.24
632.48	23.23
632.672	23.29
632.863	23.19
633.055	23.19
633.246	23.24
633.438	23.29
633.629	23.24
633.821	23.34
634.012	23.32
634.203	23.23
634.395	23.21
634.586	23.21
634.777	23.09
634.969	23.09
635.16	23.05
635.351	22.99
635.543	22.9
635.734	22.87
635.925	22.86
636.117	22.92
636.308	23.02
636.499	23.1
636.69	23.12
636.881	23.01
637.073	22.96
637.264	22.87
637.455	22.76
637.646	22.81
637.837	22.81
638.028	22.77
638.219	22.78
638.41	22.93
638.601	22.9
638.792	22.95
638.983	22.93
639.174	22.83
639.365	22.71
639.556	22.61
639.747	22.53
639.938	22.58
640.129	22.62
640.32	22.53
640.511	22.51
640.701	22.53
640.892	22.38
641.083	22.29
641.274	22.29
641.465	22.25
641.655	22.25
641.846	22.34
642.037	22.33
642.228	22.27
642.418	22.25
642.609	22.17
642.8	22.07
642.99	22.04
643.181	22.01
643.372	21.95
643.562	21.97
643.753	21.9
643.943	21.79
644.134	21.76
644.324	21.71
644.515	21.62
644.705	21.64
644.896	21.74
645.086	21.7
645.277	21.7
645.467	21.67
645.658	21.59
645.848	21.5
646.038	21.52
646.229	21.57
646.419	21.46
646.61	21.49
646.8	21.5
646.99	21.43
647.18	21.33
647.371	21.4
647.561	21.31
647.751	21.29
647.941	21.23
648.132	21.23
648.322	21.17
648.512	21.23
648.702	21.21
648.892	21.23
649.082	21.25
649.272	21.18
649.462	21.1
649.653	21.04
649.843	20.97
650.033	20.98
650.223	20.94
650.413	20.96
650.603	21.01
650.793	21.03
650.983	20.93
651.172	20.91
651.362	20.73
651.552	20.56
651.742	20.46
651.932	20.41
652.122	20.35
652.312	20.29
652.502	20.21
652.691	20.19
652.881	20.13
653.071	20.13
653.261	20.13
653.45	20
653.64	19.91
653.83	19.71
654.019	19.55
654.209	19.45
654.399	19.3
654.588	19.07
654.778	18.95
654.968	18.69
655.157	18.49
655.347	18.34
655.536	18.25
655.726	18.04
655.915	18.02
656.105	17.82
656.294	17.68
656.484	17.48
656.673	17.37
656.863	17.16
657.052	16.97
657.241	16.86
657.431	16.76
657.62	16.53
657.809	16.3
657.999	16.19
658.188	15.98
658.377	15.69
658.567	15.6
658.756	15.46
658.945	15.28
659.134	15.06
659.324	14.88
659.513	14.73
659.702	14.46
659.891	14.25
660.08	14.04
660.269	13.88
660.458	13.57
660.648	13.35
660.837	13.15
661.026	12.92
661.215	12.7
661.404	12.49
661.593	12.44
661.782	12.2
661.971	11.93
662.16	11.82
662.349	11.66
662.538	11.48
662.726	11.35
662.915	11.33
663.104	11.12
663.293	11.08
663.482	10.92
663.671	10.7
663.86	10.69
664.048	10.66
664.237	10.45
664.426	10.33
664.615	10.33
664.803	10.05
664.992	9.82
665.181	9.69
665.369	9.55
665.558	9.44
665.747	9.45
665.935	9.44
666.124	9.4
666.312	9.28
666.501	9.22
666.69	9.19
666.878	9.12
667.067	9.03
667.255	9.12
667.444	9.27
667.632	9.1
667.82	9.07
668.009	9.1
668.197	9.02
668.386	8.72
668.574	8.72
668.762	8.71
668.951	8.71
669.139	8.66
669.327	8.77
669.516	8.81
669.704	8.76
669.892	8.66
670.08	8.62
670.269	8.61
670.457	8.57
670.645	8.56
670.833	8.61
671.021	8.68
671.21	8.61
671.398	8.67
671.586	8.62
671.774	8.72
671.962	8.69
672.15	8.7
672.338	8.68
672.526	8.79
672.714	8.71
672.902	8.78
673.09	8.97
673.278	9.04
673.466	9.05
673.654	9.13
673.842	9.23
674.03	9.21
674.218	9.23
674.405	9.31
674.593	9.34
674.781	9.32
674.969	9.45
675.157	9.56
675.344	9.63
675.532	9.72
675.72	9.76
675.908	9.66
676.095	9.73
676.283	9.87
676.471	9.97
676.658	10.06
676.846	10.19
677.033	10.13
677.221	10.12
677.409	10.11
677.596	10.21
677.784	10.32
677.971	10.45
678.159	10.52
678.346	10.73
678.534	10.87
678.721	11.03
678.909	11.17
679.096	11.28
679.283	11.36
679.471	11.39
679.658	11.41
679.846	11.57
680.033	11.88
680.22	11.98
680.408	12.05
680.595	12.22
680.782	12.49
680.969	12.58
681.157	12.69
681.344	12.96
681.531	13.14
681.718	13.16
681.905	13.38
682.093	13.55
682.28	13.8
682.467	14.05
682.654	14.26
682.841	14.49
683.028	14.76
683.215	14.91
683.402	15
683.589	15.18
683.776	15.28
683.963	15.49
684.15	15.75
684.337	16.08
684.524	16.45
684.711	16.8
684.898	17.06
685.085	17.28
685.271	17.64
685.458	17.83
685.645	18.07
685.832	18.35
686.019	18.68
686.205	19.16
686.392	19.67
686.579	20.18
686.766	20.77
686.952	21.28
687.139	21.66
687.326	22.1
687.512	22.47
687.699	23.08
687.886	23.56
688.072	23.93
688.259	24.43
688.445	25.14
688.632	25.64
688.818	26.28
689.005	26.84
689.191	27.54
689.378	28.04
689.564	28.68
689.751	29.37
689.937	30.2
690.124	30.82
690.31	31.44
690.496	32.05
690.683	32.75
690.869	33.43
691.055	34.12
691.242	34.73
691.428	35.43
691.614	36.26
691.8	36.94
691.987	37.94
692.173	38.94
692.359	39.95
692.545	40.67
692.731	41.46
692.918	41.76
693.104	42.56
693.29	43.08
693.476	43.76
693.662	44.42
693.848	45.25
694.034	45.85
694.22	46.79
694.406	47.35
694.592	48.37
694.778	49.16
694.964	49.91
695.15	50.39
695.336	51.17
695.522	51.63
695.708	52.47
695.894	53.36
696.08	54.26
696.265	55.3
696.451	55.79
696.637	56.66
696.823	57.23
697.009	57.76
697.194	58.39
697.38	59.24
697.566	59.72
697.751	60.28
697.937	61.17
698.123	61.59
698.308	62.19
698.494	63.03
698.68	63.8
698.865	64.41
699.051	65.05
699.236	65.68
699.422	66.06
699.607	66.48
699.793	66.9
699.978	67.29
700.164	67.84
700.349	68.3
700.535	68.66
700.72	69.09
700.906	69.7
701.091	70.24
701.276	70.62
701.462	71.22
701.647	71.42
701.832	72.1
702.018	72.84
702.203	73.42
702.388	73.71
702.573	74.19
702.759	74.29
702.944	74.02
703.129	74.17
703.314	74.45
703.499	74.9
703.684	75.44
703.87	76.13
704.055	76.63
704.24	77.21
704.425	77.64
704.61	77.6
704.795	77.85
704.98	78.01
705.165	78.2
705.35	78.53
705.535	78.98
705.72	78.98
705.905	79.42
706.09	79.94
706.275	79.94
706.459	80.31
706.644	80.73
706.829	81.06
707.014	81.48
707.199	82.09
707.384	82.42
707.568	82.87
707.753	83.14
707.938	82.9
708.123	83.33
708.307	83.6
708.492	84.02
708.677	83.92
708.861	84.3
709.046	84.02
709.231	83.82
709.415	83.79
709.6	83.94
709.784	84.13
709.969	84.5
710.153	84.78
710.338	85.22
710.522	85.66
710.707	85.64
710.891	85.55
711.076	85.59
711.26	85.63
711.445	85.53
711.629	85.68
711.813	85.9
711.998	86.34
712.182	86.22
712.366	86.83
712.551	87.08
712.735	87.2
712.919	87.56
713.103	87.62
713.288	87.49
713.472	87.82
713.656	87.7
713.84	87.57
714.024	88.09
714.208	87.94
714.393	87.98
714.577	88.87
714.761	88.8
714.945	88.37
715.129	88.56
715.313	88.39
715.497	87.91
715.681	87.68
715.865	87.74
716.049	88.14
716.233	87.77
716.417	87.72
716.601	88.34
716.785	88.6
716.968	88.19
717.152	88.82
717.336	89.15
717.52	89.15
717.704	89.37
717.888	90.22
718.071	90.03
718.255	90.01
718.439	89.93
718.622	90.18
718.806	89.85
718.99	90.14
719.174	90.36
719.357	90.69
719.541	90.55
719.724	90.63
719.908	90.57
720.092	90.4
720.275	90.32
720.459	90.26
720.642	90.4
720.826	90.64
721.009	90.41
721.193	90.1
721.376	90.65
721.559	90.38
721.743	90.74
721.926	91.23
722.11	91.84
722.293	91.84
722.476	92.14
722.66	91.91
722.843	91.72
723.026	91.63
723.21	91.52
723.393	91.81
723.576	91.54
723.759	91.61
723.942	91.59
724.126	91.34
724.309	90.48
724.492	90.58
724.675	90.92
724.858	91.19
725.041	90.87
725.224	91.49
725.407	91.88
725.59	91.58
725.774	91.31
725.957	92.04
726.14	92.35
726.322	92.93
726.505	93.32
726.688	93.68
726.871	93.46
727.054	93.42
727.237	92.33
727.42	92.27
727.603	91.83
727.786	91.83
727.968	91.24
728.151	91.8
728.334	92.12
728.517	92.35
728.699	92.43
728.882	93.02
729.065	92.38
729.248	92.36
729.43	92.84
729.613	92.71
729.796	93.01
729.978	94.01
730.161	94.06
730.343	93.59
730.526	94.17
730.708	93.58
730.891	93.65
731.073	93.76
731.256	94.42
731.438	94.49
731.621	95.12
731.803	94.87
731.986	94.79
732.168	94.65
732.35	95.18
732.533	94.75
732.715	94.93
732.898	94.89
733.08	94.5
733.262	93.5
733.444	94.55
733.627	94.94
733.809	95.15
733.991	95.93
734.173	96
734.355	94.92
734.538	94.32
734.72	94.43
734.902	94.31
735.084	94.62
735.266	95.24
735.448	96.22
735.63	96.69
735.812	96.47
735.994	96.53
736.176	96.36
736.358	96.08
736.54	95.97
736.722	95.79
736.904	95.65
737.086	95.75
737.268	96.46
737.45	97.39
737.632	97.02
737.814	97.81
737.995	97.74
738.177	96.43
738.359	95.06
738.541	95.12
738.723	94.24
738.904	94
739.086	94.93
739.268	94.59
739.449	95.01
739.631	94.68
739.813	94.7
739.994	93.59
740.176	94.25
740.358	94.89
740.539	95.26
740.721	95.44
740.902	96.16
741.084	96.36
741.265	96.02
741.447	96.83
741.628	97.14
741.81	97.12
741.991	96.87
742.172	96.24
742.354	96.4
742.535	96.51
742.717	96.05
742.898	96.54
743.079	97.54
743.261	96.82
743.442	96.3
743.623	96.97
743.804	96.64
743.986	96.75
744.167	95.83
744.348	95.26
744.529	94.24
744.71	93.04
744.891	91.86
745.073	93.14
745.254	94.07
745.435	94.02
745.616	95.19
745.797	95.96
745.978	95.65
746.159	94.68
746.34	96.07
746.521	95.33
746.702	95.35
746.883	95.24
747.064	95.67
747.245	95.61
747.426	95.85
747.606	95.21
747.787	95.59
747.968	95.63
748.149	95.23
748.33	95.15
748.51	95.35
748.691	94.59
748.872	95.86
749.053	94.5
749.233	94.23
749.414	94.4
749.595	94.69
749.775	92.33
749.956	93.66
750.137	93.81
750.317	92.78
750.498	92.5
750.678	93.61
750.859	93.27
751.04	94.24
751.22	94.55
751.4	95.51
751.581	96.65
751.761	97.76
751.942	97.1
752.122	97.51
752.303	96.72
752.483	95.95
752.663	95.81
752.844	95.59
753.024	95.71
753.204	96.16
753.385	96.85
753.565	96.06
753.745	94.97
753.925	93.42
754.106	93.5
754.286	92.34
754.466	92.41
754.646	92.62
754.826	93.93
755.006	93.27
755.187	93.76
755.367	92.31
755.547	93.81
755.727	93.94
755.907	93.39
756.087	93.52
756.267	94.21
756.447	94.67
756.627	94.1
756.807	96.11
756.987	95.54
757.167	96.06
757.346	94.52
757.526	95.79
757.706	94.66
757.886	95.23
758.066	95.49
758.246	94.45
758.425	92.79
758.605	92.49
758.785	91.73
758.965	91.37
759.144	92.26
759.324	94.22
759.504	94.36
759.683	93.42
759.863	93.66
760.043	93.76
760.222	93.03
760.402	91.36
760.581	92.47
760.761	91.91
760.94	91.12
761.12	89.73
761.299	92.34
761.479	92.27
761.658	91
761.838	92.32
762.017	94.1
762.197	92.43
762.376	92.83
762.555	93.19
762.735	92.3
762.914	90.99
763.093	91.73
763.273	90.1
763.452	90.03
763.631	89.83
763.81	90.86
763.99	90.93
764.169	91.31
764.348	91.42
764.527	92.29
764.706	90.01
764.885	89.94
765.064	91.11
765.243	92.39
765.423	92.09
765.602	94.37
765.781	91.75
765.96	90.77
766.139	89.63
766.318	89.39
766.497	88
766.676	88.13
766.854	88.37
767.033	89.23
767.212	91.37
767.391	92.33
767.57	94.89
767.749	94.39
767.928	93.95
768.106	90.8
768.285	90.32
768.464	90.47
768.643	90.52
768.821	89.02
769	89.94
769.179	89.94
769.357	89.43
769.536	88.49
769.715	87.71
769.893	87.91
770.072	86.62
770.25	85.15
770.429	85.9
770.607	86.97
770.786	85.92
770.964	87.6
771.143	89.97
771.321	89.15
771.5	89.62
771.678	89.45
771.857	87.6
772.035	87.29
772.213	89.74
772.392	89.66
772.57	88.7
772.748	89.52
772.927	88.78
773.105	87.74
773.283	88.15
773.461	91.84
773.64	91.37
773.818	90.28
773.996	89.73
774.174	89.42
774.352	86.88
774.531	85.9
774.709	86.47
774.887	85.46
775.065	86.56
775.243	87.6
775.421	88.11
775.599	88.67
775.777	90.81
775.955	88.81
776.133	87.99
776.311	88.45
776.489	87.74
776.667	87.55
776.844	86.5
777.022	86.53
777.2	87.29
777.378	85.94
777.556	86.26
777.734	90.63
777.911	92.47
778.089	94.31
778.267	95.57
778.445	97.08
778.622	92.26
778.8	87.67
778.978	85
779.155	86.55
779.333	84.12
779.511	85.79
779.688	89.71
779.866	91.33
780.043	90.76
780.221	89.62
780.398	89.9
780.576	89.33
780.753	86.9
780.931	86.7
781.108	89.85
781.286	92.07
781.463	88.85
781.64	89.91
781.818	88.98
781.995	87.17
782.172	84.07
782.35	87.19
782.527	87.35
782.704	86.42
782.882	84.39
783.059	86.82
783.236	86.93
783.413	85.74
783.59	86.54
783.768	87.85
783.945	85.36
784.122	85.25
784.299	88.17
784.476	85.45
784.653	84.61
784.83	84.6
785.007	82.86
785.184	78.68
785.361	79.13
785.538	77.61
785.715	78.76
785.892	79.41
786.069	82.15
786.246	82.71
786.423	86.68
786.6	86.02
786.776	84.95
786.953	81.1
787.13	81.24
787.307	79.88
787.484	78.08
787.66	76.88
787.837	79.99
788.014	82.27
788.191	81.18
788.367	83.42
788.544	84.01
788.721	83.33
788.897	85.73
789.074	88.8
789.25	86.6
789.427	85.59
789.603	83.7
789.78	81.27
789.956	76.47
790.133	73.57
790.309	74.74
790.486	77.69
790.662	74
790.839	76.86
791.015	78.86
791.192	78.07
791.368	75.51
791.544	80.76
791.721	80.39
791.897	80.81
792.073	81.24
792.249	82.76
792.426	78.73
792.602	80.28
792.778	80.45
792.954	82.94
793.13	84.33
793.307	84.63
793.483	81.73
793.659	83.48
793.835	86.28
794.011	88.5
794.187	88.84
794.363	89.22
794.539	88.95
794.715	85.52
794.891	83.4
795.067	83.89
795.243	81.92
795.419	81.83
795.595	86.01
795.771	81.72
795.947	79.38
796.122	79.53
796.298	77.74
796.474	78.66
796.65	83.51
796.826	84.61
797.001	83.52
797.177	79.86
797.353	70.45
797.529	70.92
797.704	69.28
797.88	70.68
798.056	73.36
798.231	75.31
798.407	73.76
798.582	76.9
798.758	77.74
798.934	83.85
799.109	84.42
799.285	81.72
799.46	78.54
799.636	81.07
799.811	75.43
799.986	73.98
800.162	70.62
800.337	72.33
800.513	69.05
800.688	66.3
800.863	73.22
801.039	79.4
801.214	80.41
801.389	77.57
801.565	77.38
801.74	73.39
801.915	72.29
802.09	67.34
802.265	70.93
802.441	72.23
802.616	71.3
802.791	71.62
802.966	80.34
803.141	81.51
803.316	87.93
803.491	85.71
803.666	88.34
803.841	82.68
804.016	78.98
804.191	75.29
804.366	79.22
804.541	76.74
804.716	78.5
804.891	81
805.066	79.92
805.241	78.93
805.416	86.84
805.591	87.79
805.765	98.92
805.94	94.31
806.115	85.2
806.29	77.23
806.464	73.35
806.639	66.89
806.814	75.06
806.989	81.37
807.163	85.11
807.338	82.31
807.512	76.66
807.687	72.03
807.862	70.61
808.036	71.39
808.211	75.65
808.385	78.5
808.56	82.76
808.734	82.85
808.909	82.83
809.083	88.3
809.258	88.2
809.432	82.96
809.606	88.89
809.781	88.51
809.955	85.97
810.13	82.69
810.304	83.75
810.478	82.41
810.652	75.52
810.827	74.29
811.001	75.08
811.175	76.23
811.349	71.68
811.524	79.7
811.698	77.59
811.872	82.77
812.046	82.99
812.22	86.21
812.394	79.67
812.568	83.39
812.742	78.1
812.916	79.73
813.09	75.24
813.264	73.74
813.438	68.87
813.612	64.26
813.786	56.19
813.96	67.73
814.134	65.62
814.308	71.67
814.482	76.8
814.656	86.43
814.83	79.06
815.003	82.3
815.177	78.1
815.351	79.76
815.525	81.37
815.698	81.64
815.872	74.62
816.046	68.25
816.219	66.66
816.393	64.45
816.567	56.09
816.74	60.43
816.914	60.3
817.088	65.97
817.261	54.54
817.435	60.81
817.608	63.69
817.782	73.55
817.955	65.53
818.129	77.51
818.302	80.74
818.475	76.32
818.649	65.63
818.822	70.71
818.996	79.29
819.169	80.45
819.342	84.34
819.516	96.13
819.689	85.62
819.862	75.27
820.035	78.71
820.209	72.49
820.382	61.94
820.555	69.35
820.728	66.29
820.901	50.11
821.075	37.37
821.248	51.98
821.421	48.24
821.594	52.16
821.767	59.06
821.94	70.95
822.113	64.14
822.286	64.17
822.459	65.08
822.632	74.92
822.805	82.15
822.978	76.65
823.151	71.47
823.324	61.28
823.496	52.03
823.669	46.5
823.842	57.01
824.015	68.29
824.188	75.53
824.361	73.63
824.533	69.33
824.706	69.21
824.879	65.01
825.051	68.66
825.224	55.65
825.397	57.51
825.569	54.23
825.742	56.77
825.915	63.09
826.087	68.61
826.26	64.08
826.432	61.62
826.605	62.66
826.777	50.2
826.95	65.63
827.122	61.7
827.295	77.73
827.467	73.02
827.64	80.63
827.812	68.02
827.984	70.7
828.157	57.05
828.329	63.79
828.501	53.36
828.674	56.53
828.846	62.81
829.018	63.3
829.19	52.06
829.363	56.65
829.535	61.26
829.707	57.51
829.879	49.1
830.051	57.93
830.223	54.34
830.395	40.29
830.568	53.72
830.74	55.31
830.912	61.08
831.084	69.65
831.256	72.22
831.428	64.07
831.6	71.01
831.772	49.31
831.943	20.07
832.115	32.79
832.287	27.67
832.459	31.39
832.631	47.34
832.803	75.4
832.975	67.9
833.146	60.06
833.318	55.12
833.49	61.8
833.662	66.14
833.833	73.9
834.005	82.6
834.177	93.33
834.348	76.94
834.52	57.86
834.692	40.09
834.863	45.29
835.035	35.7
835.206	45.07
835.378	44.61
835.549	60.44
835.721	66.51
835.892	69.76
836.064	67.67
836.235	73.59
836.407	61.59
836.578	50.15
836.749	32.13
836.921	18.07
837.092	25.7
837.264	32.16
837.435	21.11
837.606	49.41
837.777	58.61
837.949	67.57
838.12	69.73
838.291	75.65
838.462	74.81
838.633	72.79
838.805	40.72
838.976	45.27
839.147	51.26
839.318	55.01
839.489	43.03
839.66	70.26
839.831	66.8
840.002	65.03
840.173	56.66
840.344	64.39
840.515	55.26
840.686	57.17
840.857	53.04
841.028	61.98
841.199	69.72
841.369	61.26
841.54	63.62
841.711	124.79
841.882	93.64
842.053	65.69
842.223	89.28
842.394	72.77
842.565	40.58
842.736	50.96
842.906	55.26
843.077	42.39
843.248	60.91
843.418	61.23
843.589	52.12
843.759	84.95
843.93	103.76
844.101	96.29
844.271	118.13
844.442	106.86
844.612	81.51
844.783	66.6
844.953	65.38
845.123	50.71
845.294	50.68
845.464	23.73
845.635	33.23
845.805	4.84
845.975	19.84
846.146	12.41
846.316	27.43
846.486	41.04
846.656	63.67
846.827	51.98
846.997	78.26
847.167	72.51
847.337	52.19
847.507	46.82
847.677	53.01
847.848	54.78
848.018	50.24
848.188	53.12
848.358	39.33
848.528	46.22
848.698	26.46
848.868	31.25
849.038	28.96
849.208	46.86
849.378	50.48
849.548	35.45
849.718	29.67
849.887	53.37
850.057	41.65
850.227	64.93
850.397	93.67
850.567	81.06
850.737	83.05
850.906	61.87
851.076	55.97
851.246	33.87
851.415	43.74
851.585	45.98
851.755	81.8
851.924	88.07
852.094	110.18
852.264	80.57
852.433	59
852.603	26.11
852.772	-12.75
852.942	11.68
853.111	7.24
853.281	25.11
853.45	20.26
853.62	22.96
853.789	6.32
853.959	39.41
854.128	32.25
854.297	53.25
854.467	57.28
854.636	60.03
854.805	53.6
854.975	50.39
855.144	37.21
855.313	53.02
855.482	69.02
855.652	71.09
855.821	79.44
855.99	100.89
856.159	54.1
856.328	49.99
856.497	55.31
856.667	43.34
856.836	20.88
857.005	24.49
857.174	18.56
857.343	-14.16
857.512	-4.26
857.681	12.78
857.85	16.94
858.019	22.31
858.188	34.2
858.356	50.58
858.525	49.1
858.694	51.59
858.863	27.19
859.032	23.61
859.201	7.43
859.369	6.62
859.538	26.39
859.707	39.64
859.876	53.58
860.044	60.76
860.213	67.03
860.382	69.92
860.55	61.39
860.719	71.34
860.888	75.48
861.056	79.3
861.225	55.58
861.393	82.33
861.562	81.29
861.73	53.71
861.899	53.88
862.067	61.2
862.236	57.17
862.404	47.34
862.572	29.66
862.741	13.28
862.909	25.17
863.078	16.72
863.246	17.56
863.414	51.15
863.582	59.45
863.751	59.7
863.919	49.99
864.087	24.33
864.255	3.51
864.424	-23.43
864.592	11.89
864.76	4.69
864.928	52.02
865.096	45.28
865.264	47.37
865.432	28.12
865.6	20.31
865.768	-13.02
865.936	13.16
866.104	26.55
866.272	72.68
866.44	68.95
866.608	47.29
866.776	44.43
866.944	59.78
867.112	40.55
867.28	43.78
867.448	51.92
867.615	41.76
867.783	24.46
867.951	22.61
868.119	15.78
868.286	-4.48
868.454	8.36
868.622	-5.04
868.789	-14.41
868.957	14.99
869.125	34.94
869.292	23.56
869.46	46.16
869.627	79.1
869.795	36.6
869.963	31.38
870.13	71.41
870.298	28.8
870.465	-1.43
870.632	-13.75
870.8	-5.55
870.967	-11.92
871.135	19.45
871.302	32.42
871.469	74.38
871.637	80.06
871.804	77.6
871.971	58.42
872.139	31.32
872.306	-11.06
872.473	-7.98
872.64	-70.27
872.807	-68.34
872.975	-35.78
873.142	78.75
873.309	41.83
873.476	77.09
873.643	106.99
873.81	81.8
873.977	33.02
874.144	99.51
874.311	12.93
874.478	11.47
874.645	1.72
874.812	52.6
874.979	5
875.146	30.66
875.313	13.96
875.48	40.06
875.647	48.34
875.813	22.07
875.98	25.72
876.147	-14.48
876.314	15.38
876.481	20.25
876.647	30.79
876.814	11.95
876.981	32.9
877.147	21.49
877.314	10.77
877.481	42.58
877.647	55.78
877.814	61.71
877.98	60.51
878.147	77.2
878.314	65.98
878.48	82.7
878.647	68.31
878.813	73.31
878.979	78.39
879.146	75.4
879.312	88.58
879.479	97.31
879.645	68.82
879.811	77.91
879.978	60.42
880.144	63.55
880.31	33.9
880.477	69.21
880.643	32.3
880.809	29.99
880.975	-16.76
881.142	-35.81
881.308	379.54
881.474	539.61
881.64	-9.52
881.806	-7.33
881.972	22.21
882.138	44.33
882.304	79.9
882.47	33.02
882.636	38.88
882.802	36.28
882.968	32.43
883.134	23.48
883.3	20.97
883.466	46.76
883.632	120.82
883.798	131.43
883.964	167.22
884.129	1220.96
884.295	223.32
884.461	120.08
884.627	79.89
884.793	12.19
884.958	0.88
885.124	-3.82
885.29	-4.78
885.455	-2.1
885.621	81.14
885.787	68.66
885.952	32.87
886.118	36.46
886.283	49.02
886.449	43.87
886.614	65.37
886.78	64.73
886.945	56.58
887.111	20.46
887.276	-1.3
887.442	-44.28
887.607	-8.42
887.773	32.22
887.938	44.47
888.103	52.93
888.269	69.07
888.434	59.71
888.599	41.72
888.764	40.71
888.93	38.57
889.095	8
889.26	-1.26
889.425	22.87
889.59	44.56
889.756	52.29
889.921	50.42
890.086	119.21
890.251	79.76
890.416	12.44
890.581	18.44
890.746	62.3
890.911	40.43
891.076	34.94
891.241	50.47
891.406	34.55
891.571	53.1
891.736	-11.95
891.901	53
892.065	43.78
892.23	35.13
892.395	37.99
892.56	44.69
892.725	48.35
892.889	108.56
893.054	97.53
893.219	-25.36
893.384	-63.52
893.548	-135.87
893.713	-230.62
893.878	-379.18
