Data from Ofra_PS_T2_1A_4HS15.2_Reflection_3.txt Node
Date: Wed Jul 21 18:08:29 EDT 2021
User: Adam
Spectrometer: FLMT01687
Trigger mode: 0
Integration Time (sec): 1.100000E0
Scans to average: 2
Electric dark correction enabled: true
Nonlinearity correction enabled: false
Boxcar width: 2
XAxis mode: Wavelengths
Number of Pixels in Spectrum: 3648
>>>>>Begin Spectral Data<<<<<
179.494	541
179.716	553.18
179.937	545.61
180.158	489.06
180.38	714.53
180.601	187.43
180.823	130.5
181.044	-4.15
181.265	198.71
181.486	102.21
181.708	151.79
181.929	863.78
182.15	-169.37
182.372	105.32
182.593	59.49
182.814	72.76
183.035	132.48
183.257	102.72
183.478	107.82
183.699	128.68
183.92	73.98
184.141	65.17
184.363	20.54
184.584	59.05
184.805	32.93
185.026	73.19
185.247	66.06
185.468	51.18
185.689	46.07
185.91	57.84
186.132	50.16
186.353	23.33
186.574	78.63
186.795	62.05
187.016	35.08
187.237	30.26
187.458	38.64
187.679	-10.68
187.9	16.92
188.121	25.56
188.342	69.29
188.563	100.07
188.784	169.15
189.005	134.71
189.226	203.64
189.447	128.87
189.667	128.03
189.888	-181.9
190.109	-697.73
190.33	-520.81
190.551	-772.79
190.772	-135.17
190.993	-81.68
191.214	-98.31
191.434	-76.41
191.655	-7.76
191.876	-66.65
192.097	-102.84
192.318	-94.72
192.538	-175.15
192.759	-153.17
192.98	-51.92
193.201	-25.54
193.421	-19.23
193.642	13.65
193.863	25.91
194.083	-0.8
194.304	3.68
194.525	9.14
194.745	-18.23
194.966	-18.96
195.187	-6.6
195.407	-31.59
195.628	-80.69
195.848	-58.31
196.069	-59.69
196.29	-12.9
196.51	-20.05
196.731	-19.86
196.951	-21.22
197.172	-57.98
197.392	-102.71
197.613	-91.09
197.833	-95.02
198.054	-79.63
198.274	-21.09
198.495	-37.37
198.715	-2.54
198.936	-7.19
199.156	-36.85
199.377	-120.64
199.597	-111.68
199.817	-141.23
200.038	-80.44
200.258	-67.58
200.479	-16.12
200.699	3.67
200.919	94.3
201.14	44.66
201.36	12.05
201.58	34.07
201.801	58.18
202.021	6.25
202.241	15.62
202.461	13.48
202.682	-73.88
202.902	-154.02
203.122	-65.93
203.342	-42.41
203.563	-2.39
203.783	48.27
204.003	47.76
204.223	32.6
204.443	61.6
204.663	53.45
204.884	45.17
205.104	94.71
205.324	119.34
205.544	98.18
205.764	78.31
205.984	65.01
206.204	51.51
206.424	45.3
206.644	27.54
206.864	48.31
207.084	51.59
207.304	69.07
207.525	-24.45
207.745	2.77
207.964	30.75
208.184	-31.83
208.404	-63.93
208.624	-48.38
208.844	-58.05
209.064	-313.19
209.284	-306.28
209.504	-150.33
209.724	-14.33
209.944	1.66
210.164	37.23
210.384	47.23
210.604	35.78
210.823	-17.53
211.043	-45.12
211.263	-43.77
211.483	-35.92
211.703	-81.89
211.922	-67.39
212.142	15.34
212.362	43.39
212.582	18.73
212.801	22.59
213.021	13.03
213.241	-8.3
213.461	-67.24
213.68	-83.01
213.9	-46.79
214.12	-28.07
214.339	-88.55
214.559	-50.49
214.779	7.54
214.998	16.81
215.218	-3.89
215.438	19.54
215.657	20.22
215.877	3.61
216.096	12.11
216.316	19
216.535	13.57
216.755	13.17
216.974	-58.82
217.194	-131.98
217.413	-135.34
217.633	-144.54
217.852	-239.59
218.072	-72.72
218.291	-21.17
218.511	15.52
218.73	0.62
218.95	-5.42
219.169	-22.99
219.389	-57.08
219.608	-42.04
219.827	-39.17
220.047	-17.5
220.266	-0.6
220.485	12.02
220.705	29.54
220.924	30.95
221.143	45.97
221.363	25.04
221.582	26.53
221.801	25.47
222.021	29.86
222.24	-45.71
222.459	-18.12
222.678	-19.98
222.897	-95.45
223.117	-135.48
223.336	-84.53
223.555	-28.74
223.774	5.67
223.993	28.58
224.213	88.96
224.432	72.47
224.651	78.89
224.87	41.59
225.089	53.62
225.308	41.34
225.527	55.59
225.746	44.29
225.965	60.89
226.184	48.55
226.404	44.85
226.623	15.86
226.842	17.9
227.061	25.04
227.28	28.57
227.499	19.23
227.718	39.68
227.936	37.42
228.155	51.12
228.374	34.5
228.593	29.44
228.812	19.39
229.031	15.23
229.25	-33.45
229.469	-32.94
229.688	-14.45
229.907	19.17
230.125	35.49
230.344	50.43
230.563	57.97
230.782	57.71
231.001	-9.17
231.22	-21.48
231.438	1.76
231.657	6.94
231.876	-19.21
232.095	31.42
232.313	45
232.532	17.92
232.751	5.55
232.969	3.55
233.188	-66.15
233.407	-8.4
233.625	8.13
233.844	-11.11
234.063	10.23
234.281	26.12
234.5	4.83
234.719	-7.77
234.937	12.26
235.156	15.89
235.374	17.6
235.593	7.78
235.811	10.59
236.03	1.99
236.249	-43.3
236.467	-31.07
236.686	1.5
236.904	9.1
237.123	0.31
237.341	1.6
237.559	1.19
237.778	-23.46
237.996	-39.01
238.215	-8.61
238.433	3.07
238.652	7.29
238.87	-10.94
239.088	4.88
239.307	2.78
239.525	10.84
239.743	-19.12
239.962	18.08
240.18	-13.66
240.398	-49.93
240.617	-73.28
240.835	-58.1
241.053	-55.22
241.271	-6.66
241.49	5.2
241.708	3.08
241.926	-11.59
242.144	-11.78
242.363	-31.86
242.581	-11.08
242.799	11.61
243.017	33.47
243.235	8.08
243.453	11.59
243.672	-9.86
243.89	-24.57
244.108	-35.75
244.326	2.57
244.544	-2.54
244.762	4.35
244.98	36.33
245.198	47.94
245.416	18.65
245.634	4.99
245.852	-8.66
246.07	-45.61
246.288	-66.76
246.506	-95.13
246.724	-81.32
246.942	-53.05
247.16	-2.23
247.378	3.32
247.596	28.96
247.814	36.79
248.032	8.94
248.25	5.17
248.468	12.36
248.685	25.26
248.903	35.02
249.121	42.5
249.339	7.62
249.557	2.77
249.775	4.28
249.992	-41.08
250.21	-34.09
250.428	-9.37
250.646	-28.37
250.863	-47.2
251.081	-12.14
251.299	0.76
251.517	-16.61
251.734	-7.58
251.952	-10.47
252.17	-13.85
252.387	-5.1
252.605	-6.03
252.823	-1.76
253.04	17.51
253.258	25.5
253.475	23.11
253.693	33.81
253.911	25.58
254.128	22.42
254.346	28.11
254.563	11.18
254.781	-3.98
254.998	-23.27
255.216	-36.97
255.433	-33.93
255.651	13.4
255.868	53.04
256.086	85.76
256.303	76.59
256.521	59.48
256.738	13.63
256.956	-16.44
257.173	-32.11
257.39	-35.39
257.608	-67.26
257.825	2.71
258.043	30.94
258.26	14.22
258.477	55.47
258.695	78.98
258.912	25.58
259.129	31.55
259.346	11.5
259.564	-17.6
259.781	-46.18
259.998	9.04
260.216	20.87
260.433	60.7
260.65	55.66
260.867	70.2
261.084	49.7
261.302	20.8
261.519	3.16
261.736	-32.62
261.953	-63.18
262.17	-21.68
262.387	-21.37
262.604	-48.9
262.822	-42.64
263.039	-18.08
263.256	-67.39
263.473	-32.74
263.69	-17.97
263.907	10.8
264.124	23.09
264.341	34.53
264.558	15.06
264.775	31.75
264.992	40.66
265.209	28.55
265.426	46.15
265.643	57.53
265.86	64.52
266.077	50.81
266.294	45.71
266.51	4.67
266.727	-13.07
266.944	1.65
267.161	10.32
267.378	11.56
267.595	28.26
267.812	13.25
268.028	-14.42
268.245	-21.75
268.462	-29.61
268.679	-26.75
268.896	10.35
269.112	12.23
269.329	17
269.546	33.91
269.763	21.96
269.979	4.32
270.196	-4.79
270.413	-25.82
270.629	-41.61
270.846	-39.59
271.063	-34.88
271.279	-25.26
271.496	-16.27
271.712	6.31
271.929	16.41
272.146	23.14
272.362	24.25
272.579	44.41
272.795	36.35
273.012	37.67
273.228	40.74
273.445	8.93
273.661	-17.19
273.878	-62.79
274.094	-49.24
274.311	-67.58
274.527	4.23
274.744	3.79
274.96	15.1
275.177	13.36
275.393	35.07
275.609	20.85
275.826	35.56
276.042	33.22
276.259	23.14
276.475	23.64
276.691	44.6
276.908	26.56
277.124	35.16
277.34	34.8
277.557	21.52
277.773	-6.02
277.989	-2.54
278.205	-0.67
278.422	11.64
278.638	20.93
278.854	56.01
279.07	61.23
279.286	39.47
279.503	17.57
279.719	-2.52
279.935	-55.49
280.151	-57.28
280.367	-30.37
280.583	-44.82
280.799	-37.52
281.016	-61.09
281.232	-33.42
281.448	-29.63
281.664	-1.56
281.88	-27.78
282.096	3.05
282.312	23.02
282.528	25.12
282.744	28.87
282.96	47
283.176	46.08
283.392	34.34
283.608	21.51
283.824	12.3
284.04	12.25
284.256	-1.92
284.471	-12.62
284.687	-5.93
284.903	8.7
285.119	36.8
285.335	29.35
285.551	30.97
285.767	16.7
285.982	13.35
286.198	-25.34
286.414	34.96
286.63	34.61
286.846	48.05
287.061	29.66
287.277	56.77
287.493	17.89
287.709	32.87
287.924	29.38
288.14	53.53
288.356	41.81
288.571	52.33
288.787	38.72
289.003	42.68
289.218	25.74
289.434	-16.3
289.65	11.2
289.865	8.54
290.081	20.82
290.296	22.32
290.512	37.53
290.727	-11.72
290.943	-6.24
291.159	-21.04
291.374	-23.27
291.59	-30.8
291.805	-13.05
292.021	-12.01
292.236	-24.08
292.451	1.54
292.667	12.74
292.882	25.16
293.098	14.82
293.313	13.91
293.529	-18.68
293.744	-34.79
293.959	-46.08
294.175	-38.11
294.39	-1.67
294.605	24.08
294.821	48.26
295.036	62.43
295.251	68.94
295.467	36.1
295.682	13.54
295.897	-43.42
296.112	-72.76
296.328	-60.14
296.543	-79.61
296.758	-62.83
296.973	-14.67
297.188	28.79
297.404	-6.52
297.619	6.07
297.834	-5.07
298.049	-16.94
298.264	-55.24
298.479	3.6
298.694	6.22
298.909	25.13
299.125	33.92
299.34	47.13
299.555	26.62
299.77	37.73
299.985	-12.5
300.2	-58.55
300.415	-71.63
300.63	-50.33
300.845	-56.27
301.06	-51.22
301.275	-18.7
301.49	2.17
301.704	2.09
301.919	-11
302.134	-29.66
302.349	-39.93
302.564	-102.7
302.779	-132.43
302.994	-93.61
303.209	-15.92
303.423	27.24
303.638	66.2
303.853	30.64
304.068	24.44
304.283	18.51
304.497	2.32
304.712	-15.11
304.927	-2.2
305.142	-13.08
305.356	-6.67
305.571	-9.73
305.786	-21.79
306	-44.42
306.215	-43.73
306.43	-67.29
306.644	-50.67
306.859	13.49
307.074	25.43
307.288	-4.21
307.503	-15.85
307.717	-32.1
307.932	-44.01
308.147	-49.26
308.361	-16.81
308.576	-17.02
308.79	-58.81
309.005	-50.23
309.219	-29.66
309.434	-38.44
309.648	-34.6
309.863	-8.82
310.077	-7.94
310.292	-11.55
310.506	-8.48
310.72	-2.21
310.935	15.08
311.149	14.11
311.364	33.65
311.578	45.52
311.792	40.94
312.007	41.58
312.221	27.29
312.435	24.52
312.649	-10.61
312.864	-26.62
313.078	-10.18
313.292	30.77
313.507	6.41
313.721	43.11
313.935	53.75
314.149	18.19
314.363	20.84
314.578	22.41
314.792	30
315.006	19.42
315.22	39.56
315.434	24.01
315.648	26.68
315.862	26.52
316.077	28.68
316.291	3.45
316.505	5.07
316.719	0.95
316.933	-16.66
317.147	-4.65
317.361	-24.13
317.575	-29.67
317.789	-60.86
318.003	-112.01
318.217	-82.57
318.431	-20.69
318.645	22.67
318.859	19.47
319.073	54.48
319.287	35.3
319.5	6.76
319.714	-43.21
319.928	-63.85
320.142	-91.76
320.356	-24.84
320.57	21.3
320.784	25.16
320.997	8.48
321.211	10.62
321.425	-66.3
321.639	-97.22
321.853	-29.47
322.066	9.08
322.28	-9.36
322.494	8.13
322.707	16.6
322.921	4.87
323.135	-11.65
323.349	-1.82
323.562	-22.31
323.776	-32.08
323.989	-40.3
324.203	-62.04
324.417	-62.53
324.63	-57.89
324.844	-52.25
325.057	-45.87
325.271	-16.11
325.485	6.29
325.698	33.34
325.912	54.71
326.125	34.24
326.339	30.56
326.552	22.42
326.766	6.63
326.979	1.53
327.193	31.16
327.406	23.36
327.619	13.09
327.833	28.45
328.046	7.09
328.26	-10.37
328.473	9.24
328.686	-11.23
328.9	-8.19
329.113	-2.82
329.326	-19.89
329.54	-10.32
329.753	-16.58
329.966	-60.66
330.179	-52.79
330.393	-16.6
330.606	-15.59
330.819	13.83
331.032	31.24
331.246	43.99
331.459	58.27
331.672	54.9
331.885	48.65
332.098	23.71
332.311	8.54
332.525	-48.57
332.738	-41.64
332.951	-10.92
333.164	15.26
333.377	22.06
333.59	42.19
333.803	40.22
334.016	24.89
334.229	4.87
334.442	16.89
334.655	40.18
334.868	25.87
335.081	28.14
335.294	24.68
335.507	12.3
335.72	-12.54
335.933	-10.43
336.146	-18.09
336.359	-9.62
336.572	-35.41
336.785	-58.01
336.997	-43.33
337.21	-10.04
337.423	-11.35
337.636	-1.77
337.849	22.7
338.062	16.98
338.274	4.02
338.487	3.93
338.7	7.84
338.913	-38.75
339.125	-61.05
339.338	-118.4
339.551	-106.06
339.763	-74.78
339.976	-25.41
340.189	1.58
340.402	11.95
340.614	7.24
340.827	-2.09
341.039	-22.44
341.252	-24
341.465	5.16
341.677	4.13
341.89	-22.05
342.102	7.46
342.315	-7.12
342.527	-34.72
342.74	-16.35
342.952	28.67
343.165	22.63
343.377	52.11
343.59	44.34
343.802	44.04
344.015	38.88
344.227	47.06
344.44	26.69
344.652	26.21
344.864	21.74
345.077	31.9
345.289	31.85
345.502	34.78
345.714	31.65
345.926	28.56
346.139	18.24
346.351	19.64
346.563	27.19
346.775	26.28
346.988	21.44
347.2	9.63
347.412	-45.19
347.624	-61.61
347.837	-66.74
348.049	-33.54
348.261	9.01
348.473	45.82
348.685	41.82
348.897	27.75
349.11	-0.7
349.322	-18.24
349.534	-10.12
349.746	-12.06
349.958	-12.69
350.17	-7.1
350.382	-4.17
350.594	-21.86
350.806	-19.01
351.018	-8.22
351.23	-17.77
351.442	-63.91
351.654	-52.22
351.866	-39.95
352.078	-34.81
352.29	-6.85
352.502	11.3
352.714	22.02
352.926	10.61
353.138	6.58
353.35	-5
353.561	-5.03
353.773	-25.85
353.985	-12.88
354.197	-11.17
354.409	-5.61
354.621	-3.9
354.832	1.22
355.044	-4.5
355.256	-8.84
355.468	-1.97
355.679	-3.68
355.891	5.35
356.103	-2.85
356.314	8.31
356.526	11.4
356.738	13.71
356.949	5.84
357.161	20.78
357.373	12.71
357.584	-6.59
357.796	3.3
358.008	4.51
358.219	23.92
358.431	13.34
358.642	23.12
358.854	24.93
359.065	9.49
359.277	-28.14
359.488	-17.61
359.7	-31.14
359.911	-52.78
360.123	-32.22
360.334	-34.67
360.546	-49.04
360.757	-46.47
360.969	-21.4
361.18	-12.98
361.391	-1.75
361.603	-13.31
361.814	13.02
362.025	5.82
362.237	9.02
362.448	34.88
362.659	58.35
362.871	35.67
363.082	29.63
363.293	32.21
363.504	3.9
363.716	-24.78
363.927	-29.29
364.138	-48.5
364.349	-56.67
364.56	-47.66
364.772	-43.5
364.983	-10.47
365.194	-9.76
365.405	-7.98
365.616	8.03
365.827	12.92
366.038	-20.84
366.25	-25.72
366.461	-51.28
366.672	-29.38
366.883	-13.79
367.094	6.21
367.305	0.84
367.516	3
367.727	-20.4
367.938	-36.27
368.149	-39.5
368.36	-20.49
368.571	-10.15
368.781	-22.64
368.992	-27
369.203	-45.63
369.414	-55.91
369.625	-57.58
369.836	-55.74
370.047	-78.38
370.258	-63.79
370.468	-67.01
370.679	-82.15
370.89	-68.24
371.101	-44.23
371.312	-47.84
371.522	-35.96
371.733	-24.68
371.944	-23.31
372.155	-16.15
372.365	-18.13
372.576	-19.86
372.787	-14.46
372.997	-17.49
373.208	-20.02
373.419	1.12
373.629	-25.33
373.84	-30
374.05	-53.09
374.261	-47.17
374.472	-66.08
374.682	-14.4
374.893	-7.12
375.103	40.29
375.314	40.89
375.524	48.59
375.735	44.66
375.945	47.59
376.156	15.59
376.366	22.79
376.577	16.78
376.787	3.36
376.997	-1.65
377.208	5.54
377.418	-14.73
377.629	9.21
377.839	15.6
378.049	13.77
378.26	20.95
378.47	30.99
378.68	14.43
378.89	13.53
379.101	3.98
379.311	-31.14
379.521	-63.22
379.732	-66.77
379.942	-67.98
380.152	-71.56
380.362	-24.83
380.572	-20.91
380.783	-2.74
380.993	9.4
381.203	21.53
381.413	24.41
381.623	37.83
381.833	31.81
382.043	17.85
382.253	4.79
382.463	7.84
382.674	3.61
382.884	-16.16
383.094	-14.92
383.304	-4.85
383.514	-0.27
383.724	4.96
383.934	5.24
384.144	0.08
384.353	-2.47
384.563	-9.64
384.773	-2.63
384.983	-6.56
385.193	14.72
385.403	18.82
385.613	14.03
385.823	0.54
386.033	10.65
386.242	-3.74
386.452	-9.75
386.662	-8.66
386.872	-0.28
387.082	-7.3
387.291	-10.11
387.501	-9.43
387.711	-5.64
387.921	-12.41
388.13	-9.19
388.34	3.69
388.55	0.3
388.759	-0.88
388.969	7.49
389.179	5.14
389.388	0.35
389.598	3.2
389.807	-4.44
390.017	-8.58
390.227	-5.31
390.436	-6.35
390.646	-2.41
390.855	4.64
391.065	2.73
391.274	-1.3
391.484	-2.13
391.693	-1.65
391.903	-3.28
392.112	3.23
392.322	4.92
392.531	7.51
392.74	7.41
392.95	3.93
393.159	1.62
393.369	1.58
393.578	0.72
393.787	-1.8
393.997	-0.96
394.206	-1.94
394.415	-0.77
394.625	-0.89
394.834	-2.31
395.043	-0.81
395.252	1.11
395.462	2.01
395.671	3.19
395.88	4.42
396.089	5.19
396.298	4.15
396.508	3.67
396.717	2.25
396.926	3.59
397.135	2.18
397.344	1.48
397.553	2.81
397.762	4.47
397.971	3.44
398.181	3.69
398.39	3.48
398.599	2.17
398.808	1.87
399.017	2.83
399.226	4.25
399.435	5.02
399.644	5.05
399.853	4.3
400.062	3.87
400.27	3.33
400.479	2.94
400.688	2.23
400.897	2.34
401.106	2.37
401.315	2.11
401.524	2.1
401.733	3.09
401.941	3.6
402.15	3.54
402.359	3.44
402.568	3.55
402.777	3.61
402.985	3.29
403.194	3.11
403.403	3.17
403.612	2.95
403.82	2.55
404.029	2.64
404.238	2.55
404.446	2.83
404.655	2.81
404.864	2.76
405.072	2.53
405.281	2.8
405.489	2.46
405.698	2.5
405.906	2.49
406.115	2.48
406.324	2.37
406.532	2.57
406.741	2.74
406.949	2.78
407.158	2.85
407.366	2.77
407.574	2.71
407.783	2.71
407.991	2.63
408.2	2.75
408.408	2.78
408.617	2.54
408.825	2.43
409.033	2.45
409.242	2.45
409.45	2.53
409.658	2.63
409.867	2.69
410.075	2.65
410.283	2.52
410.491	2.46
410.7	2.38
410.908	2.43
411.116	2.73
411.324	2.66
411.533	2.62
411.741	2.86
411.949	2.83
412.157	2.5
412.365	2.63
412.573	2.71
412.781	2.61
412.99	2.47
413.198	2.75
413.406	2.78
413.614	2.74
413.822	2.59
414.03	2.56
414.238	2.22
414.446	2.21
414.654	1.95
414.862	2.11
415.07	2.23
415.278	2.48
415.486	2.33
415.694	2.55
415.902	2.48
416.109	2.32
416.317	2.23
416.525	2.15
416.733	2.05
416.941	2.11
417.149	2.09
417.357	2.18
417.564	2.38
417.772	2.66
417.98	2.66
418.188	2.72
418.395	2.62
418.603	2.84
418.811	2.4
419.019	2.28
419.226	2.43
419.434	2.49
419.642	2.12
419.849	2.33
420.057	2.39
420.265	2.3
420.472	2.12
420.68	2.28
420.887	2.24
421.095	2.37
421.302	2.3
421.51	2.51
421.717	2.45
421.925	2.54
422.132	2.23
422.34	2.09
422.547	2.14
422.755	2.08
422.962	1.98
423.17	2.08
423.377	2.25
423.585	2.2
423.792	2.11
423.999	2.13
424.207	2.11
424.414	2.19
424.621	2.12
424.829	2.19
425.036	2.18
425.243	2.36
425.451	2.16
425.658	1.96
425.865	2.07
426.072	2.08
426.28	2.17
426.487	2.18
426.694	2.33
426.901	2.19
427.108	2.15
427.315	1.92
427.523	2.13
427.73	2.12
427.937	2.14
428.144	2.03
428.351	2.06
428.558	2.11
428.765	2.04
428.972	2.04
429.179	2.25
429.386	2.69
429.593	2.4
429.8	2.37
430.007	2.48
430.214	2.55
430.421	2.2
430.628	2.15
430.835	2.07
431.042	2.26
431.249	2.12
431.456	2.06
431.662	2.23
431.869	2.39
432.076	2.25
432.283	2.41
432.49	2.38
432.697	2.32
432.903	2.19
433.11	2.12
433.317	2.24
433.524	2.44
433.73	2.49
433.937	2.65
434.144	2.64
434.35	2.46
434.557	2.25
434.764	2.24
434.97	2.22
435.177	2.34
435.384	2.37
435.59	2.5
435.797	2.72
436.003	2.78
436.21	2.78
436.416	2.82
436.623	2.75
436.829	2.68
437.036	2.72
437.242	2.77
437.449	2.68
437.655	2.72
437.862	2.68
438.068	2.58
438.275	2.6
438.481	2.78
438.687	2.73
438.894	2.72
439.1	2.74
439.307	2.84
439.513	2.74
439.719	2.76
439.926	2.85
440.132	2.86
440.338	2.72
440.544	2.79
440.751	2.75
440.957	2.84
441.163	2.74
441.369	2.81
441.575	2.65
441.782	2.75
441.988	2.6
442.194	2.68
442.4	2.65
442.606	2.94
442.812	2.9
443.018	3.02
443.224	3.04
443.431	3.12
443.637	2.87
443.843	2.82
444.049	2.79
444.255	2.68
444.461	2.7
444.667	2.7
444.873	2.85
445.079	2.76
445.284	2.93
445.49	2.75
445.696	2.64
445.902	2.54
446.108	2.54
446.314	2.46
446.52	2.53
446.726	2.83
446.931	2.87
447.137	2.92
447.343	2.98
447.549	2.94
447.755	2.76
447.96	2.85
448.166	2.81
448.372	2.76
448.578	2.8
448.783	2.77
448.989	2.75
449.195	2.92
449.4	2.94
449.606	2.91
449.812	2.88
450.017	2.96
450.223	2.82
450.428	2.79
450.634	2.93
450.84	3.09
451.045	2.94
451.251	2.91
451.456	3.21
451.662	3.23
451.867	3.25
452.073	3.23
452.278	3.37
452.483	3.36
452.689	3.23
452.894	3.23
453.1	3.26
453.305	3.18
453.51	3.02
453.716	2.98
453.921	3.04
454.127	3
454.332	2.94
454.537	2.82
454.742	2.85
454.948	2.8
455.153	2.9
455.358	2.99
455.563	3.25
455.769	3.35
455.974	3.3
456.179	3.17
456.384	3.13
456.589	2.98
456.795	2.79
457	2.8
457.205	3.08
457.41	3.02
457.615	2.98
457.82	3.19
458.025	3.2
458.23	2.99
458.435	3.11
458.64	3.12
458.845	3.13
459.05	3.1
459.255	3.15
459.46	3.08
459.665	3.15
459.87	3.11
460.075	3.11
460.28	3.11
460.485	3.22
460.69	3.18
460.895	3.11
461.099	3.1
461.304	3.25
461.509	3.23
461.714	3.19
461.919	3.31
462.123	3.27
462.328	3.3
462.533	3.2
462.738	3.31
462.942	3.21
463.147	3.28
463.352	3.19
463.556	3.25
463.761	3.21
463.966	3.24
464.17	3.27
464.375	3.21
464.58	3.19
464.784	3.19
464.989	3.21
465.193	3.23
465.398	3.32
465.602	3.42
465.807	3.38
466.011	3.38
466.216	3.37
466.42	3.38
466.625	3.41
466.829	3.52
467.034	3.64
467.238	3.8
467.443	3.7
467.647	3.54
467.851	3.59
468.056	3.61
468.26	3.49
468.464	3.55
468.669	3.74
468.873	3.89
469.077	3.79
469.282	3.85
469.486	3.92
469.69	3.83
469.894	3.61
470.099	3.7
470.303	3.78
470.507	3.68
470.711	3.65
470.915	3.7
471.119	3.6
471.324	3.48
471.528	3.5
471.732	3.53
471.936	3.44
472.14	3.5
472.344	3.59
472.548	3.66
472.752	3.86
472.956	4.16
473.16	4.2
473.364	4.1
473.568	4.02
473.772	3.98
473.976	3.78
474.18	3.7
474.384	3.75
474.588	3.75
474.792	3.61
474.995	3.65
475.199	3.7
475.403	3.77
475.607	3.87
475.811	3.88
476.015	3.95
476.218	4.02
476.422	3.89
476.626	3.94
476.83	4.04
477.033	3.94
477.237	3.79
477.441	3.83
477.644	3.71
477.848	3.63
478.052	3.57
478.255	3.67
478.459	3.7
478.663	3.83
478.866	3.9
479.07	3.98
479.273	4.06
479.477	4.05
479.681	4.01
479.884	3.95
480.088	3.86
480.291	3.83
480.495	3.88
480.698	3.88
480.901	3.9
481.105	4.09
481.308	4.02
481.512	3.98
481.715	3.98
481.919	4
482.122	3.96
482.325	3.99
482.529	4.04
482.732	4.04
482.935	4
483.138	3.91
483.342	3.99
483.545	4.07
483.748	4.11
483.952	4.2
484.155	4.3
484.358	4.31
484.561	4.24
484.764	4.24
484.967	4.29
485.171	4.35
485.374	4.25
485.577	4.29
485.78	4.29
485.983	4.22
486.186	4.07
486.389	4.11
486.592	4.11
486.795	4.15
486.998	4.12
487.201	4.19
487.404	4.25
487.607	4.27
487.81	4.22
488.013	4.27
488.216	4.27
488.419	4.23
488.622	4.21
488.825	4.13
489.028	4.03
489.231	3.96
489.433	3.9
489.636	3.83
489.839	3.85
490.042	3.84
490.245	3.89
490.447	3.97
490.65	4
490.853	4.03
491.056	4.09
491.258	4.12
491.461	4.12
491.664	4.15
491.866	4.07
492.069	4.16
492.272	4.09
492.474	4.08
492.677	4.09
492.879	4.17
493.082	4.2
493.285	4.32
493.487	4.27
493.69	4.21
493.892	4.16
494.095	4.08
494.297	3.99
494.5	3.99
494.702	4.06
494.905	4.11
495.107	4.1
495.309	4.1
495.512	4.19
495.714	4.18
495.917	4.19
496.119	4.15
496.321	4.23
496.524	4.2
496.726	4.18
496.928	4.16
497.13	4.21
497.333	4.16
497.535	4.14
497.737	4.15
497.939	4.16
498.142	4.2
498.344	4.19
498.546	4.09
498.748	4.12
498.95	4.21
499.152	4.19
499.355	4.24
499.557	4.35
499.759	4.35
499.961	4.29
500.163	4.3
500.365	4.28
500.567	4.29
500.769	4.28
500.971	4.33
501.173	4.24
501.375	4.28
501.577	4.21
501.779	4.18
501.981	4.13
502.183	4.19
502.385	4.1
502.587	4.07
502.788	4.15
502.99	4.22
503.192	4.26
503.394	4.28
503.596	4.33
503.798	4.34
503.999	4.38
504.201	4.34
504.403	4.4
504.605	4.45
504.806	4.37
505.008	4.3
505.21	4.42
505.411	4.4
505.613	4.36
505.815	4.38
506.016	4.41
506.218	4.4
506.42	4.38
506.621	4.41
506.823	4.49
507.024	4.43
507.226	4.36
507.427	4.35
507.629	4.4
507.83	4.39
508.032	4.4
508.233	4.46
508.435	4.51
508.636	4.52
508.838	4.47
509.039	4.48
509.24	4.46
509.442	4.45
509.643	4.42
509.845	4.4
510.046	4.42
510.247	4.45
510.448	4.44
510.65	4.48
510.851	4.63
511.052	4.64
511.254	4.61
511.455	4.71
511.656	4.8
511.857	4.75
512.058	4.73
512.26	4.76
512.461	4.71
512.662	4.7
512.863	4.62
513.064	4.59
513.265	4.55
513.466	4.58
513.667	4.53
513.868	4.55
514.069	4.63
514.27	4.67
514.471	4.62
514.672	4.61
514.873	4.61
515.074	4.63
515.275	4.52
515.476	4.56
515.677	4.6
515.878	4.72
516.079	4.64
516.28	4.71
516.481	4.8
516.682	4.77
516.882	4.67
517.083	4.71
517.284	4.72
517.485	4.63
517.686	4.62
517.886	4.64
518.087	4.72
518.288	4.76
518.488	4.77
518.689	4.8
518.89	4.73
519.091	4.71
519.291	4.63
519.492	4.66
519.692	4.7
519.893	4.77
520.094	4.74
520.294	4.84
520.495	4.8
520.695	4.82
520.896	4.86
521.096	4.88
521.297	4.84
521.497	4.87
521.698	4.8
521.898	4.76
522.099	4.8
522.299	4.9
522.499	4.94
522.7	5.03
522.9	5.01
523.101	5.06
523.301	5.02
523.501	4.95
523.702	4.9
523.902	4.96
524.102	4.98
524.302	4.93
524.503	5.02
524.703	5.02
524.903	5.04
525.103	4.99
525.304	5.1
525.504	5.13
525.704	5.23
525.904	5.18
526.104	5.17
526.304	5.12
526.504	5.07
526.705	5.03
526.905	5.13
527.105	5.17
527.305	5.17
527.505	5.13
527.705	5.13
527.905	5.11
528.105	5.07
528.305	5.01
528.505	5.08
528.705	5.16
528.905	5.1
529.105	5.14
529.304	5.24
529.504	5.28
529.704	5.17
529.904	5.19
530.104	5.2
530.304	5.22
530.503	5.19
530.703	5.2
530.903	5.21
531.103	5.25
531.303	5.2
531.502	5.23
531.702	5.31
531.902	5.34
532.101	5.28
532.301	5.26
532.501	5.21
532.7	5.13
532.9	5.15
533.1	5.21
533.299	5.24
533.499	5.36
533.698	5.39
533.898	5.37
534.097	5.39
534.297	5.48
534.496	5.41
534.696	5.47
534.895	5.56
535.095	5.64
535.294	5.57
535.494	5.56
535.693	5.59
535.892	5.56
536.092	5.46
536.291	5.44
536.491	5.55
536.69	5.52
536.889	5.46
537.088	5.46
537.288	5.5
537.487	5.49
537.686	5.48
537.886	5.6
538.085	5.63
538.284	5.76
538.483	5.72
538.682	5.82
538.882	5.83
539.081	5.91
539.28	5.76
539.479	5.77
539.678	5.73
539.877	5.78
540.076	5.75
540.275	5.82
540.474	5.94
540.673	5.96
540.872	5.91
541.071	6.03
541.27	6.06
541.469	6.05
541.668	6.12
541.867	6.15
542.066	6.07
542.265	6.15
542.464	6.11
542.663	6.09
542.862	6.2
543.06	6.23
543.259	6.23
543.458	6.33
543.657	6.38
543.856	6.4
544.054	6.4
544.253	6.4
544.452	6.36
544.651	6.43
544.849	6.42
545.048	6.52
545.247	6.49
545.445	6.53
545.644	6.49
545.843	6.48
546.041	6.52
546.24	6.64
546.438	6.76
546.637	6.8
546.836	6.91
547.034	6.91
547.233	6.88
547.431	6.85
547.63	6.82
547.828	6.83
548.027	6.85
548.225	6.9
548.423	6.91
548.622	7.07
548.82	7.06
549.019	7.14
549.217	7.24
549.415	7.25
549.614	7.24
549.812	7.26
550.01	7.2
550.209	7.19
550.407	7.28
550.605	7.28
550.803	7.46
551.002	7.55
551.2	7.57
551.398	7.72
551.596	7.88
551.794	7.88
551.993	7.96
552.191	8.04
552.389	8.05
552.587	8.05
552.785	8.06
552.983	8.15
553.181	8.23
553.379	8.29
553.577	8.33
553.775	8.44
553.973	8.51
554.171	8.6
554.369	8.59
554.567	8.67
554.765	8.66
554.963	8.66
555.161	8.61
555.359	8.71
555.557	8.8
555.755	8.89
555.952	9.01
556.15	9.08
556.348	9.13
556.546	9.2
556.744	9.27
556.941	9.26
557.139	9.38
557.337	9.43
557.535	9.36
557.732	9.44
557.93	9.67
558.128	9.73
558.325	9.83
558.523	9.95
558.721	10.06
558.918	9.98
559.116	10.08
559.313	10.11
559.511	10.31
559.708	10.28
559.906	10.43
560.104	10.51
560.301	10.55
560.498	10.5
560.696	10.62
560.893	10.65
561.091	10.65
561.288	10.77
561.486	10.85
561.683	10.88
561.88	10.99
562.078	11.1
562.275	11.11
562.473	11.28
562.67	11.45
562.867	11.54
563.064	11.58
563.262	11.65
563.459	11.66
563.656	11.71
563.853	11.71
564.051	11.8
564.248	11.97
564.445	12.04
564.642	12.07
564.839	12.23
565.036	12.35
565.234	12.44
565.431	12.47
565.628	12.52
565.825	12.57
566.022	12.65
566.219	12.69
566.416	12.77
566.613	12.89
566.81	12.97
567.007	12.88
567.204	12.84
567.401	12.84
567.598	12.83
567.795	12.75
567.991	12.81
568.188	12.93
568.385	13.04
568.582	13.11
568.779	13.24
568.976	13.28
569.172	13.35
569.369	13.37
569.566	13.42
569.763	13.47
569.96	13.56
570.156	13.6
570.353	13.54
570.55	13.57
570.746	13.54
570.943	13.58
571.14	13.59
571.336	13.69
571.533	13.76
571.729	13.81
571.926	13.83
572.123	13.92
572.319	13.98
572.516	13.94
572.712	14.03
572.909	14.09
573.105	14.13
573.302	14.13
573.498	14.23
573.695	14.16
573.891	14.17
574.087	14.08
574.284	14.1
574.48	13.98
574.677	13.99
574.873	13.96
575.069	14.05
575.266	14.09
575.462	14.05
575.658	14.18
575.854	14.22
576.051	14.14
576.247	14.07
576.443	14.13
576.639	14.04
576.835	13.99
577.032	14.01
577.228	14.16
577.424	14.18
577.62	14.1
577.816	14.18
578.012	14.2
578.208	14.13
578.404	14.16
578.6	14.29
578.796	14.2
578.993	14.23
579.189	14.16
579.384	14.09
579.58	14.01
579.776	13.98
579.972	13.85
580.168	13.82
580.364	13.81
580.56	13.78
580.756	13.7
580.952	13.64
581.148	13.69
581.343	13.74
581.539	13.74
581.735	13.83
581.931	13.93
582.127	13.95
582.322	13.87
582.518	13.88
582.714	13.86
582.909	13.81
583.105	13.71
583.301	13.71
583.496	13.73
583.692	13.69
583.888	13.63
584.083	13.68
584.279	13.68
584.474	13.64
584.67	13.69
584.866	13.71
585.061	13.53
585.257	13.55
585.452	13.54
585.648	13.43
585.843	13.41
586.039	13.56
586.234	13.52
586.429	13.43
586.625	13.51
586.82	13.52
587.015	13.45
587.211	13.36
587.406	13.37
587.601	13.3
587.797	13.27
587.992	13.22
588.187	13.32
588.383	13.32
588.578	13.31
588.773	13.3
588.968	13.41
589.163	13.4
589.359	13.4
589.554	13.43
589.749	13.5
589.944	13.53
590.139	13.44
590.334	13.47
590.529	13.47
590.724	13.47
590.919	13.47
591.114	13.5
591.309	13.51
591.504	13.58
591.699	13.54
591.894	13.54
592.089	13.53
592.284	13.55
592.479	13.61
592.674	13.65
592.869	13.73
593.064	13.88
593.259	13.95
593.454	13.95
593.648	13.93
593.843	13.83
594.038	13.84
594.233	13.81
594.428	13.72
594.622	13.78
594.817	13.98
595.012	13.92
595.206	14.01
595.401	14.11
595.596	14.21
595.79	14.27
595.985	14.42
596.18	14.52
596.374	14.61
596.569	14.63
596.763	14.58
596.958	14.54
597.153	14.52
597.347	14.53
597.542	14.61
597.736	14.6
597.931	14.66
598.125	14.65
598.319	14.77
598.514	14.74
598.708	14.89
598.903	14.93
599.097	14.99
599.291	14.97
599.486	15.02
599.68	14.94
599.874	15.13
600.069	15.17
600.263	15.15
600.457	15.2
600.651	15.31
600.846	15.22
601.04	15.27
601.234	15.32
601.428	15.38
601.622	15.38
601.817	15.37
602.011	15.39
602.205	15.48
602.399	15.45
602.593	15.42
602.787	15.49
602.981	15.41
603.175	15.39
603.369	15.32
603.563	15.39
603.757	15.41
603.951	15.44
604.145	15.47
604.339	15.54
604.533	15.43
604.727	15.34
604.921	15.35
605.115	15.3
605.309	15.3
605.502	15.37
605.696	15.34
605.89	15.33
606.084	15.32
606.278	15.25
606.471	15.15
606.665	15.14
606.859	15.03
607.053	15
607.246	14.99
607.44	15.03
607.634	14.97
607.827	15
608.021	14.88
608.214	14.84
608.408	14.76
608.602	14.68
608.795	14.61
608.989	14.57
609.182	14.46
609.376	14.49
609.569	14.42
609.763	14.34
609.956	14.29
610.15	14.18
610.343	14.08
610.537	14.07
610.73	14.1
610.923	14.1
611.117	14.25
611.31	14.12
611.504	14.08
611.697	13.95
611.89	13.89
612.083	13.69
612.277	13.71
612.47	13.6
612.663	13.52
612.856	13.39
613.05	13.29
613.243	13.22
613.436	13.13
613.629	13.03
613.822	12.98
614.015	12.98
614.209	12.75
614.402	12.75
614.595	12.82
614.788	12.8
614.981	12.72
615.174	12.7
615.367	12.59
615.56	12.47
615.753	12.37
615.946	12.27
616.139	12.34
616.332	12.48
616.525	12.53
616.718	12.62
616.911	12.67
617.103	12.58
617.296	12.48
617.489	12.32
617.682	12.18
617.875	12.16
618.067	12.06
618.26	11.95
618.453	12.06
618.646	12.08
618.838	12.07
619.031	12.26
619.224	12.27
619.417	12.2
619.609	12.21
619.802	12.12
619.994	11.93
620.187	11.92
620.38	11.84
620.572	11.73
620.765	11.76
620.957	11.67
621.15	11.59
621.342	11.53
621.535	11.65
621.727	11.58
621.92	11.62
622.112	11.59
622.305	11.7
622.497	11.52
622.69	11.52
622.882	11.53
623.074	11.57
623.267	11.44
623.459	11.35
623.651	11.32
623.844	11.25
624.036	11.28
624.228	11.27
624.42	11.32
624.613	11.46
624.805	11.5
624.997	11.45
625.189	11.42
625.381	11.46
625.574	11.31
625.766	11.22
625.958	11.22
626.15	11.21
626.342	11.11
626.534	11.11
626.726	11.08
626.918	11.08
627.11	11.06
627.302	11.17
627.494	11.09
627.686	11.12
627.878	10.98
628.07	11.01
628.262	10.84
628.454	10.87
628.646	10.91
628.838	11
629.029	10.95
629.221	11.05
629.413	10.97
629.605	10.83
629.797	10.72
629.989	10.74
630.18	10.65
630.372	10.66
630.564	10.71
630.755	10.75
630.947	10.74
631.139	10.59
631.33	10.48
631.522	10.45
631.714	10.4
631.905	10.33
632.097	10.36
632.289	10.46
632.48	10.37
632.672	10.31
632.863	10.24
633.055	10.23
633.246	10.17
633.438	10.16
633.629	10.13
633.821	10.18
634.012	10.18
634.203	10.09
634.395	10.11
634.586	10.14
634.777	10.08
634.969	10.08
635.16	10.12
635.351	10.04
635.543	10.02
635.734	10
635.925	10.03
636.117	9.99
636.308	9.99
636.499	9.89
636.69	9.75
636.881	9.64
637.073	9.71
637.264	9.74
637.455	9.77
637.646	9.88
637.837	9.93
638.028	9.83
638.219	9.85
638.41	9.82
638.601	9.73
638.792	9.74
638.983	9.75
639.174	9.65
639.365	9.65
639.556	9.6
639.747	9.5
639.938	9.55
640.129	9.5
640.32	9.43
640.511	9.45
640.701	9.58
640.892	9.38
641.083	9.45
641.274	9.52
641.465	9.54
641.655	9.38
641.846	9.41
642.037	9.36
642.228	9.22
642.418	9.29
642.609	9.3
642.8	9.36
642.99	9.22
643.181	9.3
643.372	9.23
643.562	9.26
643.753	9.13
643.943	9.14
644.134	8.99
644.324	8.91
644.515	8.84
644.705	8.95
644.896	9.05
645.086	9.09
645.277	9.11
645.467	9.14
645.658	9.06
645.848	8.98
646.038	8.97
646.229	8.93
646.419	8.79
646.61	8.77
646.8	8.77
646.99	8.75
647.18	8.66
647.371	8.75
647.561	8.67
647.751	8.62
647.941	8.59
648.132	8.63
648.322	8.54
648.512	8.63
648.702	8.68
648.892	8.69
649.082	8.67
649.272	8.58
649.462	8.45
649.653	8.33
649.843	8.27
650.033	8.26
650.223	8.35
650.413	8.32
650.603	8.41
650.793	8.48
650.983	8.41
651.172	8.32
651.362	8.32
651.552	8.18
651.742	8.08
651.932	8.12
652.122	8.17
652.312	8.24
652.502	8.34
652.691	8.37
652.881	8.26
653.071	8.22
653.261	8.09
653.45	7.92
653.64	7.92
653.83	7.94
654.019	7.85
654.209	7.83
654.399	7.92
654.588	7.75
654.778	7.61
654.968	7.54
655.157	7.55
655.347	7.42
655.536	7.44
655.726	7.45
655.915	7.41
656.105	7.3
656.294	7.27
656.484	7.15
656.673	7
656.863	6.98
657.052	6.85
657.241	6.72
657.431	6.55
657.62	6.49
657.809	6.3
657.999	6.21
658.188	6.16
658.377	6.07
658.567	6.12
658.756	6.09
658.945	6.05
659.134	5.93
659.324	5.9
659.513	5.74
659.702	5.61
659.891	5.54
660.08	5.44
660.269	5.46
660.458	5.32
660.648	5.31
660.837	5.2
661.026	5.31
661.215	5.17
661.404	5.19
661.593	5.21
661.782	5.08
661.971	5
662.16	4.95
662.349	4.93
662.538	4.75
662.726	4.81
662.915	4.69
663.104	4.63
663.293	4.63
663.482	4.76
663.671	4.72
663.86	4.6
664.048	4.59
664.237	4.52
664.426	4.38
664.615	4.38
664.803	4.44
664.992	4.33
665.181	4.25
665.369	4.21
665.558	4.15
665.747	4.01
665.935	4.18
666.124	4.22
666.312	4.24
666.501	4.22
666.69	4.26
666.878	4.24
667.067	4.09
667.255	4.22
667.444	4.48
667.632	4.59
667.82	4.71
668.009	4.71
668.197	4.59
668.386	4.35
668.574	4.46
668.762	4.26
668.951	4.27
669.139	4.26
669.327	4.26
669.516	4.31
669.704	4.37
669.892	4.62
670.08	4.61
670.269	4.52
670.457	4.28
670.645	4.15
670.833	4.16
671.021	4.23
671.21	4.37
671.398	4.65
671.586	4.67
671.774	4.55
671.962	4.59
672.15	4.66
672.338	4.54
672.526	4.71
672.714	4.67
672.902	4.69
673.09	4.79
673.278	4.96
673.466	5.04
673.654	5.24
673.842	5.27
674.03	5.26
674.218	5.07
674.405	5.04
674.593	4.92
674.781	5.01
674.969	4.97
675.157	5.17
675.344	5.27
675.532	5.37
675.72	5.46
675.908	5.58
676.095	5.46
676.283	5.52
676.471	5.69
676.658	5.67
676.846	5.63
677.033	5.83
677.221	5.88
677.409	5.58
677.596	5.59
677.784	5.62
677.971	5.62
678.159	5.61
678.346	5.88
678.534	5.93
678.721	6.1
678.909	5.97
679.096	6.02
679.283	6.19
679.471	6.33
679.658	6.35
679.846	6.63
680.033	6.9
680.22	6.76
680.408	6.68
680.595	6.67
680.782	6.52
680.969	6.39
681.157	6.53
681.344	6.71
681.531	6.65
681.718	6.65
681.905	6.67
682.093	6.79
682.28	6.85
682.467	7.19
682.654	7.39
682.841	7.48
683.028	7.56
683.215	7.69
683.402	7.52
683.589	7.68
683.776	7.91
683.963	7.9
684.15	7.86
684.337	8.18
684.524	8.19
684.711	8.26
684.898	8.22
685.085	8.37
685.271	8.54
685.458	8.62
685.645	8.66
685.832	8.97
686.019	9.1
686.205	9.02
686.392	9.39
686.579	9.67
686.766	9.97
686.952	10.19
687.139	10.71
687.326	10.76
687.512	10.85
687.699	10.94
687.886	11.09
688.072	11.02
688.259	11.31
688.445	11.61
688.632	11.73
688.818	12.28
689.005	12.6
689.191	12.83
689.378	13.34
689.564	13.88
689.751	14.06
689.937	14.44
690.124	14.81
690.31	14.93
690.496	15.22
690.683	15.72
690.869	16.08
691.055	16.4
691.242	17.05
691.428	17.69
691.614	18.12
691.8	18.77
691.987	19.43
692.173	19.83
692.359	20.29
692.545	20.88
692.731	21.27
692.918	21.67
693.104	22.15
693.29	22.54
693.476	23.02
693.662	23.73
693.848	24.28
694.034	24.79
694.22	25.18
694.406	25.81
694.592	26.33
694.778	26.86
694.964	27.4
695.15	28.25
695.336	28.83
695.522	29.55
695.708	30.42
695.894	31.23
696.08	32.01
696.265	32.42
696.451	33.05
696.637	33.69
696.823	34.26
697.009	34.72
697.194	35.47
697.38	35.76
697.566	36.08
697.751	36.7
697.937	37.45
698.123	38.16
698.308	39.04
698.494	39.9
698.68	40.66
698.865	41.05
699.051	41.7
699.236	42.3
699.422	42.74
699.607	42.98
699.793	43.67
699.978	43.88
700.164	44.39
700.349	45.2
700.535	45.76
700.72	46.15
700.906	46.88
701.091	47.28
701.276	47.74
701.462	48.57
701.647	49.49
701.832	50.03
702.018	50.53
702.203	50.74
702.388	51.13
702.573	51.57
702.759	52.39
702.944	52.79
703.129	53.49
703.314	53.99
703.499	54.26
703.684	54.27
703.87	55.41
704.055	56.55
704.24	57.05
704.425	57.9
704.61	58.7
704.795	58.51
704.98	58.51
705.165	58.86
705.35	59.11
705.535	59.4
705.72	60.02
705.905	60.41
706.09	61.05
706.275	61.21
706.459	61.45
706.644	61.6
706.829	62.11
707.014	62.37
707.199	63.12
707.384	63.86
707.568	64.38
707.753	64.72
707.938	65.22
708.123	65.38
708.307	65.4
708.492	66
708.677	66.13
708.861	66.22
709.046	66.21
709.231	67.14
709.415	67.42
709.6	67.61
709.784	67.74
709.969	68.29
710.153	68.04
710.338	68.3
710.522	68.75
710.707	69.16
710.891	69.41
711.076	69.67
711.26	69.64
711.445	70.17
711.629	70.38
711.813	70.56
711.998	71.12
712.182	71.34
712.366	71.72
712.551	72.58
712.735	73.23
712.919	73.17
713.103	73.62
713.288	73.7
713.472	73.5
713.656	74.07
713.84	74.53
714.024	74.99
714.208	74.72
714.393	75.01
714.577	74.76
714.761	74.8
714.945	74.98
715.129	75.46
715.313	75.86
715.497	75.86
715.681	76.79
715.865	76.91
716.049	76.97
716.233	76.87
716.417	77.25
716.601	76.62
716.785	76.42
716.968	76.6
717.152	76.88
717.336	76.88
717.52	76.9
717.704	77.32
717.888	77.85
718.071	77.89
718.255	77.99
718.439	78.51
718.622	78.72
718.806	78.94
718.99	78.44
719.174	78.49
719.357	78.31
719.541	78.6
719.724	78.53
719.908	79.74
720.092	80.41
720.275	80.66
720.459	80.32
720.642	80.35
720.826	79.9
721.009	79.61
721.193	79.31
721.376	80.01
721.559	80.86
721.743	81.15
721.926	81.53
722.11	81.76
722.293	81.26
722.476	80.33
722.66	80.57
722.843	80.51
723.026	80.42
723.21	80.79
723.393	81.9
723.576	81.79
723.759	81.32
723.942	81.71
724.126	82.02
724.309	81.36
724.492	81.37
724.675	81.66
724.858	82.5
725.041	82.7
725.224	83.07
725.407	83.5
725.59	84.25
725.774	83.8
725.957	83.22
726.14	83.04
726.322	82.83
726.505	82.87
726.688	83.5
726.871	83.77
727.054	84.09
727.237	84.01
727.42	83.91
727.603	83.36
727.786	83.44
727.968	83.75
728.151	83.72
728.334	83.32
728.517	84.03
728.699	84.87
728.882	84.67
729.065	85.39
729.248	86.35
729.43	86.55
729.613	86.86
729.796	87.39
729.978	86.88
730.161	86.43
730.343	86.23
730.526	86.28
730.708	85.33
730.891	85.75
731.073	85.89
731.256	86.12
731.438	86.25
731.621	87.41
731.803	87.55
731.986	87.84
732.168	86.88
732.35	86.58
732.533	86.46
732.715	86.69
732.898	87.41
733.08	88.07
733.262	88.74
733.444	88.18
733.627	88.22
733.809	88.31
733.991	88.57
734.173	87.78
734.355	88.28
734.538	88.65
734.72	87.44
734.902	87.74
735.084	88.3
735.266	88
735.448	87.91
735.63	88.17
735.812	87.71
735.994	88.33
736.176	89.33
736.358	89.29
736.54	90.4
736.722	90.65
736.904	90.02
737.086	89.65
737.268	90.41
737.45	90.58
737.632	90.63
737.814	89.9
737.995	90.46
738.177	90.11
738.359	88.74
738.541	89.37
738.723	89.61
738.904	89.2
739.086	89.39
739.268	90.28
739.449	90.28
739.631	90.54
739.813	91.42
739.994	92.06
740.176	92.52
740.358	92.26
740.539	93.39
740.721	92.41
740.902	92.56
741.084	92.11
741.265	92.05
741.447	91.72
741.628	92.45
741.81	91.39
741.991	91.78
742.172	92.16
742.354	92.39
742.535	92.03
742.717	92.71
742.898	93.2
743.079	94.27
743.261	93.98
743.442	92.97
743.623	93.25
743.804	92.85
743.986	93.3
744.167	92.42
744.348	92.84
744.529	92.39
744.71	91.05
744.891	89.62
745.073	89.76
745.254	89.7
745.435	88.56
745.616	88.95
745.797	88.62
745.978	88.27
746.159	89.04
746.34	89.52
746.521	91.03
746.702	90.11
746.883	90.41
747.064	89.96
747.245	90.01
747.426	89.28
747.606	90.61
747.787	91.89
747.968	92.15
748.149	92.61
748.33	93.31
748.51	93.75
748.691	93.15
748.872	93.31
749.053	92.72
749.233	91.3
749.414	89.69
749.595	89.09
749.775	88.26
749.956	88.45
750.137	88.97
750.317	90.86
750.498	92.39
750.678	92.66
750.859	93.78
751.04	93.71
751.22	92.17
751.4	90.64
751.581	90.39
751.761	90.28
751.942	90.61
752.122	90.61
752.303	90.42
752.483	89.8
752.663	88.36
752.844	87.43
753.024	89.23
753.204	89.87
753.385	90.16
753.565	90.29
753.745	91.4
753.925	89.08
754.106	88.04
754.286	88.65
754.466	88.79
754.646	88.98
754.826	89.2
755.006	88.41
755.187	89.55
755.367	91.06
755.547	90.82
755.727	90.88
755.907	92.85
756.087	92.54
756.267	90.43
756.447	90.18
756.627	89.47
756.807	88.73
756.987	88.32
757.167	89.39
757.346	89.96
757.526	89.66
757.706	89.56
757.886	89.66
758.066	90.68
758.246	91.76
758.425	92.36
758.605	92.44
758.785	91.29
758.965	89.53
759.144	87.26
759.324	88.17
759.504	88.72
759.683	89.63
759.863	89.02
760.043	89.15
760.222	88.76
760.402	87.21
760.581	86.62
760.761	88.31
760.94	87.46
761.12	87.84
761.299	88.36
761.479	88.27
761.658	86.54
761.838	86.88
762.017	86.87
762.197	87.45
762.376	87.58
762.555	88.29
762.735	88.96
762.914	87.28
763.093	88.07
763.273	88.06
763.452	88.23
763.631	87.77
763.81	89.18
763.99	89.54
764.169	89.96
764.348	88.01
764.527	87.54
764.706	88.16
764.885	88.25
765.064	86.53
765.243	89.04
765.423	89.51
765.602	87.97
765.781	84.1
765.96	83.53
766.139	80.56
766.318	81.58
766.497	81.64
766.676	83.57
766.854	84.58
767.033	86.96
767.212	86.14
767.391	85.79
767.57	86.63
767.749	88.09
767.928	89.31
768.106	88.26
768.285	87.56
768.464	86.52
768.643	84.1
768.821	83.11
769	84.53
769.179	84.65
769.357	82.91
769.536	83.55
769.715	83.24
769.893	84.61
770.072	84.41
770.25	86.12
770.429	86.03
770.607	84.05
770.786	80.38
770.964	81.37
771.143	80.74
771.321	83.44
771.5	85.28
771.678	87.23
771.857	86.98
772.035	87.52
772.213	84.64
772.392	82.73
772.57	83.93
772.748	85.04
772.927	84.22
773.105	83.64
773.283	84.35
773.461	82.49
773.64	82.31
773.818	82.33
773.996	84.89
774.174	84.92
774.352	84.51
774.531	80.58
774.709	82.39
774.887	80.75
775.065	80.77
775.243	81.69
775.421	84.79
775.599	83.93
775.777	82.91
775.955	81.7
776.133	78.9
776.311	77.26
776.489	75.42
776.667	76.25
776.844	77.78
777.022	78.8
777.2	80.41
777.378	80.98
777.556	81.78
777.734	84.68
777.911	88.18
778.089	86.04
778.267	86.56
778.445	84.28
778.622	82.16
778.8	80.36
778.978	82.6
779.155	80.56
779.333	81.52
779.511	82.51
779.688	85.02
779.866	81.27
780.043	79.68
780.221	78.44
780.398	73.31
780.576	71.74
780.753	76.22
780.931	79.12
781.108	79.01
781.286	82.29
781.463	77.19
781.64	72.95
781.818	74.6
781.995	77.21
782.172	75.84
782.35	78.69
782.527	82.19
782.704	82.35
782.882	81.44
783.059	79.79
783.236	78.68
783.413	79.23
783.59	79.1
783.768	76.04
783.945	79.71
784.122	82.07
784.299	79.47
784.476	77.05
784.653	77.34
784.83	75.09
785.007	72.65
785.184	73.71
785.361	73.1
785.538	80.3
785.715	83.3
785.892	83.54
786.069	85.97
786.246	88.42
786.423	85.99
786.6	86.01
786.776	89.07
786.953	84.52
787.13	86.08
787.307	86.41
787.484	84.81
787.66	81.79
787.837	83.72
788.014	76.62
788.191	71.79
788.367	65.88
788.544	67.32
788.721	66.94
788.897	73.09
789.074	76.75
789.25	77.15
789.427	79.1
789.603	77.56
789.78	77.15
789.956	72.98
790.133	73.26
790.309	73.18
790.486	77.77
790.662	76.6
790.839	76.96
791.015	82.34
791.192	82.53
791.368	84.09
791.544	79.48
791.721	81.9
791.897	77.29
792.073	70.02
792.249	62.12
792.426	66.31
792.602	68.56
792.778	72.22
792.954	75.87
793.13	75.81
793.307	68.45
793.483	58.95
793.659	60.64
793.835	61.84
794.011	64.82
794.187	69.81
794.363	74.66
794.539	76.22
794.715	73.97
794.891	73.09
795.067	74.83
795.243	74.37
795.419	71.01
795.595	68.81
795.771	70.38
795.947	71.28
796.122	72.7
796.298	72.81
796.474	77.82
796.65	76.84
796.826	73.42
797.001	68.33
797.177	66.29
797.353	68.18
797.529	73.68
797.704	72.65
797.88	73.9
798.056	70.34
798.231	62.32
798.407	63.9
798.582	64.81
798.758	71.99
798.934	79.84
799.109	81.28
799.285	71.89
799.46	78.64
799.636	73.74
799.811	70.63
799.986	73.82
800.162	76.4
800.337	70.59
800.513	71.74
800.688	69.26
800.863	77.3
801.039	74.59
801.214	72.47
801.389	78.38
801.565	81.25
801.74	67.16
801.915	74.84
802.09	80.09
802.265	74.89
802.441	73.78
802.616	80.83
802.791	79.8
802.966	75.86
803.141	71.61
803.316	68.47
803.491	68.17
803.666	68.83
803.841	62.74
804.016	60.35
804.191	66.38
804.366	63.18
804.541	55.99
804.716	60.23
804.891	64.3
805.066	64.79
805.241	64.89
805.416	62.33
805.591	62.48
805.765	63.18
805.94	65
806.115	66.25
806.29	66.07
806.464	66.17
806.639	66.65
806.814	61.41
806.989	51.3
807.163	63.12
807.338	68.28
807.512	65.75
807.687	50.74
807.862	62.67
808.036	59.62
808.211	62.12
808.385	71
808.56	91.97
808.734	98.09
808.909	91.5
809.083	78.92
809.258	76.32
809.432	65.86
809.606	47.34
809.781	47.28
809.955	57.1
810.13	62.82
810.304	64.67
810.478	68.36
810.652	79.32
810.827	78.83
811.001	71.51
811.175	69.31
811.349	73.77
811.524	61.01
811.698	48.87
811.872	44.37
812.046	52.86
812.22	57.53
812.394	59.4
812.568	65.56
812.742	68.04
812.916	56.63
813.09	44.55
813.264	51.27
813.438	49.74
813.612	54.81
813.786	56.66
813.96	66.68
814.134	64.37
814.308	85.83
814.482	80.84
814.656	78.17
814.83	77.37
815.003	73.98
815.177	62.93
815.351	60.46
815.525	57
815.698	52.14
815.872	55.52
816.046	41.58
816.219	45.51
816.393	61.78
816.567	68.21
816.74	65.37
816.914	76.33
817.088	78.14
817.261	67.49
817.435	63.08
817.608	72.17
817.782	60.59
817.955	58.19
818.129	51.67
818.302	56.6
818.475	62.9
818.649	65.23
818.822	53.69
818.996	79.74
819.169	72.83
819.342	54.89
819.516	70.19
819.689	84.92
819.862	57.56
820.035	52.77
820.209	53.53
820.382	47.34
820.555	47.19
820.728	38.05
820.901	41.54
821.075	36.39
821.248	35.72
821.421	30.5
821.594	43.51
821.767	67.42
821.94	78.01
822.113	53.33
822.286	52.03
822.459	56.59
822.632	40.23
822.805	41.11
822.978	58.5
823.151	66.08
823.324	55.58
823.496	34.78
823.669	31.25
823.842	33.78
824.015	20.09
824.188	19.25
824.361	32.76
824.533	34.05
824.706	35.98
824.879	30.59
825.051	45.32
825.224	38.98
825.397	24.66
825.569	6.96
825.742	34.04
825.915	27.9
826.087	30.72
826.26	31.1
826.432	41.63
826.605	37.42
826.777	26.63
826.95	29.84
827.122	24.03
827.295	42.7
827.467	37.31
827.64	29.47
827.812	32.37
827.984	47.42
828.157	20.72
828.329	3.63
828.501	19.31
828.674	42.02
828.846	32.16
829.018	53.25
829.19	39.8
829.363	61.72
829.535	56.17
829.707	62.17
829.879	32.48
830.051	31.72
830.223	13.87
830.395	-2.83
830.568	-0.22
830.74	6.94
830.912	42.89
831.084	38.41
831.256	38.77
831.428	23.21
831.6	10.65
831.772	-25.41
831.943	-49.72
832.115	-26.21
832.287	-1.7
832.459	6.13
832.631	16.64
832.803	50.49
832.975	76.52
833.146	89.94
833.318	102.5
833.49	110.26
833.662	66.47
833.833	6.25
834.005	-11.03
834.177	-4.71
834.348	-11.26
834.52	-22.75
834.692	17.34
834.863	26.53
835.035	12.39
835.206	-38.35
835.378	3.59
835.549	-20.35
835.721	-10.57
835.892	-18.73
836.064	10.09
836.235	12.72
836.407	24.93
836.578	-3.49
836.749	14.06
836.921	-10.22
837.092	-12.74
837.264	-25.6
837.435	-22.89
837.606	9.07
837.777	38.13
837.949	48.93
838.12	46.13
838.291	52.86
838.462	53.8
838.633	29.34
838.805	23.94
838.976	64.51
839.147	34.83
839.318	-10.32
839.489	-43.91
839.66	-36.09
839.831	-17.74
840.002	9.6
840.173	10.99
840.344	63.02
840.515	72.53
840.686	-50.57
840.857	-61.44
841.028	-54.26
841.199	-41.12
841.369	-44.8
841.54	-15.92
841.711	16.62
841.882	48.25
842.053	13.52
842.223	2.34
842.394	6.68
842.565	8.38
842.736	6.95
842.906	32.5
843.077	43.4
843.248	56.42
843.418	40.57
843.589	-2.32
843.759	12
843.93	8.35
844.101	11.32
844.271	22.55
844.442	43.69
844.612	48.87
844.783	10.58
844.953	-16.36
845.123	-8.89
845.294	14.4
845.464	-135.3
845.635	23.28
845.805	80.93
845.975	48.36
846.146	-22.5
846.316	-17.33
846.486	6.77
846.656	29.4
846.827	14.99
846.997	26.75
847.167	53.85
847.337	30.69
847.507	8.61
847.677	15.87
847.848	54.49
848.018	42.68
848.188	44.16
848.358	22.7
848.528	4.84
848.698	-41.43
848.868	-114.24
849.038	-167.7
849.208	-58.01
849.378	17.68
849.548	18.94
849.718	32.14
849.887	40.45
850.057	34.78
850.227	-10.94
850.397	-27.74
850.567	-146.81
850.737	-322.28
850.906	-1102.81
851.076	-773.63
851.246	-323.69
851.415	-8.03
851.585	-38.41
851.755	-79.2
851.924	-6.6
852.094	-39.32
852.264	-121.52
852.433	-802.16
852.603	-78.03
852.772	-84.04
852.942	-22.59
853.111	-27.51
853.281	12.97
853.45	32.74
853.62	-47.8
853.789	-101.6
853.959	-65.31
854.128	-23.3
854.297	-60.49
854.467	-42.5
854.636	37.94
854.805	28.94
854.975	-0.04
855.144	26.23
855.313	299.83
855.482	-118.43
855.652	-123.68
855.821	-101.24
855.99	0.34
856.159	11.67
856.328	24.17
856.497	1.54
856.667	13.97
856.836	31.45
857.005	-6.99
857.174	-23.77
857.343	-19.8
857.512	-28.81
857.681	-86.87
857.85	-121.42
858.019	-47.02
858.188	-34.72
858.356	-25.61
858.525	-82.81
858.694	-57.76
858.863	-140.34
859.032	-130.84
859.201	-187.75
859.369	-78.13
859.538	-49.84
859.707	-39.73
859.876	-39.68
860.044	-81.31
860.213	1.96
860.382	-2.14
860.55	-5.25
860.719	31.43
860.888	53.45
861.056	7.3
861.225	9.05
861.393	48.56
861.562	69.23
861.73	-19.38
861.899	-53.53
862.067	-569.83
862.236	41.88
862.404	-140.99
862.572	-10.85
862.741	37.06
862.909	3.17
863.078	-97.13
863.246	-47.73
863.414	-69.51
863.582	-11.51
863.751	12.76
863.919	9.78
864.087	45.3
864.255	56.93
864.424	-186.55
864.592	-13.45
864.76	-64.9
864.928	-209
865.096	-121.42
865.264	-123.79
865.432	-1821.02
865.6	-99.13
865.768	-118.64
865.936	-116.25
866.104	-88.25
866.272	-121.95
866.44	-341.44
866.608	512.09
866.776	255.11
866.944	2505.23
867.112	-492.06
867.28	-190.48
867.448	-80.2
867.615	-23.95
867.783	-17.42
867.951	-24.84
868.119	-12.32
868.286	-24.15
868.454	-194.62
868.622	-163.31
868.789	-148.97
868.957	-2380.36
869.125	-2029.61
869.292	-85.57
869.46	-171.64
869.627	-18.68
869.795	-51.5
869.963	-17.72
870.13	-7.92
870.298	27.62
870.465	-46.99
870.632	-26.94
870.8	-15.38
870.967	-3.75
871.135	-83.44
871.302	-72.33
871.469	-75.06
871.637	-91.9
871.804	-80.53
871.971	-71.2
872.139	-194.07
872.306	36.97
872.473	6.64
872.64	-144.31
872.807	-19.56
872.975	46.15
873.142	-156.09
873.309	1533.11
873.476	35.77
873.643	63.98
873.81	-12.71
873.977	21.49
874.144	41.49
874.311	-61.47
874.478	-134.28
874.645	-169.25
874.812	-111.92
874.979	-102.34
875.146	-80.77
875.313	-89.13
875.48	27.74
875.647	1.71
875.813	-12.01
875.98	-8.63
876.147	-22.62
876.314	-61.74
876.481	863.02
876.647	-1176.69
876.814	491.32
876.981	6.83
877.147	-71.3
877.314	18.34
877.481	47.66
877.647	51.48
877.814	7.12
877.98	-6.18
878.147	4.99
878.314	41.05
878.48	-15.26
878.647	-3.3
878.813	41.84
878.979	29.73
879.146	-15.61
879.312	-1.54
879.479	-29.44
879.645	-127.71
879.811	-284.94
879.978	-538.36
880.144	-109.62
880.31	-64.63
880.477	-212.54
880.643	-271.57
880.809	-129.44
880.975	-126.88
881.142	-747.5
881.308	-55.71
881.474	-1.98
881.64	-8.79
881.806	-25.81
881.972	-15.91
882.138	-32.47
882.304	-0.94
882.47	-101.13
882.636	-501.84
882.802	-58.36
882.968	-2.37
883.134	2.4
883.3	11.77
883.466	47.88
883.632	80.72
883.798	55.34
883.964	55.16
884.129	50.78
884.295	60.77
884.461	-26.76
884.627	-28.97
884.793	-47.9
884.958	-4.75
885.124	-85.63
885.29	-152.51
885.455	-179.25
885.621	-22.49
885.787	-107.26
885.952	-56.58
886.118	-51.2
886.283	-29.76
886.449	-96.14
886.614	-83.08
886.78	-225.1
886.945	1087.3
887.111	-674.71
887.276	-624.01
887.442	-1012.05
887.607	-390.68
887.773	-245.62
887.938	-203.72
888.103	-170.98
888.269	-138.33
888.434	-212.57
888.599	-55.51
888.764	43.31
888.93	32.58
889.095	11.24
889.26	-42.64
889.425	-7.16
889.59	-64.1
889.756	-109.33
889.921	-57.48
890.086	18.66
890.251	-8.79
890.416	-127.75
890.581	-1108.47
890.746	78.3
890.911	133.92
891.076	131.44
891.241	-125.56
891.406	83.44
891.571	29.8
891.736	-169.38
891.901	-326.77
892.065	264.01
892.23	92.85
892.395	205.53
892.56	306.14
892.725	-297.85
892.889	-995.73
893.054	-191.25
893.219	-37.15
893.384	24.39
893.548	-1.24
893.713	-17.71
893.878	7.83
