Data from Ofra_2a_PS_1GT36B_Reflection_2.txt Node
Date: Tue Jul 20 09:31:56 EDT 2021
User: Adam
Spectrometer: FLMT01687
Trigger mode: 0
Integration Time (sec): 9.450000E-1
Scans to average: 3
Electric dark correction enabled: true
Nonlinearity correction enabled: false
Boxcar width: 3
XAxis mode: Wavelengths
Number of Pixels in Spectrum: 3648
>>>>>Begin Spectral Data<<<<<
179.494	760.36
179.716	464.7
179.937	532.42
180.158	2048.83
180.38	-903.78
180.601	-220.91
180.823	-46.92
181.044	-87.35
181.265	-173.8
181.486	-46.32
181.708	-1344.57
181.929	-67.09
182.15	-116.48
182.372	-16.16
182.593	-35.87
182.814	353.74
183.035	275.1
183.257	114.69
183.478	47.86
183.699	62.56
183.92	34.59
184.141	34.25
184.363	30.64
184.584	23.79
184.805	30.21
185.026	34.15
185.247	19.81
185.468	38.58
185.689	40.48
185.91	17.92
186.132	29.55
186.353	3.54
186.574	9.97
186.795	0.82
187.016	1.75
187.237	-6.35
187.458	-3.76
187.679	-12.21
187.9	10.19
188.121	1.33
188.342	15.92
188.563	20.12
188.784	28.7
189.005	51.3
189.226	35.72
189.447	24.68
189.667	30.35
189.888	39.76
190.109	23.39
190.33	12.17
190.551	-12.56
190.772	-9.08
190.993	9.56
191.214	1.14
191.434	-15.8
191.655	-3.2
191.876	3.71
192.097	8.81
192.318	16.49
192.538	12.42
192.759	24.38
192.98	29.42
193.201	41.67
193.421	44.89
193.642	56.8
193.863	62.52
194.083	52.35
194.304	40.91
194.525	50.97
194.745	20.35
194.966	22.65
195.187	24.94
195.407	22.76
195.628	22.78
195.848	19.73
196.069	-2.71
196.29	-3.73
196.51	-13.84
196.731	-3.4
196.951	-9.26
197.172	-13.85
197.392	-2.7
197.613	-4.04
197.833	6.47
198.054	11.12
198.274	-20.97
198.495	-7.72
198.715	-2.28
198.936	-8.48
199.156	6.94
199.377	15.12
199.597	3.87
199.817	24.26
200.038	17.74
200.258	20.35
200.479	26.88
200.699	32.63
200.919	12.51
201.14	17.91
201.36	14.48
201.58	20.29
201.801	17.89
202.021	11.2
202.241	8.05
202.461	23.04
202.682	25.57
202.902	29.26
203.122	27.29
203.342	45.68
203.563	59.9
203.783	62.75
204.003	61.38
204.223	60.33
204.443	52.53
204.663	50.33
204.884	33.18
205.104	30.72
205.324	27.87
205.544	25.73
205.764	25.58
205.984	36.43
206.204	38.32
206.424	38.22
206.644	34.95
206.864	35.3
207.084	53.78
207.304	51.54
207.525	48.45
207.745	43.2
207.964	48.9
208.184	41.35
208.404	24.49
208.624	-11.81
208.844	-24.62
209.064	-3.34
209.284	1.4
209.504	1.18
209.724	-21.61
209.944	-7.66
210.164	12.11
210.384	21.46
210.604	3.61
210.823	-10.38
211.043	-19.42
211.263	3.17
211.483	1.92
211.703	5.59
211.922	12.65
212.142	14.66
212.362	21.96
212.582	26.14
212.801	24.5
213.021	31.99
213.241	18.95
213.461	9.01
213.68	7.99
213.9	10.2
214.12	2.47
214.339	2.8
214.559	16.26
214.779	24.9
214.998	32.29
215.218	33.73
215.438	43.42
215.657	44.63
215.877	44.79
216.096	38.9
216.316	24.48
216.535	21.66
216.755	12.71
216.974	7.44
217.194	17.91
217.413	23.15
217.633	12.88
217.852	15.38
218.072	5.36
218.291	33.51
218.511	38.71
218.73	36.39
218.95	32.37
219.169	49.81
219.389	55.48
219.608	58.38
219.827	48.92
220.047	46.19
220.266	43.79
220.485	53.73
220.705	30.42
220.924	18.45
221.143	8.19
221.363	5.98
221.582	-1.23
221.801	-0.82
222.021	-18.89
222.24	-16.42
222.459	-8.92
222.678	-20.11
222.897	-26.96
223.117	-22.87
223.336	-12.23
223.555	-6.72
223.774	-1.04
223.993	14.16
224.213	17.9
224.432	33.49
224.651	35.64
224.87	23.52
225.089	31.52
225.308	29.32
225.527	22.06
225.746	36.64
225.965	24.1
226.184	6.05
226.404	-6.59
226.623	-0.01
226.842	-6.4
227.061	-5.24
227.28	-0.01
227.499	21.64
227.718	33.2
227.936	26.27
228.155	22.69
228.374	25.38
228.593	25.93
228.812	9.26
229.031	1.18
229.25	7.78
229.469	27.32
229.688	29.59
229.907	16.97
230.125	18.7
230.344	31.97
230.563	30.9
230.782	19.73
231.001	9.78
231.22	4.86
231.438	17.57
231.657	20.89
231.876	14.81
232.095	13.51
232.313	19.43
232.532	25.08
232.751	26.76
232.969	38.9
233.188	42.09
233.407	48.67
233.625	51.85
233.844	51.64
234.063	47.34
234.281	44.01
234.5	31.84
234.719	23.15
234.937	19.76
235.156	10.13
235.374	7.35
235.593	2.44
235.811	-1.94
236.03	-6.16
236.249	0.11
236.467	-6.6
236.686	-5.12
236.904	-1.53
237.123	17.83
237.341	15.26
237.559	23.12
237.778	23.19
237.996	22.38
238.215	25.27
238.433	28.62
238.652	19.08
238.87	26.56
239.088	17.4
239.307	19.23
239.525	15.99
239.743	12.33
239.962	4.17
240.18	8.46
240.398	-1.54
240.617	12.55
240.835	10.87
241.053	20.79
241.271	23.8
241.49	15.58
241.708	16.57
241.926	14.65
242.144	12.56
242.363	1.99
242.581	4.73
242.799	4.91
243.017	20.93
243.235	14.36
243.453	18.21
243.672	8.17
243.89	19.28
244.108	17.37
244.326	19.8
244.544	10.12
244.762	15.59
244.98	14.2
245.198	5.86
245.416	13.85
245.634	18.22
245.852	18.98
246.07	18.7
246.288	20.6
246.506	25.86
246.724	40.23
246.942	40.29
247.16	38.92
247.378	27.45
247.596	35.1
247.814	22.18
248.032	21.09
248.25	9.25
248.468	-3.19
248.685	-4.25
248.903	2.52
249.121	5.69
249.339	9.4
249.557	15.4
249.775	16.88
249.992	18.59
250.21	12.52
250.428	7.42
250.646	6.15
250.863	24.93
251.081	12.46
251.299	24.72
251.517	33.96
251.734	37.05
251.952	56.85
252.17	46.05
252.387	28.11
252.605	34.89
252.823	14.46
253.04	11.84
253.258	12.46
253.475	1.63
253.693	8.41
253.911	-2.95
254.128	-1.05
254.346	7.84
254.563	3.42
254.781	-0.55
254.998	3.33
255.216	6.15
255.433	19.3
255.651	17.96
255.868	11.76
256.086	19.5
256.303	20.3
256.521	9.73
256.738	9.33
256.956	-9.84
257.173	-5.8
257.39	5.46
257.608	6.65
257.825	5.53
258.043	15.49
258.26	13.97
258.477	25.49
258.695	25.7
258.912	22.76
259.129	12.65
259.346	16.26
259.564	-5.18
259.781	3.62
259.998	-7.04
260.216	-7.97
260.433	-7.71
260.65	1.4
260.867	0.92
261.084	18.6
261.302	4.52
261.519	2.43
261.736	6.72
261.953	13.71
262.17	2.53
262.387	-9.8
262.604	-28.23
262.822	-15.57
263.039	0.4
263.256	0.7
263.473	-7.84
263.69	-0.88
263.907	12.03
264.124	10.89
264.341	8.05
264.558	7.4
264.775	16.5
264.992	21.51
265.209	21.65
265.426	26.76
265.643	27.65
265.86	23.87
266.077	20.4
266.294	20.37
266.51	18.16
266.727	7.98
266.944	-55.75
267.161	-55.45
267.378	-44.83
267.595	-43.24
267.812	-49.69
268.028	-38.94
268.245	-28.02
268.462	25.39
268.679	20.53
268.896	10.27
269.112	11.97
269.329	15.36
269.546	14.12
269.763	17.77
269.979	17.69
270.196	27.53
270.413	26.58
270.629	22.56
270.846	25.02
271.063	28.73
271.279	24.69
271.496	15.06
271.712	9.07
271.929	22.45
272.146	22.86
272.362	8.13
272.579	-8.93
272.795	-5
273.012	1.71
273.228	4.37
273.445	0.24
273.661	2.22
273.878	11.23
274.094	23.43
274.311	17.34
274.527	21.45
274.744	15.73
274.96	11.39
275.177	17.58
275.393	21.21
275.609	22.11
275.826	31.22
276.042	33.57
276.259	28.01
276.475	30.89
276.691	28.34
276.908	13.06
277.124	9.42
277.34	3.1
277.557	-1.15
277.773	-0.16
277.989	-12.06
278.205	-21.58
278.422	-4.1
278.638	0.39
278.854	-6.97
279.07	-8.76
279.286	-12.21
279.503	-1.97
279.719	11.72
279.935	2.57
280.151	7.68
280.367	15.25
280.583	18.73
280.799	30.7
281.016	30.34
281.232	27.91
281.448	27.36
281.664	26.36
281.88	36.32
282.096	35.77
282.312	32.12
282.528	22.52
282.744	19.1
282.96	13.01
283.176	9.14
283.392	9.82
283.608	7.71
283.824	3.15
284.04	15.9
284.256	16.52
284.471	27.55
284.687	29.94
284.903	20.35
285.119	2.38
285.335	7.29
285.551	12.3
285.767	9.35
285.982	1.96
286.198	-9.35
286.414	6.76
286.63	30.64
286.846	30.02
287.061	23.17
287.277	23.78
287.493	29.22
287.709	35.73
287.924	33.47
288.14	15.36
288.356	12.28
288.571	5.38
288.787	14.85
289.003	18.79
289.218	22.97
289.434	17.38
289.65	34.87
289.865	42.35
290.081	41.76
290.296	33.47
290.512	22.45
290.727	20.65
290.943	17.69
291.159	-1.94
291.374	-7.93
291.59	-7.27
291.805	-14.62
292.021	-7.01
292.236	-0.63
292.451	4.64
292.667	9.96
292.882	16.06
293.098	20.49
293.313	25.66
293.529	23.32
293.744	16.98
293.959	18.83
294.175	20.84
294.39	15.52
294.605	15.41
294.821	17.64
295.036	22.42
295.251	24.71
295.467	15.66
295.682	20.27
295.897	20.1
296.112	14.19
296.328	18.57
296.543	9.06
296.758	-0.67
296.973	3.42
297.188	7.44
297.404	6.63
297.619	5.72
297.834	3.33
298.049	17.09
298.264	17.11
298.479	3.69
298.694	0.83
298.909	4.47
299.125	5.49
299.34	3.26
299.555	0.25
299.77	6.59
299.985	15.03
300.2	13.21
300.415	18.08
300.63	18.81
300.845	23.97
301.06	24.27
301.275	27.03
301.49	29.82
301.704	29.17
301.919	20.44
302.134	21.09
302.349	16.01
302.564	11.69
302.779	15.92
302.994	21.31
303.209	29.19
303.423	31.58
303.638	34.83
303.853	31.37
304.068	31.25
304.283	14.38
304.497	4.3
304.712	7.48
304.927	-0.89
305.142	-2.28
305.356	-3.08
305.571	-0.56
305.786	4.79
306	11.66
306.215	9.34
306.43	20.71
306.644	22.58
306.859	25.45
307.074	28.02
307.288	34.66
307.503	24.24
307.717	25.25
307.932	19.39
308.147	21.99
308.361	22.87
308.576	24.67
308.79	16.43
309.005	21.44
309.219	23.76
309.434	26.45
309.648	17.28
309.863	18.91
310.077	9.51
310.292	3.88
310.506	12.03
310.72	9.36
310.935	14.36
311.149	17.99
311.364	16.92
311.578	12.52
311.792	18.19
312.007	15.16
312.221	11.02
312.435	7.7
312.649	-33.56
312.864	-41.46
313.078	-28.33
313.292	-24.49
313.507	-25.41
313.721	-23.77
313.935	-4.86
314.149	34.41
314.363	36.81
314.578	40.59
314.792	45.72
315.006	49.73
315.22	57.05
315.434	45.99
315.648	44.03
315.862	40.71
316.077	41.05
316.291	40.06
316.505	40.24
316.719	17.67
316.933	19.67
317.147	17.07
317.361	10.57
317.575	13.36
317.789	7.33
318.003	8.26
318.217	17.05
318.431	18.44
318.645	20.55
318.859	15.14
319.073	13.76
319.287	14.88
319.5	12.37
319.714	12.08
319.928	10.97
320.142	6.56
320.356	25.93
320.57	16.78
320.784	17.84
320.997	26.02
321.211	29.68
321.425	23.79
321.639	28.36
321.853	18.74
322.066	19.03
322.28	21.92
322.494	19.55
322.707	20.47
322.921	27.62
323.135	29.2
323.349	35.7
323.562	41.9
323.776	42.85
323.989	41.56
324.203	45.2
324.417	37.62
324.63	32.27
324.844	14.38
325.057	12.58
325.271	-2.76
325.485	-7.33
325.698	-13.08
325.912	1.79
326.125	3.55
326.339	15.46
326.552	13.51
326.766	20.57
326.979	21.45
327.193	15.12
327.406	7.18
327.619	-2.11
327.833	-0.68
328.046	-2.36
328.26	-7.86
328.473	-4.3
328.686	-0.34
328.9	-10.28
329.113	2.18
329.326	3.93
329.54	9.07
329.753	20.93
329.966	16.79
330.179	20.96
330.393	37.24
330.606	35.72
330.819	40.61
331.032	43.64
331.246	41.57
331.459	51.31
331.672	48.87
331.885	35.72
332.098	37.43
332.311	27.68
332.525	24.09
332.738	24.7
332.951	19.9
333.164	17.97
333.377	6.97
333.59	14.21
333.803	19.73
334.016	24.76
334.229	21.37
334.442	25.07
334.655	29.08
334.868	44.47
335.081	45.28
335.294	43.41
335.507	43.63
335.72	34.72
335.933	33.11
336.146	35.56
336.359	30.47
336.572	26.88
336.785	34.39
336.997	27
337.21	28.06
337.423	23.28
337.636	19.64
337.849	18.43
338.062	22.75
338.274	23.67
338.487	26.7
338.7	37.04
338.913	36.48
339.125	31.16
339.338	35.06
339.551	25.21
339.763	16.67
339.976	14.39
340.189	3.83
340.402	5.15
340.614	9.99
340.827	0.67
341.039	3.71
341.252	5.14
341.465	-1.52
341.677	0.52
341.89	4.98
342.102	9.91
342.315	14.67
342.527	8.95
342.74	6.96
342.952	17.85
343.165	21.59
343.377	18.51
343.59	16.8
343.802	23.87
344.015	26.32
344.227	22.19
344.44	11.99
344.652	15.4
344.864	18.11
345.077	13.05
345.289	5.74
345.502	4
345.714	0.49
345.926	9.43
346.139	2.63
346.351	-16.94
346.563	-2.73
346.775	-1.23
346.988	2.99
347.2	11.84
347.412	14.17
347.624	19.63
347.837	28.14
348.049	23.13
348.261	23.33
348.473	20.76
348.685	23.42
348.897	21.54
349.11	11.64
349.322	7.94
349.534	3.66
349.746	8.17
349.958	13.57
350.17	10.63
350.382	-6.78
350.594	4.78
350.806	16.52
351.018	18.96
351.23	16.25
351.442	15.14
351.654	13.96
351.866	28.73
352.078	24.33
352.29	20.88
352.502	21.33
352.714	21.26
352.926	24.33
353.138	21.53
353.35	10.39
353.561	6.49
353.773	3.91
353.985	-0.24
354.197	-6.43
354.409	-5.1
354.621	0.87
354.832	-2.34
355.044	3.41
355.256	2.15
355.468	3
355.679	9.99
355.891	8.91
356.103	8.69
356.314	18.14
356.526	11.75
356.738	1.15
356.949	7.42
357.161	7.78
357.373	2.81
357.584	8.38
357.796	7.93
358.008	16.22
358.219	35.25
358.431	35.41
358.642	30.18
358.854	28.19
359.065	20.11
359.277	14.03
359.488	8.56
359.7	8.29
359.911	6.41
360.123	8.47
360.334	6.76
360.546	3.64
360.757	18.15
360.969	26.52
361.18	16.81
361.391	16.9
361.603	22.96
361.814	25.79
362.025	24.26
362.237	18.48
362.448	15.99
362.659	11.19
362.871	11.75
363.082	11.67
363.293	13.6
363.504	24.68
363.716	20.49
363.927	25.37
364.138	34.75
364.349	34.88
364.56	32.74
364.772	35.04
364.983	23.14
365.194	25
365.405	23.3
365.616	12.74
365.827	14.98
366.038	23.88
366.25	25
366.461	27.32
366.672	21.4
366.883	13.38
367.094	14.66
367.305	10.22
367.516	-1.64
367.727	-8.64
367.938	-3.57
368.149	-2.09
368.36	0.8
368.571	4.06
368.781	5.83
368.992	5.12
369.203	6.6
369.414	1.67
369.625	1.14
369.836	3.25
370.047	8.05
370.258	2.73
370.468	1.75
370.679	0.06
370.89	9.29
371.101	8.2
371.312	4.09
371.522	1.53
371.733	1.83
371.944	2.54
372.155	0.73
372.365	-2.64
372.576	-4.74
372.787	-5.76
372.997	-13.99
373.208	-6.45
373.419	-0.59
373.629	7.36
373.84	2.5
374.05	14.61
374.261	13.66
374.472	15.22
374.682	9.46
374.893	1.08
375.103	3.67
375.314	1.48
375.524	-4.88
375.735	-2.96
375.945	2.72
376.156	14.06
376.366	22.01
376.577	21.89
376.787	26.25
376.997	25.15
377.208	25.62
377.418	21.85
377.629	12.19
377.839	14.06
378.049	8.49
378.26	10.34
378.47	16.12
378.68	13.11
378.89	8.72
379.101	5.28
379.311	-0.65
379.521	7.88
379.732	0.05
379.942	-4.42
380.152	4.1
380.362	10.7
380.572	14.47
380.783	14.25
380.993	9.75
381.203	16.5
381.413	17.23
381.623	17.99
381.833	12.69
382.043	8.8
382.253	10.45
382.463	10.55
382.674	13.12
382.884	11.64
383.094	12.18
383.304	14.04
383.514	20.45
383.724	17.52
383.934	17.11
384.144	20.97
384.353	24.47
384.563	19.19
384.773	18.74
384.983	16.33
385.193	19.15
385.403	19.99
385.613	9.54
385.823	5.51
386.033	5.96
386.242	9.87
386.452	7.31
386.662	7.69
386.872	2.42
387.082	7.4
387.291	10.03
387.501	10.27
387.711	5.57
387.921	6.18
388.13	3.62
388.34	4.29
388.55	4.99
388.759	3.47
388.969	0.5
389.179	4.67
389.388	4.71
389.598	2.85
389.807	4.15
390.017	2.98
390.227	2.38
390.436	4.31
390.646	3.42
390.855	1.66
391.065	3.31
391.274	4.35
391.484	4.06
391.693	5.2
391.903	3.71
392.112	3.92
392.322	6.37
392.531	6.47
392.74	5.2
392.95	5.23
393.159	4.73
393.369	6.02
393.578	5.75
393.787	5.08
393.997	6.03
394.206	6.62
394.415	6.81
394.625	6.41
394.834	5.34
395.043	4.89
395.252	5.58
395.462	4.3
395.671	3.96
395.88	4.19
396.089	4.76
396.298	5.18
396.508	4.88
396.717	3.5
396.926	3.29
397.135	3.18
397.344	3.04
397.553	2.97
397.762	2.62
397.971	2.84
398.181	3.13
398.39	3.44
398.599	3.84
398.808	3.58
399.017	3.72
399.226	4.31
399.435	4.38
399.644	4.36
399.853	4.46
400.062	4.15
400.27	4.2
400.479	4.11
400.688	3.86
400.897	4.08
401.106	4.18
401.315	3.91
401.524	4.06
401.733	4.28
401.941	4.21
402.15	4
402.359	3.79
402.568	3.69
402.777	3.79
402.985	3.57
403.194	3.39
403.403	3.33
403.612	3.5
403.82	3.44
404.029	3.47
404.238	3.54
404.446	3.58
404.655	3.57
404.864	3.6
405.072	3.54
405.281	3.47
405.489	3.53
405.698	3.38
405.906	3.38
406.115	3.42
406.324	3.37
406.532	3.35
406.741	3.46
406.949	3.29
407.158	3.36
407.366	3.44
407.574	3.4
407.783	3.31
407.991	3.25
408.2	3.16
408.408	3.26
408.617	3.21
408.825	3.09
409.033	3.04
409.242	3.03
409.45	3
409.658	3
409.867	2.99
410.075	3.05
410.283	3.01
410.491	2.95
410.7	2.98
410.908	3.02
411.116	2.98
411.324	2.89
411.533	2.75
411.741	2.8
411.949	2.89
412.157	2.93
412.365	2.87
412.573	2.81
412.781	2.83
412.99	2.94
413.198	2.94
413.406	2.83
413.614	2.81
413.822	2.82
414.03	2.82
414.238	2.85
414.446	2.74
414.654	2.67
414.862	2.65
415.07	2.71
415.278	2.7
415.486	2.8
415.694	2.71
415.902	2.67
416.109	2.7
416.317	2.79
416.525	2.75
416.733	2.84
416.941	2.77
417.149	2.84
417.357	2.88
417.564	2.92
417.772	2.88
417.98	2.81
418.188	2.58
418.395	2.65
418.603	2.6
418.811	2.56
419.019	2.55
419.226	2.54
419.434	2.5
419.642	2.65
419.849	2.58
420.057	2.55
420.265	2.63
420.472	2.55
420.68	2.56
420.887	2.65
421.095	2.65
421.302	2.63
421.51	2.69
421.717	2.71
421.925	2.64
422.132	2.52
422.34	2.54
422.547	2.44
422.755	2.43
422.962	2.35
423.17	2.25
423.377	2.41
423.585	2.46
423.792	2.39
423.999	2.43
424.207	2.32
424.414	2.48
424.621	2.6
424.829	2.44
425.036	2.43
425.243	2.43
425.451	2.51
425.658	2.62
425.865	2.44
426.072	2.39
426.28	2.46
426.487	2.45
426.694	2.36
426.901	2.27
427.108	2.33
427.315	2.37
427.523	2.37
427.73	2.42
427.937	2.5
428.144	2.58
428.351	2.67
428.558	2.62
428.765	2.57
428.972	2.51
429.179	2.43
429.386	2.41
429.593	2.42
429.8	2.45
430.007	2.49
430.214	2.58
430.421	2.62
430.628	2.55
430.835	2.51
431.042	2.5
431.249	2.46
431.456	2.54
431.662	2.51
431.869	2.53
432.076	2.67
432.283	2.72
432.49	2.7
432.697	2.71
432.903	2.67
433.11	2.74
433.317	2.8
433.524	2.67
433.73	2.67
433.937	2.65
434.144	2.75
434.35	2.71
434.557	2.66
434.764	2.61
434.97	2.8
435.177	2.83
435.384	2.95
435.59	2.93
435.797	2.97
436.003	3.03
436.21	3.1
436.416	3.02
436.623	3.05
436.829	3
437.036	3
437.242	3.02
437.449	3.04
437.655	3
437.862	3
438.068	3.04
438.275	3.11
438.481	3.21
438.687	3.3
438.894	3.28
439.1	3.32
439.307	3.36
439.513	3.36
439.719	3.35
439.926	3.32
440.132	3.29
440.338	3.3
440.544	3.25
440.751	3.33
440.957	3.3
441.163	3.35
441.369	3.34
441.575	3.36
441.782	3.39
441.988	3.45
442.194	3.47
442.4	3.48
442.606	3.51
442.812	3.53
443.018	3.52
443.224	3.58
443.431	3.6
443.637	3.56
443.843	3.64
444.049	3.57
444.255	3.57
444.461	3.58
444.667	3.51
444.873	3.5
445.079	3.59
445.284	3.55
445.49	3.57
445.696	3.61
445.902	3.66
446.108	3.7
446.314	3.75
446.52	3.72
446.726	3.72
446.931	3.78
447.137	3.73
447.343	3.73
447.549	3.72
447.755	3.72
447.96	3.72
448.166	3.77
448.372	3.76
448.578	3.78
448.783	3.82
448.989	3.9
449.195	3.92
449.4	3.89
449.606	3.89
449.812	3.9
450.017	3.92
450.223	3.88
450.428	3.83
450.634	3.87
450.84	3.88
451.045	3.88
451.251	3.91
451.456	3.91
451.662	3.89
451.867	3.92
452.073	3.83
452.278	3.87
452.483	3.9
452.689	3.9
452.894	3.92
453.1	3.95
453.305	3.96
453.51	4.01
453.716	4.02
453.921	4.03
454.127	4
454.332	4.03
454.537	4.06
454.742	4.04
454.948	4.08
455.153	4.11
455.358	4.18
455.563	4.25
455.769	4.2
455.974	4.19
456.179	4.17
456.384	4.17
456.589	4.16
456.795	4.06
457	4.01
457.205	3.99
457.41	4.03
457.615	4.11
457.82	4.17
458.025	4.17
458.23	4.22
458.435	4.21
458.64	4.3
458.845	4.26
459.05	4.26
459.255	4.2
459.46	4.22
459.665	4.26
459.87	4.31
460.075	4.3
460.28	4.32
460.485	4.34
460.69	4.32
460.895	4.42
461.099	4.41
461.304	4.4
461.509	4.37
461.714	4.42
461.919	4.41
462.123	4.51
462.328	4.44
462.533	4.52
462.738	4.53
462.942	4.55
463.147	4.5
463.352	4.58
463.556	4.55
463.761	4.55
463.966	4.53
464.17	4.6
464.375	4.65
464.58	4.71
464.784	4.66
464.989	4.64
465.193	4.67
465.398	4.69
465.602	4.69
465.807	4.68
466.011	4.73
466.216	4.72
466.42	4.81
466.625	4.82
466.829	4.84
467.034	4.82
467.238	4.92
467.443	4.92
467.647	5
467.851	4.96
468.056	4.97
468.26	4.95
468.464	4.97
468.669	4.97
468.873	4.95
469.077	4.97
469.282	5.03
469.486	5.05
469.69	5.09
469.894	5.17
470.099	5.15
470.303	5.19
470.507	5.2
470.711	5.15
470.915	5.19
471.119	5.24
471.324	5.19
471.528	5.25
471.732	5.31
471.936	5.36
472.14	5.4
472.344	5.4
472.548	5.41
472.752	5.46
472.956	5.49
473.16	5.49
473.364	5.48
473.568	5.53
473.772	5.62
473.976	5.59
474.18	5.57
474.384	5.55
474.588	5.59
474.792	5.63
474.995	5.63
475.199	5.63
475.403	5.71
475.607	5.76
475.811	5.78
476.015	5.82
476.218	5.83
476.422	5.87
476.626	5.83
476.83	5.81
477.033	5.85
477.237	5.87
477.441	5.86
477.644	5.89
477.848	5.91
478.052	5.97
478.255	6
478.459	6.03
478.663	6.06
478.866	6.06
479.07	6.08
479.273	6.11
479.477	6.12
479.681	6.12
479.884	6.09
480.088	6.11
480.291	6.12
480.495	6.12
480.698	6.12
480.901	6.13
481.105	6.16
481.308	6.15
481.512	6.15
481.715	6.17
481.919	6.23
482.122	6.21
482.325	6.26
482.529	6.35
482.732	6.36
482.935	6.37
483.138	6.38
483.342	6.38
483.545	6.37
483.748	6.37
483.952	6.36
484.155	6.41
484.358	6.41
484.561	6.46
484.764	6.49
484.967	6.55
485.171	6.54
485.374	6.54
485.577	6.57
485.78	6.58
485.983	6.58
486.186	6.56
486.389	6.54
486.592	6.54
486.795	6.53
486.998	6.49
487.201	6.51
487.404	6.55
487.607	6.57
487.81	6.58
488.013	6.6
488.216	6.61
488.419	6.65
488.622	6.64
488.825	6.6
489.028	6.56
489.231	6.56
489.433	6.56
489.636	6.56
489.839	6.53
490.042	6.54
490.245	6.55
490.447	6.58
490.65	6.62
490.853	6.62
491.056	6.6
491.258	6.6
491.461	6.59
491.664	6.58
491.866	6.6
492.069	6.56
492.272	6.56
492.474	6.61
492.677	6.61
492.879	6.68
493.082	6.72
493.285	6.69
493.487	6.69
493.69	6.71
493.892	6.71
494.095	6.71
494.297	6.67
494.5	6.69
494.702	6.72
494.905	6.74
495.107	6.73
495.309	6.7
495.512	6.76
495.714	6.82
495.917	6.8
496.119	6.81
496.321	6.87
496.524	6.92
496.726	6.96
496.928	6.97
497.13	7.02
497.333	7.04
497.535	7.08
497.737	7.05
497.939	7.07
498.142	7.07
498.344	7.08
498.546	7.09
498.748	7.08
498.95	7.06
499.152	7.04
499.355	7.02
499.557	7.08
499.759	7.1
499.961	7.12
500.163	7.17
500.365	7.18
500.567	7.23
500.769	7.27
500.971	7.26
501.173	7.27
501.375	7.26
501.577	7.28
501.779	7.34
501.981	7.35
502.183	7.34
502.385	7.37
502.587	7.36
502.788	7.32
502.99	7.32
503.192	7.31
503.394	7.36
503.596	7.39
503.798	7.44
503.999	7.47
504.201	7.52
504.403	7.56
504.605	7.59
504.806	7.62
505.008	7.61
505.21	7.6
505.411	7.63
505.613	7.66
505.815	7.7
506.016	7.73
506.218	7.68
506.42	7.76
506.621	7.79
506.823	7.8
507.024	7.82
507.226	7.84
507.427	7.86
507.629	7.91
507.83	7.88
508.032	7.94
508.233	7.97
508.435	7.99
508.636	7.97
508.838	8
509.039	8.03
509.24	8.05
509.442	7.98
509.643	7.98
509.845	7.99
510.046	8.02
510.247	8.05
510.448	8.06
510.65	8.09
510.851	8.13
511.052	8.18
511.254	8.21
511.455	8.21
511.656	8.2
511.857	8.2
512.058	8.25
512.26	8.26
512.461	8.26
512.662	8.28
512.863	8.28
513.064	8.29
513.265	8.32
513.466	8.34
513.667	8.38
513.868	8.4
514.069	8.38
514.27	8.41
514.471	8.44
514.672	8.47
514.873	8.48
515.074	8.52
515.275	8.52
515.476	8.56
515.677	8.59
515.878	8.64
516.079	8.67
516.28	8.66
516.481	8.64
516.682	8.68
516.882	8.7
517.083	8.72
517.284	8.69
517.485	8.71
517.686	8.71
517.886	8.73
518.087	8.72
518.288	8.72
518.488	8.74
518.689	8.76
518.89	8.78
519.091	8.79
519.291	8.82
519.492	8.83
519.692	8.88
519.893	8.9
520.094	8.94
520.294	8.9
520.495	8.96
520.695	8.96
520.896	9
521.096	9.01
521.297	9.04
521.497	9.05
521.698	9.09
521.898	9.09
522.099	9.12
522.299	9.08
522.499	9.09
522.7	9.09
522.9	9.08
523.101	9.12
523.301	9.13
523.501	9.16
523.702	9.22
523.902	9.22
524.102	9.24
524.302	9.27
524.503	9.25
524.703	9.29
524.903	9.32
525.103	9.33
525.304	9.35
525.504	9.36
525.704	9.33
525.904	9.38
526.104	9.36
526.304	9.37
526.504	9.37
526.705	9.42
526.905	9.46
527.105	9.5
527.305	9.48
527.505	9.49
527.705	9.49
527.905	9.51
528.105	9.48
528.305	9.48
528.505	9.49
528.705	9.54
528.905	9.59
529.105	9.62
529.304	9.66
529.504	9.71
529.704	9.75
529.904	9.77
530.104	9.75
530.304	9.8
530.503	9.82
530.703	9.85
530.903	9.87
531.103	9.88
531.303	9.92
531.502	9.95
531.702	9.91
531.902	9.92
532.101	9.94
532.301	9.97
532.501	10.01
532.7	10.02
532.9	10.07
533.1	10.08
533.299	10.13
533.499	10.14
533.698	10.14
533.898	10.15
534.097	10.17
534.297	10.18
534.496	10.19
534.696	10.21
534.895	10.23
535.095	10.27
535.294	10.3
535.494	10.35
535.693	10.38
535.892	10.45
536.092	10.48
536.291	10.5
536.491	10.5
536.69	10.53
536.889	10.52
537.088	10.53
537.288	10.56
537.487	10.58
537.686	10.65
537.886	10.7
538.085	10.72
538.284	10.73
538.483	10.79
538.682	10.78
538.882	10.82
539.081	10.8
539.28	10.82
539.479	10.84
539.678	10.91
539.877	10.92
540.076	10.98
540.275	10.99
540.474	11.02
540.673	11.07
540.872	11.1
541.071	11.12
541.27	11.15
541.469	11.19
541.668	11.25
541.867	11.32
542.066	11.35
542.265	11.43
542.464	11.47
542.663	11.57
542.862	11.58
543.06	11.63
543.259	11.66
543.458	11.7
543.657	11.73
543.856	11.79
544.054	11.8
544.253	11.85
544.452	11.88
544.651	11.9
544.849	11.95
545.048	12.01
545.247	12.05
545.445	12.08
545.644	12.13
545.843	12.2
546.041	12.29
546.24	12.36
546.438	12.43
546.637	12.52
546.836	12.59
547.034	12.66
547.233	12.67
547.431	12.7
547.63	12.77
547.828	12.77
548.027	12.79
548.225	12.86
548.423	12.94
548.622	13.04
548.82	13.11
549.019	13.13
549.217	13.25
549.415	13.33
549.614	13.34
549.812	13.36
550.01	13.43
550.209	13.47
550.407	13.58
550.605	13.65
550.803	13.69
551.002	13.81
551.2	13.92
551.398	13.99
551.596	14.08
551.794	14.12
551.993	14.17
552.191	14.29
552.389	14.38
552.587	14.42
552.785	14.5
552.983	14.59
553.181	14.67
553.379	14.77
553.577	14.84
553.775	14.92
553.973	15.06
554.171	15.17
554.369	15.28
554.567	15.38
554.765	15.44
554.963	15.52
555.161	15.59
555.359	15.63
555.557	15.74
555.755	15.84
555.952	15.93
556.15	16.01
556.348	16.1
556.546	16.24
556.744	16.35
556.941	16.39
557.139	16.48
557.337	16.57
557.535	16.71
557.732	16.83
557.93	16.91
558.128	16.99
558.325	17.14
558.523	17.19
558.721	17.32
558.918	17.45
559.116	17.5
559.313	17.57
559.511	17.68
559.708	17.74
559.906	17.89
560.104	17.97
560.301	18.04
560.498	18.19
560.696	18.25
560.893	18.37
561.091	18.5
561.288	18.6
561.486	18.73
561.683	18.81
561.88	18.93
562.078	19.09
562.275	19.18
562.473	19.25
562.67	19.36
562.867	19.47
563.064	19.63
563.262	19.79
563.459	19.89
563.656	20.04
563.853	20.18
564.051	20.3
564.248	20.41
564.445	20.5
564.642	20.57
564.839	20.7
565.036	20.81
565.234	20.91
565.431	21.02
565.628	21.13
565.825	21.24
566.022	21.35
566.219	21.44
566.416	21.53
566.613	21.66
566.81	21.75
567.007	21.88
567.204	22
567.401	22.11
567.598	22.23
567.795	22.31
567.991	22.4
568.188	22.47
568.385	22.59
568.582	22.7
568.779	22.78
568.976	22.86
569.172	22.99
569.369	23.09
569.566	23.14
569.763	23.19
569.96	23.24
570.156	23.3
570.353	23.37
570.55	23.36
570.746	23.44
570.943	23.55
571.14	23.59
571.336	23.66
571.533	23.75
571.729	23.8
571.926	23.92
572.123	23.93
572.319	23.98
572.516	24.03
572.712	24.08
572.909	24.15
573.105	24.23
573.302	24.28
573.498	24.32
573.695	24.37
573.891	24.42
574.087	24.46
574.284	24.45
574.48	24.42
574.677	24.49
574.873	24.61
575.069	24.7
575.266	24.73
575.462	24.75
575.658	24.84
575.854	24.92
576.051	24.89
576.247	24.84
576.443	24.87
576.639	24.9
576.835	24.92
577.032	24.95
577.228	24.97
577.424	25.05
577.62	25.1
577.816	25.14
578.012	25.17
578.208	25.2
578.404	25.22
578.6	25.26
578.796	25.22
578.993	25.2
579.189	25.18
579.384	25.18
579.58	25.18
579.776	25.18
579.972	25.21
580.168	25.21
580.364	25.29
580.56	25.28
580.756	25.26
580.952	25.29
581.148	25.26
581.343	25.26
581.539	25.34
581.735	25.29
581.931	25.33
582.127	25.37
582.322	25.38
582.518	25.37
582.714	25.34
582.909	25.29
583.105	25.31
583.301	25.25
583.496	25.2
583.692	25.15
583.888	25.16
584.083	25.21
584.279	25.27
584.474	25.27
584.67	25.36
584.866	25.41
585.061	25.45
585.257	25.46
585.452	25.42
585.648	25.37
585.843	25.41
586.039	25.37
586.234	25.41
586.429	25.41
586.625	25.42
586.82	25.45
587.015	25.44
587.211	25.48
587.406	25.57
587.601	25.56
587.797	25.55
587.992	25.58
588.187	25.57
588.383	25.61
588.578	25.54
588.773	25.52
588.968	25.58
589.163	25.67
589.359	25.68
589.554	25.72
589.749	25.77
589.944	25.83
590.139	25.85
590.334	25.83
590.529	25.84
590.724	25.89
590.919	26
591.114	26.01
591.309	26.08
591.504	26.13
591.699	26.23
591.894	26.31
592.089	26.43
592.284	26.39
592.479	26.49
592.674	26.52
592.869	26.59
593.064	26.65
593.259	26.65
593.454	26.62
593.648	26.71
593.843	26.76
594.038	26.84
594.233	26.92
594.428	27.01
594.622	27.04
594.817	27.16
595.012	27.2
595.206	27.33
595.401	27.43
595.596	27.51
595.79	27.58
595.985	27.76
596.18	27.89
596.374	28.02
596.569	28.05
596.763	28.15
596.958	28.21
597.153	28.31
597.347	28.36
597.542	28.4
597.736	28.49
597.931	28.65
598.125	28.73
598.319	28.78
598.514	28.85
598.708	28.93
598.903	28.99
599.097	29.05
599.291	29.09
599.486	29.11
599.68	29.21
599.874	29.29
600.069	29.31
600.263	29.31
600.457	29.39
600.651	29.44
600.846	29.49
601.04	29.57
601.234	29.57
601.428	29.61
601.622	29.69
601.817	29.71
602.011	29.74
602.205	29.78
602.399	29.79
602.593	29.83
602.787	29.91
602.981	29.99
603.175	29.98
603.369	29.95
603.563	29.97
603.757	29.9
603.951	29.86
604.145	29.83
604.339	29.8
604.533	29.85
604.727	29.89
604.921	29.87
605.115	29.95
605.309	30.05
605.502	30.04
605.696	29.95
605.89	29.98
606.084	29.97
606.278	29.88
606.471	29.78
606.665	29.71
606.859	29.65
607.053	29.63
607.246	29.47
607.44	29.4
607.634	29.37
607.827	29.34
608.021	29.2
608.214	29.16
608.408	29.1
608.602	29.12
608.795	29
608.989	28.97
609.182	28.91
609.376	28.84
609.569	28.78
609.763	28.81
609.956	28.67
610.15	28.66
610.343	28.61
610.537	28.55
610.73	28.54
610.923	28.48
611.117	28.36
611.31	28.32
611.504	28.27
611.697	28.21
611.89	28.14
612.083	28.06
612.277	27.95
612.47	27.9
612.663	27.86
612.856	27.67
613.05	27.56
613.243	27.5
613.436	27.43
613.629	27.35
613.822	27.24
614.015	27.15
614.209	27.13
614.402	27.05
614.595	26.91
614.788	26.76
614.981	26.71
615.174	26.67
615.367	26.61
615.56	26.52
615.753	26.43
615.946	26.43
616.139	26.46
616.332	26.37
616.525	26.26
616.718	26.12
616.911	26.1
617.103	26.05
617.296	26.01
617.489	25.94
617.682	25.95
617.875	25.89
618.067	25.88
618.26	25.81
618.453	25.8
618.646	25.74
618.838	25.67
619.031	25.56
619.224	25.6
619.417	25.6
619.609	25.62
619.802	25.56
619.994	25.54
620.187	25.54
620.38	25.5
620.572	25.43
620.765	25.36
620.957	25.28
621.15	25.26
621.342	25.25
621.535	25.17
621.727	25.18
621.92	25.1
622.112	25.12
622.305	25.09
622.497	25.03
622.69	24.93
622.882	24.93
623.074	24.92
623.267	24.94
623.459	24.9
623.651	24.91
623.844	24.96
624.036	24.96
624.228	24.91
624.42	24.88
624.613	24.87
624.805	24.86
624.997	24.77
625.189	24.69
625.381	24.65
625.574	24.62
625.766	24.56
625.958	24.53
626.15	24.51
626.342	24.55
626.534	24.53
626.726	24.55
626.918	24.49
627.11	24.45
627.302	24.39
627.494	24.36
627.686	24.29
627.878	24.25
628.07	24.19
628.262	24.17
628.454	24.14
628.646	24.14
628.838	24.07
629.029	23.99
629.221	23.95
629.413	23.88
629.605	23.81
629.797	23.77
629.989	23.71
630.18	23.62
630.372	23.61
630.564	23.6
630.755	23.59
630.947	23.6
631.139	23.54
631.33	23.54
631.522	23.5
631.714	23.48
631.905	23.39
632.097	23.35
632.289	23.28
632.48	23.23
632.672	23.12
632.863	23.14
633.055	23.1
633.246	23.13
633.438	23.12
633.629	23.09
633.821	23.15
634.012	23.16
634.203	23.2
634.395	23.2
634.586	23.13
634.777	23.07
634.969	23.08
635.16	23
635.351	22.99
635.543	22.92
635.734	22.9
635.925	22.95
636.117	22.98
636.308	22.99
636.499	23.02
636.69	23.07
636.881	23.1
637.073	23.07
637.264	23.02
637.455	23.03
637.646	23.03
637.837	22.97
638.028	22.97
638.219	22.9
638.41	22.9
638.601	22.92
638.792	22.85
638.983	22.75
639.174	22.77
639.365	22.73
639.556	22.72
639.747	22.76
639.938	22.74
640.129	22.7
640.32	22.74
640.511	22.73
640.701	22.65
640.892	22.64
641.083	22.54
641.274	22.46
641.465	22.44
641.655	22.35
641.846	22.34
642.037	22.31
642.228	22.24
642.418	22.17
642.609	22.2
642.8	22.21
642.99	22.27
643.181	22.24
643.372	22.22
643.562	22.25
643.753	22.33
643.943	22.28
644.134	22.22
644.324	22.22
644.515	22.19
644.705	22.18
644.896	22.11
645.086	21.98
645.277	22.04
645.467	21.99
645.658	21.92
645.848	21.86
646.038	21.82
646.229	21.79
646.419	21.78
646.61	21.68
646.8	21.71
646.99	21.69
647.18	21.65
647.371	21.62
647.561	21.61
647.751	21.56
647.941	21.48
648.132	21.49
648.322	21.47
648.512	21.51
648.702	21.47
648.892	21.52
649.082	21.55
649.272	21.58
649.462	21.54
649.653	21.56
649.843	21.43
650.033	21.45
650.223	21.38
650.413	21.31
650.603	21.32
650.793	21.22
650.983	21.16
651.172	21.2
651.362	21.13
651.552	21.02
651.742	20.95
651.932	20.88
652.122	20.85
652.312	20.69
652.502	20.61
652.691	20.57
652.881	20.57
653.071	20.54
653.261	20.41
653.45	20.33
653.64	20.33
653.83	20.21
654.019	20.05
654.209	19.87
654.399	19.72
654.588	19.56
654.778	19.41
654.968	19.19
655.157	19
655.347	18.88
655.536	18.73
655.726	18.61
655.915	18.47
656.105	18.33
656.294	18.18
656.484	18.11
656.673	17.99
656.863	17.87
657.052	17.67
657.241	17.52
657.431	17.35
657.62	17.17
657.809	16.94
657.999	16.75
658.188	16.52
658.377	16.38
658.567	16.18
658.756	15.99
658.945	15.8
659.134	15.62
659.324	15.42
659.513	15.24
659.702	15.03
659.891	14.83
660.08	14.65
660.269	14.45
660.458	14.24
660.648	14.05
660.837	13.88
661.026	13.72
661.215	13.59
661.404	13.39
661.593	13.24
661.782	13.06
661.971	12.89
662.16	12.67
662.349	12.45
662.538	12.25
662.726	12.06
662.915	11.9
663.104	11.71
663.293	11.52
663.482	11.39
663.671	11.26
663.86	11.11
664.048	11.04
664.237	10.9
664.426	10.85
664.615	10.74
664.803	10.65
664.992	10.55
665.181	10.47
665.369	10.28
665.558	10.16
665.747	10.05
665.935	9.95
666.124	9.91
666.312	9.78
666.501	9.69
666.69	9.66
666.878	9.58
667.067	9.54
667.255	9.47
667.444	9.4
667.632	9.33
667.82	9.26
668.009	9.26
668.197	9.21
668.386	9.1
668.574	9.08
668.762	9
668.951	8.98
669.139	8.97
669.327	8.87
669.516	8.88
669.704	8.89
669.892	8.84
670.08	8.81
670.269	8.77
670.457	8.76
670.645	8.8
670.833	8.75
671.021	8.72
671.21	8.79
671.398	8.78
671.586	8.86
671.774	8.85
671.962	8.9
672.15	8.92
672.338	9
672.526	8.98
672.714	9.06
672.902	9.04
673.09	9.08
673.278	9.09
673.466	9.18
673.654	9.22
673.842	9.28
674.03	9.41
674.218	9.45
674.405	9.59
674.593	9.61
674.781	9.64
674.969	9.64
675.157	9.69
675.344	9.69
675.532	9.78
675.72	9.82
675.908	9.92
676.095	10.06
676.283	10.14
676.471	10.21
676.658	10.31
676.846	10.42
677.033	10.51
677.221	10.61
677.409	10.72
677.596	10.92
677.784	11.09
677.971	11.12
678.159	11.23
678.346	11.32
678.534	11.4
678.721	11.45
678.909	11.5
679.096	11.48
679.283	11.64
679.471	11.78
679.658	11.9
679.846	12.02
680.033	12.17
680.22	12.27
680.408	12.42
680.595	12.57
680.782	12.61
680.969	12.72
681.157	12.85
681.344	13.04
681.531	13.22
681.718	13.47
681.905	13.67
682.093	13.95
682.28	14.13
682.467	14.28
682.654	14.38
682.841	14.61
683.028	14.87
683.215	15.03
683.402	15.2
683.589	15.46
683.776	15.77
683.963	16.1
684.15	16.4
684.337	16.61
684.524	16.89
684.711	17.07
684.898	17.26
685.085	17.57
685.271	17.8
685.458	18.11
685.645	18.4
685.832	18.75
686.019	19.13
686.205	19.5
686.392	19.91
686.579	20.34
686.766	20.68
686.952	21.21
687.139	21.64
687.326	22.17
687.512	22.59
687.699	22.94
687.886	23.42
688.072	23.91
688.259	24.29
688.445	24.79
688.632	25.39
688.818	26.07
689.005	26.64
689.191	27.28
689.378	27.9
689.564	28.54
689.751	29.21
689.937	29.75
690.124	30.32
690.31	31.02
690.496	31.55
690.683	32.17
690.869	32.73
691.055	33.31
691.242	33.82
691.428	34.51
691.614	35.18
691.8	35.83
691.987	36.51
692.173	37.38
692.359	38.12
692.545	39.01
692.731	39.68
692.918	40.25
693.104	40.98
693.29	41.68
693.476	42.25
693.662	42.99
693.848	43.58
694.034	44.28
694.22	45.01
694.406	45.7
694.592	46.35
694.778	47.07
694.964	47.65
695.15	48.39
695.336	49.17
695.522	49.94
695.708	50.66
695.894	51.41
696.08	52.09
696.265	52.82
696.451	53.36
696.637	53.98
696.823	54.49
697.009	55.17
697.194	55.8
697.38	56.29
697.566	56.64
697.751	57.28
697.937	57.84
698.123	58.49
698.308	58.85
698.494	59.3
698.68	59.91
698.865	60.74
699.051	61.31
699.236	61.86
699.422	62.34
699.607	62.87
699.793	63.41
699.978	63.84
700.164	64.21
700.349	64.75
700.535	65.02
700.72	65.58
700.906	66.01
701.091	66.47
701.276	66.91
701.462	67.25
701.647	67.46
701.832	68.08
702.018	68.39
702.203	68.81
702.388	69.12
702.573	69.58
702.759	69.96
702.944	70.42
703.129	70.61
703.314	71.04
703.499	71.34
703.684	71.75
703.87	72.05
704.055	72.41
704.24	72.71
704.425	73.13
704.61	73.29
704.795	73.58
704.98	73.8
705.165	73.92
705.35	74.13
705.535	74.26
705.72	74.35
705.905	74.45
706.09	74.87
706.275	75.06
706.459	75.75
706.644	76.22
706.829	76.72
707.014	76.88
707.199	77.11
707.384	77.33
707.568	77.76
707.753	77.82
707.938	77.76
708.123	77.63
708.307	78.18
708.492	78.49
708.677	78.67
708.861	78.87
709.046	78.77
709.231	79.09
709.415	79.34
709.6	79.32
709.784	79.46
709.969	79.73
710.153	79.91
710.338	80.3
710.522	80.58
710.707	80.55
710.891	80.89
711.076	80.82
711.26	80.83
711.445	80.72
711.629	80.8
711.813	80.62
711.998	80.9
712.182	80.78
712.366	81.23
712.551	81.49
712.735	81.7
712.919	82.01
713.103	82.24
713.288	82.56
713.472	82.63
713.656	82.72
713.84	82.66
714.024	82.98
714.208	83.03
714.393	83.24
714.577	83.38
714.761	83.69
714.945	83.79
715.129	83.95
715.313	83.84
715.497	84.04
715.681	84.28
715.865	84.25
716.049	84.36
716.233	84.62
716.417	84.76
716.601	85.08
716.785	85.1
716.968	84.82
717.152	84.96
717.336	84.96
717.52	84.95
717.704	85.12
717.888	85.05
718.071	84.96
718.255	85.24
718.439	85.12
718.622	85.46
718.806	85.39
718.99	85.55
719.174	85.46
719.357	85.75
719.541	86.14
719.724	86.46
719.908	86.32
720.092	86.56
720.275	86.23
720.459	86.53
720.642	86.34
720.826	86.12
721.009	86.09
721.193	86.11
721.376	85.87
721.559	85.98
721.743	86.11
721.926	85.99
722.11	86.28
722.293	86.08
722.476	86.14
722.66	86.54
722.843	86.94
723.026	87.05
723.21	87.28
723.393	87.16
723.576	87.48
723.759	87.71
723.942	87.91
724.126	87.88
724.309	87.82
724.492	88.02
724.675	88.07
724.858	88.26
725.041	88.26
725.224	88.19
725.407	88.19
725.59	88.01
725.774	88.23
725.957	88.48
726.14	88.56
726.322	88.5
726.505	88.71
726.688	88.89
726.871	89.15
727.054	89.17
727.237	88.98
727.42	89.21
727.603	89.43
727.786	89.29
727.968	89.4
728.151	89.57
728.334	89.5
728.517	89.8
728.699	90.15
728.882	90.47
729.065	90.58
729.248	90.57
729.43	90.47
729.613	90.48
729.796	90.77
729.978	90.59
730.161	90.9
730.343	91.35
730.526	91.43
730.708	92.04
730.891	92.48
731.073	92.27
731.256	92.28
731.438	92.12
731.621	92.43
731.803	92.42
731.986	92.39
732.168	92.24
732.35	92.21
732.533	92.29
732.715	92.42
732.898	92.05
733.08	92.59
733.262	92.54
733.444	92.96
733.627	93.06
733.809	93.13
733.991	93.27
734.173	93.35
734.355	93.57
734.538	93.44
734.72	93.49
734.902	93.69
735.084	94.11
735.266	93.95
735.448	93.98
735.63	93.67
735.812	93.75
735.994	93.4
736.176	93.75
736.358	93.61
736.54	93.76
736.722	93.79
736.904	93.77
737.086	93.81
737.268	94.01
737.45	93.96
737.632	93.63
737.814	93.57
737.995	93.94
738.177	94.15
738.359	94.38
738.541	94.16
738.723	93.74
738.904	93.82
739.086	94.22
739.268	94.57
739.449	94.85
739.631	95.45
739.813	95.74
739.994	96.22
740.176	96.67
740.358	96.79
740.539	96.29
740.721	95.92
740.902	95.03
741.084	95.05
741.265	94.99
741.447	94.29
741.628	93.89
741.81	94.09
741.991	94.21
742.172	94.36
742.354	94.83
742.535	95.05
742.717	95.88
742.898	96.38
743.079	96.13
743.261	96.43
743.442	96.64
743.623	96.31
743.804	96.47
743.986	95.98
744.167	95.57
744.348	95.99
744.529	95.26
744.71	94.71
744.891	94.63
745.073	94.71
745.254	94.86
745.435	94.67
745.616	93.65
745.797	93.71
745.978	94.73
746.159	95.12
746.34	95.43
746.521	95.74
746.702	95.57
746.883	96.62
747.064	96.58
747.245	96.62
747.426	96.89
747.606	95.67
747.787	95.72
747.968	96.33
748.149	96.05
748.33	96.84
748.51	96.37
748.691	95.78
748.872	95.97
749.053	95.84
749.233	95.08
749.414	95.39
749.595	94.64
749.775	94.84
749.956	94.5
750.137	94.58
750.317	94.57
750.498	95.19
750.678	94.85
750.859	94.79
751.04	94.9
751.22	94.89
751.4	95.05
751.581	94.86
751.761	95.06
751.942	95.14
752.122	95.31
752.303	94.79
752.483	95.66
752.663	96.04
752.844	95.59
753.024	95.22
753.204	94.65
753.385	94.76
753.565	94.75
753.745	94.28
753.925	93.7
754.106	94.42
754.286	94.77
754.466	95
754.646	94.44
754.826	94.48
755.006	93.9
755.187	94.32
755.367	93.8
755.547	94.15
755.727	94.59
755.907	95.16
756.087	95.65
756.267	96.32
756.447	95.84
756.627	95.99
756.807	96.34
756.987	96.86
757.167	97.77
757.346	96.42
757.526	95.86
757.706	96.27
757.886	96.35
758.066	95.26
758.246	94.24
758.425	93.45
758.605	94.9
758.785	95.2
758.965	94.33
759.144	94.63
759.324	95.42
759.504	95.9
759.683	95.45
759.863	94.61
760.043	94.19
760.222	94.33
760.402	93.87
760.581	92.46
760.761	91.63
760.94	91.42
761.12	91.45
761.299	91.5
761.479	91.98
761.658	92.15
761.838	93.81
762.017	94
762.197	94.29
762.376	94.76
762.555	95.24
762.735	94.32
762.914	94.65
763.093	93.2
763.273	93.52
763.452	92.98
763.631	92.06
763.81	92.24
763.99	93.38
764.169	92.19
764.348	93.2
764.527	92.8
764.706	93.75
764.885	95.05
765.064	94.72
765.243	93.82
765.423	94.77
765.602	94
765.781	93.88
765.96	94.34
766.139	92.47
766.318	92.56
766.497	93.1
766.676	93.6
766.854	94.07
767.033	93.74
767.212	92.93
767.391	93.62
767.57	92.53
767.749	92.37
767.928	90.88
768.106	90.78
768.285	91.71
768.464	92.04
768.643	92.46
768.821	93.68
769	94.51
769.179	94.87
769.357	93.59
769.536	92.81
769.715	91.74
769.893	91.92
770.072	91.88
770.25	90.98
770.429	91.64
770.607	91.77
770.786	91.64
770.964	91.58
771.143	92.4
771.321	91.34
771.5	90.48
771.678	90.74
771.857	91.19
772.035	91.61
772.213	92.93
772.392	91.8
772.57	91.87
772.748	91.29
772.927	89.58
773.105	90.7
773.283	90.44
773.461	89.49
773.64	89.22
773.818	88.57
773.996	89.5
774.174	90.57
774.352	89.88
774.531	88.86
774.709	89.38
774.887	88.64
775.065	89.31
775.243	91.3
775.421	90.27
775.599	89.27
775.777	90.52
775.955	90.08
776.133	90.34
776.311	90.11
776.489	88.41
776.667	88.95
776.844	89.2
777.022	88.39
777.2	87.81
777.378	88.24
777.556	89.32
777.734	89.99
777.911	90.81
778.089	89.8
778.267	90.63
778.445	91.27
778.622	90.89
778.8	89.55
778.978	88.83
779.155	88.05
779.333	88.07
779.511	87.29
779.688	86.54
779.866	86.11
780.043	87.68
780.221	86.97
780.398	87.87
780.576	87.93
780.753	87.87
780.931	88.17
781.108	87.93
781.286	86.42
781.463	86.52
781.64	83.91
781.818	84.36
781.995	85.92
782.172	85.72
782.35	85.59
782.527	86.27
782.704	86.93
782.882	88.43
783.059	87.56
783.236	85.91
783.413	86.99
783.59	87.04
783.768	85.95
783.945	85.49
784.122	85.25
784.299	86.11
784.476	87.79
784.653	86.56
784.83	85.56
785.007	86.86
785.184	86.52
785.361	88.12
785.538	89.42
785.715	87.6
785.892	86.44
786.069	87.41
786.246	85.16
786.423	86.75
786.6	84.73
786.776	82.62
786.953	82.3
787.13	84.27
787.307	84.43
787.484	85.93
787.66	84.15
787.837	84.75
788.014	84.43
788.191	84.3
788.367	82.55
788.544	83.32
788.721	83.94
788.897	85.83
789.074	85.79
789.25	88.03
789.427	88.86
789.603	89.83
789.78	90.03
789.956	89.22
790.133	85.71
790.309	85.58
790.486	87
790.662	86.45
790.839	87.17
791.015	87.17
791.192	87.3
791.368	90.05
791.544	90
791.721	84.9
791.897	85.92
792.073	85.43
792.249	87.51
792.426	86.92
792.602	85.8
792.778	86.94
792.954	89.96
793.13	89.75
793.307	87.8
793.483	84.04
793.659	85.02
793.835	85.28
794.011	83.73
794.187	80.91
794.363	81.1
794.539	83.02
794.715	81.58
794.891	78.94
795.067	78.65
795.243	78.09
795.419	81.71
795.595	78.86
795.771	79.55
795.947	82.01
796.122	81.72
796.298	81.87
796.474	84.28
796.65	82.49
796.826	85.79
797.001	85.65
797.177	83.01
797.353	88.81
797.529	89.47
797.704	87.45
797.88	84.96
798.056	84.45
798.231	81.38
798.407	82.97
798.582	79.11
798.758	79.73
798.934	80.76
799.109	81.75
799.285	79.89
799.46	83.83
799.636	83.07
799.811	87.49
799.986	86.6
800.162	85.91
800.337	85.66
800.513	88.98
800.688	89.33
800.863	89.92
801.039	83.91
801.214	83.57
801.389	80.23
801.565	85.16
801.74	82.25
801.915	81.09
802.09	81.15
802.265	83.72
802.441	83.22
802.616	88.27
802.791	84.25
802.966	83.2
803.141	77.2
803.316	79.93
803.491	75.66
803.666	76.75
803.841	73.98
804.016	76.28
804.191	77.47
804.366	81.1
804.541	77.31
804.716	74.78
804.891	76.97
805.066	79.2
805.241	76.45
805.416	75.79
805.591	79.5
805.765	80.96
805.94	89.52
806.115	84.57
806.29	80.51
806.464	82.87
806.639	86.71
806.814	81.94
806.989	76.95
807.163	73.44
807.338	75.33
807.512	73.53
807.687	67.97
807.862	64.65
808.036	63.22
808.211	72.16
808.385	72.19
808.56	68.4
808.734	67.98
808.909	70.29
809.083	72.01
809.258	77.35
809.432	72.88
809.606	72.17
809.781	76.16
809.955	82.77
810.13	86.1
810.304	86.08
810.478	83.2
810.652	82.9
810.827	83.69
811.001	81.2
811.175	76.7
811.349	72.69
811.524	68.8
811.698	69.05
811.872	69.64
812.046	67.84
812.22	69.29
812.394	74.28
812.568	77.61
812.742	82.53
812.916	83.05
813.09	82.45
813.264	84
813.438	89.39
813.612	87.19
813.786	88.47
813.96	84.85
814.134	84.76
814.308	80.02
814.482	81.25
814.656	76.45
814.83	79.76
815.003	79.6
815.177	80.74
815.351	82.48
815.525	83.49
815.698	80.56
815.872	80.28
816.046	74.69
816.219	75.81
816.393	70.19
816.567	64.49
816.74	69.2
816.914	73.36
817.088	74.28
817.261	76.34
817.435	73.53
817.608	78.65
817.782	87.01
817.955	84.7
818.129	82.57
818.302	80.36
818.475	81.38
818.649	78.17
818.822	77.24
818.996	69.73
819.169	67.41
819.342	65.27
819.516	63.72
819.689	65.01
819.862	67.53
820.035	69.27
820.209	70.25
820.382	68.07
820.555	71.09
820.728	69.99
820.901	65.84
821.075	62.01
821.248	57.96
821.421	57.24
821.594	62.86
821.767	62.73
821.94	66.7
822.113	67.67
822.286	74.1
822.459	78.87
822.632	78.51
822.805	72.53
822.978	69.51
823.151	67.96
823.324	67.84
823.496	61.67
823.669	63.36
823.842	69.09
824.015	73.62
824.188	81.19
824.361	80.75
824.533	84.34
824.706	96.91
824.879	85.7
825.051	83.73
825.224	85.77
825.397	78.55
825.569	80.96
825.742	77.02
825.915	68.85
826.087	67.95
826.26	67.38
826.432	71.51
826.605	67.58
826.777	69.38
826.95	61.56
827.122	66.26
827.295	71.75
827.467	69.34
827.64	57.86
827.812	62.83
827.984	61.76
828.157	71.84
828.329	72.22
828.501	69.66
828.674	66.08
828.846	63.99
829.018	64.09
829.19	60.14
829.363	51.74
829.535	50.96
829.707	51.51
829.879	58.47
830.051	65.63
830.223	59.97
830.395	58.72
830.568	66.29
830.74	63.51
830.912	67.81
831.084	61.21
831.256	57.08
831.428	62.84
831.6	61.22
831.772	57.33
831.943	62.71
832.115	60.48
832.287	63.38
832.459	66.13
832.631	66.22
832.803	76.79
832.975	80.45
833.146	69.35
833.318	63.97
833.49	72.09
833.662	69.42
833.833	69.29
834.005	70
834.177	73.42
834.348	80.26
834.52	89.76
834.692	86.97
834.863	88.59
835.035	86.19
835.206	77.58
835.378	72.3
835.549	69.43
835.721	60.27
835.892	52.23
836.064	60.45
836.235	62.71
836.407	66.07
836.578	64.79
836.749	65.89
836.921	69.6
837.092	81.31
837.264	80.08
837.435	65.03
837.606	57.66
837.777	59.16
837.949	55.55
838.12	49.24
838.291	51.85
838.462	49.89
838.633	52.75
838.805	62.6
838.976	64.54
839.147	65.47
839.318	68.85
839.489	60.41
839.66	57.73
839.831	57.12
840.002	54.89
840.173	58.4
840.344	63.58
840.515	60.28
840.686	64.07
840.857	68.94
841.028	73.59
841.199	74.08
841.369	58.52
841.54	53.92
841.711	64.92
841.882	61.09
842.053	60.81
842.223	43.99
842.394	41.31
842.565	69.74
842.736	74
842.906	69.14
843.077	62.41
843.248	64.59
843.418	71.39
843.589	63.67
843.759	44.53
843.93	41.59
844.101	38.23
844.271	40.16
844.442	44.43
844.612	49.62
844.783	43.6
844.953	39.9
845.123	51.73
845.294	57.41
845.464	60.84
845.635	50.12
845.805	56.71
845.975	57.58
846.146	66.32
846.316	58.87
846.486	62.23
846.656	70.9
846.827	69.33
846.997	77.56
847.167	86.26
847.337	81.99
847.507	83.78
847.677	92.11
847.848	84.94
848.018	86.99
848.188	66.07
848.358	65.89
848.528	67.48
848.698	49.39
848.868	23.36
849.038	37.33
849.208	38.42
849.378	39.74
849.548	38.33
849.718	34.48
849.887	44.11
850.057	58.22
850.227	48.27
850.397	43.74
850.567	56.52
850.737	49.67
850.906	52.42
851.076	52.61
851.246	60.57
851.415	63.05
851.585	62.95
851.755	63.47
851.924	73.75
852.094	82.47
852.264	81.76
852.433	75.26
852.603	79.97
852.772	76.93
852.942	63.58
853.111	58.55
853.281	51.24
853.45	52.31
853.62	48.54
853.789	42.93
853.959	36.27
854.128	20.74
854.297	37.49
854.467	46.78
854.636	36.4
854.805	46.5
854.975	47.53
855.144	72.54
855.313	86.52
855.482	60.42
855.652	58.93
855.821	65.49
855.99	63.39
856.159	65.19
856.328	42.73
856.497	37.8
856.667	62.64
856.836	59.4
857.005	56.84
857.174	59.35
857.343	51.92
857.512	52.68
857.681	56.74
857.85	33.38
858.019	25.35
858.188	12.36
858.356	-6.59
858.525	7.52
858.694	8
858.863	12.69
859.032	16.36
859.201	2.48
859.369	10.72
859.538	3.14
859.707	13.34
859.876	19.18
860.044	17.56
860.213	12.27
860.382	24.85
860.55	31.87
860.719	43.35
860.888	37.64
861.056	35.31
861.225	50.53
861.393	58.11
861.562	44.85
861.73	45.35
861.899	35.46
862.067	29.34
862.236	34.79
862.404	29.66
862.572	18.39
862.741	32.04
862.909	39.04
863.078	38.41
863.246	43.37
863.414	44.8
863.582	49.69
863.751	72.49
863.919	65.61
864.087	63.38
864.255	79.2
864.424	89.83
864.592	77.23
864.76	82.88
864.928	79.61
865.096	69.47
865.264	69.15
865.432	65.02
865.6	48.21
865.768	54.39
865.936	26.77
866.104	12.81
866.272	36.1
866.44	14.8
866.608	37.91
866.776	72.57
866.944	52.68
867.112	44.07
867.28	51.26
867.448	43.87
867.615	68.69
867.783	32.28
867.951	10.39
868.119	46.65
868.286	66.63
868.454	57.1
868.622	79
868.789	70.25
868.957	71.29
869.125	71.41
869.292	71.72
869.46	73.51
869.627	80.65
869.795	59.9
869.963	53.55
870.13	71.02
870.298	66.51
870.465	64.33
870.632	64.1
870.8	48.87
870.967	51.15
871.135	40.93
871.302	43.78
871.469	33.38
871.637	29.17
871.804	37.23
871.971	37.8
872.139	38.76
872.306	55.95
872.473	49.19
872.64	45.88
872.807	46.49
872.975	67.25
873.142	65.2
873.309	55.92
873.476	37.52
873.643	92.47
873.81	131.77
873.977	74.32
874.144	0.43
874.311	-14.95
874.478	-3.24
874.645	-6.72
874.812	10.63
874.979	8.08
875.146	-3.89
875.313	50.49
875.48	108.41
875.647	102.14
875.813	56.87
875.98	3.13
876.147	34.62
876.314	62.18
876.481	30.18
876.647	31.39
876.814	31.84
876.981	39.8
877.147	35.39
877.314	30.22
877.481	33.25
877.647	48.36
877.814	39.95
877.98	82.91
878.147	82.54
878.314	92.73
878.48	71.54
878.647	74.8
878.813	64.06
878.979	71.88
879.146	42.6
879.312	35.64
879.479	38.7
879.645	45.57
879.811	33.78
879.978	24.12
880.144	36.55
880.31	27.88
880.477	16.71
880.643	35.36
880.809	35.36
880.975	46.67
881.142	57.87
881.308	41.44
881.474	83.52
881.64	60.56
881.806	45.83
881.972	75.97
882.138	54.6
882.304	33.77
882.47	57.27
882.636	-1.59
882.802	9.14
882.968	-19.72
883.134	-139.95
883.3	-40.4
883.466	0.59
883.632	-42.74
883.798	-15.17
883.964	17.02
884.129	23.88
884.295	39.91
884.461	46.72
884.627	39.95
884.793	75.04
884.958	61.46
885.124	34.87
885.29	39.89
885.455	12.56
885.621	29.19
885.787	34.48
885.952	29.34
886.118	52.45
886.283	51.64
886.449	54.62
886.614	107.1
886.78	72.81
886.945	68.79
887.111	73.79
887.276	30.87
887.442	23.09
887.607	4.28
887.773	-13.7
887.938	-39.19
888.103	2.81
888.269	6.88
888.434	28.55
888.599	46.94
888.764	50.7
888.93	53.9
889.095	67.03
889.26	82.76
889.425	95.81
889.59	60.91
889.756	61.7
889.921	45.76
890.086	54.7
890.251	33.94
890.416	-12.91
890.581	-53.42
890.746	-38.48
890.911	-103.74
891.076	-104.5
891.241	-150.31
891.406	-34.73
891.571	-25.29
891.736	10.26
891.901	38.25
892.065	68.96
892.23	52.76
892.395	52.52
892.56	50.41
892.725	58.77
892.889	51.77
893.054	-3.18
893.219	-58.79
893.384	-117.65
893.548	-354.17
893.713	727.48
893.878	465.22
