Data from Ofra_2a_PS_2GT38_Reflection_1.txt Node
Date: Tue Jul 20 09:42:37 EDT 2021
User: Adam
Spectrometer: FLMT01687
Trigger mode: 0
Integration Time (sec): 9.450000E-1
Scans to average: 3
Electric dark correction enabled: true
Nonlinearity correction enabled: false
Boxcar width: 3
XAxis mode: Wavelengths
Number of Pixels in Spectrum: 3648
>>>>>Begin Spectral Data<<<<<
179.494	1211.83
179.716	739.79
179.937	793.41
180.158	3035.94
180.38	-1711.63
180.601	-288.48
180.823	-98.36
181.044	-21.12
181.265	-181.82
181.486	-22.9
181.708	-1795.65
181.929	-37.21
182.15	-236.36
182.372	45.13
182.593	-83.56
182.814	482.04
183.035	441.74
183.257	195.3
183.478	108.06
183.699	100.15
183.92	77.03
184.141	71.43
184.363	81.5
184.584	51.72
184.805	55.92
185.026	71.43
185.247	48.53
185.468	38.65
185.689	26.31
185.91	10.46
186.132	22.62
186.353	8.56
186.574	8
186.795	-4.13
187.016	12.84
187.237	18.92
187.458	10.95
187.679	0.07
187.9	21.41
188.121	34.51
188.342	62.2
188.563	53.53
188.784	51.44
189.005	64.35
189.226	67.93
189.447	55.64
189.667	51.41
189.888	37.64
190.109	30.48
190.33	20.26
190.551	20.3
190.772	10.51
190.993	14.63
191.214	15.92
191.434	11.23
191.655	28.69
191.876	36.69
192.097	21.98
192.318	29.14
192.538	36.5
192.759	46.35
192.98	44.57
193.201	47.7
193.421	45.03
193.642	58.24
193.863	61.82
194.083	51.64
194.304	12.86
194.525	31.31
194.745	6.65
194.966	9.22
195.187	18.37
195.407	20.87
195.628	21.67
195.848	30.93
196.069	23.33
196.29	24.44
196.51	27.7
196.731	34.07
196.951	30.62
197.172	20.47
197.392	30.11
197.613	27.36
197.833	13.82
198.054	14.91
198.274	-3.95
198.495	8.48
198.715	3.07
198.936	-30.06
199.156	-24.63
199.377	-4.65
199.597	-32.56
199.817	-22.9
200.038	-17.59
200.258	-12.7
200.479	17.8
200.699	25.12
200.919	10.53
201.14	30.08
201.36	34.15
201.58	26.13
201.801	29.18
202.021	27.59
202.241	25.97
202.461	40.06
202.682	34.63
202.902	38.6
203.122	37.27
203.342	38.7
203.563	31.94
203.783	38.31
204.003	35.39
204.223	39.64
204.443	33.23
204.663	34.92
204.884	39.15
205.104	38.71
205.324	37.92
205.544	44.71
205.764	50.19
205.984	49.38
206.204	57.17
206.424	41.05
206.644	35.46
206.864	27.54
207.084	39.18
207.304	25.85
207.525	20.09
207.745	16.02
207.964	19.32
208.184	9.23
208.404	8.43
208.624	-22.72
208.844	-19.88
209.064	-9.28
209.284	-5.17
209.504	4.19
209.724	4.51
209.944	24.43
210.164	34.24
210.384	37.68
210.604	31.68
210.823	15.18
211.043	-8.62
211.263	9.69
211.483	-2.5
211.703	3.29
211.922	17.54
212.142	23.68
212.362	31.15
212.582	32.09
212.801	20
213.021	34.54
213.241	23.17
213.461	12.1
213.68	15.8
213.9	10.81
214.12	8.34
214.339	23.19
214.559	21.59
214.779	23.68
214.998	28.46
215.218	24.64
215.438	34.48
215.657	33.91
215.877	25.1
216.096	19.63
216.316	15.42
216.535	16.03
216.755	7.17
216.974	-11.9
217.194	1.46
217.413	8.84
217.633	18.4
217.852	17.23
218.072	9.1
218.291	33.14
218.511	38.66
218.73	31.75
218.95	19.64
219.169	4.75
219.389	6.86
219.608	16.57
219.827	2.22
220.047	-5.2
220.266	4.78
220.485	19.36
220.705	19.8
220.924	19.37
221.143	9.56
221.363	9.67
221.582	12.21
221.801	22.04
222.021	22.57
222.24	19.15
222.459	20.78
222.678	15.66
222.897	2.55
223.117	15.24
223.336	11.12
223.555	3.27
223.774	21.69
223.993	28.98
224.213	32.74
224.432	57.47
224.651	57.41
224.87	47.54
225.089	53.89
225.308	44.51
225.527	36.51
225.746	40.65
225.965	23.56
226.184	8.4
226.404	2.15
226.623	12.22
226.842	7.66
227.061	8.41
227.28	17.28
227.499	22.99
227.718	24.71
227.936	28.61
228.155	29.17
228.374	31.82
228.593	35.61
228.812	26.95
229.031	28.43
229.25	36
229.469	43.63
229.688	45.73
229.907	42.72
230.125	33.04
230.344	36.36
230.563	43.89
230.782	31.65
231.001	32.29
231.22	13
231.438	20.88
231.657	26.99
231.876	18.26
232.095	12.48
232.313	15.19
232.532	10.48
232.751	15.28
232.969	14.89
233.188	4.11
233.407	-1.41
233.625	-8.85
233.844	-2.04
234.063	-1.44
234.281	0.78
234.5	1.93
234.719	8.63
234.937	29.81
235.156	25.46
235.374	31.94
235.593	28.08
235.811	19.81
236.03	19.63
236.249	24.62
236.467	11.21
236.686	22.97
236.904	14.37
237.123	16.03
237.341	29.09
237.559	28.5
237.778	28.8
237.996	38.9
238.215	42.43
238.433	40.02
238.652	42.58
238.87	37.57
239.088	23.28
239.307	22.76
239.525	8.26
239.743	2.15
239.962	9.8
240.18	18.14
240.398	23.91
240.617	38.94
240.835	34.98
241.053	42.56
241.271	47.56
241.49	40.99
241.708	30.01
241.926	14.97
242.144	15.77
242.363	16.19
242.581	8.84
242.799	-16.98
243.017	-6.3
243.235	-11.71
243.453	-9.54
243.672	-12.38
243.89	-5.1
244.108	14.86
244.326	19.54
244.544	10.17
244.762	15.27
244.98	21.51
245.198	19.56
245.416	26.47
245.634	25.24
245.852	36.63
246.07	42.56
246.288	43.84
246.506	54.52
246.724	61.84
246.942	47.14
247.16	32.22
247.378	15.75
247.596	18.61
247.814	6.04
248.032	-2.59
248.25	-12.52
248.468	-6.14
248.685	0.46
248.903	6.47
249.121	-4.22
249.339	7.89
249.557	7.91
249.775	-0.14
249.992	-6.31
250.21	-20.24
250.428	-8.51
250.646	-1.13
250.863	2.52
251.081	1.82
251.299	18.99
251.517	19.08
251.734	27.07
251.952	26.5
252.17	7.44
252.387	4.97
252.605	12.76
252.823	-1.46
253.04	0.17
253.258	3.32
253.475	2.23
253.693	22.54
253.911	30.03
254.128	26.38
254.346	19.79
254.563	16.81
254.781	16.57
254.998	20.71
255.216	11.26
255.433	3.92
255.651	-3.57
255.868	6.08
256.086	17.98
256.303	26.9
256.521	7.55
256.738	12.04
256.956	2.39
257.173	14.83
257.39	25.86
257.608	25.16
257.825	13.82
258.043	20.31
258.26	14.32
258.477	31.99
258.695	35.07
258.912	27
259.129	19.74
259.346	30.48
259.564	31.38
259.781	39.33
259.998	31.98
260.216	34.49
260.433	35.62
260.65	38.32
260.867	27.71
261.084	31.87
261.302	25.61
261.519	16.91
261.736	11.36
261.953	-4.87
262.17	-6.74
262.387	-8.91
262.604	-30.58
262.822	-22.48
263.039	-25.13
263.256	-26.4
263.473	-22.32
263.69	-16.75
263.907	1.71
264.124	5.64
264.341	11.81
264.558	24.09
264.775	25.59
264.992	23.33
265.209	27.08
265.426	27.19
265.643	28.2
265.86	28.53
266.077	27.2
266.294	27.41
266.51	36.83
266.727	26
266.944	7.37
267.161	8.28
267.378	3.42
267.595	-11.6
267.812	-13.08
268.028	-8.19
268.245	0.59
268.462	8.22
268.679	6.33
268.896	-3.59
269.112	13.19
269.329	18.31
269.546	13.11
269.763	15.67
269.979	18.51
270.196	23.57
270.413	28.39
270.629	22.31
270.846	23.9
271.063	25.87
271.279	24.5
271.496	14.86
271.712	17.68
271.929	17.72
272.146	28.49
272.362	22.18
272.579	12.3
272.795	10.03
273.012	15.78
273.228	11.3
273.445	14.26
273.661	4.09
273.878	8.98
274.094	9.78
274.311	16.57
274.527	18.87
274.744	21.14
274.96	19.64
275.177	19.56
275.393	26.15
275.609	33.2
275.826	24.41
276.042	31.67
276.259	30.34
276.475	28.43
276.691	25.92
276.908	23.29
277.124	25.63
277.34	28.48
277.557	24.4
277.773	24.1
277.989	22.79
278.205	17.34
278.422	28.4
278.638	31.07
278.854	33.99
279.07	25.86
279.286	23.58
279.503	29.87
279.719	34.45
279.935	17.02
280.151	27.9
280.367	30.87
280.583	38.69
280.799	42.99
281.016	41.57
281.232	47.75
281.448	49.2
281.664	35.99
281.88	30.24
282.096	24.99
282.312	21.45
282.528	18.74
282.744	13.16
282.96	19.05
283.176	19.19
283.392	26.85
283.608	31.47
283.824	28.7
284.04	32.76
284.256	42.09
284.471	36.69
284.687	32.66
284.903	28.27
285.119	18.43
285.335	16.21
285.551	8.77
285.767	-4.69
285.982	-7.41
286.198	-16.49
286.414	-5.86
286.63	4.55
286.846	6.51
287.061	8.86
287.277	9.78
287.493	16.74
287.709	20.24
287.924	16.52
288.14	20.49
288.356	25.86
288.571	19.29
288.787	25.3
289.003	31.89
289.218	32.46
289.434	30.87
289.65	28.43
289.865	30
290.081	32.37
290.296	31.24
290.512	30.89
290.727	35.52
290.943	33.56
291.159	28.5
291.374	30.7
291.59	22.49
291.805	22.49
292.021	9.48
292.236	4.67
292.451	15.52
292.667	23
292.882	17.17
293.098	25.21
293.313	27.28
293.529	36.29
293.744	36.03
293.959	24.61
294.175	12.61
294.39	14.31
294.605	21.84
294.821	10.71
295.036	-1.18
295.251	7.78
295.467	2.72
295.682	11.96
295.897	10.44
296.112	13.82
296.328	21.94
296.543	18.59
296.758	9.96
296.973	21.61
297.188	14.55
297.404	14.87
297.619	5.08
297.834	11.83
298.049	20.16
298.264	15.77
298.479	7.72
298.694	19.24
298.909	19.76
299.125	26.51
299.34	22.34
299.555	25.9
299.77	35.98
299.985	34.46
300.2	28.71
300.415	26.19
300.63	16.22
300.845	17.86
301.06	9.97
301.275	12.04
301.49	11.9
301.704	10.41
301.919	7.6
302.134	4.06
302.349	0.98
302.564	4.8
302.779	-0.69
302.994	11.68
303.209	11.19
303.423	17.87
303.638	29.84
303.853	31.62
304.068	31.75
304.283	35.83
304.497	24.4
304.712	24.98
304.927	15.52
305.142	18.31
305.356	13.51
305.571	9.33
305.786	3.1
306	6.09
306.215	11
306.43	24.39
306.644	22.97
306.859	27.72
307.074	29.29
307.288	31.63
307.503	35.59
307.717	31.56
307.932	33.8
308.147	32.77
308.361	34.73
308.576	39.39
308.79	33.6
309.005	29.46
309.219	27.73
309.434	24.87
309.648	22.15
309.863	21.26
310.077	7.61
310.292	9.8
310.506	14
310.72	18.34
310.935	16.37
311.149	19.4
311.364	22.52
311.578	25.63
311.792	27.18
312.007	21.44
312.221	26.51
312.435	24.22
312.649	-4.59
312.864	-32.74
313.078	-28.61
313.292	-23.91
313.507	-18.91
313.721	-40.89
313.935	-22.52
314.149	11.5
314.363	17.87
314.578	39.87
314.792	40.65
315.006	42.57
315.22	49.09
315.434	32.13
315.648	28.97
315.862	36.78
316.077	28.34
316.291	29.89
316.505	33.09
316.719	21.28
316.933	39.38
317.147	35.13
317.361	29.11
317.575	19.11
317.789	13.61
318.003	8.06
318.217	15.89
318.431	12.8
318.645	27.43
318.859	21.65
319.073	21.29
319.287	25.08
319.5	29.9
319.714	29.33
319.928	31.35
320.142	27.27
320.356	40.47
320.57	38.28
320.784	33.82
320.997	37.61
321.211	39.58
321.425	34.67
321.639	32.21
321.853	28.37
322.066	25.58
322.28	28.56
322.494	25.39
322.707	16.51
322.921	21.66
323.135	25.88
323.349	18.45
323.562	23.03
323.776	15.93
323.989	12.03
324.203	21.07
324.417	13.83
324.63	-0.64
324.844	-0.06
325.057	5.8
325.271	3.34
325.485	2.56
325.698	-1.45
325.912	9.92
326.125	19.89
326.339	24.98
326.552	30.06
326.766	36.57
326.979	38.85
327.193	42.01
327.406	34.21
327.619	16.98
327.833	14.92
328.046	-1.15
328.26	-15.21
328.473	-5.84
328.686	-0.88
328.9	-0.94
329.113	10.14
329.326	9.98
329.54	12.13
329.753	23.48
329.966	23.62
330.179	20.55
330.393	22.16
330.606	29.08
330.819	35.46
331.032	40.34
331.246	41.94
331.459	37.25
331.672	39.02
331.885	34.06
332.098	33.34
332.311	17.36
332.525	16.39
332.738	12.66
332.951	13.73
333.164	10.89
333.377	-0.49
333.59	0.44
333.803	17.36
334.016	8.15
334.229	10.72
334.442	24.28
334.655	34.72
334.868	52.75
335.081	59.15
335.294	50.51
335.507	54.89
335.72	50.65
335.933	45.36
336.146	45.52
336.359	34.97
336.572	26.35
336.785	32.16
336.997	32.74
337.21	33.41
337.423	29.09
337.636	21.56
337.849	30.9
338.062	32.75
338.274	28.71
338.487	30.4
338.7	32.58
338.913	34.82
339.125	34.24
339.338	34.38
339.551	40.12
339.763	36.48
339.976	33.02
340.189	38.77
340.402	37.05
340.614	39.52
340.827	26.48
341.039	23.06
341.252	24.82
341.465	21.6
341.677	8.8
341.89	5.85
342.102	14.13
342.315	19.74
342.527	11.02
342.74	10.32
342.952	9.49
343.165	24.01
343.377	21.86
343.59	14.81
343.802	22.5
344.015	28.36
344.227	28.56
344.44	36.49
344.652	23.98
344.864	28.9
345.077	26.14
345.289	21.93
345.502	23.05
345.714	21.48
345.926	17.5
346.139	24.67
346.351	13.21
346.563	14.87
346.775	12.63
346.988	14.34
347.2	14.12
347.412	11.83
347.624	14.2
347.837	18
348.049	17.97
348.261	14.37
348.473	7.9
348.685	15.06
348.897	18.61
349.11	16.8
349.322	12.5
349.534	5.06
349.746	20.17
349.958	16.76
350.17	12.42
350.382	2.12
350.594	3.22
350.806	16.79
351.018	28.29
351.23	27.13
351.442	32.8
351.654	35.11
351.866	34.02
352.078	27.52
352.29	27.18
352.502	23.48
352.714	17.13
352.926	17.41
353.138	14.31
353.35	20.96
353.561	21.22
353.773	13.28
353.985	18.84
354.197	15.28
354.409	13.52
354.621	17.13
354.832	16.06
355.044	26.03
355.256	30.01
355.468	24.56
355.679	29.07
355.891	29.58
356.103	26.68
356.314	28.36
356.526	20.45
356.738	14.2
356.949	12.91
357.161	10.39
357.373	6.37
357.584	12.42
357.796	12.23
358.008	17.72
358.219	29.6
358.431	32.56
358.642	32.39
358.854	38.25
359.065	32.9
359.277	26.03
359.488	20.66
359.7	18.71
359.911	13.26
360.123	17.48
360.334	10.42
360.546	2.14
360.757	12.68
360.969	18.45
361.18	12.76
361.391	15.67
361.603	14.14
361.814	18.04
362.025	24.75
362.237	22.02
362.448	22.03
362.659	24.49
362.871	26.94
363.082	28.93
363.293	26.17
363.504	28.88
363.716	26.47
363.927	25
364.138	24.17
364.349	23.04
364.56	16.78
364.772	21.25
364.983	13.16
365.194	16.67
365.405	10.08
365.616	1.67
365.827	-0.7
366.038	15.21
366.25	8.7
366.461	13.76
366.672	11.35
366.883	25.86
367.094	29.87
367.305	29.23
367.516	27.92
367.727	29.49
367.938	30.82
368.149	34.83
368.36	30.63
368.571	30.94
368.781	29.02
368.992	24.95
369.203	25.64
369.414	19.46
369.625	10.25
369.836	9.29
370.047	11.75
370.258	10.82
370.468	10.1
370.679	6.47
370.89	15.24
371.101	16.97
371.312	10.37
371.522	13.4
371.733	9.69
371.944	11.53
372.155	7.1
372.365	4.39
372.576	9.8
372.787	17.64
372.997	11.04
373.208	18.86
373.419	16.9
373.629	27.33
373.84	23.44
374.05	22.14
374.261	18.6
374.472	18.29
374.682	13.6
374.893	10.84
375.103	9.07
375.314	11.38
375.524	8.76
375.735	12.59
375.945	15.07
376.156	18.62
376.366	22.64
376.577	21.09
376.787	25.88
376.997	31.69
377.208	29.84
377.418	28.61
377.629	31.05
377.839	32.74
378.049	36.33
378.26	36.77
378.47	36.73
378.68	31.59
378.89	26.48
379.101	19.67
379.311	15.9
379.521	11.24
379.732	-1.89
379.942	-6.55
380.152	1.65
380.362	7.71
380.572	14.29
380.783	12.92
380.993	15.91
381.203	19.06
381.413	25.62
381.623	25.69
381.833	21.97
382.043	16.2
382.253	20.88
382.463	20.33
382.674	21.05
382.884	12.26
383.094	11.38
383.304	11.7
383.514	18.47
383.724	14.82
383.934	12.63
384.144	15.8
384.353	17.89
384.563	14.21
384.773	14.2
384.983	11.3
385.193	14.48
385.403	17.15
385.613	14.27
385.823	11.13
386.033	12.03
386.242	12
386.452	9.48
386.662	6.4
386.872	3.24
387.082	4.41
387.291	6.62
387.501	7.4
387.711	6.64
387.921	5.07
388.13	6.99
388.34	5.9
388.55	7.49
388.759	8.58
388.969	5.98
389.179	10.53
389.388	12.93
389.598	10.77
389.807	11.71
390.017	10.52
390.227	10.32
390.436	12.24
390.646	12.39
390.855	10.91
391.065	9.88
391.274	8.85
391.484	9.32
391.693	8.48
391.903	7.35
392.112	5.48
392.322	7.07
392.531	8.65
392.74	7.43
392.95	7.34
393.159	6.95
393.369	7.07
393.578	6.76
393.787	5.98
393.997	6.37
394.206	7.04
394.415	6.49
394.625	5.84
394.834	4.97
395.043	5.5
395.252	5.98
395.462	5.45
395.671	6.48
395.88	6.64
396.089	7.05
396.298	7.32
396.508	6.7
396.717	6.56
396.926	6.14
397.135	5.26
397.344	4.93
397.553	5.2
397.762	5.05
397.971	4.84
398.181	4.4
398.39	4.36
398.599	4.62
398.808	4.79
399.017	4.75
399.226	5.03
399.435	4.95
399.644	4.74
399.853	4.75
400.062	4.72
400.27	4.52
400.479	4.3
400.688	4.26
400.897	4.52
401.106	4.83
401.315	4.84
401.524	4.89
401.733	5.22
401.941	5.3
402.15	5.02
402.359	5.08
402.568	4.94
402.777	4.79
402.985	4.64
403.194	4.49
403.403	4.35
403.612	4.48
403.82	4.37
404.029	4.31
404.238	4.36
404.446	4.39
404.655	4.15
404.864	4.15
405.072	4.18
405.281	4.02
405.489	4.16
405.698	4.18
405.906	4.1
406.115	4.15
406.324	4.06
406.532	4.07
406.741	4.17
406.949	4.04
407.158	4.01
407.366	4.03
407.574	4.06
407.783	4.08
407.991	3.97
408.2	3.92
408.408	3.95
408.617	3.94
408.825	3.93
409.033	3.9
409.242	3.88
409.45	3.91
409.658	3.93
409.867	3.88
410.075	3.86
410.283	3.84
410.491	3.79
410.7	3.86
410.908	3.88
411.116	3.76
411.324	3.78
411.533	3.74
411.741	3.71
411.949	3.8
412.157	3.79
412.365	3.72
412.573	3.76
412.781	3.75
412.99	3.8
413.198	3.85
413.406	3.85
413.614	3.84
413.822	3.85
414.03	3.82
414.238	3.87
414.446	3.81
414.654	3.77
414.862	3.61
415.07	3.69
415.278	3.69
415.486	3.84
415.694	3.72
415.902	3.65
416.109	3.67
416.317	3.71
416.525	3.64
416.733	3.7
416.941	3.53
417.149	3.64
417.357	3.73
417.564	3.67
417.772	3.7
417.98	3.61
418.188	3.43
418.395	3.46
418.603	3.32
418.811	3.25
419.019	3.32
419.226	3.3
419.434	3.29
419.642	3.4
419.849	3.42
420.057	3.48
420.265	3.54
420.472	3.43
420.68	3.38
420.887	3.4
421.095	3.34
421.302	3.43
421.51	3.43
421.717	3.44
421.925	3.44
422.132	3.43
422.34	3.39
422.547	3.31
422.755	3.11
422.962	2.98
423.17	2.91
423.377	3.02
423.585	3.06
423.792	3.05
423.999	3.07
424.207	3.12
424.414	3.28
424.621	3.3
424.829	3.19
425.036	3.15
425.243	3.21
425.451	3.23
425.658	3.32
425.865	3.19
426.072	3.29
426.28	3.3
426.487	3.32
426.694	3.21
426.901	3.18
427.108	3.11
427.315	3.07
427.523	2.97
427.73	3
427.937	3
428.144	3.17
428.351	3.35
428.558	3.42
428.765	3.42
428.972	3.45
429.179	3.37
429.386	3.42
429.593	3.31
429.8	3.22
430.007	3.23
430.214	3.3
430.421	3.27
430.628	3.22
430.835	3.15
431.042	3.17
431.249	3.14
431.456	3.15
431.662	3.15
431.869	3.22
432.076	3.28
432.283	3.3
432.49	3.32
432.697	3.31
432.903	3.34
433.11	3.37
433.317	3.35
433.524	3.31
433.73	3.34
433.937	3.33
434.144	3.51
434.35	3.45
434.557	3.37
434.764	3.4
434.97	3.51
435.177	3.45
435.384	3.49
435.59	3.35
435.797	3.35
436.003	3.44
436.21	3.37
436.416	3.33
436.623	3.38
436.829	3.38
437.036	3.41
437.242	3.48
437.449	3.46
437.655	3.52
437.862	3.49
438.068	3.53
438.275	3.48
438.481	3.54
438.687	3.53
438.894	3.53
439.1	3.62
439.307	3.65
439.513	3.62
439.719	3.65
439.926	3.66
440.132	3.62
440.338	3.68
440.544	3.58
440.751	3.62
440.957	3.63
441.163	3.66
441.369	3.59
441.575	3.6
441.782	3.54
441.988	3.57
442.194	3.59
442.4	3.67
442.606	3.67
442.812	3.73
443.018	3.82
443.224	3.88
443.431	3.91
443.637	3.85
443.843	3.82
444.049	3.77
444.255	3.78
444.461	3.74
444.667	3.67
444.873	3.65
445.079	3.7
445.284	3.7
445.49	3.77
445.696	3.76
445.902	3.81
446.108	3.84
446.314	3.89
446.52	3.95
446.726	3.99
446.931	3.96
447.137	3.97
447.343	3.93
447.549	3.98
447.755	3.95
447.96	3.88
448.166	3.9
448.372	3.93
448.578	3.92
448.783	3.89
448.989	3.87
449.195	3.89
449.4	3.91
449.606	3.87
449.812	3.92
450.017	3.94
450.223	3.96
450.428	3.98
450.634	4
450.84	3.99
451.045	3.99
451.251	3.98
451.456	3.95
451.662	3.97
451.867	3.98
452.073	3.96
452.278	3.97
452.483	3.99
452.689	3.96
452.894	3.99
453.1	3.95
453.305	3.9
453.51	3.92
453.716	3.9
453.921	3.86
454.127	3.85
454.332	3.82
454.537	3.89
454.742	3.89
454.948	3.83
455.153	3.86
455.358	3.91
455.563	3.91
455.769	3.9
455.974	3.82
456.179	3.78
456.384	3.86
456.589	3.92
456.795	3.89
457	3.89
457.205	3.88
457.41	3.93
457.615	4
457.82	4.06
458.025	4
458.23	3.98
458.435	3.96
458.64	4.09
458.845	4.06
459.05	4.06
459.255	3.99
459.46	4
459.665	4.06
459.87	4.12
460.075	4.04
460.28	4.08
460.485	4.13
460.69	4.09
460.895	4.11
461.099	4.12
461.304	4.11
461.509	4.07
461.714	4.08
461.919	4.03
462.123	4.11
462.328	4.11
462.533	4.15
462.738	4.12
462.942	4.19
463.147	4.2
463.352	4.27
463.556	4.27
463.761	4.31
463.966	4.27
464.17	4.33
464.375	4.27
464.58	4.25
464.784	4.22
464.989	4.18
465.193	4.2
465.398	4.23
465.602	4.22
465.807	4.31
466.011	4.36
466.216	4.34
466.42	4.36
466.625	4.35
466.829	4.37
467.034	4.44
467.238	4.44
467.443	4.46
467.647	4.53
467.851	4.57
468.056	4.59
468.26	4.57
468.464	4.53
468.669	4.53
468.873	4.51
469.077	4.55
469.282	4.57
469.486	4.55
469.69	4.57
469.894	4.65
470.099	4.67
470.303	4.69
470.507	4.67
470.711	4.66
470.915	4.7
471.119	4.69
471.324	4.62
471.528	4.64
471.732	4.69
471.936	4.74
472.14	4.76
472.344	4.81
472.548	4.87
472.752	5
472.956	5.01
473.16	4.99
473.364	4.91
473.568	4.94
473.772	4.98
473.976	4.98
474.18	4.94
474.384	4.96
474.588	4.97
474.792	5.03
474.995	5.05
475.199	5.05
475.403	5.08
475.607	5.12
475.811	5.14
476.015	5.21
476.218	5.24
476.422	5.23
476.626	5.2
476.83	5.22
477.033	5.19
477.237	5.23
477.441	5.2
477.644	5.21
477.848	5.22
478.052	5.25
478.255	5.23
478.459	5.31
478.663	5.31
478.866	5.35
479.07	5.37
479.273	5.39
479.477	5.42
479.681	5.47
479.884	5.42
480.088	5.42
480.291	5.46
480.495	5.51
480.698	5.55
480.901	5.59
481.105	5.61
481.308	5.65
481.512	5.69
481.715	5.68
481.919	5.67
482.122	5.71
482.325	5.73
482.529	5.77
482.732	5.8
482.935	5.81
483.138	5.84
483.342	5.88
483.545	5.9
483.748	5.9
483.952	5.9
484.155	5.9
484.358	5.86
484.561	5.89
484.764	5.88
484.967	5.88
485.171	5.82
485.374	5.81
485.577	5.83
485.78	5.93
485.983	5.87
486.186	5.85
486.389	5.84
486.592	5.89
486.795	5.9
486.998	5.9
487.201	5.84
487.404	5.93
487.607	5.95
487.81	5.98
488.013	5.99
488.216	5.98
488.419	5.97
488.622	5.94
488.825	5.9
489.028	5.91
489.231	5.9
489.433	5.88
489.636	5.87
489.839	5.89
490.042	5.91
490.245	5.91
490.447	5.88
490.65	5.91
490.853	5.9
491.056	5.91
491.258	5.94
491.461	5.95
491.664	5.97
491.866	5.99
492.069	5.97
492.272	6.01
492.474	6.02
492.677	5.99
492.879	6
493.082	6.04
493.285	6.05
493.487	6.01
493.69	5.99
493.892	6.04
494.095	6.05
494.297	6.06
494.5	6.07
494.702	6.07
494.905	6.14
495.107	6.19
495.309	6.17
495.512	6.2
495.714	6.25
495.917	6.25
496.119	6.32
496.321	6.35
496.524	6.34
496.726	6.34
496.928	6.33
497.13	6.33
497.333	6.35
497.535	6.34
497.737	6.31
497.939	6.34
498.142	6.36
498.344	6.36
498.546	6.39
498.748	6.38
498.95	6.39
499.152	6.39
499.355	6.43
499.557	6.53
499.759	6.61
499.961	6.62
500.163	6.67
500.365	6.7
500.567	6.72
500.769	6.76
500.971	6.71
501.173	6.69
501.375	6.72
501.577	6.74
501.779	6.77
501.981	6.81
502.183	6.77
502.385	6.8
502.587	6.81
502.788	6.82
502.99	6.84
503.192	6.86
503.394	6.9
503.596	6.95
503.798	7.03
503.999	7.09
504.201	7.1
504.403	7.12
504.605	7.16
504.806	7.16
505.008	7.17
505.21	7.15
505.411	7.16
505.613	7.2
505.815	7.24
506.016	7.28
506.218	7.3
506.42	7.35
506.621	7.43
506.823	7.45
507.024	7.47
507.226	7.49
507.427	7.46
507.629	7.51
507.83	7.5
508.032	7.54
508.233	7.57
508.435	7.6
508.636	7.61
508.838	7.7
509.039	7.76
509.24	7.8
509.442	7.77
509.643	7.78
509.845	7.8
510.046	7.82
510.247	7.88
510.448	7.85
510.65	7.87
510.851	7.94
511.052	7.99
511.254	8.02
511.455	8.09
511.656	8.08
511.857	8.14
512.058	8.19
512.26	8.18
512.461	8.19
512.662	8.15
512.863	8.15
513.064	8.16
513.265	8.17
513.466	8.22
513.667	8.26
513.868	8.3
514.069	8.36
514.27	8.4
514.471	8.42
514.672	8.42
514.873	8.45
515.074	8.47
515.275	8.48
515.476	8.53
515.677	8.57
515.878	8.63
516.079	8.68
516.28	8.66
516.481	8.66
516.682	8.73
516.882	8.74
517.083	8.76
517.284	8.74
517.485	8.74
517.686	8.76
517.886	8.81
518.087	8.82
518.288	8.84
518.488	8.86
518.689	8.9
518.89	8.97
519.091	8.99
519.291	8.98
519.492	8.97
519.692	9
519.893	9
520.094	9
520.294	8.96
520.495	9
520.695	9.01
520.896	9.03
521.096	9.03
521.297	9.06
521.497	9.07
521.698	9.15
521.898	9.18
522.099	9.22
522.299	9.27
522.499	9.33
522.7	9.36
522.9	9.38
523.101	9.41
523.301	9.42
523.501	9.45
523.702	9.44
523.902	9.45
524.102	9.49
524.302	9.53
524.503	9.5
524.703	9.55
524.903	9.56
525.103	9.59
525.304	9.6
525.504	9.61
525.704	9.58
525.904	9.61
526.104	9.61
526.304	9.64
526.504	9.68
526.705	9.71
526.905	9.73
527.105	9.79
527.305	9.78
527.505	9.85
527.705	9.86
527.905	9.88
528.105	9.88
528.305	9.88
528.505	9.92
528.705	9.95
528.905	9.93
529.105	9.97
529.304	10
529.504	10.02
529.704	10.06
529.904	10.05
530.104	10.09
530.304	10.12
530.503	10.11
530.703	10.18
530.903	10.2
531.103	10.22
531.303	10.3
531.502	10.33
531.702	10.32
531.902	10.36
532.101	10.35
532.301	10.39
532.501	10.41
532.7	10.42
532.9	10.47
533.1	10.51
533.299	10.57
533.499	10.62
533.698	10.68
533.898	10.73
534.097	10.74
534.297	10.74
534.496	10.76
534.696	10.77
534.895	10.83
535.095	10.84
535.294	10.84
535.494	10.91
535.693	10.96
535.892	11.01
536.092	11.02
536.291	11.02
536.491	11.05
536.69	11.09
536.889	11.09
537.088	11.08
537.288	11.13
537.487	11.19
537.686	11.25
537.886	11.29
538.085	11.35
538.284	11.4
538.483	11.48
538.682	11.48
538.882	11.49
539.081	11.5
539.28	11.53
539.479	11.56
539.678	11.6
539.877	11.64
540.076	11.72
540.275	11.77
540.474	11.75
540.673	11.81
540.872	11.87
541.071	11.88
541.27	11.92
541.469	11.97
541.668	12.04
541.867	12.13
542.066	12.15
542.265	12.19
542.464	12.25
542.663	12.34
542.862	12.41
543.06	12.44
543.259	12.49
543.458	12.53
543.657	12.57
543.856	12.62
544.054	12.67
544.253	12.7
544.452	12.71
544.651	12.73
544.849	12.81
545.048	12.9
545.247	12.95
545.445	12.97
545.644	13.05
545.843	13.11
546.041	13.24
546.24	13.32
546.438	13.37
546.637	13.48
546.836	13.58
547.034	13.64
547.233	13.73
547.431	13.77
547.63	13.89
547.828	13.94
548.027	13.98
548.225	14.06
548.423	14.12
548.622	14.24
548.82	14.33
549.019	14.32
549.217	14.45
549.415	14.56
549.614	14.61
549.812	14.69
550.01	14.74
550.209	14.8
550.407	14.97
550.605	15.05
550.803	15.05
551.002	15.14
551.2	15.27
551.398	15.33
551.596	15.46
551.794	15.5
551.993	15.56
552.191	15.74
552.389	15.85
552.587	15.9
552.785	16.05
552.983	16.11
553.181	16.17
553.379	16.26
553.577	16.33
553.775	16.42
553.973	16.52
554.171	16.61
554.369	16.71
554.567	16.84
554.765	16.93
554.963	17.03
555.161	17.1
555.359	17.21
555.557	17.33
555.755	17.46
555.952	17.58
556.15	17.72
556.348	17.87
556.546	18.03
556.744	18.14
556.941	18.25
557.139	18.39
557.337	18.5
557.535	18.61
557.732	18.69
557.93	18.81
558.128	18.92
558.325	19.04
558.523	19.11
558.721	19.26
558.918	19.37
559.116	19.49
559.313	19.63
559.511	19.76
559.708	19.89
559.906	20
560.104	20.1
560.301	20.2
560.498	20.31
560.696	20.39
560.893	20.54
561.091	20.67
561.288	20.78
561.486	20.89
561.683	21.08
561.88	21.23
562.078	21.37
562.275	21.47
562.473	21.52
562.67	21.65
562.867	21.79
563.064	21.89
563.262	22.06
563.459	22.18
563.656	22.36
563.853	22.5
564.051	22.63
564.248	22.76
564.445	22.88
564.642	23.01
564.839	23.14
565.036	23.25
565.234	23.46
565.431	23.6
565.628	23.74
565.825	23.89
566.022	23.95
566.219	24.04
566.416	24.11
566.613	24.2
566.81	24.3
567.007	24.38
567.204	24.46
567.401	24.64
567.598	24.73
567.795	24.86
567.991	24.95
568.188	25.03
568.385	25.11
568.582	25.23
568.779	25.32
568.976	25.43
569.172	25.51
569.369	25.55
569.566	25.64
569.763	25.75
569.96	25.78
570.156	25.8
570.353	25.88
570.55	25.98
570.746	26.04
570.943	26.15
571.14	26.24
571.336	26.32
571.533	26.35
571.729	26.39
571.926	26.43
572.123	26.51
572.319	26.48
572.516	26.47
572.712	26.56
572.909	26.69
573.105	26.75
573.302	26.78
573.498	26.83
573.695	26.95
573.891	27.03
574.087	27.03
574.284	27
574.48	27.01
574.677	27.07
574.873	27.11
575.069	27.22
575.266	27.21
575.462	27.25
575.658	27.35
575.854	27.46
576.051	27.43
576.247	27.4
576.443	27.36
576.639	27.36
576.835	27.36
577.032	27.38
577.228	27.35
577.424	27.42
577.62	27.46
577.816	27.48
578.012	27.51
578.208	27.55
578.404	27.55
578.6	27.6
578.796	27.59
578.993	27.59
579.189	27.53
579.384	27.56
579.58	27.51
579.776	27.43
579.972	27.39
580.168	27.35
580.364	27.35
580.56	27.38
580.756	27.34
580.952	27.36
581.148	27.41
581.343	27.38
581.539	27.43
581.735	27.39
581.931	27.38
582.127	27.37
582.322	27.37
582.518	27.29
582.714	27.29
582.909	27.24
583.105	27.27
583.301	27.24
583.496	27.21
583.692	27.15
583.888	27.19
584.083	27.22
584.279	27.25
584.474	27.24
584.67	27.26
584.866	27.28
585.061	27.31
585.257	27.29
585.452	27.22
585.648	27.15
585.843	27.14
586.039	27.07
586.234	27.02
586.429	27.03
586.625	27
586.82	26.96
587.015	26.96
587.211	26.98
587.406	27.04
587.601	27.11
587.797	27.06
587.992	27.08
588.187	27.14
588.383	27.17
588.578	27.12
588.773	27.09
588.968	27.11
589.163	27.17
589.359	27.18
589.554	27.15
589.749	27.18
589.944	27.25
590.139	27.34
590.334	27.32
590.529	27.37
590.724	27.4
590.919	27.5
591.114	27.47
591.309	27.48
591.504	27.46
591.699	27.5
591.894	27.5
592.089	27.53
592.284	27.5
592.479	27.57
592.674	27.62
592.869	27.69
593.064	27.76
593.259	27.75
593.454	27.78
593.648	27.87
593.843	27.93
594.038	28
594.233	28.08
594.428	28.14
594.622	28.25
594.817	28.35
595.012	28.45
595.206	28.5
595.401	28.52
595.596	28.59
595.79	28.65
595.985	28.71
596.18	28.82
596.374	28.9
596.569	28.99
596.763	29.15
596.958	29.24
597.153	29.35
597.347	29.46
597.542	29.56
597.736	29.65
597.931	29.71
598.125	29.76
598.319	29.76
598.514	29.81
598.708	29.91
598.903	29.97
599.097	30.03
599.291	30.11
599.486	30.15
599.68	30.2
599.874	30.3
600.069	30.28
600.263	30.29
600.457	30.31
600.651	30.39
600.846	30.47
601.04	30.57
601.234	30.55
601.428	30.59
601.622	30.64
601.817	30.69
602.011	30.66
602.205	30.68
602.399	30.74
602.593	30.78
602.787	30.79
602.981	30.82
603.175	30.84
603.369	30.84
603.563	30.86
603.757	30.79
603.951	30.77
604.145	30.75
604.339	30.74
604.533	30.75
604.727	30.79
604.921	30.71
605.115	30.66
605.309	30.64
605.502	30.65
605.696	30.58
605.89	30.53
606.084	30.41
606.278	30.4
606.471	30.34
606.665	30.27
606.859	30.18
607.053	30.21
607.246	30.06
607.44	30
607.634	29.91
607.827	29.86
608.021	29.77
608.214	29.7
608.408	29.56
608.602	29.57
608.795	29.51
608.989	29.46
609.182	29.41
609.376	29.4
609.569	29.29
609.763	29.28
609.956	29.15
610.15	29.06
610.343	28.95
610.537	28.83
610.73	28.73
610.923	28.73
611.117	28.56
611.31	28.46
611.504	28.38
611.697	28.32
611.89	28.22
612.083	28.09
612.277	27.96
612.47	27.9
612.663	27.85
612.856	27.77
613.05	27.64
613.243	27.61
613.436	27.54
613.629	27.45
613.822	27.33
614.015	27.23
614.209	27.18
614.402	27.19
614.595	27.04
614.788	26.93
614.981	26.82
615.174	26.78
615.367	26.71
615.56	26.58
615.753	26.47
615.946	26.43
616.139	26.45
616.332	26.4
616.525	26.32
616.718	26.23
616.911	26.19
617.103	26.06
617.296	25.99
617.489	25.88
617.682	25.85
617.875	25.75
618.067	25.69
618.26	25.6
618.453	25.55
618.646	25.46
618.838	25.35
619.031	25.24
619.224	25.23
619.417	25.16
619.609	25.13
619.802	25.06
619.994	25.04
620.187	25.06
620.38	25.02
620.572	24.99
620.765	24.92
620.957	24.85
621.15	24.82
621.342	24.79
621.535	24.72
621.727	24.67
621.92	24.58
622.112	24.57
622.305	24.54
622.497	24.49
622.69	24.41
622.882	24.36
623.074	24.36
623.267	24.34
623.459	24.26
623.651	24.22
623.844	24.22
624.036	24.26
624.228	24.22
624.42	24.13
624.613	24.1
624.805	24.1
624.997	24.08
625.189	24.01
625.381	23.89
625.574	23.81
625.766	23.8
625.958	23.75
626.15	23.72
626.342	23.72
626.534	23.68
626.726	23.66
626.918	23.57
627.11	23.46
627.302	23.48
627.494	23.44
627.686	23.36
627.878	23.26
628.07	23.2
628.262	23.17
628.454	23.2
628.646	23.09
628.838	23.02
629.029	22.89
629.221	22.88
629.413	22.84
629.605	22.83
629.797	22.78
629.989	22.73
630.18	22.67
630.372	22.7
630.564	22.67
630.755	22.67
630.947	22.6
631.139	22.55
631.33	22.53
631.522	22.51
631.714	22.46
631.905	22.45
632.097	22.4
632.289	22.39
632.48	22.33
632.672	22.24
632.863	22.23
633.055	22.22
633.246	22.16
633.438	22.13
633.629	22.19
633.821	22.2
634.012	22.25
634.203	22.26
634.395	22.28
634.586	22.3
634.777	22.26
634.969	22.21
635.16	22.2
635.351	22.16
635.543	22.1
635.734	22.03
635.925	22.04
636.117	22.03
636.308	22.01
636.499	21.99
636.69	22.09
636.881	22.13
637.073	22.17
637.264	22.16
637.455	22.21
637.646	22.23
637.837	22.21
638.028	22.2
638.219	22.17
638.41	22.17
638.601	22.2
638.792	22.13
638.983	22.05
639.174	22.1
639.365	22.06
639.556	21.99
639.747	21.97
639.938	21.93
640.129	21.93
640.32	21.95
640.511	21.89
640.701	21.86
640.892	21.9
641.083	21.88
641.274	21.85
641.465	21.85
641.655	21.86
641.846	21.85
642.037	21.83
642.228	21.75
642.418	21.7
642.609	21.69
642.8	21.64
642.99	21.62
643.181	21.63
643.372	21.59
643.562	21.61
643.753	21.56
643.943	21.55
644.134	21.55
644.324	21.49
644.515	21.45
644.705	21.4
644.896	21.32
645.086	21.33
645.277	21.31
645.467	21.28
645.658	21.31
645.848	21.3
646.038	21.28
646.229	21.26
646.419	21.25
646.61	21.13
646.8	21.11
646.99	21.08
647.18	21.03
647.371	21.02
647.561	21
647.751	20.96
647.941	21.01
648.132	20.97
648.322	20.96
648.512	20.98
648.702	20.94
648.892	21.03
649.082	20.99
649.272	20.93
649.462	20.95
649.653	20.89
649.843	20.83
650.033	20.87
650.223	20.76
650.413	20.76
650.603	20.75
650.793	20.66
650.983	20.59
651.172	20.52
651.362	20.4
651.552	20.3
651.742	20.21
651.932	20.18
652.122	20.14
652.312	20.06
652.502	20.03
652.691	20.04
652.881	20
653.071	19.9
653.261	19.79
653.45	19.73
653.64	19.72
653.83	19.58
654.019	19.35
654.209	19.24
654.399	19.13
654.588	18.99
654.778	18.83
654.968	18.63
655.157	18.5
655.347	18.38
655.536	18.22
655.726	18.09
655.915	17.95
656.105	17.77
656.294	17.66
656.484	17.53
656.673	17.4
656.863	17.23
657.052	16.99
657.241	16.82
657.431	16.65
657.62	16.38
657.809	16.14
657.999	15.93
658.188	15.73
658.377	15.63
658.567	15.44
658.756	15.24
658.945	15.11
659.134	14.94
659.324	14.76
659.513	14.56
659.702	14.33
659.891	14.14
660.08	13.97
660.269	13.81
660.458	13.61
660.648	13.39
660.837	13.24
661.026	13.04
661.215	12.86
661.404	12.73
661.593	12.52
661.782	12.42
661.971	12.27
662.16	12.11
662.349	11.98
662.538	11.85
662.726	11.69
662.915	11.56
663.104	11.31
663.293	11.22
663.482	11.07
663.671	10.95
663.86	10.79
664.048	10.62
664.237	10.54
664.426	10.49
664.615	10.35
664.803	10.22
664.992	10.13
665.181	10.08
665.369	10
665.558	9.92
665.747	9.87
665.935	9.8
666.124	9.79
666.312	9.66
666.501	9.55
666.69	9.49
666.878	9.38
667.067	9.3
667.255	9.21
667.444	9.17
667.632	9.13
667.82	9.08
668.009	9.07
668.197	9.08
668.386	9.02
668.574	9
668.762	8.96
668.951	8.96
669.139	9.04
669.327	9.03
669.516	9.01
669.704	9.05
669.892	9.04
670.08	9.05
670.269	9.1
670.457	9.1
670.645	9.12
670.833	9.13
671.021	9.15
671.21	9.23
671.398	9.23
671.586	9.26
671.774	9.18
671.962	9.21
672.15	9.25
672.338	9.27
672.526	9.27
672.714	9.35
672.902	9.38
673.09	9.54
673.278	9.59
673.466	9.71
673.654	9.74
673.842	9.86
674.03	9.92
674.218	10
674.405	10.1
674.593	10.19
674.781	10.2
674.969	10.27
675.157	10.31
675.344	10.39
675.532	10.48
675.72	10.46
675.908	10.53
676.095	10.71
676.283	10.85
676.471	10.89
676.658	11.02
676.846	11.16
677.033	11.34
677.221	11.5
677.409	11.52
677.596	11.64
677.784	11.75
677.971	11.94
678.159	12.08
678.346	12.21
678.534	12.34
678.721	12.48
678.909	12.64
679.096	12.87
679.283	12.93
679.471	13.13
679.658	13.26
679.846	13.41
680.033	13.62
680.22	13.69
680.408	13.87
680.595	14.04
680.782	14.11
680.969	14.26
681.157	14.37
681.344	14.55
681.531	14.84
681.718	15.02
681.905	15.18
682.093	15.45
682.28	15.75
682.467	15.89
682.654	16.03
682.841	16.29
683.028	16.55
683.215	16.78
683.402	16.94
683.589	17.13
683.776	17.48
683.963	17.79
684.15	18.01
684.337	18.25
684.524	18.64
684.711	18.98
684.898	19.35
685.085	19.71
685.271	20.06
685.458	20.47
685.645	20.82
685.832	21.15
686.019	21.54
686.205	21.86
686.392	22.27
686.579	22.71
686.766	23.11
686.952	23.64
687.139	24.09
687.326	24.64
687.512	25.16
687.699	25.57
687.886	26.07
688.072	26.66
688.259	27.08
688.445	27.55
688.632	28.12
688.818	28.7
689.005	29.29
689.191	29.86
689.378	30.48
689.564	31.07
689.751	31.89
689.937	32.43
690.124	33.06
690.31	33.84
690.496	34.66
690.683	35.29
690.869	36.05
691.055	36.87
691.242	37.47
691.428	38.26
691.614	38.91
691.8	39.56
691.987	40.32
692.173	41.16
692.359	41.74
692.545	42.56
692.731	43.17
692.918	43.96
693.104	44.64
693.29	45.32
693.476	45.92
693.662	46.63
693.848	47.27
694.034	47.89
694.22	48.47
694.406	49.17
694.592	49.74
694.778	50.34
694.964	50.96
695.15	51.61
695.336	52.55
695.522	53.36
695.708	54.16
695.894	54.98
696.08	55.76
696.265	56.49
696.451	57.4
696.637	57.95
696.823	58.42
697.009	59.01
697.194	59.62
697.38	60.12
697.566	60.5
697.751	61.01
697.937	61.54
698.123	62.21
698.308	62.54
698.494	62.94
698.68	63.55
698.865	64.29
699.051	64.89
699.236	65.56
699.422	66.07
699.607	66.58
699.793	67.11
699.978	67.55
700.164	67.93
700.349	68.09
700.535	68.42
700.72	68.77
700.906	69.25
701.091	69.55
701.276	70.02
701.462	70.55
701.647	70.98
701.832	71.45
702.018	71.82
702.203	72.18
702.388	72.59
702.573	72.94
702.759	73.23
702.944	73.68
703.129	73.95
703.314	74.36
703.499	74.78
703.684	75.18
703.87	75.44
704.055	75.7
704.24	76.16
704.425	76.49
704.61	76.67
704.795	76.81
704.98	76.96
705.165	77
705.35	77.26
705.535	77.65
705.72	77.66
705.905	77.93
706.09	78.15
706.275	78.48
706.459	79.09
706.644	79.48
706.829	79.45
707.014	79.82
707.199	80.02
707.384	80.38
707.568	80.77
707.753	80.91
707.938	81
708.123	81.07
708.307	81.44
708.492	81.52
708.677	81.67
708.861	81.65
709.046	81.66
709.231	81.85
709.415	82.04
709.6	81.91
709.784	82.28
709.969	82.5
710.153	82.97
710.338	83.09
710.522	83.06
710.707	83.03
710.891	83.35
711.076	83.28
711.26	83.44
711.445	83.32
711.629	83.76
711.813	83.86
711.998	84.18
712.182	84.41
712.366	84.88
712.551	85.08
712.735	85.21
712.919	85.39
713.103	85.59
713.288	85.98
713.472	86.03
713.656	85.66
713.84	85.55
714.024	85.54
714.208	85.35
714.393	85.5
714.577	85.42
714.761	85.46
714.945	85.78
715.129	86.05
715.313	86.29
715.497	86.52
715.681	86.56
715.865	86.59
716.049	86.6
716.233	86.96
716.417	87.03
716.601	87.32
716.785	87.42
716.968	87.47
717.152	87.52
717.336	87.83
717.52	87.83
717.704	88.04
717.888	87.76
718.071	87.98
718.255	88.09
718.439	88.03
718.622	88.33
718.806	88.11
718.99	88.45
719.174	88.78
719.357	88.9
719.541	88.99
719.724	89.34
719.908	89.16
720.092	89.42
720.275	89.08
720.459	89.15
720.642	89.09
720.826	89.16
721.009	89.19
721.193	89.21
721.376	89.05
721.559	88.97
721.743	89.04
721.926	88.92
722.11	89.05
722.293	88.78
722.476	88.95
722.66	89.46
722.843	89.93
723.026	90.1
723.21	90.29
723.393	90.42
723.576	90.57
723.759	90.72
723.942	90.65
724.126	90.5
724.309	90.62
724.492	90.5
724.675	90.63
724.858	91.18
725.041	90.83
725.224	91.02
725.407	91.03
725.59	90.69
725.774	90.86
725.957	91.06
726.14	90.9
726.322	90.98
726.505	91.23
726.688	91.48
726.871	91.97
727.054	91.99
727.237	91.69
727.42	92.28
727.603	92.66
727.786	92.55
727.968	92.71
728.151	92.73
728.334	92.88
728.517	93.32
728.699	93.19
728.882	93.59
729.065	93.51
729.248	93.36
729.43	93.09
729.613	93.12
729.796	92.74
729.978	92.84
730.161	92.73
730.343	92.83
730.526	92.99
730.708	93.55
730.891	94.04
731.073	94.52
731.256	94.11
731.438	94.42
731.621	94.94
731.803	95.05
731.986	94.95
732.168	94.74
732.35	94.74
732.533	94.9
732.715	94.75
732.898	94.75
733.08	95.12
733.262	95.3
733.444	95.2
733.627	95.32
733.809	95.53
733.991	95.66
734.173	95.2
734.355	95.1
734.538	94.81
734.72	95.43
734.902	95.49
735.084	95.89
735.266	95.65
735.448	95.98
735.63	95.9
735.812	95.94
735.994	95.54
736.176	95.73
736.358	95.6
736.54	95.47
736.722	95.31
736.904	95.35
737.086	95.58
737.268	96.24
737.45	96.11
737.632	95.7
737.814	95.98
737.995	96.46
738.177	96.85
738.359	97.34
738.541	96.56
738.723	96.55
738.904	96.86
739.086	97.09
739.268	97.37
739.449	97.49
739.631	97.29
739.813	97.74
739.994	98.1
740.176	98.45
740.358	98.33
740.539	98
740.721	97.34
740.902	97.5
741.084	97.58
741.265	97.44
741.447	96.83
741.628	96.49
741.81	96.29
741.991	96.65
742.172	96.22
742.354	96.62
742.535	96.75
742.717	96.84
742.898	97.38
743.079	97.38
743.261	98
743.442	98.31
743.623	97.66
743.804	97.39
743.986	97.47
744.167	97.21
744.348	97.7
744.529	96.83
744.71	96.57
744.891	96.87
745.073	96.74
745.254	96.77
745.435	96.51
745.616	96.09
745.797	95.91
745.978	96.44
746.159	96.49
746.34	96.77
746.521	96.95
746.702	96.75
746.883	96.53
747.064	96.41
747.245	96.35
747.426	96.43
747.606	96.67
747.787	96.88
747.968	97.53
748.149	97.48
748.33	98.57
748.51	98.25
748.691	98.26
748.872	97.47
749.053	97.08
749.233	96.79
749.414	96.95
749.595	95.48
749.775	95.87
749.956	95
750.137	95.34
750.317	95.52
750.498	95.95
750.678	96.83
750.859	97.93
751.04	97.76
751.22	97.05
751.4	97.35
751.581	97.23
751.761	97.54
751.942	97.14
752.122	96.83
752.303	96.69
752.483	98.23
752.663	98.78
752.844	98.46
753.024	97.93
753.204	97.68
753.385	96.97
753.565	96.69
753.745	95.46
753.925	94.42
754.106	95.09
754.286	94.96
754.466	95.09
754.646	95.16
754.826	95.09
755.006	95.06
755.187	95.68
755.367	94.97
755.547	95.42
755.727	95.13
755.907	95.8
756.087	95.13
756.267	95.33
756.447	94.94
756.627	95.09
756.807	95.39
756.987	95.82
757.167	95.59
757.346	95.61
757.526	96.35
757.706	96.69
757.886	96.33
758.066	95.86
758.246	95.7
758.425	95.65
758.605	95.89
758.785	95.45
758.965	93.84
759.144	94.23
759.324	94.29
759.504	94.01
759.683	94.23
759.863	94.65
760.043	95.6
760.222	96.34
760.402	96.63
760.581	95.71
760.761	94.46
760.94	93.52
761.12	93.21
761.299	92.07
761.479	92.56
761.658	91.86
761.838	91.88
762.017	92.65
762.197	93.45
762.376	93.63
762.555	93.94
762.735	93.03
762.914	93.5
763.093	93.78
763.273	93.49
763.452	93.05
763.631	92.13
763.81	92.12
763.99	92.67
764.169	92.35
764.348	92.98
764.527	92.26
764.706	92.79
764.885	93.95
765.064	94.36
765.243	94.03
765.423	93.98
765.602	93.63
765.781	94.45
765.96	94.31
766.139	92.94
766.318	93.11
766.497	94.06
766.676	94.98
766.854	93.4
767.033	92.95
767.212	92.66
767.391	93.03
767.57	91.7
767.749	91.25
767.928	89.66
768.106	90.59
768.285	91.17
768.464	91.19
768.643	91.6
768.821	92.46
769	92.7
769.179	92.46
769.357	92.27
769.536	92.68
769.715	92.09
769.893	91.83
770.072	91.46
770.25	90.62
770.429	92.26
770.607	92.6
770.786	91.83
770.964	92.07
771.143	91.99
771.321	91.7
771.5	91.09
771.678	89.97
771.857	89.38
772.035	89.25
772.213	89.07
772.392	89.79
772.57	89.38
772.748	88.86
772.927	89.53
773.105	90.57
773.283	90.18
773.461	89.93
773.64	88.36
773.818	88.27
773.996	88.96
774.174	89.45
774.352	89.06
774.531	88.86
774.709	89.62
774.887	90.38
775.065	90.21
775.243	91.05
775.421	89.69
775.599	88.77
775.777	89.17
775.955	87.71
776.133	86.18
776.311	86.37
776.489	85.53
776.667	85.53
776.844	85.92
777.022	85.92
777.2	86.84
777.378	89.57
777.556	90.65
777.734	91.36
777.911	93.38
778.089	92.3
778.267	92.4
778.445	92.14
778.622	89.89
778.8	88.53
778.978	88.32
779.155	86.09
779.333	86.38
779.511	85.63
779.688	84.07
779.866	83.77
780.043	84.08
780.221	83.3
780.398	84.43
780.576	83.8
780.753	83.11
780.931	85.62
781.108	87.86
781.286	88.05
781.463	88.05
781.64	86.95
781.818	87.42
781.995	90.57
782.172	90.68
782.35	88.47
782.527	89
782.704	89.16
782.882	90.33
783.059	90.53
783.236	88.93
783.413	87.97
783.59	87.83
783.768	87.23
783.945	87.4
784.122	86.65
784.299	85.85
784.476	85.35
784.653	83.78
784.83	84.14
785.007	83.69
785.184	84.3
785.361	83.89
785.538	85.06
785.715	85.15
785.892	86.21
786.069	86.97
786.246	85.14
786.423	85.96
786.6	86.45
786.776	85.84
786.953	86.32
787.13	86.25
787.307	85.57
787.484	87.32
787.66	85.59
787.837	84.62
788.014	84.41
788.191	82.61
788.367	81.91
788.544	83.3
788.721	82.92
788.897	83.84
789.074	84.04
789.25	85.35
789.427	85.68
789.603	87.25
789.78	88.36
789.956	88.4
790.133	87.56
790.309	87.35
790.486	88.73
790.662	88.77
790.839	90.21
791.015	88.71
791.192	88.97
791.368	87.46
791.544	87.78
791.721	83.98
791.897	85.7
792.073	82.83
792.249	84.02
792.426	83.27
792.602	83.26
792.778	82.83
792.954	82.53
793.13	81.42
793.307	80.13
793.483	78.61
793.659	81.57
793.835	81.9
794.011	80.92
794.187	78.52
794.363	78.4
794.539	80.28
794.715	78.37
794.891	74.31
795.067	76.61
795.243	76.97
795.419	80.3
795.595	79.54
795.771	81.02
795.947	80.17
796.122	81.69
796.298	79.6
796.474	79.14
796.65	78.57
796.826	81.37
797.001	81.5
797.177	83.23
797.353	84.89
797.529	84.75
797.704	85.72
797.88	86.3
798.056	85.5
798.231	82.75
798.407	81.59
798.582	78.33
798.758	80.47
798.934	82.06
799.109	80.74
799.285	80.9
799.46	82.7
799.636	85.26
799.811	88.3
799.986	88.34
800.162	87.12
800.337	89.56
800.513	85.88
800.688	89.61
800.863	88.81
801.039	85.9
801.214	84.26
801.389	82.11
801.565	83.83
801.74	85.94
801.915	79.55
802.09	76.73
802.265	79.13
802.441	78.9
802.616	79.55
802.791	78.14
802.966	77.67
803.141	75.54
803.316	80.54
803.491	77.67
803.666	79.94
803.841	81.5
804.016	80.19
804.191	78.93
804.366	80.85
804.541	78.41
804.716	74.32
804.891	72.55
805.066	73.81
805.241	70.75
805.416	72.43
805.591	73.98
805.765	72.36
805.94	79.37
806.115	76.64
806.29	74.25
806.464	75.45
806.639	75.55
806.814	72.94
806.989	73.47
807.163	73.36
807.338	73.43
807.512	69.59
807.687	70.3
807.862	67.68
808.036	66.87
808.211	71.72
808.385	65.51
808.56	71.16
808.734	72.4
808.909	71.17
809.083	71.87
809.258	77.36
809.432	72.56
809.606	76.82
809.781	71.38
809.955	76.91
810.13	81.62
810.304	79.5
810.478	77.82
810.652	79.03
810.827	76.05
811.001	78.61
811.175	75.57
811.349	70.6
811.524	71.17
811.698	73.73
811.872	75.69
812.046	79.97
812.22	75.94
812.394	76.51
812.568	81.21
812.742	81.7
812.916	78.56
813.09	76.03
813.264	73.56
813.438	82.77
813.612	81.02
813.786	83.43
813.96	92.22
814.134	89.65
814.308	83.39
814.482	81.03
814.656	81.43
814.83	82.57
815.003	81.03
815.177	78.46
815.351	79.08
815.525	77.81
815.698	82.5
815.872	76.77
816.046	74.52
816.219	74.74
816.393	63.1
816.567	58.96
816.74	63.01
816.914	55.8
817.088	50.75
817.261	53.44
817.435	51.32
817.608	59.19
817.782	67.39
817.955	64.68
818.129	73.08
818.302	75.08
818.475	73.72
818.649	70.91
818.822	69.04
818.996	64.49
819.169	66.72
819.342	60.89
819.516	66.13
819.689	66.94
819.862	64.84
820.035	67.24
820.209	67.49
820.382	67.22
820.555	67.56
820.728	54.45
820.901	51.37
821.075	63.77
821.248	66.04
821.421	59.2
821.594	62.79
821.767	65.64
821.94	71.69
822.113	77.62
822.286	74.07
822.459	70.08
822.632	78.07
822.805	76.54
822.978	67.9
823.151	73.36
823.324	61.81
823.496	52.79
823.669	56.93
823.842	55.08
824.015	49.52
824.188	60.61
824.361	52.38
824.533	62.37
824.706	76.54
824.879	74.65
825.051	83.01
825.224	78.77
825.397	74.86
825.569	75.83
825.742	73.05
825.915	68.41
826.087	62.8
826.26	59.14
826.432	68.01
826.605	66.81
826.777	71.01
826.95	66.18
827.122	69
827.295	76.89
827.467	64.92
827.64	57.77
827.812	54.83
827.984	61.96
828.157	67.44
828.329	58.07
828.501	53.77
828.674	64.65
828.846	71.22
829.018	73.62
829.19	59.33
829.363	57.52
829.535	65.21
829.707	60.44
829.879	59.3
830.051	52.65
830.223	50
830.395	49.66
830.568	54.45
830.74	54.1
830.912	58.68
831.084	53.21
831.256	49.49
831.428	51.03
831.6	55.95
831.772	50
831.943	46.16
832.115	44.21
832.287	50.31
832.459	62.88
832.631	56.24
832.803	60.17
832.975	57.98
833.146	57.96
833.318	52.55
833.49	53.42
833.662	50.66
833.833	53.88
834.005	53.5
834.177	60.77
834.348	56.27
834.52	63.89
834.692	64.68
834.863	61.64
835.035	63.87
835.206	55.84
835.378	52.38
835.549	53.76
835.721	48.97
835.892	47.48
836.064	50.74
836.235	56.98
836.407	59.92
836.578	58.79
836.749	66.05
836.921	75.03
837.092	81.69
837.264	78.14
837.435	54.06
837.606	67.79
837.777	62.24
837.949	56.52
838.12	51.78
838.291	50
838.462	56.9
838.633	66.77
838.805	55.48
838.976	55.62
839.147	51.43
839.318	42.65
839.489	37.29
839.66	36.11
839.831	35.31
840.002	30.9
840.173	35.35
840.344	44.54
840.515	49.41
840.686	61.25
840.857	54.26
841.028	66.8
841.199	75.52
841.369	66.75
841.54	59.64
841.711	64.86
841.882	52.02
842.053	52.68
842.223	54.86
842.394	57.23
842.565	73.08
842.736	77.05
842.906	82.42
843.077	84.92
843.248	89.8
843.418	71.71
843.589	59.44
843.759	54.64
843.93	61.66
844.101	56.22
844.271	51.4
844.442	45.01
844.612	40.87
844.783	36.41
844.953	28.51
845.123	19.14
845.294	20.13
845.464	26.39
845.635	31.63
845.805	58.97
845.975	53.48
846.146	61.71
846.316	81.67
846.486	86.71
846.656	92.55
846.827	86.01
846.997	80.02
847.167	90.67
847.337	88.91
847.507	80.9
847.677	80.88
847.848	74.93
848.018	64.7
848.188	51.2
848.358	56.53
848.528	50.49
848.698	40.04
848.868	30.3
849.038	43.52
849.208	56.23
849.378	49
849.548	52.59
849.718	54.77
849.887	50.15
850.057	53.53
850.227	32.31
850.397	21.86
850.567	49.58
850.737	43.23
850.906	31.07
851.076	37.91
851.246	39.61
851.415	52.18
851.585	71.87
851.755	54.2
851.924	56.17
852.094	66.66
852.264	68.52
852.433	71.43
852.603	70.56
852.772	56.76
852.942	56.79
853.111	52.83
853.281	58.13
853.45	55.08
853.62	43.72
853.789	44.57
853.959	49.6
854.128	46.8
854.297	45.51
854.467	42.98
854.636	59.73
854.805	66.12
854.975	72.98
855.144	85.43
855.313	97.92
855.482	94.11
855.652	88.67
855.821	84.14
855.99	96.45
856.159	89.41
856.328	51.7
856.497	49.62
856.667	60.41
856.836	59.16
857.005	48.46
857.174	43.47
857.343	50.55
857.512	49.5
857.681	48.96
857.85	33.44
858.019	46.3
858.188	49.85
858.356	40.46
858.525	31.38
858.694	56.38
858.863	56.47
859.032	43.49
859.201	23.55
859.369	38.25
859.538	41.22
859.707	46.44
859.876	32.93
860.044	36.28
860.213	56.51
860.382	62.79
860.55	73.03
860.719	86.88
860.888	84.59
861.056	90.04
861.225	94.79
861.393	94.07
861.562	84.47
861.73	82.4
861.899	51.29
862.067	45.98
862.236	55.35
862.404	38.26
862.572	34.06
862.741	36.3
862.909	20.07
863.078	25.58
863.246	27.47
863.414	28.19
863.582	29.84
863.751	45
863.919	59.89
864.087	74.8
864.255	75.38
864.424	70.94
864.592	73.48
864.76	85.67
864.928	75.47
865.096	60.52
865.264	58.1
865.432	56.08
865.6	53.03
865.768	40.81
865.936	29.14
866.104	31.5
866.272	42.87
866.44	6.59
866.608	9.78
866.776	25.09
866.944	19.49
867.112	19.69
867.28	10.29
867.448	10.61
867.615	26.43
867.783	8.19
867.951	21.44
868.119	42.84
868.286	22.21
868.454	35.06
868.622	34.91
868.789	52.9
868.957	65.02
869.125	55.21
869.292	59.61
869.46	64.14
869.627	60.02
869.795	58.9
869.963	44.09
870.13	70.42
870.298	61.03
870.465	42.9
870.632	39.31
870.8	28.22
870.967	6.41
871.135	19.56
871.302	12.38
871.469	10.25
871.637	17.93
871.804	23.19
871.971	32.24
872.139	47.23
872.306	39.22
872.473	26.96
872.64	40.55
872.807	31.07
872.975	71.09
873.142	42.41
873.309	80
873.476	146.92
873.643	143.07
873.81	79.79
873.977	80.82
874.144	40.79
874.311	28.11
874.478	-3.42
874.645	-34.96
874.812	6.7
874.979	3.48
875.146	-35.01
875.313	-35.81
875.48	23.82
875.647	-31.04
875.813	-15.78
875.98	-38.26
876.147	39.47
876.314	47.2
876.481	26.44
876.647	28.53
876.814	45.23
876.981	44.65
877.147	32.82
877.314	6.13
877.481	18.62
877.647	21.7
877.814	11.12
877.98	-8.61
878.147	-13.02
878.314	-10.31
878.48	9.44
878.647	17.96
878.813	15.26
878.979	20.26
879.146	20.26
879.312	41.66
879.479	33.55
879.645	12.28
879.811	-16.46
879.978	-9.29
880.144	11.2
880.31	-40.75
880.477	-48.34
880.643	-103.77
880.809	21.58
880.975	37.73
881.142	24.05
881.308	-45.25
881.474	14.61
881.64	-26.48
881.806	5.93
881.972	-14.08
882.138	-34.74
882.304	-91.13
882.47	-54.29
882.636	-60.4
882.802	-82.45
882.968	-151.64
883.134	-251.84
883.3	-33.39
883.466	10.33
883.632	32.12
883.798	25.17
883.964	44.24
884.129	70.44
884.295	56.86
884.461	40.95
884.627	86.19
884.793	68.11
884.958	66.08
885.124	16.63
885.29	17.23
885.455	7.38
885.621	2.05
885.787	-20.98
885.952	-38.38
886.118	-33.29
886.283	11.41
886.449	-31.55
886.614	-46.17
886.78	-0.49
886.945	-8.39
887.111	-14.64
887.276	-7.34
887.442	-0.13
887.607	-2.64
887.773	-21.8
887.938	-34.32
888.103	12.08
888.269	34.34
888.434	13.46
888.599	19.23
888.764	48.16
888.93	77.28
889.095	56.93
889.26	61.81
889.425	66.88
889.59	78.15
889.756	44.64
889.921	-12.07
890.086	-0.88
890.251	24.08
890.416	-15.18
890.581	-26.21
890.746	-29.68
890.911	-52.24
891.076	-58.99
891.241	-94.73
891.406	-40.06
891.571	-2.44
891.736	-3.35
891.901	41.2
892.065	64.23
892.23	58.32
892.395	34.59
892.56	29.22
892.725	7.37
892.889	-15.21
893.054	-119.25
893.219	-172.11
893.384	-205.6
893.548	-520
893.713	850.5
893.878	398.91
