Data from Ofra_2a_PS_2GT41_Reflection_3.txt Node
Date: Tue Jul 20 09:43:59 EDT 2021
User: Adam
Spectrometer: FLMT01687
Trigger mode: 0
Integration Time (sec): 9.450000E-1
Scans to average: 3
Electric dark correction enabled: true
Nonlinearity correction enabled: false
Boxcar width: 3
XAxis mode: Wavelengths
Number of Pixels in Spectrum: 3648
>>>>>Begin Spectral Data<<<<<
179.494	839.64
179.716	488.29
179.937	584.07
180.158	1920.7
180.38	-888.66
180.601	-110.13
180.823	-33.49
181.044	60.06
181.265	-55.62
181.486	78.68
181.708	355.43
181.929	54.77
182.15	-530.11
182.372	85.29
182.593	127.14
182.814	171.11
183.035	80.89
183.257	19.87
183.478	20.18
183.699	32.23
183.92	25.55
184.141	27.27
184.363	17.21
184.584	16.83
184.805	21.82
185.026	4.7
185.247	2.43
185.468	9.34
185.689	19.99
185.91	17.3
186.132	12.88
186.353	6.85
186.574	10.01
186.795	-2.23
187.016	-1.26
187.237	-5.11
187.458	-16.88
187.679	-18.04
187.9	-20.19
188.121	-5.92
188.342	29.75
188.563	44.65
188.784	37.36
189.005	33.07
189.226	25.17
189.447	17.25
189.667	24.24
189.888	21.33
190.109	18.46
190.33	16.49
190.551	15.69
190.772	10.15
190.993	19.76
191.214	11.63
191.434	4.98
191.655	6.71
191.876	21.98
192.097	19.52
192.318	29.38
192.538	30.77
192.759	38.48
192.98	31.82
193.201	40.23
193.421	40.64
193.642	44.11
193.863	45.79
194.083	39.47
194.304	19.99
194.525	38.55
194.745	7.45
194.966	11.36
195.187	25.69
195.407	25.3
195.628	28.17
195.848	34.75
196.069	31.17
196.29	39.07
196.51	21.7
196.731	34.74
196.951	30.6
197.172	16.92
197.392	26.01
197.613	19.4
197.833	19.37
198.054	23.89
198.274	-2.59
198.495	3.38
198.715	1.7
198.936	-21.61
199.156	-5.92
199.377	8.62
199.597	1.23
199.817	21.67
200.038	15.46
200.258	23.26
200.479	33.3
200.699	33.47
200.919	8.06
201.14	19.76
201.36	18.08
201.58	20.07
201.801	20.45
202.021	6.09
202.241	7.26
202.461	20.18
202.682	25.6
202.902	26.56
203.122	19.7
203.342	31.28
203.563	34.13
203.783	30.08
204.003	31.47
204.223	27.9
204.443	19.6
204.663	26.11
204.884	19.53
205.104	25.74
205.324	34.87
205.544	38.94
205.764	31.73
205.984	26.06
206.204	36.67
206.424	38.97
206.644	39.81
206.864	32.1
207.084	44.56
207.304	41.05
207.525	45.03
207.745	48.33
207.964	41.98
208.184	31.37
208.404	23.73
208.624	-6.43
208.844	3.24
209.064	9.9
209.284	-7.03
209.504	-0.33
209.724	-21.85
209.944	-16.21
210.164	-8.77
210.384	-19.05
210.604	-37.46
210.823	-32.61
211.043	-30.79
211.263	-13.65
211.483	-5.34
211.703	2.47
211.922	13.04
212.142	22.02
212.362	39.01
212.582	29.31
212.801	35.32
213.021	37.15
213.241	26.74
213.461	21.72
213.68	16.84
213.9	9.44
214.12	6.93
214.339	1.83
214.559	1
214.779	17.86
214.998	27.46
215.218	31.68
215.438	34.77
215.657	32.77
215.877	31.25
216.096	31.89
216.316	28.83
216.535	17.95
216.755	5.4
216.974	-2.57
217.194	-12.47
217.413	0.72
217.633	-4.08
217.852	-14.59
218.072	-20.83
218.291	14.05
218.511	8.5
218.73	10.2
218.95	7.98
219.169	15.2
219.389	8.73
219.608	12.08
219.827	-6.98
220.047	-0.86
220.266	11.51
220.485	11.18
220.705	1.03
220.924	10.92
221.143	16.7
221.363	7.03
221.582	13.8
221.801	13.88
222.021	15.54
222.24	17.34
222.459	-2.04
222.678	-20.49
222.897	-6.86
223.117	-12.11
223.336	-12.99
223.555	-27.19
223.774	-6.12
223.993	15.38
224.213	19.33
224.432	23.96
224.651	26.27
224.87	37.37
225.089	48.77
225.308	41.41
225.527	37.99
225.746	39.28
225.965	35.01
226.184	40.12
226.404	22.42
226.623	23.6
226.842	20.56
227.061	29.23
227.28	39
227.499	43.84
227.718	35.08
227.936	35.48
228.155	35.68
228.374	34.22
228.593	27.09
228.812	20.81
229.031	1.93
229.25	6.29
229.469	11.55
229.688	12.17
229.907	4.38
230.125	12.99
230.344	11.69
230.563	28.29
230.782	24.11
231.001	22.16
231.22	17
231.438	27.82
231.657	28.02
231.876	25.58
232.095	26.61
232.313	35.33
232.532	33.79
232.751	40.58
232.969	36.59
233.188	28.66
233.407	31.64
233.625	35.26
233.844	31.61
234.063	35.6
234.281	30.21
234.5	32.7
234.719	32.5
234.937	36.42
235.156	29.3
235.374	18.97
235.593	20.32
235.811	7.62
236.03	-9.68
236.249	-4.04
236.467	1.37
236.686	0.86
236.904	-1.93
237.123	2.16
237.341	14.86
237.559	22.27
237.778	29.32
237.996	27.87
238.215	15.9
238.433	24.06
238.652	19.39
238.87	21.13
239.088	11.13
239.307	10.31
239.525	3.53
239.743	6.04
239.962	7.03
240.18	18.23
240.398	15.97
240.617	31.09
240.835	31.61
241.053	37.07
241.271	37.74
241.49	28.84
241.708	15.85
241.926	4.91
242.144	-7.79
242.363	-15.63
242.581	-14.94
242.799	-23.45
243.017	-8.42
243.235	-16.7
243.453	-9.65
243.672	-2.4
243.89	4.87
244.108	10.02
244.326	14.07
244.544	14.58
244.762	26.5
244.98	27.16
245.198	14.56
245.416	15.43
245.634	26.43
245.852	25.01
246.07	23.11
246.288	11.79
246.506	12.16
246.724	34.71
246.942	30.77
247.16	15.48
247.378	13.61
247.596	21.24
247.814	19.62
248.032	17.23
248.25	0.03
248.468	8.22
248.685	13.59
248.903	10.68
249.121	4.79
249.339	10.79
249.557	13.37
249.775	8.03
249.992	3.59
250.21	-8.5
250.428	-10.66
250.646	-6.4
250.863	-9.27
251.081	-13.7
251.299	6.83
251.517	8.99
251.734	26.45
251.952	51.5
252.17	40.13
252.387	39.1
252.605	34.93
252.823	22.48
253.04	24.76
253.258	22.96
253.475	11.42
253.693	25.11
253.911	36.1
254.128	37.3
254.346	39.06
254.563	31.49
254.781	26.82
254.998	16.82
255.216	8.79
255.433	1.5
255.651	-2.99
255.868	0.11
256.086	1.95
256.303	-0.7
256.521	-4.42
256.738	1.67
256.956	-4.07
257.173	3.32
257.39	-4.7
257.608	-4.77
257.825	-10.97
258.043	5.93
258.26	0.26
258.477	10.99
258.695	10.29
258.912	21.02
259.129	18.36
259.346	28.64
259.564	19.81
259.781	29.8
259.998	28.36
260.216	26.97
260.433	16.22
260.65	26.77
260.867	15.06
261.084	24.63
261.302	13.6
261.519	11.13
261.736	-0.53
261.953	9.4
262.17	-3.18
262.387	-3.49
262.604	-22.39
262.822	-15.12
263.039	-14.18
263.256	-4.87
263.473	-12.65
263.69	-16.37
263.907	3.2
264.124	4.17
264.341	1.63
264.558	3.35
264.775	3.58
264.992	7.65
265.209	22.61
265.426	18.88
265.643	21.49
265.86	18.59
266.077	22.48
266.294	25.91
266.51	29.75
266.727	19.44
266.944	12.58
267.161	8.16
267.378	9.94
267.595	-7.61
267.812	-12.31
268.028	-10.07
268.245	-5.84
268.462	-4.71
268.679	-1.34
268.896	-3.43
269.112	8.45
269.329	15.63
269.546	6.64
269.763	12.76
269.979	12.58
270.196	22.8
270.413	28.52
270.629	22.09
270.846	16.59
271.063	26.07
271.279	22.05
271.496	10.81
271.712	-3.17
271.929	5.04
272.146	11.04
272.362	0.12
272.579	-15.41
272.795	-16.24
273.012	3.9
273.228	4.31
273.445	-1.78
273.661	0.18
273.878	14.56
274.094	22.32
274.311	27.26
274.527	25.57
274.744	28.92
274.96	26.07
275.177	31.14
275.393	25.18
275.609	36.17
275.826	33.5
276.042	37.82
276.259	45.2
276.475	33.82
276.691	28.37
276.908	29.24
277.124	14.82
277.34	7.62
277.557	11.71
277.773	-1.27
277.989	6.37
278.205	3.78
278.422	6.16
278.638	16.38
278.854	21.15
279.07	8.93
279.286	10.71
279.503	15.43
279.719	21.51
279.935	14.28
280.151	15.8
280.367	16.48
280.583	19.65
280.799	24.41
281.016	22.68
281.232	19.68
281.448	21.41
281.664	19.2
281.88	33.34
282.096	34.34
282.312	35.89
282.528	32.02
282.744	24.27
282.96	23.78
283.176	18.84
283.392	10.24
283.608	12.98
283.824	2.71
284.04	8.89
284.256	12.04
284.471	4.81
284.687	3.88
284.903	5.46
285.119	-7.56
285.335	-0.93
285.551	1.63
285.767	-6.55
285.982	-6.34
286.198	-7.35
286.414	-8.6
286.63	1.38
286.846	5.37
287.061	9.23
287.277	16.94
287.493	23.15
287.709	28.4
287.924	24.47
288.14	30.84
288.356	38.86
288.571	25.25
288.787	20.49
289.003	21.46
289.218	14.37
289.434	14.87
289.65	10.94
289.865	10.2
290.081	17.61
290.296	17.72
290.512	20.22
290.727	30.13
290.943	29.63
291.159	20.6
291.374	18.9
291.59	13.77
291.805	18.46
292.021	7.35
292.236	4.66
292.451	6.58
292.667	6.77
292.882	1.68
293.098	1.08
293.313	-6.31
293.529	-3.38
293.744	-17.98
293.959	-16.31
294.175	-10.31
294.39	-3.73
294.605	13.47
294.821	22.59
295.036	33.62
295.251	38.76
295.467	40.09
295.682	37.98
295.897	24.97
296.112	23.98
296.328	15.97
296.543	16.82
296.758	18.4
296.973	21.43
297.188	13
297.404	12.24
297.619	7.3
297.834	15.15
298.049	4.54
298.264	8.58
298.479	-6.83
298.694	4.35
298.909	9.61
299.125	13.78
299.34	10.03
299.555	10.51
299.77	8.54
299.985	15.94
300.2	8.98
300.415	14.93
300.63	5.05
300.845	13.11
301.06	18.18
301.275	21.42
301.49	26.69
301.704	26.91
301.919	13.6
302.134	10.09
302.349	-3.52
302.564	-0.93
302.779	6.72
302.994	2.96
303.209	10.75
303.423	25.43
303.638	40.13
303.853	42.38
304.068	28.34
304.283	23.19
304.497	17.9
304.712	22.27
304.927	20.39
305.142	24.27
305.356	25.67
305.571	33.59
305.786	31.38
306	40.09
306.215	30.41
306.43	39.13
306.644	31.85
306.859	33.59
307.074	26.36
307.288	20.38
307.503	14.97
307.717	16.77
307.932	9.72
308.147	10.13
308.361	4.89
308.576	8.18
308.79	18.58
309.005	20.88
309.219	22.02
309.434	16.7
309.648	8.62
309.863	14.75
310.077	11.64
310.292	1.84
310.506	11.25
310.72	11.9
310.935	22.85
311.149	23.03
311.364	24.92
311.578	19.61
311.792	18.69
312.007	7.35
312.221	5.4
312.435	-4.3
312.649	-1.87
312.864	-13.1
313.078	4.98
313.292	5.24
313.507	12
313.721	5.26
313.935	27.64
314.149	27.41
314.363	30.81
314.578	38.89
314.792	44.49
315.006	40.69
315.22	46.4
315.434	25.81
315.648	16.02
315.862	21.28
316.077	10.72
316.291	10.38
316.505	12.46
316.719	-1.17
316.933	15.88
317.147	16.77
317.361	12.22
317.575	4.17
317.789	3.11
318.003	6.2
318.217	13.99
318.431	14.36
318.645	15.87
318.859	6.29
319.073	11.86
319.287	13.25
319.5	7.54
319.714	5.97
319.928	9.78
320.142	13.43
320.356	28.46
320.57	18.3
320.784	18
320.997	25.32
321.211	33.77
321.425	22.19
321.639	24.74
321.853	15.52
322.066	26.86
322.28	23.25
322.494	22.87
322.707	18.13
322.921	15.19
323.135	8
323.349	15.61
323.562	19.52
323.776	25.44
323.989	28.36
324.203	29.97
324.417	25.96
324.63	21.88
324.844	11.83
325.057	6.19
325.271	0.39
325.485	-6.95
325.698	-11.92
325.912	3.86
326.125	12.62
326.339	21.83
326.552	23.45
326.766	28.28
326.979	35.47
327.193	39.61
327.406	36.46
327.619	22.71
327.833	14.34
328.046	11.47
328.26	9.3
328.473	5.9
328.686	7.29
328.9	-8.32
329.113	0.51
329.326	15.38
329.54	15.84
329.753	12.53
329.966	9.5
330.179	12.24
330.393	33.57
330.606	38.8
330.819	33.29
331.032	37.86
331.246	35.1
331.459	41.27
331.672	40.04
331.885	25.16
332.098	25.34
332.311	7.1
332.525	13.93
332.738	13.83
332.951	7.18
333.164	-5.56
333.377	-10.88
333.59	-9.07
333.803	8.72
334.016	-14.1
334.229	-6.73
334.442	5.02
334.655	17.55
334.868	39.52
335.081	38.69
335.294	29.99
335.507	34.74
335.72	29.8
335.933	28.43
336.146	24.88
336.359	12.4
336.572	8.03
336.785	20.5
336.997	25.69
337.21	27.14
337.423	22.56
337.636	30.06
337.849	23.07
338.062	28.9
338.274	24.82
338.487	17.61
338.7	18.37
338.913	20.87
339.125	16.91
339.338	28.86
339.551	32.97
339.763	22.92
339.976	26.87
340.189	21.53
340.402	20.52
340.614	22.35
340.827	8.3
341.039	4.95
341.252	9.06
341.465	2.02
341.677	2.99
341.89	5.07
342.102	9.03
342.315	22
342.527	9.49
342.74	9.56
342.952	14
343.165	21.54
343.377	19.79
343.59	13.83
343.802	13.56
344.015	22.06
344.227	15.73
344.44	12.01
344.652	19.09
344.864	21.12
345.077	21.15
345.289	22.67
345.502	20.04
345.714	22.97
345.926	22.56
346.139	9.51
346.351	-5.01
346.563	-3.75
346.775	-20.37
346.988	-13.4
347.2	-1.96
347.412	3.77
347.624	11.72
347.837	18.42
348.049	19.62
348.261	25.41
348.473	14.69
348.685	13.86
348.897	8.68
349.11	5.99
349.322	-1.17
349.534	-4.84
349.746	-0.67
349.958	10.97
350.17	9.08
350.382	4.03
350.594	0.44
350.806	5.35
351.018	10.44
351.23	9.3
351.442	8.3
351.654	11.11
351.866	21.23
352.078	18.75
352.29	25.17
352.502	27.8
352.714	35.48
352.926	36.16
353.138	25.18
353.35	16.99
353.561	12.49
353.773	7.71
353.985	10.55
354.197	5.88
354.409	7.23
354.621	15.31
354.832	8.13
355.044	20.44
355.256	16.12
355.468	9.35
355.679	12.11
355.891	7.67
356.103	9.88
356.314	14.96
356.526	1.22
356.738	2.05
356.949	-0.87
357.161	-8.96
357.373	-6.84
357.584	-2.73
357.796	-2.75
358.008	3.57
358.219	14.04
358.431	18.17
358.642	24.89
358.854	21.14
359.065	10.31
359.277	9.03
359.488	6.94
359.7	-4.77
359.911	-13.42
360.123	-9.73
360.334	-8.07
360.546	-11.96
360.757	-7.81
360.969	5.27
361.18	6.07
361.391	11.11
361.603	6.28
361.814	10.07
362.025	12.61
362.237	9.26
362.448	6.2
362.659	-0.17
362.871	3.81
363.082	10.32
363.293	18.1
363.504	22.21
363.716	28.09
363.927	25.28
364.138	29.62
364.349	31.07
364.56	27.89
364.772	24.38
364.983	17.15
365.194	15.35
365.405	13.47
365.616	6.35
365.827	-1.36
366.038	9.02
366.25	8.04
366.461	19.65
366.672	18.7
366.883	23.65
367.094	27.12
367.305	20.59
367.516	15.05
367.727	13.2
367.938	8.61
368.149	7.87
368.36	3.59
368.571	9.7
368.781	14.24
368.992	7.38
369.203	6.56
369.414	7.75
369.625	4.61
369.836	5.73
370.047	9.91
370.258	12.83
370.468	8.66
370.679	3.24
370.89	8.87
371.101	9.64
371.312	9.37
371.522	5.66
371.733	-3.41
371.944	4.47
372.155	-1.65
372.365	-10.2
372.576	-4.54
372.787	1.61
372.997	-4.01
373.208	10.41
373.419	10.77
373.629	21.1
373.84	20.12
374.05	16.43
374.261	5.56
374.472	10.45
374.682	1.24
374.893	-3.68
375.103	-1.82
375.314	1.56
375.524	5.12
375.735	12.47
375.945	9.1
376.156	15.31
376.366	17.29
376.577	14.9
376.787	18.81
376.997	18.23
377.208	7.42
377.418	10.89
377.629	2.85
377.839	13.13
378.049	17.65
378.26	12.32
378.47	15.4
378.68	18.42
378.89	13.4
379.101	9.42
379.311	-1.76
379.521	-1.49
379.732	-9
379.942	-11.73
380.152	-5.22
380.362	2
380.572	11.07
380.783	9.68
380.993	8.99
381.203	15.54
381.413	18.36
381.623	17.95
381.833	13.9
382.043	8.23
382.253	18.26
382.463	16.99
382.674	19.29
382.884	16.64
383.094	17.3
383.304	13.81
383.514	19.8
383.724	14.34
383.934	14.4
384.144	15.49
384.353	13.8
384.563	13.01
384.773	14.59
384.983	10.12
385.193	13.46
385.403	13.52
385.613	10.71
385.823	9.37
386.033	6.45
386.242	5.41
386.452	3.46
386.662	3.49
386.872	0.34
387.082	-1.51
387.291	1.14
387.501	1.69
387.711	4.78
387.921	5.01
388.13	1.33
388.34	1.9
388.55	4.02
388.759	2.49
388.969	2.59
389.179	2.94
389.388	3.79
389.598	2.31
389.807	2.7
390.017	1.94
390.227	2.43
390.436	2.78
390.646	1.55
390.855	2.64
391.065	4.36
391.274	3.27
391.484	3.84
391.693	4.12
391.903	3.11
392.112	3.05
392.322	3.96
392.531	4.29
392.74	3.49
392.95	3.72
393.159	2.79
393.369	2.23
393.578	2.06
393.787	0.94
393.997	1.69
394.206	2.3
394.415	2.7
394.625	2.6
394.834	3.21
395.043	4
395.252	4.19
395.462	3.48
395.671	4.32
395.88	4.33
396.089	4.59
396.298	4.32
396.508	3.46
396.717	3.32
396.926	2.63
397.135	2.29
397.344	1.81
397.553	2.27
397.762	2.35
397.971	2.81
398.181	2.49
398.39	2.91
398.599	3.06
398.808	3.33
399.017	3.2
399.226	3.82
399.435	3.75
399.644	3.89
399.853	3.88
400.062	3.81
400.27	3.64
400.479	3.62
400.688	3.24
400.897	3.59
401.106	3.87
401.315	3.81
401.524	3.88
401.733	4.05
401.941	3.86
402.15	3.71
402.359	3.42
402.568	3.25
402.777	3.26
402.985	3.02
403.194	2.96
403.403	2.9
403.612	2.98
403.82	2.94
404.029	2.96
404.238	3.04
404.446	3.03
404.655	2.92
404.864	2.91
405.072	2.95
405.281	2.87
405.489	2.92
405.698	2.81
405.906	2.88
406.115	3
406.324	2.96
406.532	2.96
406.741	3.06
406.949	2.97
407.158	3.03
407.366	3.07
407.574	3.06
407.783	3.06
407.991	2.97
408.2	2.88
408.408	2.91
408.617	2.88
408.825	2.83
409.033	2.78
409.242	2.81
409.45	2.79
409.658	2.85
409.867	2.77
410.075	2.72
410.283	2.65
410.491	2.57
410.7	2.58
410.908	2.61
411.116	2.43
411.324	2.49
411.533	2.41
411.741	2.45
411.949	2.52
412.157	2.55
412.365	2.54
412.573	2.67
412.781	2.69
412.99	2.82
413.198	2.83
413.406	2.82
413.614	2.86
413.822	2.85
414.03	2.8
414.238	2.81
414.446	2.73
414.654	2.68
414.862	2.59
415.07	2.54
415.278	2.53
415.486	2.59
415.694	2.49
415.902	2.48
416.109	2.53
416.317	2.52
416.525	2.52
416.733	2.6
416.941	2.54
417.149	2.69
417.357	2.67
417.564	2.61
417.772	2.67
417.98	2.53
418.188	2.35
418.395	2.32
418.603	2.2
418.811	2.15
419.019	2.18
419.226	2.29
419.434	2.32
419.642	2.43
419.849	2.47
420.057	2.47
420.265	2.55
420.472	2.48
420.68	2.34
420.887	2.41
421.095	2.43
421.302	2.49
421.51	2.56
421.717	2.64
421.925	2.62
422.132	2.61
422.34	2.59
422.547	2.51
422.755	2.4
422.962	2.28
423.17	2.14
423.377	2.33
423.585	2.43
423.792	2.42
423.999	2.4
424.207	2.33
424.414	2.44
424.621	2.44
424.829	2.23
425.036	2.12
425.243	2.17
425.451	2.2
425.658	2.33
425.865	2.32
426.072	2.36
426.28	2.43
426.487	2.38
426.694	2.33
426.901	2.27
427.108	2.17
427.315	2.09
427.523	2.13
427.73	2.17
427.937	2.29
428.144	2.3
428.351	2.43
428.558	2.44
428.765	2.45
428.972	2.39
429.179	2.28
429.386	2.27
429.593	2.21
429.8	2.26
430.007	2.44
430.214	2.47
430.421	2.49
430.628	2.39
430.835	2.38
431.042	2.46
431.249	2.37
431.456	2.3
431.662	2.28
431.869	2.33
432.076	2.52
432.283	2.49
432.49	2.43
432.697	2.42
432.903	2.42
433.11	2.43
433.317	2.38
433.524	2.3
433.73	2.28
433.937	2.29
434.144	2.32
434.35	2.3
434.557	2.23
434.764	2.27
434.97	2.28
435.177	2.25
435.384	2.39
435.59	2.39
435.797	2.43
436.003	2.5
436.21	2.43
436.416	2.44
436.623	2.56
436.829	2.46
437.036	2.46
437.242	2.43
437.449	2.41
437.655	2.41
437.862	2.39
438.068	2.39
438.275	2.38
438.481	2.42
438.687	2.47
438.894	2.44
439.1	2.49
439.307	2.54
439.513	2.49
439.719	2.53
439.926	2.49
440.132	2.47
440.338	2.53
440.544	2.52
440.751	2.51
440.957	2.53
441.163	2.56
441.369	2.62
441.575	2.61
441.782	2.58
441.988	2.62
442.194	2.68
442.4	2.72
442.606	2.67
442.812	2.66
443.018	2.67
443.224	2.72
443.431	2.76
443.637	2.68
443.843	2.68
444.049	2.66
444.255	2.61
444.461	2.58
444.667	2.53
444.873	2.52
445.079	2.61
445.284	2.56
445.49	2.6
445.696	2.64
445.902	2.71
446.108	2.77
446.314	2.79
446.52	2.71
446.726	2.74
446.931	2.77
447.137	2.79
447.343	2.74
447.549	2.69
447.755	2.63
447.96	2.66
448.166	2.67
448.372	2.69
448.578	2.68
448.783	2.73
448.989	2.78
449.195	2.79
449.4	2.82
449.606	2.78
449.812	2.78
450.017	2.82
450.223	2.8
450.428	2.84
450.634	2.87
450.84	2.85
451.045	2.91
451.251	2.89
451.456	2.84
451.662	2.81
451.867	2.76
452.073	2.7
452.278	2.71
452.483	2.71
452.689	2.71
452.894	2.73
453.1	2.7
453.305	2.72
453.51	2.74
453.716	2.72
453.921	2.74
454.127	2.71
454.332	2.7
454.537	2.8
454.742	2.77
454.948	2.76
455.153	2.76
455.358	2.73
455.563	2.72
455.769	2.73
455.974	2.66
456.179	2.64
456.384	2.66
456.589	2.67
456.795	2.64
457	2.73
457.205	2.72
457.41	2.76
457.615	2.79
457.82	2.84
458.025	2.81
458.23	2.83
458.435	2.74
458.64	2.78
458.845	2.71
459.05	2.73
459.255	2.72
459.46	2.72
459.665	2.8
459.87	2.83
460.075	2.82
460.28	2.88
460.485	2.87
460.69	2.81
460.895	2.92
461.099	2.84
461.304	2.81
461.509	2.74
461.714	2.73
461.919	2.69
462.123	2.74
462.328	2.67
462.533	2.71
462.738	2.73
462.942	2.81
463.147	2.8
463.352	2.87
463.556	2.88
463.761	2.88
463.966	2.94
464.17	2.94
464.375	2.94
464.58	2.94
464.784	2.91
464.989	2.88
465.193	2.93
465.398	2.93
465.602	2.94
465.807	2.92
466.011	2.98
466.216	3
466.42	3.06
466.625	3.02
466.829	3
467.034	3.04
467.238	3.05
467.443	3.04
467.647	3.05
467.851	3.08
468.056	3.08
468.26	3.08
468.464	3.08
468.669	3.14
468.873	3.14
469.077	3.13
469.282	3.08
469.486	3.12
469.69	3.13
469.894	3.17
470.099	3.15
470.303	3.13
470.507	3.12
470.711	3.13
470.915	3.13
471.119	3.14
471.324	3.06
471.528	3.08
471.732	3.12
471.936	3.2
472.14	3.17
472.344	3.17
472.548	3.21
472.752	3.29
472.956	3.3
473.16	3.3
473.364	3.24
473.568	3.31
473.772	3.33
473.976	3.29
474.18	3.26
474.384	3.22
474.588	3.22
474.792	3.2
474.995	3.22
475.199	3.21
475.403	3.24
475.607	3.26
475.811	3.31
476.015	3.31
476.218	3.34
476.422	3.33
476.626	3.32
476.83	3.32
477.033	3.34
477.237	3.32
477.441	3.39
477.644	3.38
477.848	3.36
478.052	3.38
478.255	3.36
478.459	3.4
478.663	3.41
478.866	3.37
479.07	3.41
479.273	3.42
479.477	3.48
479.681	3.49
479.884	3.47
480.088	3.5
480.291	3.5
480.495	3.5
480.698	3.52
480.901	3.47
481.105	3.48
481.308	3.47
481.512	3.47
481.715	3.48
481.919	3.48
482.122	3.48
482.325	3.5
482.529	3.58
482.732	3.59
482.935	3.57
483.138	3.56
483.342	3.6
483.545	3.61
483.748	3.63
483.952	3.59
484.155	3.62
484.358	3.61
484.561	3.64
484.764	3.65
484.967	3.67
485.171	3.63
485.374	3.62
485.577	3.64
485.78	3.69
485.983	3.69
486.186	3.65
486.389	3.62
486.592	3.68
486.795	3.69
486.998	3.66
487.201	3.67
487.404	3.72
487.607	3.71
487.81	3.73
488.013	3.7
488.216	3.66
488.419	3.62
488.622	3.59
488.825	3.54
489.028	3.52
489.231	3.52
489.433	3.54
489.636	3.53
489.839	3.56
490.042	3.59
490.245	3.58
490.447	3.61
490.65	3.59
490.853	3.61
491.056	3.63
491.258	3.62
491.461	3.59
491.664	3.58
491.866	3.57
492.069	3.6
492.272	3.55
492.474	3.53
492.677	3.53
492.879	3.56
493.082	3.62
493.285	3.63
493.487	3.62
493.69	3.64
493.892	3.67
494.095	3.65
494.297	3.68
494.5	3.66
494.702	3.65
494.905	3.66
495.107	3.68
495.309	3.68
495.512	3.73
495.714	3.71
495.917	3.71
496.119	3.74
496.321	3.76
496.524	3.75
496.726	3.76
496.928	3.77
497.13	3.8
497.333	3.81
497.535	3.81
497.737	3.83
497.939	3.87
498.142	3.85
498.344	3.83
498.546	3.87
498.748	3.87
498.95	3.87
499.152	3.86
499.355	3.85
499.557	3.9
499.759	3.95
499.961	3.96
500.163	4
500.365	4.01
500.567	4.03
500.769	4.07
500.971	4.08
501.173	4.09
501.375	4.06
501.577	4.05
501.779	4.09
501.981	4.08
502.183	4.07
502.385	4.07
502.587	4.08
502.788	4.09
502.99	4.09
503.192	4.08
503.394	4.11
503.596	4.16
503.798	4.21
503.999	4.23
504.201	4.25
504.403	4.3
504.605	4.33
504.806	4.34
505.008	4.29
505.21	4.28
505.411	4.31
505.613	4.35
505.815	4.34
506.016	4.38
506.218	4.38
506.42	4.44
506.621	4.46
506.823	4.45
507.024	4.41
507.226	4.43
507.427	4.4
507.629	4.42
507.83	4.4
508.032	4.44
508.233	4.44
508.435	4.49
508.636	4.5
508.838	4.56
509.039	4.57
509.24	4.62
509.442	4.59
509.643	4.59
509.845	4.6
510.046	4.63
510.247	4.64
510.448	4.64
510.65	4.66
510.851	4.69
511.052	4.73
511.254	4.72
511.455	4.74
511.656	4.74
511.857	4.76
512.058	4.79
512.26	4.77
512.461	4.78
512.662	4.79
512.863	4.78
513.064	4.75
513.265	4.79
513.466	4.82
513.667	4.86
513.868	4.88
514.069	4.91
514.27	4.94
514.471	5
514.672	4.99
514.873	5.01
515.074	5.04
515.275	5.04
515.476	5.05
515.677	5.06
515.878	5.07
516.079	5.1
516.28	5.04
516.481	5.03
516.682	5.05
516.882	5.07
517.083	5.05
517.284	5.05
517.485	5.05
517.686	5.09
517.886	5.1
518.087	5.13
518.288	5.12
518.488	5.15
518.689	5.14
518.89	5.2
519.091	5.19
519.291	5.19
519.492	5.18
519.692	5.23
519.893	5.25
520.094	5.3
520.294	5.28
520.495	5.3
520.695	5.32
520.896	5.32
521.096	5.32
521.297	5.32
521.497	5.33
521.698	5.34
521.898	5.39
522.099	5.39
522.299	5.4
522.499	5.44
522.7	5.48
522.9	5.48
523.101	5.5
523.301	5.51
523.501	5.56
523.702	5.59
523.902	5.58
524.102	5.59
524.302	5.64
524.503	5.63
524.703	5.64
524.903	5.66
525.103	5.62
525.304	5.65
525.504	5.65
525.704	5.63
525.904	5.66
526.104	5.68
526.304	5.65
526.504	5.68
526.705	5.69
526.905	5.73
527.105	5.75
527.305	5.75
527.505	5.74
527.705	5.8
527.905	5.85
528.105	5.84
528.305	5.83
528.505	5.82
528.705	5.86
528.905	5.87
529.105	5.88
529.304	5.9
529.504	5.92
529.704	5.95
529.904	6
530.104	6.02
530.304	6.06
530.503	6.06
530.703	6.06
530.903	6.1
531.103	6.09
531.303	6.12
531.502	6.1
531.702	6.1
531.902	6.13
532.101	6.15
532.301	6.14
532.501	6.16
532.7	6.15
532.9	6.2
533.1	6.19
533.299	6.2
533.499	6.21
533.698	6.27
533.898	6.28
534.097	6.29
534.297	6.31
534.496	6.36
534.696	6.37
534.895	6.41
535.095	6.4
535.294	6.42
535.494	6.44
535.693	6.46
535.892	6.46
536.092	6.47
536.291	6.47
536.491	6.51
536.69	6.52
536.889	6.51
537.088	6.54
537.288	6.59
537.487	6.62
537.686	6.64
537.886	6.68
538.085	6.72
538.284	6.77
538.483	6.8
538.682	6.79
538.882	6.78
539.081	6.8
539.28	6.8
539.479	6.8
539.678	6.84
539.877	6.86
540.076	6.87
540.275	6.93
540.474	6.94
540.673	6.97
540.872	7.03
541.071	7.04
541.27	7.05
541.469	7.11
541.668	7.16
541.867	7.22
542.066	7.25
542.265	7.27
542.464	7.3
542.663	7.34
542.862	7.36
543.06	7.36
543.259	7.36
543.458	7.37
543.657	7.4
543.856	7.41
544.054	7.47
544.253	7.48
544.452	7.49
544.651	7.52
544.849	7.58
545.048	7.61
545.247	7.67
545.445	7.66
545.644	7.76
545.843	7.82
546.041	7.89
546.24	7.95
546.438	7.99
546.637	8.03
546.836	8.09
547.034	8.1
547.233	8.19
547.431	8.23
547.63	8.27
547.828	8.33
548.027	8.36
548.225	8.43
548.423	8.48
548.622	8.49
548.82	8.53
549.019	8.57
549.217	8.66
549.415	8.71
549.614	8.73
549.812	8.79
550.01	8.84
550.209	8.91
550.407	8.96
550.605	8.98
550.803	9.05
551.002	9.11
551.2	9.18
551.398	9.22
551.596	9.26
551.794	9.33
551.993	9.38
552.191	9.46
552.389	9.55
552.587	9.57
552.785	9.67
552.983	9.75
553.181	9.78
553.379	9.83
553.577	9.89
553.775	9.94
553.973	10.03
554.171	10.07
554.369	10.13
554.567	10.2
554.765	10.25
554.963	10.29
555.161	10.36
555.359	10.41
555.557	10.5
555.755	10.61
555.952	10.68
556.15	10.78
556.348	10.91
556.546	10.98
556.744	11.03
556.941	11.12
557.139	11.21
557.337	11.26
557.535	11.35
557.732	11.39
557.93	11.49
558.128	11.59
558.325	11.62
558.523	11.63
558.721	11.74
558.918	11.83
559.116	11.92
559.313	11.99
559.511	12.07
559.708	12.15
559.906	12.26
560.104	12.34
560.301	12.41
560.498	12.48
560.696	12.52
560.893	12.58
561.091	12.66
561.288	12.72
561.486	12.8
561.683	12.87
561.88	12.91
562.078	13.01
562.275	13.13
562.473	13.22
562.67	13.31
562.867	13.39
563.064	13.46
563.262	13.57
563.459	13.66
563.656	13.75
563.853	13.82
564.051	13.86
564.248	13.9
564.445	13.99
564.642	14.06
564.839	14.12
565.036	14.18
565.234	14.25
565.431	14.35
565.628	14.4
565.825	14.48
566.022	14.55
566.219	14.58
566.416	14.65
566.613	14.76
566.81	14.77
567.007	14.81
567.204	14.86
567.401	14.92
567.598	14.97
567.795	15.01
567.991	15.03
568.188	15.1
568.385	15.16
568.582	15.21
568.779	15.24
568.976	15.32
569.172	15.38
569.369	15.44
569.566	15.42
569.763	15.48
569.96	15.53
570.156	15.54
570.353	15.58
570.55	15.59
570.746	15.58
570.943	15.72
571.14	15.74
571.336	15.8
571.533	15.87
571.729	15.88
571.926	15.9
572.123	15.91
572.319	15.87
572.516	15.92
572.712	15.9
572.909	15.91
573.105	15.96
573.302	15.97
573.498	16.02
573.695	16.01
573.891	16.02
574.087	16.03
574.284	16.04
574.48	15.98
574.677	16
574.873	16
575.069	16.08
575.266	16.1
575.462	16.08
575.658	16.1
575.854	16.14
576.051	16.09
576.247	16.1
576.443	16.08
576.639	16
576.835	16
577.032	16
577.228	15.98
577.424	16.03
577.62	16.05
577.816	16.07
578.012	16.1
578.208	16.13
578.404	16.12
578.6	16.14
578.796	16.17
578.993	16.13
579.189	16.09
579.384	16.09
579.58	16.05
579.776	16.03
579.972	15.99
580.168	15.94
580.364	15.92
580.56	15.91
580.756	15.88
580.952	15.91
581.148	15.92
581.343	15.92
581.539	15.91
581.735	15.87
581.931	15.9
582.127	15.88
582.322	15.83
582.518	15.71
582.714	15.68
582.909	15.66
583.105	15.66
583.301	15.58
583.496	15.55
583.692	15.55
583.888	15.61
584.083	15.59
584.279	15.59
584.474	15.57
584.67	15.58
584.866	15.58
585.061	15.54
585.257	15.51
585.452	15.47
585.648	15.43
585.843	15.44
586.039	15.41
586.234	15.4
586.429	15.38
586.625	15.39
586.82	15.36
587.015	15.35
587.211	15.33
587.406	15.35
587.601	15.33
587.797	15.32
587.992	15.29
588.187	15.36
588.383	15.36
588.578	15.34
588.773	15.32
588.968	15.36
589.163	15.4
589.359	15.4
589.554	15.39
589.749	15.4
589.944	15.46
590.139	15.51
590.334	15.49
590.529	15.52
590.724	15.53
590.919	15.58
591.114	15.62
591.309	15.58
591.504	15.55
591.699	15.53
591.894	15.52
592.089	15.55
592.284	15.53
592.479	15.53
592.674	15.58
592.869	15.63
593.064	15.73
593.259	15.71
593.454	15.74
593.648	15.78
593.843	15.78
594.038	15.81
594.233	15.88
594.428	15.91
594.622	15.95
594.817	15.99
595.012	16
595.206	16.07
595.401	16.09
595.596	16.1
595.79	16.14
595.985	16.24
596.18	16.31
596.374	16.36
596.569	16.37
596.763	16.42
596.958	16.46
597.153	16.49
597.347	16.53
597.542	16.56
597.736	16.63
597.931	16.75
598.125	16.83
598.319	16.84
598.514	16.86
598.708	16.88
598.903	16.96
599.097	16.97
599.291	17.02
599.486	17.04
599.68	17.08
599.874	17.19
600.069	17.25
600.263	17.23
600.457	17.27
600.651	17.22
600.846	17.26
601.04	17.29
601.234	17.3
601.428	17.29
601.622	17.33
601.817	17.36
602.011	17.37
602.205	17.37
602.399	17.42
602.593	17.48
602.787	17.53
602.981	17.58
603.175	17.56
603.369	17.57
603.563	17.53
603.757	17.53
603.951	17.46
604.145	17.4
604.339	17.34
604.533	17.33
604.727	17.35
604.921	17.37
605.115	17.28
605.309	17.27
605.502	17.29
605.696	17.23
605.89	17.27
606.084	17.25
606.278	17.22
606.471	17.18
606.665	17.14
606.859	17.09
607.053	17.1
607.246	17.03
607.44	16.99
607.634	16.96
607.827	16.95
608.021	16.87
608.214	16.79
608.408	16.74
608.602	16.66
608.795	16.6
608.989	16.56
609.182	16.58
609.376	16.53
609.569	16.46
609.763	16.44
609.956	16.39
610.15	16.36
610.343	16.27
610.537	16.19
610.73	16.18
610.923	16.2
611.117	16.08
611.31	16.05
611.504	15.97
611.697	15.92
611.89	15.81
612.083	15.73
612.277	15.6
612.47	15.58
612.663	15.54
612.856	15.43
613.05	15.4
613.243	15.38
613.436	15.33
613.629	15.33
613.822	15.28
614.015	15.16
614.209	15.2
614.402	15.09
614.595	15.01
614.788	14.93
614.981	14.82
615.174	14.72
615.367	14.68
615.56	14.57
615.753	14.51
615.946	14.48
616.139	14.46
616.332	14.4
616.525	14.42
616.718	14.37
616.911	14.35
617.103	14.32
617.296	14.27
617.489	14.24
617.682	14.25
617.875	14.17
618.067	14.15
618.26	14.08
618.453	14.04
618.646	13.99
618.838	13.89
619.031	13.85
619.224	13.84
619.417	13.8
619.609	13.78
619.802	13.77
619.994	13.73
620.187	13.74
620.38	13.72
620.572	13.65
620.765	13.63
620.957	13.62
621.15	13.57
621.342	13.58
621.535	13.55
621.727	13.47
621.92	13.49
622.112	13.46
622.305	13.41
622.497	13.36
622.69	13.32
622.882	13.32
623.074	13.32
623.267	13.24
623.459	13.19
623.651	13.17
623.844	13.14
624.036	13.15
624.228	13.13
624.42	13.11
624.613	13.13
624.805	13.16
624.997	13.21
625.189	13.28
625.381	13.19
625.574	13.15
625.766	13.15
625.958	13.12
626.15	13.13
626.342	13.08
626.534	13.02
626.726	13.08
626.918	13.04
627.11	13.02
627.302	13.01
627.494	12.92
627.686	12.84
627.878	12.81
628.07	12.73
628.262	12.71
628.454	12.66
628.646	12.62
628.838	12.6
629.029	12.51
629.221	12.46
629.413	12.45
629.605	12.41
629.797	12.43
629.989	12.36
630.18	12.31
630.372	12.36
630.564	12.38
630.755	12.37
630.947	12.37
631.139	12.3
631.33	12.35
631.522	12.34
631.714	12.34
631.905	12.31
632.097	12.29
632.289	12.22
632.48	12.17
632.672	12.07
632.863	12.06
633.055	12
633.246	11.98
633.438	11.94
633.629	11.93
633.821	11.92
634.012	11.89
634.203	11.89
634.395	11.9
634.586	11.84
634.777	11.76
634.969	11.79
635.16	11.76
635.351	11.75
635.543	11.66
635.734	11.61
635.925	11.6
636.117	11.59
636.308	11.51
636.499	11.49
636.69	11.54
636.881	11.56
637.073	11.56
637.264	11.52
637.455	11.57
637.646	11.56
637.837	11.52
638.028	11.5
638.219	11.46
638.41	11.44
638.601	11.39
638.792	11.27
638.983	11.18
639.174	11.21
639.365	11.09
639.556	11.05
639.747	11.04
639.938	11.06
640.129	11.07
640.32	11.1
640.511	11.04
640.701	11.03
640.892	11.02
641.083	10.92
641.274	10.86
641.465	10.82
641.655	10.82
641.846	10.75
642.037	10.72
642.228	10.67
642.418	10.63
642.609	10.59
642.8	10.55
642.99	10.5
643.181	10.5
643.372	10.5
643.562	10.45
643.753	10.45
643.943	10.43
644.134	10.43
644.324	10.42
644.515	10.41
644.705	10.35
644.896	10.34
645.086	10.29
645.277	10.3
645.467	10.27
645.658	10.22
645.848	10.16
646.038	10.15
646.229	10.17
646.419	10.19
646.61	10.13
646.8	10.14
646.99	10.13
647.18	10.14
647.371	10.1
647.561	10.06
647.751	9.99
647.941	9.97
648.132	9.97
648.322	9.99
648.512	9.99
648.702	10
648.892	10.05
649.082	10.07
649.272	10.03
649.462	9.96
649.653	9.96
649.843	9.89
650.033	9.84
650.223	9.84
650.413	9.88
650.603	9.89
650.793	9.86
650.983	9.82
651.172	9.8
651.362	9.82
651.552	9.71
651.742	9.65
651.932	9.66
652.122	9.65
652.312	9.55
652.502	9.52
652.691	9.46
652.881	9.47
653.071	9.39
653.261	9.33
653.45	9.27
653.64	9.3
653.83	9.27
654.019	9.16
654.209	9.07
654.399	8.99
654.588	8.9
654.778	8.89
654.968	8.82
655.157	8.75
655.347	8.71
655.536	8.64
655.726	8.63
655.915	8.59
656.105	8.47
656.294	8.39
656.484	8.33
656.673	8.3
656.863	8.22
657.052	8.08
657.241	7.96
657.431	7.86
657.62	7.71
657.809	7.61
657.999	7.49
658.188	7.4
658.377	7.37
658.567	7.33
658.756	7.21
658.945	7.16
659.134	7.02
659.324	6.94
659.513	6.83
659.702	6.71
659.891	6.56
660.08	6.51
660.269	6.39
660.458	6.32
660.648	6.24
660.837	6.17
661.026	6.1
661.215	6.05
661.404	5.97
661.593	5.89
661.782	5.81
661.971	5.69
662.16	5.61
662.349	5.51
662.538	5.45
662.726	5.33
662.915	5.28
663.104	5.21
663.293	5.16
663.482	5.09
663.671	5.03
663.86	4.97
664.048	4.95
664.237	4.93
664.426	4.91
664.615	4.84
664.803	4.77
664.992	4.8
665.181	4.77
665.369	4.72
665.558	4.66
665.747	4.65
665.935	4.68
666.124	4.7
666.312	4.59
666.501	4.56
666.69	4.55
666.878	4.55
667.067	4.54
667.255	4.52
667.444	4.49
667.632	4.46
667.82	4.44
668.009	4.49
668.197	4.49
668.386	4.45
668.574	4.4
668.762	4.4
668.951	4.42
669.139	4.49
669.327	4.48
669.516	4.51
669.704	4.57
669.892	4.55
670.08	4.52
670.269	4.55
670.457	4.53
670.645	4.52
670.833	4.52
671.021	4.45
671.21	4.54
671.398	4.59
671.586	4.62
671.774	4.58
671.962	4.61
672.15	4.58
672.338	4.66
672.526	4.66
672.714	4.71
672.902	4.75
673.09	4.88
673.278	4.88
673.466	5.01
673.654	5
673.842	5.02
674.03	5.09
674.218	5.13
674.405	5.13
674.593	5.19
674.781	5.16
674.969	5.25
675.157	5.32
675.344	5.32
675.532	5.34
675.72	5.32
675.908	5.39
676.095	5.52
676.283	5.53
676.471	5.6
676.658	5.65
676.846	5.76
677.033	5.84
677.221	5.9
677.409	5.91
677.596	6.04
677.784	6.08
677.971	6.15
678.159	6.24
678.346	6.29
678.534	6.35
678.721	6.36
678.909	6.34
679.096	6.4
679.283	6.44
679.471	6.46
679.658	6.56
679.846	6.63
680.033	6.71
680.22	6.75
680.408	6.78
680.595	6.8
680.782	6.82
680.969	6.84
681.157	6.84
681.344	7
681.531	7.08
681.718	7.19
681.905	7.36
682.093	7.51
682.28	7.56
682.467	7.7
682.654	7.7
682.841	7.84
683.028	8.04
683.215	8.04
683.402	8.1
683.589	8.29
683.776	8.39
683.963	8.53
684.15	8.64
684.337	8.69
684.524	8.93
684.711	9.1
684.898	9.2
685.085	9.38
685.271	9.59
685.458	9.81
685.645	9.98
685.832	10.14
686.019	10.34
686.205	10.55
686.392	10.73
686.579	10.88
686.766	11.07
686.952	11.31
687.139	11.5
687.326	11.77
687.512	12.03
687.699	12.19
687.886	12.49
688.072	12.8
688.259	13.07
688.445	13.37
688.632	13.78
688.818	14.08
689.005	14.6
689.191	14.95
689.378	15.22
689.564	15.56
689.751	16.03
689.937	16.22
690.124	16.63
690.31	16.88
690.496	17.26
690.683	17.83
690.869	18.32
691.055	18.77
691.242	19.23
691.428	19.75
691.614	20.35
691.8	20.83
691.987	21.31
692.173	21.86
692.359	22.38
692.545	22.94
692.731	23.49
692.918	24.06
693.104	24.62
693.29	25.21
693.476	25.76
693.662	26.3
693.848	26.76
694.034	27.27
694.22	27.88
694.406	28.58
694.592	29.16
694.778	29.73
694.964	30.31
695.15	31.04
695.336	31.86
695.522	32.39
695.708	32.96
695.894	33.52
696.08	33.97
696.265	34.61
696.451	35.19
696.637	35.61
696.823	36.19
697.009	36.71
697.194	37.44
697.38	38.12
697.566	38.67
697.751	39.28
697.937	39.95
698.123	40.67
698.308	41.27
698.494	41.81
698.68	42.45
698.865	43.17
699.051	43.89
699.236	44.45
699.422	44.99
699.607	45.59
699.793	46.08
699.978	46.65
700.164	47.19
700.349	47.61
700.535	48.28
700.72	48.71
700.906	49.32
701.091	49.84
701.276	50.5
701.462	50.94
701.647	51.58
701.832	51.93
702.018	52.43
702.203	52.88
702.388	53.44
702.573	53.94
702.759	54.5
702.944	55.07
703.129	55.75
703.314	56.32
703.499	56.94
703.684	57.39
703.87	57.94
704.055	58.4
704.24	58.86
704.425	59.34
704.61	59.82
704.795	60.35
704.98	60.86
705.165	61.08
705.35	61.6
705.535	62.15
705.72	62.41
705.905	62.83
706.09	63.12
706.275	63.42
706.459	63.93
706.644	64.33
706.829	64.65
707.014	65.11
707.199	65.48
707.384	66.07
707.568	66.72
707.753	67.27
707.938	67.49
708.123	67.87
708.307	68.47
708.492	68.96
708.677	69.32
708.861	69.66
709.046	69.81
709.231	70.55
709.415	70.82
709.6	71.03
709.784	71.36
709.969	71.75
710.153	72.27
710.338	72.56
710.522	72.69
710.707	72.86
710.891	73.38
711.076	73.59
711.26	73.81
711.445	73.86
711.629	74.45
711.813	74.51
711.998	74.99
712.182	75.2
712.366	75.72
712.551	76.01
712.735	76.31
712.919	76.61
713.103	76.96
713.288	77.4
713.472	77.55
713.656	77.68
713.84	77.73
714.024	78.19
714.208	78.29
714.393	78.64
714.577	78.89
714.761	79.25
714.945	79.58
715.129	80
715.313	80.12
715.497	80.41
715.681	80.98
715.865	80.97
716.049	81.15
716.233	81.57
716.417	81.85
716.601	82.09
716.785	82.3
716.968	82.15
717.152	82.69
717.336	82.9
717.52	83
717.704	83.15
717.888	83.25
718.071	83.64
718.255	84.18
718.439	83.96
718.622	84.19
718.806	84.16
718.99	84.32
719.174	84.55
719.357	84.8
719.541	84.77
719.724	85.26
719.908	85.47
720.092	85.93
720.275	86.24
720.459	86.41
720.642	86.33
720.826	86.59
721.009	86.48
721.193	86.6
721.376	86.17
721.559	86.01
721.743	86.17
721.926	86.38
722.11	86.55
722.293	86.72
722.476	86.8
722.66	87.34
722.843	87.85
723.026	88.36
723.21	88.59
723.393	88.62
723.576	88.58
723.759	89.01
723.942	89.47
724.126	89.55
724.309	89.42
724.492	89.31
724.675	89.45
724.858	90.13
725.041	90.25
725.224	90.27
725.407	90.36
725.59	90.55
725.774	91
725.957	91.44
726.14	91.27
726.322	91.26
726.505	91.56
726.688	91.59
726.871	91.56
727.054	91.65
727.237	91.08
727.42	91.43
727.603	91.7
727.786	91.62
727.968	91.97
728.151	92.2
728.334	92.07
728.517	92.78
728.699	93.1
728.882	93.21
729.065	93.12
729.248	93.11
729.43	93.32
729.613	93.67
729.796	93.75
729.978	93.56
730.161	93.85
730.343	94.39
730.526	94.48
730.708	94.74
730.891	94.69
731.073	94.77
731.256	95
731.438	94.96
731.621	95.19
731.803	95.36
731.986	94.97
732.168	94.92
732.35	94.98
732.533	95.31
732.715	95.28
732.898	95.28
733.08	95.57
733.262	96
733.444	96.21
733.627	96.32
733.809	95.96
733.991	96.04
734.173	95.64
734.355	95.7
734.538	95.59
734.72	96.12
734.902	96.26
735.084	96.39
735.266	96.63
735.448	97.24
735.63	97.15
735.812	97.36
735.994	96.83
736.176	96.97
736.358	96.93
736.54	96.67
736.722	96.53
736.904	96.64
737.086	96.85
737.268	97.35
737.45	97.27
737.632	97.3
737.814	97.18
737.995	97.54
738.177	97.94
738.359	97.88
738.541	97.98
738.723	98.22
738.904	98.52
739.086	99.08
739.268	99.25
739.449	99.13
739.631	99.68
739.813	99.45
739.994	99.56
740.176	99.67
740.358	99.61
740.539	99.25
740.721	98.79
740.902	98.26
741.084	98.51
741.265	98.17
741.447	97.69
741.628	97.47
741.81	97.81
741.991	98.41
742.172	98.34
742.354	98.91
742.535	99.69
742.717	100.41
742.898	101.21
743.079	100.65
743.261	100.76
743.442	101.24
743.623	100.4
743.804	99.87
743.986	99.68
744.167	98.92
744.348	99.38
744.529	98.73
744.71	98.02
744.891	97.99
745.073	97.83
745.254	98.32
745.435	98.47
745.616	98.44
745.797	98.99
745.978	99.71
746.159	99.51
746.34	99.71
746.521	99.51
746.702	99.29
746.883	99.39
747.064	99.42
747.245	99.8
747.426	100.25
747.606	100.35
747.787	100.54
747.968	101.28
748.149	101.36
748.33	101.84
748.51	101.34
748.691	101.37
748.872	101.67
749.053	100.78
749.233	100.24
749.414	100.02
749.595	99.38
749.775	99.54
749.956	99.17
750.137	98.52
750.317	98.49
750.498	99.13
750.678	99.79
750.859	99.58
751.04	99.37
751.22	98.98
751.4	99.29
751.581	99.96
751.761	99.84
751.942	98.36
752.122	98.4
752.303	98.11
752.483	99.22
752.663	99.04
752.844	98.43
753.024	98.03
753.204	98.77
753.385	98.82
753.565	98.34
753.745	97.49
753.925	97.45
754.106	97.87
754.286	97.97
754.466	98
754.646	97.88
754.826	98.42
755.006	99.02
755.187	99.12
755.367	98.93
755.547	99.59
755.727	99.64
755.907	100.01
756.087	100.01
756.267	99.99
756.447	100.26
756.627	99.95
756.807	99.83
756.987	100.52
757.167	100.2
757.346	99.69
757.526	100.06
757.706	99.66
757.886	100.08
758.066	99.84
758.246	99.7
758.425	99.83
758.605	100.73
758.785	99.76
758.965	98.44
759.144	98.8
759.324	98.29
759.504	97.25
759.683	97.79
759.863	97.6
760.043	97.76
760.222	98.3
760.402	98.76
760.581	98.63
760.761	98.48
760.94	96.83
761.12	96.45
761.299	96.27
761.479	97.57
761.658	95.99
761.838	96.18
762.017	96.09
762.197	98
762.376	97.82
762.555	98.43
762.735	97.89
762.914	98.41
763.093	98.3
763.273	98.9
763.452	97.4
763.631	97.12
763.81	96.7
763.99	97.08
764.169	97.2
764.348	97.52
764.527	96.87
764.706	98.06
764.885	98.5
765.064	98.43
765.243	97.01
765.423	97.88
765.602	97.06
765.781	97.68
765.96	97.19
766.139	96.82
766.318	97.4
766.497	97.95
766.676	97.35
766.854	97.72
767.033	96.85
767.212	96.07
767.391	96.17
767.57	95.69
767.749	95.71
767.928	94.01
768.106	94
768.285	94.24
768.464	94.61
768.643	94.77
768.821	94.71
769	94.92
769.179	95.91
769.357	95.62
769.536	95.43
769.715	95.41
769.893	94.95
770.072	94.96
770.25	95.23
770.429	95.91
770.607	96.33
770.786	97.07
770.964	97.14
771.143	96.55
771.321	96.42
771.5	95.31
771.678	94.97
771.857	94.7
772.035	93.77
772.213	93.43
772.392	94.9
772.57	94.92
772.748	94.24
772.927	93.6
773.105	94.26
773.283	94.05
773.461	92.72
773.64	91.8
773.818	92.08
773.996	93.49
774.174	93.9
774.352	93
774.531	92.86
774.709	95.36
774.887	95.15
775.065	95.08
775.243	95.26
775.421	95.44
775.599	94.28
775.777	94.97
775.955	93.56
776.133	93.04
776.311	92.96
776.489	92.66
776.667	92.23
776.844	92.78
777.022	92.23
777.2	92.08
777.378	94.23
777.556	93.88
777.734	94.45
777.911	95.43
778.089	94.15
778.267	93.05
778.445	92.1
778.622	89.34
778.8	88.53
778.978	87.06
779.155	85.31
779.333	85.89
779.511	87.73
779.688	87.38
779.866	87.89
780.043	89.05
780.221	89.98
780.398	90.99
780.576	90.92
780.753	89.83
780.931	92.23
781.108	94.02
781.286	93.65
781.463	94.07
781.64	93.58
781.818	94.85
781.995	96.27
782.172	94.81
782.35	92.7
782.527	93.99
782.704	93.22
782.882	93.92
783.059	91.05
783.236	90.37
783.413	90.99
783.59	90.18
783.768	88.75
783.945	89.27
784.122	88.81
784.299	91.59
784.476	91.3
784.653	89.36
784.83	89.96
785.007	89.39
785.184	88.98
785.361	88.36
785.538	88.58
785.715	88.3
785.892	88.37
786.069	88.93
786.246	88.54
786.423	90.17
786.6	92.04
786.776	91.36
786.953	90.33
787.13	92.14
787.307	91.68
787.484	92.65
787.66	90.01
787.837	87.86
788.014	86.15
788.191	86.56
788.367	85.64
788.544	86.81
788.721	86.52
788.897	88.31
789.074	87.58
789.25	89.33
789.427	88.92
789.603	90.28
789.78	90.13
789.956	89.54
790.133	87.7
790.309	87.39
790.486	89.32
790.662	91.43
790.839	90.25
791.015	91.24
791.192	91.45
791.368	91.43
791.544	92.31
791.721	87.15
791.897	86.36
792.073	84.92
792.249	84.28
792.426	85.35
792.602	85.21
792.778	85.18
792.954	87.4
793.13	88.25
793.307	87.52
793.483	86.05
793.659	85.48
793.835	85.19
794.011	83.63
794.187	80.56
794.363	79.56
794.539	82.7
794.715	81.82
794.891	79.52
795.067	80.5
795.243	82.22
795.419	86.44
795.595	83.36
795.771	85.38
795.947	85.62
796.122	88.56
796.298	86.48
796.474	89.64
796.65	88.49
796.826	93.18
797.001	92.69
797.177	93.9
797.353	94.25
797.529	97.58
797.704	94.29
797.88	93.75
798.056	92.98
798.231	89.69
798.407	89.06
798.582	88.92
798.758	86.86
798.934	86.67
799.109	84.94
799.285	84.9
799.46	85.91
799.636	87.48
799.811	86.8
799.986	88.45
800.162	88
800.337	88.86
800.513	88.36
800.688	88.62
800.863	88.3
801.039	84.6
801.214	82.84
801.389	81.96
801.565	85.17
801.74	84.51
801.915	85.62
802.09	83.53
802.265	85.8
802.441	85.46
802.616	87.4
802.791	87.35
802.966	86.81
803.141	80.44
803.316	83.13
803.491	81.08
803.666	83.23
803.841	82.74
804.016	79.69
804.191	79.29
804.366	83.72
804.541	80.97
804.716	80.83
804.891	83.91
805.066	84.8
805.241	84.62
805.416	82.13
805.591	81.49
805.765	81.4
805.94	84.27
806.115	74.04
806.29	73.89
806.464	75.75
806.639	80.05
806.814	77.84
806.989	79.09
807.163	77.93
807.338	83
807.512	80.28
807.687	80.21
807.862	73.83
808.036	74.92
808.211	77.71
808.385	73.92
808.56	78.11
808.734	77.52
808.909	76.91
809.083	83.07
809.258	85.76
809.432	79.42
809.606	83.06
809.781	79.53
809.955	79.06
810.13	78.55
810.304	72.97
810.478	70.17
810.652	75.04
810.827	74.35
811.001	74.38
811.175	72.6
811.349	74.66
811.524	74.3
811.698	78.03
811.872	79.1
812.046	75.67
812.22	76.59
812.394	76.88
812.568	74.39
812.742	76.14
812.916	75.17
813.09	70.96
813.264	78.53
813.438	82.81
813.612	84.59
813.786	89.87
813.96	92.13
814.134	86.46
814.308	85.3
814.482	82.71
814.656	79.25
814.83	81.17
815.003	77.45
815.177	80.49
815.351	82.64
815.525	81.39
815.698	83.8
815.872	78.53
816.046	77.32
816.219	79.67
816.393	71.94
816.567	71.25
816.74	72.84
816.914	69.72
817.088	75.62
817.261	72.34
817.435	67.64
817.608	71.73
817.782	73.6
817.955	76.61
818.129	83.06
818.302	83.33
818.475	90.97
818.649	90.93
818.822	94.91
818.996	94.72
819.169	94.03
819.342	83.49
819.516	79.12
819.689	78.18
819.862	75.68
820.035	68.22
820.209	63.35
820.382	61.14
820.555	65.37
820.728	63.51
820.901	61.97
821.075	64.32
821.248	65.54
821.421	68.38
821.594	69.2
821.767	69.11
821.94	64.3
822.113	64.87
822.286	64.59
822.459	69.59
822.632	72.68
822.805	72.95
822.978	67.25
823.151	75.17
823.324	70.47
823.496	64.31
823.669	64.45
823.842	64.17
824.015	58.35
824.188	65.04
824.361	58.89
824.533	57.91
824.706	70.32
824.879	74.11
825.051	74.15
825.224	74.53
825.397	67.24
825.569	75.82
825.742	77.92
825.915	72.14
826.087	64.77
826.26	64.2
826.432	68.21
826.605	69.25
826.777	64.94
826.95	61.58
827.122	63.27
827.295	67.53
827.467	56.25
827.64	48.8
827.812	46.01
827.984	49.47
828.157	55.26
828.329	57.05
828.501	57.7
828.674	65.15
828.846	69.38
829.018	72.68
829.19	71.47
829.363	75.84
829.535	72.32
829.707	61.3
829.879	64.74
830.051	66.58
830.223	61.45
830.395	55.4
830.568	59.89
830.74	61.37
830.912	65.46
831.084	60.48
831.256	57.46
831.428	60.08
831.6	61.17
831.772	55.4
831.943	62.73
832.115	74.04
832.287	81.27
832.459	91.35
832.631	92.58
832.803	108.34
832.975	101.26
833.146	91.63
833.318	87.17
833.49	83.49
833.662	77.09
833.833	79.88
834.005	69.95
834.177	77.74
834.348	74.44
834.52	71.47
834.692	72.24
834.863	75.64
835.035	62.99
835.206	62.54
835.378	60.89
835.549	61.85
835.721	57.84
835.892	55.41
836.064	60.6
836.235	69.47
836.407	61.54
836.578	63.19
836.749	61.53
836.921	68.71
837.092	74.01
837.264	57.08
837.435	42.06
837.606	55.95
837.777	45.07
837.949	42.37
838.12	37.14
838.291	40.74
838.462	49.13
838.633	54.71
838.805	47.77
838.976	49.2
839.147	55.52
839.318	47.65
839.489	41.08
839.66	39.32
839.831	34.83
840.002	34.56
840.173	28.55
840.344	23.4
840.515	20.84
840.686	20.34
840.857	11.16
841.028	24.61
841.199	22.41
841.369	23.4
841.54	19.58
841.711	34.56
841.882	27.71
842.053	30.82
842.223	22.89
842.394	24.98
842.565	38.71
842.736	58.09
842.906	65.71
843.077	67.32
843.248	71.75
843.418	73.91
843.589	79.75
843.759	79.42
843.93	77.42
844.101	73.91
844.271	77.13
844.442	76.45
844.612	62.87
844.783	47.69
844.953	35.28
845.123	30.94
845.294	22.44
845.464	34.86
845.635	25.21
845.805	47.37
845.975	54.71
846.146	59.67
846.316	70.14
846.486	69.06
846.656	68.32
846.827	77.33
846.997	81.69
847.167	82.67
847.337	84.11
847.507	76.29
847.677	82.33
847.848	82.57
848.018	78.79
848.188	63.49
848.358	75.21
848.528	85.99
848.698	72.54
848.868	58.08
849.038	55.9
849.208	56.48
849.378	51.66
849.548	37.32
849.718	28.54
849.887	26.66
850.057	30.81
850.227	31.68
850.397	27.27
850.567	43.13
850.737	45.52
850.906	53.16
851.076	51.7
851.246	61.6
851.415	71.81
851.585	71.22
851.755	62.39
851.924	65.42
852.094	56.81
852.264	56.73
852.433	61.19
852.603	51.76
852.772	48.73
852.942	41.16
853.111	48
853.281	42.37
853.45	46.98
853.62	43.81
853.789	38.34
853.959	44.67
854.128	29.37
854.297	16.86
854.467	23.43
854.636	21.72
854.805	20.87
854.975	28.03
855.144	39.83
855.313	72.59
855.482	74.07
855.652	82.11
855.821	83.24
855.99	100.99
856.159	91.65
856.328	67.78
856.497	52.96
856.667	59.46
856.836	57.01
857.005	56.08
857.174	50.91
857.343	52.05
857.512	57.49
857.681	50.45
857.85	44.83
858.019	47.19
858.188	53.65
858.356	37.08
858.525	52.61
858.694	63.7
858.863	62.33
859.032	52.7
859.201	38.78
859.369	35.47
859.538	29.8
859.707	27.49
859.876	21.5
860.044	20.18
860.213	19.64
860.382	39.59
860.55	50.63
860.719	67.01
860.888	49.79
861.056	48.15
861.225	67.44
861.393	68.33
861.562	46.31
861.73	42.08
861.899	10.95
862.067	31.42
862.236	29.7
862.404	21.8
862.572	14.83
862.741	22.65
862.909	24.53
863.078	33.08
863.246	23.4
863.414	19.99
863.582	7.33
863.751	15.88
863.919	34.84
864.087	19.63
864.255	25.35
864.424	33.3
864.592	35.33
864.76	51.8
864.928	57.6
865.096	41.8
865.264	51.35
865.432	55.34
865.6	43.74
865.768	33.5
865.936	28.21
866.104	33.41
866.272	40.32
866.44	14.62
866.608	-1.82
866.776	34.09
866.944	35.88
867.112	19.45
867.28	-26.68
867.448	-4.11
867.615	27.61
867.783	9.96
867.951	-16.21
868.119	15.25
868.286	-4.42
868.454	19.63
868.622	16.43
868.789	30.89
868.957	59.83
869.125	51.2
869.292	55.62
869.46	62.37
869.627	73.48
869.795	53.86
869.963	37.01
870.13	37.5
870.298	47.38
870.465	24.79
870.632	68.46
870.8	35.05
870.967	34.85
871.135	39.21
871.302	29.43
871.469	22.21
871.637	24.41
871.804	23.09
871.971	35.55
872.139	45.38
872.306	42.15
872.473	35.72
872.64	61.34
872.807	74.14
872.975	84.9
873.142	71.67
873.309	74.45
873.476	159.99
873.643	178.6
873.81	80.27
873.977	47.54
874.144	8.62
874.311	18.28
874.478	-40.67
874.645	-71.01
874.812	-34.96
874.979	-31.82
875.146	-71.22
875.313	-127.81
875.48	-65.13
875.647	-64.81
875.813	-41.31
875.98	-27.61
876.147	22.92
876.314	35.35
876.481	29.7
876.647	36.86
876.814	58.79
876.981	54.56
877.147	43.7
877.314	53.27
877.481	55.25
877.647	69.17
877.814	56.06
877.98	53.89
878.147	52.58
878.314	52.12
878.48	36.83
878.647	50.55
878.813	42.7
878.979	49.2
879.146	19.69
879.312	39.73
879.479	59.74
879.645	33.07
879.811	20.36
879.978	25.85
880.144	42.57
880.31	63.06
880.477	0.37
880.643	-89.51
880.809	34.12
880.975	4.45
881.142	38
881.308	7.86
881.474	46.35
881.64	25.95
881.806	28.11
881.972	45.44
882.138	21.04
882.304	-30.32
882.47	-13.44
882.636	-27.05
882.802	-37.8
882.968	-86.53
883.134	-345.78
883.3	-94.69
883.466	-20.07
883.632	-24.28
883.798	-53.33
883.964	-12.66
884.129	4.97
884.295	32.23
884.461	-1.16
884.627	-49.97
884.793	-9.06
884.958	13.88
885.124	-26.86
885.29	-22.69
885.455	-41.44
885.621	-21.32
885.787	-27.45
885.952	-35.15
886.118	-30.12
886.283	-0.7
886.449	-17.56
886.614	-18.33
886.78	12.65
886.945	30.52
887.111	41.94
887.276	39.79
887.442	38.63
887.607	17.49
887.773	24.39
887.938	22.03
888.103	18.96
888.269	3.65
888.434	-7.83
888.599	14.46
888.764	44.78
888.93	54.76
889.095	40.4
889.26	60.85
889.425	69.22
889.59	36.78
889.756	14.41
889.921	-14
890.086	-19.14
890.251	-30.28
890.416	-84.44
890.581	-41.26
890.746	-14.68
890.911	-58.15
891.076	-100.47
891.241	-160.68
891.406	-9.39
891.571	4.11
891.736	-10.68
891.901	4.81
892.065	37.94
892.23	46.04
892.395	57.04
892.56	32.55
892.725	44.87
892.889	4.63
893.054	-42.62
893.219	-112.5
893.384	-152.25
893.548	-529.17
893.713	823.51
893.878	492.39
