Data from Ofra_PS_T2_2A_2GT31_Reflection_1.txt Node
Date: Wed Jul 21 17:02:38 EDT 2021
User: Adam
Spectrometer: FLMT01687
Trigger mode: 0
Integration Time (sec): 1.100000E0
Scans to average: 2
Electric dark correction enabled: true
Nonlinearity correction enabled: false
Boxcar width: 2
XAxis mode: Wavelengths
Number of Pixels in Spectrum: 3648
>>>>>Begin Spectral Data<<<<<
179.494	483.4
179.716	560.94
179.937	535.94
180.158	519.81
180.38	757.66
180.601	288.54
180.823	123.59
181.044	51.3
181.265	361.95
181.486	164.14
181.708	149.02
181.929	484.18
182.15	113.73
182.372	221.88
182.593	130.57
182.814	43.85
183.035	71.43
183.257	34.36
183.478	-61.97
183.699	-6.79
183.92	-4.83
184.141	-4.3
184.363	-75.5
184.584	15.7
184.805	14.14
185.026	50.43
185.247	60.27
185.468	69.29
185.689	67.98
185.91	56.85
186.132	34.44
186.353	23.33
186.574	50.37
186.795	21.7
187.016	-3.28
187.237	-7.03
187.458	-35.45
187.679	-52.22
187.9	0.93
188.121	9.15
188.342	23.07
188.563	52.38
188.784	99.73
189.005	63.62
189.226	114.11
189.447	101.08
189.667	31.92
189.888	-292.73
190.109	-818.51
190.33	-600.16
190.551	-1051.55
190.772	-212.17
190.993	-102.45
191.214	-142.85
191.434	-106.14
191.655	-9.6
191.876	-50.67
192.097	-121.72
192.318	-121.77
192.538	-147.87
192.759	-140.17
192.98	-50.82
193.201	0.26
193.421	7.81
193.642	25.43
193.863	27.56
194.083	7.59
194.304	-12.65
194.525	1.2
194.745	-16.93
194.966	-28.88
195.187	-38.69
195.407	-53.36
195.628	-129.87
195.848	-109.87
196.069	-88.25
196.29	-26.17
196.51	-36.07
196.731	-33.69
196.951	-70.55
197.172	-112.62
197.392	-151.31
197.613	-147.39
197.833	-147.46
198.054	-109.93
198.274	-42.88
198.495	-60.8
198.715	-24.98
198.936	-41.66
199.156	-36.05
199.377	-139.6
199.597	-100.48
199.817	-109.81
200.038	-45.08
200.258	-82.68
200.479	-10.49
200.699	-38.21
200.919	-29.03
201.14	-33.63
201.36	-30.75
201.58	8.36
201.801	31.22
202.021	16.31
202.241	-2.62
202.461	-12.36
202.682	-100.15
202.902	-168.78
203.122	-106.72
203.342	-88.4
203.563	-38.44
203.783	-3.1
204.003	-17.87
204.223	-31.37
204.443	47.7
204.663	35.19
204.884	28.54
205.104	52.7
205.324	103.24
205.544	76.32
205.764	74.54
205.984	70.92
206.204	67.16
206.424	48.28
206.644	10.95
206.864	16.35
207.084	-9.83
207.304	-6.05
207.525	-126.64
207.745	-16.37
207.964	23.33
208.184	-24.66
208.404	-55.47
208.624	-43.88
208.844	-53.59
209.064	-300.75
209.284	-251.88
209.504	-108.11
209.724	-15.63
209.944	0.94
210.164	37.89
210.384	28.6
210.604	29.31
210.823	-1.07
211.043	-34.99
211.263	-39.66
211.483	-22.91
211.703	-73.67
211.922	-49.24
212.142	9.76
212.362	48.22
212.582	31.4
212.801	35.59
213.021	2.33
213.241	6.92
213.461	-49.81
213.68	-91.85
213.9	-77.14
214.12	-36.81
214.339	-98.67
214.559	-78.21
214.779	4.21
214.998	14.57
215.218	-0.02
215.438	24.31
215.657	30.2
215.877	29.61
216.096	40.1
216.316	46.45
216.535	17.79
216.755	8.4
216.974	-84.07
217.194	-148.35
217.413	-175.55
217.633	-172.22
217.852	-270.68
218.072	-120.68
218.291	-69.84
218.511	-19.91
218.73	-29.98
218.95	-20.69
219.169	-25.86
219.389	-53.62
219.608	-44.46
219.827	-30.29
220.047	-24.71
220.266	-12.26
220.485	-4.95
220.705	-6.37
220.924	-19.76
221.143	17.96
221.363	-1.52
221.582	3.05
221.801	-2.32
222.021	4.79
222.24	-89.7
222.459	-68.72
222.678	-79.36
222.897	-97.82
223.117	-119.12
223.336	-78.36
223.555	-23.36
223.774	39.16
223.993	68.71
224.213	128.54
224.432	93.4
224.651	64.86
224.87	24.52
225.089	29.04
225.308	13.13
225.527	42.65
225.746	60.54
225.965	67.51
226.184	59.1
226.404	45.19
226.623	8.98
226.842	-12.35
227.061	0.14
227.28	8.81
227.499	3.28
227.718	30.83
227.936	36.73
228.155	62.6
228.374	42.37
228.593	37.23
228.812	28.11
229.031	12.31
229.25	-43.62
229.469	-27
229.688	-38.8
229.907	-2.76
230.125	24.42
230.344	36.28
230.563	34.11
230.782	34.99
231.001	-27.46
231.22	-30.81
231.438	-14.03
231.657	-16
231.876	-35.43
232.095	2.52
232.313	4.33
232.532	-20.49
232.751	-33.81
232.969	-21.77
233.188	-62.15
233.407	-30.03
233.625	-10.66
233.844	-21.15
234.063	-6.22
234.281	20.15
234.5	15.92
234.719	18.9
234.937	46.47
235.156	49.42
235.374	44.55
235.593	38.12
235.811	26.75
236.03	7.25
236.249	-29.41
236.467	-17.72
236.686	12.77
236.904	24.79
237.123	8.99
237.341	12.44
237.559	11.08
237.778	3.03
237.996	-22.87
238.215	18.7
238.433	26.46
238.652	9.38
238.87	-16.6
239.088	0.71
239.307	0.36
239.525	-12.73
239.743	-16.95
239.962	3.86
240.18	-10.25
240.398	-61.53
240.617	-67.86
240.835	-55.76
241.053	-38.92
241.271	0.28
241.49	17.82
241.708	13.96
241.926	23.46
242.144	21.68
242.363	-41.04
242.581	-52.85
242.799	-23.29
243.017	-5.23
243.235	-20.74
243.453	9.88
243.672	19.68
243.89	18.29
244.108	3.64
244.326	23.06
244.544	13.87
244.762	8.72
244.98	21.36
245.198	35.07
245.416	19.1
245.634	17.08
245.852	-0.26
246.07	-20.58
246.288	-19.62
246.506	-50.08
246.724	-48.17
246.942	-22.96
247.16	4.18
247.378	10.43
247.596	31.46
247.814	31.28
248.032	10.95
248.25	17.79
248.468	18.72
248.685	44.27
248.903	60.44
249.121	64.64
249.339	29.81
249.557	10.15
249.775	-2.42
249.992	-60.75
250.21	-47.41
250.428	-22.99
250.646	-33.92
250.863	-53.97
251.081	-19.95
251.299	-26.68
251.517	-9.86
251.734	4.1
251.952	1.26
252.17	0.49
252.387	8.33
252.605	3.82
252.823	5.38
253.04	28
253.258	49.35
253.475	54.69
253.693	59.33
253.911	58.63
254.128	57.92
254.346	57.4
254.563	32.11
254.781	24.58
254.998	13.68
255.216	-13.65
255.433	-16.86
255.651	32.97
255.868	43.28
256.086	71.93
256.303	86.25
256.521	80.03
256.738	43.61
256.956	9.61
257.173	-19.63
257.39	-26.11
257.608	-46.83
257.825	4.3
258.043	36.22
258.26	54.04
258.477	53.21
258.695	49.33
258.912	7.36
259.129	16.3
259.346	-11.14
259.564	-19.55
259.781	-38.1
259.998	-10.18
260.216	9.62
260.433	18.56
260.65	28.68
260.867	42.47
261.084	26.33
261.302	2.22
261.519	-3.2
261.736	-39
261.953	-51.8
262.17	7.56
262.387	-20.04
262.604	-42.44
262.822	-50.77
263.039	-36.65
263.256	-104.22
263.473	-60.14
263.69	-37.36
263.907	-1.09
264.124	6.03
264.341	5.15
264.558	8.21
264.775	23.4
264.992	16.86
265.209	11.48
265.426	33.98
265.643	35.95
265.86	43.13
266.077	49.62
266.294	32.3
266.51	-2.63
266.727	-31.93
266.944	-48.15
267.161	-64.32
267.378	-65.35
267.595	-32.3
267.812	-44.68
268.028	-55.65
268.245	-19.42
268.462	-30.43
268.679	-33.59
268.896	31.09
269.112	35.59
269.329	28.44
269.546	44.28
269.763	34.74
269.979	6.58
270.196	1.86
270.413	-31.73
270.629	-65.68
270.846	-65.02
271.063	-56.41
271.279	-73.72
271.496	-49.63
271.712	2.84
271.929	11.26
272.146	-0.29
272.362	2.16
272.579	43.41
272.795	35
273.012	32.69
273.228	40.96
273.445	45.19
273.661	-7.59
273.878	-54.77
274.094	-52.52
274.311	-76.91
274.527	-10.23
274.744	14.44
274.96	24.65
275.177	27.89
275.393	28.33
275.609	12.84
275.826	24.92
276.042	17.63
276.259	-6.29
276.475	18.53
276.691	11.14
276.908	-11.58
277.124	8.36
277.34	17.39
277.557	-6.69
277.773	-15.5
277.989	-16.89
278.205	-25.69
278.422	2.68
278.638	15.11
278.854	40.25
279.07	35.87
279.286	27.85
279.503	-10.22
279.719	-41.87
279.935	-57.49
280.151	-50.92
280.367	-31.84
280.583	-61.26
280.799	-23.22
281.016	-49.3
281.232	-21.23
281.448	-13.63
281.664	25.95
281.88	8.75
282.096	20.45
282.312	32.96
282.528	51.25
282.744	63.44
282.96	53.24
283.176	36.69
283.392	25.98
283.608	15.4
283.824	-6.52
284.04	-1.93
284.256	12.99
284.471	1.15
284.687	-8.26
284.903	24.24
285.119	44.55
285.335	32.87
285.551	44.05
285.767	24.12
285.982	-4.07
286.198	-33.14
286.414	-3.66
286.63	13.14
286.846	45.15
287.061	34.66
287.277	47.6
287.493	31.89
287.709	35.04
287.924	12.35
288.14	40.93
288.356	41.1
288.571	45.37
288.787	35.64
289.003	25.89
289.218	11.68
289.434	-19.56
289.65	2.16
289.865	-2.67
290.081	27.46
290.296	28.97
290.512	37.13
290.727	-7.04
290.943	-9.17
291.159	-22.92
291.374	-24.05
291.59	-32.64
291.805	-17.78
292.021	-10.27
292.236	-8.44
292.451	4.66
292.667	2.54
292.882	17.19
293.098	14.82
293.313	5.09
293.529	-23.81
293.744	-19.28
293.959	-28.9
294.175	-30.11
294.39	3.96
294.605	15.3
294.821	33.84
295.036	27.65
295.251	36.22
295.467	16.12
295.682	16.88
295.897	-23.41
296.112	-23.6
296.328	-28.31
296.543	-64.36
296.758	-53.46
296.973	-12.13
297.188	20.58
297.404	-1.01
297.619	5.87
297.834	-3.27
298.049	-18.61
298.264	-45.5
298.479	7.51
298.694	10.78
298.909	21.22
299.125	26.19
299.34	35.11
299.555	10.15
299.77	28.63
299.985	-19.1
300.2	-70.22
300.415	-87.13
300.63	-44.28
300.845	-46.43
301.06	-27.27
301.275	3.4
301.49	21.51
301.704	3.39
301.919	-11.86
302.134	-11.84
302.349	-15.09
302.564	-53.25
302.779	-79.98
302.994	-74.33
303.209	-34.39
303.423	-2.79
303.638	23.77
303.853	1.33
304.068	12.96
304.283	5.94
304.497	9.75
304.712	14.4
304.927	18.34
305.142	7.01
305.356	17.33
305.571	1.44
305.786	-13.81
306	-26
306.215	-19.55
306.43	-53.46
306.644	-28.16
306.859	8.57
307.074	21.97
307.288	-12.58
307.503	-12.79
307.717	-18.24
307.932	-20.06
308.147	-16.66
308.361	24.19
308.576	22.94
308.79	-4.4
309.005	4.82
309.219	26.11
309.434	11.99
309.648	12.68
309.863	30.66
310.077	26.76
310.292	9.36
310.506	1.2
310.72	15.39
310.935	29.54
311.149	24.75
311.364	41.23
311.578	56.42
311.792	48.45
312.007	46.13
312.221	32.25
312.435	25.76
312.649	12.09
312.864	44.46
313.078	45.39
313.292	97.59
313.507	80.77
313.721	72.83
313.935	34.89
314.149	15.7
314.363	-2.84
314.578	-6.76
314.792	7.35
315.006	-2.6
315.22	20.4
315.434	34.95
315.648	45.5
315.862	44.36
316.077	36.34
316.291	32.66
316.505	27.85
316.719	17.52
316.933	10.79
317.147	18.74
317.361	-41.68
317.575	-68.22
317.789	-65.07
318.003	-125.76
318.217	-92.18
318.431	-25.48
318.645	18.79
318.859	8.03
319.073	35.7
319.287	19.26
319.5	-2.92
319.714	-33.73
319.928	-59.06
320.142	-83.42
320.356	-31.52
320.57	2.06
320.784	-7.8
320.997	-1.39
321.211	3.63
321.425	-44.66
321.639	-53.09
321.853	-8.58
322.066	12.93
322.28	-4.93
322.494	7.22
322.707	17.84
322.921	2.6
323.135	-1.27
323.349	18.91
323.562	7.47
323.776	-10.65
323.989	3.78
324.203	-32.32
324.417	-38.99
324.63	-53.29
324.844	-48.65
325.057	-46.49
325.271	-7
325.485	15.47
325.698	37.56
325.912	56.28
326.125	17.99
326.339	12.25
326.552	-7.56
326.766	-9.4
326.979	-16.47
327.193	32.53
327.406	33.92
327.619	14.55
327.833	27.72
328.046	6.01
328.26	-13.88
328.473	8.44
328.686	10.55
328.9	-5.12
329.113	19
329.326	-5.73
329.54	-13.99
329.753	-10.98
329.966	-55.73
330.179	-57.14
330.393	-32.01
330.606	-25.29
330.819	-10.1
331.032	13.43
331.246	20.6
331.459	49.55
331.672	39.47
331.885	33.66
332.098	25.38
332.311	24.71
332.525	-17.88
332.738	-9.84
332.951	11.76
333.164	26.49
333.377	33.81
333.59	48.2
333.803	52.18
334.016	38.9
334.229	31.34
334.442	28.16
334.655	13.67
334.868	26.7
335.081	35.37
335.294	17.96
335.507	13.47
335.72	15.38
335.933	2.21
336.146	-8.96
336.359	-5.42
336.572	-39.88
336.785	-60.31
336.997	-55.78
337.21	-30.09
337.423	-28.6
337.636	-16.37
337.849	-8.03
338.062	-20.78
338.274	-28.75
338.487	-28.74
338.7	-17.94
338.913	-31.59
339.125	-48.54
339.338	-81.84
339.551	-56.57
339.763	-36.93
339.976	-13.67
340.189	24.35
340.402	41.19
340.614	11.22
340.827	-8.48
341.039	-32.05
341.252	-41.61
341.465	-32
341.677	-24.51
341.89	-53.51
342.102	-11.65
342.315	-22.46
342.527	-59.26
342.74	-41.07
342.952	-19.61
343.165	-29.76
343.377	-6.22
343.59	3.96
343.802	11.65
344.015	32.64
344.227	39.13
344.44	24.8
344.652	27.56
344.864	17.61
345.077	18.55
345.289	21.7
345.502	21.07
345.714	9.45
345.926	21.83
346.139	17.84
346.351	25.86
346.563	44.98
346.775	62.58
346.988	46.07
347.2	35.87
347.412	-10.28
347.624	-42.38
347.837	-81.16
348.049	-57.55
348.261	-17.45
348.473	-1.51
348.685	-6.76
348.897	-4.73
349.11	-28.11
349.322	-69.66
349.534	-61.99
349.746	-62.86
349.958	-46.72
350.17	-41.15
350.382	0.5
350.594	-0.19
350.806	13.53
351.018	0.67
351.23	2.61
351.442	-47.87
351.654	-29.35
351.866	-32.37
352.078	-9.07
352.29	-9.43
352.502	5.51
352.714	10.75
352.926	-1.24
353.138	-2.37
353.35	0.23
353.561	-3.05
353.773	-24.53
353.985	-1.19
354.197	-6.82
354.409	-9.25
354.621	-7.36
354.832	0.11
355.044	-3.58
355.256	-6.36
355.468	-1.48
355.679	-3.05
355.891	1
356.103	-19.39
356.314	-8.49
356.526	1.07
356.738	-0.38
356.949	-13.21
357.161	-5.88
357.373	-9.52
357.584	-20.52
357.796	-4.99
358.008	-0.14
358.219	21.48
358.431	20.89
358.642	38.45
358.854	28.17
359.065	20.25
359.277	-11.61
359.488	-12.42
359.7	-50.81
359.911	-60.69
360.123	-44.52
360.334	-56.58
360.546	-70.51
360.757	-54.56
360.969	-41.81
361.18	-32.74
361.391	-3.87
361.603	-12.23
361.814	-7.36
362.025	-1.04
362.237	-5.98
362.448	-1.72
362.659	17.38
362.871	15.5
363.082	7.11
363.293	3.24
363.504	-7.84
363.716	-27.42
363.927	-32.3
364.138	-40.87
364.349	-24.48
364.56	-15.42
364.772	-4.87
364.983	15.55
365.194	15.66
365.405	12.45
365.616	30.5
365.827	22.14
366.038	-13.32
366.25	-11.4
366.461	-35.76
366.672	-34.68
366.883	-12.89
367.094	7.38
367.305	-1.95
367.516	1.26
367.727	-25.33
367.938	-45.45
368.149	-43.92
368.36	-21.59
368.571	-17.68
368.781	-23.29
368.992	-22.92
369.203	-41.68
369.414	-65.03
369.625	-66.54
369.836	-53.81
370.047	-73.89
370.258	-61.64
370.468	-58.82
370.679	-56.4
370.89	-56.24
371.101	-28.81
371.312	-29.87
371.522	-16.04
371.733	-15.5
371.944	2.67
372.155	-1.35
372.365	-1.95
372.576	4.2
372.787	1.07
372.997	-13.78
373.208	-11.61
373.419	13.37
373.629	-23.05
373.84	-27.43
374.05	-44.45
374.261	-34.49
374.472	-61.4
374.682	-7.41
374.893	4.05
375.103	42.83
375.314	35.16
375.524	26.7
375.735	15.97
375.945	15.66
376.156	-13.94
376.366	-15.02
376.577	-1.15
376.787	-17.9
376.997	-10.71
377.208	-16.07
377.418	-24.8
377.629	-16.68
377.839	-7.11
378.049	-13.17
378.26	10.42
378.47	23.24
378.68	13.55
378.89	5.66
379.101	3.1
379.311	-24.48
379.521	-56.06
379.732	-58.09
379.942	-44.62
380.152	-52.36
380.362	-20.84
380.572	-16.13
380.783	-7.44
380.993	7.18
381.203	17.87
381.413	22.28
381.623	33.21
381.833	27.65
382.043	11.9
382.253	5.1
382.463	2.3
382.674	-8.04
382.884	-19.82
383.094	-17.39
383.304	-9.44
383.514	-10.02
383.724	2.48
383.934	5.32
384.144	-4.66
384.353	-21.22
384.563	-23.06
384.773	-25.07
384.983	-31.61
385.193	-7.12
385.403	0.3
385.613	5.23
385.823	-0.79
386.033	6.73
386.242	-3.74
386.452	-1.64
386.662	-9.54
386.872	7.98
387.082	-1.58
387.291	-0.68
387.501	-0.97
387.711	6.87
387.921	-6.49
388.13	-5.73
388.34	2.77
388.55	-1.79
388.759	-4.31
388.969	-1.37
389.179	0.19
389.388	-1.88
389.598	4.59
389.807	1.54
390.017	-4
390.227	-3.32
390.436	-9.17
390.646	-11.7
390.855	-8.58
391.065	-3.72
391.274	-4.03
391.484	-2.85
391.693	-0.13
391.903	0.47
392.112	3.41
392.322	4.78
392.531	9.68
392.74	8.28
392.95	3.6
393.159	1.6
393.369	2.71
393.578	-0.22
393.787	-0.33
393.997	3.66
394.206	2.94
394.415	2.67
394.625	3.38
394.834	1.76
395.043	1.94
395.252	3.89
395.462	4.76
395.671	5.65
395.88	6.77
396.089	7.44
396.298	6
396.508	5.17
396.717	4.59
396.926	5.42
397.135	4.48
397.344	4.46
397.553	5.15
397.762	6.19
397.971	6.26
398.181	6.71
398.39	6.67
398.599	6.58
398.808	6.34
399.017	6.92
399.226	7.92
399.435	8.48
399.644	8.68
399.853	7.71
400.062	7.21
400.27	6.21
400.479	6.04
400.688	5.33
400.897	5.85
401.106	5.76
401.315	5.79
401.524	5.59
401.733	5.92
401.941	6.25
402.15	6.55
402.359	6.39
402.568	6.78
402.777	7.25
402.985	6.95
403.194	6.84
403.403	6.75
403.612	6.27
403.82	5.8
404.029	6.14
404.238	5.85
404.446	6.27
404.655	6.12
404.864	6.25
405.072	5.85
405.281	5.93
405.489	5.48
405.698	5.56
405.906	5.46
406.115	5.45
406.324	5.71
406.532	6
406.741	6.27
406.949	6.17
407.158	6.15
407.366	5.99
407.574	5.97
407.783	5.98
407.991	5.97
408.2	6.08
408.408	6.09
408.617	5.94
408.825	5.75
409.033	5.77
409.242	5.76
409.45	5.7
409.658	5.63
409.867	5.72
410.075	5.6
410.283	5.38
410.491	5.35
410.7	5.32
410.908	5.31
411.116	5.51
411.324	5.59
411.533	5.4
411.741	5.55
411.949	5.5
412.157	5.38
412.365	5.43
412.573	5.51
412.781	5.64
412.99	5.49
413.198	5.55
413.406	5.5
413.614	5.46
413.822	5.19
414.03	5.18
414.238	5.13
414.446	5.14
414.654	4.97
414.862	4.96
415.07	5
415.278	5.01
415.486	4.95
415.694	5.08
415.902	4.97
416.109	4.84
416.317	4.82
416.525	4.66
416.733	4.78
416.941	5.02
417.149	5.1
417.357	5.12
417.564	5.19
417.772	5.29
417.98	5.1
418.188	4.99
418.395	4.9
418.603	5.08
418.811	4.65
419.019	4.53
419.226	4.71
419.434	4.88
419.642	4.57
419.849	4.87
420.057	4.94
420.265	4.9
420.472	4.47
420.68	4.55
420.887	4.42
421.095	4.57
421.302	4.58
421.51	4.9
421.717	5.09
421.925	5.05
422.132	4.78
422.34	4.43
422.547	4.39
422.755	4.26
422.962	4.19
423.17	4.17
423.377	4.29
423.585	4.29
423.792	4.16
423.999	4.2
424.207	4.18
424.414	4.32
424.621	4.21
424.829	4.2
425.036	4.17
425.243	4.46
425.451	4.35
425.658	4.26
425.865	4.47
426.072	4.55
426.28	4.76
426.487	4.79
426.694	4.81
426.901	4.6
427.108	4.61
427.315	4.33
427.523	4.57
427.73	4.65
427.937	4.73
428.144	4.58
428.351	4.55
428.558	4.48
428.765	4.39
428.972	4.46
429.179	4.67
429.386	4.86
429.593	4.61
429.8	4.56
430.007	4.76
430.214	4.82
430.421	4.77
430.628	4.71
430.835	4.73
431.042	4.76
431.249	4.73
431.456	4.71
431.662	4.97
431.869	5.17
432.076	5.16
432.283	5.25
432.49	5.24
432.697	5.2
432.903	5.04
433.11	4.97
433.317	4.85
433.524	4.96
433.73	4.97
433.937	5.22
434.144	5.17
434.35	5.33
434.557	5.21
434.764	5.29
434.97	5.2
435.177	5.29
435.384	5.21
435.59	5.28
435.797	5.38
436.003	5.4
436.21	5.36
436.416	5.44
436.623	5.35
436.829	5.39
437.036	5.53
437.242	5.59
437.449	5.5
437.655	5.68
437.862	5.66
438.068	5.61
438.275	5.74
438.481	6.05
438.687	6.04
438.894	6.02
439.1	6.1
439.307	6.08
439.513	5.88
439.719	5.83
439.926	5.86
440.132	5.85
440.338	5.79
440.544	5.97
440.751	6.01
440.957	6.06
441.163	5.95
441.369	6.06
441.575	5.84
441.782	5.9
441.988	5.87
442.194	5.91
442.4	5.86
442.606	6.14
442.812	6.24
443.018	6.28
443.224	6.39
443.431	6.53
443.637	6.38
443.843	6.28
444.049	6.33
444.255	6.24
444.461	6.27
444.667	6.26
444.873	6.36
445.079	6.35
445.284	6.44
445.49	6.15
445.696	6.12
445.902	6.1
446.108	6.02
446.314	6.04
446.52	6.24
446.726	6.47
446.931	6.48
447.137	6.67
447.343	6.74
447.549	6.69
447.755	6.52
447.96	6.5
448.166	6.42
448.372	6.34
448.578	6.43
448.783	6.48
448.989	6.59
449.195	6.71
449.4	6.72
449.606	6.71
449.812	6.62
450.017	6.62
450.223	6.52
450.428	6.47
450.634	6.59
450.84	6.73
451.045	6.73
451.251	6.66
451.456	6.91
451.662	6.97
451.867	7.11
452.073	7.14
452.278	7.34
452.483	7.44
452.689	7.4
452.894	7.35
453.1	7.32
453.305	7.27
453.51	7.11
453.716	6.95
453.921	7
454.127	7.03
454.332	6.99
454.537	6.92
454.742	6.93
454.948	6.84
455.153	6.83
455.358	6.94
455.563	7.13
455.769	7.29
455.974	7.34
456.179	7.29
456.384	7.23
456.589	7.2
456.795	7.05
457	7.02
457.205	7.24
457.41	7.29
457.615	7.24
457.82	7.33
458.025	7.43
458.23	7.27
458.435	7.3
458.64	7.2
458.845	7.37
459.05	7.32
459.255	7.41
459.46	7.41
459.665	7.48
459.87	7.43
460.075	7.41
460.28	7.51
460.485	7.64
460.69	7.71
460.895	7.52
461.099	7.52
461.304	7.57
461.509	7.5
461.714	7.45
461.919	7.65
462.123	7.55
462.328	7.53
462.533	7.4
462.738	7.51
462.942	7.47
463.147	7.57
463.352	7.6
463.556	7.71
463.761	7.72
463.966	7.78
464.17	7.79
464.375	7.72
464.58	7.68
464.784	7.53
464.989	7.51
465.193	7.57
465.398	7.54
465.602	7.69
465.807	7.8
466.011	7.83
466.216	7.86
466.42	7.94
466.625	8.03
466.829	8.13
467.034	8.26
467.238	8.48
467.443	8.5
467.647	8.44
467.851	8.52
468.056	8.46
468.26	8.34
468.464	8.42
468.669	8.51
468.873	8.57
469.077	8.59
469.282	8.62
469.486	8.59
469.69	8.61
469.894	8.5
470.099	8.55
470.303	8.71
470.507	8.68
470.711	8.57
470.915	8.62
471.119	8.54
471.324	8.42
471.528	8.42
471.732	8.54
471.936	8.48
472.14	8.66
472.344	8.69
472.548	8.82
472.752	8.96
472.956	9.25
473.16	9.16
473.364	9.11
473.568	9.05
473.772	9.04
473.976	8.98
474.18	8.97
474.384	9.08
474.588	9.11
474.792	9.01
474.995	9.02
475.199	9.25
475.403	9.32
475.607	9.37
475.811	9.33
476.015	9.41
476.218	9.35
476.422	9.24
476.626	9.33
476.83	9.57
477.033	9.47
477.237	9.38
477.441	9.47
477.644	9.44
477.848	9.35
478.052	9.33
478.255	9.4
478.459	9.43
478.663	9.54
478.866	9.57
479.07	9.67
479.273	9.8
479.477	9.9
479.681	9.9
479.884	9.87
480.088	9.82
480.291	9.74
480.495	9.62
480.698	9.61
480.901	9.72
481.105	9.83
481.308	9.87
481.512	9.91
481.715	10.05
481.919	9.98
482.122	9.97
482.325	9.97
482.529	10.02
482.732	9.99
482.935	10
483.138	9.91
483.342	9.95
483.545	10.01
483.748	10.1
483.952	10.18
484.155	10.36
484.358	10.39
484.561	10.3
484.764	10.13
484.967	10.23
485.171	10.27
485.374	10.23
485.577	10.35
485.78	10.42
485.983	10.36
486.186	10.24
486.389	10.19
486.592	10.2
486.795	10.27
486.998	10.17
487.201	10.26
487.404	10.34
487.607	10.43
487.81	10.38
488.013	10.45
488.216	10.48
488.419	10.47
488.622	10.33
488.825	10.31
489.028	10.34
489.231	10.26
489.433	10.19
489.636	10.21
489.839	10.22
490.042	10.08
490.245	10.03
490.447	10.23
490.65	10.3
490.853	10.34
491.056	10.42
491.258	10.47
491.461	10.37
491.664	10.36
491.866	10.3
492.069	10.45
492.272	10.43
492.474	10.42
492.677	10.42
492.879	10.43
493.082	10.42
493.285	10.58
493.487	10.62
493.69	10.6
493.892	10.56
494.095	10.49
494.297	10.42
494.5	10.46
494.702	10.48
494.905	10.58
495.107	10.52
495.309	10.53
495.512	10.55
495.714	10.63
495.917	10.59
496.119	10.71
496.321	10.75
496.524	10.78
496.726	10.76
496.928	10.84
497.13	10.79
497.333	10.8
497.535	10.8
497.737	10.84
497.939	10.9
498.142	10.91
498.344	10.91
498.546	10.79
498.748	10.86
498.95	10.92
499.152	10.98
499.355	10.98
499.557	11.15
499.759	11.12
499.961	10.98
500.163	10.97
500.365	11.01
500.567	11.09
500.769	11.08
500.971	11.17
501.173	11.14
501.375	11.18
501.577	11.04
501.779	11.02
501.981	11.08
502.183	11.13
502.385	11.17
502.587	11.22
502.788	11.32
502.99	11.31
503.192	11.36
503.394	11.33
503.596	11.38
503.798	11.42
503.999	11.47
504.201	11.52
504.403	11.6
504.605	11.65
504.806	11.58
505.008	11.6
505.21	11.7
505.411	11.71
505.613	11.72
505.815	11.76
506.016	11.88
506.218	11.9
506.42	11.93
506.621	11.98
506.823	12.14
507.024	12.04
507.226	12.02
507.427	12.04
507.629	12.1
507.83	12.1
508.032	12.1
508.233	12.25
508.435	12.33
508.636	12.44
508.838	12.39
509.039	12.5
509.24	12.47
509.442	12.46
509.643	12.35
509.845	12.39
510.046	12.49
510.247	12.51
510.448	12.55
510.65	12.69
510.851	12.82
511.052	12.72
511.254	12.73
511.455	12.84
511.656	12.86
511.857	12.88
512.058	13.02
512.26	13.04
512.461	13.05
512.662	13.12
512.863	13.07
513.064	13.06
513.265	13.1
513.466	13.09
513.667	13.01
513.868	12.98
514.069	13.04
514.27	13.15
514.471	13.13
514.672	13.19
514.873	13.31
515.074	13.42
515.275	13.28
515.476	13.3
515.677	13.36
515.878	13.46
516.079	13.37
516.28	13.45
516.481	13.6
516.682	13.6
516.882	13.52
517.083	13.54
517.284	13.52
517.485	13.53
517.686	13.54
517.886	13.55
518.087	13.57
518.288	13.71
518.488	13.65
518.689	13.73
518.89	13.79
519.091	13.91
519.291	13.83
519.492	13.92
519.692	13.92
519.893	13.93
520.094	13.86
520.294	13.95
520.495	13.89
520.695	13.93
520.896	13.98
521.096	14.06
521.297	14.12
521.497	14.19
521.698	14.18
521.898	14.19
522.099	14.22
522.299	14.25
522.499	14.26
522.7	14.27
522.9	14.27
523.101	14.35
523.301	14.33
523.501	14.32
523.702	14.38
523.902	14.55
524.102	14.56
524.302	14.52
524.503	14.6
524.703	14.6
524.903	14.52
525.103	14.46
525.304	14.56
525.504	14.59
525.704	14.63
525.904	14.61
526.104	14.65
526.304	14.66
526.504	14.69
526.705	14.61
526.905	14.78
527.105	14.8
527.305	14.82
527.505	14.85
527.705	14.88
527.905	14.85
528.105	14.88
528.305	14.85
528.505	14.81
528.705	14.94
528.905	14.9
529.105	14.88
529.304	14.94
529.504	15.01
529.704	15.01
529.904	15.04
530.104	15.1
530.304	15.19
530.503	15.17
530.703	15.13
530.903	15.18
531.103	15.24
531.303	15.17
531.502	15.28
531.702	15.39
531.902	15.44
532.101	15.4
532.301	15.47
532.501	15.53
532.7	15.49
532.9	15.54
533.1	15.6
533.299	15.65
533.499	15.63
533.698	15.64
533.898	15.62
534.097	15.63
534.297	15.68
534.496	15.68
534.696	15.76
534.895	15.79
535.095	15.9
535.294	15.86
535.494	15.86
535.693	15.83
535.892	15.94
536.092	15.91
536.291	15.93
536.491	16.01
536.69	16.12
536.889	16.05
537.088	16.02
537.288	16.08
537.487	16.15
537.686	16.17
537.886	16.31
538.085	16.42
538.284	16.47
538.483	16.39
538.682	16.45
538.882	16.44
539.081	16.47
539.28	16.5
539.479	16.59
539.678	16.56
539.877	16.68
540.076	16.74
540.275	16.8
540.474	16.93
540.673	17
540.872	16.96
541.071	16.96
541.27	16.96
541.469	16.99
541.668	17.07
541.867	17.1
542.066	17.23
542.265	17.38
542.464	17.41
542.663	17.41
542.862	17.59
543.06	17.68
543.259	17.7
543.458	17.84
543.657	17.96
543.856	17.96
544.054	17.9
544.253	17.89
544.452	17.87
544.651	17.9
544.849	17.89
545.048	17.98
545.247	18.03
545.445	18.09
545.644	18.1
545.843	18.19
546.041	18.29
546.24	18.38
546.438	18.5
546.637	18.61
546.836	18.77
547.034	18.82
547.233	18.87
547.431	18.87
547.63	19.02
547.828	19
548.027	19.02
548.225	19.09
548.423	19.15
548.622	19.17
548.82	19.22
549.019	19.34
549.217	19.48
549.415	19.6
549.614	19.71
549.812	19.78
550.01	19.8
550.209	19.9
550.407	20
550.605	20.08
550.803	20.2
551.002	20.35
551.2	20.34
551.398	20.43
551.596	20.5
551.794	20.65
551.993	20.65
552.191	20.82
552.389	20.95
552.587	21.09
552.785	21.09
552.983	21.26
553.181	21.39
553.379	21.47
553.577	21.56
553.775	21.76
553.973	21.82
554.171	21.92
554.369	21.91
554.567	21.91
554.765	21.96
554.963	22.12
555.161	22.1
555.359	22.28
555.557	22.47
555.755	22.57
555.952	22.69
556.15	22.76
556.348	22.87
556.546	22.98
556.744	23.09
556.941	23.16
557.139	23.38
557.337	23.42
557.535	23.48
557.732	23.57
557.93	23.71
558.128	23.77
558.325	23.92
558.523	24.02
558.721	24.19
558.918	24.22
559.116	24.38
559.313	24.45
559.511	24.68
559.708	24.77
559.906	24.89
560.104	24.99
560.301	25.16
560.498	25.08
560.696	25.09
560.893	25.26
561.091	25.33
561.288	25.39
561.486	25.65
561.683	25.82
561.88	25.91
562.078	26.03
562.275	26.15
562.473	26.23
562.67	26.38
562.867	26.48
563.064	26.67
563.262	26.72
563.459	26.84
563.656	26.98
563.853	27.05
564.051	27.11
564.248	27.29
564.445	27.35
564.642	27.43
564.839	27.62
565.036	27.74
565.234	27.9
565.431	28.01
565.628	28.07
565.825	28.21
566.022	28.38
566.219	28.39
566.416	28.58
566.613	28.66
566.81	28.76
567.007	28.75
567.204	28.96
567.401	28.94
567.598	29.09
567.795	29.18
567.991	29.27
568.188	29.29
568.385	29.4
568.582	29.47
568.779	29.5
568.976	29.61
569.172	29.64
569.369	29.65
569.566	29.73
569.763	29.8
569.96	29.84
570.156	29.91
570.353	29.97
570.55	29.99
570.746	30
570.943	30.04
571.14	30.04
571.336	30.14
571.533	30.27
571.729	30.29
571.926	30.38
572.123	30.56
572.319	30.63
572.516	30.62
572.712	30.74
572.909	30.67
573.105	30.78
573.302	30.83
573.498	30.88
573.695	30.79
573.891	30.99
574.087	30.96
574.284	31.04
574.48	31.01
574.677	31.06
574.873	31.01
575.069	31.02
575.266	31.04
575.462	31.08
575.658	31.18
575.854	31.25
576.051	31.26
576.247	31.21
576.443	31.21
576.639	31.14
576.835	31.08
577.032	31.06
577.228	31.2
577.424	31.26
577.62	31.25
577.816	31.39
578.012	31.42
578.208	31.25
578.404	31.34
578.6	31.37
578.796	31.36
578.993	31.33
579.189	31.32
579.384	31.11
579.58	31.04
579.776	30.99
579.972	30.93
580.168	30.93
580.364	31.12
580.56	31.16
580.756	31.09
580.952	31.06
581.148	31.13
581.343	31.05
581.539	31.13
581.735	31.15
581.931	31.23
582.127	31.3
582.322	31.31
582.518	31.29
582.714	31.33
582.909	31.36
583.105	31.23
583.301	31.18
583.496	31.18
583.692	31.08
583.888	30.95
584.083	31.04
584.279	31.13
584.474	31.11
584.67	31.22
584.866	31.32
585.061	31.13
585.257	31.14
585.452	31.1
585.648	31.02
585.843	31.02
586.039	31.07
586.234	31.08
586.429	31.03
586.625	31.15
586.82	31.09
587.015	31.18
587.211	31.02
587.406	31.07
587.601	30.92
587.797	30.95
587.992	30.87
588.187	31.02
588.383	31.07
588.578	31.11
588.773	31.15
588.968	31.17
589.163	31.19
589.359	31.16
589.554	31.13
589.749	31.14
589.944	31.24
590.139	31.2
590.334	31.23
590.529	31.32
590.724	31.35
590.919	31.51
591.114	31.54
591.309	31.7
591.504	31.72
591.699	31.77
591.894	31.78
592.089	31.77
592.284	31.79
592.479	31.93
592.674	31.91
592.869	32.02
593.064	32.1
593.259	32.19
593.454	32.28
593.648	32.35
593.843	32.27
594.038	32.32
594.233	32.33
594.428	32.3
594.622	32.41
594.817	32.61
595.012	32.77
595.206	32.83
595.401	32.89
595.596	32.95
595.79	32.94
595.985	33.02
596.18	33.1
596.374	33.25
596.569	33.35
596.763	33.37
596.958	33.43
597.153	33.52
597.347	33.48
597.542	33.57
597.736	33.61
597.931	33.66
598.125	33.7
598.319	33.92
598.514	33.91
598.708	34.03
598.903	34.05
599.097	34.07
599.291	34.08
599.486	34.14
599.68	34.09
599.874	34.15
600.069	34.16
600.263	34.1
600.457	34.2
600.651	34.34
600.846	34.38
601.04	34.5
601.234	34.66
601.428	34.75
601.622	34.75
601.817	34.79
602.011	34.88
602.205	34.86
602.399	34.88
602.593	34.97
602.787	34.98
602.981	34.85
603.175	34.89
603.369	34.75
603.563	34.65
603.757	34.75
603.951	34.77
604.145	34.79
604.339	34.91
604.533	34.91
604.727	34.8
604.921	34.78
605.115	34.74
605.309	34.68
605.502	34.71
605.696	34.63
605.89	34.61
606.084	34.5
606.278	34.48
606.471	34.43
606.665	34.43
606.859	34.36
607.053	34.33
607.246	34.21
607.44	34.04
607.634	33.99
607.827	34.05
608.021	33.94
608.214	33.94
608.408	33.93
608.602	33.89
608.795	33.81
608.989	33.74
609.182	33.64
609.376	33.6
609.569	33.43
609.763	33.24
609.956	33.1
610.15	33.08
610.343	32.99
610.537	33
610.73	32.92
610.923	32.97
611.117	32.9
611.31	32.85
611.504	32.75
611.697	32.65
611.89	32.57
612.083	32.52
612.277	32.47
612.47	32.29
612.663	32.29
612.856	32.14
613.05	31.99
613.243	31.88
613.436	31.87
613.629	31.82
613.822	31.74
614.015	31.63
614.209	31.43
614.402	31.46
614.595	31.37
614.788	31.36
614.981	31.16
615.174	31.17
615.367	30.98
615.56	30.9
615.753	30.82
615.946	30.87
616.139	30.92
616.332	31.06
616.525	31.01
616.718	31.02
616.911	31.04
617.103	30.97
617.296	30.82
617.489	30.77
617.682	30.66
617.875	30.59
618.067	30.39
618.26	30.36
618.453	30.35
618.646	30.35
618.838	30.33
619.031	30.46
619.224	30.35
619.417	30.27
619.609	30.28
619.802	30.19
619.994	30.1
620.187	30.13
620.38	30.03
620.572	30.02
620.765	30.12
620.957	30.04
621.15	29.92
621.342	29.97
621.535	29.8
621.727	29.73
621.92	29.66
622.112	29.63
622.305	29.62
622.497	29.61
622.69	29.54
622.882	29.57
623.074	29.66
623.267	29.57
623.459	29.48
623.651	29.42
623.844	29.5
624.036	29.49
624.228	29.53
624.42	29.64
624.613	29.8
624.805	29.69
624.997	29.67
625.189	29.58
625.381	29.55
625.574	29.36
625.766	29.32
625.958	29.21
626.15	29.27
626.342	29.2
626.534	29.19
626.726	29.14
626.918	29.03
627.11	28.92
627.302	28.89
627.494	28.76
627.686	28.86
627.878	28.83
628.07	28.83
628.262	28.82
628.454	28.95
628.646	28.85
628.838	28.91
629.029	28.84
629.221	28.8
629.413	28.62
629.605	28.45
629.797	28.34
629.989	28.41
630.18	28.41
630.372	28.48
630.564	28.57
630.755	28.65
630.947	28.58
631.139	28.39
631.33	28.21
631.522	28.26
631.714	28.26
631.905	28.3
632.097	28.26
632.289	28.33
632.48	28.17
632.672	28.02
632.863	27.95
633.055	27.96
633.246	27.99
633.438	28.02
633.629	27.98
633.821	28.01
634.012	28
634.203	27.81
634.395	27.77
634.586	27.84
634.777	27.69
634.969	27.77
635.16	27.88
635.351	27.79
635.543	27.72
635.734	27.7
635.925	27.59
636.117	27.64
636.308	27.74
636.499	27.74
636.69	27.65
636.881	27.65
637.073	27.62
637.264	27.59
637.455	27.62
637.646	27.77
637.837	27.87
638.028	27.81
638.219	27.74
638.41	27.64
638.601	27.51
638.792	27.48
638.983	27.34
639.174	27.31
639.365	27.4
639.556	27.44
639.747	27.33
639.938	27.49
640.129	27.51
640.32	27.4
640.511	27.49
640.701	27.55
640.892	27.56
641.083	27.56
641.274	27.61
641.465	27.45
641.655	27.37
641.846	27.23
642.037	27.25
642.228	27.15
642.418	27.21
642.609	27.24
642.8	27.27
642.99	27.17
643.181	27.21
643.372	27.13
643.562	27.16
643.753	27.12
643.943	27.07
644.134	26.94
644.324	26.89
644.515	26.76
644.705	26.78
644.896	26.8
645.086	26.89
645.277	26.83
645.467	26.73
645.658	26.62
645.848	26.56
646.038	26.55
646.229	26.57
646.419	26.62
646.61	26.66
646.8	26.6
646.99	26.5
647.18	26.42
647.371	26.32
647.561	26.22
647.751	26.16
647.941	26.1
648.132	26.12
648.322	26.06
648.512	26.04
648.702	26.07
648.892	26.02
649.082	25.95
649.272	25.82
649.462	25.64
649.653	25.46
649.843	25.42
650.033	25.36
650.223	25.39
650.413	25.38
650.603	25.48
650.793	25.39
650.983	25.34
651.172	25.27
651.362	25.22
651.552	25.06
651.742	24.99
651.932	24.94
652.122	24.9
652.312	24.92
652.502	24.87
652.691	24.77
652.881	24.64
653.071	24.48
653.261	24.35
653.45	24.12
653.64	24.11
653.83	23.99
654.019	23.99
654.209	23.88
654.399	23.91
654.588	23.71
654.778	23.59
654.968	23.32
655.157	23.13
655.347	23
655.536	22.82
655.726	22.59
655.915	22.5
656.105	22.3
656.294	22.11
656.484	21.9
656.673	21.73
656.863	21.58
657.052	21.46
657.241	21.21
657.431	21.05
657.62	21
657.809	20.6
657.999	20.4
658.188	20.25
658.377	20.11
658.567	19.84
658.756	19.81
658.945	19.63
659.134	19.41
659.324	19.14
659.513	18.95
659.702	18.67
659.891	18.48
660.08	18.2
660.269	18.08
660.458	17.81
660.648	17.66
660.837	17.47
661.026	17.34
661.215	17.01
661.404	16.79
661.593	16.62
661.782	16.28
661.971	16.12
662.16	15.95
662.349	15.88
662.538	15.65
662.726	15.53
662.915	15.31
663.104	15.2
663.293	15.06
663.482	15.07
663.671	15.05
663.86	14.89
664.048	14.74
664.237	14.62
664.426	14.32
664.615	14.05
664.803	13.93
664.992	13.74
665.181	13.64
665.369	13.41
665.558	13.21
665.747	13.07
665.935	13.06
666.124	12.92
666.312	12.9
666.501	12.94
666.69	12.72
666.878	12.61
667.067	12.36
667.255	12.43
667.444	12.62
667.632	12.77
667.82	12.77
668.009	12.82
668.197	12.66
668.386	12.36
668.574	12.27
668.762	12.2
668.951	12.09
669.139	11.98
669.327	11.73
669.516	11.74
669.704	11.63
669.892	11.71
670.08	11.68
670.269	11.64
670.457	11.48
670.645	11.29
670.833	11.28
671.021	11.32
671.21	11.49
671.398	11.6
671.586	11.71
671.774	11.54
671.962	11.49
672.15	11.46
672.338	11.38
672.526	11.35
672.714	11.31
672.902	11.4
673.09	11.52
673.278	11.57
673.466	11.67
673.654	11.82
673.842	11.8
674.03	11.72
674.218	11.68
674.405	11.65
674.593	11.64
674.781	11.73
674.969	11.8
675.157	12.04
675.344	12.3
675.532	12.36
675.72	12.4
675.908	12.55
676.095	12.4
676.283	12.36
676.471	12.5
676.658	12.54
676.846	12.45
677.033	12.59
677.221	12.62
677.409	12.43
677.596	12.56
677.784	12.7
677.971	12.79
678.159	12.79
678.346	13.03
678.534	13.17
678.721	13.38
678.909	13.45
679.096	13.69
679.283	13.94
679.471	14.11
679.658	14.16
679.846	14.36
680.033	14.7
680.22	14.72
680.408	14.61
680.595	14.64
680.782	14.64
680.969	14.62
681.157	14.76
681.344	14.92
681.531	15.12
681.718	15.35
681.905	15.48
682.093	15.75
682.28	16.05
682.467	16.45
682.654	16.63
682.841	16.86
683.028	17.14
683.215	17.37
683.402	17.35
683.589	17.63
683.776	17.9
683.963	18.03
684.15	18.25
684.337	18.55
684.524	18.87
684.711	19.18
684.898	19.37
685.085	19.79
685.271	20.23
685.458	20.47
685.645	20.66
685.832	21.28
686.019	21.63
686.205	21.91
686.392	22.25
686.579	22.79
686.766	23.04
686.952	23.36
687.139	24
687.326	24.36
687.512	24.77
687.699	25.23
687.886	25.77
688.072	26.16
688.259	26.76
688.445	27.3
688.632	27.64
688.818	28.29
689.005	28.68
689.191	29.24
689.378	29.93
689.564	30.65
689.751	31.07
689.937	31.72
690.124	32.26
690.31	32.57
690.496	33.09
690.683	33.69
690.869	34.1
691.055	34.55
691.242	35.41
691.428	35.86
691.614	36.55
691.8	37.4
691.987	38.31
692.173	38.84
692.359	39.73
692.545	40.17
692.731	40.58
692.918	41.05
693.104	41.61
693.29	42.16
693.476	42.94
693.662	43.75
693.848	44.23
694.034	44.64
694.22	44.96
694.406	45.78
694.592	46.2
694.778	46.85
694.964	47.8
695.15	48.54
695.336	48.88
695.522	49.69
695.708	50.32
695.894	50.6
696.08	51.24
696.265	51.79
696.451	52.3
696.637	52.92
696.823	53.53
697.009	53.94
697.194	54.41
697.38	54.79
697.566	55.08
697.751	55.68
697.937	56.47
698.123	57.03
698.308	57.74
698.494	58.22
698.68	58.59
698.865	58.82
699.051	59.27
699.236	59.34
699.422	59.85
699.607	60.3
699.793	61.06
699.978	61.22
700.164	61.75
700.349	62.21
700.535	62.45
700.72	62.56
700.906	63.43
701.091	63.48
701.276	63.94
701.462	64.79
701.647	65.51
701.832	65.59
702.018	66.24
702.203	66.32
702.388	66.03
702.573	65.85
702.759	66.29
702.944	66.62
703.129	67.07
703.314	67.51
703.499	67.8
703.684	67.94
703.87	68.82
704.055	69.35
704.24	69.45
704.425	69.79
704.61	70.2
704.795	69.88
704.98	70.02
705.165	70.46
705.35	70.94
705.535	71.14
705.72	71.5
705.905	71.99
706.09	72.19
706.275	72.21
706.459	72.1
706.644	71.98
706.829	72.05
707.014	72.13
707.199	72.53
707.384	72.83
707.568	73.29
707.753	73.52
707.938	74.06
708.123	73.9
708.307	74.07
708.492	74.14
708.677	73.92
708.861	74.01
709.046	74.02
709.231	74.36
709.415	74.66
709.6	74.92
709.784	74.68
709.969	74.99
710.153	74.69
710.338	74.5
710.522	74.75
710.707	74.97
710.891	75.06
711.076	75.75
711.26	75.94
711.445	75.82
711.629	75.99
711.813	76.31
711.998	76.24
712.182	76.32
712.366	76.92
712.551	77.54
712.735	77.87
712.919	77.88
713.103	77.97
713.288	77.41
713.472	77.09
713.656	77.22
713.84	77.26
714.024	77.54
714.208	78.1
714.393	78.52
714.577	78.4
714.761	78.38
714.945	78.32
715.129	77.91
715.313	77.9
715.497	77.52
715.681	78.42
715.865	78.58
716.049	78.98
716.233	78.36
716.417	78.88
716.601	78.15
716.785	77.95
716.968	78.1
717.152	78.6
717.336	78.43
717.52	78.61
717.704	78.87
717.888	79.01
718.071	79.29
718.255	79.73
718.439	80.05
718.622	80.11
718.806	79.96
718.99	79.71
719.174	79.46
719.357	79.02
719.541	79.06
719.724	79.37
719.908	80.36
720.092	80.97
720.275	81.46
720.459	81.39
720.642	80.96
720.826	79.96
721.009	78.99
721.193	78.27
721.376	78.5
721.559	78.73
721.743	79.17
721.926	79.95
722.11	80.78
722.293	80.18
722.476	80.29
722.66	80.07
722.843	80.11
723.026	79.17
723.21	79.85
723.393	80.32
723.576	80.29
723.759	80.14
723.942	80.77
724.126	80.5
724.309	80.28
724.492	80.77
724.675	80.52
724.858	80.75
725.041	81.03
725.224	81.02
725.407	80.82
725.59	81.46
725.774	81.05
725.957	80.79
726.14	80.61
726.322	80.42
726.505	79.85
726.688	80.38
726.871	80.92
727.054	81.17
727.237	81.08
727.42	81.43
727.603	81.35
727.786	81.1
727.968	81.29
728.151	81.44
728.334	81.53
728.517	81.41
728.699	81.85
728.882	81.83
729.065	82.27
729.248	82.75
729.43	83.32
729.613	83.82
729.796	84.41
729.978	83.4
730.161	82.36
730.343	82.03
730.526	82.2
730.708	81.38
730.891	82.54
731.073	82.93
731.256	82.19
731.438	81.38
731.621	81.86
731.803	81.79
731.986	81.56
732.168	82.07
732.35	82.46
732.533	82.29
732.715	82.18
732.898	82.86
733.08	82.35
733.262	82.86
733.444	82.68
733.627	82.7
733.809	82.53
733.991	84.66
734.173	83.21
734.355	83.06
734.538	83.86
734.72	83.86
734.902	83.32
735.084	83.99
735.266	84.66
735.448	84.65
735.63	84.75
735.812	84.28
735.994	84.93
736.176	83.99
736.358	83.01
736.54	83.62
736.722	83.11
736.904	82.96
737.086	82.96
737.268	83.71
737.45	83.42
737.632	83.21
737.814	83.01
737.995	84.21
738.177	84.21
738.359	83.18
738.541	84.02
738.723	83.3
738.904	83.62
739.086	83.61
739.268	84.73
739.449	85.39
739.631	85.4
739.813	84.72
739.994	84.47
740.176	84.43
740.358	83.3
740.539	84.99
740.721	84.75
740.902	85.37
741.084	84.88
741.265	84.64
741.447	83.88
741.628	84.68
741.81	83.89
741.991	84.96
742.172	85.98
742.354	86.78
742.535	86.18
742.717	86.72
742.898	86.81
743.079	87.39
743.261	87.33
743.442	86.2
743.623	86.85
743.804	86.17
743.986	86.29
744.167	85.07
744.348	85.94
744.529	85.14
744.71	84.65
744.891	83.22
745.073	82.61
745.254	82.19
745.435	81.96
745.616	82.15
745.797	83.28
745.978	83.96
746.159	84.95
746.34	84.15
746.521	85.42
746.702	83.85
746.883	83.48
747.064	83.23
747.245	84.34
747.426	82.69
747.606	83.46
747.787	83.68
747.968	83.56
748.149	83.39
748.33	84.43
748.51	84.54
748.691	84.44
748.872	84.83
749.053	84.91
749.233	83.52
749.414	83.85
749.595	83.84
749.775	83.29
749.956	82.5
750.137	82.78
750.317	83.25
750.498	84.65
750.678	84.22
750.859	85.9
751.04	87.01
751.22	85.46
751.4	84.11
751.581	83.5
751.761	82.23
751.942	82.18
752.122	81.14
752.303	81.33
752.483	81.75
752.663	81.73
752.844	81.03
753.024	83.46
753.204	83.91
753.385	83.59
753.565	83.74
753.745	84.4
753.925	82.71
754.106	80.94
754.286	81.08
754.466	80.52
754.646	80.53
754.826	81.52
755.006	81.71
755.187	82.11
755.367	82.8
755.547	81.42
755.727	82.06
755.907	82.63
756.087	84.05
756.267	82.73
756.447	83.55
756.627	80.92
756.807	81.29
756.987	79.96
757.167	81.01
757.346	80.44
757.526	80.42
757.706	81.91
757.886	81.47
758.066	82.3
758.246	84.76
758.425	85.76
758.605	83.52
758.785	84.4
758.965	84.58
759.144	80.79
759.324	80.49
759.504	81.34
759.683	80.98
759.863	78.71
760.043	80.15
760.222	81.07
760.402	79.67
760.581	79.8
760.761	81.42
760.94	81.23
761.12	82.37
761.299	84.08
761.479	83.27
761.658	81.46
761.838	81.73
762.017	81.08
762.197	81.37
762.376	81.61
762.555	82.5
762.735	82.4
762.914	80.23
763.093	80.44
763.273	81.07
763.452	81.74
763.631	80.69
763.81	80.41
763.99	78.87
764.169	78.65
764.348	76.01
764.527	76.06
764.706	78.24
764.885	79.45
765.064	78.2
765.243	80.11
765.423	82.15
765.602	82.15
765.781	80.11
765.96	80.51
766.139	79.22
766.318	78.76
766.497	77.49
766.676	78.36
766.854	81.14
767.033	81.58
767.212	79.66
767.391	79.36
767.57	80.39
767.749	78.23
767.928	80.35
768.106	81.41
768.285	80.36
768.464	78.01
768.643	75.82
768.821	73.88
769	74.96
769.179	75.68
769.357	75.47
769.536	76.42
769.715	76.13
769.893	77.04
770.072	77.82
770.25	79.75
770.429	81.76
770.607	82.54
770.786	82.1
770.964	83.66
771.143	82.34
771.321	81.81
771.5	82.46
771.678	80.27
771.857	78.39
772.035	79.04
772.213	78.28
772.392	74.94
772.57	77.11
772.748	76.79
772.927	75.36
773.105	73.49
773.283	74.31
773.461	72.62
773.64	73.82
773.818	73.55
773.996	76.13
774.174	76.34
774.352	75.09
774.531	71.95
774.709	73.62
774.887	73.59
775.065	73.76
775.243	75.53
775.421	78.26
775.599	79.59
775.777	77.19
775.955	75.44
776.133	73.07
776.311	72.14
776.489	68.58
776.667	69.87
776.844	72.39
777.022	71.63
777.2	70.69
777.378	71.1
777.556	70.15
777.734	71.57
777.911	74.12
778.089	73.34
778.267	74.8
778.445	73.29
778.622	70.14
778.8	70.07
778.978	71.07
779.155	71.35
779.333	73.49
779.511	74.43
779.688	75.32
779.866	72
780.043	69.95
780.221	70.93
780.398	69.47
780.576	71.49
780.753	76.36
780.931	76.14
781.108	72.69
781.286	75.63
781.463	69.83
781.64	65.6
781.818	66.85
781.995	71.47
782.172	68.63
782.35	72.13
782.527	77.43
782.704	76.4
782.882	75.4
783.059	76.36
783.236	76.83
783.413	75.82
783.59	74.41
783.768	72.01
783.945	73.76
784.122	72.12
784.299	72.54
784.476	72.74
784.653	72.44
784.83	69.9
785.007	65.52
785.184	64.12
785.361	65.22
785.538	69.27
785.715	73.01
785.892	77.93
786.069	79.76
786.246	81.88
786.423	80.06
786.6	78.98
786.776	79.11
786.953	75.64
787.13	76.17
787.307	74.11
787.484	71.11
787.66	69.22
787.837	70.78
788.014	64.99
788.191	62.19
788.367	62.52
788.544	65.47
788.721	64.01
788.897	68.46
789.074	72.88
789.25	70.98
789.427	68.13
789.603	68.46
789.78	67.45
789.956	66.37
790.133	68.47
790.309	67.89
790.486	71.81
790.662	69.94
790.839	70.07
791.015	70.41
791.192	68.67
791.368	67.3
791.544	66.67
791.721	63.54
791.897	64.9
792.073	64.15
792.249	55.6
792.426	58.71
792.602	65.73
792.778	64.67
792.954	65.89
793.13	71.33
793.307	66.76
793.483	56.12
793.659	57.76
793.835	64.51
794.011	63.99
794.187	68.86
794.363	72.68
794.539	71.79
794.715	61.73
794.891	60.68
795.067	56.97
795.243	62.17
795.419	60.68
795.595	61.52
795.771	63.94
795.947	64.82
796.122	59.37
796.298	62.6
796.474	68.05
796.65	64.17
796.826	65.82
797.001	67.96
797.177	60.79
797.353	58.81
797.529	60.04
797.704	58.98
797.88	55.62
798.056	54.52
798.231	52.58
798.407	58.37
798.582	57.87
798.758	65.94
798.934	74.07
799.109	72.93
799.285	67.94
799.46	70.8
799.636	67
799.811	65.16
799.986	64.18
800.162	69.05
800.337	67.65
800.513	65.04
800.688	61.5
800.863	71.84
801.039	60.24
801.214	61.79
801.389	63.28
801.565	63.2
801.74	54.69
801.915	65.98
802.09	61.73
802.265	67.09
802.441	69.28
802.616	74.42
802.791	71.6
802.966	72.08
803.141	68.1
803.316	61.04
803.491	58.99
803.666	66.23
803.841	66.76
804.016	65.54
804.191	70.81
804.366	66.76
804.541	62.48
804.716	60.76
804.891	58.95
805.066	63.6
805.241	59.91
805.416	50.72
805.591	50.97
805.765	53.53
805.94	55.4
806.115	53.01
806.29	55.92
806.464	54.73
806.639	56.07
806.814	44.32
806.989	46.05
807.163	54.65
807.338	56.78
807.512	51.81
807.687	47.81
807.862	64.81
808.036	67.05
808.211	68.04
808.385	73.69
808.56	82.67
808.734	75.32
808.909	65.92
809.083	58.83
809.258	66.54
809.432	68.3
809.606	62.17
809.781	65.66
809.955	73.05
810.13	64.27
810.304	60.47
810.478	56.86
810.652	61.37
810.827	63.49
811.001	64.83
811.175	68.47
811.349	68.3
811.524	58.8
811.698	43.36
811.872	42.62
812.046	46.33
812.22	49.3
812.394	50.24
812.568	61.97
812.742	60.93
812.916	57.14
813.09	60.97
813.264	59.47
813.438	56.12
813.612	50.5
813.786	44.7
813.96	46.88
814.134	54.06
814.308	61.26
814.482	66.83
814.656	68.42
814.83	68.65
815.003	67.72
815.177	54.1
815.351	52.28
815.525	48.59
815.698	37.31
815.872	29.78
816.046	25.02
816.219	30.49
816.393	42.89
816.567	56.6
816.74	57.52
816.914	67.55
817.088	72.15
817.261	61.68
817.435	48.82
817.608	55.59
817.782	48.39
817.955	48.27
818.129	48.14
818.302	51.4
818.475	50.42
818.649	47.94
818.822	40.48
818.996	51.28
819.169	53.69
819.342	47.03
819.516	67.47
819.689	71.24
819.862	59.2
820.035	54.45
820.209	54.48
820.382	47.78
820.555	47.1
820.728	41.79
820.901	42.24
821.075	45.07
821.248	47.48
821.421	40.82
821.594	40.59
821.767	46.42
821.94	54.79
822.113	33.42
822.286	39.46
822.459	49.55
822.632	43.03
822.805	30.65
822.978	36.19
823.151	34.08
823.324	24.54
823.496	11.15
823.669	11.6
823.842	16.52
824.015	4.63
824.188	2.11
824.361	9.18
824.533	4.55
824.706	15.29
824.879	18.1
825.051	27.48
825.224	32.55
825.397	33.79
825.569	25.42
825.742	43.47
825.915	45.8
826.087	52.08
826.26	47.8
826.432	45.89
826.605	45.16
826.777	44.82
826.95	39.46
827.122	30.14
827.295	33.48
827.467	39.56
827.64	8.92
827.812	9.19
827.984	19.2
828.157	22.13
828.329	-43.12
828.501	-8.82
828.674	16.8
828.846	21.57
829.018	39.4
829.19	44.16
829.363	55.99
829.535	41.16
829.707	46.89
829.879	7.17
830.051	25.19
830.223	2.84
830.395	-10.39
830.568	-21.11
830.74	-9.02
830.912	4.24
831.084	3.22
831.256	7.88
831.428	8.29
831.6	9.62
831.772	-16.66
831.943	-24.1
832.115	5.07
832.287	18.47
832.459	24.05
832.631	36.09
832.803	44.47
832.975	49.1
833.146	33.82
833.318	13.74
833.49	25.28
833.662	14.41
833.833	-5.18
834.005	-2.22
834.177	8.11
834.348	-7.39
834.52	-17.4
834.692	-29.13
834.863	-34.08
835.035	-21.75
835.206	-42.32
835.378	-13.09
835.549	1.01
835.721	25.76
835.892	22.52
836.064	19.8
836.235	23.84
836.407	54.04
836.578	4.07
836.749	5.9
836.921	-13.19
837.092	-49.6
837.264	-60.38
837.435	-61.82
837.606	-19.78
837.777	9.85
837.949	18.26
838.12	33.83
838.291	49.15
838.462	35.53
838.633	24.83
838.805	34.58
838.976	32.37
839.147	-8.93
839.318	-39.78
839.489	-107.34
839.66	-89.64
839.831	-45.85
840.002	-36.42
840.173	-27.24
840.344	59.14
840.515	81.73
840.686	-29.46
840.857	-23.21
841.028	-31.02
841.199	-70.64
841.369	-85.1
841.54	-61.64
841.711	-23.27
841.882	-12.3
842.053	-13.32
842.223	-10.64
842.394	5.82
842.565	5.5
842.736	16.97
842.906	22.38
843.077	28.99
843.248	48.32
843.418	39.74
843.589	42.39
843.759	103.97
843.93	94.89
844.101	50.9
844.271	61.19
844.442	46.76
844.612	47.72
844.783	20.59
844.953	-22.06
845.123	-38.16
845.294	-40.1
845.464	-252.61
845.635	-119.51
845.805	-7.83
845.975	-1.23
846.146	-13.51
846.316	-2.9
846.486	13.55
846.656	31.67
846.827	13.11
846.997	6.97
847.167	20
847.337	21.13
847.507	-26.24
847.677	-5.32
847.848	47.63
848.018	34.65
848.188	50.22
848.358	36.09
848.528	31.42
848.698	-19.25
848.868	-72.45
849.038	-166.44
849.208	-51.89
849.378	-11.59
849.548	13.15
849.718	37.43
849.887	44.36
850.057	30.69
850.227	-6.68
850.397	-31.9
850.567	-178.63
850.737	-395.33
850.906	-1114.06
851.076	-729.1
851.246	-262.43
851.415	12.19
851.585	-17.74
851.755	-54.35
851.924	-25.76
852.094	-95.43
852.264	-184.57
852.433	-1197.36
852.603	-216.89
852.772	-190.53
852.942	-48.31
853.111	-54.23
853.281	43.18
853.45	80.79
853.62	34.75
853.789	16.66
853.959	99
854.128	-11.91
854.297	-51.25
854.467	-63.54
854.636	-71.61
854.805	-24.17
854.975	-36.65
855.144	-62.53
855.313	-88.29
855.482	-265.15
855.652	-168.05
855.821	-143.1
855.99	-17.9
856.159	-0.02
856.328	-5.34
856.497	-35.64
856.667	0.2
856.836	1.39
857.005	11
857.174	-8.29
857.343	0.84
857.512	11.26
857.681	-24.85
857.85	-73.72
858.019	6.78
858.188	9.93
858.356	-11.17
858.525	-47.79
858.694	-20.86
858.863	-147.23
859.032	-153.68
859.201	-198.3
859.369	-114.86
859.538	-136.01
859.707	-97.88
859.876	-124.45
860.044	-117.49
860.213	-29.75
860.382	-32.33
860.55	-13.22
860.719	30.28
860.888	22.32
861.056	-4.36
861.225	-6.9
861.393	25.08
861.562	57.32
861.73	5.22
861.899	6.15
862.067	123.28
862.236	21.27
862.404	-253.39
862.572	-164.45
862.741	-55.49
862.909	-68.79
863.078	-182.92
863.246	-72.57
863.414	-28.91
863.582	-54.25
863.751	-101.95
863.919	-70.32
864.087	-51.68
864.255	-56.09
864.424	-343.13
864.592	28.13
864.76	-36.08
864.928	-168.2
865.096	-118.55
865.264	-13.81
865.432	-1452.84
865.6	107.88
865.768	37.32
865.936	-13.65
866.104	-4.06
866.272	49.61
866.44	-216.24
866.608	438.72
866.776	146.39
866.944	1835.47
867.112	-394.17
867.28	-179.52
867.448	-96.09
867.615	-50.8
867.783	-15.14
867.951	-28.08
868.119	-1.84
868.286	-40.38
868.454	-163.43
868.622	-123.21
868.789	-112.88
868.957	-1823.21
869.125	-1090.13
869.292	-73.03
869.46	-224.14
869.627	-27.78
869.795	-34.45
869.963	-16.89
870.13	14.75
870.298	48.81
870.465	-64.44
870.632	-59.96
870.8	-42.74
870.967	-113.18
871.135	-204.59
871.302	-120.35
871.469	-148.73
871.637	-210.41
871.804	-138.51
871.971	-166.65
872.139	-473.14
872.306	-80.96
872.473	-93.49
872.64	-278.22
872.807	-49.76
872.975	42.04
873.142	-75.36
873.309	560.14
873.476	115.81
873.643	133.35
873.81	95.18
873.977	106.26
874.144	92.05
874.311	23.94
874.478	-24.96
874.645	-81.01
874.812	-1.16
874.979	25
875.146	-13.89
875.313	-58.89
875.48	32.91
875.647	-0.02
875.813	-57.1
875.98	-24.98
876.147	-38.77
876.314	-149.37
876.481	1205.17
876.647	-1298.03
876.814	559.72
876.981	-121.25
877.147	-36.19
877.314	18.04
877.481	51.04
877.647	45.11
877.814	20.06
877.98	7.52
878.147	17.56
878.314	46.23
878.48	-8.39
878.647	42.47
878.813	82.45
878.979	77.76
879.146	30.24
879.312	36.87
879.479	-3.03
879.645	-84.31
879.811	-252.76
879.978	-563.55
880.144	-92.77
880.31	-59.01
880.477	-259.95
880.643	-312.76
880.809	-123.1
880.975	-108.93
881.142	-815.68
881.308	-129.54
881.474	-76.98
881.64	-104.9
881.806	-188.69
881.972	-56.21
882.138	-63.7
882.304	-49.35
882.47	-171.15
882.636	-548.57
882.802	-250.4
882.968	-32.18
883.134	-34.61
883.3	-45.2
883.466	-19.81
883.632	13.7
883.798	-32.17
883.964	-24.41
884.129	4.49
884.295	31.71
884.461	-29.02
884.627	-75.7
884.793	-103.73
884.958	-49.92
885.124	-145.54
885.29	-198
885.455	-83.13
885.621	46.2
885.787	-45.57
885.952	20.25
886.118	5.12
886.283	-15.23
886.449	-99.7
886.614	-118.44
886.78	-237.79
886.945	1028.28
887.111	-579.34
887.276	-484.23
887.442	-665.68
887.607	-349.65
887.773	-273.33
887.938	-207.64
888.103	-276.86
888.269	-154.59
888.434	-275.81
888.599	-64.04
888.764	19.29
888.93	32.58
889.095	5.28
889.26	-32.94
889.425	-27.74
889.59	-7.16
889.756	-15.58
889.921	-15.19
890.086	53.15
890.251	23.57
890.416	-195.71
890.581	-1597.18
890.746	257.23
890.911	617.36
891.076	210.95
891.241	-295.71
891.406	-5.06
891.571	-46.98
891.736	-162.5
891.901	-286.95
892.065	422.25
892.23	113.92
892.395	247.21
892.56	386.78
892.725	-644.73
892.889	-2144.51
893.054	-291.56
893.219	-121.95
893.384	-81.04
893.548	-146.2
893.713	-161.07
893.878	-140.77
