Data from Ofra_PS_T2_2A_2CX08_Reflection_1.txt Node
Date: Wed Jul 21 16:59:18 EDT 2021
User: Adam
Spectrometer: FLMT01687
Trigger mode: 0
Integration Time (sec): 1.100000E0
Scans to average: 2
Electric dark correction enabled: true
Nonlinearity correction enabled: false
Boxcar width: 2
XAxis mode: Wavelengths
Number of Pixels in Spectrum: 3648
>>>>>Begin Spectral Data<<<<<
179.494	405.6
179.716	484.24
179.937	442.14
180.158	402
180.38	581.25
180.601	301.66
180.823	78.26
181.044	65.4
181.265	319.85
181.486	87.67
181.708	55.43
181.929	318.37
182.15	135.21
182.372	199.66
182.593	27.18
182.814	40.79
183.035	62.09
183.257	55.73
183.478	-11.49
183.699	54.5
183.92	63.13
184.141	74.13
184.363	60.82
184.584	102.05
184.805	96.41
185.026	69.38
185.247	67.04
185.468	33.29
185.689	34.63
185.91	18.87
186.132	40.53
186.353	40.32
186.574	85.13
186.795	56.64
187.016	34.13
187.237	16.54
187.458	13.84
187.679	37.99
187.9	31.98
188.121	32.25
188.342	71.76
188.563	77.63
188.784	80.76
189.005	66.63
189.226	109.48
189.447	66.61
189.667	-142.72
189.888	-283.74
190.109	-794.81
190.33	-555.48
190.551	-900
190.772	-178.69
190.993	-162.53
191.214	-123.8
191.434	-68.6
191.655	-23.56
191.876	-54.35
192.097	-73.95
192.318	-118.65
192.538	-193.55
192.759	-101.61
192.98	-36.54
193.201	6.24
193.421	15.18
193.642	33.98
193.863	25.2
194.083	18.34
194.304	3.11
194.525	11.59
194.745	-18.2
194.966	-22.55
195.187	-41.96
195.407	-56.23
195.628	-129.39
195.848	-97.88
196.069	-80.97
196.29	-14.48
196.51	-31.03
196.731	-11.72
196.951	-25.94
197.172	-34.11
197.392	-69.43
197.613	-68.01
197.833	-87.65
198.054	-78.42
198.274	-41.42
198.495	-52.48
198.715	-9.62
198.936	-13.24
199.156	9.88
199.377	-48.17
199.597	-51.58
199.817	-91.48
200.038	-25.67
200.258	-87.81
200.479	-34.18
200.699	0.53
200.919	39.82
201.14	-1.39
201.36	8.63
201.58	21.73
201.801	36.63
202.021	-2.66
202.241	-0.2
202.461	18.32
202.682	-48.99
202.902	-111.7
203.122	-26.67
203.342	-24.65
203.563	-0.47
203.783	29.79
204.003	19.96
204.223	22.07
204.443	51.89
204.663	23.48
204.884	8.6
205.104	21.15
205.324	28.42
205.544	54.17
205.764	55.47
205.984	58.9
206.204	65.06
206.424	47.3
206.644	0.8
206.864	9.77
207.084	-0
207.304	19.03
207.525	-54.38
207.745	7.32
207.964	23.73
208.184	-34.93
208.404	-73.54
208.624	-57.36
208.844	-65.04
209.064	-307.6
209.284	-238.6
209.504	-100.19
209.724	-7.15
209.944	4.08
210.164	32.62
210.384	36.49
210.604	53.7
210.823	7.06
211.043	-17.99
211.263	-0
211.483	2.69
211.703	-38.75
211.922	1.65
212.142	52.83
212.362	67.24
212.582	27.11
212.801	23.1
213.021	8.13
213.241	-6.67
213.461	-43.82
213.68	-41.06
213.9	-28.71
214.12	-17.24
214.339	-54.97
214.559	-49.08
214.779	-4.45
214.998	-4.04
215.218	-33.27
215.438	-19.06
215.657	-13.59
215.877	-32.71
216.096	-24.91
216.316	-19.24
216.535	-35.16
216.755	-31.39
216.974	-96.23
217.194	-118.46
217.413	-114.82
217.633	-68.79
217.852	-127.26
218.072	-61.37
218.291	-15.01
218.511	15.33
218.73	-14.45
218.95	-18.61
219.169	-18.19
219.389	-50.95
219.608	-35.08
219.827	-20.66
220.047	12.02
220.266	26.42
220.485	29.8
220.705	36.57
220.924	12.58
221.143	33.72
221.363	13.2
221.582	22.97
221.801	24.23
222.021	30.92
222.24	-44.83
222.459	-0
222.678	11.96
222.897	-17.56
223.117	-33.22
223.336	15.66
223.555	7.89
223.774	9.62
223.993	21.46
224.213	59.54
224.432	34.58
224.651	47.85
224.87	36.49
225.089	42.81
225.308	21.9
225.527	41.63
225.746	41.54
225.965	24.4
226.184	7.85
226.404	26.75
226.623	-3.83
226.842	-6.93
227.061	8.35
227.28	0.75
227.499	-11.27
227.718	-5.31
227.936	-13.63
228.155	-9.66
228.374	10.27
228.593	16.59
228.812	23.33
229.031	16.71
229.25	-20.11
229.469	-19.42
229.688	-6.31
229.907	11.65
230.125	21.45
230.344	34.65
230.563	31.8
230.782	34.45
231.001	-19.86
231.22	-10.5
231.438	13.12
231.657	11.1
231.876	4.11
232.095	38.2
232.313	33.29
232.532	-5.05
232.751	-19.52
232.969	-36.05
233.188	-107.68
233.407	-35.23
233.625	-7.47
233.844	-6.07
234.063	-6.43
234.281	22.22
234.5	-1.82
234.719	4.16
234.937	11.58
235.156	25.31
235.374	18.14
235.593	24.4
235.811	25.32
236.03	14.8
236.249	-31.32
236.467	-34.53
236.686	3.53
236.904	7.15
237.123	-4.09
237.341	4.69
237.559	13.76
237.778	-2.33
237.996	-9.69
238.215	21.39
238.433	16.57
238.652	10.03
238.87	-0.39
239.088	-5.08
239.307	-25.34
239.525	-26.12
239.743	-38.64
239.962	-57.16
240.18	-37.26
240.398	-49.9
240.617	-54.94
240.835	-33.85
241.053	35.46
241.271	60.3
241.49	54.39
241.708	52.85
241.926	40.82
242.144	0.9
242.363	-38.43
242.581	-55.24
242.799	-13.8
243.017	0.2
243.235	-12.04
243.453	3.99
243.672	0.35
243.89	-7.93
244.108	-10.97
244.326	-0.16
244.544	-5.41
244.762	-3.82
244.98	2.99
245.198	1.66
245.416	-13.94
245.634	-24.39
245.852	-37.92
246.07	-33.66
246.288	-33.06
246.506	-40.67
246.724	-18.49
246.942	-8.04
247.16	9.72
247.378	17.35
247.596	36.69
247.814	32.4
248.032	25.3
248.25	30.2
248.468	31.46
248.685	54.11
248.903	73.17
249.121	84.21
249.339	53.06
249.557	42.46
249.775	30.77
249.992	-24.21
250.21	-26.83
250.428	-11.4
250.646	-37.4
250.863	-40.41
251.081	-13.77
251.299	-26.66
251.517	-28.96
251.734	-3.89
251.952	-20.06
252.17	-5.67
252.387	9.47
252.605	9.72
252.823	21.99
253.04	35.05
253.258	42.41
253.475	45.37
253.693	60.57
253.911	67.89
254.128	71.55
254.346	75.63
254.563	49.94
254.781	30.02
254.998	1.96
255.216	-7.86
255.433	-15.65
255.651	11.18
255.868	47.61
256.086	61.8
256.303	65.8
256.521	61.13
256.738	52.22
256.956	25.49
257.173	24.07
257.39	-3.67
257.608	-25.6
257.825	2.5
258.043	33.84
258.26	33.22
258.477	41.19
258.695	39.01
258.912	-19.6
259.129	-23.13
259.346	-57.97
259.564	-72.99
259.781	-80.77
259.998	-20.77
260.216	6.89
260.433	39.95
260.65	21.81
260.867	40.37
261.084	23.8
261.302	11.64
261.519	-14.83
261.736	-20.74
261.953	-26.01
262.17	-11.91
262.387	-25.62
262.604	-49.4
262.822	-13.46
263.039	-10.32
263.256	-35.89
263.473	-11.46
263.69	5.36
263.907	22.23
264.124	33.41
264.341	56.62
264.558	40.96
264.775	56.99
264.992	54.71
265.209	29.07
265.426	33.25
265.643	41.24
265.86	39.43
266.077	40.66
266.294	29.69
266.51	10.17
266.727	-11.12
266.944	2.62
267.161	-13.03
267.378	-6.25
267.595	21.46
267.812	2.95
268.028	-17.63
268.245	12.16
268.462	4.52
268.679	-17.11
268.896	17.45
269.112	19.01
269.329	12.53
269.546	19.2
269.763	11.06
269.979	-3.58
270.196	0.34
270.413	-27.77
270.629	-49.4
270.846	-45.93
271.063	-37.73
271.279	-58.38
271.496	-40.63
271.712	-11.64
271.929	-9.81
272.146	-10.38
272.362	-2.18
272.579	11.23
272.795	38.86
273.012	59.78
273.228	52.98
273.445	46.39
273.661	38.99
273.878	-12.17
274.094	-29.77
274.311	-38.07
274.527	9.45
274.744	5.71
274.96	-15.92
275.177	-10.9
275.393	4.14
275.609	-1.12
275.826	14.13
276.042	31.35
276.259	41.6
276.475	44.27
276.691	38.71
276.908	26.42
277.124	34.57
277.34	30.1
277.557	12.77
277.773	0.32
277.989	-4.56
278.205	-6.42
278.422	-2.99
278.638	1.45
278.854	22.96
279.07	32.18
279.286	50.9
279.503	28.87
279.719	21.61
279.935	-10.87
280.151	-19.82
280.367	-29.31
280.583	-37.89
280.799	-24.5
281.016	-40.29
281.232	-17.41
281.448	-18.76
281.664	14.27
281.88	-13.15
282.096	-3.27
282.312	35.24
282.528	48.56
282.744	29.92
282.96	29.54
283.176	29.16
283.392	7.09
283.608	-6.83
283.824	1.25
284.04	15.52
284.256	22.37
284.471	26.22
284.687	29.41
284.903	40.56
285.119	56.9
285.335	35.52
285.551	20.89
285.767	3.71
285.982	-9.93
286.198	-50.65
286.414	-24.06
286.63	-4.33
286.846	24.98
287.061	7.2
287.277	38.68
287.493	33.21
287.709	32.42
287.924	9.19
288.14	35.86
288.356	15.71
288.571	29.43
288.787	10.86
289.003	14.23
289.218	1.92
289.434	-23.11
289.65	-17.19
289.865	-10.8
290.081	34.81
290.296	35
290.512	52.57
290.727	21.26
290.943	12.27
291.159	-11.16
291.374	-9.83
291.59	-32.62
291.805	-24.77
292.021	-1.74
292.236	-8.94
292.451	-1.09
292.667	8.5
292.882	33.3
293.098	32.1
293.313	32.97
293.529	28.23
293.744	21.38
293.959	-0.76
294.175	-9.45
294.39	8.32
294.605	17.8
294.821	36.64
295.036	44.32
295.251	51.64
295.467	39.52
295.682	28.22
295.897	16.19
296.112	-12.34
296.328	-5.62
296.543	-35.98
296.758	-23.44
296.973	-8.21
297.188	26.02
297.404	0.83
297.619	3.73
297.834	-10.48
298.049	-33.84
298.264	-56.28
298.479	-7.22
298.694	2.77
298.909	13.03
299.125	14.72
299.34	14.67
299.555	-9.81
299.77	-2.9
299.985	-30.68
300.2	-64.47
300.415	-78.88
300.63	-53.34
300.845	-63.48
301.06	-61.71
301.275	-24.61
301.49	-2.69
301.704	-10.22
301.919	-10.3
302.134	-7.94
302.349	-18.63
302.564	-83.99
302.779	-108.92
302.994	-113.32
303.209	-102.71
303.423	-44.19
303.638	25.29
303.853	-10.03
304.068	11.86
304.283	40.68
304.497	14.13
304.712	-0.34
304.927	13.98
305.142	1.51
305.356	-3.72
305.571	-1.78
305.786	-0.17
306	-2.91
306.215	-7.32
306.43	-41.72
306.644	-23.99
306.859	-10.75
307.074	-0.49
307.288	-33.28
307.503	-40.85
307.717	-36.46
307.932	-29.63
308.147	-33.47
308.361	-5.24
308.576	0.33
308.79	-26.69
309.005	-34.22
309.219	-14.64
309.434	-16.81
309.648	-22.44
309.863	-4.72
310.077	8.46
310.292	5.59
310.506	9.68
310.72	32.42
310.935	47.22
311.149	35.39
311.364	39.38
311.578	48.16
311.792	34.01
312.007	31.56
312.221	18.15
312.435	14.13
312.649	-7.07
312.864	-43.82
313.078	-32.76
313.292	23.37
313.507	-8.05
313.721	19.13
313.935	53.2
314.149	36.04
314.363	12.23
314.578	24.93
314.792	23.9
315.006	7.63
315.22	15.53
315.434	17.48
315.648	18.44
315.862	14.06
316.077	23.89
316.291	9.39
316.505	35.14
316.719	61.76
316.933	12.48
317.147	-0.54
317.361	-25.68
317.575	-66.72
317.789	-105.14
318.003	-123.44
318.217	-86.19
318.431	-19.16
318.645	30.25
318.859	21.8
319.073	39.56
319.287	34.43
319.5	1.29
319.714	-40.28
319.928	-59.04
320.142	-88.55
320.356	-59.25
320.57	-0.78
320.784	-6.84
320.997	-29.63
321.211	-27.99
321.425	-52.21
321.639	-102.19
321.853	-53.27
322.066	-15.04
322.28	-13.29
322.494	-16.47
322.707	5.83
322.921	3.49
323.135	-1.73
323.349	14.98
323.562	-0.46
323.776	-17.88
323.989	-27.74
324.203	-45.77
324.417	-60.49
324.63	-64.55
324.844	-44.23
325.057	-20.73
325.271	-14.74
325.485	8.17
325.698	35.46
325.912	34.35
326.125	-0.16
326.339	13.62
326.552	-15.29
326.766	-21.69
326.979	1.55
327.193	46.83
327.406	29.6
327.619	18.79
327.833	13.65
328.046	-9.57
328.26	-40.2
328.473	-23.3
328.686	-28.68
328.9	-25.32
329.113	-6.2
329.326	-32.53
329.54	-24.73
329.753	-34.33
329.966	-26.98
330.179	-27.74
330.393	-2.73
330.606	15.06
330.819	23.35
331.032	35.97
331.246	37.51
331.459	54.84
331.672	49.64
331.885	53.57
332.098	23.42
332.311	20.36
332.525	-34.81
332.738	-26.89
332.951	2.18
333.164	43.53
333.377	46.53
333.59	61.9
333.803	57.88
334.016	45.92
334.229	31.91
334.442	33.42
334.655	59.02
334.868	53.42
335.081	47.75
335.294	34.87
335.507	29.32
335.72	2.33
335.933	-8.37
336.146	-10.27
336.359	-10.21
336.572	-50.24
336.785	-63.64
336.997	-39.35
337.21	-31.37
337.423	-23.18
337.636	-1.93
337.849	17.71
338.062	20.01
338.274	24.01
338.487	9.57
338.7	5.84
338.913	-28.88
339.125	-62.76
339.338	-121.86
339.551	-88.22
339.763	-39.51
339.976	5.12
340.189	19.57
340.402	38.73
340.614	25.4
340.827	9.59
341.039	-6.78
341.252	-2.25
341.465	8.15
341.677	5.52
341.89	-20.98
342.102	-17.54
342.315	-29.93
342.527	-52.64
342.74	-35.74
342.952	-8.05
343.165	4.23
343.377	22.18
343.59	22.39
343.802	36.51
344.015	41.71
344.227	46.74
344.44	44.61
344.652	32.85
344.864	1.53
345.077	21.61
345.289	23.84
345.502	20.87
345.714	13.97
345.926	22.17
346.139	13.13
346.351	20.2
346.563	17.79
346.775	24.75
346.988	20.48
347.2	6.16
347.412	-36.96
347.624	-43.79
347.837	-30.65
348.049	-10.94
348.261	6.56
348.473	18.45
348.685	24.29
348.897	15.54
349.11	-0
349.322	-18.22
349.534	-18.59
349.746	0.66
349.958	-8.23
350.17	-8.68
350.382	21.98
350.594	19.08
350.806	6.33
351.018	7.87
351.23	-1.82
351.442	-60
351.654	-44.66
351.866	-44.73
352.078	-12.63
352.29	22.89
352.502	34.64
352.714	35.61
352.926	22.32
353.138	3.11
353.35	-14.12
353.561	-13.88
353.773	-44.39
353.985	-20.2
354.197	-24.5
354.409	-27.29
354.621	-27.39
354.832	2.83
355.044	-4.76
355.256	10.63
355.468	25.04
355.679	18.59
355.891	27.08
356.103	24.11
356.314	13.32
356.526	3.63
356.738	-1.81
356.949	-12.56
357.161	-3.2
357.373	-4.03
357.584	-11.27
357.796	6.08
358.008	3.19
358.219	10.14
358.431	0.54
358.642	12.18
358.854	12.54
359.065	-2.22
359.277	-24.03
359.488	-26.65
359.7	-52.51
359.911	-67.27
360.123	-33.45
360.334	-40.05
360.546	-34.84
360.757	-25.39
360.969	-21.78
361.18	-31.66
361.391	-15.23
361.603	-19.4
361.814	-12.85
362.025	2.57
362.237	0.34
362.448	16.08
362.659	23.43
362.871	18.25
363.082	9.69
363.293	10.88
363.504	-0.29
363.716	-7.59
363.927	-11.71
364.138	-25.42
364.349	-36.6
364.56	-34.62
364.772	-33.63
364.983	2.38
365.194	13.45
365.405	25.37
365.616	40.2
365.827	50.5
366.038	14.09
366.25	4.39
366.461	-15.32
366.672	4.78
366.883	18.57
367.094	36.29
367.305	25.4
367.516	24.43
367.727	-13.96
367.938	-30.49
368.149	-44.35
368.36	-15.39
368.571	-6.37
368.781	-15.95
368.992	-26.2
369.203	-32.84
369.414	-52.57
369.625	-65.09
369.836	-39.43
370.047	-60.6
370.258	-44.73
370.468	-54.79
370.679	-62.46
370.89	-50.65
371.101	-36.85
371.312	-39.91
371.522	-27.23
371.733	-18.23
371.944	-6.7
372.155	14.54
372.365	6.99
372.576	5.78
372.787	16.74
372.997	-6.49
373.208	-12.9
373.419	12.26
373.629	-11.67
373.84	-13.95
374.05	-17.64
374.261	-20.28
374.472	-44.22
374.682	-9.14
374.893	-18.12
375.103	13.6
375.314	10.97
375.524	17.19
375.735	20.39
375.945	27.81
376.156	0.71
376.366	9.74
376.577	2.51
376.787	-6.51
376.997	-4.15
377.208	-1.39
377.418	-9.19
377.629	2.84
377.839	3.61
378.049	4.83
378.26	16.21
378.47	20.6
378.68	10.3
378.89	14.11
379.101	3.69
379.311	-16.47
379.521	-35.98
379.732	-30.62
379.942	-36.02
380.152	-40.2
380.362	-12.6
380.572	-18.9
380.783	-6.67
380.993	-3.43
381.203	2.29
381.413	11.77
381.623	28.73
381.833	26.2
382.043	20.57
382.253	10.95
382.463	2.86
382.674	-6.63
382.884	-20.14
383.094	-13.53
383.304	-2.47
383.514	5.35
383.724	13.89
383.934	11.4
384.144	4.56
384.353	-11.29
384.563	-23.77
384.773	-23.32
384.983	-32.24
385.193	-19.47
385.403	-5.3
385.613	-0.46
385.823	-7.7
386.033	2.1
386.242	-5.85
386.452	-12.51
386.662	-18.55
386.872	-4.57
387.082	-9.65
387.291	-7.8
387.501	-1.93
387.711	-3.51
387.921	-10.15
388.13	-5.47
388.34	4.33
388.55	1.17
388.759	2.97
388.969	6.38
389.179	0.15
389.388	-4.6
389.598	0.14
389.807	-4.34
390.017	-4.54
390.227	-1.49
390.436	-2.59
390.646	-4.74
390.855	-0.63
391.065	-4.22
391.274	-6.45
391.484	-9.87
391.693	-4.9
391.903	-4.1
392.112	3.21
392.322	7.3
392.531	11.15
392.74	9.79
392.95	7.02
393.159	3.9
393.369	2.32
393.578	1.64
393.787	-0.85
393.997	0.36
394.206	-1.32
394.415	-1.16
394.625	-1.22
394.834	-1.48
395.043	-0.28
395.252	2.22
395.462	3.53
395.671	4.08
395.88	5.01
396.089	5.66
396.298	3.83
396.508	3.52
396.717	3.13
396.926	2.99
397.135	2.23
397.344	2.28
397.553	2.66
397.762	4.1
397.971	4.16
398.181	4.42
398.39	4.01
398.599	3.41
398.808	3.02
399.017	3.96
399.226	4.89
399.435	6.01
399.644	6.53
399.853	5.44
400.062	4.4
400.27	3.64
400.479	3.33
400.688	2.64
400.897	3.19
401.106	3.49
401.315	3.52
401.524	3.38
401.733	3.8
401.941	3.98
402.15	4.06
402.359	3.91
402.568	4.14
402.777	4.21
402.985	3.85
403.194	3.8
403.403	3.66
403.612	3.43
403.82	3.23
404.029	3.64
404.238	3.47
404.446	3.95
404.655	3.6
404.864	3.62
405.072	3.34
405.281	3.45
405.489	3.11
405.698	3.29
405.906	3.32
406.115	3.29
406.324	3.2
406.532	3.45
406.741	3.73
406.949	3.7
407.158	3.76
407.366	3.74
407.574	3.67
407.783	3.61
407.991	3.4
408.2	3.51
408.408	3.55
408.617	3.32
408.825	3.11
409.033	3.1
409.242	3.03
409.45	3.2
409.658	3.28
409.867	3.4
410.075	3.47
410.283	3.35
410.491	3.13
410.7	3.03
410.908	2.97
411.116	3.22
411.324	3.22
411.533	3.18
411.741	3.33
411.949	3.38
412.157	3.15
412.365	3.21
412.573	3.23
412.781	3.23
412.99	3.18
413.198	3.3
413.406	3.27
413.614	3.29
413.822	3.21
414.03	3.04
414.238	2.85
414.446	2.98
414.654	2.83
414.862	2.84
415.07	3.02
415.278	3.19
415.486	2.92
415.694	3.12
415.902	3
416.109	2.98
416.317	2.89
416.525	2.83
416.733	2.72
416.941	2.91
417.149	2.87
417.357	2.95
417.564	3.13
417.772	3.34
417.98	3.14
418.188	3.12
418.395	3.08
418.603	3.23
418.811	2.9
419.019	2.94
419.226	3
419.434	3.23
419.642	3.03
419.849	3.12
420.057	3.14
420.265	3.23
420.472	2.86
420.68	2.95
420.887	2.88
421.095	2.86
421.302	2.73
421.51	2.97
421.717	2.96
421.925	3.07
422.132	3.02
422.34	2.83
422.547	2.7
422.755	2.67
422.962	2.65
423.17	2.67
423.377	2.77
423.585	2.73
423.792	2.6
423.999	2.67
424.207	2.71
424.414	2.8
424.621	2.64
424.829	2.6
425.036	2.52
425.243	2.56
425.451	2.37
425.658	2.3
425.865	2.46
426.072	2.58
426.28	2.59
426.487	2.72
426.694	2.83
426.901	2.78
427.108	2.67
427.315	2.69
427.523	2.94
427.73	3.02
427.937	2.94
428.144	2.84
428.351	2.77
428.558	2.69
428.765	2.52
428.972	2.44
429.179	2.63
429.386	2.91
429.593	2.72
429.8	2.75
430.007	2.86
430.214	2.84
430.421	2.55
430.628	2.51
430.835	2.39
431.042	2.57
431.249	2.57
431.456	2.49
431.662	2.63
431.869	2.9
432.076	2.79
432.283	2.84
432.49	2.91
432.697	2.84
432.903	2.55
433.11	2.58
433.317	2.59
433.524	2.67
433.73	2.7
433.937	3.04
434.144	2.91
434.35	2.85
434.557	2.69
434.764	2.73
434.97	2.59
435.177	2.75
435.384	2.67
435.59	2.85
435.797	2.98
436.003	3.04
436.21	3.01
436.416	3.13
436.623	3.08
436.829	3.02
437.036	3.16
437.242	3.15
437.449	3.04
437.655	3.08
437.862	3.09
438.068	2.9
438.275	2.98
438.481	3.22
438.687	3.12
438.894	3.09
439.1	3.13
439.307	3.16
439.513	3
439.719	3.03
439.926	3.03
440.132	3.04
440.338	2.93
440.544	3.05
440.751	3
440.957	3.08
441.163	3
441.369	3.03
441.575	2.84
441.782	2.88
441.988	2.71
442.194	2.64
442.4	2.7
442.606	2.98
442.812	3.07
443.018	3.18
443.224	3.3
443.431	3.26
443.637	3.01
443.843	2.85
444.049	2.89
444.255	2.81
444.461	2.87
444.667	2.83
444.873	3
445.079	2.97
445.284	3.08
445.49	2.85
445.696	2.74
445.902	2.62
446.108	2.54
446.314	2.49
446.52	2.53
446.726	2.85
446.931	2.93
447.137	2.94
447.343	2.99
447.549	3.01
447.755	2.82
447.96	2.76
448.166	2.75
448.372	2.73
448.578	2.85
448.783	2.94
448.989	3.08
449.195	3.28
449.4	3.29
449.606	3.26
449.812	3.15
450.017	3.1
450.223	2.97
450.428	2.9
450.634	2.92
450.84	3.06
451.045	2.99
451.251	2.92
451.456	3.16
451.662	3.22
451.867	3.28
452.073	3.35
452.278	3.46
452.483	3.51
452.689	3.4
452.894	3.37
453.1	3.34
453.305	3.27
453.51	3.19
453.716	3.21
453.921	3.22
454.127	3.24
454.332	3.22
454.537	3.13
454.742	3.24
454.948	3.21
455.153	3.27
455.358	3.33
455.563	3.41
455.769	3.52
455.974	3.5
456.179	3.37
456.384	3.46
456.589	3.41
456.795	3.15
457	3.17
457.205	3.33
457.41	3.21
457.615	3.27
457.82	3.41
458.025	3.41
458.23	3.29
458.435	3.35
458.64	3.23
458.845	3.34
459.05	3.38
459.255	3.5
459.46	3.55
459.665	3.59
459.87	3.55
460.075	3.55
460.28	3.53
460.485	3.6
460.69	3.75
460.895	3.66
461.099	3.61
461.304	3.72
461.509	3.73
461.714	3.62
461.919	3.72
462.123	3.73
462.328	3.76
462.533	3.7
462.738	3.83
462.942	3.81
463.147	3.9
463.352	3.84
463.556	3.88
463.761	3.81
463.966	3.83
464.17	3.92
464.375	3.93
464.58	3.97
464.784	3.98
464.989	3.95
465.193	3.91
465.398	3.93
465.602	4.04
465.807	4.04
466.011	4.25
466.216	4.32
466.42	4.37
466.625	4.33
466.829	4.43
467.034	4.47
467.238	4.61
467.443	4.66
467.647	4.59
467.851	4.71
468.056	4.68
468.26	4.59
468.464	4.6
468.669	4.75
468.873	4.83
469.077	4.83
469.282	4.87
469.486	4.87
469.69	4.9
469.894	4.76
470.099	4.82
470.303	4.93
470.507	4.91
470.711	4.83
470.915	4.83
471.119	4.74
471.324	4.73
471.528	4.76
471.732	4.81
471.936	4.86
472.14	4.99
472.344	5.01
472.548	5.11
472.752	5.24
472.956	5.42
473.16	5.34
473.364	5.32
473.568	5.25
473.772	5.35
473.976	5.27
474.18	5.34
474.384	5.44
474.588	5.49
474.792	5.32
474.995	5.35
475.199	5.41
475.403	5.39
475.607	5.4
475.811	5.41
476.015	5.4
476.218	5.43
476.422	5.39
476.626	5.45
476.83	5.55
477.033	5.53
477.237	5.44
477.441	5.5
477.644	5.47
477.848	5.48
478.052	5.5
478.255	5.58
478.459	5.5
478.663	5.69
478.866	5.58
479.07	5.62
479.273	5.69
479.477	5.83
479.681	5.71
479.884	5.75
480.088	5.74
480.291	5.68
480.495	5.58
480.698	5.56
480.901	5.65
481.105	5.73
481.308	5.7
481.512	5.7
481.715	5.75
481.919	5.82
482.122	5.79
482.325	5.83
482.529	5.91
482.732	5.91
482.935	5.76
483.138	5.64
483.342	5.73
483.545	5.8
483.748	5.88
483.952	5.95
484.155	6.18
484.358	6.1
484.561	6.01
484.764	5.91
484.967	5.93
485.171	5.91
485.374	5.86
485.577	5.96
485.78	5.96
485.983	5.97
486.186	5.8
486.389	5.8
486.592	5.72
486.795	5.73
486.998	5.71
487.201	5.81
487.404	5.88
487.607	5.94
487.81	5.94
488.013	5.98
488.216	5.9
488.419	5.86
488.622	5.8
488.825	5.71
489.028	5.62
489.231	5.68
489.433	5.61
489.636	5.55
489.839	5.61
490.042	5.56
490.245	5.52
490.447	5.6
490.65	5.66
490.853	5.65
491.056	5.74
491.258	5.75
491.461	5.7
491.664	5.76
491.866	5.69
492.069	5.73
492.272	5.65
492.474	5.63
492.677	5.58
492.879	5.63
493.082	5.66
493.285	5.82
493.487	5.87
493.69	5.83
493.892	5.8
494.095	5.74
494.297	5.67
494.5	5.72
494.702	5.72
494.905	5.8
495.107	5.76
495.309	5.77
495.512	5.78
495.714	5.84
495.917	5.89
496.119	5.88
496.321	5.91
496.524	5.87
496.726	5.86
496.928	5.8
497.13	5.8
497.333	5.75
497.535	5.75
497.737	5.69
497.939	5.71
498.142	5.73
498.344	5.76
498.546	5.66
498.748	5.74
498.95	5.78
499.152	5.78
499.355	5.81
499.557	5.91
499.759	5.98
499.961	5.93
500.163	5.98
500.365	5.95
500.567	5.99
500.769	5.91
500.971	5.92
501.173	5.81
501.375	5.82
501.577	5.8
501.779	5.76
501.981	5.8
502.183	5.86
502.385	5.84
502.587	5.74
502.788	5.81
502.99	5.82
503.192	5.83
503.394	5.83
503.596	5.89
503.798	5.94
503.999	5.97
504.201	5.99
504.403	6.08
504.605	6.14
504.806	6.06
505.008	6.06
505.21	6.09
505.411	6.06
505.613	6.03
505.815	6.03
506.016	6.06
506.218	6.19
506.42	6.16
506.621	6.19
506.823	6.24
507.024	6.18
507.226	6.1
507.427	6.14
507.629	6.2
507.83	6.29
508.032	6.3
508.233	6.39
508.435	6.41
508.636	6.42
508.838	6.26
509.039	6.24
509.24	6.13
509.442	6.19
509.643	6.12
509.845	6.2
510.046	6.31
510.247	6.32
510.448	6.26
510.65	6.29
510.851	6.36
511.052	6.29
511.254	6.33
511.455	6.45
511.656	6.53
511.857	6.56
512.058	6.58
512.26	6.54
512.461	6.47
512.662	6.47
512.863	6.41
513.064	6.44
513.265	6.46
513.466	6.51
513.667	6.48
513.868	6.5
514.069	6.54
514.27	6.62
514.471	6.53
514.672	6.58
514.873	6.51
515.074	6.52
515.275	6.42
515.476	6.46
515.677	6.43
515.878	6.59
516.079	6.58
516.28	6.66
516.481	6.73
516.682	6.77
516.882	6.67
517.083	6.64
517.284	6.59
517.485	6.54
517.686	6.48
517.886	6.54
518.087	6.63
518.288	6.66
518.488	6.66
518.689	6.62
518.89	6.53
519.091	6.53
519.291	6.57
519.492	6.61
519.692	6.7
519.893	6.82
520.094	6.79
520.294	6.76
520.495	6.71
520.695	6.71
520.896	6.7
521.096	6.72
521.297	6.74
521.497	6.78
521.698	6.79
521.898	6.77
522.099	6.8
522.299	6.89
522.499	6.9
522.7	6.92
522.9	6.9
523.101	6.92
523.301	6.9
523.501	6.88
523.702	6.9
523.902	6.98
524.102	7.01
524.302	7.01
524.503	7.06
524.703	7.07
524.903	7.1
525.103	7.05
525.304	7.11
525.504	7.13
525.704	7.17
525.904	7.13
526.104	7.14
526.304	7.08
526.504	7.08
526.705	7.08
526.905	7.12
527.105	7.08
527.305	7.1
527.505	7.06
527.705	7.03
527.905	7.04
528.105	7.1
528.305	7.05
528.505	7.07
528.705	7.17
528.905	7.13
529.105	7.12
529.304	7.22
529.504	7.37
529.704	7.3
529.904	7.35
530.104	7.36
530.304	7.37
530.503	7.27
530.703	7.23
530.903	7.19
531.103	7.24
531.303	7.24
531.502	7.34
531.702	7.45
531.902	7.53
532.101	7.55
532.301	7.54
532.501	7.55
532.7	7.51
532.9	7.51
533.1	7.49
533.299	7.52
533.499	7.51
533.698	7.5
533.898	7.5
534.097	7.52
534.297	7.59
534.496	7.56
534.696	7.61
534.895	7.7
535.095	7.79
535.294	7.74
535.494	7.73
535.693	7.75
535.892	7.73
536.092	7.66
536.291	7.69
536.491	7.8
536.69	7.81
536.889	7.78
537.088	7.8
537.288	7.87
537.487	7.91
537.686	7.97
537.886	8.04
538.085	8.11
538.284	8.19
538.483	8.12
538.682	8.18
538.882	8.2
539.081	8.23
539.28	8.14
539.479	8.2
539.678	8.16
539.877	8.23
540.076	8.26
540.275	8.29
540.474	8.38
540.673	8.46
540.872	8.44
541.071	8.45
541.27	8.52
541.469	8.51
541.668	8.55
541.867	8.59
542.066	8.64
542.265	8.71
542.464	8.73
542.663	8.74
542.862	8.88
543.06	8.93
543.259	9
543.458	9.08
543.657	9.22
543.856	9.2
544.054	9.19
544.253	9.14
544.452	9.18
544.651	9.16
544.849	9.16
545.048	9.23
545.247	9.33
545.445	9.36
545.644	9.34
545.843	9.37
546.041	9.41
546.24	9.45
546.438	9.53
546.637	9.62
546.836	9.79
547.034	9.83
547.233	9.9
547.431	9.88
547.63	9.96
547.828	9.95
548.027	10.01
548.225	10.07
548.423	10.11
548.622	10.21
548.82	10.17
549.019	10.21
549.217	10.3
549.415	10.38
549.614	10.43
549.812	10.51
550.01	10.56
550.209	10.56
550.407	10.69
550.605	10.66
550.803	10.77
551.002	10.81
551.2	10.95
551.398	11.03
551.596	11.21
551.794	11.27
551.993	11.39
552.191	11.36
552.389	11.47
552.587	11.52
552.785	11.6
552.983	11.7
553.181	11.84
553.379	11.87
553.577	11.95
553.775	12.07
553.973	12.16
554.171	12.25
554.369	12.27
554.567	12.31
554.765	12.39
554.963	12.43
555.161	12.44
555.359	12.54
555.557	12.67
555.755	12.68
555.952	12.81
556.15	12.97
556.348	13.07
556.546	13.14
556.744	13.2
556.941	13.21
557.139	13.27
557.337	13.32
557.535	13.38
557.732	13.55
557.93	13.73
558.128	13.75
558.325	13.88
558.523	13.98
558.721	14.05
558.918	14.08
559.116	14.2
559.313	14.27
559.511	14.4
559.708	14.5
559.906	14.57
560.104	14.61
560.301	14.78
560.498	14.82
560.696	14.89
560.893	15.01
561.091	15.22
561.288	15.34
561.486	15.41
561.683	15.5
561.88	15.55
562.078	15.56
562.275	15.53
562.473	15.67
562.67	15.79
562.867	16.04
563.064	16.19
563.262	16.25
563.459	16.32
563.656	16.44
563.853	16.45
564.051	16.57
564.248	16.73
564.445	16.93
564.642	16.99
564.839	17.18
565.036	17.28
565.234	17.4
565.431	17.46
565.628	17.58
565.825	17.62
566.022	17.72
566.219	17.82
566.416	17.91
566.613	18
566.81	18.15
567.007	18.15
567.204	18.17
567.401	18.22
567.598	18.32
567.795	18.3
567.991	18.44
568.188	18.59
568.385	18.74
568.582	18.74
568.779	18.86
568.976	18.9
569.172	18.98
569.369	19
569.566	19.09
569.763	19.09
569.96	19.13
570.156	19.09
570.353	19.04
570.55	19.07
570.746	19.18
570.943	19.29
571.14	19.29
571.336	19.45
571.533	19.57
571.729	19.55
571.926	19.58
572.123	19.71
572.319	19.76
572.516	19.73
572.712	19.78
572.909	19.75
573.105	19.86
573.302	19.86
573.498	19.91
573.695	19.99
573.891	20.08
574.087	20
574.284	20.01
574.48	20.02
574.677	20.04
574.873	20.03
575.069	20.13
575.266	20.18
575.462	20.21
575.658	20.29
575.854	20.37
576.051	20.37
576.247	20.31
576.443	20.26
576.639	20.17
576.835	20.06
577.032	20.01
577.228	20.1
577.424	20.17
577.62	20.13
577.816	20.24
578.012	20.28
578.208	20.28
578.404	20.28
578.6	20.29
578.796	20.2
578.993	20.22
579.189	20.16
579.384	20.07
579.58	20.06
579.776	20.11
579.972	20.06
580.168	20.03
580.364	20.01
580.56	19.99
580.756	19.91
580.952	19.89
581.148	19.84
581.343	19.88
581.539	19.96
581.735	20
581.931	19.96
582.127	20.03
582.322	19.98
582.518	19.92
582.714	19.89
582.909	19.91
583.105	19.84
583.301	19.83
583.496	19.81
583.692	19.76
583.888	19.67
584.083	19.72
584.279	19.74
584.474	19.68
584.67	19.7
584.866	19.74
585.061	19.66
585.257	19.67
585.452	19.7
585.648	19.66
585.843	19.64
586.039	19.63
586.234	19.6
586.429	19.54
586.625	19.61
586.82	19.57
587.015	19.61
587.211	19.49
587.406	19.57
587.601	19.49
587.797	19.45
587.992	19.37
588.187	19.41
588.383	19.35
588.578	19.37
588.773	19.48
588.968	19.44
589.163	19.49
589.359	19.42
589.554	19.38
589.749	19.33
589.944	19.47
590.139	19.52
590.334	19.66
590.529	19.65
590.724	19.65
590.919	19.61
591.114	19.67
591.309	19.65
591.504	19.73
591.699	19.79
591.894	19.88
592.089	19.78
592.284	19.82
592.479	19.92
592.674	19.9
592.869	19.95
593.064	20.09
593.259	20.2
593.454	20.2
593.648	20.21
593.843	20.2
594.038	20.21
594.233	20.21
594.428	20.19
594.622	20.34
594.817	20.5
595.012	20.54
595.206	20.54
595.401	20.61
595.596	20.66
595.79	20.76
595.985	20.9
596.18	20.95
596.374	21.13
596.569	21.12
596.763	21
596.958	21.1
597.153	21.25
597.347	21.21
597.542	21.41
597.736	21.5
597.931	21.52
598.125	21.57
598.319	21.75
598.514	21.76
598.708	21.89
598.903	21.88
599.097	21.93
599.291	21.83
599.486	21.77
599.68	21.73
599.874	21.79
600.069	21.8
600.263	21.93
600.457	22.03
600.651	22.07
600.846	22.2
601.04	22.35
601.234	22.36
601.428	22.44
601.622	22.47
601.817	22.48
602.011	22.49
602.205	22.55
602.399	22.55
602.593	22.59
602.787	22.6
602.981	22.5
603.175	22.58
603.369	22.54
603.563	22.54
603.757	22.49
603.951	22.48
604.145	22.4
604.339	22.41
604.533	22.38
604.727	22.37
604.921	22.39
605.115	22.41
605.309	22.39
605.502	22.41
605.696	22.36
605.89	22.39
606.084	22.29
606.278	22.22
606.471	22.12
606.665	22.03
606.859	21.83
607.053	21.79
607.246	21.78
607.44	21.75
607.634	21.67
607.827	21.72
608.021	21.65
608.214	21.56
608.408	21.44
608.602	21.42
608.795	21.31
608.989	21.2
609.182	21.1
609.376	21.09
609.569	21
609.763	20.91
609.956	20.83
610.15	20.8
610.343	20.71
610.537	20.71
610.73	20.74
610.923	20.73
611.117	20.64
611.31	20.56
611.504	20.38
611.697	20.13
611.89	20.05
612.083	20
612.277	19.96
612.47	19.93
612.663	19.96
612.856	19.9
613.05	19.73
613.243	19.69
613.436	19.55
613.629	19.47
613.822	19.35
614.015	19.33
614.209	19.18
614.402	19.19
614.595	19.16
614.788	19.07
614.981	18.9
615.174	18.71
615.367	18.66
615.56	18.53
615.753	18.55
615.946	18.54
616.139	18.63
616.332	18.67
616.525	18.7
616.718	18.64
616.911	18.66
617.103	18.58
617.296	18.46
617.489	18.35
617.682	18.22
617.875	18.1
618.067	18.07
618.26	17.9
618.453	17.89
618.646	17.89
618.838	17.88
619.031	17.91
619.224	17.99
619.417	17.94
619.609	17.98
619.802	17.92
619.994	17.78
620.187	17.73
620.38	17.63
620.572	17.48
620.765	17.52
620.957	17.53
621.15	17.44
621.342	17.41
621.535	17.46
621.727	17.31
621.92	17.17
622.112	17.08
622.305	17.19
622.497	17.06
622.69	17.1
622.882	17.15
623.074	17.25
623.267	17.12
623.459	17.1
623.651	17.06
623.844	17.09
624.036	17.09
624.228	17.08
624.42	17.07
624.613	17.24
624.805	17.18
624.997	17.12
625.189	17.14
625.381	17.17
625.574	16.95
625.766	16.87
625.958	16.81
626.15	16.75
626.342	16.65
626.534	16.72
626.726	16.7
626.918	16.75
627.11	16.65
627.302	16.68
627.494	16.52
627.686	16.5
627.878	16.3
628.07	16.29
628.262	16.21
628.454	16.23
628.646	16.22
628.838	16.24
629.029	16.2
629.221	16.25
629.413	16.19
629.605	16.14
629.797	16.18
629.989	16.16
630.18	16.04
630.372	16.01
630.564	16
630.755	16.02
630.947	16.13
631.139	15.98
631.33	15.89
631.522	15.94
631.714	15.78
631.905	15.67
632.097	15.72
632.289	15.75
632.48	15.61
632.672	15.66
632.863	15.55
633.055	15.51
633.246	15.46
633.438	15.44
633.629	15.38
633.821	15.41
634.012	15.41
634.203	15.36
634.395	15.35
634.586	15.38
634.777	15.32
634.969	15.34
635.16	15.4
635.351	15.42
635.543	15.47
635.734	15.5
635.925	15.48
636.117	15.53
636.308	15.52
636.499	15.35
636.69	15.26
636.881	15.25
637.073	15.23
637.264	15.17
637.455	15.23
637.646	15.35
637.837	15.35
638.028	15.24
638.219	15.28
638.41	15.21
638.601	15.11
638.792	15.09
638.983	15.09
639.174	15.01
639.365	15.09
639.556	15.03
639.747	14.95
639.938	15.03
640.129	14.99
640.32	14.88
640.511	14.85
640.701	14.89
640.892	14.81
641.083	14.82
641.274	14.85
641.465	14.92
641.655	14.85
641.846	14.78
642.037	14.73
642.228	14.71
642.418	14.68
642.609	14.66
642.8	14.72
642.99	14.65
643.181	14.63
643.372	14.64
643.562	14.59
643.753	14.45
643.943	14.4
644.134	14.29
644.324	14.13
644.515	14.07
644.705	14.17
644.896	14.23
645.086	14.27
645.277	14.39
645.467	14.43
645.658	14.32
645.848	14.37
646.038	14.3
646.229	14.26
646.419	14.15
646.61	14.19
646.8	14.09
646.99	14.06
647.18	13.94
647.371	13.96
647.561	13.85
647.751	13.86
647.941	13.79
648.132	13.76
648.322	13.73
648.512	13.83
648.702	13.73
648.892	13.76
649.082	13.74
649.272	13.68
649.462	13.48
649.653	13.45
649.843	13.42
650.033	13.5
650.223	13.52
650.413	13.53
650.603	13.59
650.793	13.51
650.983	13.35
651.172	13.26
651.362	13.26
651.552	13.11
651.742	13.12
651.932	13.13
652.122	13.1
652.312	13.15
652.502	13.09
652.691	12.97
652.881	12.78
653.071	12.76
653.261	12.6
653.45	12.48
653.64	12.54
653.83	12.5
654.019	12.32
654.209	12.25
654.399	12.25
654.588	12.14
654.778	12.1
654.968	12.03
655.157	11.92
655.347	11.83
655.536	11.58
655.726	11.46
655.915	11.31
656.105	11.23
656.294	11.12
656.484	11.04
656.673	10.93
656.863	10.86
657.052	10.67
657.241	10.51
657.431	10.33
657.62	10.19
657.809	9.96
657.999	9.87
658.188	9.69
658.377	9.52
658.567	9.44
658.756	9.38
658.945	9.24
659.134	9.11
659.324	9.12
659.513	8.97
659.702	8.87
659.891	8.71
660.08	8.6
660.269	8.47
660.458	8.24
660.648	8.09
660.837	8.02
661.026	7.86
661.215	7.63
661.404	7.58
661.593	7.46
661.782	7.21
661.971	7.13
662.16	7.07
662.349	7.04
662.538	6.89
662.726	6.88
662.915	6.84
663.104	6.79
663.293	6.64
663.482	6.63
663.671	6.54
663.86	6.35
664.048	6.24
664.237	6.16
664.426	5.99
664.615	6.04
664.803	6.03
664.992	5.99
665.181	5.91
665.369	5.8
665.558	5.54
665.747	5.5
665.935	5.42
666.124	5.5
666.312	5.63
666.501	5.64
666.69	5.56
666.878	5.48
667.067	5.35
667.255	5.35
667.444	5.63
667.632	5.73
667.82	5.81
668.009	5.74
668.197	5.65
668.386	5.44
668.574	5.52
668.762	5.44
668.951	5.39
669.139	5.4
669.327	5.29
669.516	5.22
669.704	5.19
669.892	5.39
670.08	5.44
670.269	5.37
670.457	5.26
670.645	5.14
670.833	5.15
671.021	5.11
671.21	5.3
671.398	5.5
671.586	5.58
671.774	5.46
671.962	5.5
672.15	5.47
672.338	5.41
672.526	5.61
672.714	5.69
672.902	5.72
673.09	5.88
673.278	6.01
673.466	6.02
673.654	6.13
673.842	6.15
674.03	6.15
674.218	6.02
674.405	5.97
674.593	5.89
674.781	6
674.969	5.95
675.157	6.15
675.344	6.37
675.532	6.43
675.72	6.52
675.908	6.66
676.095	6.55
676.283	6.48
676.471	6.69
676.658	6.67
676.846	6.72
677.033	6.91
677.221	6.99
677.409	6.87
677.596	6.9
677.784	6.85
677.971	6.73
678.159	6.81
678.346	6.89
678.534	7.03
678.721	7.27
678.909	7.36
679.096	7.33
679.283	7.55
679.471	7.58
679.658	7.59
679.846	7.85
680.033	8.12
680.22	8.09
680.408	8.04
680.595	8.22
680.782	8.23
680.969	8.25
681.157	8.38
681.344	8.49
681.531	8.48
681.718	8.56
681.905	8.58
682.093	8.81
682.28	9.03
682.467	9.21
682.654	9.39
682.841	9.63
683.028	9.68
683.215	9.85
683.402	9.91
683.589	10.04
683.776	10.2
683.963	10.24
684.15	10.45
684.337	10.63
684.524	10.77
684.711	11.07
684.898	11.2
685.085	11.39
685.271	11.61
685.458	11.74
685.645	11.88
685.832	12.33
686.019	12.52
686.205	12.84
686.392	13.2
686.579	13.38
686.766	13.64
686.952	13.96
687.139	14.33
687.326	14.51
687.512	14.94
687.699	15.41
687.886	15.7
688.072	15.87
688.259	16.34
688.445	16.75
688.632	16.82
688.818	17.5
689.005	18.04
689.191	18.49
689.378	19.14
689.564	19.83
689.751	20.21
689.937	20.75
690.124	21.38
690.31	21.67
690.496	22.2
690.683	22.54
690.869	23.08
691.055	23.48
691.242	24
691.428	24.53
691.614	25.32
691.8	26.02
691.987	26.76
692.173	27.5
692.359	28.34
692.545	28.83
692.731	29.34
692.918	30.06
693.104	30.6
693.29	31.11
693.476	31.87
693.662	32.63
693.848	33.13
694.034	33.83
694.22	34.41
694.406	35.05
694.592	35.74
694.778	36.65
694.964	37.35
695.15	38.01
695.336	38.85
695.522	39.75
695.708	40.23
695.894	41.06
696.08	41.92
696.265	42.55
696.451	42.93
696.637	43.82
696.823	44.44
697.009	45.06
697.194	45.77
697.38	46.59
697.566	47.09
697.751	47.93
697.937	48.78
698.123	49.39
698.308	49.99
698.494	50.78
698.68	51.38
698.865	52.03
699.051	52.69
699.236	53.14
699.422	53.38
699.607	53.78
699.793	54.12
699.978	54.53
700.164	55.27
700.349	56.18
700.535	56.73
700.72	57.15
700.906	57.92
701.091	58.19
701.276	58.62
701.462	59.34
701.647	60.2
701.832	60.69
702.018	61.48
702.203	61.84
702.388	61.93
702.573	62.23
702.759	63.02
702.944	63.33
703.129	63.52
703.314	64.32
703.499	64.54
703.684	64.58
703.87	65.49
704.055	66.6
704.24	66.88
704.425	67.65
704.61	68.22
704.795	68.39
704.98	68.45
705.165	68.69
705.35	69.17
705.535	69.54
705.72	69.98
705.905	70.41
706.09	71.26
706.275	71.56
706.459	71.61
706.644	71.66
706.829	72.06
707.014	71.68
707.199	71.56
707.384	71.94
707.568	72.4
707.753	72.77
707.938	73.58
708.123	74.14
708.307	74.37
708.492	74.66
708.677	74.88
708.861	74.81
709.046	75.09
709.231	75.88
709.415	76.56
709.6	76.44
709.784	76.68
709.969	76.6
710.153	76.02
710.338	75.62
710.522	75.98
710.707	76.33
710.891	76.63
711.076	77.4
711.26	77.26
711.445	77.63
711.629	77.88
711.813	78.28
711.998	78.16
712.182	78.52
712.366	79.26
712.551	79.67
712.735	79.85
712.919	79.95
713.103	80.23
713.288	79.56
713.472	79.34
713.656	79.25
713.84	79.64
714.024	79.85
714.208	80.01
714.393	80.38
714.577	80.86
714.761	81.14
714.945	81.23
715.129	81.52
715.313	81.57
715.497	81.57
715.681	81.87
715.865	81.78
716.049	82.23
716.233	82.17
716.417	82.59
716.601	82.16
716.785	82.42
716.968	82.35
717.152	82.41
717.336	82.51
717.52	82.54
717.704	82.72
717.888	83.22
718.071	83.46
718.255	83.02
718.439	83.27
718.622	83.64
718.806	83.74
718.99	83.58
719.174	84.18
719.357	84.43
719.541	84.01
719.724	83.39
719.908	84.15
720.092	83.7
720.275	84.1
720.459	84
720.642	84.21
720.826	83.7
721.009	83.74
721.193	83.03
721.376	83.62
721.559	83.85
721.743	84.18
721.926	84.62
722.11	85.16
722.293	84.53
722.476	84.4
722.66	84.27
722.843	83.91
723.026	83.4
723.21	84.19
723.393	84.57
723.576	84.32
723.759	84.49
723.942	84.96
724.126	84.65
724.309	84.78
724.492	85.86
724.675	85.87
724.858	86.5
725.041	86.96
725.224	87
725.407	86.69
725.59	87.81
725.774	87.14
725.957	86.29
726.14	85.99
726.322	86.07
726.505	85.41
726.688	86.72
726.871	87.27
727.054	87.57
727.237	87.65
727.42	87.85
727.603	86.64
727.786	86.65
727.968	87.08
728.151	86.82
728.334	86.59
728.517	87.16
728.699	87.48
728.882	86.91
729.065	87.26
729.248	88.06
729.43	88.45
729.613	89.55
729.796	90.6
729.978	90.03
730.161	89.09
730.343	87.72
730.526	87.06
730.708	85.97
730.891	86.53
731.073	86.52
731.256	87.09
731.438	87.44
731.621	88.1
731.803	88.18
731.986	88.1
732.168	88.03
732.35	87.82
732.533	88.02
732.715	87.62
732.898	88.76
733.08	88.75
733.262	89.23
733.444	88.99
733.627	89.84
733.809	89.41
733.991	90.4
734.173	89.57
734.355	89.61
734.538	89.6
734.72	89.67
734.902	89.41
735.084	90.25
735.266	90.31
735.448	90.33
735.63	90.01
735.812	89.94
735.994	89.62
736.176	89.62
736.358	88.76
736.54	89.41
736.722	89.06
736.904	88.64
737.086	89.32
737.268	91.1
737.45	91.91
737.632	92.71
737.814	92.73
737.995	92.05
738.177	91.19
738.359	90.13
738.541	90.33
738.723	90.69
738.904	91.23
739.086	90.57
739.268	90.66
739.449	91.09
739.631	90.35
739.813	90.05
739.994	91.02
740.176	91.72
740.358	90.58
740.539	92.38
740.721	92.89
740.902	93.48
741.084	92.48
741.265	92.62
741.447	92.32
741.628	92.1
741.81	91.23
741.991	92.22
742.172	92.99
742.354	92.69
742.535	92.16
742.717	92.73
742.898	93.22
743.079	94.24
743.261	94.16
743.442	93.78
743.623	94.51
743.804	93.74
743.986	92.8
744.167	91.38
744.348	92.22
744.529	91.97
744.71	91.3
744.891	91.2
745.073	91.19
745.254	90.91
745.435	89.21
745.616	89.12
745.797	89.6
745.978	90.87
746.159	91.67
746.34	91.81
746.521	93.96
746.702	92.84
746.883	92.36
747.064	90.99
747.245	92.23
747.426	90.74
747.606	90.48
747.787	90.27
747.968	91.45
748.149	90.52
748.33	90.69
748.51	91.19
748.691	91.25
748.872	91.7
749.053	91.97
749.233	91.75
749.414	91.73
749.595	91.67
749.775	90.59
749.956	89.8
750.137	90.55
750.317	91.46
750.498	93.12
750.678	93.38
750.859	94.99
751.04	93.49
751.22	91.96
751.4	90.34
751.581	89.44
751.761	88.55
751.942	89.41
752.122	88.1
752.303	88.6
752.483	89.58
752.663	88.39
752.844	87.02
753.024	90.25
753.204	91.17
753.385	90.65
753.565	92.07
753.745	93.39
753.925	91.36
754.106	90.8
754.286	91.2
754.466	91.42
754.646	91.62
754.826	91.02
755.006	89.92
755.187	90.21
755.367	90.58
755.547	90.3
755.727	92.13
755.907	92.6
756.087	93.61
756.267	91.58
756.447	91.63
756.627	89.66
756.807	90.01
756.987	88.31
757.167	89.83
757.346	89.22
757.526	88.22
757.706	89.04
757.886	89.49
758.066	90.79
758.246	92.63
758.425	94.45
758.605	93.28
758.785	93.13
758.965	91.99
759.144	89.19
759.324	89.82
759.504	90.24
759.683	91.62
759.863	90
760.043	90.5
760.222	90.27
760.402	90.32
760.581	88.46
760.761	90.01
760.94	89.57
761.12	90.17
761.299	90.49
761.479	90.91
761.658	89.61
761.838	90.56
762.017	91.45
762.197	91.88
762.376	92.52
762.555	93.57
762.735	93.52
762.914	91.72
763.093	90.9
763.273	89.74
763.452	89.16
763.631	87.71
763.81	87.24
763.99	87.02
764.169	86.97
764.348	86.62
764.527	86.65
764.706	87.73
764.885	88.99
765.064	88.44
765.243	89.12
765.423	92.01
765.602	91.57
765.781	89.92
765.96	89.33
766.139	88.55
766.318	87.38
766.497	85.89
766.676	86.1
766.854	88.94
767.033	88.47
767.212	87.38
767.391	89.11
767.57	89.87
767.749	88.23
767.928	90.11
768.106	90.11
768.285	87.29
768.464	86.62
768.643	86.61
768.821	86.04
769	88.41
769.179	89.4
769.357	87.97
769.536	87.89
769.715	89.06
769.893	88.96
770.072	90.36
770.25	91.63
770.429	92.34
770.607	89.81
770.786	88.87
770.964	89.61
771.143	89.82
771.321	89.29
771.5	90.37
771.678	88.68
771.857	86.85
772.035	86.55
772.213	87.3
772.392	85.2
772.57	86.32
772.748	86.73
772.927	85.47
773.105	83.53
773.283	84.7
773.461	86.22
773.64	87.27
773.818	87.39
773.996	90.5
774.174	89.62
774.352	87.2
774.531	83.9
774.709	87.34
774.887	83.65
775.065	85.91
775.243	86.44
775.421	86.64
775.599	85.31
775.777	86.39
775.955	83.41
776.133	81
776.311	82.74
776.489	81.96
776.667	82.42
776.844	83.97
777.022	81.92
777.2	81.55
777.378	80.1
777.556	81.06
777.734	81.72
777.911	87.96
778.089	87.79
778.267	87.22
778.445	85.12
778.622	84.66
778.8	82.57
778.978	82.51
779.155	82.63
779.333	83.48
779.511	82.85
779.688	85.6
779.866	82.92
780.043	81.98
780.221	81.02
780.398	81.25
780.576	79.96
780.753	84.28
780.931	82.82
781.108	83.39
781.286	85.55
781.463	83.38
781.64	82.23
781.818	86.39
781.995	85.71
782.172	83.81
782.35	84.48
782.527	87.77
782.704	86.21
782.882	87.91
783.059	85.94
783.236	86.27
783.413	86.27
783.59	87.9
783.768	84.04
783.945	89.21
784.122	88.22
784.299	85.76
784.476	82.97
784.653	84.81
784.83	80.13
785.007	77.06
785.184	77.68
785.361	77.28
785.538	81.55
785.715	85.13
785.892	87.97
786.069	89.2
786.246	91.31
786.423	88.14
786.6	86.36
786.776	88.1
786.953	82.99
787.13	83.85
787.307	83.07
787.484	82.07
787.66	79.89
787.837	82.44
788.014	80.93
788.191	79.15
788.367	77.07
788.544	80.05
788.721	79.97
788.897	83.02
789.074	83.67
789.25	83.49
789.427	82.38
789.603	81.86
789.78	78.97
789.956	77.12
790.133	77.57
790.309	77.61
790.486	80.1
790.662	78.27
790.839	81.32
791.015	81.55
791.192	80.32
791.368	79.68
791.544	80.28
791.721	81.9
791.897	83.42
792.073	80.88
792.249	75.78
792.426	78.35
792.602	78.8
792.778	77.98
792.954	76.37
793.13	80.83
793.307	75.36
793.483	66.53
793.659	67.58
793.835	72.3
794.011	68.96
794.187	73.96
794.363	77.12
794.539	77
794.715	72.45
794.891	72.42
795.067	73.14
795.243	79.18
795.419	74.37
795.595	72.6
795.771	75.79
795.947	74.71
796.122	70.22
796.298	81.09
796.474	83.21
796.65	81.96
796.826	83.06
797.001	83.97
797.177	75.55
797.353	80.62
797.529	81.18
797.704	79.28
797.88	77.5
798.056	78.73
798.231	77.68
798.407	79.95
798.582	87
798.758	95.26
798.934	98.47
799.109	94.07
799.285	88.04
799.46	82.62
799.636	76.02
799.811	76.53
799.986	80.84
800.162	86.49
800.337	90.6
800.513	88.74
800.688	81.71
800.863	90.49
801.039	76.33
801.214	68.51
801.389	71.59
801.565	75.46
801.74	56.53
801.915	70.26
802.09	74.12
802.265	76.83
802.441	71.79
802.616	79.87
802.791	77.99
802.966	72.14
803.141	68.27
803.316	72.85
803.491	80.08
803.666	84.98
803.841	88.85
804.016	88.17
804.191	84.82
804.366	73.93
804.541	70.67
804.716	71.85
804.891	72.39
805.066	78.86
805.241	81.06
805.416	76.79
805.591	77.05
805.765	78.58
805.94	75.49
806.115	70.25
806.29	66.95
806.464	66.5
806.639	63.79
806.814	56.63
806.989	60.88
807.163	72.84
807.338	71.44
807.512	71.25
807.687	64.25
807.862	73.07
808.036	69.09
808.211	73.04
808.385	76.23
808.56	95.81
808.734	113.48
808.909	112.73
809.083	114.6
809.258	117.37
809.432	108.57
809.606	78.4
809.781	76.34
809.955	70.4
810.13	65.74
810.304	63.01
810.478	64.98
810.652	68.2
810.827	71.44
811.001	73.05
811.175	72.24
811.349	78.74
811.524	75.59
811.698	64.14
811.872	59.91
812.046	65.36
812.22	62.53
812.394	60.47
812.568	70.96
812.742	77.91
812.916	72.86
813.09	69.94
813.264	63.77
813.438	66.57
813.612	55.34
813.786	57.11
813.96	60.35
814.134	65.22
814.308	71.3
814.482	81.02
814.656	70.6
814.83	66.42
815.003	69.42
815.177	55.63
815.351	43.28
815.525	46.58
815.698	52.57
815.872	48.29
816.046	43.23
816.219	52.26
816.393	63.87
816.567	64.7
816.74	68.42
816.914	77.87
817.088	79.39
817.261	66.65
817.435	53.59
817.608	61.01
817.782	61.76
817.955	69.01
818.129	70.83
818.302	75
818.475	79.45
818.649	76.42
818.822	67.01
818.996	84.85
819.169	94.09
819.342	74.91
819.516	77.51
819.689	88.12
819.862	76.45
820.035	70.04
820.209	73.98
820.382	74.04
820.555	69.23
820.728	55.32
820.901	42.25
821.075	37.92
821.248	47.38
821.421	33.86
821.594	39.14
821.767	72
821.94	88.79
822.113	65.07
822.286	63.85
822.459	76.93
822.632	72.8
822.805	58.08
822.978	59.49
823.151	61.92
823.324	40.73
823.496	15.1
823.669	12.21
823.842	14.46
824.015	4.48
824.188	0.88
824.361	26.36
824.533	21.59
824.706	39.96
824.879	51.88
825.051	67.99
825.224	50.81
825.397	68.79
825.569	55.21
825.742	65.83
825.915	66
826.087	86.2
826.26	57.37
826.432	57.13
826.605	49.39
826.777	48.93
826.95	45.39
827.122	36.13
827.295	34.48
827.467	39.99
827.64	22.33
827.812	-0
827.984	21.64
828.157	20.94
828.329	-25.08
828.501	-26.84
828.674	30.76
828.846	29.27
829.018	51.29
829.19	60.94
829.363	81.59
829.535	76.94
829.707	78.69
829.879	46.69
830.051	54.32
830.223	45.66
830.395	24.86
830.568	12.41
830.74	7.37
830.912	25.71
831.084	25.3
831.256	29.04
831.428	30.4
831.6	29.73
831.772	-3.84
831.943	-19.22
832.115	-6.06
832.287	12.32
832.459	31.19
832.631	52.9
832.803	71.87
832.975	103.34
833.146	98.42
833.318	87.65
833.49	88.31
833.662	71
833.833	17.51
834.005	19.98
834.177	39.74
834.348	28.89
834.52	27.19
834.692	57.7
834.863	35.75
835.035	12.16
835.206	-12.56
835.378	5.56
835.549	1.8
835.721	33.28
835.892	38.77
836.064	32.1
836.235	25.71
836.407	47.41
836.578	18.26
836.749	19.65
836.921	8.06
837.092	-28.28
837.264	-36.57
837.435	-46.19
837.606	-9.97
837.777	21.5
837.949	37.02
838.12	28.71
838.291	42.54
838.462	28.96
838.633	8.69
838.805	-2.31
838.976	4.38
839.147	-43.39
839.318	-50.91
839.489	-102.86
839.66	-64.41
839.831	-13.21
840.002	-0.26
840.173	-3.56
840.344	38.25
840.515	28.62
840.686	-63.32
840.857	-74.71
841.028	-40.28
841.199	-26.73
841.369	-2.88
841.54	6.69
841.711	30.78
841.882	68.73
842.053	83.64
842.223	65.38
842.394	63.11
842.565	67.2
842.736	37.71
842.906	21.49
843.077	27.64
843.248	47.56
843.418	55.89
843.589	57.71
843.759	126.46
843.93	126.4
844.101	56.72
844.271	49.51
844.442	40.06
844.612	43.14
844.783	9.81
844.953	-25.15
845.123	-36.97
845.294	-23.29
845.464	-143.28
845.635	-29.52
845.805	19.72
845.975	21.77
846.146	-14.99
846.316	-31.95
846.486	-2.07
846.656	25.05
846.827	5.97
846.997	4.65
847.167	38.27
847.337	11.83
847.507	-32.47
847.677	18.96
847.848	59.09
848.018	42.84
848.188	46.28
848.358	43.57
848.528	21.38
848.698	-12.82
848.868	-51.72
849.038	-131.09
849.208	-11.88
849.378	38.13
849.548	45.3
849.718	30.47
849.887	53.73
850.057	36.39
850.227	-11.45
850.397	-47.46
850.567	-100.79
850.737	-225.65
850.906	-798.75
851.076	-316.41
851.246	29.84
851.415	89.34
851.585	58.46
851.755	42.96
851.924	57.77
852.094	7.77
852.264	-68.36
852.433	-617.31
852.603	-85.4
852.772	-76.79
852.942	4.06
853.111	39.15
853.281	47.07
853.45	57.89
853.62	6.88
853.789	-5.08
853.959	-9.73
854.128	1.9
854.297	-46.6
854.467	-43.64
854.636	-18.72
854.805	-10.94
854.975	-33.53
855.144	-78.08
855.313	-2.1
855.482	-236.5
855.652	-97.18
855.821	-75
855.99	29.78
856.159	29.71
856.328	26.85
856.497	5.72
856.667	17.86
856.836	33.74
857.005	14.8
857.174	7.57
857.343	23.72
857.512	34.93
857.681	-4.59
857.85	-51.94
858.019	2.38
858.188	5.4
858.356	-19.26
858.525	-51.3
858.694	-13.15
858.863	-92.07
859.032	-97.06
859.201	-97.99
859.369	-63.52
859.538	-67.02
859.707	-58.15
859.876	-26.42
860.044	-0.56
860.213	46.57
860.382	42.1
860.55	42.35
860.719	61.29
860.888	47.89
861.056	12.75
861.225	14.02
861.393	52.17
861.562	42.35
861.73	9.96
861.899	-136.65
862.067	-1406.9
862.236	-44.08
862.404	-153.03
862.572	-49.8
862.741	47.54
862.909	22.39
863.078	-67.81
863.246	-43.36
863.414	-46.92
863.582	-51.06
863.751	-66.18
863.919	-55.76
864.087	-28.78
864.255	-59.26
864.424	-354.98
864.592	-62.59
864.76	-63.54
864.928	-100.8
865.096	-46.82
865.264	-18.6
865.432	-790.91
865.6	91.5
865.768	-51.99
865.936	-31.6
866.104	8.02
866.272	77.81
866.44	-200.79
866.608	373.37
866.776	206.81
866.944	2344.19
867.112	-452.54
867.28	-159.13
867.448	-53.2
867.615	0.58
867.783	36.5
867.951	30.49
868.119	69.04
868.286	101.55
868.454	23.76
868.622	-7.88
868.789	37.22
868.957	385.71
869.125	-1357.89
869.292	-67.81
869.46	-115.31
869.627	-2.17
869.795	-16.74
869.963	18.53
870.13	31.32
870.298	42.13
870.465	-5.82
870.632	-20.1
870.8	7.01
870.967	-28.75
871.135	-67.13
871.302	-50.6
871.469	-29.87
871.637	-28.83
871.804	16.32
871.971	-0.59
872.139	-160.47
872.306	57.24
872.473	-3.14
872.64	-167.38
872.807	-78.9
872.975	35.21
873.142	-193.09
873.309	1662.16
873.476	29.66
873.643	66.4
873.81	40.73
873.977	80.82
874.144	47.21
874.311	-67.06
874.478	-90.51
874.645	-115.22
874.812	-83.49
874.979	-19.42
875.146	-32.85
875.313	-28.2
875.48	15.82
875.647	-10.35
875.813	-49
875.98	-24.52
876.147	-57.31
876.314	-135.47
876.481	860.33
876.647	-960.67
876.814	321.76
876.981	30
877.147	23.75
877.314	29.69
877.481	34.84
877.647	22.57
877.814	19.41
877.98	17.48
878.147	22.63
878.314	80.44
878.48	71.19
878.647	49.46
878.813	70.2
878.979	67.25
879.146	33.57
879.312	43.25
879.479	53.32
879.645	-11.49
879.811	-103.15
879.978	-341.22
880.144	-75.84
880.31	-36.51
880.477	-186.02
880.643	-208.1
880.809	-36.15
880.975	-30.12
881.142	-608.18
881.308	-54.49
881.474	7.74
881.64	-20.97
881.806	-80.05
881.972	25.24
882.138	76.62
882.304	57.93
882.47	-90.72
882.636	-388.52
882.802	-186.31
882.968	-44.72
883.134	-17.59
883.3	25.62
883.466	47.68
883.632	84.56
883.798	49.8
883.964	64.49
884.129	89.96
884.295	124.74
884.461	40.28
884.627	27.6
884.793	-18.61
884.958	-41.12
885.124	-138.66
885.29	-175.2
885.455	-265.05
885.621	-25.23
885.787	-97.17
885.952	-44.89
886.118	-62.58
886.283	-44.93
886.449	-135.25
886.614	-87.86
886.78	-122.31
886.945	703.28
887.111	-523.7
887.276	-484.09
887.442	-970.91
887.607	-397.64
887.773	-281.85
887.938	-199.74
888.103	-230.34
888.269	-102.11
888.434	-287.03
888.599	-111.61
888.764	-12.89
888.93	2.69
889.095	-35.8
889.26	-64.43
889.425	-27.31
889.59	5.47
889.756	-4.29
889.921	26.33
890.086	94.74
890.251	72.34
890.416	-85.13
890.581	-972.58
890.746	203.57
890.911	580.89
891.076	226.13
891.241	-588.81
891.406	-0.56
891.571	-26.3
891.736	-78.44
891.901	37.17
892.065	-415.38
892.23	36.62
892.395	100.39
892.56	183.82
892.725	-480.47
892.889	-2414.63
893.054	-264.98
893.219	-102.83
893.384	-44.78
893.548	-46.84
893.713	-34.81
893.878	-37.85
