Data from Ofra_PS_T2_1A_2GT38_Reflection_1.txt Node
Date: Wed Jul 21 17:56:03 EDT 2021
User: Adam
Spectrometer: FLMT01687
Trigger mode: 0
Integration Time (sec): 1.100000E0
Scans to average: 2
Electric dark correction enabled: true
Nonlinearity correction enabled: false
Boxcar width: 2
XAxis mode: Wavelengths
Number of Pixels in Spectrum: 3648
>>>>>Begin Spectral Data<<<<<
179.494	747.8
179.716	788.71
179.937	774.14
180.158	747.69
180.38	1171.72
180.601	265.06
180.823	55.18
181.044	-153.67
181.265	-46.51
181.486	26.47
181.708	136.43
181.929	1309.69
182.15	-430.63
182.372	90.29
182.593	1.13
182.814	-8.73
183.035	69.96
183.257	31.82
183.478	-59.31
183.699	-4.63
183.92	-23.04
184.141	-42.27
184.363	-117.95
184.584	-67.1
184.805	-16.3
185.026	46.37
185.247	43.67
185.468	38.36
185.689	47.9
185.91	31.06
186.132	-11.28
186.353	-10.82
186.574	46
186.795	24.59
187.016	-35.4
187.237	-42.03
187.458	-89.93
187.679	-105.41
187.9	-48.27
188.121	-21.66
188.342	-9.7
188.563	15.83
188.784	36.57
189.005	-11.88
189.226	21.68
189.447	-13.38
189.667	-270.75
189.888	-548.15
190.109	-1589.29
190.33	-1015.97
190.551	-1499.78
190.772	-345.7
190.993	-295.64
191.214	-249.51
191.434	-137.16
191.655	-61.81
191.876	-115.05
192.097	-197.68
192.318	-265.52
192.538	-429.25
192.759	-272.99
192.98	-134.07
193.201	-49.6
193.421	-30.81
193.642	0.7
193.863	-7.29
194.083	-30.8
194.304	-48.95
194.525	-51.64
194.745	-72.13
194.966	-69.11
195.187	-88.55
195.407	-116.05
195.628	-194.94
195.848	-200.97
196.069	-180.65
196.29	-123.83
196.51	-139.13
196.731	-92.86
196.951	-149.42
197.172	-167.21
197.392	-201.67
197.613	-165.46
197.833	-211.58
198.054	-154.13
198.274	-98.38
198.495	-103.23
198.715	-71.66
198.936	-90.42
199.156	-72.04
199.377	-175.95
199.597	-151.33
199.817	-148.42
200.038	-70.41
200.258	-116.79
200.479	-69.94
200.699	-100.13
200.919	-31.67
201.14	-80.34
201.36	-103.88
201.58	-24.1
201.801	24.27
202.021	-26
202.241	-18.63
202.461	-10.97
202.682	-97.6
202.902	-201.43
203.122	-113.89
203.342	-82.94
203.563	-41.72
203.783	-0.6
204.003	-31.73
204.223	-28.44
204.443	38.94
204.663	5.24
204.884	-11.9
205.104	34.99
205.324	31.61
205.544	-21.52
205.764	11.11
205.984	19.86
206.204	28.15
206.424	34.91
206.644	9.39
206.864	13.23
207.084	-37.35
207.304	-53.05
207.525	-181.8
207.745	-61.87
207.964	-8.87
208.184	-50.18
208.404	-98.91
208.624	-113
208.844	-121.44
209.064	-488.65
209.284	-521.44
209.504	-287.57
209.724	-117.63
209.944	-65.26
210.164	-18.94
210.384	-13.62
210.604	-4.3
210.823	-62.17
211.043	-103.86
211.263	-87.71
211.483	-60.79
211.703	-127.27
211.922	-91.54
212.142	-28.14
212.362	-18.67
212.582	-31.4
212.801	-33.66
213.021	-36.12
213.241	-52.02
213.461	-104.05
213.68	-142.56
213.9	-105.54
214.12	-90.29
214.339	-146.94
214.559	-106.17
214.779	-48.68
214.998	-50.47
215.218	-101.26
215.438	-55.66
215.657	-58.76
215.877	-53.38
216.096	-18.72
216.316	-0.63
216.535	-23.42
216.755	-21.82
216.974	-113.17
217.194	-185.83
217.413	-170.46
217.633	-168.89
217.852	-311.47
218.072	-151.61
218.291	-84.14
218.511	-35
218.73	-57.14
218.95	-41.82
219.169	-39.24
219.389	-80.89
219.608	-66.9
219.827	-63.25
220.047	-55.48
220.266	-50.31
220.485	-42.02
220.705	-45.09
220.924	-53.6
221.143	7.4
221.363	-5.83
221.582	1.89
221.801	-4.37
222.021	38.88
222.24	-75.8
222.459	-32.49
222.678	-45.61
222.897	-80.66
223.117	-223.3
223.336	-121.48
223.555	-88.25
223.774	-33.82
223.993	-22.62
224.213	85.74
224.432	59.78
224.651	58.22
224.87	15.59
225.089	21.16
225.308	0.01
225.527	6.55
225.746	3.34
225.965	-4.52
226.184	-33.59
226.404	-17.59
226.623	-45.14
226.842	-43.08
227.061	-9.23
227.28	1.5
227.499	-15.77
227.718	4
227.936	-9.3
228.155	-2.6
228.374	-13.53
228.593	8.48
228.812	5.9
229.031	12.55
229.25	-47.42
229.469	-59.33
229.688	-66.41
229.907	-17.35
230.125	-9.44
230.344	13.35
230.563	26.58
230.782	40.7
231.001	-44.14
231.22	-53.17
231.438	-31.56
231.657	-27.45
231.876	-64.41
232.095	3.39
232.313	17.42
232.532	-28.29
232.751	-60.72
232.969	-55.98
233.188	-143.7
233.407	-50.9
233.625	-22.62
233.844	-44.87
234.063	-30.48
234.281	-18.09
234.5	-41.34
234.719	-31.38
234.937	-1.89
235.156	-6.14
235.374	-8.62
235.593	-39.15
235.811	-40.01
236.03	-67.96
236.249	-123.33
236.467	-101.23
236.686	-41.69
236.904	-28.01
237.123	-35.69
237.341	-27.38
237.559	-26.17
237.778	-46.52
237.996	-75.97
238.215	-23.66
238.433	5.54
238.652	10.25
238.87	-10.91
239.088	-7.42
239.307	-28.49
239.525	-77.64
239.743	-110.69
239.962	-101.1
240.18	-134.15
240.398	-193.79
240.617	-168.68
240.835	-145.31
241.053	-134.68
241.271	-44.9
241.49	-13.69
241.708	-48.47
241.926	-88.16
242.144	-72.64
242.363	-151.98
242.581	-194.68
242.799	-118.73
243.017	-72.58
243.235	-75.38
243.453	-61.81
243.672	-42.89
243.89	-48.03
244.108	-52.51
244.326	-31.94
244.544	-23.96
244.762	-33.46
244.98	-23.72
245.198	-24.9
245.416	-45.63
245.634	-48.14
245.852	-67.42
246.07	-89.05
246.288	-89.67
246.506	-117.28
246.724	-93.07
246.942	-46.45
247.16	-4.84
247.378	3.35
247.596	27.95
247.814	18.09
248.032	-22.37
248.25	-36.04
248.468	-29.56
248.685	-36.96
248.903	-0.48
249.121	12.62
249.339	-13.16
249.557	-23.5
249.775	-14.26
249.992	-96.6
250.21	-88.69
250.428	-56.82
250.646	-74.98
250.863	-100.26
251.081	-46.42
251.299	-52.24
251.517	-44.12
251.734	-32.27
251.952	-27.51
252.17	-25.5
252.387	-9.88
252.605	-27.09
252.823	-19.94
253.04	-9.87
253.258	1.01
253.475	-21.11
253.693	-0.59
253.911	-15.98
254.128	-16.72
254.346	-32.49
254.563	-36.15
254.781	-63.15
254.998	-72.65
255.216	-76.75
255.433	-74.45
255.651	-37.72
255.868	-8.58
256.086	23.31
256.303	12.67
256.521	14.75
256.738	-18.01
256.956	-60.02
257.173	-81.33
257.39	-99.41
257.608	-143.25
257.825	-60.48
258.043	-17.26
258.26	4.97
258.477	46.47
258.695	50.34
258.912	-4.13
259.129	-3.21
259.346	-53.79
259.564	-108.85
259.781	-132.09
259.998	-55.21
260.216	-47.04
260.433	2.41
260.65	8.63
260.867	28.28
261.084	-16.55
261.302	-26.18
261.519	-40.75
261.736	-56.29
261.953	-79.86
262.17	-35.07
262.387	-65.64
262.604	-109.38
262.822	-119.7
263.039	-94.91
263.256	-150.13
263.473	-111.25
263.69	-53.63
263.907	0.48
264.124	4.1
264.341	20.31
264.558	20.42
264.775	30.64
264.992	24.22
265.209	30.1
265.426	44.1
265.643	32.94
265.86	27.54
266.077	11.98
266.294	-16.98
266.51	-71.66
266.727	-53.4
266.944	-44.3
267.161	-34.92
267.378	-37.28
267.595	1.02
267.812	-34.95
268.028	-52.63
268.245	-38
268.462	-43.13
268.679	-55.58
268.896	9.52
269.112	9.04
269.329	-12.51
269.546	0.32
269.763	-2.32
269.979	-13.55
270.196	-19.42
270.413	-28.15
270.629	-62.05
270.846	-90.82
271.063	-102.31
271.279	-122.37
271.496	-113.52
271.712	-66.35
271.929	-42.17
272.146	-58.54
272.362	-54.25
272.579	-23.19
272.795	-15.12
273.012	-8.65
273.228	-5.87
273.445	-27.3
273.661	-55.84
273.878	-105.05
274.094	-102.87
274.311	-131.83
274.527	-34.5
274.744	-28.33
274.96	-16.3
275.177	2
275.393	22.38
275.609	6.54
275.826	33.05
276.042	8.75
276.259	-22.35
276.475	-2.22
276.691	-7.47
276.908	-29.22
277.124	0.62
277.34	9.61
277.557	-7.04
277.773	-19.11
277.989	-25.8
278.205	-24.18
278.422	-13.73
278.638	-9.88
278.854	16.98
279.07	3.72
279.286	-15.66
279.503	-34.71
279.719	-52.52
279.935	-81.42
280.151	-105.44
280.367	-65.93
280.583	-91.48
280.799	-69.6
281.016	-97.48
281.232	-39.25
281.448	-46.34
281.664	-13.91
281.88	-36.99
282.096	-8.99
282.312	6.8
282.528	13.09
282.744	16.01
282.96	19.16
283.176	8.23
283.392	5.84
283.608	4.67
283.824	-4.28
284.04	3.41
284.256	11.63
284.471	-3.3
284.687	-7.16
284.903	16.12
285.119	19.74
285.335	-14.93
285.551	-18.8
285.767	-45.79
285.982	-69.67
286.198	-106.39
286.414	-24.65
286.63	-14.3
286.846	18.31
287.061	0.16
287.277	29.99
287.493	-2.3
287.709	13.29
287.924	-3.66
288.14	30.96
288.356	27.54
288.571	44.38
288.787	21.72
289.003	25.77
289.218	-2.21
289.434	-39.85
289.65	-47.75
289.865	-61.94
290.081	-73.03
290.296	-56.89
290.512	-40.98
290.727	-58.31
290.943	-59.61
291.159	-57.7
291.374	-50.56
291.59	-65.04
291.805	-47.08
292.021	-27.6
292.236	-21.65
292.451	-7.92
292.667	5.26
292.882	18.97
293.098	2.64
293.313	-25.06
293.529	-50.14
293.744	-79.62
293.959	-79.09
294.175	-61.94
294.39	-16.49
294.605	-4.14
294.821	21.88
295.036	13.04
295.251	17.91
295.467	-20.71
295.682	-48.25
295.897	-112.87
296.112	-109.09
296.328	-99.43
296.543	-112.69
296.758	-85.53
296.973	-22.46
297.188	11.14
297.404	-15.99
297.619	-20.19
297.834	-38.46
298.049	-71.22
298.264	-110.42
298.479	-36.55
298.694	-16.18
298.909	6.78
299.125	16.23
299.34	29.98
299.555	-13.83
299.77	2.73
299.985	-47.61
300.2	-104
300.415	-116.73
300.63	-59.38
300.845	-78.55
301.06	-62.67
301.275	-27.11
301.49	-4.02
301.704	-27.72
301.919	-43.75
302.134	-63.69
302.349	-67.4
302.564	-144.54
302.779	-191.05
302.994	-157.48
303.209	-90.86
303.423	-68.33
303.638	9.45
303.853	-15.6
304.068	-24.63
304.283	-15.37
304.497	-12.22
304.712	-29.66
304.927	-10.62
305.142	-12.79
305.356	-9.43
305.571	-20.55
305.786	-35.72
306	-57.97
306.215	-62.33
306.43	-93.03
306.644	-82.31
306.859	-42.66
307.074	-32.35
307.288	-67.87
307.503	-76.57
307.717	-76.88
307.932	-79.64
308.147	-79.02
308.361	-48.93
308.576	-50.67
308.79	-81.91
309.005	-59.69
309.219	-39.45
309.434	-49.22
309.648	-45.23
309.863	-21.85
310.077	-35.57
310.292	-50.11
310.506	-40.08
310.72	-16.42
310.935	-4.8
311.149	-3.48
311.364	20.63
311.578	29.24
311.792	8.51
312.007	3.49
312.221	-12.4
312.435	-21.05
312.649	-41.18
312.864	-35.52
313.078	-6.31
313.292	57.22
313.507	33.5
313.721	75.75
313.935	43.7
314.149	4.81
314.363	-7.04
314.578	-15.67
314.792	-14.16
315.006	-33.96
315.22	-10.88
315.434	-11.93
315.648	6.2
315.862	0.88
316.077	3.77
316.291	-2.03
316.505	9.23
316.719	-10.7
316.933	-14.12
317.147	-4.33
317.361	-60.5
317.575	-105.75
317.789	-133.43
318.003	-203.66
318.217	-187.93
318.431	-102.33
318.645	-29.46
318.859	-21.17
319.073	9.71
319.287	-10.29
319.5	-28.23
319.714	-88.38
319.928	-126.96
320.142	-173.16
320.356	-65.1
320.57	-40.27
320.784	-39.46
320.997	-32.66
321.211	-27.36
321.425	-111.97
321.639	-136.84
321.853	-53.05
322.066	-38.47
322.28	-27.71
322.494	-9.39
322.707	6.03
322.921	-8.54
323.135	-1.87
323.349	-2.45
323.562	-33.9
323.776	-52.99
323.989	-63.72
324.203	-103.42
324.417	-110.4
324.63	-105.07
324.844	-95.05
325.057	-91.05
325.271	-39.93
325.485	-3.57
325.698	16.91
325.912	29.23
326.125	0.17
326.339	-2.26
326.552	-39.3
326.766	-46.5
326.979	-25.15
327.193	22.21
327.406	12.82
327.619	8.75
327.833	18.89
328.046	-20.21
328.26	-70.73
328.473	-57.27
328.686	-95.09
328.9	-88.61
329.113	-65.43
329.326	-82.68
329.54	-61.58
329.753	-82.04
329.966	-127.35
330.179	-100.07
330.393	-34.51
330.606	-33.05
330.819	0.01
331.032	17.33
331.246	16.1
331.459	29.72
331.672	22.51
331.885	7.1
332.098	-15.5
332.311	-21.67
332.525	-87.46
332.738	-80.65
332.951	-31.16
333.164	6.16
333.377	10.18
333.59	38.44
333.803	41.59
334.016	28.34
334.229	15.97
334.442	17.11
334.655	35.94
334.868	24.06
335.081	12.57
335.294	2.56
335.507	-8.19
335.72	-27.55
335.933	-30.72
336.146	-38.6
336.359	-37.21
336.572	-65.68
336.785	-88.54
336.997	-79.28
337.21	-53.82
337.423	-66.4
337.636	-62.76
337.849	-26.88
338.062	-37.93
338.274	-21.01
338.487	-13.31
338.7	0.42
338.913	-71.18
339.125	-103.07
339.338	-187.98
339.551	-168.5
339.763	-108.34
339.976	-58.45
340.189	-20.16
340.402	-1.12
340.614	-3.1
340.827	-31.15
341.039	-55.76
341.252	-53.01
341.465	-18.49
341.677	-22.93
341.89	-29.56
342.102	0.36
342.315	-16.82
342.527	-75.75
342.74	-73.91
342.952	-44.24
343.165	-43.93
343.377	-6.35
343.59	-7.07
343.802	14.15
344.015	21.09
344.227	37.13
344.44	21.37
344.652	23.82
344.864	10.58
345.077	21.51
345.289	9.95
345.502	10.55
345.714	-2.02
345.926	4.97
346.139	-17.19
346.351	-1.23
346.563	3.93
346.775	25.66
346.988	5.13
347.2	-4.73
347.412	-65.7
347.624	-102.51
347.837	-126.88
348.049	-105.76
348.261	-46.53
348.473	-12.84
348.685	-4.42
348.897	-24.43
349.11	-38.88
349.322	-68.7
349.534	-61.27
349.746	-56.04
349.958	-33.78
350.17	-29.91
350.382	-21.11
350.594	-26.17
350.806	-24.78
351.018	-18.63
351.23	-27.62
351.442	-87.19
351.654	-100.07
351.866	-81.36
352.078	-75.75
352.29	-55
352.502	-24.97
352.714	-12.67
352.926	-29.39
353.138	-17.89
353.35	-21.9
353.561	-12.54
353.773	-32.32
353.985	-10.27
354.197	-29.8
354.409	-32.59
354.621	-47.27
354.832	-33.99
355.044	-45.19
355.256	-41.25
355.468	-26.01
355.679	-31.48
355.891	-26.05
356.103	-43.47
356.314	-31.92
356.526	-28.08
356.738	-9.92
356.949	-33.9
357.161	-7.63
357.373	-14.97
357.584	-35.06
357.796	-24.45
358.008	-23.51
358.219	-7.97
358.431	-13.47
358.642	-8.34
358.854	-15.21
359.065	-24.53
359.277	-66.29
359.488	-75.91
359.7	-88.02
359.911	-83.84
360.123	-56.94
360.334	-55.08
360.546	-72.3
360.757	-86.88
360.969	-83.96
361.18	-83.06
361.391	-69.97
361.603	-50.82
361.814	-32.3
362.025	-43.24
362.237	-46.01
362.448	-37.27
362.659	-9.48
362.871	-8.63
363.082	-5.55
363.293	-12.71
363.504	-25.07
363.716	-55.96
363.927	-74.14
364.138	-99.68
364.349	-104.46
364.56	-82.89
364.772	-81
364.983	-42.52
365.194	-26.63
365.405	-2.69
365.616	12.9
365.827	13.5
366.038	-6.09
366.25	-16.09
366.461	-63.09
366.672	-40.79
366.883	-7.93
367.094	0.01
367.305	-11.6
367.516	6.15
367.727	-24.76
367.938	-53.27
368.149	-49.5
368.36	-25
368.571	-24.68
368.781	-49.68
368.992	-58.57
369.203	-76.32
369.414	-103.02
369.625	-108.65
369.836	-76.74
370.047	-95.18
370.258	-90.93
370.468	-93.78
370.679	-112.03
370.89	-103.52
371.101	-64.27
371.312	-64.23
371.522	-58.49
371.733	-39.32
371.944	-35.21
372.155	-34.67
372.365	-43.86
372.576	-44.69
372.787	-47.65
372.997	-65.71
373.208	-60.89
373.419	-26.2
373.629	-51.07
373.84	-60.6
374.05	-74.6
374.261	-74.52
374.472	-97.1
374.682	-21.91
374.893	-16.66
375.103	26.71
375.314	28.39
375.524	28.33
375.735	8.69
375.945	18.75
376.156	-18.33
376.366	-16.95
376.577	-18.38
376.787	-26.48
376.997	-27.67
377.208	-14.89
377.418	-29.56
377.629	-9.92
377.839	-6.74
378.049	-10.79
378.26	3.42
378.47	12.51
378.68	-5.45
378.89	-14.01
379.101	-8.16
379.311	-41.05
379.521	-75.67
379.732	-67.21
379.942	-57.82
380.152	-90.89
380.362	-52.01
380.572	-39.23
380.783	-27.87
380.993	-21.57
381.203	-4.12
381.413	8.52
381.623	12.07
381.833	11.45
382.043	2.41
382.253	-3.75
382.463	-17.08
382.674	-29.52
382.884	-57.71
383.094	-51.34
383.304	-40.45
383.514	-26.06
383.724	-9.59
383.934	-5.65
384.144	-16.14
384.353	-31.67
384.563	-39.79
384.773	-33.42
384.983	-37.62
385.193	-21.09
385.403	-13.13
385.613	-11.23
385.823	-29.46
386.033	-20.22
386.242	-26.13
386.452	-25.16
386.662	-32.95
386.872	-12.97
387.082	-20.8
387.291	-28.46
387.501	-37.2
387.711	-25.37
387.921	-36.58
388.13	-30.32
388.34	-11.89
388.55	-12.15
388.759	-12.3
388.969	-5.66
389.179	-7.67
389.388	-14.87
389.598	-6.17
389.807	-16.38
390.017	-22.2
390.227	-15.59
390.436	-13.05
390.646	-13.52
390.855	-6.94
391.065	-3.82
391.274	-10.44
391.484	-14.42
391.693	-14.24
391.903	-12.16
392.112	-5.89
392.322	-1.72
392.531	3.69
392.74	5.83
392.95	1.34
393.159	-1.23
393.369	-0.95
393.578	-1.39
393.787	-4.15
393.997	-2.06
394.206	-3.92
394.415	-3.56
394.625	-3.37
394.834	-4.06
395.043	-4.42
395.252	-2.71
395.462	0.03
395.671	1.45
395.88	2.48
396.089	3.91
396.298	3.52
396.508	2.17
396.717	0.16
396.926	1.11
397.135	0.02
397.344	-0.27
397.553	0.58
397.762	2.48
397.971	2.21
398.181	2.38
398.39	1.87
398.599	1.43
398.808	1.45
399.017	2.38
399.226	3.83
399.435	5.23
399.644	5.25
399.853	4.06
400.062	3.5
400.27	2.91
400.479	2.32
400.688	1.59
400.897	1.84
401.106	2.23
401.315	2.12
401.524	2.39
401.733	3.08
401.941	3.66
402.15	3.45
402.359	3.39
402.568	3.79
402.777	3.88
402.985	3.64
403.194	3.48
403.403	3.75
403.612	2.99
403.82	2.66
404.029	2.58
404.238	2.59
404.446	2.56
404.655	2.56
404.864	2.65
405.072	2.58
405.281	2.74
405.489	2.66
405.698	2.78
405.906	2.81
406.115	2.96
406.324	2.89
406.532	2.91
406.741	3.2
406.949	3.15
407.158	2.99
407.366	3.05
407.574	3.03
407.783	2.96
407.991	2.92
408.2	3.2
408.408	3.15
408.617	3.09
408.825	2.94
409.033	3.07
409.242	3.05
409.45	3.08
409.658	2.96
409.867	3.17
410.075	2.93
410.283	2.7
410.491	2.62
410.7	2.58
410.908	2.48
411.116	2.97
411.324	3.08
411.533	2.98
411.741	3.24
411.949	3.24
412.157	2.8
412.365	2.82
412.573	2.9
412.781	2.88
412.99	2.7
413.198	2.98
413.406	2.96
413.614	2.99
413.822	2.86
414.03	2.9
414.238	2.58
414.446	2.64
414.654	2.43
414.862	2.54
415.07	2.67
415.278	2.94
415.486	2.71
415.694	2.89
415.902	2.78
416.109	2.6
416.317	2.43
416.525	2.36
416.733	2.28
416.941	2.46
417.149	2.44
417.357	2.59
417.564	2.85
417.772	3.05
417.98	2.86
418.188	2.84
418.395	2.72
418.603	2.78
418.811	2.37
419.019	2.39
419.226	2.64
419.434	2.73
419.642	2.53
419.849	2.76
420.057	2.77
420.265	2.7
420.472	2.49
420.68	2.57
420.887	2.42
421.095	2.44
421.302	2.32
421.51	2.54
421.717	2.55
421.925	2.8
422.132	2.6
422.34	2.51
422.547	2.52
422.755	2.47
422.962	2.18
423.17	2.22
423.377	2.26
423.585	2.3
423.792	2.18
423.999	2.37
424.207	2.44
424.414	2.51
424.621	2.37
424.829	2.4
425.036	2.39
425.243	2.45
425.451	2.29
425.658	2.16
425.865	2.37
426.072	2.35
426.28	2.57
426.487	2.56
426.694	2.66
426.901	2.3
427.108	2.28
427.315	2.1
427.523	2.46
427.73	2.51
427.937	2.72
428.144	2.58
428.351	2.52
428.558	2.57
428.765	2.41
428.972	2.3
429.179	2.49
429.386	2.72
429.593	2.45
429.8	2.41
430.007	2.55
430.214	2.61
430.421	2.44
430.628	2.22
430.835	2.24
431.042	2.47
431.249	2.51
431.456	2.57
431.662	2.82
431.869	2.96
432.076	2.71
432.283	2.76
432.49	2.76
432.697	2.81
432.903	2.62
433.11	2.62
433.317	2.69
433.524	2.86
433.73	2.69
433.937	2.96
434.144	2.88
434.35	2.74
434.557	2.59
434.764	2.59
434.97	2.47
435.177	2.66
435.384	2.59
435.59	2.65
435.797	2.97
436.003	3.05
436.21	3.08
436.416	3.22
436.623	3.19
436.829	3.1
437.036	3.18
437.242	3.19
437.449	3.13
437.655	3.08
437.862	3.11
438.068	2.95
438.275	3.08
438.481	3.29
438.687	3.3
438.894	3.24
439.1	3.32
439.307	3.46
439.513	3.3
439.719	3.36
439.926	3.42
440.132	3.41
440.338	3.18
440.544	3.31
440.751	3.29
440.957	3.32
441.163	3.18
441.369	3.31
441.575	3.05
441.782	2.99
441.988	2.83
442.194	2.94
442.4	2.83
442.606	3.24
442.812	3.4
443.018	3.56
443.224	3.67
443.431	3.79
443.637	3.44
443.843	3.28
444.049	3.22
444.255	3.03
444.461	3.03
444.667	3.04
444.873	3.18
445.079	3.23
445.284	3.33
445.49	3.05
445.696	2.97
445.902	2.87
446.108	2.77
446.314	2.69
446.52	2.9
446.726	3.18
446.931	3.22
447.137	3.37
447.343	3.49
447.549	3.4
447.755	3.21
447.96	3.19
448.166	3.12
448.372	3.06
448.578	3.2
448.783	3.31
448.989	3.48
449.195	3.69
449.4	3.66
449.606	3.56
449.812	3.38
450.017	3.3
450.223	3.06
450.428	3.03
450.634	3.17
450.84	3.44
451.045	3.34
451.251	3.35
451.456	3.64
451.662	3.63
451.867	3.51
452.073	3.57
452.278	3.7
452.483	3.7
452.689	3.59
452.894	3.6
453.1	3.56
453.305	3.47
453.51	3.38
453.716	3.38
453.921	3.46
454.127	3.42
454.332	3.39
454.537	3.37
454.742	3.34
454.948	3.27
455.153	3.39
455.358	3.45
455.563	3.54
455.769	3.76
455.974	3.8
456.179	3.63
456.384	3.69
456.589	3.66
456.795	3.4
457	3.36
457.205	3.64
457.41	3.6
457.615	3.49
457.82	3.68
458.025	3.71
458.23	3.52
458.435	3.57
458.64	3.6
458.845	3.63
459.05	3.62
459.255	3.61
459.46	3.6
459.665	3.64
459.87	3.67
460.075	3.72
460.28	3.82
460.485	3.9
460.69	3.86
460.895	3.67
461.099	3.52
461.304	3.59
461.509	3.52
461.714	3.44
461.919	3.66
462.123	3.67
462.328	3.73
462.533	3.66
462.738	3.86
462.942	3.72
463.147	3.87
463.352	3.88
463.556	3.95
463.761	3.85
463.966	3.93
464.17	3.85
464.375	3.65
464.58	3.62
464.784	3.6
464.989	3.52
465.193	3.55
465.398	3.67
465.602	3.75
465.807	3.77
466.011	3.8
466.216	3.9
466.42	3.92
466.625	4
466.829	4.09
467.034	4.18
467.238	4.4
467.443	4.36
467.647	4.16
467.851	4.21
468.056	4.23
468.26	3.97
468.464	4.02
468.669	4.22
468.873	4.32
469.077	4.33
469.282	4.42
469.486	4.4
469.69	4.38
469.894	4.18
470.099	4.27
470.303	4.37
470.507	4.34
470.711	4.23
470.915	4.28
471.119	4.07
471.324	3.9
471.528	3.87
471.732	3.93
471.936	3.9
472.14	4.02
472.344	4.07
472.548	4.16
472.752	4.34
472.956	4.62
473.16	4.59
473.364	4.54
473.568	4.56
473.772	4.53
473.976	4.34
474.18	4.3
474.384	4.39
474.588	4.34
474.792	4.14
474.995	4.22
475.199	4.28
475.403	4.35
475.607	4.34
475.811	4.38
476.015	4.38
476.218	4.53
476.422	4.46
476.626	4.59
476.83	4.72
477.033	4.63
477.237	4.46
477.441	4.48
477.644	4.45
477.848	4.39
478.052	4.33
478.255	4.42
478.459	4.39
478.663	4.52
478.866	4.55
479.07	4.57
479.273	4.7
479.477	4.76
479.681	4.63
479.884	4.61
480.088	4.63
480.291	4.53
480.495	4.49
480.698	4.57
480.901	4.62
481.105	4.82
481.308	4.73
481.512	4.81
481.715	4.82
481.919	4.76
482.122	4.65
482.325	4.74
482.529	4.72
482.732	4.7
482.935	4.61
483.138	4.63
483.342	4.71
483.545	4.77
483.748	4.77
483.952	4.89
484.155	4.96
484.358	4.92
484.561	4.86
484.764	4.85
484.967	4.93
485.171	4.98
485.374	4.95
485.577	5.02
485.78	5.04
485.983	5.03
486.186	4.9
486.389	4.89
486.592	4.85
486.795	4.87
486.998	4.77
487.201	4.86
487.404	4.95
487.607	5.03
487.81	4.99
488.013	5.14
488.216	5.1
488.419	5.11
488.622	5
488.825	5.02
489.028	4.9
489.231	4.87
489.433	4.76
489.636	4.73
489.839	4.66
490.042	4.59
490.245	4.62
490.447	4.69
490.65	4.74
490.853	4.76
491.056	4.9
491.258	4.9
491.461	4.92
491.664	4.92
491.866	4.87
492.069	4.91
492.272	4.79
492.474	4.8
492.677	4.88
492.879	4.98
493.082	4.97
493.285	5.17
493.487	5.1
493.69	5
493.892	4.93
494.095	4.84
494.297	4.76
494.5	4.81
494.702	4.87
494.905	4.89
495.107	4.94
495.309	4.95
495.512	4.93
495.714	5.01
495.917	5.12
496.119	5.11
496.321	5.15
496.524	5.25
496.726	5.17
496.928	5.14
497.13	5.13
497.333	5.1
497.535	5.03
497.737	5.03
497.939	5
498.142	5.07
498.344	5.08
498.546	5
498.748	5.06
498.95	5.18
499.152	5.11
499.355	5.15
499.557	5.28
499.759	5.36
499.961	5.24
500.163	5.28
500.365	5.28
500.567	5.36
500.769	5.25
500.971	5.36
501.173	5.29
501.375	5.29
501.577	5.19
501.779	5.21
501.981	5.17
502.183	5.19
502.385	5.14
502.587	5.1
502.788	5.15
502.99	5.16
503.192	5.27
503.394	5.26
503.596	5.3
503.798	5.32
503.999	5.34
504.201	5.28
504.403	5.38
504.605	5.38
504.806	5.37
505.008	5.37
505.21	5.48
505.411	5.43
505.613	5.45
505.815	5.42
506.016	5.46
506.218	5.49
506.42	5.48
506.621	5.55
506.823	5.62
507.024	5.58
507.226	5.51
507.427	5.53
507.629	5.5
507.83	5.52
508.032	5.52
508.233	5.58
508.435	5.65
508.636	5.73
508.838	5.64
509.039	5.67
509.24	5.68
509.442	5.68
509.643	5.57
509.845	5.59
510.046	5.61
510.247	5.65
510.448	5.65
510.65	5.72
510.851	5.88
511.052	5.92
511.254	5.91
511.455	5.97
511.656	6.12
511.857	6.16
512.058	6.19
512.26	6.2
512.461	6.13
512.662	6.05
512.863	5.88
513.064	5.81
513.265	5.77
513.466	5.81
513.667	5.76
513.868	5.84
514.069	5.94
514.27	6.07
514.471	6.1
514.672	6.16
514.873	6.18
515.074	6.2
515.275	6.05
515.476	6.06
515.677	6.06
515.878	6.11
516.079	6.08
516.28	6.15
516.481	6.23
516.682	6.24
516.882	6.16
517.083	6.13
517.284	6.09
517.485	6.06
517.686	6.05
517.886	6.08
518.087	6.14
518.288	6.18
518.488	6.16
518.689	6.17
518.89	6.15
519.091	6.15
519.291	6.2
519.492	6.22
519.692	6.25
519.893	6.34
520.094	6.33
520.294	6.32
520.495	6.3
520.695	6.29
520.896	6.28
521.096	6.34
521.297	6.35
521.497	6.36
521.698	6.35
521.898	6.4
522.099	6.37
522.299	6.45
522.499	6.45
522.7	6.54
522.9	6.49
523.101	6.53
523.301	6.47
523.501	6.48
523.702	6.51
523.902	6.58
524.102	6.61
524.302	6.63
524.503	6.71
524.703	6.64
524.903	6.6
525.103	6.51
525.304	6.61
525.504	6.65
525.704	6.74
525.904	6.79
526.104	6.79
526.304	6.73
526.504	6.71
526.705	6.67
526.905	6.74
527.105	6.8
527.305	6.78
527.505	6.71
527.705	6.67
527.905	6.69
528.105	6.66
528.305	6.63
528.505	6.71
528.705	6.8
528.905	6.7
529.105	6.77
529.304	6.83
529.504	6.88
529.704	6.83
529.904	6.9
530.104	6.89
530.304	7
530.503	6.97
530.703	6.96
530.903	6.92
531.103	6.96
531.303	6.9
531.502	6.94
531.702	7.06
531.902	7.09
532.101	7.07
532.301	7.05
532.501	7.04
532.7	6.98
532.9	7
533.1	7.02
533.299	7.06
533.499	7.09
533.698	7.1
533.898	7.12
534.097	7.17
534.297	7.26
534.496	7.26
534.696	7.27
534.895	7.35
535.095	7.42
535.294	7.33
535.494	7.3
535.693	7.33
535.892	7.34
536.092	7.27
536.291	7.25
536.491	7.37
536.69	7.46
536.889	7.43
537.088	7.42
537.288	7.55
537.487	7.56
537.686	7.52
537.886	7.56
538.085	7.65
538.284	7.74
538.483	7.68
538.682	7.76
538.882	7.79
539.081	7.82
539.28	7.67
539.479	7.69
539.678	7.63
539.877	7.73
540.076	7.73
540.275	7.79
540.474	7.94
540.673	8.03
540.872	7.89
541.071	8
541.27	8.06
541.469	8.05
541.668	8.03
541.867	8.12
542.066	8.09
542.265	8.18
542.464	8.16
542.663	8.26
542.862	8.38
543.06	8.45
543.259	8.4
543.458	8.47
543.657	8.52
543.856	8.53
544.054	8.52
544.253	8.55
544.452	8.59
544.651	8.61
544.849	8.55
545.048	8.6
545.247	8.6
545.445	8.67
545.644	8.69
545.843	8.78
546.041	8.77
546.24	8.92
546.438	9
546.637	9.03
546.836	9.14
547.034	9.3
547.233	9.32
547.431	9.25
547.63	9.33
547.828	9.34
548.027	9.37
548.225	9.36
548.423	9.44
548.622	9.5
548.82	9.52
549.019	9.57
549.217	9.69
549.415	9.73
549.614	9.81
549.812	9.84
550.01	9.88
550.209	9.96
550.407	10.06
550.605	10.06
550.803	10.22
551.002	10.26
551.2	10.24
551.398	10.31
551.596	10.4
551.794	10.41
551.993	10.52
552.191	10.62
552.389	10.78
552.587	10.86
552.785	10.98
552.983	11.05
553.181	11.16
553.379	11.21
553.577	11.29
553.775	11.4
553.973	11.47
554.171	11.55
554.369	11.53
554.567	11.59
554.765	11.62
554.963	11.74
555.161	11.74
555.359	11.87
555.557	11.99
555.755	12.09
555.952	12.16
556.15	12.27
556.348	12.33
556.546	12.38
556.744	12.45
556.941	12.51
557.139	12.61
557.337	12.65
557.535	12.68
557.732	12.84
557.93	13.02
558.128	13.13
558.325	13.29
558.523	13.34
558.721	13.44
558.918	13.43
559.116	13.53
559.313	13.56
559.511	13.82
559.708	13.87
559.906	13.96
560.104	14
560.301	14.14
560.498	14.14
560.696	14.23
560.893	14.34
561.091	14.44
561.288	14.54
561.486	14.62
561.683	14.71
561.88	14.87
562.078	14.95
562.275	15.03
562.473	15.12
562.67	15.27
562.867	15.32
563.064	15.48
563.262	15.57
563.459	15.69
563.656	15.82
563.853	15.95
564.051	16.04
564.248	16.2
564.445	16.35
564.642	16.33
564.839	16.46
565.036	16.62
565.234	16.8
565.431	16.87
565.628	17.03
565.825	17.12
566.022	17.18
566.219	17.17
566.416	17.28
566.613	17.36
566.81	17.44
567.007	17.45
567.204	17.48
567.401	17.48
567.598	17.51
567.795	17.53
567.991	17.56
568.188	17.75
568.385	17.9
568.582	18.05
568.779	18.21
568.976	18.34
569.172	18.43
569.369	18.43
569.566	18.5
569.763	18.61
569.96	18.67
570.156	18.67
570.353	18.76
570.55	18.79
570.746	18.74
570.943	18.8
571.14	18.83
571.336	18.91
571.533	19.03
571.729	19.01
571.926	19.13
572.123	19.22
572.319	19.26
572.516	19.21
572.712	19.37
572.909	19.36
573.105	19.43
573.302	19.53
573.498	19.66
573.695	19.66
573.891	19.74
574.087	19.75
574.284	19.71
574.48	19.68
574.677	19.71
574.873	19.7
575.069	19.77
575.266	19.81
575.462	19.76
575.658	19.91
575.854	20.03
576.051	19.96
576.247	19.97
576.443	19.95
576.639	19.84
576.835	19.73
577.032	19.64
577.228	19.78
577.424	19.85
577.62	19.85
577.816	19.97
578.012	20.14
578.208	20.04
578.404	20.17
578.6	20.28
578.796	20.22
578.993	20.22
579.189	20.17
579.384	20.06
579.58	19.9
579.776	19.88
579.972	19.81
580.168	19.79
580.364	19.86
580.56	19.91
580.756	19.86
580.952	19.88
581.148	19.9
581.343	19.87
581.539	19.84
581.735	19.88
581.931	19.91
582.127	19.89
582.322	19.83
582.518	19.85
582.714	19.85
582.909	19.84
583.105	19.79
583.301	19.79
583.496	19.74
583.692	19.68
583.888	19.59
584.083	19.68
584.279	19.67
584.474	19.64
584.67	19.68
584.866	19.74
585.061	19.59
585.257	19.67
585.452	19.65
585.648	19.55
585.843	19.5
586.039	19.54
586.234	19.42
586.429	19.4
586.625	19.52
586.82	19.51
587.015	19.49
587.211	19.4
587.406	19.46
587.601	19.42
587.797	19.39
587.992	19.34
588.187	19.53
588.383	19.54
588.578	19.48
588.773	19.52
588.968	19.67
589.163	19.66
589.359	19.66
589.554	19.73
589.749	19.78
589.944	19.76
590.139	19.67
590.334	19.63
590.529	19.69
590.724	19.76
590.919	19.79
591.114	19.9
591.309	20.02
591.504	20.1
591.699	19.99
591.894	19.99
592.089	19.99
592.284	19.91
592.479	19.89
592.674	19.9
592.869	20.07
593.064	20.17
593.259	20.33
593.454	20.44
593.648	20.63
593.843	20.62
594.038	20.68
594.233	20.65
594.428	20.66
594.622	20.67
594.817	20.74
595.012	20.76
595.206	20.89
595.401	20.94
595.596	21.02
595.79	21.2
595.985	21.33
596.18	21.46
596.374	21.61
596.569	21.66
596.763	21.67
596.958	21.75
597.153	21.84
597.347	21.83
597.542	22.03
597.736	22.08
597.931	22.08
598.125	22.08
598.319	22.25
598.514	22.21
598.708	22.29
598.903	22.35
599.097	22.41
599.291	22.44
599.486	22.45
599.68	22.49
599.874	22.62
600.069	22.62
600.263	22.64
600.457	22.78
600.651	22.89
600.846	22.87
601.04	22.96
601.234	22.99
601.428	23.07
601.622	23.09
601.817	23.19
602.011	23.28
602.205	23.36
602.399	23.3
602.593	23.21
602.787	23.28
602.981	23.23
603.175	23.17
603.369	23.07
603.563	23.2
603.757	23.18
603.951	23.2
604.145	23.27
604.339	23.44
604.533	23.28
604.727	23.16
604.921	23.15
605.115	23.16
605.309	23.19
605.502	23.27
605.696	23.25
605.89	23.2
606.084	23.12
606.278	22.98
606.471	22.87
606.665	22.82
606.859	22.72
607.053	22.73
607.246	22.79
607.44	22.75
607.634	22.73
607.827	22.71
608.021	22.56
608.214	22.41
608.408	22.34
608.602	22.3
608.795	22.21
608.989	22.1
609.182	21.96
609.376	21.96
609.569	21.8
609.763	21.7
609.956	21.6
610.15	21.57
610.343	21.47
610.537	21.43
610.73	21.49
610.923	21.51
611.117	21.47
611.31	21.45
611.504	21.49
611.697	21.27
611.89	21.2
612.083	21.12
612.277	20.98
612.47	20.75
612.663	20.74
612.856	20.63
613.05	20.49
613.243	20.41
613.436	20.29
613.629	20.2
613.822	20.1
614.015	20.04
614.209	19.94
614.402	19.95
614.595	19.93
614.788	19.85
614.981	19.72
615.174	19.68
615.367	19.67
615.56	19.58
615.753	19.54
615.946	19.49
616.139	19.45
616.332	19.44
616.525	19.39
616.718	19.38
616.911	19.39
617.103	19.34
617.296	19.28
617.489	19.22
617.682	19.17
617.875	19.18
618.067	19.1
618.26	18.96
618.453	18.95
618.646	18.91
618.838	18.83
619.031	18.94
619.224	18.94
619.417	18.93
619.609	18.9
619.802	18.8
619.994	18.7
620.187	18.65
620.38	18.55
620.572	18.49
620.765	18.54
620.957	18.4
621.15	18.3
621.342	18.27
621.535	18.33
621.727	18.28
621.92	18.33
622.112	18.33
622.305	18.31
622.497	18.19
622.69	18.19
622.882	18.15
623.074	18.18
623.267	18.12
623.459	17.99
623.651	17.89
623.844	17.9
624.036	17.83
624.228	17.83
624.42	17.89
624.613	18.05
624.805	17.99
624.997	18.06
625.189	18.04
625.381	18.06
625.574	17.87
625.766	17.78
625.958	17.7
626.15	17.73
626.342	17.75
626.534	17.71
626.726	17.69
626.918	17.65
627.11	17.56
627.302	17.47
627.494	17.48
627.686	17.54
627.878	17.49
628.07	17.47
628.262	17.41
628.454	17.38
628.646	17.39
628.838	17.37
629.029	17.38
629.221	17.38
629.413	17.29
629.605	17.12
629.797	17.03
629.989	16.91
630.18	16.9
630.372	16.84
630.564	16.93
630.755	17
630.947	17.11
631.139	16.96
631.33	16.86
631.522	16.87
631.714	16.82
631.905	16.72
632.097	16.69
632.289	16.8
632.48	16.7
632.672	16.58
632.863	16.4
633.055	16.41
633.246	16.39
633.438	16.28
633.629	16.35
633.821	16.48
634.012	16.51
634.203	16.3
634.395	16.4
634.586	16.3
634.777	16.17
634.969	16.23
635.16	16.39
635.351	16.28
635.543	16.33
635.734	16.38
635.925	16.34
636.117	16.38
636.308	16.44
636.499	16.39
636.69	16.31
636.881	16.22
637.073	16.26
637.264	16.15
637.455	16.15
637.646	16.36
637.837	16.43
638.028	16.22
638.219	16.28
638.41	16.19
638.601	16.04
638.792	16.02
638.983	16.06
639.174	16
639.365	16.12
639.556	16.07
639.747	15.97
639.938	16.01
640.129	16
640.32	15.92
640.511	15.98
640.701	16.13
640.892	16.08
641.083	16.15
641.274	16.16
641.465	16.02
641.655	15.85
641.846	15.78
642.037	15.73
642.228	15.63
642.418	15.71
642.609	15.79
642.8	15.87
642.99	15.76
643.181	15.84
643.372	15.85
643.562	15.74
643.753	15.56
643.943	15.53
644.134	15.41
644.324	15.38
644.515	15.41
644.705	15.51
644.896	15.55
645.086	15.61
645.277	15.55
645.467	15.47
645.658	15.45
645.848	15.43
646.038	15.41
646.229	15.26
646.419	15.28
646.61	15.28
646.8	15.16
646.99	15.12
647.18	15.14
647.371	15.09
647.561	14.89
647.751	14.95
647.941	14.86
648.132	14.85
648.322	14.81
648.512	14.97
648.702	14.94
648.892	14.99
649.082	15.07
649.272	14.99
649.462	14.78
649.653	14.67
649.843	14.52
650.033	14.41
650.223	14.4
650.413	14.45
650.603	14.5
650.793	14.59
650.983	14.55
651.172	14.51
651.362	14.48
651.552	14.32
651.742	14.22
651.932	14.23
652.122	14.28
652.312	14.31
652.502	14.31
652.691	14.21
652.881	14.12
653.071	13.99
653.261	13.86
653.45	13.8
653.64	13.86
653.83	13.7
654.019	13.64
654.209	13.59
654.399	13.5
654.588	13.32
654.778	13.23
654.968	13.08
655.157	12.95
655.347	12.86
655.536	12.7
655.726	12.59
655.915	12.45
656.105	12.27
656.294	12.23
656.484	12.16
656.673	12.02
656.863	11.96
657.052	11.9
657.241	11.63
657.431	11.36
657.62	11.27
657.809	10.97
657.999	10.79
658.188	10.65
658.377	10.49
658.567	10.41
658.756	10.3
658.945	10.16
659.134	10.01
659.324	9.94
659.513	9.74
659.702	9.61
659.891	9.46
660.08	9.36
660.269	9.25
660.458	9.1
660.648	8.95
660.837	8.8
661.026	8.75
661.215	8.62
661.404	8.47
661.593	8.48
661.782	8.34
661.971	8.21
662.16	8.11
662.349	8.03
662.538	7.78
662.726	7.7
662.915	7.53
663.104	7.4
663.293	7.44
663.482	7.55
663.671	7.5
663.86	7.42
664.048	7.33
664.237	7.25
664.426	7.02
664.615	7.01
664.803	7.04
664.992	6.92
665.181	6.76
665.369	6.67
665.558	6.6
665.747	6.44
665.935	6.53
666.124	6.64
666.312	6.75
666.501	6.67
666.69	6.62
666.878	6.53
667.067	6.35
667.255	6.32
667.444	6.58
667.632	6.68
667.82	6.83
668.009	6.87
668.197	6.79
668.386	6.55
668.574	6.72
668.762	6.63
668.951	6.59
669.139	6.65
669.327	6.57
669.516	6.5
669.704	6.47
669.892	6.67
670.08	6.69
670.269	6.71
670.457	6.57
670.645	6.5
670.833	6.52
671.021	6.58
671.21	6.73
671.398	6.92
671.586	6.93
671.774	6.75
671.962	6.73
672.15	6.74
672.338	6.58
672.526	6.74
672.714	6.7
672.902	6.7
673.09	6.88
673.278	7.14
673.466	7.23
673.654	7.55
673.842	7.64
674.03	7.61
674.218	7.49
674.405	7.42
674.593	7.31
674.781	7.34
674.969	7.37
675.157	7.62
675.344	7.78
675.532	7.9
675.72	8.05
675.908	8.12
676.095	7.94
676.283	8.02
676.471	8.13
676.658	8.12
676.846	8.23
677.033	8.36
677.221	8.44
677.409	8.32
677.596	8.37
677.784	8.29
677.971	8.48
678.159	8.53
678.346	8.63
678.534	8.75
678.721	9.08
678.909	9.01
679.096	9.02
679.283	9.34
679.471	9.52
679.658	9.48
679.846	9.79
680.033	10.04
680.22	10.07
680.408	10.09
680.595	10.22
680.782	10.12
680.969	10.18
681.157	10.24
681.344	10.32
681.531	10.41
681.718	10.57
681.905	10.74
682.093	10.91
682.28	11.18
682.467	11.42
682.654	11.59
682.841	11.66
683.028	11.85
683.215	11.94
683.402	11.86
683.589	12.05
683.776	12.3
683.963	12.36
684.15	12.55
684.337	12.92
684.524	13.09
684.711	13.23
684.898	13.27
685.085	13.38
685.271	13.63
685.458	13.9
685.645	14.1
685.832	14.66
686.019	15.12
686.205	15.39
686.392	15.73
686.579	16.06
686.766	16.33
686.952	16.53
687.139	16.96
687.326	17.18
687.512	17.5
687.699	17.73
687.886	18.02
688.072	18.26
688.259	18.74
688.445	19.41
688.632	19.81
688.818	20.46
689.005	20.85
689.191	21.13
689.378	21.63
689.564	22.26
689.751	22.69
689.937	23.24
690.124	23.91
690.31	24.26
690.496	24.83
690.683	25.46
690.869	26.06
691.055	26.77
691.242	27.31
691.428	28.07
691.614	28.72
691.8	29.55
691.987	30.25
692.173	31.08
692.359	31.63
692.545	32.47
692.731	32.96
692.918	33.69
693.104	34.41
693.29	35.26
693.476	35.82
693.662	36.74
693.848	37.18
694.034	37.67
694.22	38.15
694.406	38.92
694.592	39.59
694.778	40.36
694.964	41.06
695.15	41.99
695.336	42.4
695.522	43.29
695.708	43.89
695.894	44.93
696.08	45.73
696.265	46.85
696.451	47.46
696.637	48.64
696.823	49.17
697.009	49.52
697.194	49.96
697.38	50.36
697.566	50.76
697.751	51.4
697.937	52.44
698.123	53.29
698.308	54.22
698.494	55
698.68	55.62
698.865	56.32
699.051	56.79
699.236	57.33
699.422	57.87
699.607	58.37
699.793	58.92
699.978	59.32
700.164	59.7
700.349	60.54
700.535	61.2
700.72	61.48
700.906	62.52
701.091	63.2
701.276	63.54
701.462	64.38
701.647	65.2
701.832	65.7
702.018	66.19
702.203	66.63
702.388	66.69
702.573	66.72
702.759	67.11
702.944	67.4
703.129	67.63
703.314	68.13
703.499	68.69
703.684	69.04
703.87	70.27
704.055	71.3
704.24	71.93
704.425	72.55
704.61	72.72
704.795	72.54
704.98	72.47
705.165	72.47
705.35	72.61
705.535	73.06
705.72	73.39
705.905	74.06
706.09	74.96
706.275	75.32
706.459	75.45
706.644	75.61
706.829	75.49
707.014	75.4
707.199	75.83
707.384	76.5
707.568	76.62
707.753	77.41
707.938	77.96
708.123	78.11
708.307	78
708.492	78.84
708.677	78.72
708.861	78.48
709.046	78.52
709.231	79.53
709.415	79.5
709.6	79.38
709.784	79.5
709.969	79.86
710.153	79.11
710.338	79.38
710.522	79.87
710.707	80.43
710.891	80.6
711.076	81.17
711.26	81.09
711.445	81.41
711.629	81.68
711.813	81.69
711.998	82.24
712.182	82.45
712.366	82.99
712.551	83.61
712.735	84.06
712.919	83.57
713.103	83.86
713.288	83.14
713.472	82.6
713.656	83.54
713.84	84.01
714.024	84.27
714.208	84.73
714.393	85.29
714.577	84.93
714.761	85.06
714.945	85.01
715.129	85.21
715.313	85.36
715.497	84.96
715.681	85.4
715.865	85.4
716.049	85.87
716.233	85.55
716.417	86.13
716.601	85.84
716.785	85.95
716.968	85.57
717.152	85.85
717.336	85.8
717.52	85.67
717.704	85.74
717.888	86.22
718.071	86.36
718.255	86.6
718.439	86.8
718.622	87.14
718.806	86.93
718.99	86.48
719.174	85.82
719.357	85.9
719.541	85.85
719.724	86.01
719.908	86.86
720.092	87.47
720.275	87.92
720.459	87.87
720.642	87.87
720.826	87.64
721.009	87.44
721.193	86.79
721.376	87.02
721.559	86.88
721.743	86.85
721.926	87.52
722.11	88.45
722.293	87.97
722.476	88.21
722.66	88.63
722.843	88.48
723.026	87.56
723.21	88.69
723.393	89.54
723.576	89.26
723.759	88.4
723.942	89.02
724.126	88.45
724.309	88.01
724.492	87.92
724.675	88.26
724.858	88.53
725.041	89.01
725.224	88.86
725.407	89.36
725.59	90.1
725.774	89.8
725.957	88.88
726.14	88.71
726.322	88.5
726.505	88.24
726.688	89.1
726.871	89.78
727.054	90.2
727.237	90.33
727.42	90.59
727.603	90.16
727.786	90.46
727.968	91
728.151	91.5
728.334	91.25
728.517	91.05
728.699	91.32
728.882	90.11
729.065	89.96
729.248	90.46
729.43	90.86
729.613	90.99
729.796	92.59
729.978	92.16
730.161	91.73
730.343	91.63
730.526	92.71
730.708	91.67
730.891	91.92
731.073	91.89
731.256	92.31
731.438	91.09
731.621	92.21
731.803	93.24
731.986	93.02
732.168	92.04
732.35	92.23
732.533	91.53
732.715	90.88
732.898	92.26
733.08	93
733.262	93.02
733.444	92.58
733.627	92.72
733.809	92.52
733.991	92.97
734.173	92.34
734.355	92.62
734.538	93.15
734.72	92.56
734.902	92.42
735.084	93.03
735.266	93.48
735.448	93.81
735.63	94.15
735.812	94.04
735.994	95.28
736.176	95.39
736.358	95.02
736.54	96.4
736.722	96.36
736.904	95.6
737.086	95.75
737.268	95.73
737.45	94.98
737.632	95.26
737.814	94.32
737.995	95.12
738.177	95.51
738.359	93.87
738.541	94.46
738.723	95.04
738.904	94.41
739.086	94.71
739.268	96.52
739.449	96.23
739.631	96.21
739.813	96.88
739.994	96.39
740.176	96.2
740.358	95.72
740.539	96.21
740.721	95.4
740.902	95.84
741.084	95.43
741.265	95.83
741.447	95.83
741.628	95.77
741.81	94.79
741.991	95.38
742.172	96.16
742.354	96.68
742.535	97.37
742.717	98.15
742.898	97.97
743.079	97.4
743.261	96.67
743.442	95.43
743.623	95.9
743.804	95.98
743.986	97.09
744.167	96.71
744.348	96.42
744.529	96.5
744.71	95.42
744.891	94.28
745.073	94.15
745.254	94.28
745.435	93.38
745.616	93.34
745.797	92.55
745.978	92.13
746.159	92.88
746.34	92.18
746.521	93.95
746.702	93.69
746.883	94.65
747.064	94.39
747.245	94.5
747.426	92.87
747.606	93.81
747.787	93.69
747.968	93.95
748.149	95.37
748.33	96.9
748.51	97.38
748.691	97.21
748.872	97.23
749.053	95.96
749.233	94.57
749.414	93.33
749.595	92.52
749.775	92.32
749.956	91.16
750.137	92.14
750.317	93.14
750.498	94.53
750.678	94.01
750.859	95.12
751.04	94.06
751.22	92.83
751.4	91.74
751.581	91.44
751.761	92.27
751.942	93.01
752.122	92.96
752.303	92.95
752.483	93.48
752.663	93.13
752.844	91.18
753.024	92.87
753.204	93.36
753.385	91.64
753.565	90.82
753.745	92.15
753.925	90.33
754.106	89.08
754.286	90.04
754.466	90.54
754.646	90.86
754.826	89.94
755.006	89.64
755.187	90.76
755.367	91.64
755.547	91.78
755.727	93.99
755.907	94.11
756.087	95.2
756.267	93.17
756.447	91.75
756.627	89.6
756.807	90.89
756.987	88.24
757.167	90.25
757.346	90.15
757.526	89.93
757.706	89.94
757.886	91.01
758.066	90.26
758.246	92.25
758.425	92.24
758.605	90.69
758.785	90.72
758.965	90.47
759.144	88.32
759.324	89.92
759.504	91.42
759.683	91.56
759.863	89.91
760.043	89.36
760.222	89.12
760.402	88.33
760.581	87.21
760.761	88.17
760.94	88.21
761.12	90.51
761.299	91.86
761.479	91.62
761.658	90.14
761.838	90.76
762.017	88.39
762.197	88.35
762.376	89.29
762.555	91.14
762.735	93.05
762.914	91.84
763.093	91.08
763.273	90.14
763.452	90.09
763.631	88.03
763.81	88.28
763.99	87.78
764.169	88.39
764.348	86.35
764.527	85.37
764.706	87.55
764.885	88.67
765.064	86
765.243	87.15
765.423	90.03
765.602	87.75
765.781	85.76
765.96	86.88
766.139	86.27
766.318	85.91
766.497	86.17
766.676	86.58
766.854	88.86
767.033	89.39
767.212	86.67
767.391	85.81
767.57	87.1
767.749	86.3
767.928	88.3
768.106	87.96
768.285	86.26
768.464	85.64
768.643	84.66
768.821	83.75
769	87.56
769.179	87.98
769.357	86.29
769.536	86.46
769.715	85.67
769.893	85.9
770.072	86.47
770.25	86.83
770.429	86.75
770.607	85.09
770.786	82.2
770.964	84.36
771.143	83.51
771.321	84.3
771.5	85.84
771.678	84.98
771.857	81.93
772.035	82.81
772.213	80.89
772.392	79.08
772.57	81.58
772.748	82.54
772.927	81.44
773.105	81.86
773.283	82.97
773.461	83.22
773.64	84.04
773.818	84.88
773.996	85.16
774.174	83.43
774.352	79.92
774.531	77.01
774.709	78.82
774.887	78.56
775.065	79.73
775.243	79.97
775.421	82.16
775.599	82.74
775.777	81.35
775.955	81.08
776.133	80.81
776.311	82.29
776.489	77.86
776.667	78.93
776.844	78.2
777.022	78.04
777.2	75.96
777.378	77.53
777.556	79.97
777.734	82.33
777.911	85.75
778.089	85.45
778.267	85.66
778.445	83.09
778.622	80.88
778.8	77.62
778.978	81.46
779.155	79.74
779.333	79.89
779.511	81.35
779.688	84.91
779.866	78.66
780.043	77.68
780.221	77.35
780.398	73.83
780.576	73.95
780.753	77.65
780.931	78.81
781.108	79.17
781.286	79.79
781.463	73.97
781.64	70.42
781.818	71.76
781.995	72.27
782.172	73.64
782.35	77.02
782.527	82.17
782.704	81
782.882	80.75
783.059	80.38
783.236	81.11
783.413	81.58
783.59	81.84
783.768	78.13
783.945	80.44
784.122	77.82
784.299	74.87
784.476	75.35
784.653	73.76
784.83	70.23
785.007	69.99
785.184	71.52
785.361	68.81
785.538	77.34
785.715	81.03
785.892	81.88
786.069	80.46
786.246	84.29
786.423	80.49
786.6	78.82
786.776	80.87
786.953	79.46
787.13	80.89
787.307	79.19
787.484	78.36
787.66	72.69
787.837	73.49
788.014	70
788.191	70.55
788.367	66.78
788.544	73.5
788.721	69.99
788.897	73.06
789.074	75.07
789.25	75.67
789.427	72.21
789.603	74.89
789.78	72.44
789.956	68.85
790.133	67.17
790.309	69.95
790.486	74.53
790.662	72.48
790.839	72.31
791.015	76.81
791.192	73.19
791.368	71.58
791.544	68.69
791.721	67.67
791.897	64.94
792.073	63.33
792.249	57.99
792.426	64.19
792.602	69.21
792.778	69.37
792.954	69.65
793.13	71.74
793.307	66.39
793.483	55.52
793.659	54.24
793.835	58.2
794.011	54.54
794.187	55.31
794.363	58
794.539	62.99
794.715	55.88
794.891	60.37
795.067	55.77
795.243	68.44
795.419	67.89
795.595	71.08
795.771	71.83
795.947	72.83
796.122	64.86
796.298	65.27
796.474	65.78
796.65	60.78
796.826	63.01
797.001	62.36
797.177	56.01
797.353	55.65
797.529	60.62
797.704	62.02
797.88	59.62
798.056	57.26
798.231	58.06
798.407	59.21
798.582	54.35
798.758	64.13
798.934	76.6
799.109	75.81
799.285	71.85
799.46	79
799.636	71.21
799.811	65.55
799.986	67.43
800.162	71.12
800.337	68.11
800.513	61.67
800.688	61.57
800.863	68.43
801.039	58.92
801.214	53.52
801.389	64.86
801.565	64.38
801.74	49.17
801.915	58.84
802.09	61.99
802.265	64.63
802.441	60.79
802.616	64.24
802.791	63.87
802.966	65.01
803.141	60.75
803.316	60.22
803.491	65.72
803.666	65.85
803.841	57.48
804.016	58.31
804.191	61.07
804.366	56.95
804.541	51.09
804.716	56.17
804.891	48.27
805.066	47.56
805.241	47.22
805.416	51.91
805.591	49.55
805.765	57.33
805.94	59.24
806.115	57.02
806.29	46.2
806.464	45.76
806.639	36.52
806.814	30.39
806.989	21.52
807.163	39.46
807.338	39.86
807.512	41
807.687	29.28
807.862	47.22
808.036	42.88
808.211	48.83
808.385	53.34
808.56	76.51
808.734	70.24
808.909	69.75
809.083	58.1
809.258	66.81
809.432	57.42
809.606	43.18
809.781	41.27
809.955	44.33
810.13	37.52
810.304	41.38
810.478	42.3
810.652	51.64
810.827	62.35
811.001	58.07
811.175	42.15
811.349	45.86
811.524	33.27
811.698	16.85
811.872	21.09
812.046	35.83
812.22	45.07
812.394	47.19
812.568	58.47
812.742	62.02
812.916	53.22
813.09	43.59
813.264	43.54
813.438	42.06
813.612	36.15
813.786	36.49
813.96	52.75
814.134	49.35
814.308	59.11
814.482	63.75
814.656	56.25
814.83	54.9
815.003	61.48
815.177	45.12
815.351	42.38
815.525	45.61
815.698	33.92
815.872	22.47
816.046	15.51
816.219	25.64
816.393	42.81
816.567	42.95
816.74	45.07
816.914	62.68
817.088	59.78
817.261	39.93
817.435	44.49
817.608	53.08
817.782	33.62
817.955	29.88
818.129	32.84
818.302	31.88
818.475	39.84
818.649	48.16
818.822	40.4
818.996	57.25
819.169	55.22
819.342	31.09
819.516	46.32
819.689	60.45
819.862	43.8
820.035	44.7
820.209	50.21
820.382	36.23
820.555	36.05
820.728	23.93
820.901	22.63
821.075	19.87
821.248	29.25
821.421	5.31
821.594	16.86
821.767	39.27
821.94	54.93
822.113	27.98
822.286	21.98
822.459	27.96
822.632	1.83
822.805	-8.18
822.978	6.75
823.151	19.07
823.324	5.72
823.496	-11.15
823.669	-20.53
823.842	-24.93
824.015	-24.42
824.188	-24.03
824.361	-7.44
824.533	-7.29
824.706	-7.64
824.879	-3.97
825.051	0.55
825.224	-5.9
825.397	-19.59
825.569	-21.28
825.742	-7.32
825.915	13.53
826.087	32.25
826.26	31.7
826.432	36.82
826.605	39.27
826.777	23.58
826.95	28.38
827.122	26
827.295	31.37
827.467	26.25
827.64	8.59
827.812	-12.09
827.984	-4.14
828.157	-26.16
828.329	-78.39
828.501	-49.37
828.674	-43.05
828.846	-61.85
829.018	-20.32
829.19	-18.67
829.363	9.48
829.535	24.82
829.707	21.38
829.879	-7.34
830.051	-4.09
830.223	-33.47
830.395	-71.09
830.568	-53.33
830.74	-60.76
830.912	-24.03
831.084	-16.53
831.256	-3.85
831.428	-21.7
831.6	-28.69
831.772	-81.7
831.943	-104.25
832.115	-73.66
832.287	-42.55
832.459	-20.23
832.631	3.75
832.803	33.1
832.975	46.47
833.146	27.46
833.318	15.55
833.49	28.42
833.662	-1.78
833.833	-21.54
834.005	-14.62
834.177	-1.43
834.348	-9.29
834.52	-33.19
834.692	-27.81
834.863	-42.54
835.035	-40.84
835.206	-98.1
835.378	-64.76
835.549	-69.96
835.721	-43.81
835.892	-48.44
836.064	-35.85
836.235	-39.36
836.407	-19.66
836.578	-44.36
836.749	-57.45
836.921	-66.58
837.092	-74.66
837.264	-92.65
837.435	-102.25
837.606	-41.47
837.777	-2.73
837.949	11.47
838.12	20.08
838.291	29.96
838.462	10.38
838.633	-35.6
838.805	-34.93
838.976	-43.81
839.147	-144.59
839.318	-140.11
839.489	-194.03
839.66	-166.6
839.831	-85.17
840.002	-48.07
840.173	-64.77
840.344	15.56
840.515	-35.22
840.686	-253.2
840.857	-186.44
841.028	-130.08
841.199	-102.89
841.369	-91.44
841.54	-64.66
841.711	-22.55
841.882	-13.07
842.053	-28.75
842.223	-28.54
842.394	-13.81
842.565	-28.06
842.736	-12.39
842.906	-7.39
843.077	-1.85
843.248	17.27
843.418	-3.31
843.589	-47.74
843.759	-15.83
843.93	-8.35
844.101	-46.11
844.271	-15.86
844.442	-7.65
844.612	6.57
844.783	-48.84
844.953	-87.62
845.123	-130.13
845.294	-135.99
845.464	-504.1
845.635	-222.37
845.805	-97.02
845.975	-48.97
846.146	-78.5
846.316	-41.25
846.486	-11.29
846.656	25.39
846.827	15.01
846.997	-0.18
847.167	21.52
847.337	-22.27
847.507	-83.09
847.677	-79.16
847.848	3.83
848.018	-4.36
848.188	9.89
848.358	-4.81
848.528	-25.67
848.698	-87.24
848.868	-211
849.038	-383.77
849.208	-196.25
849.378	-126.28
849.548	-74.52
849.718	-47.58
849.887	-10.42
850.057	-37.05
850.227	-78.77
850.397	-138.19
850.567	-298.18
850.737	-614.24
850.906	-1349.69
851.076	-1190.43
851.246	-574.74
851.415	-91.65
851.585	-92.69
851.755	-164.7
851.924	-80.05
852.094	-139.39
852.264	-305.25
852.433	-1840.14
852.603	-385.33
852.772	-475
852.942	-219.66
853.111	-156.56
853.281	-73.04
853.45	-43.66
853.62	-105.45
853.789	-91.38
853.959	-71.52
854.128	-111.51
854.297	-132.83
854.467	-117.24
854.636	-163.44
854.805	-79.8
854.975	-114.23
855.144	-207.88
855.313	-243.18
855.482	-551.64
855.652	-377.02
855.821	-260.68
855.99	-67.71
856.159	-34.07
856.328	-16.85
856.497	-37.93
856.667	-30.76
856.836	-37.12
857.005	-77.15
857.174	-69.81
857.343	-60.58
857.512	-35.92
857.681	-68.42
857.85	-79.99
858.019	-65.69
858.188	-72.2
858.356	-85.11
858.525	-165.89
858.694	-168.79
858.863	-308.09
859.032	-184.73
859.201	-273.56
859.369	-140.75
859.538	-12.07
859.707	-41.5
859.876	-108.39
860.044	-53.94
860.213	-3.94
860.382	-57.44
860.55	-27.75
860.719	8.28
860.888	14.19
861.056	-18.69
861.225	-24.73
861.393	-5.84
861.562	-49.82
861.73	-183.35
861.899	-566.88
862.067	-3981.9
862.236	-216.05
862.404	-363.04
862.572	-220.75
862.741	-78.12
862.909	-80.25
863.078	-257.83
863.246	-191.16
863.414	-220.56
863.582	-149.97
863.751	-137.61
863.919	-105.2
864.087	-8.64
864.255	27.6
864.424	-262.85
864.592	-28.13
864.76	-108.68
864.928	-623.8
865.096	-364.89
865.264	-276.48
865.432	-3251.7
865.6	-358.38
865.768	-184.07
865.936	-172.57
866.104	-181.01
866.272	-231.48
866.44	-546.75
866.608	819.97
866.776	397.21
866.944	3585.47
867.112	-566.84
867.28	-231.09
867.448	-85.31
867.615	-10.77
867.783	-11.67
867.951	-53.39
868.119	0.75
868.286	-47.72
868.454	-249.44
868.622	-250.54
868.789	-334.87
868.957	-7755.36
869.125	-4223.03
869.292	-298.46
869.46	-378.67
869.627	-84.93
869.795	-61.87
869.963	-17.4
870.13	-6.09
870.298	-1.05
870.465	-110.91
870.632	-143.87
870.8	-117.77
870.967	-173.84
871.135	-274.26
871.302	-230.77
871.469	-299.94
871.637	-479.27
871.804	-279.69
871.971	-299.95
872.139	-865
872.306	-169.7
872.473	-138.97
872.64	-548.39
872.807	-230.76
872.975	-62.16
873.142	-320.64
873.309	3039.86
873.476	-6.11
873.643	24.36
873.81	-8.76
873.977	5.31
874.144	24.8
874.311	-174.29
874.478	-203.86
874.645	-206.53
874.812	-162.48
874.979	-126.87
875.146	-123.85
875.313	-134.03
875.48	-43.89
875.647	-32.33
875.813	-87.29
875.98	-71.78
876.147	-110.29
876.314	-224.4
876.481	1955.99
876.647	-2291.85
876.814	888.99
876.981	-334.52
877.147	-172.93
877.314	-53.55
877.481	-30.75
877.647	-29.45
877.814	-57.52
877.98	-120.43
878.147	-85.02
878.314	-22.76
878.48	-55.44
878.647	-37.98
878.813	31.82
878.979	29.78
879.146	-26.95
879.312	-39.59
879.479	-145.97
879.645	-240.59
879.811	-457.97
879.978	-1147.14
880.144	-372.4
880.31	-164.7
880.477	-508.74
880.643	-584.07
880.809	-256.82
880.975	-162.69
881.142	-1377.05
881.308	-210.89
881.474	-100.6
881.64	-147.91
881.806	-318.74
881.972	-110.28
882.138	-141.4
882.304	-219.52
882.47	-341.31
882.636	-976.02
882.802	-339.09
882.968	-69.84
883.134	-63.37
883.3	-72.44
883.466	-23.14
883.632	6.32
883.798	-42.77
883.964	-60.29
884.129	-40.24
884.295	-24.55
884.461	-95.2
884.627	-104.56
884.793	-121.38
884.958	-54.24
885.124	-176.71
885.29	-251.38
885.455	-541.63
885.621	-209.52
885.787	-328.47
885.952	-145
886.118	-157.52
886.283	-133.12
886.449	-257.75
886.614	-245.85
886.78	-512.21
886.945	2330.74
887.111	-948.41
887.276	-710.65
887.442	-1227.05
887.607	-573
887.773	-333.36
887.938	-316.38
888.103	-454.1
888.269	-366.79
888.434	-546.35
888.599	-203.26
888.764	-112.45
888.93	-37.95
889.095	-66.6
889.26	-126.76
889.425	-82.68
889.59	-76.6
889.756	-137.63
889.921	-95.31
890.086	-67.69
890.251	-104.66
890.416	-358.98
890.581	-2549.6
890.746	404.91
890.911	628.5
891.076	254.84
891.241	-546.08
891.406	-22.22
891.571	-122.22
891.736	-398.97
891.901	-559.96
892.065	708.52
892.23	178.05
892.395	237.13
892.56	339.81
892.725	-456.84
892.889	-1653.05
893.054	-278.15
893.219	-118.15
893.384	-64.69
893.548	-127.56
893.713	-132.06
893.878	-79.32
