Data from Ofra_1a_PS_4HS15_Reflection_3.txt Node
Date: Tue Jul 20 10:57:38 EDT 2021
User: Adam
Spectrometer: FLMT01687
Trigger mode: 0
Integration Time (sec): 1.004000E0
Scans to average: 2
Electric dark correction enabled: true
Nonlinearity correction enabled: false
Boxcar width: 2
XAxis mode: Wavelengths
Number of Pixels in Spectrum: 3648
>>>>>Begin Spectral Data<<<<<
179.494	-181.73
179.716	-348.85
179.937	735.12
180.158	-513.38
180.38	91.05
180.601	1.67
180.823	-80.54
181.044	-178.54
181.265	74.94
181.486	120.66
181.708	-4.21
181.929	5472.73
182.15	-127.22
182.372	30.54
182.593	408.36
182.814	-206.11
183.035	-50.35
183.257	5.86
183.478	-11.42
183.699	-0.93
183.92	-23
184.141	-11.36
184.363	-9.9
184.584	8.89
184.805	22.05
185.026	36.76
185.247	22.64
185.468	-9.77
185.689	-2.99
185.91	-48.35
186.132	-35.53
186.353	-23.06
186.574	-23.76
186.795	-31.19
187.016	-5.96
187.237	-26.31
187.458	-40.93
187.679	-24.73
187.9	-19.19
188.121	-14.34
188.342	34.99
188.563	68.51
188.784	65.98
189.005	73.7
189.226	53.64
189.447	45.37
189.667	32.28
189.888	24.45
190.109	-2.38
190.33	11.25
190.551	-8.1
190.772	-5.22
190.993	-35.34
191.214	-45.95
191.434	-91.37
191.655	-126.15
191.876	-54.75
192.097	-4.79
192.318	29.98
192.538	0.81
192.759	25.07
192.98	24.2
193.201	10.16
193.421	4.65
193.642	27.65
193.863	21.71
194.083	6.93
194.304	20.49
194.525	6.54
194.745	-13.49
194.966	-10.55
195.187	0.96
195.407	-38.31
195.628	-17.38
195.848	-14.03
196.069	-41.6
196.29	-45.6
196.51	-16.54
196.731	-20.25
196.951	-40.81
197.172	-31.56
197.392	-52.87
197.613	-15.82
197.833	-38.94
198.054	-36.96
198.274	-24.87
198.495	-5.05
198.715	-52.42
198.936	-17.02
199.156	2.21
199.377	2.48
199.597	10.5
199.817	32.61
200.038	10.81
200.258	6.75
200.479	12.95
200.699	2.61
200.919	-3.32
201.14	6.41
201.36	-9.38
201.58	-18.34
201.801	-17.29
202.021	-10.95
202.241	-21.13
202.461	-2.65
202.682	-8.33
202.902	-0.24
203.122	2.31
203.342	7.03
203.563	-7.72
203.783	-11.02
204.003	-39.66
204.223	-21.4
204.443	-35.44
204.663	-56.65
204.884	-44.23
205.104	-14.43
205.324	2.58
205.544	-3.89
205.764	21.88
205.984	7.41
206.204	-0.05
206.424	-56.62
206.644	-62.11
206.864	-84.54
207.084	-37.23
207.304	-53.12
207.525	-23.45
207.745	3.84
207.964	-3.71
208.184	9.29
208.404	12.91
208.624	20.4
208.844	14.28
209.064	26.75
209.284	8.11
209.504	-1.21
209.724	7.15
209.944	-6.67
210.164	-0.85
210.384	-2.44
210.604	-14.9
210.823	-76.01
211.043	-32.28
211.263	-106.57
211.483	-47.36
211.703	-24.08
211.922	-32.38
212.142	-22.73
212.362	-22.1
212.582	-22.78
212.801	-29.3
213.021	-22.95
213.241	-22.49
213.461	-15.92
213.68	-1.56
213.9	-3.75
214.12	14.07
214.339	-4.3
214.559	5.12
214.779	-1.77
214.998	3.21
215.218	-18.16
215.438	-3.73
215.657	-15.55
215.877	-23.28
216.096	9.72
216.316	15.59
216.535	7.04
216.755	23.49
216.974	4.08
217.194	-17.61
217.413	1.92
217.633	9.31
217.852	3.88
218.072	19.3
218.291	13.61
218.511	-10.61
218.73	-26.95
218.95	-54.61
219.169	-76.45
219.389	-65.78
219.608	-52.39
219.827	-24.09
220.047	-10.97
220.266	-16.26
220.485	-24.28
220.705	-22.27
220.924	-75.54
221.143	-30.24
221.363	-6.82
221.582	5.67
221.801	3.18
222.021	26.38
222.24	45.73
222.459	57.46
222.678	50.96
222.897	54.34
223.117	56.91
223.336	36.95
223.555	30
223.774	38.78
223.993	58.91
224.213	67.27
224.432	61.03
224.651	46.35
224.87	34.1
225.089	13.7
225.308	13.33
225.527	-0.75
225.746	0.18
225.965	-7.19
226.184	-8.26
226.404	-21.91
226.623	-6.39
226.842	-13.67
227.061	-5.49
227.28	17.7
227.499	29.59
227.718	23.07
227.936	32.74
228.155	34.64
228.374	26.67
228.593	25.79
228.812	27.29
229.031	28.61
229.25	4.83
229.469	2.54
229.688	-6.65
229.907	-2.36
230.125	-6.54
230.344	11.65
230.563	20.87
230.782	21.33
231.001	14.78
231.22	16.45
231.438	18.95
231.657	8.29
231.876	4.95
232.095	20.13
232.313	-2.24
232.532	-12.89
232.751	-20.8
232.969	-24.98
233.188	-42.27
233.407	-14.6
233.625	-11.24
233.844	-10.11
234.063	-2.04
234.281	13.58
234.5	7.82
234.719	10.52
234.937	4.31
235.156	-2.86
235.374	-20.74
235.593	-18.33
235.811	-4.47
236.03	1.67
236.249	9.49
236.467	6.56
236.686	-2.34
236.904	-1.5
237.123	3.5
237.341	-11.1
237.559	-2.84
237.778	25.87
237.996	-0.63
238.215	-15.09
238.433	-43.46
238.652	-20.86
238.87	-40.32
239.088	-37.58
239.307	-14.78
239.525	-6.78
239.743	-12.33
239.962	-25.81
240.18	-1.36
240.398	-4.92
240.617	2.54
240.835	10.87
241.053	11.69
241.271	9.63
241.49	17.68
241.708	3.5
241.926	-6.93
242.144	-2.93
242.363	3.79
242.581	-19.7
242.799	33.39
243.017	49.66
243.235	24.44
243.453	-1.53
243.672	-4.05
243.89	-19.16
244.108	-20.88
244.326	-2.73
244.544	8.42
244.762	0.86
244.98	10.64
245.198	12.3
245.416	2.64
245.634	4.06
245.852	7.35
246.07	14.81
246.288	11.81
246.506	15.18
246.724	8.12
246.942	18.9
247.16	14.84
247.378	7.43
247.596	19.83
247.814	33.03
248.032	18.18
248.25	16.83
248.468	30.56
248.685	29.57
248.903	27.6
249.121	32.64
249.339	25.01
249.557	16.97
249.775	13.73
249.992	8.96
250.21	-5.7
250.428	11.88
250.646	18.27
250.863	7.48
251.081	12.87
251.299	30.87
251.517	25.59
251.734	7.3
251.952	13.54
252.17	2.6
252.387	-22.3
252.605	-26.75
252.823	-41.44
253.04	17.41
253.258	36.82
253.475	49.66
253.693	53.74
253.911	64.5
254.128	29.07
254.346	28.26
254.563	37.04
254.781	32.5
254.998	13.67
255.216	-12.8
255.433	-37.89
255.651	-49.4
255.868	-54.14
256.086	-30.72
256.303	-10.82
256.521	10.73
256.738	-12.57
256.956	-0.93
257.173	-11.75
257.39	-11.67
257.608	-24.4
257.825	-3.83
258.043	19.92
258.26	22.2
258.477	19.61
258.695	15.88
258.912	10.36
259.129	-29.26
259.346	-56.81
259.564	-44.2
259.781	-44.58
259.998	-27.5
260.216	-12.97
260.433	-5.22
260.65	-15.49
260.867	-6.61
261.084	-12.78
261.302	-27.41
261.519	0.41
261.736	20.5
261.953	19.33
262.17	28.68
262.387	30.37
262.604	26
262.822	36.86
263.039	41.13
263.256	36.96
263.473	31.44
263.69	25.58
263.907	16.62
264.124	7.93
264.341	9.52
264.558	25.26
264.775	33.48
264.992	14.38
265.209	2.64
265.426	-15.47
265.643	-21.62
265.86	-41.95
266.077	-1.73
266.294	5.23
266.51	32.57
266.727	29.92
266.944	35.7
267.161	21.87
267.378	17.16
267.595	-6.24
267.812	-20.2
268.028	-29.82
268.245	-23.71
268.462	-17.32
268.679	-3.6
268.896	9.49
269.112	-12.61
269.329	-25.13
269.546	-4.78
269.763	-11.87
269.979	-3.18
270.196	20.03
270.413	26.29
270.629	12.53
270.846	21.26
271.063	21.79
271.279	4.26
271.496	5.49
271.712	16.51
271.929	10.56
272.146	-0.03
272.362	12.49
272.579	8.06
272.795	0.93
273.012	27.65
273.228	40.32
273.445	34.37
273.661	28.56
273.878	15.13
274.094	4.46
274.311	-10.86
274.527	-28.96
274.744	-24.69
274.96	-1.36
275.177	-1.03
275.393	18.21
275.609	25.43
275.826	29.6
276.042	22.03
276.259	22.16
276.475	-4.21
276.691	-11.67
276.908	-18.5
277.124	-1.69
277.34	-13.27
277.557	-5.11
277.773	-10.58
277.989	-4.65
278.205	-22.38
278.422	-21.16
278.638	-26.07
278.854	-22.65
279.07	-13.13
279.286	-12.84
279.503	-4.51
279.719	-0.44
279.935	4.17
280.151	-1.05
280.367	7.61
280.583	3.14
280.799	-3.96
281.016	-32.56
281.232	-14.17
281.448	-15.98
281.664	-14.12
281.88	7.68
282.096	15.05
282.312	5.44
282.528	-9.64
282.744	-6.79
282.96	-36.13
283.176	-51.45
283.392	-77.51
283.608	-42.59
283.824	-63.67
284.04	-87.44
284.256	-40.87
284.471	-23.5
284.687	-16.75
284.903	-8.21
285.119	10.75
285.335	11.04
285.551	1.9
285.767	-10.46
285.982	-15.19
286.198	-28.21
286.414	-31.19
286.63	-24.57
286.846	-11.92
287.061	-19.35
287.277	-9.09
287.493	-24.48
287.709	-18.38
287.924	-3.35
288.14	11.81
288.356	25.92
288.571	30.26
288.787	24.1
289.003	20.52
289.218	-4.9
289.434	-23.67
289.65	-3.23
289.865	7.52
290.081	8.34
290.296	24.82
290.512	25.04
290.727	12.08
290.943	5.32
291.159	-5.69
291.374	-23.55
291.59	-15.19
291.805	-34.56
292.021	-24.55
292.236	-24.1
292.451	-8.01
292.667	-16.93
292.882	16.98
293.098	15.25
293.313	19.49
293.529	8.29
293.744	7.95
293.959	-4.57
294.175	-0.03
294.39	-19.14
294.605	5.84
294.821	-8.37
295.036	-11.89
295.251	-9.23
295.467	1.32
295.682	-6.64
295.897	-1
296.112	-5.69
296.328	-7.61
296.543	-19.21
296.758	-32.62
296.973	-18.13
297.188	-13.71
297.404	-48.75
297.619	-53.42
297.834	-80.89
298.049	-73.9
298.264	-63.26
298.479	-55.99
298.694	-13.78
298.909	0.73
299.125	-7.64
299.34	9.09
299.555	25.98
299.77	36.97
299.985	34.14
300.2	35.39
300.415	27.38
300.63	21.06
300.845	6.14
301.06	9.34
301.275	12.8
301.49	11.77
301.704	21
301.919	24.85
302.134	17.57
302.349	18.87
302.564	15.24
302.779	-0.03
302.994	-2.44
303.209	-1.23
303.423	-11.4
303.638	-6.14
303.853	-7.35
304.068	-25.71
304.283	-20.78
304.497	-33.95
304.712	-31.88
304.927	-19.47
305.142	-4.16
305.356	3.59
305.571	8.58
305.786	10.43
306	23.92
306.215	13.05
306.43	10.35
306.644	5.86
306.859	13.32
307.074	8.84
307.288	12.08
307.503	20.44
307.717	14
307.932	15.96
308.147	6.29
308.361	10.49
308.576	-7.92
308.79	-1.97
309.005	-6.86
309.219	8.35
309.434	20.69
309.648	16.36
309.863	22.76
310.077	25.51
310.292	25.77
310.506	9.91
310.72	26.39
310.935	29.79
311.149	24.29
311.364	9.46
311.578	29.54
311.792	22.21
312.007	23.63
312.221	-1.58
312.435	3.44
312.649	-7.21
312.864	-3.02
313.078	-6.79
313.292	15.2
313.507	17.08
313.721	14.97
313.935	11.28
314.149	14.16
314.363	5.23
314.578	2.68
314.792	-35.38
315.006	-39.75
315.22	-21.58
315.434	-32.14
315.648	-31.5
315.862	-19.35
316.077	-11.19
316.291	-19.04
316.505	-23.01
316.719	-11
316.933	0.9
317.147	-2.9
317.361	2.12
317.575	-5.27
317.789	-7.17
318.003	-2.99
318.217	-8.14
318.431	-20.64
318.645	-12.55
318.859	-3.04
319.073	8.16
319.287	19.98
319.5	19.65
319.714	8.46
319.928	5.1
320.142	-9.95
320.356	-12.07
320.57	-21.37
320.784	-4.03
320.997	-28.51
321.211	-15.91
321.425	-43.88
321.639	-15.64
321.853	-2.13
322.066	-3.45
322.28	-0.36
322.494	1.51
322.707	-3.76
322.921	-6.34
323.135	1.76
323.349	-7.84
323.562	12.95
323.776	11.47
323.989	19.84
324.203	15.15
324.417	13.45
324.63	-2.97
324.844	-13.92
325.057	-57.67
325.271	-51.93
325.485	-41.82
325.698	-21.49
325.912	-2.53
326.125	-0.03
326.339	10.68
326.552	3.31
326.766	-6.92
326.979	-7.58
327.193	18.91
327.406	10.36
327.619	19.57
327.833	20.63
328.046	17.42
328.26	7.15
328.473	1.61
328.686	-5.52
328.9	-0.53
329.113	-19.03
329.326	-33.4
329.54	-13.07
329.753	3.84
329.966	4.93
330.179	13.11
330.393	22.86
330.606	13.41
330.819	-18.08
331.032	-25.71
331.246	-10.16
331.459	-1.19
331.672	-6.59
331.885	15.6
332.098	38.28
332.311	33.86
332.525	21.48
332.738	26.76
332.951	25.04
333.164	16.1
333.377	11.41
333.59	3.51
333.803	-0.37
334.016	-6.08
334.229	-9.21
334.442	-12.71
334.655	-0.78
334.868	-11.54
335.081	-17.01
335.294	-32.94
335.507	-25.66
335.72	-19.6
335.933	-10.99
336.146	-3.77
336.359	13.66
336.572	11.82
336.785	3.46
336.997	1.12
337.21	27.91
337.423	3.58
337.636	-3.15
337.849	4.18
338.062	2.24
338.274	-6.4
338.487	-15.88
338.7	-24.66
338.913	-24.65
339.125	-35.59
339.338	-20.41
339.551	2.27
339.763	15.59
339.976	27.16
340.189	37.87
340.402	37.24
340.614	38.08
340.827	25.39
341.039	22.39
341.252	18.65
341.465	5.85
341.677	13.83
341.89	9.82
342.102	4.82
342.315	7.85
342.527	14.85
342.74	-9.89
342.952	4.42
343.165	0.88
343.377	11.53
343.59	3.67
343.802	10.48
344.015	8.77
344.227	10.32
344.44	-16.56
344.652	-18.45
344.864	-4.03
345.077	-10.24
345.289	-3.93
345.502	9.93
345.714	24.33
345.926	21.08
346.139	9.49
346.351	6.37
346.563	8.55
346.775	-3.51
346.988	-3.56
347.2	2.97
347.412	8.15
347.624	1.08
347.837	7.2
348.049	0.24
348.261	-9.8
348.473	-18.31
348.685	-10.19
348.897	-8.18
349.11	8.89
349.322	28.69
349.534	32.71
349.746	32.53
349.958	10.68
350.17	-15.32
350.382	-13.86
350.594	-0.54
350.806	10.18
351.018	17.64
351.23	26.69
351.442	28.07
351.654	25.41
351.866	7.86
352.078	11.24
352.29	8.13
352.502	0.44
352.714	-10.47
352.926	1.93
353.138	16.71
353.35	11.69
353.561	9.41
353.773	4.21
353.985	14.64
354.197	13.37
354.409	10.23
354.621	-1.62
354.832	-10.04
355.044	-38.09
355.256	-46.08
355.468	-47.76
355.679	-14.12
355.891	2.88
356.103	11
356.314	4.79
356.526	-2.06
356.738	-5.34
356.949	-12.19
357.161	-0.82
357.373	-3.88
357.584	9.82
357.796	7.29
358.008	11.43
358.219	-2.56
358.431	-6.11
358.642	-15.21
358.854	-11.58
359.065	-20.07
359.277	-10.93
359.488	-18.83
359.7	-4.88
359.911	-12
360.123	8.94
360.334	-4.74
360.546	2.36
360.757	-9.26
360.969	-1.11
361.18	-22.81
361.391	5.25
361.603	11.41
361.814	22.41
362.025	18.16
362.237	23.54
362.448	25.68
362.659	17.64
362.871	-0.02
363.082	9.97
363.293	8.63
363.504	-11.37
363.716	-11.96
363.927	12.58
364.138	-18.23
364.349	-38.87
364.56	-39.56
364.772	-28.72
364.983	-22.66
365.194	-3.24
365.405	11.5
365.616	10.88
365.827	12.87
366.038	10.39
366.25	9.79
366.461	16.6
366.672	17.77
366.883	17.93
367.094	13.62
367.305	1.53
367.516	7.69
367.727	-0.66
367.938	-3.27
368.149	-11.94
368.36	1.92
368.571	-25.03
368.781	-23.02
368.992	-20.2
369.203	-12.03
369.414	-27.61
369.625	-21.61
369.836	11.22
370.047	14.34
370.258	21.1
370.468	14.75
370.679	27.83
370.89	8.07
371.101	12.14
371.312	-14.22
371.522	-2
371.733	-18.41
371.944	-34.46
372.155	-36.89
372.365	-4.47
372.576	6.71
372.787	33.59
372.997	28
373.208	25.62
373.419	7.93
373.629	-7.45
373.84	-38.71
374.05	-27.17
374.261	-33.89
374.472	-16.01
374.682	-10.93
374.893	-13.75
375.103	2.25
375.314	-8.87
375.524	-15.65
375.735	-5.24
375.945	4.17
376.156	-8.29
376.366	3.02
376.577	8.94
376.787	4.42
376.997	8.76
377.208	7.75
377.418	4.02
377.629	5.8
377.839	9.52
378.049	7.05
378.26	7.63
378.47	-5.82
378.68	-13.48
378.89	-12.39
379.101	-4.22
379.311	-1.51
379.521	7.74
379.732	17.57
379.942	3.28
380.152	-11.04
380.362	-14.41
380.572	-1.47
380.783	6.01
380.993	15.12
381.203	15.31
381.413	26.65
381.623	27.43
381.833	24.12
382.043	21.78
382.253	26.55
382.463	24.61
382.674	20.44
382.884	13.15
383.094	15.1
383.304	16.05
383.514	11.82
383.724	7.61
383.934	3.86
384.144	6.92
384.353	10.07
384.563	10.31
384.773	14.87
384.983	11.3
385.193	7.72
385.403	1.68
385.613	-5.26
385.823	-7.61
386.033	-4.13
386.242	-10.05
386.452	-12.39
386.662	-3.5
386.872	-3.39
387.082	-0.54
387.291	-2.83
387.501	1.3
387.711	-1.51
387.921	-1.25
388.13	-0.44
388.34	2.67
388.55	0.35
388.759	-5.73
388.969	-5.65
389.179	-5.76
389.388	-2.59
389.598	-1.98
389.807	-3.51
390.017	-3.92
390.227	-5.75
390.436	-4.19
390.646	-4.02
390.855	0.35
391.065	0.91
391.274	2.78
391.484	0.15
391.693	0.76
391.903	1.22
392.112	0.69
392.322	-4.24
392.531	-2.18
392.74	-1.67
392.95	-1.63
393.159	-0.82
393.369	3.72
393.578	2.86
393.787	2.74
393.997	2.73
394.206	1.42
394.415	1.22
394.625	0.6
394.834	-0.2
395.043	0.86
395.252	3.38
395.462	4.46
395.671	5.43
395.88	6.5
396.089	6.2
396.298	5.15
396.508	3.86
396.717	3.82
396.926	2.93
397.135	3.58
397.344	3.75
397.553	3
397.762	4
397.971	3.98
398.181	3.34
398.39	3.4
398.599	4.06
398.808	3.83
399.017	4.34
399.226	4.31
399.435	3.89
399.644	4.4
399.853	4.16
400.062	4.23
400.27	3.74
400.479	3.69
400.688	3.47
400.897	3.08
401.106	3.32
401.315	3.62
401.524	3.72
401.733	3.5
401.941	3.75
402.15	3.4
402.359	3.55
402.568	3.72
402.777	3.9
402.985	3.49
403.194	3.41
403.403	3.64
403.612	3.63
403.82	3.25
404.029	3.39
404.238	3.21
404.446	3.08
404.655	2.89
404.864	3.13
405.072	3.18
405.281	3.4
405.489	3.25
405.698	3.5
405.906	3.58
406.115	3.71
406.324	3.64
406.532	3.72
406.741	3.55
406.949	3.5
407.158	3.54
407.366	3.38
407.574	3.27
407.783	3.22
407.991	3.07
408.2	3.02
408.408	3.17
408.617	3.14
408.825	3.03
409.033	3.09
409.242	3.17
409.45	3.04
409.658	3.08
409.867	3.15
410.075	3.18
410.283	3
410.491	3.01
410.7	2.92
410.908	3
411.116	2.99
411.324	3
411.533	2.91
411.741	2.94
411.949	2.9
412.157	2.85
412.365	2.86
412.573	3.02
412.781	2.96
412.99	2.98
413.198	2.9
413.406	2.91
413.614	2.99
413.822	3.17
414.03	3.05
414.238	3.21
414.446	3.28
414.654	3.07
414.862	2.88
415.07	2.86
415.278	2.8
415.486	2.68
415.694	2.83
415.902	2.82
416.109	2.81
416.317	2.77
416.525	2.69
416.733	2.47
416.941	2.66
417.149	2.66
417.357	2.67
417.564	2.68
417.772	2.89
417.98	2.71
418.188	2.7
418.395	2.55
418.603	2.48
418.811	2.29
419.019	2.35
419.226	2.45
419.434	2.57
419.642	2.41
419.849	2.47
420.057	2.33
420.265	2.21
420.472	2.07
420.68	2.22
420.887	2.28
421.095	2.5
421.302	2.69
421.51	2.85
421.717	2.87
421.925	2.95
422.132	2.84
422.34	2.6
422.547	2.56
422.755	2.61
422.962	2.56
423.17	2.46
423.377	2.53
423.585	2.69
423.792	2.71
423.999	2.69
424.207	2.66
424.414	2.75
424.621	2.66
424.829	2.7
425.036	2.7
425.243	2.9
425.451	2.8
425.658	2.7
425.865	2.61
426.072	2.65
426.28	2.62
426.487	2.61
426.694	2.56
426.901	2.62
427.108	2.46
427.315	2.31
427.523	2.24
427.73	2.3
427.937	2.21
428.144	2.33
428.351	2.49
428.558	2.61
428.765	2.69
428.972	2.8
429.179	2.65
429.386	2.59
429.593	2.5
429.8	2.49
430.007	2.47
430.214	2.51
430.421	2.56
430.628	2.7
430.835	2.66
431.042	2.52
431.249	2.54
431.456	2.45
431.662	2.53
431.869	2.74
432.076	2.78
432.283	2.87
432.49	2.99
432.697	2.87
432.903	2.71
433.11	2.89
433.317	2.86
433.524	2.79
433.73	2.7
433.937	2.79
434.144	2.58
434.35	2.55
434.557	2.61
434.764	2.66
434.97	2.5
435.177	2.71
435.384	2.73
435.59	2.69
435.797	2.77
436.003	2.8
436.21	2.63
436.416	2.72
436.623	2.81
436.829	2.77
437.036	2.77
437.242	2.92
437.449	2.92
437.655	2.93
437.862	2.97
438.068	2.97
438.275	2.98
438.481	3.03
438.687	2.82
438.894	2.98
439.1	3.05
439.307	3.07
439.513	3.09
439.719	3.2
439.926	3.18
440.132	3.16
440.338	3.1
440.544	3.01
440.751	3.02
440.957	2.96
441.163	2.85
441.369	2.86
441.575	2.8
441.782	2.77
441.988	2.84
442.194	2.94
442.4	2.87
442.606	3.02
442.812	3.07
443.018	2.99
443.224	3.1
443.431	3.16
443.637	3.1
443.843	3.09
444.049	3.25
444.255	3.13
444.461	3.09
444.667	3.12
444.873	3.22
445.079	3.08
445.284	3.14
445.49	3.13
445.696	3.06
445.902	3.01
446.108	3.05
446.314	3.05
446.52	3.15
446.726	3.21
446.931	3.13
447.137	3.07
447.343	3.17
447.549	3.12
447.755	3.12
447.96	3.13
448.166	3.17
448.372	3.06
448.578	3.01
448.783	3.01
448.989	3.11
449.195	3.13
449.4	3.18
449.606	3.25
449.812	3.15
450.017	3.12
450.223	3.16
450.428	3.11
450.634	3.15
450.84	3.27
451.045	3.27
451.251	3.22
451.456	3.32
451.662	3.26
451.867	3.26
452.073	3.3
452.278	3.33
452.483	3.3
452.689	3.32
452.894	3.34
453.1	3.28
453.305	3.31
453.51	3.35
453.716	3.35
453.921	3.36
454.127	3.39
454.332	3.34
454.537	3.27
454.742	3.31
454.948	3.29
455.153	3.22
455.358	3.19
455.563	3.28
455.769	3.31
455.974	3.34
456.179	3.4
456.384	3.43
456.589	3.37
456.795	3.3
457	3.34
457.205	3.29
457.41	3.37
457.615	3.32
457.82	3.47
458.025	3.47
458.23	3.57
458.435	3.55
458.64	3.62
458.845	3.47
459.05	3.47
459.255	3.43
459.46	3.37
459.665	3.37
459.87	3.37
460.075	3.35
460.28	3.42
460.485	3.54
460.69	3.5
460.895	3.62
461.099	3.56
461.304	3.44
461.509	3.37
461.714	3.47
461.919	3.36
462.123	3.44
462.328	3.42
462.533	3.33
462.738	3.31
462.942	3.27
463.147	3.29
463.352	3.38
463.556	3.44
463.761	3.35
463.966	3.44
464.17	3.48
464.375	3.67
464.58	3.64
464.784	3.73
464.989	3.78
465.193	3.76
465.398	3.64
465.602	3.75
465.807	3.77
466.011	3.79
466.216	3.77
466.42	3.79
466.625	3.8
466.829	3.8
467.034	3.81
467.238	3.87
467.443	3.84
467.647	3.79
467.851	3.79
468.056	3.83
468.26	3.79
468.464	3.79
468.669	3.86
468.873	3.87
469.077	3.81
469.282	3.84
469.486	3.83
469.69	3.84
469.894	3.87
470.099	3.85
470.303	3.84
470.507	3.93
470.711	3.87
470.915	3.9
471.119	3.99
471.324	4.1
471.528	4.1
471.732	4.18
471.936	4.18
472.14	4.19
472.344	4.24
472.548	4.24
472.752	4.26
472.956	4.24
473.16	4.24
473.364	4.1
473.568	4.14
473.772	4.06
473.976	4.2
474.18	4.21
474.384	4.21
474.588	4.22
474.792	4.2
474.995	4.11
475.199	4.14
475.403	4.25
475.607	4.22
475.811	4.24
476.015	4.18
476.218	4.09
476.422	4.07
476.626	4.18
476.83	4.28
477.033	4.36
477.237	4.43
477.441	4.39
477.644	4.28
477.848	4.29
478.052	4.28
478.255	4.32
478.459	4.36
478.663	4.49
478.866	4.54
479.07	4.58
479.273	4.67
479.477	4.64
479.681	4.63
479.884	4.57
480.088	4.61
480.291	4.52
480.495	4.53
480.698	4.53
480.901	4.58
481.105	4.58
481.308	4.61
481.512	4.62
481.715	4.68
481.919	4.75
482.122	4.71
482.325	4.76
482.529	4.83
482.732	4.76
482.935	4.64
483.138	4.65
483.342	4.63
483.545	4.68
483.748	4.75
483.952	4.85
484.155	4.91
484.358	4.88
484.561	4.79
484.764	4.69
484.967	4.64
485.171	4.69
485.374	4.65
485.577	4.66
485.78	4.67
485.983	4.67
486.186	4.6
486.389	4.67
486.592	4.73
486.795	4.83
486.998	4.81
487.201	4.82
487.404	4.94
487.607	4.96
487.81	4.9
488.013	4.93
488.216	4.94
488.419	4.8
488.622	4.72
488.825	4.74
489.028	4.74
489.231	4.79
489.433	4.76
489.636	4.79
489.839	4.82
490.042	4.81
490.245	4.74
490.447	4.77
490.65	4.78
490.853	4.79
491.056	4.79
491.258	4.85
491.461	4.87
491.664	4.86
491.866	4.79
492.069	4.79
492.272	4.72
492.474	4.73
492.677	4.75
492.879	4.82
493.082	4.81
493.285	4.92
493.487	4.89
493.69	4.91
493.892	4.85
494.095	4.88
494.297	4.88
494.5	4.88
494.702	4.92
494.905	5.01
495.107	5.02
495.309	5.03
495.512	5.02
495.714	4.99
495.917	5.03
496.119	5.03
496.321	5
496.524	5
496.726	5.02
496.928	4.95
497.13	4.94
497.333	4.92
497.535	4.98
497.737	5.02
497.939	5.1
498.142	5.14
498.344	5.2
498.546	5.18
498.748	5.23
498.95	5.21
499.152	5.21
499.355	5.2
499.557	5.19
499.759	5.2
499.961	5.18
500.163	5.19
500.365	5.22
500.567	5.3
500.769	5.27
500.971	5.31
501.173	5.31
501.375	5.4
501.577	5.36
501.779	5.37
501.981	5.4
502.183	5.43
502.385	5.42
502.587	5.45
502.788	5.52
502.99	5.58
503.192	5.65
503.394	5.59
503.596	5.68
503.798	5.61
503.999	5.57
504.201	5.53
504.403	5.62
504.605	5.62
504.806	5.72
505.008	5.75
505.21	5.82
505.411	5.86
505.613	5.87
505.815	5.89
506.016	5.91
506.218	6
506.42	6
506.621	6.04
506.823	6.03
507.024	6.05
507.226	6
507.427	6.07
507.629	6.09
507.83	6.15
508.032	6.14
508.233	6.17
508.435	6.17
508.636	6.22
508.838	6.24
509.039	6.27
509.24	6.29
509.442	6.28
509.643	6.29
509.845	6.27
510.046	6.38
510.247	6.4
510.448	6.48
510.65	6.51
510.851	6.57
511.052	6.56
511.254	6.62
511.455	6.64
511.656	6.63
511.857	6.64
512.058	6.67
512.26	6.65
512.461	6.62
512.662	6.7
512.863	6.68
513.064	6.69
513.265	6.68
513.466	6.69
513.667	6.69
513.868	6.68
514.069	6.7
514.27	6.82
514.471	6.81
514.672	6.82
514.873	6.85
515.074	6.86
515.275	6.79
515.476	6.9
515.677	6.96
515.878	7.07
516.079	7.08
516.28	7.19
516.481	7.18
516.682	7.18
516.882	7.13
517.083	7.18
517.284	7.2
517.485	7.16
517.686	7.26
517.886	7.26
518.087	7.22
518.288	7.17
518.488	7.19
518.689	7.14
518.89	7.19
519.091	7.31
519.291	7.39
519.492	7.44
519.692	7.47
519.893	7.57
520.094	7.53
520.294	7.55
520.495	7.56
520.695	7.63
520.896	7.6
521.096	7.63
521.297	7.63
521.497	7.62
521.698	7.59
521.898	7.62
522.099	7.67
522.299	7.67
522.499	7.67
522.7	7.71
522.9	7.75
523.101	7.7
523.301	7.74
523.501	7.79
523.702	7.8
523.902	7.78
524.102	7.92
524.302	8
524.503	8.06
524.703	8.02
524.903	8.02
525.103	7.97
525.304	7.97
525.504	8.06
525.704	8.16
525.904	8.19
526.104	8.2
526.304	8.22
526.504	8.2
526.705	8.19
526.905	8.21
527.105	8.24
527.305	8.23
527.505	8.15
527.705	8.15
527.905	8.22
528.105	8.25
528.305	8.26
528.505	8.33
528.705	8.42
528.905	8.4
529.105	8.41
529.304	8.42
529.504	8.5
529.704	8.48
529.904	8.48
530.104	8.56
530.304	8.62
530.503	8.61
530.703	8.64
530.903	8.67
531.103	8.7
531.303	8.67
531.502	8.75
531.702	8.81
531.902	8.94
532.101	8.93
532.301	8.99
532.501	9.05
532.7	9.06
532.9	9.08
533.1	9.08
533.299	9.14
533.499	9.13
533.698	9.17
533.898	9.22
534.097	9.28
534.297	9.24
534.496	9.25
534.696	9.23
534.895	9.2
535.095	9.24
535.294	9.35
535.494	9.33
535.693	9.39
535.892	9.41
536.092	9.47
536.291	9.51
536.491	9.61
536.69	9.64
536.889	9.63
537.088	9.62
537.288	9.58
537.487	9.6
537.686	9.62
537.886	9.72
538.085	9.75
538.284	9.82
538.483	9.81
538.682	9.85
538.882	9.85
539.081	9.91
539.28	9.92
539.479	10
539.678	10.04
539.877	10.12
540.076	10.19
540.275	10.28
540.474	10.24
540.673	10.27
540.872	10.26
541.071	10.26
541.27	10.26
541.469	10.37
541.668	10.44
541.867	10.54
542.066	10.57
542.265	10.66
542.464	10.71
542.663	10.76
542.862	10.82
543.06	10.97
543.259	11.05
543.458	11.11
543.657	11.21
543.856	11.31
544.054	11.25
544.253	11.27
544.452	11.35
544.651	11.41
544.849	11.41
545.048	11.57
545.247	11.63
545.445	11.68
545.644	11.67
545.843	11.74
546.041	11.72
546.24	11.75
546.438	11.88
546.637	12.02
546.836	12.12
547.034	12.23
547.233	12.34
547.431	12.31
547.63	12.37
547.828	12.42
548.027	12.46
548.225	12.49
548.423	12.61
548.622	12.68
548.82	12.72
549.019	12.84
549.217	12.96
549.415	13
549.614	13.12
549.812	13.22
550.01	13.29
550.209	13.45
550.407	13.53
550.605	13.47
550.803	13.54
551.002	13.63
551.2	13.62
551.398	13.78
551.596	13.94
551.794	14.06
551.993	14.16
552.191	14.31
552.389	14.34
552.587	14.46
552.785	14.53
552.983	14.68
553.181	14.73
553.379	14.89
553.577	14.98
553.775	15.17
553.973	15.25
554.171	15.37
554.369	15.41
554.567	15.54
554.765	15.55
554.963	15.59
555.161	15.65
555.359	15.82
555.557	15.94
555.755	16.13
555.952	16.27
556.15	16.44
556.348	16.49
556.546	16.61
556.744	16.67
556.941	16.76
557.139	16.82
557.337	16.94
557.535	17
557.732	17.1
557.93	17.35
558.128	17.48
558.325	17.58
558.523	17.78
558.721	17.99
558.918	18.08
559.116	18.25
559.313	18.38
559.511	18.46
559.708	18.52
559.906	18.57
560.104	18.71
560.301	18.96
560.498	19.06
560.696	19.12
560.893	19.32
561.091	19.4
561.288	19.42
561.486	19.48
561.683	19.68
561.88	19.75
562.078	19.9
562.275	20.07
562.473	20.25
562.67	20.41
562.867	20.54
563.064	20.61
563.262	20.64
563.459	20.79
563.656	20.83
563.853	20.81
564.051	20.97
564.248	21.2
564.445	21.28
564.642	21.39
564.839	21.63
565.036	21.84
565.234	21.87
565.431	22
565.628	22.11
565.825	22.21
566.022	22.27
566.219	22.36
566.416	22.44
566.613	22.62
566.81	22.74
567.007	22.74
567.204	22.89
567.401	22.99
567.598	23.02
567.795	23.02
567.991	23.05
568.188	23.05
568.385	23.13
568.582	23.31
568.779	23.45
568.976	23.6
569.172	23.76
569.369	23.82
569.566	23.77
569.763	23.79
569.96	23.8
570.156	23.87
570.353	23.9
570.55	23.94
570.746	24
570.943	24.11
571.14	24.05
571.336	24.14
571.533	24.21
571.729	24.33
571.926	24.38
572.123	24.54
572.319	24.63
572.516	24.74
572.712	24.68
572.909	24.65
573.105	24.66
573.302	24.49
573.498	24.36
573.695	24.43
573.891	24.47
574.087	24.36
574.284	24.44
574.48	24.57
574.677	24.57
574.873	24.55
575.069	24.61
575.266	24.74
575.462	24.71
575.658	24.73
575.854	24.81
576.051	24.85
576.247	24.82
576.443	24.83
576.639	24.8
576.835	24.76
577.032	24.77
577.228	24.74
577.424	24.73
577.62	24.72
577.816	24.66
578.012	24.6
578.208	24.64
578.404	24.68
578.6	24.7
578.796	24.74
578.993	24.73
579.189	24.76
579.384	24.62
579.58	24.62
579.776	24.62
579.972	24.66
580.168	24.58
580.364	24.75
580.56	24.64
580.756	24.6
580.952	24.51
581.148	24.55
581.343	24.41
581.539	24.54
581.735	24.48
581.931	24.51
582.127	24.41
582.322	24.33
582.518	24.21
582.714	24.25
582.909	24.32
583.105	24.25
583.301	24.23
583.496	24.19
583.692	24.05
583.888	23.92
584.083	24.02
584.279	24.08
584.474	24.08
584.67	24.14
584.866	24.16
585.061	24.05
585.257	23.98
585.452	23.98
585.648	23.89
585.843	23.81
586.039	23.8
586.234	23.87
586.429	23.81
586.625	23.9
586.82	23.92
587.015	24.04
587.211	23.95
587.406	24.04
587.601	24.04
587.797	24.02
587.992	23.88
588.187	23.89
588.383	23.87
588.578	23.88
588.773	23.89
588.968	23.95
589.163	24.12
589.359	24.14
589.554	24.18
589.749	24.24
589.944	24.29
590.139	24.22
590.334	24.39
590.529	24.37
590.724	24.39
590.919	24.4
591.114	24.44
591.309	24.29
591.504	24.31
591.699	24.31
591.894	24.29
592.089	24.31
592.284	24.35
592.479	24.39
592.674	24.45
592.869	24.52
593.064	24.57
593.259	24.7
593.454	24.84
593.648	24.88
593.843	24.88
594.038	24.99
594.233	25.01
594.428	25.01
594.622	25.05
594.817	25.24
595.012	25.25
595.206	25.34
595.401	25.46
595.596	25.61
595.79	25.65
595.985	25.73
596.18	25.82
596.374	25.89
596.569	25.95
596.763	26.04
596.958	26.18
597.153	26.18
597.347	26.19
597.542	26.24
597.736	26.34
597.931	26.36
598.125	26.45
598.319	26.52
598.514	26.55
598.708	26.63
598.903	26.73
599.097	26.87
599.291	26.99
599.486	27.18
599.68	27.18
599.874	27.29
600.069	27.26
600.263	27.31
600.457	27.36
600.651	27.38
600.846	27.37
601.04	27.42
601.234	27.41
601.428	27.43
601.622	27.5
601.817	27.5
602.011	27.61
602.205	27.69
602.399	27.53
602.593	27.54
602.787	27.46
602.981	27.45
603.175	27.51
603.369	27.59
603.563	27.66
603.757	27.69
603.951	27.67
604.145	27.69
604.339	27.74
604.533	27.68
604.727	27.77
604.921	27.8
605.115	27.7
605.309	27.69
605.502	27.71
605.696	27.73
605.89	27.74
606.084	27.7
606.278	27.69
606.471	27.6
606.665	27.39
606.859	27.3
607.053	27.25
607.246	27.2
607.44	27.14
607.634	27.13
607.827	27.08
608.021	26.92
608.214	26.79
608.408	26.73
608.602	26.57
608.795	26.49
608.989	26.46
609.182	26.41
609.376	26.34
609.569	26.4
609.763	26.25
609.956	26.25
610.15	26.12
610.343	25.99
610.537	25.85
610.73	25.7
610.923	25.65
611.117	25.65
611.31	25.49
611.504	25.42
611.697	25.36
611.89	25.21
612.083	24.94
612.277	25.06
612.47	24.97
612.663	24.94
612.856	24.77
613.05	24.88
613.243	24.66
613.436	24.62
613.629	24.43
613.822	24.44
614.015	24.2
614.209	24.13
614.402	23.97
614.595	23.99
614.788	23.87
614.981	23.9
615.174	23.77
615.367	23.69
615.56	23.48
615.753	23.46
615.946	23.34
616.139	23.3
616.332	23.3
616.525	23.32
616.718	23.17
616.911	23.09
617.103	23.06
617.296	22.98
617.489	22.83
617.682	22.92
617.875	23.01
618.067	22.91
618.26	22.84
618.453	22.78
618.646	22.62
618.838	22.39
619.031	22.35
619.224	22.25
619.417	22.3
619.609	22.31
619.802	22.26
619.994	22.26
620.187	22.21
620.38	22.18
620.572	22.06
620.765	22.09
620.957	22
621.15	21.92
621.342	21.9
621.535	21.88
621.727	21.77
621.92	21.74
622.112	21.77
622.305	21.7
622.497	21.64
622.69	21.77
622.882	21.79
623.074	21.78
623.267	21.82
623.459	21.76
623.651	21.64
623.844	21.68
624.036	21.68
624.228	21.56
624.42	21.51
624.613	21.47
624.805	21.3
624.997	21.19
625.189	21.23
625.381	21.27
625.574	21.23
625.766	21.3
625.958	21.27
626.15	21.19
626.342	21.07
626.534	21.03
626.726	20.98
626.918	20.93
627.11	20.85
627.302	20.81
627.494	20.83
627.686	20.66
627.878	20.69
628.07	20.67
628.262	20.78
628.454	20.73
628.646	20.82
628.838	20.84
629.029	20.81
629.221	20.68
629.413	20.56
629.605	20.47
629.797	20.38
629.989	20.38
630.18	20.45
630.372	20.49
630.564	20.36
630.755	20.34
630.947	20.24
631.139	20.07
631.33	19.93
631.522	19.97
631.714	19.89
631.905	19.94
632.097	19.92
632.289	19.97
632.48	19.94
632.672	19.92
632.863	19.81
633.055	19.82
633.246	19.81
633.438	19.81
633.629	19.72
633.821	19.75
634.012	19.77
634.203	19.74
634.395	19.65
634.586	19.64
634.777	19.59
634.969	19.52
635.16	19.43
635.351	19.45
635.543	19.41
635.734	19.34
635.925	19.36
636.117	19.39
636.308	19.4
636.499	19.36
636.69	19.37
636.881	19.28
637.073	19.3
637.264	19.18
637.455	19.23
637.646	19.24
637.837	19.16
638.028	19.03
638.219	19.15
638.41	19.16
638.601	19.16
638.792	19.16
638.983	19.17
639.174	19
639.365	18.89
639.556	18.71
639.747	18.67
639.938	18.73
640.129	18.7
640.32	18.69
640.511	18.74
640.701	18.81
640.892	18.62
641.083	18.55
641.274	18.45
641.465	18.41
641.655	18.27
641.846	18.24
642.037	18.19
642.228	18.08
642.418	17.95
642.609	17.92
642.8	17.88
642.99	17.89
643.181	18
643.372	18.04
643.562	18.02
643.753	17.94
643.943	17.81
644.134	17.65
644.324	17.59
644.515	17.52
644.705	17.53
644.896	17.6
645.086	17.62
645.277	17.55
645.467	17.51
645.658	17.39
645.848	17.33
646.038	17.33
646.229	17.35
646.419	17.23
646.61	17.32
646.8	17.34
646.99	17.32
647.18	17.27
647.371	17.38
647.561	17.3
647.751	17.25
647.941	17.1
648.132	17.05
648.322	16.91
648.512	16.94
648.702	16.93
648.892	16.92
649.082	16.96
649.272	16.92
649.462	16.86
649.653	16.77
649.843	16.77
650.033	16.77
650.223	16.76
650.413	16.73
650.603	16.75
650.793	16.81
650.983	16.59
651.172	16.6
651.362	16.45
651.552	16.33
651.742	16.17
651.932	16.23
652.122	16.12
652.312	16.09
652.502	16.02
652.691	15.91
652.881	15.83
653.071	15.8
653.261	15.7
653.45	15.64
653.64	15.51
653.83	15.38
654.019	15.21
654.209	15.09
654.399	14.96
654.588	14.92
654.778	14.82
654.968	14.73
655.157	14.7
655.347	14.59
655.536	14.49
655.726	14.2
655.915	14.05
656.105	13.86
656.294	13.64
656.484	13.38
656.673	13.37
656.863	13.27
657.052	13.15
657.241	13.05
657.431	12.99
657.62	12.89
657.809	12.65
657.999	12.48
658.188	12.37
658.377	12.22
658.567	12.04
658.756	11.93
658.945	11.78
659.134	11.52
659.324	11.27
659.513	11.03
659.702	10.8
659.891	10.62
660.08	10.46
660.269	10.31
660.458	10.12
660.648	10.03
660.837	9.88
661.026	9.65
661.215	9.55
661.404	9.42
661.593	9.2
661.782	9
661.971	8.87
662.16	8.72
662.349	8.56
662.538	8.45
662.726	8.29
662.915	8.25
663.104	8.05
663.293	8.06
663.482	7.9
663.671	7.87
663.86	7.79
664.048	7.75
664.237	7.6
664.426	7.51
664.615	7.43
664.803	7.31
664.992	7.21
665.181	7.22
665.369	7.19
665.558	7.09
665.747	7.04
665.935	6.94
666.124	6.82
666.312	6.79
666.501	6.77
666.69	6.73
666.878	6.68
667.067	6.57
667.255	6.41
667.444	6.41
667.632	6.35
667.82	6.39
668.009	6.32
668.197	6.37
668.386	6.22
668.574	6.25
668.762	6.14
668.951	6.12
669.139	6.11
669.327	6.11
669.516	5.94
669.704	5.95
669.892	5.99
670.08	5.88
670.269	5.89
670.457	6.02
670.645	6
670.833	6.04
671.021	6.11
671.21	6.1
671.398	6.08
671.586	6.13
671.774	6.16
671.962	6.16
672.15	6.31
672.338	6.37
672.526	6.39
672.714	6.36
672.902	6.48
673.09	6.43
673.278	6.49
673.466	6.52
673.654	6.64
673.842	6.64
674.03	6.73
674.218	6.74
674.405	6.84
674.593	6.83
674.781	6.84
674.969	6.95
675.157	7
675.344	7.07
675.532	7.08
675.72	7.13
675.908	7.07
676.095	7.08
676.283	7.13
676.471	7.28
676.658	7.36
676.846	7.48
677.033	7.51
677.221	7.55
677.409	7.51
677.596	7.57
677.784	7.59
677.971	7.58
678.159	7.61
678.346	7.71
678.534	7.82
678.721	8
678.909	8.22
679.096	8.29
679.283	8.39
679.471	8.5
679.658	8.44
679.846	8.53
680.033	8.85
680.22	9.06
680.408	9.05
680.595	9.28
680.782	9.41
680.969	9.42
681.157	9.45
681.344	9.61
681.531	9.67
681.718	9.88
681.905	9.97
682.093	10.13
682.28	10.31
682.467	10.5
682.654	10.55
682.841	10.76
683.028	10.92
683.215	11.11
683.402	11.16
683.589	11.38
683.776	11.53
683.963	11.73
684.15	12
684.337	12.43
684.524	12.72
684.711	12.96
684.898	13.16
685.085	13.32
685.271	13.57
685.458	13.82
685.645	14.09
685.832	14.47
686.019	14.75
686.205	15.07
686.392	15.53
686.579	15.84
686.766	16.19
686.952	16.73
687.139	17.17
687.326	17.49
687.512	17.85
687.699	18.29
687.886	18.67
688.072	18.9
688.259	19.37
688.445	20.09
688.632	20.6
688.818	21.26
689.005	21.99
689.191	22.72
689.378	23.32
689.564	24.03
689.751	24.5
689.937	25.18
690.124	25.69
690.31	26.06
690.496	26.67
690.683	27.49
690.869	28.11
691.055	28.8
691.242	29.59
691.428	30.21
691.614	30.82
691.8	31.5
691.987	32.37
692.173	33.42
692.359	34.39
692.545	35.34
692.731	36.17
692.918	36.61
693.104	37.16
693.29	37.67
693.476	38.37
693.662	39.13
693.848	40
694.034	40.68
694.22	41.58
694.406	42.34
694.592	43.14
694.778	43.9
694.964	44.82
695.15	45.62
695.336	46.36
695.522	47.06
695.708	48.07
695.894	48.83
696.08	49.64
696.265	50.29
696.451	50.88
696.637	51.73
696.823	52.61
697.009	53.2
697.194	54.18
697.38	55.09
697.566	55.61
697.751	56.27
697.937	57.21
698.123	57.85
698.308	58.74
698.494	59.55
698.68	60.25
698.865	60.74
699.051	61.46
699.236	62.02
699.422	62.7
699.607	63.53
699.793	64.33
699.978	64.74
700.164	65.29
700.349	65.8
700.535	65.8
700.72	66.04
700.906	66.7
701.091	67.26
701.276	67.89
701.462	68.79
701.647	69.72
701.832	70.35
702.018	71.13
702.203	71.51
702.388	72.09
702.573	72.58
702.759	73.24
702.944	73.64
703.129	74.41
703.314	74.85
703.499	75.27
703.684	75.8
703.87	76.46
704.055	76.94
704.24	77.42
704.425	77.93
704.61	78.19
704.795	78.45
704.98	78.53
705.165	79.18
705.35	79.5
705.535	80.05
705.72	80.77
705.905	81.59
706.09	81.94
706.275	82.38
706.459	82.72
706.644	82.99
706.829	83.22
707.014	83.77
707.199	84.59
707.384	84.71
707.568	84.54
707.753	85.35
707.938	85.63
708.123	85.47
708.307	85.91
708.492	86.72
708.677	86.19
708.861	86.44
709.046	86.45
709.231	86.54
709.415	86.59
709.6	87.11
709.784	87.2
709.969	88.2
710.153	88.29
710.338	88.91
710.522	89.05
710.707	89.27
710.891	89.11
711.076	89.72
711.26	89.94
711.445	90.51
711.629	90.63
711.813	91.24
711.998	91.55
712.182	91.28
712.366	91.81
712.551	92.09
712.735	91.96
712.919	92.12
713.103	92.39
713.288	92.43
713.472	92.93
713.656	92.84
713.84	93.24
714.024	93.44
714.208	93.13
714.393	93.24
714.577	93.62
714.761	93.5
714.945	93.76
715.129	94.19
715.313	94.25
715.497	94.32
715.681	94.18
715.865	93.91
716.049	94.16
716.233	93.72
716.417	93.8
716.601	94.63
716.785	95.02
716.968	94.89
717.152	95.62
717.336	95.99
717.52	95.8
717.704	96.08
717.888	96.44
718.071	96.35
718.255	96.58
718.439	96.55
718.622	96.65
718.806	96.58
718.99	96.93
719.174	97.18
719.357	97.62
719.541	98.01
719.724	98.09
719.908	97.5
720.092	96.88
720.275	96.72
720.459	96.46
720.642	96.53
720.826	97.17
721.009	97.94
721.193	97.87
721.376	98.09
721.559	98.23
721.743	98.44
721.926	98.45
722.11	99.63
722.293	100.09
722.476	99.76
722.66	99.93
722.843	99.74
723.026	99.16
723.21	98.9
723.393	99.73
723.576	99.76
723.759	99.73
723.942	99.65
724.126	99.51
724.309	99.06
724.492	99.42
724.675	99.76
724.858	100.07
725.041	100.99
725.224	102
725.407	101.76
725.59	101.79
725.774	101.44
725.957	101.29
726.14	100.41
726.322	100.48
726.505	100.26
726.688	100.34
726.871	99.98
727.054	100.68
727.237	100.76
727.42	100.65
727.603	100.53
727.786	101.15
727.968	100.52
728.151	100.49
728.334	101.55
728.517	101.79
728.699	101.24
728.882	101.48
729.065	101.18
729.248	101.05
729.43	101.13
729.613	101.47
729.796	102.08
729.978	102.21
730.161	101.99
730.343	102.17
730.526	101.92
730.708	101.87
730.891	102.49
731.073	101.76
731.256	102.27
731.438	102.89
731.621	103.12
731.803	103.03
731.986	104.29
732.168	104.62
732.35	104.51
732.533	104.03
732.715	104.11
732.898	103.3
733.08	102.76
733.262	101.97
733.444	102.33
733.627	102.22
733.809	102.89
733.991	102.41
734.173	103.34
734.355	103.21
734.538	103.45
734.72	103.58
734.902	104.62
735.084	104.67
735.266	104.65
735.448	104.76
735.63	104.58
735.812	104.35
735.994	104.5
736.176	104.84
736.358	105.19
736.54	105.8
736.722	105.34
736.904	105.41
737.086	104.72
737.268	104.97
737.45	105.61
737.632	105.89
737.814	105.28
737.995	106.17
738.177	105.71
738.359	104.86
738.541	104.89
738.723	105.29
738.904	105.05
739.086	105.11
739.268	104.47
739.449	104.51
739.631	104.63
739.813	103.95
739.994	103.49
740.176	104.2
740.358	104.36
740.539	103.95
740.721	104.7
740.902	105.51
741.084	105.88
741.265	106.53
741.447	107.97
741.628	107.4
741.81	107
741.991	106.63
742.172	105.26
742.354	104.59
742.535	105.02
742.717	104.18
742.898	104.69
743.079	106.82
743.261	105.92
743.442	104.95
743.623	106.03
743.804	105.12
743.986	103.75
744.167	104.02
744.348	104.81
744.529	104.48
744.71	104.44
744.891	103.85
745.073	104.16
745.254	104.45
745.435	104.3
745.616	104.58
745.797	104.58
745.978	103.65
746.159	103.06
746.34	103.75
746.521	103.34
746.702	104.65
746.883	105.88
747.064	106.14
747.245	105.87
747.426	106.64
747.606	105.66
747.787	105.98
747.968	105.05
748.149	104.35
748.33	102.95
748.51	102.51
748.691	101.9
748.872	104.93
749.053	104.41
749.233	105.3
749.414	105.85
749.595	106.6
749.775	104.29
749.956	104.69
750.137	103.83
750.317	102.9
750.498	101.9
750.678	100.31
750.859	101.16
751.04	102.58
751.22	102.17
751.4	102.94
751.581	105.36
751.761	105.21
751.942	104.82
752.122	105.53
752.303	105.41
752.483	104.67
752.663	104.64
752.844	104.3
753.024	105.46
753.204	103.86
753.385	103.79
753.565	102.57
753.745	101.93
753.925	99.64
754.106	100.9
754.286	100.35
754.466	100.97
754.646	101.02
754.826	103.68
755.006	101.79
755.187	102.87
755.367	102.02
755.547	102.38
755.727	101.33
755.907	102.57
756.087	101.2
756.267	100.79
756.447	102.36
756.627	102.71
756.807	104.46
756.987	105.14
757.167	105.99
757.346	104.03
757.526	104.84
757.706	103.05
757.886	102.58
758.066	103.74
758.246	103.21
758.425	101.96
758.605	102.22
758.785	102.54
758.965	102.19
759.144	102.54
759.324	103.68
759.504	104.71
759.683	103.81
759.863	102.78
760.043	102.71
760.222	100.98
760.402	99.07
760.581	99.44
760.761	100.29
760.94	100.04
761.12	99.32
761.299	101.95
761.479	102.2
761.658	102.08
761.838	102.76
762.017	105.08
762.197	101.89
762.376	102.33
762.555	101.25
762.735	101.27
762.914	99.56
763.093	100.44
763.273	100.35
763.452	100.36
763.631	99.89
763.81	99.8
763.99	99.24
764.169	98.09
764.348	97.84
764.527	97.79
764.706	98.42
764.885	98.6
765.064	99.55
765.243	99.45
765.423	100.95
765.602	100.84
765.781	99.97
765.96	100.32
766.139	101
766.318	100.37
766.497	98.71
766.676	98.85
766.854	98.55
767.033	99.01
767.212	100.44
767.391	102.3
767.57	104.73
767.749	104
767.928	103.44
768.106	100.04
768.285	98.99
768.464	98.82
768.643	98.5
768.821	97.42
769	98.11
769.179	98.36
769.357	96.84
769.536	96.89
769.715	96.23
769.893	96.08
770.072	94.64
770.25	94.17
770.429	94.52
770.607	95.89
770.786	95.63
770.964	97.04
771.143	98.52
771.321	96.24
771.5	97.35
771.678	98.41
771.857	97.13
772.035	98.7
772.213	101.52
772.392	98.4
772.57	98.19
772.748	96.9
772.927	94.73
773.105	93.86
773.283	95.23
773.461	94.46
773.64	96.37
773.818	95.5
773.996	95.87
774.174	96.68
774.352	97.17
774.531	96.44
774.709	96.71
774.887	94.71
775.065	95.22
775.243	94.58
775.421	96.29
775.599	97.58
775.777	98.65
775.955	95.85
776.133	95.86
776.311	93.6
776.489	92.46
776.667	93.27
776.844	95.74
777.022	94.65
777.2	94.44
777.378	93
777.556	94.57
777.734	96.16
777.911	98.79
778.089	101.9
778.267	100.95
778.445	101.13
778.622	98.93
778.8	96.64
778.978	95.72
779.155	98.22
779.333	95.47
779.511	95.52
779.688	97.22
779.866	96.67
780.043	96.74
780.221	97.11
780.398	97.12
780.576	96.76
780.753	96.78
780.931	96.12
781.108	97.5
781.286	97.08
781.463	96.14
781.64	96.51
781.818	95.76
781.995	93.4
782.172	91.9
782.35	91.57
782.527	90.71
782.704	89.9
782.882	86.99
783.059	87.14
783.236	87.11
783.413	85.49
783.59	85.25
783.768	87.11
783.945	88
784.122	89.22
784.299	92.05
784.476	91.73
784.653	92.66
784.83	92.12
785.007	88.82
785.184	86.82
785.361	87.62
785.538	88.6
785.715	89.54
785.892	91.71
786.069	93.06
786.246	93.9
786.423	93.59
786.6	95.99
786.776	96.65
786.953	93.86
787.13	93.43
787.307	91.49
787.484	85.05
787.66	82.75
787.837	83.75
788.014	86.32
788.191	85.72
788.367	88.45
788.544	89.07
788.721	89.39
788.897	87.48
789.074	88.76
789.25	86.43
789.427	84.17
789.603	81.3
789.78	80.37
789.956	79.37
790.133	80.79
790.309	82.26
790.486	85.54
790.662	84.26
790.839	85.96
791.015	90.62
791.192	93.05
791.368	90.3
791.544	92.06
791.721	92.05
791.897	88.6
792.073	84.48
792.249	82.94
792.426	81.46
792.602	77.95
792.778	75.44
792.954	76.67
793.13	80.19
793.307	82.29
793.483	82.86
793.659	83.71
793.835	86.51
794.011	91.28
794.187	88.67
794.363	86.95
794.539	90.28
794.715	85.48
794.891	85.69
795.067	87.73
795.243	94.05
795.419	92.9
795.595	99
795.771	92.24
795.947	90.05
796.122	85.7
796.298	82.05
796.474	83.44
796.65	82.61
796.826	81.13
797.001	80.86
797.177	76.36
797.353	73.8
797.529	76.49
797.704	77.62
797.88	76.16
798.056	83.78
798.231	82.12
798.407	81.86
798.582	83.17
798.758	84.63
798.934	85.27
799.109	81.21
799.285	79.66
799.46	77.08
799.636	77.93
799.811	73.09
799.986	78.41
800.162	76.29
800.337	78.69
800.513	80.86
800.688	79.12
800.863	86.13
801.039	86.54
801.214	85.79
801.389	83.9
801.565	87.77
801.74	78.53
801.915	75.77
802.09	72.28
802.265	71.75
802.441	69.21
802.616	71.19
802.791	76.74
802.966	83.49
803.141	85.33
803.316	85.94
803.491	83.54
803.666	85.76
803.841	78.93
804.016	75.77
804.191	79.94
804.366	77.88
804.541	77.15
804.716	78.28
804.891	75.02
805.066	79.72
805.241	82.66
805.416	85.63
805.591	89.93
805.765	103.12
805.94	92.18
806.115	92.55
806.29	84.41
806.464	84.5
806.639	82.26
806.814	85.19
806.989	84.25
807.163	92.58
807.338	91.58
807.512	85.97
807.687	82.88
807.862	81.91
808.036	76.39
808.211	79.44
808.385	71.35
808.56	68.56
808.734	51.92
808.909	58.89
809.083	57.54
809.258	65.68
809.432	72.2
809.606	91.68
809.781	79.03
809.955	77.08
810.13	75.13
810.304	74.53
810.478	74.58
810.652	78.21
810.827	74.79
811.001	77.87
811.175	81.32
811.349	82.71
811.524	79.31
811.698	79.25
811.872	80.14
812.046	74.3
812.22	80.48
812.394	80.5
812.568	82.99
812.742	74.31
812.916	76.54
813.09	71.34
813.264	70.19
813.438	70.99
813.612	74.59
813.786	75.35
813.96	79.31
814.134	82.68
814.308	82.66
814.482	79.95
814.656	71.57
814.83	72.72
815.003	78.1
815.177	75.04
815.351	80.72
815.525	91.51
815.698	77.13
815.872	62.85
816.046	61.56
816.219	62.34
816.393	50.03
816.567	54.23
816.74	55.88
816.914	55.06
817.088	55.34
817.261	62.87
817.435	61.85
817.608	70.39
817.782	67.43
817.955	66.98
818.129	68.14
818.302	72.44
818.475	67.81
818.649	69.61
818.822	60.48
818.996	73.81
819.169	79.39
819.342	82.72
819.516	96.01
819.689	99.25
819.862	91.52
820.035	85.6
820.209	77.68
820.382	65.2
820.555	62.9
820.728	59.29
820.901	59.86
821.075	63.43
821.248	73.57
821.421	73.03
821.594	70.07
821.767	78.81
821.94	74.34
822.113	61.77
822.286	73.56
822.459	72.82
822.632	68.35
822.805	72.37
822.978	78.04
823.151	68.59
823.324	50.03
823.496	48.42
823.669	47.64
823.842	56.21
824.015	49.44
824.188	66.94
824.361	55.41
824.533	46.16
824.706	44.77
824.879	53.57
825.051	59.1
825.224	63.18
825.397	62.91
825.569	51.9
825.742	52.55
825.915	50.11
826.087	50.18
826.26	61.01
826.432	66.93
826.605	69.97
826.777	71.87
826.95	67.49
827.122	44.05
827.295	49.7
827.467	53.33
827.64	36.09
827.812	52.46
827.984	95.66
828.157	83.29
828.329	82.4
828.501	79.09
828.674	70.1
828.846	49.89
829.018	52.89
829.19	34.64
829.363	44.88
829.535	46.63
829.707	52.99
829.879	32.31
830.051	32.91
830.223	35.11
830.395	26.23
830.568	45.98
830.74	52.25
830.912	66.2
831.084	60.51
831.256	52.14
831.428	47.21
831.6	42.17
831.772	25.74
831.943	13.93
832.115	29.96
832.287	25.8
832.459	38.81
832.631	44.46
832.803	64.38
832.975	62.36
833.146	55.61
833.318	59.97
833.49	62.91
833.662	67.36
833.833	53.67
834.005	60.21
834.177	64.74
834.348	63.84
834.52	50.95
834.692	51.37
834.863	57.06
835.035	51.75
835.206	36.95
835.378	41.87
835.549	41.89
835.721	47.08
835.892	43.57
836.064	51.32
836.235	50.72
836.407	64.42
836.578	57.96
836.749	40.65
836.921	43.33
837.092	27.94
837.264	10.51
837.435	-5.6
837.606	23.8
837.777	29.82
837.949	37.96
838.12	44.21
838.291	50.72
838.462	50.84
838.633	44.79
838.805	39.37
838.976	30.1
839.147	36.04
839.318	39.57
839.489	39.82
839.66	46.77
839.831	51.4
840.002	54.26
840.173	47.31
840.344	39.18
840.515	29.41
840.686	33.22
840.857	21.67
841.028	29.95
841.199	36.26
841.369	39.78
841.54	29.42
841.711	56.39
841.882	55.56
842.053	58.08
842.223	57.58
842.394	47.51
842.565	28.98
842.736	27.14
842.906	21.42
843.077	34.37
843.248	55.56
843.418	56.77
843.589	50.79
843.759	50.52
843.93	44.5
844.101	17.96
844.271	26.51
844.442	23.05
844.612	27.07
844.783	35.52
844.953	38.78
845.123	30
845.294	39.84
845.464	53.54
845.635	29.62
845.805	43.47
845.975	61.78
846.146	37.52
846.316	20.98
846.486	30.8
846.656	41.79
846.827	29.94
846.997	47.85
847.167	41.28
847.337	43.54
847.507	43.41
847.677	48.16
847.848	43.38
848.018	56.99
848.188	55.78
848.358	37.23
848.528	36.82
848.698	22.59
848.868	24.6
849.038	25.83
849.208	32.03
849.378	30.53
849.548	17.4
849.718	-10.37
849.887	-29.48
850.057	-7.26
850.227	10.61
850.397	33.69
850.567	11.96
850.737	30.11
850.906	1.07
851.076	-29.08
851.246	-4
851.415	-2.41
851.585	-16.1
851.755	8.76
851.924	45.65
852.094	37.26
852.264	43.56
852.433	30.55
852.603	24.68
852.772	34.5
852.942	30.56
853.111	45.9
853.281	52.34
853.45	42.05
853.62	19.57
853.789	14.56
853.959	26.31
854.128	26.37
854.297	54.99
854.467	53.11
854.636	49.96
854.805	37.97
854.975	31.83
855.144	8.64
855.313	16.24
855.482	24.66
855.652	26.29
855.821	21.37
855.99	36.22
856.159	37.35
856.328	65.26
856.497	55.74
856.667	59.31
856.836	76.06
857.005	62.57
857.174	45.59
857.343	27.43
857.512	21.26
857.681	-28.9
857.85	-22.26
858.019	-78.97
858.188	-65.84
858.356	-18.5
858.525	-8.48
858.694	16.26
858.863	34.93
859.032	41.63
859.201	46.89
859.369	37.43
859.538	22.96
859.707	19.47
859.876	26.75
860.044	29.23
860.213	60.33
860.382	72.87
860.55	53.24
860.719	40
860.888	41.25
861.056	25.02
861.225	0.96
861.393	33.92
861.562	36.96
861.73	25.84
861.899	9.75
862.067	-0.05
862.236	-6.93
862.404	-6.81
862.572	-15.07
862.741	-3.19
862.909	10.16
863.078	17.32
863.246	27.43
863.414	31.35
863.582	33.29
863.751	32.7
863.919	41
864.087	32.58
864.255	46.4
864.424	15.95
864.592	29.81
864.76	22.53
864.928	29.41
865.096	29.43
865.264	33.95
865.432	19.73
865.6	43.74
865.768	43.16
865.936	26.67
866.104	13.62
866.272	27.14
866.44	-32.93
866.608	1.45
866.776	17.3
866.944	60.06
867.112	52.24
867.28	52.46
867.448	41.59
867.615	35.1
867.783	21.06
867.951	22.8
868.119	36.39
868.286	58.1
868.454	24.09
868.622	2.47
868.789	-1.78
868.957	0.86
869.125	-3.77
869.292	-15.02
869.46	5.88
869.627	-6.12
869.795	-11.48
869.963	-2.98
870.13	1.48
870.298	21.32
870.465	26.1
870.632	7.37
870.8	-5.28
870.967	2.7
871.135	-25.35
871.302	-43.07
871.469	-9.39
871.637	5.35
871.804	5.53
871.971	5.47
872.139	15.27
872.306	-34.05
872.473	-55.09
872.64	-145.35
872.807	-155.91
872.975	-281.99
873.142	-85.91
873.309	-59.26
873.476	17.32
873.643	47.65
873.81	24.95
873.977	40.18
874.144	49.68
874.311	-37.73
874.478	-85.3
874.645	-101.2
874.812	-8.64
874.979	-3.08
875.146	1.12
875.313	35.5
875.48	80.8
875.647	31.89
875.813	-14.79
875.98	-19.15
876.147	-104.41
876.314	-87.96
876.481	-45.84
876.647	9.21
876.814	11.37
876.981	34.9
877.147	38.26
877.314	27.63
877.481	57.03
877.647	83
877.814	68.54
877.98	70.32
878.147	82.43
878.314	68.24
878.48	64.99
878.647	90.25
878.813	85
878.979	71.86
879.146	83.52
879.312	83.44
879.479	44.41
879.645	45.27
879.811	7.53
879.978	23.26
880.144	6.34
880.31	21.4
880.477	24.8
880.643	48.69
880.809	-56.18
880.975	-32.38
881.142	-155.03
881.308	517.09
881.474	563.17
881.64	10.18
881.806	-42.32
881.972	13.93
882.138	30.6
882.304	8.49
882.47	-24.62
882.636	-10.06
882.802	26.18
882.968	24.37
883.134	13.1
883.3	8.17
883.466	44.33
883.632	13.18
883.798	-48.76
883.964	-2.28
884.129	62.01
884.295	-2.75
884.461	-68.16
884.627	14.15
884.793	-23
884.958	37.08
885.124	1.68
885.29	-3.98
885.455	27.84
885.621	87.51
885.787	-21.56
885.952	1.28
886.118	8.76
886.283	-10.37
886.449	-43.92
886.614	-33.27
886.78	-25.58
886.945	-67.98
887.111	-85.75
887.276	-104.8
887.442	-188.61
887.607	-113.52
887.773	-28.26
887.938	-14.19
888.103	24.82
888.269	58.89
888.434	51.8
888.599	36.69
888.764	41.28
888.93	39.37
889.095	19.12
889.26	-3.58
889.425	-6.92
889.59	27.27
889.756	7.09
889.921	28.86
890.086	57.71
890.251	25.52
890.416	-34.17
890.581	-89.94
890.746	-15.42
890.911	9.79
891.076	13.39
891.241	26.14
891.406	37.85
891.571	18.01
891.736	-5.61
891.901	30.14
892.065	17.52
892.23	48.03
892.395	0.38
892.56	-7.91
892.725	-12.22
892.889	1.21
893.054	-36.11
893.219	-21.01
893.384	-0.9
893.548	-35.38
893.713	-58.44
893.878	-106.32
