Data from Ofra_PS_T2_1A_2GT10_Reflection_1.txt Node
Date: Wed Jul 21 17:54:07 EDT 2021
User: Adam
Spectrometer: FLMT01687
Trigger mode: 0
Integration Time (sec): 1.100000E0
Scans to average: 2
Electric dark correction enabled: true
Nonlinearity correction enabled: false
Boxcar width: 2
XAxis mode: Wavelengths
Number of Pixels in Spectrum: 3648
>>>>>Begin Spectral Data<<<<<
179.494	537.2
179.716	629.18
179.937	586.19
180.158	585.87
180.38	1070.94
180.601	451.1
180.823	120.59
181.044	10.19
181.265	110.66
181.486	-14.34
181.708	66.63
181.929	405.1
182.15	-233.1
182.372	143.75
182.593	33.28
182.814	-5.25
183.035	29.65
183.257	35.2
183.478	-31.38
183.699	11.33
183.92	29.97
184.141	3.82
184.363	-76.91
184.584	-25.77
184.805	-4.06
185.026	21.07
185.247	60.73
185.468	44.63
185.689	31.54
185.91	33.49
186.132	44.9
186.353	24.42
186.574	110.27
186.795	81.94
187.016	54.55
187.237	16.5
187.458	10.92
187.679	-17.81
187.9	14.02
188.121	1.07
188.342	51.01
188.563	51.52
188.784	76.31
189.005	66.94
189.226	116.62
189.447	62.7
189.667	-52.67
189.888	-254.43
190.109	-1301.95
190.33	-681.61
190.551	-1317.26
190.772	-250
190.993	-210.62
191.214	-148.8
191.434	-68.67
191.655	43.01
191.876	-1.69
192.097	-56.73
192.318	-90.47
192.538	-187.54
192.759	-160.91
192.98	-65.83
193.201	-11.11
193.421	-2.65
193.642	10.56
193.863	19.51
194.083	3.87
194.304	-16.94
194.525	-10.81
194.745	-34.51
194.966	-69.19
195.187	-67.78
195.407	-70.07
195.628	-164.48
195.848	-146.89
196.069	-121.09
196.29	-93.77
196.51	-96.83
196.731	-51.45
196.951	-45.74
197.172	-87.71
197.392	-111.51
197.613	-105.48
197.833	-149.69
198.054	-154.8
198.274	-81.44
198.495	-98.41
198.715	-86.37
198.936	-103.72
199.156	-85.99
199.377	-200.7
199.597	-166.69
199.817	-136.77
200.038	-51.66
200.258	-73.18
200.479	16.02
200.699	68.29
200.919	54.83
201.14	5.14
201.36	-16.63
201.58	13.52
201.801	35.65
202.021	-0.03
202.241	1.37
202.461	10.19
202.682	-60.41
202.902	-167.22
203.122	-87.29
203.342	-63.78
203.563	-44.86
203.783	-8.87
204.003	-35.13
204.223	-32.36
204.443	23.13
204.663	4.18
204.884	-3.1
205.104	39.43
205.324	62.16
205.544	63.62
205.764	76.07
205.984	69.21
206.204	63.98
206.424	45.45
206.644	-8.88
206.864	-2.95
207.084	-68.62
207.304	-27.63
207.525	-164.22
207.745	-82.83
207.964	-17.12
208.184	-42.15
208.404	-116.49
208.624	-104.64
208.844	-89.64
209.064	-430.76
209.284	-424.48
209.504	-202.72
209.724	-59.53
209.944	-44.92
210.164	-16.57
210.384	5.54
210.604	-1.33
210.823	-34.02
211.043	-38.05
211.263	-26.68
211.483	-34.14
211.703	-79.08
211.922	-52.84
212.142	18.81
212.362	41.26
212.582	25.8
212.801	30.75
213.021	0.18
213.241	-37.14
213.461	-66.02
213.68	-77.33
213.9	-37.51
214.12	-29.12
214.339	-72.95
214.559	-48.57
214.779	2.63
214.998	-6.77
215.218	-30.05
215.438	-8.57
215.657	-17.79
215.877	-41.99
216.096	-24.72
216.316	-14.95
216.535	-32.15
216.755	-26.88
216.974	-125.47
217.194	-169.58
217.413	-134.99
217.633	-147.42
217.852	-255.18
218.072	-89.42
218.291	-44.16
218.511	-8.11
218.73	-31.27
218.95	-13.87
219.169	-21.09
219.389	-63.01
219.608	-61.13
219.827	-39.37
220.047	-50.95
220.266	-42.2
220.485	-25.1
220.705	-22.37
220.924	-36.23
221.143	19.48
221.363	-12.72
221.582	-10.07
221.801	-5.47
222.021	4.14
222.24	-76.33
222.459	2.5
222.678	2.58
222.897	-33.31
223.117	-31.26
223.336	-56.57
223.555	-15.13
223.774	29.87
223.993	35.7
224.213	87.95
224.432	85.49
224.651	83.7
224.87	42.43
225.089	43.98
225.308	32.39
225.527	44.28
225.746	41.14
225.965	29.1
226.184	11.49
226.404	22.15
226.623	-11.7
226.842	-16.08
227.061	13.69
227.28	25.08
227.499	2.57
227.718	19.31
227.936	17.74
228.155	26.95
228.374	1.49
228.593	9.11
228.812	4.76
229.031	-17.58
229.25	-84.3
229.469	-69.92
229.688	-55.66
229.907	-15.8
230.125	12.87
230.344	42.62
230.563	43.02
230.782	40.29
231.001	-50.22
231.22	-52.53
231.438	-24.94
231.657	-4.36
231.876	-22.43
232.095	33.44
232.313	40.64
232.532	19.02
232.751	-19.27
232.969	-31.03
233.188	-88.73
233.407	-34.94
233.625	-28.34
233.844	-67.12
234.063	-32.45
234.281	-7.87
234.5	-12.14
234.719	-4.76
234.937	30.04
235.156	23.92
235.374	26.39
235.593	2.22
235.811	-9.93
236.03	-48.2
236.249	-89.5
236.467	-81.29
236.686	-29.96
236.904	-12.21
237.123	-26.06
237.341	-27.12
237.559	-22.86
237.778	-42.99
237.996	-66.1
238.215	-23.14
238.433	1.92
238.652	-5.88
238.87	-23.24
239.088	-4.74
239.307	-15.12
239.525	-21.76
239.743	-49.75
239.962	-22.54
240.18	-53.61
240.398	-70.26
240.617	-81.56
240.835	-36.53
241.053	-31.79
241.271	10.2
241.49	13.67
241.708	-34.56
241.926	-101.73
242.144	-100.75
242.363	-159.8
242.581	-185.1
242.799	-99.05
243.017	-35.53
243.235	-39.7
243.453	-18.48
243.672	-16.74
243.89	-15.73
244.108	-43.24
244.326	-13.26
244.544	-13.37
244.762	-10.04
244.98	-1.1
245.198	26.54
245.416	-29.72
245.634	-15.05
245.852	-40.84
246.07	-63.51
246.288	-84.23
246.506	-75.44
246.724	-49.47
246.942	-36.4
247.16	2.39
247.378	26.87
247.596	57.3
247.814	40.3
248.032	28.62
248.25	5.82
248.468	-2.26
248.685	-9.44
248.903	20.18
249.121	11.93
249.339	-13.55
249.557	-22.36
249.775	-11.38
249.992	-88.44
250.21	-71.7
250.428	-44.61
250.646	-67.64
250.863	-86.78
251.081	-56.34
251.299	-37.15
251.517	-37.44
251.734	-34.85
251.952	-48.9
252.17	-23.87
252.387	-23.48
252.605	-23.43
252.823	-7.89
253.04	23.04
253.258	35.92
253.475	33.32
253.693	54.05
253.911	53.64
254.128	58.83
254.346	45.85
254.563	34.67
254.781	-0.45
254.998	-24.76
255.216	-40.66
255.433	-16.4
255.651	31.55
255.868	54.16
256.086	75.6
256.303	40.91
256.521	19.44
256.738	-7.78
256.956	-34.2
257.173	-76.04
257.39	-73.15
257.608	-101.94
257.825	-49.85
258.043	-15.16
258.26	8.01
258.477	46.24
258.695	41.71
258.912	-9.95
259.129	-8.1
259.346	-43.71
259.564	-90.6
259.781	-124.95
259.998	-37.81
260.216	-9.22
260.433	29.33
260.65	34.98
260.867	68.43
261.084	30.98
261.302	5.11
261.519	-12.49
261.736	-47
261.953	-72.25
262.17	-16.5
262.387	-52.36
262.604	-83.06
262.822	-86.68
263.039	-62.98
263.256	-141.08
263.473	-80.01
263.69	-58.01
263.907	-3.11
264.124	4.06
264.341	22.94
264.558	19.62
264.775	43.86
264.992	22.34
265.209	24.48
265.426	31.89
265.643	24.43
265.86	22.66
266.077	42.03
266.294	30.61
266.51	-9.17
266.727	-26.87
266.944	-13.86
267.161	-32.49
267.378	-45.21
267.595	-2.44
267.812	-23.42
268.028	-46.73
268.245	-30.56
268.462	-48.53
268.679	-64.4
268.896	-2.1
269.112	2.39
269.329	-6.52
269.546	12.05
269.763	-0.96
269.979	-11.53
270.196	-4.8
270.413	-39.82
270.629	-71.39
270.846	-72.01
271.063	-63.19
271.279	-95.15
271.496	-63.97
271.712	-16.17
271.929	11.98
272.146	-14.69
272.362	5.14
272.579	27.66
272.795	24.36
273.012	6.25
273.228	3.58
273.445	-31.59
273.661	-66.68
273.878	-109.54
274.094	-103.16
274.311	-133.91
274.527	-43.61
274.744	-31.23
274.96	-22.51
275.177	3.77
275.393	26.33
275.609	26.43
275.826	29.99
276.042	16.59
276.259	2.52
276.475	19.47
276.691	26.1
276.908	8.26
277.124	30.28
277.34	34.95
277.557	13.69
277.773	-22.95
277.989	-14.88
278.205	-21.26
278.422	-10.93
278.638	0.12
278.854	32.35
279.07	33.32
279.286	19.52
279.503	-22.83
279.719	-34.84
279.935	-83.03
280.151	-104.04
280.367	-52.37
280.583	-68.43
280.799	-52.75
281.016	-61.75
281.232	-24.09
281.448	-28.72
281.664	3.93
281.88	-45.33
282.096	-19.68
282.312	4.48
282.528	14.5
282.744	14.4
282.96	35.33
283.176	22.26
283.392	1.86
283.608	-17.91
283.824	-19.81
284.04	-8.74
284.256	9.86
284.471	3.79
284.687	6.07
284.903	33.51
285.119	48.94
285.335	9.47
285.551	22
285.767	-4.78
285.982	-29.61
286.198	-72.36
286.414	-5.69
286.63	-1.19
286.846	37.88
287.061	13.49
287.277	34.07
287.493	5.32
287.709	25.76
287.924	3.15
288.14	50.25
288.356	42.68
288.571	52.03
288.787	19.05
289.003	16.63
289.218	-2.84
289.434	-37.25
289.65	-27.35
289.865	-28.57
290.081	-0.73
290.296	3.4
290.512	27.17
290.727	-13.88
290.943	-18.35
291.159	-34.53
291.374	-49.35
291.59	-63.99
291.805	-35.39
292.021	-33.48
292.236	-32.87
292.451	4.02
292.667	21.23
292.882	30.4
293.098	37.89
293.313	18.3
293.529	-23.37
293.744	-65.82
293.959	-73.85
294.175	-55.9
294.39	-7.57
294.605	12.08
294.821	37.2
295.036	41.07
295.251	37.09
295.467	0.42
295.682	-26.21
295.897	-81.22
296.112	-93.06
296.328	-87.83
296.543	-87.25
296.758	-74.8
296.973	15.02
297.188	46.17
297.404	20.82
297.619	17.82
297.834	10.63
298.049	-46.83
298.264	-81.28
298.479	-13.72
298.694	-10.4
298.909	10.4
299.125	19.94
299.34	35.56
299.555	8.73
299.77	29.39
299.985	-20.72
300.2	-78.35
300.415	-100.49
300.63	-41.46
300.845	-56.78
301.06	-48.31
301.275	-14.4
301.49	-2.05
301.704	-37.32
301.919	-39.67
302.134	-34.79
302.349	-36.75
302.564	-92.78
302.779	-88.81
302.994	-64.97
303.209	-40.33
303.423	-3.51
303.638	52.89
303.853	25.42
304.068	22.58
304.283	13.37
304.497	4.78
304.712	-10.03
304.927	-0.17
305.142	-10.89
305.356	7.41
305.571	4.67
305.786	-16.15
306	-32.61
306.215	-41.09
306.43	-78.55
306.644	-76.46
306.859	-13.56
307.074	-4.98
307.288	-15.47
307.503	-25.57
307.717	-29.65
307.932	-37.29
308.147	-40.86
308.361	-21.34
308.576	-25.45
308.79	-66.54
309.005	-48.2
309.219	-29.68
309.434	-35.66
309.648	-34.43
309.863	-2.07
310.077	-9.54
310.292	-24.73
310.506	-26.81
310.72	-8.09
310.935	3.67
311.149	4.49
311.364	30.44
311.578	43.83
311.792	36.82
312.007	31.94
312.221	15.52
312.435	20.62
312.649	5.55
312.864	-11.37
313.078	6.51
313.292	56.32
313.507	3.49
313.721	3.19
313.935	46.08
314.149	24.5
314.363	5.15
314.578	8.44
314.792	9.84
315.006	-3.05
315.22	18.13
315.434	31.53
315.648	40.33
315.862	47.39
316.077	44.89
316.291	23.66
316.505	17.89
316.719	-27.68
316.933	-50.51
317.147	-32.68
317.361	-92.01
317.575	-105.31
317.789	-106.31
318.003	-173.95
318.217	-135.3
318.431	-35.84
318.645	11.02
318.859	12.65
319.073	45.84
319.287	33.23
319.5	8.04
319.714	-29.37
319.928	-44.26
320.142	-73.14
320.356	-20.6
320.57	29.85
320.784	16.74
320.997	-8.91
321.211	-1.88
321.425	-85.8
321.639	-119.05
321.853	-48.29
322.066	-29.94
322.28	-27.09
322.494	-2.2
322.707	13.94
322.921	-11.73
323.135	-4.75
323.349	6.39
323.562	-20.95
323.776	-36.92
323.989	-28.1
324.203	-52.15
324.417	-64.99
324.63	-71.69
324.844	-66.28
325.057	-87.75
325.271	-45.02
325.485	-9.63
325.698	27.14
325.912	31.9
326.125	28.01
326.339	20.86
326.552	1.16
326.766	-17.04
326.979	-0.23
327.193	40.12
327.406	26.8
327.619	20.8
327.833	39.62
328.046	18.04
328.26	-20.92
328.473	9.23
328.686	-13.84
328.9	-27.6
329.113	-9.24
329.326	-35.8
329.54	-39.66
329.753	-48.25
329.966	-81.29
330.179	-71.58
330.393	-17.59
330.606	-17.51
330.819	12.66
331.032	33.53
331.246	39.46
331.459	60.55
331.672	47.56
331.885	33.1
332.098	7.12
332.311	-15.44
332.525	-95.76
332.738	-85.85
332.951	-46.48
333.164	-17.93
333.377	2.51
333.59	37.01
333.803	47.38
334.016	40.38
334.229	53.47
334.442	51.85
334.655	63.47
334.868	57.29
335.081	39.73
335.294	9.41
335.507	-9.8
335.72	-22.58
335.933	-32.3
336.146	-26.85
336.359	-5.64
336.572	-17.32
336.785	-31.02
336.997	-15.46
337.21	0.71
337.423	-15.19
337.636	-13.22
337.849	1.81
338.062	-10.23
338.274	-7.21
338.487	-18.8
338.7	-15.74
338.913	-52.65
339.125	-68.84
339.338	-150.63
339.551	-108.91
339.763	-65.1
339.976	-47.83
340.189	-30.79
340.402	0.73
340.614	-11.78
340.827	-24.64
341.039	-42.05
341.252	-38.82
341.465	-24.49
341.677	-31.94
341.89	-73.88
342.102	-33.73
342.315	-36.32
342.527	-65.18
342.74	-53.54
342.952	-5.45
343.165	-11.52
343.377	-2.35
343.59	-5.55
343.802	17.27
344.015	4.43
344.227	18.7
344.44	23.38
344.652	21.07
344.864	-4.93
345.077	23.29
345.289	19.77
345.502	19.27
345.714	14.18
345.926	27.33
346.139	15.34
346.351	20.6
346.563	24.83
346.775	32.43
346.988	14.92
347.2	-11.56
347.412	-62.2
347.624	-80.25
347.837	-105.3
348.049	-74.68
348.261	-27.31
348.473	-16.99
348.685	-22.4
348.897	-34.43
349.11	-52.46
349.322	-65.76
349.534	-36.76
349.746	-22.81
349.958	-6.71
350.17	-2.32
350.382	1.88
350.594	-2.11
350.806	-2.32
351.018	-6.53
351.23	-19.2
351.442	-75.59
351.654	-89.91
351.866	-79.4
352.078	-64.14
352.29	-21.63
352.502	3.7
352.714	12.79
352.926	-3.56
353.138	-3.13
353.35	-18.64
353.561	-23.68
353.773	-42.69
353.985	-21.75
354.197	-24.52
354.409	-29.55
354.621	-24.53
354.832	-18.87
355.044	-37.56
355.256	-27.21
355.468	-12.79
355.679	-17.73
355.891	-9
356.103	-28.23
356.314	-31.66
356.526	-30.48
356.738	-16.47
356.949	-31.02
357.161	-3.58
357.373	-4.22
357.584	-26.64
357.796	-23.38
358.008	-8.26
358.219	8.63
358.431	4.83
358.642	25.16
358.854	22.8
359.065	1.24
359.277	-31.22
359.488	-45.28
359.7	-70.31
359.911	-98.4
360.123	-63.2
360.334	-66.57
360.546	-84.3
360.757	-79.4
360.969	-44.38
361.18	-47.84
361.391	-12.95
361.603	-11.89
361.814	-9.76
362.025	-17.19
362.237	-17.93
362.448	-13.03
362.659	12.77
362.871	16.86
363.082	17.65
363.293	8.88
363.504	-16.41
363.716	-40.15
363.927	-53.96
364.138	-69.22
364.349	-57.23
364.56	-52.44
364.772	-42.13
364.983	-15.23
365.194	-6.81
365.405	-1.93
365.616	21.97
365.827	12.09
366.038	-16.31
366.25	-26.55
366.461	-60.28
366.672	-32.81
366.883	1.77
367.094	5.94
367.305	-0.5
367.516	10.05
367.727	-19.32
367.938	-46.05
368.149	-40.25
368.36	-22.01
368.571	-14.31
368.781	-30.75
368.992	-35.96
369.203	-49.75
369.414	-78.71
369.625	-92.56
369.836	-69.42
370.047	-85.13
370.258	-78.71
370.468	-73.87
370.679	-89.42
370.89	-81.79
371.101	-49.7
371.312	-38.94
371.522	-23.68
371.733	-9.07
371.944	0.92
372.155	-4.02
372.365	-20.73
372.576	-33.94
372.787	-32.29
372.997	-71.16
373.208	-72.52
373.419	-33.42
373.629	-55.81
373.84	-74.1
374.05	-75.16
374.261	-50.73
374.472	-72.86
374.682	-16.83
374.893	-12.78
375.103	16.38
375.314	9.52
375.524	8.39
375.735	3.88
375.945	21.66
376.156	5.82
376.366	6.28
376.577	8.32
376.787	-4.55
376.997	-2.92
377.208	-12.26
377.418	-32.99
377.629	-15.98
377.839	-10.15
378.049	-14.31
378.26	10.51
378.47	19.09
378.68	-1.34
378.89	-7.6
379.101	-15.67
379.311	-53.19
379.521	-72.12
379.732	-74.83
379.942	-59.4
380.152	-69.18
380.362	-43.06
380.572	-40.14
380.783	-19.26
380.993	-5.44
381.203	2.96
381.413	10.87
381.623	17.04
381.833	10.38
382.043	-14.85
382.253	-18.27
382.463	-19.23
382.674	-33.36
382.884	-56.12
383.094	-44.95
383.304	-37.82
383.514	-26.68
383.724	-9.36
383.934	-6.98
384.144	-10.46
384.353	-18.4
384.563	-16.94
384.773	-14.42
384.983	-21.57
385.193	-12.28
385.403	-5.08
385.613	-13.75
385.823	-26.89
386.033	-15.67
386.242	-23.61
386.452	-22.83
386.662	-27.07
386.872	-11.55
387.082	-13.67
387.291	-14.06
387.501	-18.78
387.711	-9.08
387.921	-15.94
388.13	-14.92
388.34	-5.38
388.55	-10.58
388.759	-13.49
388.969	-7.7
389.179	-8.82
389.388	-10.38
389.598	-3.98
389.807	-11.04
390.017	-17.08
390.227	-15.22
390.436	-18.54
390.646	-18.94
390.855	-9.92
391.065	-8.67
391.274	-8.8
391.484	-8.61
391.693	-4.84
391.903	-6.44
392.112	-1.88
392.322	-0.41
392.531	3.1
392.74	2.58
392.95	-1.57
393.159	-4.41
393.369	-4.09
393.578	-4.93
393.787	-6.72
393.997	-3.99
394.206	-4.99
394.415	-4.84
394.625	-5.2
394.834	-6.78
395.043	-6.25
395.252	-3.32
395.462	-1.22
395.671	-0.29
395.88	1.21
396.089	1.46
396.298	-1.28
396.508	-2.64
396.717	-2.63
396.926	-2.54
397.135	-2.59
397.344	-1.84
397.553	-1.01
397.762	0.66
397.971	0.95
398.181	1.24
398.39	0.93
398.599	1.04
398.808	0.02
399.017	0.92
399.226	2.04
399.435	3.39
399.644	2.99
399.853	2.32
400.062	1.73
400.27	0.75
400.479	-0.56
400.688	-0.92
400.897	-0.42
401.106	-0.39
401.315	-0.19
401.524	0.4
401.733	0.88
401.941	1.11
402.15	1.27
402.359	0.96
402.568	1.21
402.777	1.37
402.985	0.98
403.194	0.95
403.403	1.09
403.612	0.58
403.82	0.37
404.029	0.78
404.238	0.53
404.446	0.73
404.655	0.84
404.864	0.74
405.072	0.35
405.281	0.73
405.489	0.58
405.698	0.52
405.906	0.6
406.115	0.71
406.324	0.47
406.532	0.56
406.741	0.97
406.949	0.86
407.158	0.83
407.366	0.89
407.574	0.82
407.783	0.58
407.991	0.54
408.2	0.75
408.408	0.72
408.617	0.69
408.825	0.57
409.033	0.78
409.242	0.75
409.45	0.78
409.658	0.74
409.867	0.91
410.075	0.66
410.283	0.48
410.491	0.45
410.7	0.46
410.908	0.5
411.116	0.93
411.324	1.04
411.533	1.05
411.741	1.34
411.949	1.27
412.157	0.83
412.365	0.81
412.573	0.75
412.781	0.62
412.99	0.57
413.198	0.84
413.406	0.8
413.614	0.94
413.822	0.82
414.03	0.79
414.238	0.54
414.446	0.67
414.654	0.35
414.862	0.45
415.07	0.5
415.278	0.79
415.486	0.59
415.694	0.8
415.902	0.6
416.109	0.51
416.317	0.54
416.525	0.43
416.733	0.37
416.941	0.61
417.149	0.6
417.357	0.49
417.564	0.77
417.772	1.13
417.98	0.98
418.188	1.01
418.395	1.04
418.603	1.03
418.811	0.53
419.019	0.53
419.226	0.82
419.434	0.86
419.642	0.62
419.849	0.95
420.057	1.01
420.265	0.84
420.472	0.65
420.68	0.78
420.887	0.55
421.095	0.46
421.302	0.46
421.51	0.68
421.717	0.8
421.925	0.98
422.132	0.99
422.34	0.77
422.547	0.73
422.755	0.73
422.962	0.68
423.17	0.45
423.377	0.65
423.585	0.58
423.792	0.43
423.999	0.45
424.207	0.68
424.414	0.79
424.621	0.94
424.829	0.95
425.036	0.85
425.243	1.02
425.451	0.76
425.658	0.44
425.865	0.73
426.072	0.77
426.28	0.87
426.487	0.93
426.694	1.18
426.901	0.72
427.108	0.77
427.315	0.48
427.523	0.78
427.73	0.75
427.937	0.76
428.144	0.69
428.351	0.65
428.558	0.71
428.765	0.63
428.972	0.67
429.179	0.78
429.386	1.11
429.593	0.76
429.8	0.56
430.007	0.65
430.214	0.69
430.421	0.48
430.628	0.32
430.835	0.31
431.042	0.58
431.249	0.46
431.456	0.47
431.662	0.6
431.869	0.84
432.076	0.76
432.283	0.91
432.49	0.81
432.697	0.91
432.903	0.7
433.11	0.67
433.317	0.65
433.524	0.92
433.73	0.78
433.937	0.98
434.144	0.83
434.35	0.83
434.557	0.66
434.764	0.75
434.97	0.71
435.177	0.82
435.384	0.62
435.59	0.67
435.797	0.84
436.003	0.82
436.21	0.8
436.416	1.05
436.623	1.01
436.829	1.01
437.036	1.1
437.242	1.06
437.449	0.9
437.655	0.91
437.862	0.82
438.068	0.73
438.275	0.86
438.481	1.08
438.687	1.03
438.894	1
439.1	0.98
439.307	1.09
439.513	0.99
439.719	1.07
439.926	1.14
440.132	1.1
440.338	0.96
440.544	1.07
440.751	0.95
440.957	0.99
441.163	0.94
441.369	0.92
441.575	0.65
441.782	0.65
441.988	0.55
442.194	0.57
442.4	0.57
442.606	0.89
442.812	1.01
443.018	1.08
443.224	1.14
443.431	1.19
443.637	0.91
443.843	0.76
444.049	0.75
444.255	0.7
444.461	0.75
444.667	0.73
444.873	0.92
445.079	0.93
445.284	1.07
445.49	0.86
445.696	0.77
445.902	0.65
446.108	0.55
446.314	0.43
446.52	0.5
446.726	0.78
446.931	0.78
447.137	0.8
447.343	0.86
447.549	0.78
447.755	0.61
447.96	0.65
448.166	0.6
448.372	0.5
448.578	0.59
448.783	0.59
448.989	0.64
449.195	0.9
449.4	0.99
449.606	0.95
449.812	0.95
450.017	1.01
450.223	0.81
450.428	0.72
450.634	0.94
450.84	1.08
451.045	0.95
451.251	0.9
451.456	1.21
451.662	1.15
451.867	1.13
452.073	1.14
452.278	1.28
452.483	1.31
452.689	1.18
452.894	1.17
453.1	1.18
453.305	1.07
453.51	0.89
453.716	0.87
453.921	0.93
454.127	0.83
454.332	0.78
454.537	0.67
454.742	0.74
454.948	0.57
455.153	0.65
455.358	0.8
455.563	1
455.769	1.05
455.974	1.13
456.179	1.07
456.384	1.04
456.589	0.99
456.795	0.86
457	0.81
457.205	1.12
457.41	1.09
457.615	1.04
457.82	1.06
458.025	1.09
458.23	0.78
458.435	0.79
458.64	0.69
458.845	0.86
459.05	0.88
459.255	0.96
459.46	0.93
459.665	0.99
459.87	0.92
460.075	0.88
460.28	0.89
460.485	0.96
460.69	0.98
460.895	0.75
461.099	0.73
461.304	0.84
461.509	0.86
461.714	0.8
461.919	1.08
462.123	1.01
462.328	1.02
462.533	0.84
462.738	0.95
462.942	0.84
463.147	0.95
463.352	0.91
463.556	1.08
463.761	1.13
463.966	1.13
464.17	1.09
464.375	0.99
464.58	0.89
464.784	0.76
464.989	0.73
465.193	0.76
465.398	0.81
465.602	0.96
465.807	0.97
466.011	1.04
466.216	1.15
466.42	1.14
466.625	1.14
466.829	1.23
467.034	1.31
467.238	1.4
467.443	1.4
467.647	1.25
467.851	1.26
468.056	1.28
468.26	1.13
468.464	1.12
468.669	1.29
468.873	1.38
469.077	1.31
469.282	1.35
469.486	1.47
469.69	1.48
469.894	1.34
470.099	1.36
470.303	1.49
470.507	1.34
470.711	1.19
470.915	1.18
471.119	1.11
471.324	0.95
471.528	0.97
471.732	1.06
471.936	1.09
472.14	1.18
472.344	1.24
472.548	1.26
472.752	1.43
472.956	1.7
473.16	1.62
473.364	1.52
473.568	1.54
473.772	1.47
473.976	1.18
474.18	1.2
474.384	1.26
474.588	1.21
474.792	1.14
474.995	1.25
475.199	1.38
475.403	1.42
475.607	1.48
475.811	1.41
476.015	1.41
476.218	1.41
476.422	1.32
476.626	1.33
476.83	1.46
477.033	1.4
477.237	1.25
477.441	1.37
477.644	1.31
477.848	1.24
478.052	1.18
478.255	1.23
478.459	1.23
478.663	1.36
478.866	1.41
479.07	1.5
479.273	1.66
479.477	1.69
479.681	1.67
479.884	1.67
480.088	1.59
480.291	1.47
480.495	1.46
480.698	1.43
480.901	1.49
481.105	1.62
481.308	1.59
481.512	1.54
481.715	1.63
481.919	1.59
482.122	1.58
482.325	1.62
482.529	1.69
482.732	1.63
482.935	1.58
483.138	1.5
483.342	1.55
483.545	1.56
483.748	1.6
483.952	1.68
484.155	1.78
484.358	1.81
484.561	1.8
484.764	1.78
484.967	1.83
485.171	1.92
485.374	1.81
485.577	1.9
485.78	1.91
485.983	1.89
486.186	1.69
486.389	1.71
486.592	1.66
486.795	1.66
486.998	1.63
487.201	1.76
487.404	1.86
487.607	1.94
487.81	1.96
488.013	2.03
488.216	2.02
488.419	1.97
488.622	1.87
488.825	1.81
489.028	1.77
489.231	1.71
489.433	1.66
489.636	1.57
489.839	1.54
490.042	1.4
490.245	1.36
490.447	1.41
490.65	1.48
490.853	1.52
491.056	1.64
491.258	1.68
491.461	1.69
491.664	1.76
491.866	1.73
492.069	1.79
492.272	1.77
492.474	1.8
492.677	1.79
492.879	1.84
493.082	1.86
493.285	2.01
493.487	1.99
493.69	1.9
493.892	1.84
494.095	1.75
494.297	1.65
494.5	1.66
494.702	1.72
494.905	1.79
495.107	1.82
495.309	1.79
495.512	1.85
495.714	1.89
495.917	1.93
496.119	1.89
496.321	2.03
496.524	2.06
496.726	2.05
496.928	2.04
497.13	2.05
497.333	1.99
497.535	1.99
497.737	1.94
497.939	1.92
498.142	1.96
498.344	1.9
498.546	1.82
498.748	1.88
498.95	2.01
499.152	2.04
499.355	2.1
499.557	2.17
499.759	2.27
499.961	2.14
500.163	2.2
500.365	2.22
500.567	2.27
500.769	2.12
500.971	2.18
501.173	2.03
501.375	2.06
501.577	1.97
501.779	2
501.981	1.97
502.183	2.08
502.385	2.05
502.587	1.99
502.788	2.05
502.99	2.1
503.192	2.11
503.394	2.11
503.596	2.22
503.798	2.32
503.999	2.34
504.201	2.32
504.403	2.35
504.605	2.33
504.806	2.23
505.008	2.19
505.21	2.22
505.411	2.17
505.613	2.18
505.815	2.21
506.016	2.3
506.218	2.39
506.42	2.41
506.621	2.41
506.823	2.41
507.024	2.3
507.226	2.19
507.427	2.18
507.629	2.22
507.83	2.27
508.032	2.29
508.233	2.42
508.435	2.5
508.636	2.55
508.838	2.45
509.039	2.5
509.24	2.5
509.442	2.48
509.643	2.41
509.845	2.48
510.046	2.56
510.247	2.61
510.448	2.66
510.65	2.73
510.851	2.84
511.052	2.79
511.254	2.75
511.455	2.81
511.656	2.8
511.857	2.85
512.058	2.85
512.26	2.82
512.461	2.74
512.662	2.82
512.863	2.7
513.064	2.68
513.265	2.7
513.466	2.77
513.667	2.73
513.868	2.75
514.069	2.82
514.27	2.88
514.471	2.78
514.672	2.77
514.873	2.72
515.074	2.76
515.275	2.67
515.476	2.74
515.677	2.76
515.878	2.95
516.079	2.87
516.28	2.95
516.481	3.04
516.682	3.06
516.882	2.93
517.083	2.95
517.284	2.87
517.485	2.79
517.686	2.79
517.886	2.82
518.087	2.87
518.288	2.92
518.488	2.91
518.689	2.9
518.89	2.86
519.091	2.86
519.291	2.82
519.492	2.87
519.692	2.92
519.893	3.03
520.094	3.04
520.294	3.06
520.495	3.03
520.695	3.04
520.896	2.99
521.096	2.99
521.297	3.06
521.497	3.08
521.698	3.02
521.898	2.99
522.099	3.01
522.299	3.09
522.499	3.1
522.7	3.19
522.9	3.24
523.101	3.3
523.301	3.27
523.501	3.24
523.702	3.24
523.902	3.31
524.102	3.3
524.302	3.27
524.503	3.36
524.703	3.38
524.903	3.35
525.103	3.3
525.304	3.42
525.504	3.48
525.704	3.54
525.904	3.49
526.104	3.48
526.304	3.42
526.504	3.42
526.705	3.4
526.905	3.53
527.105	3.58
527.305	3.59
527.505	3.47
527.705	3.46
527.905	3.38
528.105	3.38
528.305	3.36
528.505	3.47
528.705	3.53
528.905	3.52
529.105	3.56
529.304	3.63
529.504	3.71
529.704	3.65
529.904	3.68
530.104	3.64
530.304	3.72
530.503	3.61
530.703	3.55
530.903	3.54
531.103	3.6
531.303	3.48
531.502	3.54
531.702	3.72
531.902	3.76
532.101	3.73
532.301	3.79
532.501	3.76
532.7	3.67
532.9	3.67
533.1	3.73
533.299	3.73
533.499	3.76
533.698	3.75
533.898	3.78
534.097	3.78
534.297	3.88
534.496	3.88
534.696	3.95
534.895	4.03
535.095	4.13
535.294	4.03
535.494	4.03
535.693	4.04
535.892	4.04
536.092	3.97
536.291	4
536.491	4.08
536.69	4.08
536.889	4.01
537.088	3.98
537.288	4.04
537.487	4
537.686	3.98
537.886	4.08
538.085	4.17
538.284	4.24
538.483	4.25
538.682	4.36
538.882	4.38
539.081	4.41
539.28	4.32
539.479	4.32
539.678	4.28
539.877	4.38
540.076	4.36
540.275	4.38
540.474	4.52
540.673	4.57
540.872	4.48
541.071	4.58
541.27	4.65
541.469	4.68
541.668	4.72
541.867	4.77
542.066	4.77
542.265	4.8
542.464	4.73
542.663	4.74
542.862	4.87
543.06	4.88
543.259	4.92
543.458	5.02
543.657	5.09
543.856	5.06
544.054	5.04
544.253	5.02
544.452	4.98
544.651	5.04
544.849	5.02
545.048	5.12
545.247	5.16
545.445	5.23
545.644	5.22
545.843	5.23
546.041	5.25
546.24	5.37
546.438	5.46
546.637	5.47
546.836	5.64
547.034	5.72
547.233	5.74
547.431	5.67
547.63	5.73
547.828	5.72
548.027	5.71
548.225	5.66
548.423	5.74
548.622	5.83
548.82	5.75
549.019	5.85
549.217	6
549.415	5.98
549.614	6.05
549.812	6.14
550.01	6.12
550.209	6.18
550.407	6.28
550.605	6.25
550.803	6.34
551.002	6.41
551.2	6.43
551.398	6.52
551.596	6.67
551.794	6.76
551.993	6.82
552.191	6.87
552.389	6.98
552.587	6.99
552.785	7.03
552.983	7.12
553.181	7.21
553.379	7.25
553.577	7.33
553.775	7.43
553.973	7.46
554.171	7.51
554.369	7.48
554.567	7.48
554.765	7.52
554.963	7.65
555.161	7.65
555.359	7.78
555.557	7.92
555.755	8.02
555.952	8.16
556.15	8.18
556.348	8.26
556.546	8.32
556.744	8.31
556.941	8.27
557.139	8.47
557.337	8.56
557.535	8.58
557.732	8.73
557.93	8.88
558.128	8.88
558.325	8.94
558.523	9.03
558.721	9.14
558.918	9.23
559.116	9.34
559.313	9.39
559.511	9.54
559.708	9.51
559.906	9.53
560.104	9.61
560.301	9.73
560.498	9.78
560.696	9.87
560.893	10.01
561.091	10.12
561.288	10.2
561.486	10.24
561.683	10.32
561.88	10.41
562.078	10.41
562.275	10.42
562.473	10.56
562.67	10.72
562.867	10.78
563.064	10.89
563.262	10.98
563.459	11.04
563.656	11.17
563.853	11.22
564.051	11.36
564.248	11.55
564.445	11.68
564.642	11.68
564.839	11.82
565.036	12.03
565.234	12.22
565.431	12.21
565.628	12.28
565.825	12.39
566.022	12.42
566.219	12.44
566.416	12.62
566.613	12.76
566.81	12.88
567.007	12.86
567.204	12.79
567.401	12.84
567.598	12.84
567.795	12.8
567.991	12.88
568.188	13.08
568.385	13.18
568.582	13.35
568.779	13.48
568.976	13.58
569.172	13.67
569.369	13.62
569.566	13.66
569.763	13.79
569.96	13.83
570.156	13.8
570.353	13.91
570.55	13.93
570.746	13.9
570.943	13.99
571.14	13.99
571.336	14.11
571.533	14.21
571.729	14.19
571.926	14.19
572.123	14.31
572.319	14.29
572.516	14.27
572.712	14.36
572.909	14.43
573.105	14.49
573.302	14.52
573.498	14.61
573.695	14.63
573.891	14.71
574.087	14.71
574.284	14.78
574.48	14.76
574.677	14.79
574.873	14.74
575.069	14.77
575.266	14.79
575.462	14.74
575.658	14.89
575.854	14.96
576.051	15.01
576.247	15.03
576.443	15.17
576.639	15.09
576.835	15.04
577.032	14.99
577.228	15.04
577.424	15.02
577.62	14.96
577.816	15.08
578.012	15.15
578.208	15.14
578.404	15.17
578.6	15.25
578.796	15.16
578.993	15.22
579.189	15.19
579.384	15.07
579.58	14.94
579.776	14.96
579.972	14.8
580.168	14.78
580.364	14.86
580.56	14.98
580.756	14.96
580.952	15.02
581.148	15.1
581.343	15.08
581.539	15.12
581.735	15.18
581.931	15.26
582.127	15.24
582.322	15.19
582.518	15.2
582.714	15.22
582.909	15.12
583.105	15.09
583.301	15.13
583.496	15.09
583.692	14.97
583.888	14.98
584.083	15.02
584.279	15.02
584.474	14.96
584.67	15.06
584.866	15.09
585.061	14.92
585.257	15
585.452	15.04
585.648	14.97
585.843	14.97
586.039	15.07
586.234	14.95
586.429	14.91
586.625	15
586.82	14.95
587.015	14.95
587.211	14.88
587.406	14.9
587.601	14.9
587.797	14.97
587.992	14.92
588.187	15.1
588.383	15.11
588.578	15.07
588.773	15.11
588.968	15.18
589.163	15.17
589.359	15.18
589.554	15.19
589.749	15.12
589.944	15.21
590.139	15.28
590.334	15.32
590.529	15.34
590.724	15.42
590.919	15.48
591.114	15.49
591.309	15.59
591.504	15.77
591.699	15.74
591.894	15.74
592.089	15.76
592.284	15.77
592.479	15.84
592.674	15.91
592.869	16.01
593.064	16.13
593.259	16.22
593.454	16.24
593.648	16.28
593.843	16.29
594.038	16.28
594.233	16.26
594.428	16.17
594.622	16.25
594.817	16.41
595.012	16.46
595.206	16.49
595.401	16.66
595.596	16.72
595.79	16.68
595.985	16.85
596.18	16.96
596.374	17.08
596.569	17.22
596.763	17.3
596.958	17.32
597.153	17.36
597.347	17.33
597.542	17.39
597.736	17.35
597.931	17.36
598.125	17.45
598.319	17.62
598.514	17.58
598.708	17.72
598.903	17.77
599.097	17.83
599.291	17.82
599.486	17.85
599.68	17.89
599.874	17.98
600.069	18.04
600.263	18.02
600.457	18.16
600.651	18.18
600.846	18.22
601.04	18.3
601.234	18.38
601.428	18.51
601.622	18.61
601.817	18.62
602.011	18.64
602.205	18.71
602.399	18.6
602.593	18.62
602.787	18.66
602.981	18.62
603.175	18.63
603.369	18.64
603.563	18.66
603.757	18.7
603.951	18.77
604.145	18.74
604.339	18.79
604.533	18.74
604.727	18.77
604.921	18.72
605.115	18.72
605.309	18.79
605.502	18.78
605.696	18.64
605.89	18.57
606.084	18.49
606.278	18.39
606.471	18.3
606.665	18.21
606.859	18.15
607.053	18.17
607.246	18.1
607.44	18.11
607.634	18.09
607.827	18.14
608.021	18.04
608.214	17.98
608.408	17.88
608.602	17.87
608.795	17.81
608.989	17.8
609.182	17.79
609.376	17.79
609.569	17.7
609.763	17.57
609.956	17.46
610.15	17.34
610.343	17.25
610.537	17.17
610.73	17.15
610.923	17.15
611.117	17.15
611.31	17.06
611.504	17.05
611.697	16.96
611.89	16.82
612.083	16.69
612.277	16.69
612.47	16.56
612.663	16.45
612.856	16.41
613.05	16.31
613.243	16.18
613.436	16.12
613.629	16.05
613.822	15.97
614.015	15.95
614.209	15.77
614.402	15.79
614.595	15.84
614.788	15.84
614.981	15.72
615.174	15.68
615.367	15.51
615.56	15.33
615.753	15.25
615.946	15.18
616.139	15.2
616.332	15.31
616.525	15.34
616.718	15.36
616.911	15.34
617.103	15.4
617.296	15.32
617.489	15.2
617.682	15.08
617.875	15.14
618.067	14.96
618.26	14.81
618.453	14.85
618.646	14.87
618.838	14.8
619.031	14.98
619.224	15
619.417	14.97
619.609	14.99
619.802	14.92
619.994	14.82
620.187	14.86
620.38	14.78
620.572	14.67
620.765	14.71
620.957	14.53
621.15	14.38
621.342	14.27
621.535	14.26
621.727	14.14
621.92	14.15
622.112	14.11
622.305	14.18
622.497	14.05
622.69	14.05
622.882	14.08
623.074	14.16
623.267	14.1
623.459	14.15
623.651	14.03
623.844	14.08
624.036	14.05
624.228	14.03
624.42	13.99
624.613	14.17
624.805	14.02
624.997	13.96
625.189	13.95
625.381	14
625.574	13.89
625.766	13.85
625.958	13.89
626.15	13.98
626.342	13.94
626.534	13.87
626.726	13.88
626.918	13.86
627.11	13.69
627.302	13.66
627.494	13.63
627.686	13.67
627.878	13.5
628.07	13.56
628.262	13.52
628.454	13.61
628.646	13.59
628.838	13.67
629.029	13.54
629.221	13.58
629.413	13.46
629.605	13.3
629.797	13.29
629.989	13.31
630.18	13.23
630.372	13.16
630.564	13.19
630.755	13.18
630.947	13.23
631.139	13.11
631.33	13.05
631.522	13.14
631.714	13.08
631.905	13
632.097	13.06
632.289	13.16
632.48	13.01
632.672	12.98
632.863	12.84
633.055	12.81
633.246	12.77
633.438	12.76
633.629	12.71
633.821	12.79
634.012	12.76
634.203	12.6
634.395	12.63
634.586	12.66
634.777	12.59
634.969	12.6
635.16	12.71
635.351	12.67
635.543	12.71
635.734	12.81
635.925	12.82
636.117	12.85
636.308	12.85
636.499	12.79
636.69	12.6
636.881	12.51
637.073	12.52
637.264	12.45
637.455	12.45
637.646	12.62
637.837	12.75
638.028	12.67
638.219	12.83
638.41	12.84
638.601	12.73
638.792	12.62
638.983	12.6
639.174	12.44
639.365	12.45
639.556	12.46
639.747	12.49
639.938	12.56
640.129	12.62
640.32	12.55
640.511	12.56
640.701	12.65
640.892	12.52
641.083	12.52
641.274	12.59
641.465	12.57
641.655	12.45
641.846	12.43
642.037	12.4
642.228	12.31
642.418	12.43
642.609	12.44
642.8	12.5
642.99	12.49
643.181	12.5
643.372	12.38
643.562	12.35
643.753	12.3
643.943	12.24
644.134	12.16
644.324	12.14
644.515	12.08
644.705	12.14
644.896	12.23
645.086	12.31
645.277	12.27
645.467	12.33
645.658	12.28
645.848	12.2
646.038	12.17
646.229	12.15
646.419	12
646.61	11.98
646.8	11.94
646.99	11.89
647.18	11.92
647.371	11.96
647.561	11.82
647.751	11.83
647.941	11.72
648.132	11.67
648.322	11.66
648.512	11.86
648.702	11.83
648.892	11.88
649.082	11.84
649.272	11.69
649.462	11.46
649.653	11.37
649.843	11.27
650.033	11.29
650.223	11.36
650.413	11.4
650.603	11.44
650.793	11.54
650.983	11.48
651.172	11.44
651.362	11.42
651.552	11.31
651.742	11.21
651.932	11.08
652.122	11.1
652.312	11.08
652.502	11.05
652.691	11.02
652.881	10.98
653.071	10.88
653.261	10.71
653.45	10.63
653.64	10.62
653.83	10.54
654.019	10.46
654.209	10.45
654.399	10.44
654.588	10.25
654.778	10.18
654.968	10.06
655.157	9.97
655.347	9.8
655.536	9.72
655.726	9.61
655.915	9.48
656.105	9.36
656.294	9.23
656.484	9.07
656.673	8.93
656.863	8.85
657.052	8.64
657.241	8.48
657.431	8.31
657.62	8.16
657.809	7.92
657.999	7.84
658.188	7.68
658.377	7.51
658.567	7.44
658.756	7.3
658.945	7.1
659.134	7.01
659.324	6.89
659.513	6.77
659.702	6.65
659.891	6.51
660.08	6.31
660.269	6.34
660.458	6.14
660.648	6.07
660.837	5.94
661.026	5.95
661.215	5.79
661.404	5.58
661.593	5.59
661.782	5.4
661.971	5.32
662.16	5.15
662.349	5.2
662.538	4.92
662.726	4.98
662.915	4.81
663.104	4.68
663.293	4.64
663.482	4.75
663.671	4.62
663.86	4.45
664.048	4.42
664.237	4.36
664.426	4.06
664.615	4.08
664.803	4.1
664.992	4.05
665.181	3.92
665.369	3.92
665.558	3.84
665.747	3.72
665.935	3.79
666.124	3.83
666.312	3.9
666.501	3.77
666.69	3.71
666.878	3.58
667.067	3.36
667.255	3.35
667.444	3.61
667.632	3.71
667.82	3.83
668.009	3.82
668.197	3.74
668.386	3.58
668.574	3.72
668.762	3.59
668.951	3.56
669.139	3.56
669.327	3.37
669.516	3.34
669.704	3.33
669.892	3.49
670.08	3.49
670.269	3.48
670.457	3.26
670.645	3.14
670.833	3.24
671.021	3.32
671.21	3.47
671.398	3.81
671.586	3.84
671.774	3.62
671.962	3.57
672.15	3.61
672.338	3.43
672.526	3.56
672.714	3.61
672.902	3.66
673.09	3.83
673.278	4.03
673.466	4.01
673.654	4.21
673.842	4.18
674.03	4.15
674.218	4.03
674.405	4.07
674.593	3.99
674.781	4.14
674.969	4.11
675.157	4.21
675.344	4.35
675.532	4.43
675.72	4.44
675.908	4.5
676.095	4.43
676.283	4.39
676.471	4.63
676.658	4.67
676.846	4.69
677.033	4.81
677.221	4.96
677.409	4.74
677.596	4.79
677.784	4.9
677.971	4.98
678.159	5
678.346	5.1
678.534	5.18
678.721	5.27
678.909	5.33
679.096	5.39
679.283	5.64
679.471	5.74
679.658	5.88
679.846	6.07
680.033	6.38
680.22	6.4
680.408	6.32
680.595	6.34
680.782	6.24
680.969	6.14
681.157	6.23
681.344	6.46
681.531	6.47
681.718	6.58
681.905	6.75
682.093	6.89
682.28	7.07
682.467	7.36
682.654	7.5
682.841	7.63
683.028	7.9
683.215	8.06
683.402	7.98
683.589	8.19
683.776	8.29
683.963	8.21
684.15	8.34
684.337	8.65
684.524	8.8
684.711	9.14
684.898	9.29
685.085	9.46
685.271	9.81
685.458	10.02
685.645	10.06
685.832	10.46
686.019	10.75
686.205	10.84
686.392	11.15
686.579	11.42
686.766	11.74
686.952	12.02
687.139	12.5
687.326	12.72
687.512	13.05
687.699	13.24
687.886	13.49
688.072	13.62
688.259	14.13
688.445	14.57
688.632	14.87
688.818	15.48
689.005	15.91
689.191	16.26
689.378	16.9
689.564	17.52
689.751	17.84
689.937	18.26
690.124	18.76
690.31	18.94
690.496	19.3
690.683	19.86
690.869	20.57
691.055	21.09
691.242	21.79
691.428	22.59
691.614	23.23
691.8	23.86
691.987	24.37
692.173	25.08
692.359	25.67
692.545	26.38
692.731	26.87
692.918	27.63
693.104	28.09
693.29	28.7
693.476	29.24
693.662	30.02
693.848	30.86
694.034	31.45
694.22	32
694.406	32.86
694.592	33.44
694.778	33.94
694.964	34.65
695.15	35.37
695.336	35.81
695.522	36.6
695.708	37.25
695.894	37.82
696.08	38.48
696.265	39.11
696.451	39.75
696.637	40.51
696.823	41.25
697.009	41.84
697.194	42.48
697.38	43
697.566	43.35
697.751	44.05
697.937	44.74
698.123	45.52
698.308	46.25
698.494	47.02
698.68	47.55
698.865	48.09
699.051	48.63
699.236	48.86
699.422	49.45
699.607	49.95
699.793	50.54
699.978	50.78
700.164	51.24
700.349	51.89
700.535	52.1
700.72	52.54
700.906	53.33
701.091	53.89
701.276	54.02
701.462	55.17
701.647	55.73
701.832	55.89
702.018	56.26
702.203	56.52
702.388	56.38
702.573	56.54
702.759	57.3
702.944	57.68
703.129	58.12
703.314	58.49
703.499	58.91
703.684	59.04
703.87	60.12
704.055	61.21
704.24	61.46
704.425	62.17
704.61	62.51
704.795	62.23
704.98	62.06
705.165	62.33
705.35	62.38
705.535	62.8
705.72	63.1
705.905	63.76
706.09	64.47
706.275	64.68
706.459	64.71
706.644	65.07
706.829	65.07
707.014	64.89
707.199	65.4
707.384	65.87
707.568	65.96
707.753	66.26
707.938	67.02
708.123	67.29
708.307	67.19
708.492	67.29
708.677	67.49
708.861	67.35
709.046	67.09
709.231	67.98
709.415	68.47
709.6	68.43
709.784	68.5
709.969	69.09
710.153	68.62
710.338	68.87
710.522	69.17
710.707	69.53
710.891	69.17
711.076	69.43
711.26	69.18
711.445	69.25
711.629	69.64
711.813	69.93
711.998	70.19
712.182	70.22
712.366	70.71
712.551	70.78
712.735	71.12
712.919	70.92
713.103	71.44
713.288	70.99
713.472	70.59
713.656	71.24
713.84	71.3
714.024	71.38
714.208	71.66
714.393	72.28
714.577	71.84
714.761	72.23
714.945	72.67
715.129	72.89
715.313	72.91
715.497	72.82
715.681	73.29
715.865	73.11
716.049	73.35
716.233	73.23
716.417	73.47
716.601	73.49
716.785	73.38
716.968	73.2
717.152	73.45
717.336	73.61
717.52	73.41
717.704	73.59
717.888	74.2
718.071	74.06
718.255	74.46
718.439	74.23
718.622	74.26
718.806	74.16
718.99	74.12
719.174	73.63
719.357	74.16
719.541	74.61
719.724	74.35
719.908	75
720.092	75.64
720.275	75.71
720.459	75.56
720.642	75.45
720.826	74.92
721.009	74.43
721.193	73.72
721.376	73.97
721.559	74.33
721.743	75.06
721.926	75.68
722.11	76.58
722.293	76.21
722.476	76.1
722.66	76.02
722.843	75.78
723.026	75.13
723.21	75.11
723.393	76.29
723.576	76.21
723.759	76.16
723.942	76.45
724.126	76.14
724.309	75.27
724.492	75.37
724.675	75.12
724.858	75.49
725.041	76.43
725.224	76.49
725.407	76.48
725.59	76.86
725.774	77.05
725.957	75.87
726.14	75.53
726.322	75.6
726.505	75.21
726.688	75.34
726.871	75.83
727.054	76.78
727.237	76.78
727.42	77.36
727.603	77.27
727.786	77.65
727.968	77.34
728.151	77.39
728.334	77.26
728.517	76.83
728.699	77.37
728.882	77.28
729.065	77.64
729.248	78.26
729.43	79.35
729.613	80.09
729.796	80.65
729.978	80.15
730.161	79.49
730.343	79
730.526	78.69
730.708	77.9
730.891	78.21
731.073	79.09
731.256	78.5
731.438	78.29
731.621	78.65
731.803	78.6
731.986	77.76
732.168	78.07
732.35	78.36
732.533	78.17
732.715	78.56
732.898	79.66
733.08	80.13
733.262	80.48
733.444	80.71
733.627	80.83
733.809	80.8
733.991	81.14
734.173	80.61
734.355	80.72
734.538	80.82
734.72	80.16
734.902	80.29
735.084	80.28
735.266	80.81
735.448	80.64
735.63	80.71
735.812	80.72
735.994	81.81
736.176	81.83
736.358	81.4
736.54	82.3
736.722	81.65
736.904	80.42
737.086	80.06
737.268	81.75
737.45	81.44
737.632	81.21
737.814	80.99
737.995	81.51
738.177	80.94
738.359	80.25
738.541	81.43
738.723	81.98
738.904	81.96
739.086	81.65
739.268	82.42
739.449	82.3
739.631	81.69
739.813	82.1
739.994	82.47
740.176	82.52
740.358	81.91
740.539	83.19
740.721	82.92
740.902	83.27
741.084	82.59
741.265	82.3
741.447	81.76
741.628	81.71
741.81	80.77
741.991	81.18
742.172	82.73
742.354	83.49
742.535	83.69
742.717	84.42
742.898	84.98
743.079	84.61
743.261	84.06
743.442	82.79
743.623	83.28
743.804	83.64
743.986	84.1
744.167	83.06
744.348	83.97
744.529	83.96
744.71	82.13
744.891	80.95
745.073	80.94
745.254	80.48
745.435	78.68
745.616	79.44
745.797	79.46
745.978	79.97
746.159	80.42
746.34	80.74
746.521	82.18
746.702	81.33
746.883	81.54
747.064	82.14
747.245	82.86
747.426	82.41
747.606	83.57
747.787	83.37
747.968	82.83
748.149	82.87
748.33	82.86
748.51	83.12
748.691	82.87
748.872	83.22
749.053	82.49
749.233	81.74
749.414	80.75
749.595	80.03
749.775	78.85
749.956	78.11
750.137	77.58
750.317	78.48
750.498	80.48
750.678	81.12
750.859	82.24
751.04	82.26
751.22	81.12
751.4	79.67
751.581	78.73
751.761	79.45
751.942	80.94
752.122	81.22
752.303	80.71
752.483	81.48
752.663	80.76
752.844	79.26
753.024	80.39
753.204	82.19
753.385	80.87
753.565	80.52
753.745	80.09
753.925	80.16
754.106	78.56
754.286	79.49
754.466	79.54
754.646	81.04
754.826	79.53
755.006	79.81
755.187	80.66
755.367	81.83
755.547	81.26
755.727	82.72
755.907	82.94
756.087	84.15
756.267	82.98
756.447	81.89
756.627	80.41
756.807	80.96
756.987	78.47
757.167	79.13
757.346	80.98
757.526	80.53
757.706	80.61
757.886	81.34
758.066	82.47
758.246	83.51
758.425	83.16
758.605	81.6
758.785	81.91
758.965	81.6
759.144	78.96
759.324	80.35
759.504	81.02
759.683	81.7
759.863	78.62
760.043	77.72
760.222	77.46
760.402	77.3
760.581	75.84
760.761	78.92
760.94	78.98
761.12	80.45
761.299	80.56
761.479	80.34
761.658	78.08
761.838	79.31
762.017	77.45
762.197	77.58
762.376	78.45
762.555	80.36
762.735	80.87
762.914	80.07
763.093	80.56
763.273	79.45
763.452	78.93
763.631	77.52
763.81	78.89
763.99	77.76
764.169	78.25
764.348	74.84
764.527	73.87
764.706	75.44
764.885	76.81
765.064	76.05
765.243	76.93
765.423	79.08
765.602	77.14
765.781	75.58
765.96	75.52
766.139	75.16
766.318	75.17
766.497	74.15
766.676	74.99
766.854	77.09
767.033	78.61
767.212	76.91
767.391	77.03
767.57	77.65
767.749	75.75
767.928	76.54
768.106	76.81
768.285	75.02
768.464	73.52
768.643	72.85
768.821	72.42
769	73.7
769.179	74.15
769.357	73.95
769.536	74.8
769.715	74.7
769.893	76.45
770.072	77.4
770.25	77.54
770.429	77.86
770.607	76.71
770.786	75.17
770.964	76.03
771.143	74.95
771.321	76.5
771.5	78.53
771.678	75.56
771.857	74.74
772.035	75.87
772.213	75.57
772.392	72.74
772.57	75.47
772.748	77.22
772.927	76.85
773.105	74.43
773.283	76.84
773.461	77.16
773.64	74.95
773.818	75.36
773.996	76.85
774.174	75.02
774.352	71.11
774.531	69.07
774.709	70.04
774.887	66.73
775.065	66.24
775.243	68.36
775.421	70.27
775.599	71.32
775.777	71.3
775.955	70.01
776.133	68.28
776.311	67.47
776.489	63.7
776.667	66.32
776.844	68.07
777.022	68.39
777.2	69.59
777.378	69.8
777.556	68.91
777.734	72.79
777.911	75.25
778.089	73.96
778.267	75.94
778.445	74.48
778.622	67.81
778.8	66.45
778.978	69.71
779.155	68.57
779.333	70.29
779.511	73.35
779.688	75.25
779.866	70.8
780.043	68.57
780.221	67.88
780.398	65.67
780.576	65.14
780.753	68.55
780.931	68.98
781.108	67.25
781.286	70.6
781.463	66.97
781.64	62.79
781.818	64.41
781.995	66.33
782.172	65.09
782.35	67.92
782.527	70.79
782.704	68.93
782.882	70.61
783.059	69.32
783.236	69.01
783.413	71.37
783.59	72.73
783.768	68.59
783.945	72.43
784.122	73.64
784.299	71.3
784.476	69.9
784.653	71.13
784.83	64.69
785.007	58.73
785.184	59.63
785.361	58.76
785.538	62.47
785.715	69.08
785.892	72.54
786.069	75.1
786.246	75.18
786.423	71.25
786.6	66.6
786.776	68.96
786.953	64.62
787.13	69.84
787.307	69.44
787.484	69.69
787.66	65.99
787.837	64.18
788.014	57.76
788.191	58.64
788.367	55.23
788.544	60.26
788.721	59
788.897	63.32
789.074	63.85
789.25	63.68
789.427	62.3
789.603	67.14
789.78	67.17
789.956	66.71
790.133	66.44
790.309	64.37
790.486	67.78
790.662	62.99
790.839	59.77
791.015	67.24
791.192	64.37
791.368	63.26
791.544	63.22
791.721	63.43
791.897	61.1
792.073	59
792.249	52.52
792.426	54.23
792.602	62.29
792.778	61.28
792.954	62.3
793.13	63.18
793.307	58.07
793.483	45.89
793.659	45.47
793.835	51.29
794.011	47.54
794.187	52.25
794.363	53.21
794.539	55.22
794.715	47.18
794.891	49.39
795.067	48.21
795.243	56.1
795.419	52.12
795.595	55.38
795.771	58.98
795.947	63.14
796.122	57.62
796.298	62.25
796.474	65.98
796.65	66.02
796.826	62.25
797.001	62.9
797.177	58.75
797.353	59.29
797.529	62.52
797.704	62.55
797.88	60.3
798.056	56.8
798.231	53.2
798.407	54.39
798.582	55.64
798.758	67.76
798.934	72.62
799.109	70.22
799.285	62.93
799.46	65.61
799.636	59.48
799.811	56.33
799.986	59.82
800.162	63.45
800.337	60.11
800.513	54.03
800.688	56.6
800.863	69.69
801.039	62.83
801.214	59.75
801.389	63.78
801.565	63.46
801.74	39.39
801.915	45.39
802.09	47.45
802.265	53.29
802.441	49.94
802.616	56.67
802.791	57.41
802.966	60.89
803.141	55.17
803.316	56.65
803.491	62.75
803.666	64.57
803.841	63.24
804.016	65.73
804.191	64.54
804.366	56.02
804.541	51.95
804.716	48.67
804.891	40.67
805.066	45.8
805.241	44.04
805.416	41.88
805.591	41.63
805.765	52.58
805.94	52.7
806.115	57.7
806.29	52.2
806.464	54.66
806.639	43.24
806.814	40.31
806.989	32.44
807.163	48.14
807.338	48.9
807.512	48.93
807.687	29.67
807.862	45.36
808.036	45.49
808.211	43.5
808.385	56.68
808.56	79.85
808.734	79.89
808.909	77.25
809.083	69.66
809.258	70.65
809.432	67.32
809.606	49.96
809.781	39.64
809.955	48.52
810.13	41.64
810.304	29.39
810.478	30.15
810.652	41.15
810.827	48.07
811.001	44.04
811.175	46.97
811.349	54.3
811.524	50.85
811.698	36.1
811.872	39.27
812.046	49.79
812.22	52.62
812.394	44.5
812.568	48.49
812.742	48.4
812.916	44.49
813.09	35.75
813.264	37
813.438	45.04
813.612	46.56
813.786	37.37
813.96	49.56
814.134	56.25
814.308	63.59
814.482	63.55
814.656	63
814.83	60.4
815.003	59.85
815.177	47.83
815.351	43.19
815.525	49.88
815.698	41.22
815.872	39.24
816.046	27.13
816.219	29.49
816.393	41.46
816.567	50.24
816.74	46.22
816.914	57.15
817.088	67.6
817.261	50.91
817.435	36.14
817.608	39.12
817.782	36.83
817.955	29.46
818.129	36.23
818.302	56.21
818.475	69.13
818.649	65.33
818.822	52.06
818.996	67.42
819.169	58.46
819.342	34.28
819.516	49.13
819.689	61.53
819.862	42.45
820.035	34.81
820.209	41.82
820.382	37.01
820.555	37.75
820.728	34.3
820.901	30.77
821.075	26.5
821.248	35.49
821.421	18.65
821.594	18.82
821.767	43.8
821.94	67.12
822.113	36.13
822.286	41.42
822.459	47.81
822.632	28.9
822.805	6.62
822.978	13.59
823.151	21.54
823.324	9.4
823.496	-4.22
823.669	-7.62
823.842	-2.24
824.015	-23.07
824.188	-27.08
824.361	-17.72
824.533	-11.13
824.706	2.53
824.879	13.7
825.051	34.85
825.224	37.26
825.397	34.45
825.569	14.29
825.742	31.4
825.915	40.35
826.087	42.69
826.26	32.23
826.432	46.45
826.605	43.74
826.777	24.83
826.95	36.37
827.122	31.52
827.295	39.14
827.467	28.46
827.64	3.72
827.812	-17.07
827.984	-17.86
828.157	-43.52
828.329	-81.13
828.501	-63.6
828.674	-30.18
828.846	-20.8
829.018	0.87
829.19	-12.43
829.363	25.26
829.535	17.35
829.707	19.25
829.879	-7.04
830.051	5.76
830.223	-13.35
830.395	-56.23
830.568	-67.23
830.74	-73.91
830.912	-39.8
831.084	-57.29
831.256	-27.73
831.428	-34.2
831.6	-40.43
831.772	-84.74
831.943	-100.77
832.115	-73.52
832.287	-39.23
832.459	-13.3
832.631	5.58
832.803	34.17
832.975	51.33
833.146	41.64
833.318	19.27
833.49	42.79
833.662	20.02
833.833	-16.06
834.005	-9.47
834.177	25.98
834.348	23.04
834.52	8.88
834.692	5.57
834.863	-45.35
835.035	-84.61
835.206	-156.99
835.378	-94.86
835.549	-72.34
835.721	-34.26
835.892	-20.77
836.064	-15.89
836.235	-16.95
836.407	7.44
836.578	-26.18
836.749	-8.96
836.921	-28.5
837.092	-29.93
837.264	-66.68
837.435	-74.82
837.606	-25.13
837.777	2.24
837.949	7.72
838.12	22.68
838.291	43.04
838.462	18.24
838.633	-12.36
838.805	-20.96
838.976	-39.49
839.147	-122.81
839.318	-123.88
839.489	-152.29
839.66	-112.08
839.831	-35.47
840.002	-9.92
840.173	1.89
840.344	75.85
840.515	66.35
840.686	-77.76
840.857	-91.6
841.028	-94.06
841.199	-121.34
841.369	-130.54
841.54	-107.67
841.711	-82.79
841.882	-61.41
842.053	-60.96
842.223	-37.33
842.394	-18.84
842.565	18.68
842.736	14.58
842.906	13.88
843.077	11.84
843.248	32.62
843.418	-6.72
843.589	-74.97
843.759	-24.73
843.93	-38.37
844.101	-50.71
844.271	-22.39
844.442	3.42
844.612	17.85
844.783	-13.96
844.953	-31.68
845.123	-38.19
845.294	-19.18
845.464	-238.36
845.635	-63.27
845.805	31.57
845.975	36.24
846.146	-30.92
846.316	-26
846.486	-5.87
846.656	17.59
846.827	-1.22
846.997	8.89
847.167	19.97
847.337	-7.54
847.507	-70.06
847.677	-58.6
847.848	0.35
848.018	21.25
848.188	27.07
848.358	16
848.528	-1.65
848.698	-46.14
848.868	-165.17
849.038	-242.75
849.208	-82.53
849.378	-37.03
849.548	-12.95
849.718	-5.75
849.887	3.01
850.057	-16.19
850.227	-49.02
850.397	-73.85
850.567	-183.4
850.737	-401.96
850.906	-1530.63
851.076	-1137.11
851.246	-534.29
851.415	-74.84
851.585	-60.88
851.755	-85.62
851.924	-8.91
852.094	-55.32
852.264	-138.83
852.433	-1085.1
852.603	-180.57
852.772	-144.54
852.942	-51.05
853.111	-79.86
853.281	-2.52
853.45	25.06
853.62	-70
853.789	-77.33
853.959	-12.69
854.128	-28.56
854.297	-97.5
854.467	-85.39
854.636	-82.66
854.805	-11.32
854.975	-48.16
855.144	-5.07
855.313	79.37
855.482	-368.25
855.652	-303.35
855.821	-220.78
855.99	-30.96
856.159	-4.91
856.328	8.39
856.497	6.98
856.667	4.7
856.836	13
857.005	4.88
857.174	10.61
857.343	-3.59
857.512	25.09
857.681	-98.39
857.85	-164.4
858.019	-118.22
858.188	-112.09
858.356	-128.51
858.525	-175.18
858.694	-136.36
858.863	-246.24
859.032	-208.74
859.201	-241.33
859.369	-192.98
859.538	-185.21
859.707	-132.08
859.876	-98.07
860.044	-99.17
860.213	3.67
860.382	-6.66
860.55	-6.37
860.719	16.72
860.888	34.32
861.056	-4.66
861.225	-22.87
861.393	22.12
861.562	9.19
861.73	-81.54
861.899	-206.02
862.067	-1387.93
862.236	-113.15
862.404	-292.36
862.572	-201.1
862.741	-90.1
862.909	-86.41
863.078	-273.37
863.246	-187.32
863.414	-155.71
863.582	-113.65
863.751	-114.34
863.919	-61.32
864.087	25.95
864.255	10.03
864.424	-300.2
864.592	-25.11
864.76	-49.24
864.928	-420.4
865.096	-299.2
865.264	-207.95
865.432	-2544.32
865.6	-204.25
865.768	-112.73
865.936	-76.42
866.104	-56.24
866.272	-88.28
866.44	-385.24
866.608	761.68
866.776	390.87
866.944	3754.65
867.112	-628.18
867.28	-246.35
867.448	-95.75
867.615	-15.22
867.783	13.64
867.951	-17.85
868.119	23.07
868.286	9.66
868.454	-104.08
868.622	-103.94
868.789	-74.62
868.957	-2682.14
869.125	-2409.21
869.292	-187.35
869.46	-275.78
869.627	-24.78
869.795	-23.11
869.963	19.03
870.13	47.84
870.298	75.63
870.465	-37.88
870.632	-68.6
870.8	-63.46
870.967	-135.94
871.135	-228.76
871.302	-124.53
871.469	-141.48
871.637	-175.27
871.804	-55.82
871.971	-111.56
872.139	-436.98
872.306	-26.73
872.473	-71.53
872.64	-494.64
872.807	-180.36
872.975	-46.27
873.142	-316.55
873.309	2522.97
873.476	16.7
873.643	74.6
873.81	16.42
873.977	28.92
874.144	47.15
874.311	-145.53
874.478	-207.03
874.645	-240.4
874.812	-171.52
874.979	-123.53
875.146	-106.53
875.313	-96.12
875.48	19
875.647	1.69
875.813	-31.32
875.98	-6.66
876.147	-37.44
876.314	-114.53
876.481	1106.2
876.647	-1166.85
876.814	393.52
876.981	81.73
877.147	-4.22
877.314	25.97
877.481	25.65
877.647	11.9
877.814	-55.9
877.98	-89.37
878.147	-50.35
878.314	2.36
878.48	-45.74
878.647	-4.97
878.813	50
878.979	62.55
879.146	32.92
879.312	41.68
879.479	-5.07
879.645	-121.38
879.811	-338.96
879.978	-909.54
880.144	-274.02
880.31	-99.3
880.477	-277.36
880.643	-302.29
880.809	-98.41
880.975	-85.23
881.142	-791.36
881.308	-91.5
881.474	-80.4
881.64	-83.98
881.806	-181.09
881.972	-87.18
882.138	-89.1
882.304	-23.49
882.47	-241.25
882.636	-757.79
882.802	-171.18
882.968	-27.1
883.134	-44.64
883.3	-21.97
883.466	27.17
883.632	60.23
883.798	2.86
883.964	-1.66
884.129	-3.83
884.295	-10.8
884.461	-106.21
884.627	-102.45
884.793	-122.82
884.958	-62.75
885.124	-164.41
885.29	-257.68
885.455	-505.58
885.621	-171.85
885.787	-246.92
885.952	-125.25
886.118	-109.02
886.283	-79.35
886.449	-159.24
886.614	-170.45
886.78	-350.96
886.945	1313.93
887.111	-739.02
887.276	-661.65
887.442	-1069.55
887.607	-417.69
887.773	-276.27
887.938	-253.13
888.103	-302.94
888.269	-201.66
888.434	-279.19
888.599	-131.64
888.764	-25.29
888.93	-18.86
889.095	-26.57
889.26	-81.81
889.425	-24.6
889.59	-1.19
889.756	-21.52
889.921	-36.37
890.086	33.17
890.251	-7.3
890.416	-171.05
890.581	-1573.39
890.746	168.39
890.911	521.97
891.076	215.51
891.241	-546.64
891.406	15.49
891.571	-47.04
891.736	-198.39
891.901	-390.71
892.065	231.32
892.23	133.53
892.395	210.86
892.56	381.65
892.725	-478.52
892.889	-1406.1
893.054	-270.82
893.219	-116.17
893.384	-24.49
893.548	-80.42
893.713	-119.69
893.878	-41.82
