Data from Ofra_PS_T2_2A_9CX05_Reflection_2.txt Node
Date: Wed Jul 21 17:25:37 EDT 2021
User: Adam
Spectrometer: FLMT01687
Trigger mode: 0
Integration Time (sec): 1.100000E0
Scans to average: 2
Electric dark correction enabled: true
Nonlinearity correction enabled: false
Boxcar width: 2
XAxis mode: Wavelengths
Number of Pixels in Spectrum: 3648
>>>>>Begin Spectral Data<<<<<
179.494	598.6
179.716	661.18
179.937	662.35
180.158	705.81
180.38	1138.28
180.601	530.52
180.823	185.74
181.044	32.82
181.265	24.45
181.486	3.28
181.708	71.42
181.929	557.65
182.15	-59.51
182.372	198.56
182.593	15.59
182.814	56.24
183.035	120.48
183.257	61.79
183.478	-60.69
183.699	-39.49
183.92	-40.97
184.141	-47.77
184.363	-114.82
184.584	-49.52
184.805	-2.18
185.026	12.87
185.247	24.1
185.468	13.04
185.689	27.48
185.91	24.07
186.132	28.1
186.353	31.39
186.574	80.68
186.795	48.86
187.016	24.35
187.237	-7.87
187.458	-42.77
187.679	-20.62
187.9	11.49
188.121	9.43
188.342	46.59
188.563	57.65
188.784	97.53
189.005	67.34
189.226	98.41
189.447	76.64
189.667	-1.58
189.888	-297.17
190.109	-1013.31
190.33	-596.29
190.551	-1125.88
190.772	-281.9
190.993	-208.41
191.214	-191.32
191.434	-106.59
191.655	2.91
191.876	-27.22
192.097	-79.76
192.318	-105.17
192.538	-176.03
192.759	-173.88
192.98	-76.77
193.201	-35.18
193.421	-28.72
193.642	5.45
193.863	18.06
194.083	4.47
194.304	-0.4
194.525	5.47
194.745	-40.33
194.966	-89.3
195.187	-85.58
195.407	-154.56
195.628	-192.8
195.848	-132.29
196.069	-86.54
196.29	-33.81
196.51	-18.05
196.731	-19.26
196.951	-54.84
197.172	-81.45
197.392	-119.88
197.613	-125.47
197.833	-159.93
198.054	-129.83
198.274	-65.38
198.495	-84.72
198.715	-48.57
198.936	-81.36
199.156	-80.36
199.377	-224.94
199.597	-188.72
199.817	-185.76
200.038	-85
200.258	-129.17
200.479	-35.02
200.699	-54.64
200.919	-13.18
201.14	-58.92
201.36	-90.82
201.58	-9.58
201.801	28.05
202.021	-9.32
202.241	1.39
202.461	19.07
202.682	-90.56
202.902	-162.8
203.122	-84.75
203.342	-68.56
203.563	-43.66
203.783	-1.04
204.003	-28.76
204.223	-39.05
204.443	29.63
204.663	7.8
204.884	31.59
205.104	62.01
205.324	69.45
205.544	37.35
205.764	53.24
205.984	41.36
206.204	37.79
206.424	24.63
206.644	-6.45
206.864	33.52
207.084	15.99
207.304	36.52
207.525	34.61
207.745	37.1
207.964	10.35
208.184	-48.05
208.404	-96.04
208.624	-88.31
208.844	-93.12
209.064	-407.2
209.284	-425.97
209.504	-194.79
209.724	-56.91
209.944	-30.98
210.164	19.6
210.384	38.97
210.604	15.73
210.823	-24.32
211.043	-61.34
211.263	-56.77
211.483	-72.49
211.703	-113.71
211.922	-121.56
212.142	-20.5
212.362	-11.18
212.582	-2.3
212.801	4.79
213.021	3.83
213.241	-35.79
213.461	-90.39
213.68	-119.51
213.9	-82.34
214.12	-65.12
214.339	-142.65
214.559	-101.22
214.779	-35.16
214.998	-33.68
215.218	-73.99
215.438	-20.84
215.657	-46.33
215.877	-54.82
216.096	-28.67
216.316	10.57
216.535	-4.24
216.755	15.22
216.974	-40.09
217.194	-77.57
217.413	-133.8
217.633	-144.54
217.852	-309.84
218.072	-153.75
218.291	-106.46
218.511	-54.3
218.73	-76.93
218.95	-44.39
219.169	-33.68
219.389	-68.7
219.608	-57.56
219.827	-42.43
220.047	-18.59
220.266	-22.94
220.485	-13.04
220.705	-26.3
220.924	-35.63
221.143	5.42
221.363	-16.22
221.582	-21.11
221.801	11.26
222.021	34.24
222.24	-55.34
222.459	6.15
222.678	19.46
222.897	-80.26
223.117	-146.21
223.336	-70.77
223.555	-52.78
223.774	5.67
223.993	19.83
224.213	89.61
224.432	40.02
224.651	36.79
224.87	-6.63
225.089	15.29
225.308	4.02
225.527	30.91
225.746	46.69
225.965	40.09
226.184	12.74
226.404	22.84
226.623	-1.16
226.842	-7.45
227.061	27.27
227.28	33.42
227.499	16.11
227.718	23.6
227.936	28.8
228.155	28.17
228.374	19.43
228.593	25.89
228.812	23.09
229.031	-1.27
229.25	-54.91
229.469	-47.77
229.688	-47.52
229.907	-6.42
230.125	11.97
230.344	20.49
230.563	29.27
230.782	39.94
231.001	-29.03
231.22	-26.38
231.438	18.44
231.657	2.43
231.876	-4.82
232.095	34.13
232.313	29.87
232.532	3.9
232.751	-5.29
232.969	-37.56
233.188	-89.19
233.407	-28.98
233.625	-21.98
233.844	-57.06
234.063	-41.72
234.281	-24.28
234.5	-34.52
234.719	-23.09
234.937	13.81
235.156	35.05
235.374	29.93
235.593	25.62
235.811	25.54
236.03	9.26
236.249	-48.47
236.467	-40.93
236.686	-4.89
236.904	4.75
237.123	-26.21
237.341	-22.57
237.559	-16.84
237.778	-42.44
237.996	-90.17
238.215	-29.61
238.433	-18.85
238.652	-21.54
238.87	-24.79
239.088	-10.17
239.307	-11.57
239.525	-4.64
239.743	-33.23
239.962	-41.14
240.18	-47.5
240.398	-86.48
240.617	-92.88
240.835	-78.82
241.053	-64.08
241.271	-4.25
241.49	13.25
241.708	-10.28
241.926	-23.14
242.144	-17.51
242.363	-104.71
242.581	-118.79
242.799	-70.9
243.017	-18.06
243.235	-22.52
243.453	-0.21
243.672	-10.39
243.89	-5.35
244.108	-32.26
244.326	-9.7
244.544	-10.83
244.762	-13.84
244.98	-7.72
245.198	7.04
245.416	-31.5
245.634	-30.04
245.852	-22.34
246.07	-31.9
246.288	-33.09
246.506	-55.08
246.724	-33.5
246.942	-37.56
247.16	-2.89
247.378	1.09
247.596	44.81
247.814	46.71
248.032	22.59
248.25	-6.78
248.468	-0.01
248.685	-10.88
248.903	16.93
249.121	23.91
249.339	2.41
249.557	-6.59
249.775	-16
249.992	-94.9
250.21	-90.68
250.428	-79.48
250.646	-107.69
250.863	-112.57
251.081	-73.37
251.299	-68.49
251.517	-58.22
251.734	-53.38
251.952	-57.2
252.17	-43.2
252.387	-19.8
252.605	-24.37
252.823	-5.69
253.04	14.37
253.258	39.58
253.475	36.9
253.693	61.36
253.911	52.41
254.128	45.05
254.346	30.88
254.563	-7.73
254.781	-35.88
254.998	-82.48
255.216	-82.55
255.433	-62.15
255.651	-10.09
255.868	36.4
256.086	67.08
256.303	49.67
256.521	17.63
256.738	-11.97
256.956	-49.67
257.173	-65.1
257.39	-68.82
257.608	-75.8
257.825	-12.07
258.043	24.94
258.26	17.31
258.477	65.82
258.695	52.84
258.912	5.51
259.129	5.01
259.346	-26.62
259.564	-92.29
259.781	-109.06
259.998	-51.27
260.216	-35.14
260.433	12.37
260.65	18.16
260.867	41.76
261.084	17.62
261.302	-10.54
261.519	-17.23
261.736	-40.6
261.953	-64.11
262.17	-36.62
262.387	-60.08
262.604	-94.16
262.822	-91.43
263.039	-73.8
263.256	-125.31
263.473	-63.77
263.69	-37.78
263.907	-12.21
264.124	-0.01
264.341	21.17
264.558	7.14
264.775	28.32
264.992	33.34
265.209	18.07
265.426	24.63
265.643	24.6
265.86	13.75
266.077	6.16
266.294	-4.33
266.51	-39.12
266.727	-51.27
266.944	-41.24
267.161	-40.13
267.378	-46.12
267.595	-12.45
267.812	-27.41
268.028	-52.42
268.245	-28.21
268.462	-45.22
268.679	-55.61
268.896	-3.64
269.112	4.34
269.329	-1.71
269.546	21.36
269.763	9.96
269.979	-3.97
270.196	-9.56
270.413	-30.94
270.629	-58.71
270.846	-47.18
271.063	-46.16
271.279	-66.51
271.496	-68.01
271.712	-26.97
271.929	-16.46
272.146	-27.17
272.362	-2.2
272.579	38.66
272.795	33.64
273.012	42
273.228	31
273.445	6.1
273.661	-33.49
273.878	-81.87
274.094	-89.55
274.311	-101.87
274.527	-38.96
274.744	-28.36
274.96	-23.69
275.177	-6.95
275.393	16.53
275.609	11.35
275.826	26.83
276.042	23.97
276.259	1.36
276.475	11.49
276.691	13.53
276.908	-19.87
277.124	-3.21
277.34	3.4
277.557	-23.65
277.773	-31.15
277.989	-19.42
278.205	-26.67
278.422	-21.52
278.638	-8.74
278.854	11.46
279.07	7.79
279.286	-6.79
279.503	-30.84
279.719	-49.6
279.935	-69.91
280.151	-79.79
280.367	-37.91
280.583	-61.5
280.799	-44.38
281.016	-77.38
281.232	-39.27
281.448	-39.01
281.664	-10.16
281.88	-34.11
282.096	-3.5
282.312	28.45
282.528	35.72
282.744	45.64
282.96	45.54
283.176	18.09
283.392	3.77
283.608	-4.67
283.824	-8.73
284.04	-9.77
284.256	11.78
284.471	-6.82
284.687	-21.35
284.903	6.24
285.119	30.99
285.335	-1.77
285.551	16.05
285.767	-0.64
285.982	-31.82
286.198	-77.94
286.414	-3.86
286.63	-5.51
286.846	32.8
287.061	16.44
287.277	43.96
287.493	4.46
287.709	27.47
287.924	0.65
288.14	39.94
288.356	29.63
288.571	53.93
288.787	25.07
289.003	28.02
289.218	-0.75
289.434	-36.31
289.65	-29.33
289.865	-53.82
290.081	-27.04
290.296	-8.61
290.512	-8.14
290.727	-46.83
290.943	-33.02
291.159	-47.14
291.374	-48.24
291.59	-52.24
291.805	-33.91
292.021	-25.89
292.236	-26.49
292.451	-17.28
292.667	-2.7
292.882	-3.84
293.098	0.55
293.313	-36.01
293.529	-77.94
293.744	-100.57
293.959	-81.58
294.175	-73.33
294.39	-19.46
294.605	16.6
294.821	48.96
295.036	46.32
295.251	59.11
295.467	35.95
295.682	16.32
295.897	-49.49
296.112	-55.57
296.328	-57.65
296.543	-81.51
296.758	-59.08
296.973	-7.05
297.188	23.92
297.404	-7.35
297.619	-10.02
297.834	-43.9
298.049	-64.15
298.264	-92.89
298.479	-23.78
298.694	-2.78
298.909	18.88
299.125	12.59
299.34	33.55
299.555	-2.47
299.77	-12.4
299.985	-57.45
300.2	-107.4
300.415	-139.32
300.63	-83.62
300.845	-80.06
301.06	-71.27
301.275	-17.44
301.49	9.57
301.704	-19.8
301.919	-40.35
302.134	-31.96
302.349	-42.59
302.564	-111.22
302.779	-123.99
302.994	-103.02
303.209	-91.66
303.423	-39.38
303.638	20.34
303.853	-0.79
304.068	1.84
304.283	5.94
304.497	-15.16
304.712	-32.91
304.927	-15.45
305.142	-29.32
305.356	-17.51
305.571	-12.64
305.786	-13.14
306	-40.74
306.215	-33.3
306.43	-61.19
306.644	-56.59
306.859	-22.44
307.074	1.71
307.288	-27.35
307.503	-36.79
307.717	-41.41
307.932	-49.87
308.147	-54.86
308.361	-18.62
308.576	-36.17
308.79	-90.71
309.005	-97.85
309.219	-79.14
309.434	-102.28
309.648	-71.57
309.863	-24.87
310.077	-17.98
310.292	-31.2
310.506	-22.65
310.72	-8.52
310.935	-21.37
311.149	-27.54
311.364	-0.81
311.578	16.76
311.792	-3.27
312.007	27.54
312.221	24.54
312.435	24.65
312.649	4.61
312.864	47.95
313.078	42.45
313.292	112.99
313.507	68.54
313.721	105.8
313.935	30.41
314.149	1.33
314.363	-6.91
314.578	-0.95
314.792	-4.46
315.006	-20.89
315.22	-0.76
315.434	-5.84
315.648	1.41
315.862	-1.61
316.077	11.25
316.291	-20.44
316.505	-10.92
316.719	-23.75
316.933	-53.54
317.147	-35.92
317.361	-63.17
317.575	-90.22
317.789	-115.26
318.003	-153.66
318.217	-114.72
318.431	-41.62
318.645	-9.52
318.859	-6.04
319.073	20.77
319.287	-12.08
319.5	-43.59
319.714	-79.12
319.928	-97.82
320.142	-112.37
320.356	-42.99
320.57	4.66
320.784	2.15
320.997	-5.48
321.211	-21.02
321.425	-78.2
321.639	-100.37
321.853	-30.1
322.066	-16.98
322.28	-15.6
322.494	6.5
322.707	21.55
322.921	-1.06
323.135	3.29
323.349	19.73
323.562	-7.65
323.776	-17.25
323.989	-20.16
324.203	-47.18
324.417	-70.65
324.63	-83.58
324.844	-89.08
325.057	-87.11
325.271	-48.11
325.485	-7.18
325.698	21.11
325.912	32.77
326.125	6.84
326.339	-1.37
326.552	-35.75
326.766	-27.18
326.979	-11.24
327.193	31.77
327.406	10.03
327.619	1.44
327.833	4.05
328.046	-27.96
328.26	-67.95
328.473	-25.7
328.686	-43.37
328.9	-45.56
329.113	-18.03
329.326	-41.99
329.54	-44.45
329.753	-49.45
329.966	-88.52
330.179	-65.84
330.393	-19.33
330.606	-17.5
330.819	-1.45
331.032	16.7
331.246	4.74
331.459	25.11
331.672	1.28
331.885	-7.64
332.098	-32.55
332.311	-39.77
332.525	-109.03
332.738	-69.7
332.951	-22.69
333.164	15.78
333.377	23.97
333.59	44.56
333.803	45.75
334.016	22.2
334.229	12
334.442	8.53
334.655	29.28
334.868	24.02
335.081	18.82
335.294	-3.1
335.507	-9.59
335.72	-23.64
335.933	-43.9
336.146	-33.88
336.359	-20.63
336.572	-57.78
336.785	-91.71
336.997	-61.32
337.21	-57.75
337.423	-65.73
337.636	-51.71
337.849	-15.88
338.062	-21.54
338.274	-5.27
338.487	-2.46
338.7	16.69
338.913	-34.94
339.125	-76.15
339.338	-132.04
339.551	-114.26
339.763	-82.83
339.976	-35.22
340.189	5.38
340.402	21.63
340.614	19.86
340.827	4.78
341.039	-15.09
341.252	-3.01
341.465	0.46
341.677	-20.72
341.89	-59.6
342.102	-23.64
342.315	-57.43
342.527	-92.78
342.74	-61.28
342.952	-13.48
343.165	-28.58
343.377	-5.6
343.59	-3.27
343.802	10.83
344.015	12.31
344.227	29.51
344.44	26.69
344.652	35.1
344.864	22.36
345.077	34.73
345.289	35.4
345.502	37.31
345.714	27.37
345.926	33.52
346.139	20.21
346.351	19.5
346.563	28.37
346.775	33.34
346.988	11.06
347.2	-1.28
347.412	-50.23
347.624	-86.17
347.837	-106.63
348.049	-55.88
348.261	-22.37
348.473	9.86
348.685	23.12
348.897	17.97
349.11	-11.66
349.322	-4.86
349.534	0.9
349.746	-6.15
349.958	14.88
350.17	1.12
350.382	3.27
350.594	-3.83
350.806	14.93
351.018	2.21
351.23	16.93
351.442	-27.96
351.654	-32.85
351.866	-51.07
352.078	-51.97
352.29	-41.37
352.502	-22.92
352.714	-11.15
352.926	-23.83
353.138	-19.27
353.35	-18.51
353.561	-19.44
353.773	-34.73
353.985	-14.42
354.197	-23.42
354.409	-31.49
354.621	-26.11
354.832	-22.68
355.044	-37.54
355.256	-33.13
355.468	-13.39
355.679	-24.17
355.891	-18.69
356.103	-27.9
356.314	-7.58
356.526	-6
356.738	5.4
356.949	-6.93
357.161	15.45
357.373	6.75
357.584	-7.53
357.796	-1.39
358.008	-4.53
358.219	0.94
358.431	-2.98
358.642	3.41
358.854	-1.42
359.065	-6.66
359.277	-33.42
359.488	-68.23
359.7	-99.32
359.911	-105.17
360.123	-69.41
360.334	-74.89
360.546	-56.33
360.757	-47.98
360.969	-24.74
361.18	-30.4
361.391	-11.2
361.603	-30.91
361.814	-11.58
362.025	-20.09
362.237	-16.72
362.448	-9.59
362.659	24.86
362.871	20.03
363.082	8.4
363.293	3.38
363.504	-8.71
363.716	-41.79
363.927	-54.66
364.138	-51.59
364.349	-50.97
364.56	-52.26
364.772	-36.97
364.983	-19.61
365.194	-27.03
365.405	-10.34
365.616	7.2
365.827	-1.39
366.038	-21.93
366.25	-19.05
366.461	-60.67
366.672	-38.26
366.883	-11.84
367.094	-2.34
367.305	-12.47
367.516	4.04
367.727	-29.85
367.938	-51.52
368.149	-42.01
368.36	-18.84
368.571	-27.43
368.781	-27.34
368.992	-33.05
369.203	-59.62
369.414	-97.27
369.625	-94.16
369.836	-80.45
370.047	-103.82
370.258	-78.37
370.468	-60.76
370.679	-74.16
370.89	-79.97
371.101	-42.87
371.312	-54.21
371.522	-44.98
371.733	-31.26
371.944	-7.24
372.155	-5.75
372.365	-6.35
372.576	-9.48
372.787	-10.41
372.997	-43.93
373.208	-43.22
373.419	-13.68
373.629	-43.82
373.84	-36.89
374.05	-40.55
374.261	-41.08
374.472	-52.04
374.682	7.65
374.893	11.73
375.103	45.24
375.314	31.83
375.524	20.15
375.735	8.42
375.945	-1.78
376.156	-27.76
376.366	-15.94
376.577	-14.63
376.787	-21.5
376.997	-19.39
377.208	-16.53
377.418	-28.32
377.629	-18.69
377.839	-24.12
378.049	-16.36
378.26	1.89
378.47	7.3
378.68	-1.86
378.89	0.66
379.101	-9.83
379.311	-45.91
379.521	-79.85
379.732	-82.55
379.942	-82.61
380.152	-87.46
380.362	-43.17
380.572	-38.13
380.783	-25.05
380.993	-10.08
381.203	3.2
381.413	0.11
381.623	10.76
381.833	8.73
382.043	-9.09
382.253	-24.94
382.463	-19.31
382.674	-28.43
382.884	-46.85
383.094	-43.36
383.304	-29.18
383.514	-21.76
383.724	-8.15
383.934	-7.8
384.144	-13.43
384.353	-21.94
384.563	-29.99
384.773	-28.89
384.983	-35.75
385.193	-14.97
385.403	-15.29
385.613	-10.63
385.823	-16.51
386.033	-5.01
386.242	-15.22
386.452	-16.29
386.662	-29.18
386.872	-14.21
387.082	-21.88
387.291	-29.81
387.501	-23.12
387.711	-10.17
387.921	-23.48
388.13	-19.76
388.34	-5.72
388.55	-11.59
388.759	-14.15
388.969	-5.22
389.179	-7.28
389.388	-9.16
389.598	-1.34
389.807	-9.49
390.017	-16.12
390.227	-13.64
390.436	-14.11
390.646	-13.56
390.855	-7.32
391.065	-4.3
391.274	-4.59
391.484	-7.16
391.693	-7.37
391.903	-7.03
392.112	-2.66
392.322	0.51
392.531	3.93
392.74	3.58
392.95	0.33
393.159	-2.01
393.369	-3.32
393.578	-3.56
393.787	-3.95
393.997	-2.28
394.206	-3.5
394.415	-3.06
394.625	-3.37
394.834	-5.52
395.043	-4.53
395.252	-2.99
395.462	-0.65
395.671	0.67
395.88	2.09
396.089	2.91
396.298	1.62
396.508	0.41
396.717	-0.85
396.926	-0.29
397.135	-1.12
397.344	-1.02
397.553	-0.36
397.762	0.87
397.971	0.82
398.181	1.19
398.39	0.55
398.599	-0.2
398.808	-0.4
399.017	0.44
399.226	1.73
399.435	3.12
399.644	3.39
399.853	2.58
400.062	2.35
400.27	1.48
400.479	0.82
400.688	0.28
400.897	0.69
401.106	0.43
401.315	0.07
401.524	0.44
401.733	1.43
401.941	2.02
402.15	2.12
402.359	2.11
402.568	2.32
402.777	2.19
402.985	1.73
403.194	1.47
403.403	1.58
403.612	1.1
403.82	0.85
404.029	0.99
404.238	0.94
404.446	1.3
404.655	1.15
404.864	1.1
405.072	1.01
405.281	1.39
405.489	1.04
405.698	1.23
405.906	1.3
406.115	1.29
406.324	1.12
406.532	1.39
406.741	1.73
406.949	1.68
407.158	1.66
407.366	1.64
407.574	1.59
407.783	1.39
407.991	1.24
408.2	1.6
408.408	1.57
408.617	1.42
408.825	1.29
409.033	1.5
409.242	1.36
409.45	1.64
409.658	1.55
409.867	1.69
410.075	1.52
410.283	1.37
410.491	1.18
410.7	1.14
410.908	1.17
411.116	1.53
411.324	1.53
411.533	1.47
411.741	1.77
411.949	1.8
412.157	1.37
412.365	1.34
412.573	1.38
412.781	1.36
412.99	1.24
413.198	1.47
413.406	1.5
413.614	1.51
413.822	1.3
414.03	1.25
414.238	1.02
414.446	1.14
414.654	0.9
414.862	1.07
415.07	1.17
415.278	1.38
415.486	1.15
415.694	1.31
415.902	1.17
416.109	1.03
416.317	1.06
416.525	0.94
416.733	0.94
416.941	1.12
417.149	1.05
417.357	1.09
417.564	1.35
417.772	1.62
417.98	1.5
418.188	1.62
418.395	1.45
418.603	1.61
418.811	1.22
419.019	1.14
419.226	1.32
419.434	1.5
419.642	1.14
419.849	1.29
420.057	1.4
420.265	1.24
420.472	1.01
420.68	1.12
420.887	0.97
421.095	1.1
421.302	1.17
421.51	1.46
421.717	1.53
421.925	1.69
422.132	1.47
422.34	1.18
422.547	1.16
422.755	1.09
422.962	1.02
423.17	0.94
423.377	1.1
423.585	0.93
423.792	0.88
423.999	0.88
424.207	0.98
424.414	1.15
424.621	1.26
424.829	1.27
425.036	1.29
425.243	1.32
425.451	1.07
425.658	0.77
425.865	0.95
426.072	1.01
426.28	1.3
426.487	1.36
426.694	1.58
426.901	1.46
427.108	1.33
427.315	1.04
427.523	1.23
427.73	1.23
427.937	1.17
428.144	1.02
428.351	1.03
428.558	1.16
428.765	1.06
428.972	0.93
429.179	1.18
429.386	1.54
429.593	1.2
429.8	1
430.007	1.26
430.214	1.33
430.421	0.99
430.628	0.86
430.835	0.98
431.042	1.02
431.249	1.03
431.456	1.05
431.662	1.26
431.869	1.47
432.076	1.47
432.283	1.51
432.49	1.57
432.697	1.6
432.903	1.36
433.11	1.24
433.317	1.26
433.524	1.43
433.73	1.32
433.937	1.63
434.144	1.56
434.35	1.51
434.557	1.27
434.764	1.33
434.97	1.19
435.177	1.38
435.384	1.32
435.59	1.47
435.797	1.61
436.003	1.65
436.21	1.67
436.416	1.81
436.623	1.72
436.829	1.74
437.036	1.92
437.242	1.86
437.449	1.76
437.655	1.75
437.862	1.82
438.068	1.57
438.275	1.72
438.481	1.85
438.687	1.76
438.894	1.54
439.1	1.63
439.307	1.83
439.513	1.74
439.719	1.9
439.926	2.14
440.132	2.05
440.338	1.75
440.544	1.89
440.751	1.72
440.957	1.74
441.163	1.66
441.369	1.79
441.575	1.54
441.782	1.64
441.988	1.45
442.194	1.51
442.4	1.45
442.606	1.73
442.812	1.73
443.018	1.86
443.224	1.91
443.431	2.07
443.637	1.88
443.843	1.82
444.049	1.78
444.255	1.68
444.461	1.65
444.667	1.63
444.873	1.83
445.079	1.77
445.284	1.94
445.49	1.64
445.696	1.52
445.902	1.41
446.108	1.37
446.314	1.25
446.52	1.41
446.726	1.67
446.931	1.66
447.137	1.71
447.343	1.84
447.549	1.75
447.755	1.53
447.96	1.62
448.166	1.54
448.372	1.42
448.578	1.49
448.783	1.55
448.989	1.59
449.195	1.77
449.4	1.82
449.606	1.76
449.812	1.73
450.017	1.76
450.223	1.62
450.428	1.47
450.634	1.66
450.84	1.84
451.045	1.69
451.251	1.7
451.456	2.06
451.662	2.1
451.867	2.06
452.073	2.04
452.278	2.14
452.483	2.08
452.689	1.93
452.894	1.95
453.1	1.99
453.305	1.9
453.51	1.88
453.716	1.82
453.921	1.79
454.127	1.74
454.332	1.69
454.537	1.59
454.742	1.66
454.948	1.57
455.153	1.69
455.358	1.83
455.563	2.07
455.769	2.19
455.974	2.21
456.179	2.11
456.384	2.01
456.589	1.82
456.795	1.61
457	1.63
457.205	1.86
457.41	1.92
457.615	1.88
457.82	1.9
458.025	1.94
458.23	1.74
458.435	1.76
458.64	1.73
458.845	1.88
459.05	1.74
459.255	1.78
459.46	1.72
459.665	1.73
459.87	1.73
460.075	1.78
460.28	1.78
460.485	1.92
460.69	2.01
460.895	1.83
461.099	1.76
461.304	1.86
461.509	1.81
461.714	1.71
461.919	1.93
462.123	1.93
462.328	1.89
462.533	1.81
462.738	1.94
462.942	1.8
463.147	1.93
463.352	1.92
463.556	1.94
463.761	1.9
463.966	1.95
464.17	1.88
464.375	1.85
464.58	1.82
464.784	1.74
464.989	1.71
465.193	1.79
465.398	1.89
465.602	2.03
465.807	2.01
466.011	2.1
466.216	2.11
466.42	2.05
466.625	2.13
466.829	2.2
467.034	2.22
467.238	2.39
467.443	2.38
467.647	2.18
467.851	2.27
468.056	2.23
468.26	2.06
468.464	2.05
468.669	2.16
468.873	2.24
469.077	2.26
469.282	2.34
469.486	2.45
469.69	2.48
469.894	2.34
470.099	2.4
470.303	2.44
470.507	2.31
470.711	2.15
470.915	2.12
471.119	2.06
471.324	1.92
471.528	1.89
471.732	2.02
471.936	2
472.14	2.04
472.344	2.07
472.548	2.17
472.752	2.34
472.956	2.61
473.16	2.6
473.364	2.55
473.568	2.5
473.772	2.46
473.976	2.27
474.18	2.18
474.384	2.26
474.588	2.23
474.792	2.06
474.995	2.17
475.199	2.28
475.403	2.32
475.607	2.39
475.811	2.38
476.015	2.36
476.218	2.38
476.422	2.29
476.626	2.36
476.83	2.52
477.033	2.47
477.237	2.36
477.441	2.41
477.644	2.38
477.848	2.33
478.052	2.29
478.255	2.29
478.459	2.26
478.663	2.35
478.866	2.39
479.07	2.36
479.273	2.55
479.477	2.66
479.681	2.63
479.884	2.57
480.088	2.57
480.291	2.52
480.495	2.47
480.698	2.47
480.901	2.55
481.105	2.71
481.308	2.65
481.512	2.65
481.715	2.66
481.919	2.68
482.122	2.58
482.325	2.61
482.529	2.64
482.732	2.66
482.935	2.55
483.138	2.53
483.342	2.6
483.545	2.67
483.748	2.63
483.952	2.78
484.155	2.94
484.358	2.95
484.561	2.88
484.764	2.86
484.967	2.84
485.171	2.83
485.374	2.78
485.577	2.83
485.78	2.9
485.983	2.94
486.186	2.82
486.389	2.82
486.592	2.8
486.795	2.82
486.998	2.76
487.201	2.82
487.404	2.92
487.607	3.02
487.81	3
488.013	3.1
488.216	3.08
488.419	3.01
488.622	2.91
488.825	2.88
489.028	2.81
489.231	2.77
489.433	2.74
489.636	2.72
489.839	2.69
490.042	2.59
490.245	2.62
490.447	2.7
490.65	2.74
490.853	2.75
491.056	2.91
491.258	2.95
491.461	2.99
491.664	3.04
491.866	3.05
492.069	3.14
492.272	3.09
492.474	3.13
492.677	3.13
492.879	3.24
493.082	3.27
493.285	3.45
493.487	3.39
493.69	3.4
493.892	3.33
494.095	3.29
494.297	3.25
494.5	3.32
494.702	3.36
494.905	3.44
495.107	3.42
495.309	3.41
495.512	3.46
495.714	3.54
495.917	3.58
496.119	3.6
496.321	3.69
496.524	3.75
496.726	3.74
496.928	3.78
497.13	3.79
497.333	3.77
497.535	3.77
497.737	3.76
497.939	3.79
498.142	3.82
498.344	3.78
498.546	3.67
498.748	3.7
498.95	3.81
499.152	3.81
499.355	3.87
499.557	3.96
499.759	4.06
499.961	3.98
500.163	4.03
500.365	4.01
500.567	4.09
500.769	3.97
500.971	3.95
501.173	3.87
501.375	3.92
501.577	3.83
501.779	3.86
501.981	3.85
502.183	3.92
502.385	3.87
502.587	3.82
502.788	3.89
502.99	3.92
503.192	3.94
503.394	3.92
503.596	3.99
503.798	4.01
503.999	4
504.201	3.97
504.403	4
504.605	4.02
504.806	3.9
505.008	3.92
505.21	3.96
505.411	4.01
505.613	3.98
505.815	4.06
506.016	4.08
506.218	4.2
506.42	4.12
506.621	4.15
506.823	4.15
507.024	4.08
507.226	3.92
507.427	3.94
507.629	3.95
507.83	3.94
508.032	3.97
508.233	4.04
508.435	4.06
508.636	4.07
508.838	3.98
509.039	3.97
509.24	3.98
509.442	4.02
509.643	3.96
509.845	4.01
510.046	4.03
510.247	3.96
510.448	3.94
510.65	3.95
510.851	4.08
511.052	4.09
511.254	4.12
511.455	4.2
511.656	4.25
511.857	4.27
512.058	4.27
512.26	4.22
512.461	4.1
512.662	4.07
512.863	3.93
513.064	3.87
513.265	3.93
513.466	3.99
513.667	3.96
513.868	3.99
514.069	4.06
514.27	4.06
514.471	3.99
514.672	4.02
514.873	3.95
515.074	3.98
515.275	3.9
515.476	3.9
515.677	3.94
515.878	4.11
516.079	4.06
516.28	4.14
516.481	4.23
516.682	4.24
516.882	4.1
517.083	4.04
517.284	3.96
517.485	3.91
517.686	3.79
517.886	3.83
518.087	3.95
518.288	4.01
518.488	3.96
518.689	4
518.89	3.95
519.091	3.93
519.291	3.94
519.492	4.02
519.692	4.08
519.893	4.18
520.094	4.16
520.294	4.17
520.495	4.1
520.695	4.08
520.896	4.05
521.096	4.05
521.297	4.02
521.497	4.02
521.698	3.96
521.898	3.92
522.099	3.94
522.299	3.98
522.499	4
522.7	4.05
522.9	4.07
523.101	4.13
523.301	4.12
523.501	4.13
523.702	4.15
523.902	4.18
524.102	4.18
524.302	4.15
524.503	4.22
524.703	4.2
524.903	4.24
525.103	4.16
525.304	4.29
525.504	4.31
525.704	4.39
525.904	4.35
526.104	4.37
526.304	4.28
526.504	4.25
526.705	4.23
526.905	4.29
527.105	4.33
527.305	4.35
527.505	4.29
527.705	4.26
527.905	4.2
528.105	4.18
528.305	4.12
528.505	4.18
528.705	4.29
528.905	4.3
529.105	4.34
529.304	4.43
529.504	4.47
529.704	4.37
529.904	4.32
530.104	4.3
530.304	4.39
530.503	4.38
530.703	4.33
530.903	4.41
531.103	4.43
531.303	4.3
531.502	4.28
531.702	4.4
531.902	4.44
532.101	4.4
532.301	4.39
532.501	4.44
532.7	4.41
532.9	4.41
533.1	4.47
533.299	4.52
533.499	4.53
533.698	4.49
533.898	4.42
534.097	4.41
534.297	4.49
534.496	4.47
534.696	4.52
534.895	4.66
535.095	4.73
535.294	4.68
535.494	4.6
535.693	4.62
535.892	4.63
536.092	4.52
536.291	4.46
536.491	4.57
536.69	4.6
536.889	4.5
537.088	4.52
537.288	4.64
537.487	4.67
537.686	4.64
537.886	4.68
538.085	4.75
538.284	4.84
538.483	4.78
538.682	4.86
538.882	4.86
539.081	4.89
539.28	4.71
539.479	4.71
539.678	4.7
539.877	4.81
540.076	4.78
540.275	4.85
540.474	4.99
540.673	4.98
540.872	4.9
541.071	4.94
541.27	4.99
541.469	4.95
541.668	4.98
541.867	5.02
542.066	5.08
542.265	5.11
542.464	5.12
542.663	5.1
542.862	5.2
543.06	5.24
543.259	5.25
543.458	5.31
543.657	5.4
543.856	5.43
544.054	5.4
544.253	5.4
544.452	5.38
544.651	5.39
544.849	5.35
545.048	5.37
545.247	5.37
545.445	5.44
545.644	5.39
545.843	5.35
546.041	5.36
546.24	5.49
546.438	5.53
546.637	5.65
546.836	5.74
547.034	5.83
547.233	5.77
547.431	5.75
547.63	5.78
547.828	5.8
548.027	5.79
548.225	5.79
548.423	5.82
548.622	5.85
548.82	5.85
549.019	5.86
549.217	6
549.415	6.05
549.614	6.04
549.812	5.99
550.01	5.97
550.209	5.92
550.407	5.95
550.605	6.01
550.803	6.17
551.002	6.27
551.2	6.3
551.398	6.39
551.596	6.46
551.794	6.49
551.993	6.54
552.191	6.63
552.389	6.73
552.587	6.79
552.785	6.83
552.983	6.88
553.181	6.96
553.379	6.89
553.577	6.9
553.775	6.96
553.973	7
554.171	7.02
554.369	7.05
554.567	7.07
554.765	7.13
554.963	7.19
555.161	7.15
555.359	7.25
555.557	7.38
555.755	7.42
555.952	7.53
556.15	7.58
556.348	7.58
556.546	7.64
556.744	7.65
556.941	7.68
557.139	7.81
557.337	7.87
557.535	7.84
557.732	7.96
557.93	8.09
558.128	8.14
558.325	8.26
558.523	8.32
558.721	8.4
558.918	8.32
559.116	8.4
559.313	8.4
559.511	8.59
559.708	8.53
559.906	8.62
560.104	8.62
560.301	8.71
560.498	8.64
560.696	8.74
560.893	8.84
561.091	8.97
561.288	9.09
561.486	9.21
561.683	9.31
561.88	9.37
562.078	9.48
562.275	9.41
562.473	9.45
562.67	9.54
562.867	9.65
563.064	9.7
563.262	9.81
563.459	9.88
563.656	9.97
563.853	9.99
564.051	10.04
564.248	10.18
564.445	10.3
564.642	10.31
564.839	10.38
565.036	10.48
565.234	10.6
565.431	10.68
565.628	10.74
565.825	10.85
566.022	10.91
566.219	10.88
566.416	10.95
566.613	11.03
566.81	11.16
567.007	11.11
567.204	11.12
567.401	11.14
567.598	11.24
567.795	11.15
567.991	11.26
568.188	11.38
568.385	11.44
568.582	11.45
568.779	11.6
568.976	11.66
569.172	11.79
569.369	11.84
569.566	11.96
569.763	11.99
569.96	12.01
570.156	11.91
570.353	11.92
570.55	11.91
570.746	12.02
570.943	12.12
571.14	12.23
571.336	12.32
571.533	12.45
571.729	12.42
571.926	12.49
572.123	12.62
572.319	12.64
572.516	12.61
572.712	12.67
572.909	12.67
573.105	12.75
573.302	12.82
573.498	12.96
573.695	12.97
573.891	13.05
574.087	12.98
574.284	12.96
574.48	12.91
574.677	13
574.873	13.03
575.069	13.21
575.266	13.31
575.462	13.25
575.658	13.33
575.854	13.39
576.051	13.34
576.247	13.27
576.443	13.34
576.639	13.31
576.835	13.23
577.032	13.21
577.228	13.33
577.424	13.45
577.62	13.32
577.816	13.44
578.012	13.44
578.208	13.4
578.404	13.37
578.6	13.49
578.796	13.46
578.993	13.53
579.189	13.52
579.384	13.38
579.58	13.32
579.776	13.32
579.972	13.2
580.168	13.25
580.364	13.36
580.56	13.42
580.756	13.34
580.952	13.35
581.148	13.33
581.343	13.32
581.539	13.41
581.735	13.46
581.931	13.51
582.127	13.51
582.322	13.51
582.518	13.49
582.714	13.51
582.909	13.47
583.105	13.47
583.301	13.49
583.496	13.47
583.692	13.44
583.888	13.38
584.083	13.39
584.279	13.36
584.474	13.28
584.67	13.35
584.866	13.38
585.061	13.3
585.257	13.39
585.452	13.39
585.648	13.3
585.843	13.34
586.039	13.4
586.234	13.31
586.429	13.3
586.625	13.35
586.82	13.35
587.015	13.3
587.211	13.24
587.406	13.27
587.601	13.22
587.797	13.24
587.992	13.25
588.187	13.37
588.383	13.32
588.578	13.35
588.773	13.37
588.968	13.45
589.163	13.54
589.359	13.58
589.554	13.61
589.749	13.57
589.944	13.61
590.139	13.56
590.334	13.6
590.529	13.58
590.724	13.62
590.919	13.68
591.114	13.67
591.309	13.76
591.504	13.84
591.699	13.88
591.894	13.87
592.089	13.88
592.284	13.83
592.479	13.85
592.674	13.74
592.869	13.75
593.064	13.78
593.259	13.93
593.454	14
593.648	14.15
593.843	14.25
594.038	14.36
594.233	14.31
594.428	14.35
594.622	14.36
594.817	14.45
595.012	14.43
595.206	14.41
595.401	14.5
595.596	14.65
595.79	14.66
595.985	14.82
596.18	15.04
596.374	15.09
596.569	15.12
596.763	15.14
596.958	15.26
597.153	15.31
597.347	15.34
597.542	15.47
597.736	15.48
597.931	15.43
598.125	15.44
598.319	15.59
598.514	15.53
598.708	15.66
598.903	15.68
599.097	15.73
599.291	15.69
599.486	15.74
599.68	15.72
599.874	15.92
600.069	15.97
600.263	16.04
600.457	16.08
600.651	16.15
600.846	16.14
601.04	16.16
601.234	16.18
601.428	16.32
601.622	16.38
601.817	16.34
602.011	16.34
602.205	16.38
602.399	16.31
602.593	16.27
602.787	16.31
602.981	16.4
603.175	16.41
603.369	16.38
603.563	16.41
603.757	16.46
603.951	16.38
604.145	16.28
604.339	16.4
604.533	16.31
604.727	16.29
604.921	16.33
605.115	16.43
605.309	16.46
605.502	16.57
605.696	16.46
605.89	16.37
606.084	16.33
606.278	16.21
606.471	16.08
606.665	16.06
606.859	16.03
607.053	15.97
607.246	15.88
607.44	15.95
607.634	15.89
607.827	15.97
608.021	15.84
608.214	15.83
608.408	15.7
608.602	15.71
608.795	15.57
608.989	15.57
609.182	15.54
609.376	15.51
609.569	15.44
609.763	15.39
609.956	15.34
610.15	15.24
610.343	15.21
610.537	15.09
610.73	15.15
610.923	15.1
611.117	15.09
611.31	15.01
611.504	14.98
611.697	14.78
611.89	14.71
612.083	14.64
612.277	14.6
612.47	14.53
612.663	14.53
612.856	14.5
613.05	14.43
613.243	14.37
613.436	14.34
613.629	14.27
613.822	14.16
614.015	14.06
614.209	13.93
614.402	13.95
614.595	13.88
614.788	13.86
614.981	13.74
615.174	13.67
615.367	13.51
615.56	13.41
615.753	13.41
615.946	13.42
616.139	13.45
616.332	13.55
616.525	13.61
616.718	13.55
616.911	13.55
617.103	13.53
617.296	13.46
617.489	13.38
617.682	13.26
617.875	13.19
618.067	13.11
618.26	13.02
618.453	13.08
618.646	13.07
618.838	13.09
619.031	13.25
619.224	13.27
619.417	13.17
619.609	13.21
619.802	13.24
619.994	13.08
620.187	13.06
620.38	13
620.572	13.02
620.765	13.01
620.957	12.92
621.15	12.84
621.342	12.8
621.535	12.75
621.727	12.63
621.92	12.61
622.112	12.54
622.305	12.6
622.497	12.5
622.69	12.51
622.882	12.55
623.074	12.67
623.267	12.52
623.459	12.54
623.651	12.42
623.844	12.44
624.036	12.4
624.228	12.43
624.42	12.38
624.613	12.55
624.805	12.46
624.997	12.41
625.189	12.31
625.381	12.39
625.574	12.27
625.766	12.2
625.958	12.18
626.15	12.37
626.342	12.34
626.534	12.38
626.726	12.35
626.918	12.35
627.11	12.17
627.302	12.05
627.494	11.98
627.686	12.04
627.878	12.04
628.07	12.02
628.262	12.05
628.454	12.11
628.646	12.09
628.838	12.1
629.029	12.1
629.221	12.07
629.413	11.94
629.605	11.86
629.797	11.73
629.989	11.76
630.18	11.75
630.372	11.75
630.564	11.77
630.755	11.86
630.947	11.91
631.139	11.85
631.33	11.79
631.522	11.89
631.714	11.79
631.905	11.7
632.097	11.62
632.289	11.65
632.48	11.58
632.672	11.54
632.863	11.42
633.055	11.45
633.246	11.46
633.438	11.35
633.629	11.39
633.821	11.43
634.012	11.46
634.203	11.36
634.395	11.41
634.586	11.38
634.777	11.28
634.969	11.29
635.16	11.34
635.351	11.25
635.543	11.27
635.734	11.32
635.925	11.3
636.117	11.29
636.308	11.29
636.499	11.2
636.69	11.17
636.881	11.07
637.073	11.13
637.264	11.14
637.455	11.2
637.646	11.29
637.837	11.42
638.028	11.34
638.219	11.41
638.41	11.33
638.601	11.21
638.792	11.2
638.983	11.16
639.174	11.03
639.365	11.14
639.556	11.17
639.747	11.08
639.938	11.15
640.129	11.15
640.32	10.98
640.511	11.01
640.701	11.09
640.892	10.95
641.083	11.09
641.274	11.19
641.465	11.2
641.655	11.11
641.846	11.17
642.037	11.07
642.228	10.93
642.418	10.97
642.609	10.98
642.8	11.01
642.99	10.93
643.181	11.05
643.372	11.01
643.562	11
643.753	10.87
643.943	10.88
644.134	10.7
644.324	10.62
644.515	10.62
644.705	10.75
644.896	10.74
645.086	10.87
645.277	10.86
645.467	10.86
645.658	10.74
645.848	10.71
646.038	10.63
646.229	10.54
646.419	10.47
646.61	10.45
646.8	10.4
646.99	10.41
647.18	10.42
647.371	10.44
647.561	10.38
647.751	10.46
647.941	10.44
648.132	10.38
648.322	10.34
648.512	10.55
648.702	10.46
648.892	10.48
649.082	10.51
649.272	10.35
649.462	10.16
649.653	10.06
649.843	9.95
650.033	9.95
650.223	9.99
650.413	9.95
650.603	9.97
650.793	10.02
650.983	9.94
651.172	9.89
651.362	9.83
651.552	9.84
651.742	9.68
651.932	9.66
652.122	9.65
652.312	9.73
652.502	9.71
652.691	9.8
652.881	9.74
653.071	9.78
653.261	9.57
653.45	9.33
653.64	9.28
653.83	9.23
654.019	9.08
654.209	9.1
654.399	9.21
654.588	9.06
654.778	8.97
654.968	8.85
655.157	8.79
655.347	8.64
655.536	8.55
655.726	8.42
655.915	8.4
656.105	8.28
656.294	8.26
656.484	8.07
656.673	7.99
656.863	7.9
657.052	7.79
657.241	7.55
657.431	7.4
657.62	7.35
657.809	7.06
657.999	6.94
658.188	6.8
658.377	6.7
658.567	6.56
658.756	6.51
658.945	6.37
659.134	6.35
659.324	6.36
659.513	6.25
659.702	6.19
659.891	6.16
660.08	6.01
660.269	5.92
660.458	5.78
660.648	5.65
660.837	5.51
661.026	5.48
661.215	5.34
661.404	5.27
661.593	5.24
661.782	5.01
661.971	4.99
662.16	4.92
662.349	4.92
662.538	4.82
662.726	4.93
662.915	4.77
663.104	4.69
663.293	4.61
663.482	4.7
663.671	4.59
663.86	4.52
664.048	4.48
664.237	4.44
664.426	4.2
664.615	4.21
664.803	4.12
664.992	4.09
665.181	3.99
665.369	3.96
665.558	3.82
665.747	3.78
665.935	3.77
666.124	3.81
666.312	3.87
666.501	3.86
666.69	3.87
666.878	3.83
667.067	3.68
667.255	3.75
667.444	4.04
667.632	4.11
667.82	4.16
668.009	4.22
668.197	4.08
668.386	3.88
668.574	3.98
668.762	3.88
668.951	3.81
669.139	3.8
669.327	3.68
669.516	3.64
669.704	3.6
669.892	3.7
670.08	3.71
670.269	3.64
670.457	3.51
670.645	3.45
670.833	3.46
671.021	3.46
671.21	3.48
671.398	3.68
671.586	3.79
671.774	3.73
671.962	3.74
672.15	3.8
672.338	3.59
672.526	3.55
672.714	3.41
672.902	3.51
673.09	3.62
673.278	3.92
673.466	3.95
673.654	4.16
673.842	4.05
674.03	4.05
674.218	3.78
674.405	3.73
674.593	3.63
674.781	3.77
674.969	3.79
675.157	4.01
675.344	4.19
675.532	4.3
675.72	4.33
675.908	4.34
676.095	4.1
676.283	4.06
676.471	4.13
676.658	4.04
676.846	4.08
677.033	4.4
677.221	4.39
677.409	4.29
677.596	4.35
677.784	4.27
677.971	4.14
678.159	4.2
678.346	4.39
678.534	4.46
678.721	4.72
678.909	4.61
679.096	4.57
679.283	4.7
679.471	4.81
679.658	4.76
679.846	5.15
680.033	5.4
680.22	5.38
680.408	5.29
680.595	5.42
680.782	5.27
680.969	5.25
681.157	5.18
681.344	5.32
681.531	5.32
681.718	5.38
681.905	5.48
682.093	5.71
682.28	5.92
682.467	6.09
682.654	6.16
682.841	6.21
683.028	6.3
683.215	6.29
683.402	6.17
683.589	6.36
683.776	6.57
683.963	6.59
684.15	6.83
684.337	7
684.524	7.05
684.711	7.12
684.898	7.23
685.085	7.35
685.271	7.68
685.458	7.86
685.645	7.95
685.832	8.18
686.019	8.4
686.205	8.52
686.392	8.85
686.579	9.06
686.766	9.34
686.952	9.44
687.139	9.9
687.326	10.06
687.512	10.42
687.699	10.65
687.886	10.9
688.072	10.88
688.259	11.1
688.445	11.43
688.632	11.54
688.818	12.01
689.005	12.41
689.191	12.9
689.378	13.32
689.564	13.88
689.751	14.24
689.937	14.65
690.124	15.01
690.31	15.27
690.496	15.75
690.683	16.29
690.869	16.66
691.055	17.15
691.242	17.89
691.428	18.47
691.614	18.87
691.8	19.62
691.987	20.27
692.173	20.76
692.359	21.49
692.545	22.26
692.731	22.72
692.918	23.35
693.104	23.81
693.29	24.25
693.476	24.89
693.662	25.76
693.848	26.16
694.034	26.82
694.22	27.32
694.406	27.94
694.592	28.34
694.778	29.15
694.964	29.76
695.15	30.51
695.336	31.22
695.522	32.26
695.708	32.99
695.894	34.04
696.08	34.88
696.265	35.31
696.451	35.74
696.637	36.42
696.823	36.96
697.009	37.49
697.194	38.32
697.38	38.83
697.566	39.46
697.751	40.14
697.937	40.99
698.123	41.56
698.308	42.44
698.494	42.95
698.68	43.39
698.865	44.02
699.051	44.79
699.236	45.29
699.422	45.85
699.607	46.71
699.793	47.37
699.978	47.85
700.164	48.37
700.349	49.74
700.535	50.18
700.72	50.66
700.906	51.4
701.091	52.16
701.276	52.07
701.462	52.93
701.647	53.54
701.832	54.3
702.018	54.7
702.203	55.38
702.388	55.59
702.573	56.08
702.759	56.8
702.944	57.28
703.129	57.58
703.314	58.21
703.499	58.8
703.684	58.82
703.87	59.92
704.055	60.87
704.24	61.3
704.425	62.06
704.61	62.56
704.795	62.58
704.98	62.63
705.165	62.98
705.35	62.86
705.535	63.2
705.72	63.66
705.905	64.63
706.09	65.17
706.275	65.63
706.459	65.67
706.644	65.72
706.829	65.47
707.014	65.78
707.199	66.36
707.384	67.31
707.568	67.7
707.753	68.46
707.938	68.83
708.123	68.89
708.307	68.82
708.492	69.34
708.677	69.58
708.861	69.65
709.046	69.65
709.231	70.57
709.415	70.91
709.6	70.99
709.784	71.12
709.969	71.63
710.153	71.24
710.338	71.24
710.522	71.56
710.707	72.13
710.891	72.37
711.076	72.83
711.26	72.94
711.445	73.16
711.629	73.33
711.813	73.67
711.998	73.94
712.182	74.25
712.366	74.78
712.551	75.65
712.735	75.75
712.919	75.78
713.103	76.2
713.288	75.77
713.472	75.28
713.656	76.04
713.84	76.22
714.024	76.34
714.208	76.32
714.393	76.86
714.577	76.54
714.761	76.64
714.945	76.94
715.129	77.6
715.313	77.72
715.497	78.1
715.681	78.94
715.865	78.82
716.049	79.12
716.233	78.65
716.417	78.75
716.601	78.38
716.785	78.36
716.968	78.55
717.152	78.88
717.336	78.51
717.52	78.46
717.704	78.69
717.888	79.07
718.071	79.23
718.255	79.94
718.439	79.95
718.622	80.2
718.806	80.29
718.99	80.08
719.174	79.75
719.357	80.04
719.541	79.92
719.724	79.71
719.908	80.83
720.092	81.34
720.275	81.32
720.459	81.65
720.642	81.39
720.826	80.73
721.009	80.45
721.193	80.58
721.376	81.02
721.559	81.43
721.743	81.84
721.926	82.44
722.11	82.85
722.293	82.05
722.476	81.59
722.66	80.96
722.843	81.04
723.026	80.25
723.21	80.85
723.393	81.9
723.576	82.38
723.759	82.12
723.942	83.14
724.126	83.29
724.309	83.09
724.492	83.7
724.675	83.62
724.858	83.69
725.041	84.21
725.224	84.13
725.407	84.08
725.59	84.89
725.774	84.74
725.957	83.69
726.14	83.61
726.322	83.41
726.505	82.93
726.688	83.63
726.871	84.08
727.054	84.13
727.237	84.22
727.42	84.35
727.603	84.19
727.786	84.8
727.968	85.05
728.151	85.12
728.334	85.22
728.517	85.39
728.699	85.37
728.882	85.49
729.065	85.6
729.248	85.57
729.43	85.76
729.613	86.61
729.796	87
729.978	86.87
730.161	86.48
730.343	86.01
730.526	85.88
730.708	85.22
730.891	85.91
731.073	86.24
731.256	86.1
731.438	85.95
731.621	86.91
731.803	87.19
731.986	87.12
732.168	86.59
732.35	86.37
732.533	85.61
732.715	85.01
732.898	85.87
733.08	86.52
733.262	87.36
733.444	87.31
733.627	87.42
733.809	87.84
733.991	88.59
734.173	87.42
734.355	87.76
734.538	88.49
734.72	87.76
734.902	87.61
735.084	88.28
735.266	88.81
735.448	88.96
735.63	88.89
735.812	88.78
735.994	89.57
736.176	89.14
736.358	88.09
736.54	89.6
736.722	88.84
736.904	87.96
737.086	88.67
737.268	90.33
737.45	88.83
737.632	89.6
737.814	89.12
737.995	88.4
738.177	87.61
738.359	87.25
738.541	87.22
738.723	87.91
738.904	88.88
739.086	89.32
739.268	89.65
739.449	90.24
739.631	90.13
739.813	89.67
739.994	88.96
740.176	89.74
740.358	89.4
740.539	90.23
740.721	90.74
740.902	91.84
741.084	91.37
741.265	91.34
741.447	91.04
741.628	91.52
741.81	90.46
741.991	91.07
742.172	91.57
742.354	91.81
742.535	91.17
742.717	92.04
742.898	91.71
743.079	91.78
743.261	90.63
743.442	88.86
743.623	88.7
743.804	88.54
743.986	88.78
744.167	88.3
744.348	89.8
744.529	88.86
744.71	88.2
744.891	87.17
745.073	87.43
745.254	87.59
745.435	87.85
745.616	87.85
745.797	88.04
745.978	88.1
746.159	88.29
746.34	88.09
746.521	90.71
746.702	90.71
746.883	91.37
747.064	90.62
747.245	91.44
747.426	89.19
747.606	89.43
747.787	89.86
747.968	89.62
748.149	89.17
748.33	90.09
748.51	89.53
748.691	89.28
748.872	90.72
749.053	90.62
749.233	89.54
749.414	88.92
749.595	88.21
749.775	86.52
749.956	86.25
750.137	87
750.317	88.56
750.498	90
750.678	89.9
750.859	90.76
751.04	90.27
751.22	89.62
751.4	88.22
751.581	87.96
751.761	88.13
751.942	88.74
752.122	89.37
752.303	88.61
752.483	88.62
752.663	88.29
752.844	87.32
753.024	87.28
753.204	88.71
753.385	88.28
753.565	88.36
753.745	88.96
753.925	88.49
754.106	87.62
754.286	88.48
754.466	87.52
754.646	87.69
754.826	86.91
755.006	86.35
755.187	87.8
755.367	88.85
755.547	88.83
755.727	89.95
755.907	90.78
756.087	89.67
756.267	88.21
756.447	87.95
756.627	86.52
756.807	87.53
756.987	86.85
757.167	86.65
757.346	86.66
757.526	85.97
757.706	85.83
757.886	86.94
758.066	88.79
758.246	89.98
758.425	91.27
758.605	90.52
758.785	90.66
758.965	90.8
759.144	88.7
759.324	88.67
759.504	89.23
759.683	88.59
759.863	85.79
760.043	85.19
760.222	85.6
760.402	84.76
760.581	84.55
760.761	86.39
760.94	86.29
761.12	88.47
761.299	88.59
761.479	88.57
761.658	87.14
761.838	87.19
762.017	85.51
762.197	86.42
762.376	86.19
762.555	88.12
762.735	89.37
762.914	87.2
763.093	86.34
763.273	85.92
763.452	84.88
763.631	84.1
763.81	84.6
763.99	82.99
764.169	83.89
764.348	82.93
764.527	81.75
764.706	84.25
764.885	86.08
765.064	83.88
765.243	84.06
765.423	86.23
765.602	84.97
765.781	82.8
765.96	83.14
766.139	82.62
766.318	82.74
766.497	81.18
766.676	83.76
766.854	86.26
767.033	87.14
767.212	85.21
767.391	86.17
767.57	86.32
767.749	85.02
767.928	85.95
768.106	87.09
768.285	84.89
768.464	82.85
768.643	82.75
768.821	83.19
769	84.68
769.179	85.63
769.357	86.19
769.536	86.01
769.715	85.88
769.893	86.38
770.072	86.39
770.25	86.98
770.429	88.46
770.607	87.05
770.786	86.25
770.964	87.12
771.143	85.97
771.321	85.27
771.5	85.4
771.678	82.35
771.857	80.86
772.035	81.65
772.213	82.01
772.392	80.57
772.57	83.98
772.748	85.75
772.927	84.25
773.105	82.67
773.283	84.27
773.461	85.01
773.64	85.42
773.818	86
773.996	87.23
774.174	86.02
774.352	81.57
774.531	77.94
774.709	80.42
774.887	79.54
775.065	79.65
775.243	79.6
775.421	81.86
775.599	81.77
775.777	79.6
775.955	76.59
776.133	77.77
776.311	77.2
776.489	74.21
776.667	75.78
776.844	79.9
777.022	78.62
777.2	77.11
777.378	78.5
777.556	78.94
777.734	80.81
777.911	82.51
778.089	85.49
778.267	86.47
778.445	83.39
778.622	78.92
778.8	79.17
778.978	80.69
779.155	77.28
779.333	80.4
779.511	81.64
779.688	84.4
779.866	76.56
780.043	75.29
780.221	76.13
780.398	74.99
780.576	72.91
780.753	76.9
780.931	77.98
781.108	76.34
781.286	80.16
781.463	76.92
781.64	74.65
781.818	77.49
781.995	79.08
782.172	75.71
782.35	78.9
782.527	85.36
782.704	83.71
782.882	84.08
783.059	84.02
783.236	84.08
783.413	83.44
783.59	84.47
783.768	81.32
783.945	85.54
784.122	83.05
784.299	81.76
784.476	78.8
784.653	77.9
784.83	71.09
785.007	67.66
785.184	68.26
785.361	69.32
785.538	74.23
785.715	78.9
785.892	80.83
786.069	81.83
786.246	83.71
786.423	80.51
786.6	77.76
786.776	80.77
786.953	78.08
787.13	81.48
787.307	81.59
787.484	82.16
787.66	79.67
787.837	78.83
788.014	73.2
788.191	70.98
788.367	68.84
788.544	74.9
788.721	74.99
788.897	75.61
789.074	79.17
789.25	79.91
789.427	76.03
789.603	76.93
789.78	80.14
789.956	76.63
790.133	73.76
790.309	76.38
790.486	80.77
790.662	77.9
790.839	78.75
791.015	81.86
791.192	77.82
791.368	75.32
791.544	69.9
791.721	69.48
791.897	68.32
792.073	68.7
792.249	61.82
792.426	68.62
792.602	74.76
792.778	75.81
792.954	68.41
793.13	73.57
793.307	64.6
793.483	52.55
793.659	53.14
793.835	64.77
794.011	63.07
794.187	69.31
794.363	69.2
794.539	72.76
794.715	61.87
794.891	63.12
795.067	63.22
795.243	70.45
795.419	66.2
795.595	68.3
795.771	64.98
795.947	66.49
796.122	61.76
796.298	64.26
796.474	69.1
796.65	71.28
796.826	69.02
797.001	68.74
797.177	62.07
797.353	64.72
797.529	67.91
797.704	69.47
797.88	71.09
798.056	72.43
798.231	68.93
798.407	69.86
798.582	67.63
798.758	74.29
798.934	81.29
799.109	77.06
799.285	72.17
799.46	78.79
799.636	73.27
799.811	69.92
799.986	73.5
800.162	76.18
800.337	78.29
800.513	75.39
800.688	75.02
800.863	83.81
801.039	76.72
801.214	69.85
801.389	79.26
801.565	79.69
801.74	62.69
801.915	69.75
802.09	66.38
802.265	66.26
802.441	64.32
802.616	69.61
802.791	67.73
802.966	68.24
803.141	65.12
803.316	63.09
803.491	66.86
803.666	68.17
803.841	72.85
804.016	65.29
804.191	67.14
804.366	58.82
804.541	56.93
804.716	51.1
804.891	48.13
805.066	54.58
805.241	60.27
805.416	61.91
805.591	57.88
805.765	66.91
805.94	62.12
806.115	54.72
806.29	43.82
806.464	49.14
806.639	40.93
806.814	36.74
806.989	37.01
807.163	52.67
807.338	55.13
807.512	61.32
807.687	51.23
807.862	66.87
808.036	65.93
808.211	63.5
808.385	64.59
808.56	85.17
808.734	77.26
808.909	67.83
809.083	63.69
809.258	68.34
809.432	59.52
809.606	53.49
809.781	51.85
809.955	62.27
810.13	71.1
810.304	66.41
810.478	61.19
810.652	72.33
810.827	68.96
811.001	53.15
811.175	54.57
811.349	56.57
811.524	51.22
811.698	41.02
811.872	44.37
812.046	55.01
812.22	63.77
812.394	57.18
812.568	61.07
812.742	68.49
812.916	55.43
813.09	47.74
813.264	48.38
813.438	60.54
813.612	52.84
813.786	56.06
813.96	73.73
814.134	82.53
814.308	86.26
814.482	86.66
814.656	85.22
814.83	77.45
815.003	76.01
815.177	59.4
815.351	49.8
815.525	47.94
815.698	37.48
815.872	24.1
816.046	16.26
816.219	28.15
816.393	44.41
816.567	48.89
816.74	59.78
816.914	72.62
817.088	78.14
817.261	57.57
817.435	50.41
817.608	42.35
817.782	21.53
817.955	18.92
818.129	21.74
818.302	33.59
818.475	55.1
818.649	67.3
818.822	55.22
818.996	80.81
819.169	77.03
819.342	49.18
819.516	52.12
819.689	63.74
819.862	50.52
820.035	37.68
820.209	44.4
820.382	45.47
820.555	50.44
820.728	32.02
820.901	29.78
821.075	26.61
821.248	24.4
821.421	-2.8
821.594	10.47
821.767	42.77
821.94	64.47
822.113	38.63
822.286	46.35
822.459	50.47
822.632	33.94
822.805	3.38
822.978	16.12
823.151	11.82
823.324	7.02
823.496	-13.01
823.669	-1.65
823.842	4.41
824.015	-5.89
824.188	9.35
824.361	28.77
824.533	14.89
824.706	21.95
824.879	22.22
825.051	23.73
825.224	19.16
825.397	19.59
825.569	6.2
825.742	37.01
825.915	32.64
826.087	40.27
826.26	33.24
826.432	44.33
826.605	31.09
826.777	31.12
826.95	38.35
827.122	32.23
827.295	26.53
827.467	28.75
827.64	9.28
827.812	-12.29
827.984	5.01
828.157	-11.49
828.329	-47.5
828.501	-30.73
828.674	3.06
828.846	-7.49
829.018	22.66
829.19	14.48
829.363	26.2
829.535	22.09
829.707	9.54
829.879	-28.92
830.051	-29.51
830.223	-48.91
830.395	-95.34
830.568	-78.79
830.74	-61.82
830.912	-21.1
831.084	-16.57
831.256	-4.55
831.428	-5.87
831.6	-16.42
831.772	-48.88
831.943	-76.45
832.115	-32.07
832.287	-11.4
832.459	6.46
832.631	23.02
832.803	52.55
832.975	59.94
833.146	42.07
833.318	40.37
833.49	54.35
833.662	30.41
833.833	-1.49
834.005	9.27
834.177	6.67
834.348	-3.89
834.52	-16.51
834.692	-16.36
834.863	-60.3
835.035	-40.37
835.206	-115.01
835.378	-89.55
835.549	-83.13
835.721	-52.52
835.892	-40.82
836.064	-14.88
836.235	6.93
836.407	32.42
836.578	6.9
836.749	4.05
836.921	1.24
837.092	-35.94
837.264	-55.89
837.435	-73.48
837.606	-30.46
837.777	-6.64
837.949	8.51
838.12	20.06
838.291	39.74
838.462	24.01
838.633	1.38
838.805	1.23
838.976	5.58
839.147	-43.79
839.318	-47.5
839.489	-97.74
839.66	-88.24
839.831	-43.6
840.002	-26.8
840.173	-43.76
840.344	33.44
840.515	15.29
840.686	-166.65
840.857	-144.84
841.028	-133.78
841.199	-134.87
841.369	-130.84
841.54	-67.22
841.711	-18.71
841.882	14.43
842.053	-0.99
842.223	-1.44
842.394	11.22
842.565	12.46
842.736	21.73
842.906	28.34
843.077	36.96
843.248	52.5
843.418	29.73
843.589	-30.61
843.759	26.78
843.93	27.23
844.101	14.6
844.271	29.65
844.442	33.91
844.612	35.91
844.783	12.15
844.953	-40.47
845.123	-72.43
845.294	-70.38
845.464	-292.91
845.635	-151.77
845.805	-16.65
845.975	-5.77
846.146	-47.38
846.316	-50.83
846.486	-18.67
846.656	11.95
846.827	6.63
846.997	18.21
847.167	64.45
847.337	22.5
847.507	-30.11
847.677	3.32
847.848	49.73
848.018	42.26
848.188	49.38
848.358	30.8
848.528	-1.27
848.698	-60.66
848.868	-207.76
849.038	-344.17
849.208	-136.88
849.378	-60.11
849.548	-35.84
849.718	3.58
849.887	25.65
850.057	7.26
850.227	-42.88
850.397	-55.8
850.567	-142.09
850.737	-386.2
850.906	-1365.31
851.076	-869.73
851.246	-515.31
851.415	-58.35
851.585	-31.03
851.755	-48.31
851.924	-25.48
852.094	-49.24
852.264	-197.84
852.433	-1283.89
852.603	-216.15
852.772	-51.28
852.942	-3.2
853.111	-17.72
853.281	30.53
853.45	64.78
853.62	-46.27
853.789	-61.34
853.959	-24.67
854.128	-50.36
854.297	-89.38
854.467	-100.55
854.636	-105.73
854.805	-55.07
854.975	-83.42
855.144	-150.48
855.313	98.43
855.482	-230.11
855.652	-78.26
855.821	-78.56
855.99	22.67
856.159	23.11
856.328	27.94
856.497	20.52
856.667	33.77
856.836	16.71
857.005	-16.85
857.174	-33.74
857.343	-76.02
857.512	-51.93
857.681	-84.57
857.85	-133.61
858.019	-60.64
858.188	-47.8
858.356	-85.41
858.525	-157.81
858.694	-141.08
858.863	-261.85
859.032	-206.1
859.201	-219.41
859.369	-38.33
859.538	1.22
859.707	-36.5
859.876	-47.39
860.044	-42.9
860.213	-7.2
860.382	-21.47
860.55	-13.77
860.719	36.71
860.888	28.33
861.056	-3.01
861.225	-31.37
861.393	10.73
861.562	-20.33
861.73	-104.35
861.899	-403.8
862.067	-2483.62
862.236	-192.71
862.404	-327.74
862.572	-171.65
862.741	-44.69
862.909	-42.24
863.078	-117.68
863.246	-68.63
863.414	-53.72
863.582	-31.3
863.751	-44.15
863.919	-20.84
864.087	-38.67
864.255	-76.3
864.424	-459.06
864.592	-91.24
864.76	-222.76
864.928	-530.6
865.096	-177.79
865.264	-100.34
865.432	-1875.57
865.6	-13.63
865.768	-82.9
865.936	-98.26
866.104	-87.58
866.272	-38.52
866.44	-418.21
866.608	805.57
866.776	479.09
866.944	4514.53
867.112	-846.72
867.28	-288.57
867.448	-100.15
867.615	-20.74
867.783	-4.02
867.951	-27.27
868.119	-9.43
868.286	-22.76
868.454	-119.62
868.622	-138.96
868.789	-177.16
868.957	-3323.21
869.125	-2992.76
869.292	-181.39
869.46	-256.95
869.627	11.24
869.795	-16.13
869.963	16.29
870.13	23.66
870.298	55.79
870.465	-45.74
870.632	-49.55
870.8	-32.4
870.967	-97.41
871.135	-201.97
871.302	-170.44
871.469	-224.39
871.637	-259.52
871.804	-145.26
871.971	-185.03
872.139	-542.91
872.306	-42.97
872.473	-73.46
872.64	-307.83
872.807	-91.64
872.975	10.94
873.142	-196.45
873.309	1897.97
873.476	53.68
873.643	113.78
873.81	37.39
873.977	51.79
874.144	37.47
874.311	-139.82
874.478	-169.87
874.645	-163.54
874.812	-105.8
874.979	-61.33
875.146	-95.42
875.313	-134.5
875.48	-39.75
875.647	-63.64
875.813	-117.05
875.98	-70.71
876.147	-76.97
876.314	-175.75
876.481	1329.13
876.647	-1301.4
876.814	528.63
876.981	-61.25
877.147	-35.67
877.314	18.04
877.481	21.28
877.647	42.19
877.814	0.99
877.98	-60.04
878.147	-3.81
878.314	47.61
878.48	-34.9
878.647	-60.12
878.813	26.73
878.979	-3.74
879.146	-61.76
879.312	-60.21
879.479	-90.24
879.645	-240.05
879.811	-378.63
879.978	-808.59
880.144	-182.94
880.31	-90.37
880.477	-302.81
880.643	-357.13
880.809	-115.49
880.975	-59.12
881.142	-641.14
881.308	-41.65
881.474	-26.65
881.64	-50.73
881.806	-151.1
881.972	-65.98
882.138	-87.87
882.304	-80.48
882.47	-234.02
882.636	-870.7
882.802	-286.7
882.968	-53.61
883.134	-36.43
883.3	-35.42
883.466	29.22
883.632	64.07
883.798	9.65
883.964	1.26
884.129	10.51
884.295	-34.91
884.461	-73.06
884.627	-82.38
884.793	-78.03
884.958	-30.37
885.124	-94.19
885.29	-226.9
885.455	-287.01
885.621	-75.76
885.787	-193.64
885.952	-126.51
886.118	-113.04
886.283	-101.79
886.449	-233.94
886.614	-233.62
886.78	-386.63
886.945	1357.79
887.111	-787.43
887.276	-630.82
887.442	-1145.68
887.607	-510.97
887.773	-328.74
887.938	-237.4
888.103	-352.09
888.269	-207.91
888.434	-459.05
888.599	-211.2
888.764	-104.35
888.93	-49.9
889.095	-78.92
889.26	-120.93
889.425	-41.59
889.59	-68.48
889.756	-85.76
889.921	-38.33
890.086	53.15
890.251	8.34
890.416	-105.78
890.581	-760.08
890.746	7.59
890.911	248.57
891.076	192.34
891.241	-546.46
891.406	-57.37
891.571	-177.78
891.736	-477.64
891.901	-571.02
892.065	695.88
892.23	125.96
892.395	227.25
892.56	352.1
892.725	-586.13
892.889	-995.73
893.054	-276.42
893.219	-94.39
893.384	-34.23
893.548	-104.21
893.713	-146.87
893.878	-91.71
