Data from Ofra_PS_T2_1A_8HS24_Reflection_3.txt Node
Date: Wed Jul 21 18:17:08 EDT 2021
User: Adam
Spectrometer: FLMT01687
Trigger mode: 0
Integration Time (sec): 1.100000E0
Scans to average: 2
Electric dark correction enabled: true
Nonlinearity correction enabled: false
Boxcar width: 2
XAxis mode: Wavelengths
Number of Pixels in Spectrum: 3648
>>>>>Begin Spectral Data<<<<<
179.494	655.2
179.716	705.18
179.937	636.9
180.158	626.25
180.38	898.12
180.601	329.83
180.823	116.62
181.044	21.33
181.265	61.76
181.486	57.91
181.708	72.06
181.929	416.33
182.15	-101.41
182.372	137.84
182.593	45.99
182.814	23.24
183.035	102.78
183.257	72.71
183.478	43.4
183.699	123.53
183.92	104.93
184.141	58.6
184.363	9.15
184.584	49.1
184.805	24.33
185.026	60.05
185.247	63.18
185.468	48.88
185.689	43.8
185.91	25.58
186.132	-3.86
186.353	-1.95
186.574	28.6
186.795	21.98
187.016	-5.53
187.237	-5.89
187.458	-40.3
187.679	-27.69
187.9	-28.14
188.121	-31.14
188.342	-25.95
188.563	34.94
188.784	46.41
189.005	62.53
189.226	110.75
189.447	74.76
189.667	-167.48
189.888	-351.72
190.109	-1242.86
190.33	-692.9
190.551	-1083.19
190.772	-210.65
190.993	-173.99
191.214	-183.41
191.434	-111.59
191.655	-53.01
191.876	-80.46
192.097	-116.43
192.318	-132.17
192.538	-205.87
192.759	-119.42
192.98	-29.23
193.201	29.77
193.421	35.34
193.642	47.81
193.863	53.86
194.083	27.7
194.304	-5.44
194.525	4.88
194.745	-33.8
194.966	-49.3
195.187	-49.36
195.407	-56.95
195.628	-101.92
195.848	-73.97
196.069	-65.2
196.29	-9.25
196.51	-15.35
196.731	-39.08
196.951	-47.14
197.172	-71.88
197.392	-132.28
197.613	-133.38
197.833	-152.57
198.054	-98.61
198.274	-35.43
198.495	-32.47
198.715	-5.27
198.936	0.55
199.156	-25.36
199.377	-78.89
199.597	-72.29
199.817	-88.03
200.038	-37.93
200.258	-65.96
200.479	-63.14
200.699	-104.42
200.919	-49.87
201.14	-62.36
201.36	-82.51
201.58	-7.97
201.801	21.41
202.021	-9.3
202.241	-17.45
202.461	-12.92
202.682	-126.75
202.902	-178.32
203.122	-71.55
203.342	-64.93
203.563	-14.7
203.783	25.68
204.003	10.58
204.223	7.04
204.443	61.16
204.663	63.59
204.884	53.23
205.104	90.79
205.324	84.32
205.544	78.88
205.764	69.67
205.984	57.85
206.204	52.23
206.424	39.36
206.644	7.49
206.864	13.47
207.084	12.46
207.304	13.52
207.525	-47.81
207.745	17.45
207.964	22.99
208.184	-34.93
208.404	-60.7
208.624	-48.92
208.844	-45.91
209.064	-275.81
209.284	-273.58
209.504	-109.76
209.724	-15.93
209.944	-17.04
210.164	23.59
210.384	42.64
210.604	37.31
210.823	2.09
211.043	-24.07
211.263	-26.64
211.483	-32.54
211.703	-94.7
211.922	-71.22
212.142	-3.26
212.362	31.66
212.582	19.76
212.801	40.42
213.021	25.23
213.241	4.27
213.461	-44.07
213.68	-57.89
213.9	-31.72
214.12	-31.65
214.339	-78.69
214.559	-57.39
214.779	-10.67
214.998	-30.29
215.218	-45.74
215.438	-10.79
215.657	-30.5
215.877	-19.57
216.096	17.85
216.316	23.34
216.535	4.92
216.755	9.78
216.974	-69.67
217.194	-126.65
217.413	-139.95
217.633	-142.06
217.852	-217.66
218.072	-104.57
218.291	-59.59
218.511	-18.23
218.73	-27.83
218.95	-17.66
219.169	-23.62
219.389	-56.25
219.608	-42.67
219.827	-37.7
220.047	-44.57
220.266	-26.81
220.485	-20.53
220.705	-19.93
220.924	-20.32
221.143	29.96
221.363	14.37
221.582	18.89
221.801	24.86
222.021	51.18
222.24	-51.96
222.459	2.07
222.678	-12.41
222.897	-80.7
223.117	-174.79
223.336	-87.82
223.555	-40.55
223.774	7.13
223.993	41.72
224.213	95.53
224.432	60.06
224.651	38.88
224.87	18.99
225.089	27.68
225.308	16.65
225.527	36.57
225.746	44.31
225.965	36.32
226.184	15.7
226.404	23.19
226.623	-7.46
226.842	2.7
227.061	26.84
227.28	31.81
227.499	21.85
227.718	30.55
227.936	15.35
228.155	8.05
228.374	3.5
228.593	15.41
228.812	28.12
229.031	30.08
229.25	-4.29
229.469	-6.21
229.688	-22.24
229.907	-5.94
230.125	-2.54
230.344	7.79
230.563	16.29
230.782	45.45
231.001	-13.33
231.22	-10.73
231.438	9.79
231.657	-4.33
231.876	-29.25
232.095	15.21
232.313	1.32
232.532	-29.16
232.751	-39.67
232.969	-66.43
233.188	-132.22
233.407	-21.98
233.625	-18.11
233.844	-15.05
234.063	11.2
234.281	17.36
234.5	-4.24
234.719	6.43
234.937	14.69
235.156	10.09
235.374	4.05
235.593	-6.97
235.811	-3.86
236.03	-13.29
236.249	-36.49
236.467	-14.22
236.686	12.28
236.904	10.79
237.123	-4.09
237.341	1.03
237.559	-4.14
237.778	-23.45
237.996	-41.97
238.215	-12.6
238.433	-2.6
238.652	11.7
238.87	4.88
239.088	15.23
239.307	15.84
239.525	16.18
239.743	-33.65
239.962	-35.43
240.18	-65.75
240.398	-87.62
240.617	-86.16
240.835	-62.74
241.053	-22.88
241.271	42.21
241.49	35.03
241.708	16.48
241.926	21.18
242.144	1.51
242.363	-71.41
242.581	-95.63
242.799	-56
243.017	-20.45
243.235	-45.39
243.453	-14.46
243.672	-17.23
243.89	-10.83
244.108	-29.92
244.326	-11.62
244.544	-18.39
244.762	-8.55
244.98	8.77
245.198	22.42
245.416	-0
245.634	-4.17
245.852	-29.04
246.07	-76.56
246.288	-71.33
246.506	-81.33
246.724	-60.57
246.942	-52.73
247.16	-14.36
247.378	-18.46
247.596	-2.71
247.814	0.44
248.032	-13.88
248.25	-10.82
248.468	13.24
248.685	12.53
248.903	20.37
249.121	32.81
249.339	16.65
249.557	-11.16
249.775	10.32
249.992	-40.42
250.21	-33.29
250.428	-20.08
250.646	-39.45
250.863	-68.12
251.081	-39.04
251.299	-48.08
251.517	-52.86
251.734	-35.04
251.952	-26.46
252.17	-14.67
252.387	-7.21
252.605	-15.33
252.823	-1.17
253.04	16.18
253.258	31.47
253.475	38.92
253.693	56.31
253.911	38.57
254.128	38.44
254.346	33.67
254.563	9.55
254.781	-18.76
254.998	-34.5
255.216	-53.71
255.433	-51.7
255.651	-33.27
255.868	19.22
256.086	47.27
256.303	25.08
256.521	20.38
256.738	14.32
256.956	-28.13
257.173	-51.93
257.39	-49.82
257.608	-60.26
257.825	15.47
258.043	40.56
258.26	44.57
258.477	73.54
258.695	66.32
258.912	-1.15
259.129	14.52
259.346	-19.06
259.564	-43.94
259.781	-50.19
259.998	3.09
260.216	22.26
260.433	70.11
260.65	67.16
260.867	66.35
261.084	44.83
261.302	26.42
261.519	-1.32
261.736	-41.72
261.953	-63.62
262.17	-39.64
262.387	-69.66
262.604	-69.31
262.822	-49.63
263.039	-24.76
263.256	-42.81
263.473	-5.03
263.69	-8.25
263.907	28.56
264.124	46.74
264.341	34.9
264.558	18.58
264.775	23.09
264.992	5.69
265.209	-0.34
265.426	16.92
265.643	14.06
265.86	20.27
266.077	11.16
266.294	4.79
266.51	-37.27
266.727	-42.79
266.944	-60.29
267.161	-32.46
267.378	-35.44
267.595	6.62
267.812	-16.85
268.028	-7.2
268.245	-16.55
268.462	-25.27
268.679	-17.96
268.896	35.25
269.112	28.84
269.329	24.43
269.546	28.96
269.763	14.18
269.979	-7.73
270.196	-10.23
270.413	-34.47
270.629	-54.05
270.846	-51.47
271.063	-28.5
271.279	-30.88
271.496	-30.79
271.712	-3.27
271.929	3.19
272.146	-24.76
272.362	-9.55
272.579	40.93
272.795	31.4
273.012	36.82
273.228	48
273.445	26.37
273.661	-17.75
273.878	-32.9
274.094	-35.86
274.311	-78.66
274.527	-27.57
274.744	-25.11
274.96	-21.49
275.177	-12.38
275.393	20.22
275.609	21.24
275.826	45.26
276.042	34.95
276.259	33.75
276.475	34.84
276.691	34.89
276.908	7.5
277.124	27.72
277.34	22.45
277.557	8.2
277.773	-4.74
277.989	-8.94
278.205	-11.52
278.422	1.79
278.638	8.73
278.854	20.22
279.07	33.16
279.286	12.58
279.503	-33.43
279.719	-49.36
279.935	-71.23
280.151	-85.4
280.367	-48.36
280.583	-35.5
280.799	-30.63
281.016	-55.07
281.232	-13.61
281.448	-20.97
281.664	9.11
281.88	-16.31
282.096	9
282.312	20.78
282.528	52.51
282.744	45.92
282.96	27.88
283.176	27.99
283.392	5.67
283.608	-4.51
283.824	-8.72
284.04	13.6
284.256	16.82
284.471	14.6
284.687	10.22
284.903	31.84
285.119	58.66
285.335	43.79
285.551	38.79
285.767	19.6
285.982	5.67
286.198	-37.01
286.414	-1.42
286.63	20.98
286.846	38.19
287.061	12.63
287.277	33.27
287.493	9.67
287.709	17.45
287.924	9.52
288.14	43.07
288.356	34.59
288.571	55.53
288.787	32.71
289.003	33.73
289.218	13.32
289.434	-18.61
289.65	-12.67
289.865	-3.67
290.081	9.85
290.296	17.18
290.512	28.21
290.727	-18.34
290.943	-19.01
291.159	-25.37
291.374	-25.13
291.59	-32.25
291.805	-6.84
292.021	-2.84
292.236	-13.58
292.451	-8.09
292.667	-7.79
292.882	-2.71
293.098	-13.52
293.313	-27.63
293.529	-43.62
293.744	-39.94
293.959	-51.73
294.175	-32.02
294.39	3.84
294.605	24.56
294.821	44.2
295.036	51.7
295.251	51.34
295.467	12.43
295.682	-15.04
295.897	-51.95
296.112	-63.48
296.328	-51.8
296.543	-50.99
296.758	-34.69
296.973	-10.55
297.188	20.73
297.404	-4.34
297.619	3.34
297.834	-1.63
298.049	-24.03
298.264	-48.45
298.479	-5.57
298.694	4.15
298.909	11.46
299.125	16.84
299.34	19.67
299.555	-16.65
299.77	-16.26
299.985	-48.51
300.2	-98.68
300.415	-106.15
300.63	-66.2
300.845	-63.15
301.06	-51.59
301.275	1.8
301.49	13.28
301.704	0.32
301.919	-29.18
302.134	-48.18
302.349	-61.03
302.564	-122.32
302.779	-160.64
302.994	-158.46
303.209	-66.13
303.423	-35.9
303.638	25.29
303.853	9.06
304.068	15.38
304.283	4.63
304.497	0.29
304.712	-17.47
304.927	-11.21
305.142	-12.94
305.356	-9.45
305.571	-25.42
305.786	-30.08
306	-40.92
306.215	-39.72
306.43	-55.31
306.644	-22.21
306.859	26.71
307.074	37.31
307.288	10.14
307.503	-1.02
307.717	-9.49
307.932	-21.82
308.147	-41.18
308.361	-20.59
308.576	-18.66
308.79	-57.12
309.005	-63.42
309.219	-30.39
309.434	-37.02
309.648	-40.83
309.863	-14
310.077	-3.7
310.292	-14.24
310.506	-19.01
310.72	0.44
310.935	5.3
311.149	1.46
311.364	11.31
311.578	20.49
311.792	5.67
312.007	-3.21
312.221	-18.02
312.435	-13.58
312.649	-29.09
312.864	-84.59
313.078	-56.7
313.292	-5.22
313.507	-43.13
313.721	-29.31
313.935	58.99
314.149	41.79
314.363	21.33
314.578	20.39
314.792	28.21
315.006	7.77
315.22	23.79
315.434	32.54
315.648	33.65
315.862	25.08
316.077	31.1
316.291	13.27
316.505	10.42
316.719	5.2
316.933	14.97
317.147	6.8
317.361	-33.8
317.575	-63.51
317.789	-85.23
318.003	-168.92
318.217	-126.96
318.431	-36.81
318.645	9.31
318.859	11.91
319.073	34.02
319.287	12.21
319.5	-17.43
319.714	-51.58
319.928	-84.12
320.142	-102.78
320.356	-42.7
320.57	-19.76
320.784	-46.32
320.997	-63.68
321.211	-66.02
321.425	-102.25
321.639	-127.15
321.853	-54.53
322.066	-13.99
322.28	-1.97
322.494	8.69
322.707	38.19
322.921	24.27
323.135	21.55
323.349	38.67
323.562	13.9
323.776	-5.48
323.989	0.33
324.203	-22.99
324.417	-51.35
324.63	-60.79
324.844	-66.84
325.057	-72.44
325.271	-50.81
325.485	-16.77
325.698	9.05
325.912	24.23
326.125	3.51
326.339	2.42
326.552	-27.99
326.766	-39.28
326.979	-11.81
327.193	30.71
327.406	27.18
327.619	36.12
327.833	60.7
328.046	29.03
328.26	-4.04
328.473	18.83
328.686	4.31
328.9	-7.76
329.113	8.81
329.326	1.99
329.54	-13.51
329.753	-30.68
329.966	-69.05
330.179	-59.84
330.393	-31.01
330.606	-22.33
330.819	-5.77
331.032	15.38
331.246	13.2
331.459	27.53
331.672	20.06
331.885	18.54
332.098	-1.37
332.311	0.38
332.525	-40.08
332.738	-32.74
332.951	-0
333.164	6.5
333.377	10.96
333.59	36.05
333.803	38.73
334.016	23.11
334.229	20.65
334.442	31.67
334.655	25.02
334.868	32.05
335.081	25.49
335.294	25.06
335.507	8.79
335.72	11.63
335.933	-7.85
336.146	1.71
336.359	17.61
336.572	-3.86
336.785	-33.91
336.997	-16.41
337.21	-1.86
337.423	-18.48
337.636	-17.41
337.849	7.52
338.062	2.27
338.274	3.68
338.487	-1.31
338.7	11.88
338.913	-37.39
339.125	-55
339.338	-109.38
339.551	-73.23
339.763	-47.79
339.976	-3.41
340.189	16.38
340.402	37.97
340.614	28.86
340.827	11.99
341.039	-6.78
341.252	-4.5
341.465	-4.08
341.677	-7.59
341.89	-20.98
342.102	9.9
342.315	-6.92
342.527	-35.88
342.74	-38.6
342.952	-12.07
343.165	-23.83
343.377	1.86
343.59	-0.14
343.802	17.7
344.015	20.34
344.227	36.28
344.44	34.87
344.652	46.71
344.864	24.82
345.077	34.52
345.289	32.87
345.502	26.35
345.714	16.11
345.926	26.69
346.139	17.86
346.351	17.02
346.563	32.3
346.775	44.38
346.988	40.13
347.2	20.07
347.412	-15.87
347.624	-48.5
347.837	-76.18
348.049	-56.1
348.261	3.49
348.473	24.04
348.685	31.62
348.897	29.16
349.11	10.62
349.322	-30.9
349.534	-34.43
349.746	-22.77
349.958	-13.57
350.17	-24.45
350.382	13.33
350.594	9.19
350.806	6.86
351.018	8.38
351.23	-2.02
351.442	-50.77
351.654	-47.35
351.866	-32.1
352.078	-23.83
352.29	-0
352.502	19.87
352.714	34.33
352.926	16.74
353.138	11.68
353.35	2.56
353.561	-11.23
353.773	-31.8
353.985	-14.76
354.197	-34.3
354.409	-32.32
354.621	-27.39
354.832	-21.44
355.044	-25.9
355.256	-15.04
355.468	-5.28
355.679	-12.77
355.891	-12.45
356.103	-34.82
356.314	-26.03
356.526	-34.08
356.738	-17.34
356.949	-20.31
357.161	22.39
357.373	18.85
357.584	11.27
357.796	5.94
358.008	5.85
358.219	3.11
358.431	-6.61
358.642	6.71
358.854	10.71
359.065	-0.32
359.277	-36.82
359.488	-23.97
359.7	-48.5
359.911	-45.23
360.123	-32.99
360.334	-21.25
360.546	-37.68
360.757	-36.68
360.969	-29.82
361.18	-17.63
361.391	-18.51
361.603	-23.35
361.814	-11.2
362.025	-24.03
362.237	-20.8
362.448	-13.68
362.659	10.06
362.871	-1.92
363.082	-2.71
363.293	-11.02
363.504	-18.56
363.716	-39.63
363.927	-21.29
364.138	-25.42
364.349	-23.36
364.56	-18.58
364.772	-12.51
364.983	-1.54
365.194	1.11
365.405	15.04
365.616	33.46
365.827	37.43
366.038	19.1
366.25	16.76
366.461	-6.33
366.672	-1.88
366.883	7.04
367.094	12.44
367.305	7.62
367.516	4.75
367.727	-30.93
367.938	-42.18
368.149	-45.83
368.36	-33.53
368.571	-14.16
368.781	-16.87
368.992	-33.44
369.203	-52.61
369.414	-65.01
369.625	-89.12
369.836	-68.17
370.047	-70.14
370.258	-44.56
370.468	-49.43
370.679	-51.65
370.89	-52.33
371.101	-43.4
371.312	-49.25
371.522	-38.74
371.733	-22.75
371.944	-17.01
372.155	-2.8
372.365	-9.45
372.576	-13.54
372.787	-28.22
372.997	-37.27
373.208	-36.68
373.419	-14.23
373.629	-45.02
373.84	-53.87
374.05	-58.85
374.261	-46.99
374.472	-60.69
374.682	-8.74
374.893	7.1
375.103	23.64
375.314	16.81
375.524	11.75
375.735	3.65
375.945	11.55
376.156	-15.6
376.366	-15.93
376.577	-10.05
376.787	-14.99
376.997	-11.83
377.208	13.05
377.418	0.63
377.629	10.76
377.839	8.73
378.049	-3.39
378.26	0.66
378.47	12.68
378.68	1.67
378.89	5.76
379.101	3.99
379.311	-28.95
379.521	-54.18
379.732	-53.81
379.942	-60.93
380.152	-71.85
380.362	-30.19
380.572	-25.79
380.783	-6.89
380.993	2.55
381.203	24.41
381.413	26.92
381.623	32.06
381.833	21.84
382.043	12.84
382.253	-1.25
382.463	-6.19
382.674	-14.36
382.884	-28.97
383.094	-21.13
383.304	-10.49
383.514	-2.42
383.724	9.26
383.934	5
384.144	-4.65
384.353	-20.12
384.563	-21.52
384.773	-21.01
384.983	-26.4
385.193	-10.14
385.403	-0.38
385.613	-1.67
385.823	-7.39
386.033	1.96
386.242	-10.28
386.452	-16.64
386.662	-24.08
386.872	-7.99
387.082	-9.58
387.291	-10.18
387.501	-5.8
387.711	-1.9
387.921	-11.49
388.13	-11.57
388.34	2.02
388.55	-2.91
388.759	-1.33
388.969	2.73
389.179	2.13
389.388	-4.76
389.598	5.17
389.807	-2.41
390.017	-8.08
390.227	-5.4
390.436	-2.7
390.646	-4.07
390.855	1.3
391.065	1.13
391.274	-3.54
391.484	-6.99
391.693	-4.24
391.903	-3.44
392.112	2.14
392.322	5.98
392.531	11.21
392.74	9.43
392.95	4.43
393.159	0.85
393.369	0.34
393.578	-1.31
393.787	-3.18
393.997	0.58
394.206	-0.35
394.415	0.11
394.625	0.85
394.834	-0.48
395.043	-0.49
395.252	2.22
395.462	3.1
395.671	1.86
395.88	3.55
396.089	3.43
396.298	1.67
396.508	1.45
396.717	1.67
396.926	1.9
397.135	2.01
397.344	2.03
397.553	2.35
397.762	3.18
397.971	3.41
398.181	3.44
398.39	2.88
398.599	2.36
398.808	2.34
399.017	3.02
399.226	4.19
399.435	5.16
399.644	5.43
399.853	4.48
400.062	3.8
400.27	3.21
400.479	2.62
400.688	1.79
400.897	2.4
401.106	2.35
401.315	1.98
401.524	2.35
401.733	3.2
401.941	3.72
402.15	3.93
402.359	3.82
402.568	3.87
402.777	3.89
402.985	3.17
403.194	3.18
403.403	3.33
403.612	3.13
403.82	3.08
404.029	3.56
404.238	3.29
404.446	3.58
404.655	3.33
404.864	2.94
405.072	2.56
405.281	2.86
405.489	2.53
405.698	2.72
405.906	2.9
406.115	2.8
406.324	2.66
406.532	2.94
406.741	3.14
406.949	3.17
407.158	3.27
407.366	3.21
407.574	3.03
407.783	3.06
407.991	2.9
408.2	3.09
408.408	3.17
408.617	3.09
408.825	2.85
409.033	2.92
409.242	2.87
409.45	2.88
409.658	2.77
409.867	2.93
410.075	2.84
410.283	2.7
410.491	2.63
410.7	2.75
410.908	2.7
411.116	2.96
411.324	2.96
411.533	2.92
411.741	3.12
411.949	3.21
412.157	2.97
412.365	2.98
412.573	2.99
412.781	2.95
412.99	2.73
413.198	3.01
413.406	3
413.614	2.99
413.822	2.78
414.03	2.77
414.238	2.51
414.446	2.68
414.654	2.53
414.862	2.69
415.07	2.81
415.278	3
415.486	2.73
415.694	2.85
415.902	2.67
416.109	2.57
416.317	2.41
416.525	2.24
416.733	2.11
416.941	2.29
417.149	2.33
417.357	2.3
417.564	2.59
417.772	2.95
417.98	2.79
418.188	2.76
418.395	2.87
418.603	3.07
418.811	2.63
419.019	2.56
419.226	2.76
419.434	2.86
419.642	2.56
419.849	2.83
420.057	3.02
420.265	2.92
420.472	2.66
420.68	2.66
420.887	2.47
421.095	2.44
421.302	2.31
421.51	2.47
421.717	2.67
421.925	2.8
422.132	2.61
422.34	2.47
422.547	2.52
422.755	2.3
422.962	2.2
423.17	2.17
423.377	2.3
423.585	2.26
423.792	2.32
423.999	2.37
424.207	2.33
424.414	2.49
424.621	2.36
424.829	2.33
425.036	2.36
425.243	2.63
425.451	2.48
425.658	2.36
425.865	2.59
426.072	2.59
426.28	2.81
426.487	2.78
426.694	2.82
426.901	2.52
427.108	2.53
427.315	2.08
427.523	2.35
427.73	2.36
427.937	2.44
428.144	2.27
428.351	2.46
428.558	2.36
428.765	2.41
428.972	2.31
429.179	2.44
429.386	2.71
429.593	2.53
429.8	2.46
430.007	2.58
430.214	2.67
430.421	2.31
430.628	2.21
430.835	2.21
431.042	2.34
431.249	2.32
431.456	2.4
431.662	2.61
431.869	2.71
432.076	2.75
432.283	2.86
432.49	2.81
432.697	2.81
432.903	2.55
433.11	2.47
433.317	2.4
433.524	2.6
433.73	2.51
433.937	2.84
434.144	2.75
434.35	2.68
434.557	2.45
434.764	2.51
434.97	2.45
435.177	2.69
435.384	2.63
435.59	2.77
435.797	2.89
436.003	2.99
436.21	2.81
436.416	3.03
436.623	3.1
436.829	3.13
437.036	3.08
437.242	3.1
437.449	2.97
437.655	2.92
437.862	2.92
438.068	2.89
438.275	3.05
438.481	3.16
438.687	3.16
438.894	3.15
439.1	3.17
439.307	3.31
439.513	3.21
439.719	3.14
439.926	3.17
440.132	3.12
440.338	2.86
440.544	3.05
440.751	3.12
440.957	3.17
441.163	3.23
441.369	3.39
441.575	3.13
441.782	3.03
441.988	2.82
442.194	2.8
442.4	2.71
442.606	3.01
442.812	3.1
443.018	3.31
443.224	3.33
443.431	3.42
443.637	3.19
443.843	3.16
444.049	3.05
444.255	2.97
444.461	2.97
444.667	3.02
444.873	3.13
445.079	3.17
445.284	3.32
445.49	3.11
445.696	2.94
445.902	2.85
446.108	2.82
446.314	2.73
446.52	2.83
446.726	3.11
446.931	3.18
447.137	3.24
447.343	3.27
447.549	3.24
447.755	3.14
447.96	3.19
448.166	3.15
448.372	3.14
448.578	3.19
448.783	3.19
448.989	3.19
449.195	3.34
449.4	3.33
449.606	3.31
449.812	3.3
450.017	3.34
450.223	3.18
450.428	3.15
450.634	3.28
450.84	3.38
451.045	3.26
451.251	3.26
451.456	3.46
451.662	3.51
451.867	3.52
452.073	3.58
452.278	3.77
452.483	3.84
452.689	3.76
452.894	3.77
453.1	3.73
453.305	3.66
453.51	3.43
453.716	3.36
453.921	3.4
454.127	3.39
454.332	3.25
454.537	3.31
454.742	3.32
454.948	3.19
455.153	3.24
455.358	3.35
455.563	3.52
455.769	3.65
455.974	3.69
456.179	3.59
456.384	3.6
456.589	3.44
456.795	3.24
457	3.15
457.205	3.36
457.41	3.35
457.615	3.33
457.82	3.5
458.025	3.53
458.23	3.44
458.435	3.46
458.64	3.4
458.845	3.45
459.05	3.5
459.255	3.51
459.46	3.48
459.665	3.5
459.87	3.45
460.075	3.38
460.28	3.38
460.485	3.49
460.69	3.51
460.895	3.4
461.099	3.36
461.304	3.52
461.509	3.42
461.714	3.36
461.919	3.57
462.123	3.59
462.328	3.49
462.533	3.47
462.738	3.65
462.942	3.53
463.147	3.6
463.352	3.68
463.556	3.72
463.761	3.67
463.966	3.7
464.17	3.74
464.375	3.69
464.58	3.68
464.784	3.7
464.989	3.57
465.193	3.59
465.398	3.5
465.602	3.62
465.807	3.56
466.011	3.68
466.216	3.68
466.42	3.74
466.625	3.73
466.829	3.83
467.034	3.84
467.238	4.01
467.443	3.97
467.647	3.84
467.851	3.81
468.056	3.86
468.26	3.67
468.464	3.83
468.669	3.98
468.873	4.16
469.077	4.18
469.282	4.32
469.486	4.24
469.69	4.21
469.894	4.03
470.099	4.12
470.303	4.21
470.507	4.1
470.711	3.98
470.915	3.99
471.119	3.83
471.324	3.7
471.528	3.91
471.732	4.06
471.936	4.07
472.14	4.18
472.344	4.22
472.548	4.2
472.752	4.26
472.956	4.48
473.16	4.46
473.364	4.36
473.568	4.32
473.772	4.36
473.976	4.2
474.18	4.19
474.384	4.28
474.588	4.25
474.792	4.19
474.995	4.23
475.199	4.29
475.403	4.34
475.607	4.43
475.811	4.39
476.015	4.43
476.218	4.49
476.422	4.42
476.626	4.46
476.83	4.57
477.033	4.59
477.237	4.5
477.441	4.63
477.644	4.57
477.848	4.54
478.052	4.46
478.255	4.53
478.459	4.47
478.663	4.58
478.866	4.62
479.07	4.68
479.273	4.75
479.477	4.82
479.681	4.82
479.884	4.79
480.088	4.75
480.291	4.69
480.495	4.71
480.698	4.76
480.901	4.82
481.105	4.97
481.308	4.99
481.512	4.94
481.715	4.96
481.919	5
482.122	5
482.325	5.02
482.529	5.08
482.732	5.06
482.935	4.93
483.138	4.86
483.342	4.89
483.545	4.97
483.748	4.97
483.952	5.03
484.155	5.15
484.358	5.17
484.561	5.07
484.764	5.05
484.967	5.19
485.171	5.19
485.374	5.21
485.577	5.33
485.78	5.34
485.983	5.35
486.186	5.25
486.389	5.19
486.592	5.15
486.795	5.2
486.998	5.1
487.201	5.22
487.404	5.31
487.607	5.4
487.81	5.41
488.013	5.47
488.216	5.43
488.419	5.43
488.622	5.32
488.825	5.26
489.028	5.23
489.231	5.19
489.433	5.13
489.636	5.06
489.839	5.06
490.042	5.05
490.245	5.02
490.447	5.06
490.65	5.13
490.853	5.13
491.056	5.22
491.258	5.29
491.461	5.35
491.664	5.42
491.866	5.36
492.069	5.38
492.272	5.39
492.474	5.41
492.677	5.41
492.879	5.49
493.082	5.51
493.285	5.58
493.487	5.53
493.69	5.45
493.892	5.42
494.095	5.38
494.297	5.34
494.5	5.38
494.702	5.43
494.905	5.5
495.107	5.49
495.309	5.46
495.512	5.51
495.714	5.57
495.917	5.59
496.119	5.56
496.321	5.66
496.524	5.63
496.726	5.66
496.928	5.62
497.13	5.59
497.333	5.52
497.535	5.47
497.737	5.49
497.939	5.54
498.142	5.66
498.344	5.73
498.546	5.76
498.748	5.73
498.95	5.84
499.152	5.82
499.355	5.83
499.557	5.95
499.759	6.11
499.961	6.04
500.163	6.12
500.365	6.1
500.567	6.12
500.769	6
500.971	5.96
501.173	5.88
501.375	5.97
501.577	5.89
501.779	5.91
501.981	5.98
502.183	6.03
502.385	5.98
502.587	5.92
502.788	5.97
502.99	6.01
503.192	6.04
503.394	6.05
503.596	6.14
503.798	6.18
503.999	6.24
504.201	6.21
504.403	6.29
504.605	6.35
504.806	6.32
505.008	6.26
505.21	6.37
505.411	6.34
505.613	6.37
505.815	6.39
506.016	6.49
506.218	6.5
506.42	6.5
506.621	6.51
506.823	6.57
507.024	6.5
507.226	6.5
507.427	6.49
507.629	6.56
507.83	6.61
508.032	6.66
508.233	6.74
508.435	6.83
508.636	6.82
508.838	6.75
509.039	6.78
509.24	6.79
509.442	6.79
509.643	6.77
509.845	6.78
510.046	6.83
510.247	6.83
510.448	6.87
510.65	6.94
510.851	7.09
511.052	7.08
511.254	7.11
511.455	7.19
511.656	7.26
511.857	7.28
512.058	7.36
512.26	7.32
512.461	7.28
512.662	7.32
512.863	7.24
513.064	7.21
513.265	7.32
513.466	7.37
513.667	7.4
513.868	7.5
514.069	7.55
514.27	7.53
514.471	7.49
514.672	7.45
514.873	7.45
515.074	7.49
515.275	7.43
515.476	7.47
515.677	7.5
515.878	7.55
516.079	7.51
516.28	7.62
516.481	7.73
516.682	7.78
516.882	7.69
517.083	7.7
517.284	7.63
517.485	7.56
517.686	7.5
517.886	7.54
518.087	7.61
518.288	7.69
518.488	7.68
518.689	7.72
518.89	7.7
519.091	7.68
519.291	7.67
519.492	7.81
519.692	7.91
519.893	7.98
520.094	7.96
520.294	7.99
520.495	7.91
520.695	7.88
520.896	7.9
521.096	8.01
521.297	8.04
521.497	8.05
521.698	7.99
521.898	7.95
522.099	7.92
522.299	7.98
522.499	8.04
522.7	8.11
522.9	8.09
523.101	8.18
523.301	8.19
523.501	8.16
523.702	8.17
523.902	8.28
524.102	8.3
524.302	8.23
524.503	8.34
524.703	8.36
524.903	8.35
525.103	8.28
525.304	8.43
525.504	8.43
525.704	8.45
525.904	8.44
526.104	8.45
526.304	8.38
526.504	8.39
526.705	8.32
526.905	8.38
527.105	8.39
527.305	8.39
527.505	8.34
527.705	8.39
527.905	8.43
528.105	8.48
528.305	8.42
528.505	8.53
528.705	8.56
528.905	8.52
529.105	8.51
529.304	8.59
529.504	8.63
529.704	8.58
529.904	8.61
530.104	8.67
530.304	8.74
530.503	8.67
530.703	8.68
530.903	8.66
531.103	8.66
531.303	8.62
531.502	8.65
531.702	8.71
531.902	8.77
532.101	8.74
532.301	8.8
532.501	8.83
532.7	8.86
532.9	8.86
533.1	8.94
533.299	8.92
533.499	8.92
533.698	8.87
533.898	8.89
534.097	8.89
534.297	8.94
534.496	8.92
534.696	8.97
534.895	9.08
535.095	9.12
535.294	9.12
535.494	9.14
535.693	9.17
535.892	9.11
536.092	9.05
536.291	9.04
536.491	9.1
536.69	9.12
536.889	9.09
537.088	9.15
537.288	9.24
537.487	9.3
537.686	9.36
537.886	9.48
538.085	9.53
538.284	9.57
538.483	9.54
538.682	9.62
538.882	9.61
539.081	9.67
539.28	9.62
539.479	9.63
539.678	9.57
539.877	9.65
540.076	9.61
540.275	9.61
540.474	9.68
540.673	9.73
540.872	9.64
541.071	9.72
541.27	9.79
541.469	9.84
541.668	9.82
541.867	9.89
542.066	9.88
542.265	10
542.464	9.98
542.663	10.05
542.862	10.25
543.06	10.31
543.259	10.27
543.458	10.35
543.657	10.44
543.856	10.35
544.054	10.38
544.253	10.42
544.452	10.37
544.651	10.44
544.849	10.46
545.048	10.52
545.247	10.55
545.445	10.63
545.644	10.65
545.843	10.6
546.041	10.64
546.24	10.76
546.438	10.87
546.637	10.92
546.836	11.1
547.034	11.15
547.233	11.17
547.431	11.16
547.63	11.16
547.828	11.14
548.027	11.15
548.225	11.14
548.423	11.18
548.622	11.3
548.82	11.34
549.019	11.41
549.217	11.53
549.415	11.59
549.614	11.66
549.812	11.71
550.01	11.69
550.209	11.71
550.407	11.8
550.605	11.81
550.803	11.95
551.002	12.05
551.2	12.12
551.398	12.18
551.596	12.26
551.794	12.33
551.993	12.48
552.191	12.54
552.389	12.62
552.587	12.66
552.785	12.69
552.983	12.66
553.181	12.73
553.379	12.78
553.577	12.87
553.775	12.95
553.973	13.07
554.171	13.18
554.369	13.25
554.567	13.34
554.765	13.38
554.963	13.48
555.161	13.44
555.359	13.54
555.557	13.71
555.755	13.81
555.952	13.93
556.15	14.08
556.348	14.19
556.546	14.22
556.744	14.28
556.941	14.31
557.139	14.39
557.337	14.37
557.535	14.34
557.732	14.44
557.93	14.58
558.128	14.69
558.325	14.84
558.523	14.96
558.721	15.07
558.918	15.08
559.116	15.16
559.313	15.17
559.511	15.32
559.708	15.4
559.906	15.51
560.104	15.53
560.301	15.69
560.498	15.68
560.696	15.73
560.893	15.79
561.091	15.94
561.288	16.05
561.486	16.22
561.683	16.37
561.88	16.51
562.078	16.67
562.275	16.78
562.473	16.86
562.67	16.98
562.867	17.07
563.064	17.13
563.262	17.21
563.459	17.25
563.656	17.31
563.853	17.44
564.051	17.48
564.248	17.54
564.445	17.7
564.642	17.78
564.839	17.89
565.036	18.08
565.234	18.28
565.431	18.38
565.628	18.41
565.825	18.45
566.022	18.46
566.219	18.44
566.416	18.53
566.613	18.71
566.81	18.77
567.007	18.81
567.204	18.87
567.401	18.95
567.598	18.92
567.795	18.99
567.991	19.1
568.188	19.26
568.385	19.4
568.582	19.53
568.779	19.62
568.976	19.72
569.172	19.77
569.369	19.64
569.566	19.71
569.763	19.77
569.96	19.79
570.156	19.84
570.353	19.94
570.55	20
570.746	20.09
570.943	20.13
571.14	20.2
571.336	20.29
571.533	20.45
571.729	20.46
571.926	20.57
572.123	20.61
572.319	20.6
572.516	20.56
572.712	20.62
572.909	20.51
573.105	20.57
573.302	20.68
573.498	20.77
573.695	20.78
573.891	20.97
574.087	21.02
574.284	20.98
574.48	20.85
574.677	20.83
574.873	20.74
575.069	20.79
575.266	20.85
575.462	20.9
575.658	21.08
575.854	21.24
576.051	21.18
576.247	21.22
576.443	21.22
576.639	21.04
576.835	20.95
577.032	20.87
577.228	20.94
577.424	21.02
577.62	21.03
577.816	21.06
578.012	21.16
578.208	21.11
578.404	21.1
578.6	21.11
578.796	21.08
578.993	21.05
579.189	21.01
579.384	20.94
579.58	20.94
579.776	20.94
579.972	20.91
580.168	20.8
580.364	20.81
580.56	20.88
580.756	20.86
580.952	20.83
581.148	20.88
581.343	20.92
581.539	20.92
581.735	20.93
581.931	20.95
582.127	21.02
582.322	20.98
582.518	21.05
582.714	21.1
582.909	21.18
583.105	21.14
583.301	21.02
583.496	21
583.692	20.94
583.888	20.86
584.083	20.92
584.279	20.97
584.474	20.9
584.67	20.94
584.866	20.9
585.061	20.75
585.257	20.89
585.452	20.93
585.648	20.84
585.843	20.86
586.039	20.87
586.234	20.87
586.429	20.71
586.625	20.82
586.82	20.83
587.015	20.92
587.211	20.79
587.406	20.85
587.601	20.75
587.797	20.78
587.992	20.67
588.187	20.79
588.383	20.8
588.578	20.79
588.773	20.78
588.968	20.93
589.163	20.94
589.359	20.94
589.554	21
589.749	21
589.944	21.03
590.139	21.07
590.334	21.16
590.529	21.18
590.724	21.18
590.919	21.19
591.114	21.21
591.309	21.27
591.504	21.37
591.699	21.45
591.894	21.48
592.089	21.37
592.284	21.42
592.479	21.45
592.674	21.44
592.869	21.48
593.064	21.61
593.259	21.67
593.454	21.65
593.648	21.69
593.843	21.73
594.038	21.76
594.233	21.71
594.428	21.76
594.622	21.89
594.817	22.01
595.012	22.06
595.206	22.17
595.401	22.28
595.596	22.25
595.79	22.29
595.985	22.44
596.18	22.52
596.374	22.63
596.569	22.73
596.763	22.7
596.958	22.65
597.153	22.71
597.347	22.7
597.542	22.81
597.736	22.89
597.931	23.07
598.125	23.11
598.319	23.15
598.514	23.13
598.708	23.23
598.903	23.19
599.097	23.29
599.291	23.42
599.486	23.47
599.68	23.46
599.874	23.58
600.069	23.54
600.263	23.53
600.457	23.62
600.651	23.72
600.846	23.7
601.04	23.8
601.234	23.88
601.428	23.98
601.622	24.01
601.817	24.08
602.011	24.12
602.205	24.17
602.399	24.09
602.593	24.11
602.787	24.17
602.981	24.1
603.175	24.1
603.369	24.06
603.563	24.1
603.757	24.09
603.951	24.13
604.145	24.1
604.339	24.23
604.533	24.12
604.727	24.1
604.921	24.02
605.115	24.04
605.309	24.11
605.502	24.16
605.696	24.14
605.89	24.15
606.084	24.08
606.278	23.99
606.471	23.88
606.665	23.8
606.859	23.78
607.053	23.77
607.246	23.65
607.44	23.58
607.634	23.46
607.827	23.46
608.021	23.35
608.214	23.33
608.408	23.36
608.602	23.41
608.795	23.35
608.989	23.38
609.182	23.25
609.376	23.24
609.569	23.06
609.763	22.92
609.956	22.79
610.15	22.73
610.343	22.57
610.537	22.55
610.73	22.55
610.923	22.51
611.117	22.49
611.31	22.5
611.504	22.49
611.697	22.41
611.89	22.32
612.083	22.23
612.277	22.21
612.47	22.12
612.663	22.09
612.856	22.04
613.05	22.03
613.243	21.95
613.436	21.87
613.629	21.76
613.822	21.68
614.015	21.55
614.209	21.39
614.402	21.44
614.595	21.33
614.788	21.23
614.981	21.15
615.174	21.05
615.367	20.94
615.56	20.82
615.753	20.79
615.946	20.76
616.139	20.8
616.332	20.82
616.525	20.82
616.718	20.87
616.911	20.9
617.103	20.91
617.296	20.85
617.489	20.81
617.682	20.66
617.875	20.57
618.067	20.42
618.26	20.39
618.453	20.4
618.646	20.37
618.838	20.4
619.031	20.51
619.224	20.44
619.417	20.5
619.609	20.56
619.802	20.49
619.994	20.41
620.187	20.36
620.38	20.2
620.572	20.1
620.765	20.08
620.957	19.99
621.15	19.95
621.342	19.91
621.535	19.93
621.727	19.86
621.92	19.8
622.112	19.81
622.305	19.84
622.497	19.73
622.69	19.81
622.882	19.82
623.074	19.83
623.267	19.77
623.459	19.76
623.651	19.68
623.844	19.66
624.036	19.56
624.228	19.55
624.42	19.53
624.613	19.6
624.805	19.57
624.997	19.56
625.189	19.49
625.381	19.53
625.574	19.38
625.766	19.31
625.958	19.34
626.15	19.47
626.342	19.44
626.534	19.51
626.726	19.53
626.918	19.53
627.11	19.4
627.302	19.35
627.494	19.28
627.686	19.26
627.878	19.15
628.07	19.19
628.262	19.13
628.454	19.15
628.646	19.2
628.838	19.26
629.029	19.15
629.221	19.22
629.413	19.06
629.605	18.85
629.797	18.76
629.989	18.78
630.18	18.68
630.372	18.69
630.564	18.78
630.755	18.79
630.947	18.76
631.139	18.67
631.33	18.63
631.522	18.66
631.714	18.64
631.905	18.66
632.097	18.59
632.289	18.55
632.48	18.45
632.672	18.31
632.863	18.11
633.055	18.17
633.246	18.16
633.438	18.04
633.629	17.97
633.821	18.02
634.012	17.95
634.203	17.86
634.395	17.89
634.586	17.96
634.777	17.91
634.969	17.93
635.16	17.95
635.351	17.91
635.543	17.92
635.734	17.99
635.925	17.99
636.117	18
636.308	18.03
636.499	17.97
636.69	17.79
636.881	17.71
637.073	17.76
637.264	17.7
637.455	17.68
637.646	17.87
637.837	17.91
638.028	17.83
638.219	17.84
638.41	17.81
638.601	17.61
638.792	17.58
638.983	17.48
639.174	17.44
639.365	17.45
639.556	17.46
639.747	17.38
639.938	17.49
640.129	17.44
640.32	17.33
640.511	17.42
640.701	17.52
640.892	17.43
641.083	17.49
641.274	17.56
641.465	17.42
641.655	17.26
641.846	17.23
642.037	17.13
642.228	17.03
642.418	17.09
642.609	17.1
642.8	17.15
642.99	17.09
643.181	17.13
643.372	17.06
643.562	17.05
643.753	16.9
643.943	16.94
644.134	16.84
644.324	16.85
644.515	16.84
644.705	16.87
644.896	16.87
645.086	16.87
645.277	16.79
645.467	16.76
645.658	16.77
645.848	16.75
646.038	16.72
646.229	16.77
646.419	16.7
646.61	16.65
646.8	16.54
646.99	16.57
647.18	16.4
647.371	16.35
647.561	16.35
647.751	16.45
647.941	16.45
648.132	16.42
648.322	16.49
648.512	16.49
648.702	16.46
648.892	16.36
649.082	16.5
649.272	16.27
649.462	16.12
649.653	16.04
649.843	16.08
650.033	16.04
650.223	16.1
650.413	16.15
650.603	16.09
650.793	16.02
650.983	15.97
651.172	15.98
651.362	15.92
651.552	15.82
651.742	15.76
651.932	15.68
652.122	15.73
652.312	15.77
652.502	15.78
652.691	15.78
652.881	15.68
653.071	15.55
653.261	15.41
653.45	15.27
653.64	15.28
653.83	15.23
654.019	15.15
654.209	15.04
654.399	15.07
654.588	14.89
654.778	14.8
654.968	14.66
655.157	14.64
655.347	14.55
655.536	14.49
655.726	14.39
655.915	14.3
656.105	14.2
656.294	14.11
656.484	13.95
656.673	13.88
656.863	13.83
657.052	13.66
657.241	13.44
657.431	13.24
657.62	13.09
657.809	12.74
657.999	12.52
658.188	12.35
658.377	12.27
658.567	12.14
658.756	12.07
658.945	11.97
659.134	11.87
659.324	11.73
659.513	11.54
659.702	11.46
659.891	11.36
660.08	11.23
660.269	11.22
660.458	11.13
660.648	10.97
660.837	10.91
661.026	10.8
661.215	10.54
661.404	10.27
661.593	10.17
661.782	9.89
661.971	9.79
662.16	9.68
662.349	9.65
662.538	9.49
662.726	9.4
662.915	9.22
663.104	9.05
663.293	8.94
663.482	8.97
663.671	8.88
663.86	8.69
664.048	8.66
664.237	8.66
664.426	8.38
664.615	8.24
664.803	8.18
664.992	8.01
665.181	7.84
665.369	7.83
665.558	7.86
665.747	7.78
665.935	7.77
666.124	7.72
666.312	7.64
666.501	7.53
666.69	7.46
666.878	7.35
667.067	7.2
667.255	7.21
667.444	7.46
667.632	7.58
667.82	7.64
668.009	7.58
668.197	7.59
668.386	7.28
668.574	7.26
668.762	7.16
668.951	7.09
669.139	6.93
669.327	6.82
669.516	6.81
669.704	6.76
669.892	6.94
670.08	7.02
670.269	7
670.457	6.85
670.645	6.8
670.833	6.82
671.021	6.84
671.21	6.91
671.398	7.17
671.586	7.19
671.774	7.04
671.962	7.03
672.15	6.96
672.338	6.76
672.526	6.88
672.714	6.89
672.902	6.96
673.09	7.17
673.278	7.35
673.466	7.4
673.654	7.52
673.842	7.49
674.03	7.45
674.218	7.35
674.405	7.36
674.593	7.32
674.781	7.38
674.969	7.43
675.157	7.52
675.344	7.59
675.532	7.66
675.72	7.76
675.908	7.72
676.095	7.72
676.283	7.82
676.471	8.05
676.658	8.14
676.846	8.25
677.033	8.42
677.221	8.47
677.409	8.34
677.596	8.36
677.784	8.53
677.971	8.6
678.159	8.62
678.346	8.66
678.534	8.77
678.721	8.88
678.909	8.92
679.096	9.08
679.283	9.37
679.471	9.45
679.658	9.5
679.846	9.65
680.033	9.7
680.22	9.63
680.408	9.62
680.595	9.74
680.782	9.66
680.969	9.79
681.157	9.94
681.344	10.07
681.531	10.14
681.718	10.26
681.905	10.33
682.093	10.54
682.28	10.86
682.467	11.05
682.654	11.25
682.841	11.41
683.028	11.59
683.215	11.69
683.402	11.7
683.589	11.95
683.776	12.15
683.963	12.26
684.15	12.55
684.337	12.85
684.524	13.02
684.711	13.38
684.898	13.6
685.085	13.69
685.271	14.09
685.458	14.26
685.645	14.34
685.832	14.59
686.019	14.86
686.205	14.92
686.392	15.31
686.579	15.6
686.766	15.98
686.952	16.17
687.139	16.69
687.326	16.84
687.512	17.28
687.699	17.58
687.886	17.96
688.072	18.06
688.259	18.59
688.445	18.92
688.632	19.24
688.818	20.02
689.005	20.59
689.191	20.89
689.378	21.34
689.564	21.86
689.751	22.11
689.937	22.52
690.124	23.1
690.31	23.49
690.496	23.97
690.683	24.49
690.869	25.16
691.055	25.68
691.242	26.44
691.428	27.01
691.614	27.42
691.8	27.97
691.987	28.49
692.173	28.93
692.359	29.48
692.545	30.23
692.731	30.58
692.918	31.39
693.104	31.87
693.29	32.59
693.476	33.19
693.662	33.97
693.848	34.38
694.034	35.02
694.22	35.42
694.406	35.86
694.592	36.4
694.778	37.12
694.964	37.51
695.15	38.24
695.336	38.73
695.522	39.59
695.708	40.26
695.894	41.17
696.08	41.9
696.265	42.74
696.451	43.01
696.637	43.47
696.823	43.96
697.009	44.31
697.194	44.65
697.38	45.14
697.566	45.5
697.751	46.01
697.937	46.71
698.123	47.43
698.308	47.99
698.494	48.73
698.68	49.25
698.865	49.8
699.051	50.33
699.236	50.79
699.422	51.13
699.607	51.44
699.793	51.82
699.978	52.3
700.164	52.78
700.349	53.49
700.535	54.04
700.72	54.41
700.906	54.86
701.091	55.3
701.276	55.41
701.462	56.21
701.647	56.88
701.832	57.31
702.018	57.81
702.203	58.19
702.388	58.23
702.573	58.27
702.759	58.97
702.944	59.04
703.129	59.58
703.314	60.14
703.499	60.4
703.684	60.45
703.87	61.76
704.055	62.42
704.24	62.47
704.425	63.36
704.61	63.74
704.795	63.71
704.98	63.98
705.165	64.28
705.35	64.56
705.535	64.79
705.72	65.01
705.905	65.04
706.09	65.72
706.275	65.8
706.459	66.06
706.644	66.13
706.829	66.61
707.014	66.6
707.199	67.1
707.384	67.48
707.568	67.66
707.753	68.09
707.938	68.59
708.123	68.48
708.307	68.57
708.492	69.02
708.677	68.8
708.861	68.82
709.046	68.79
709.231	69.45
709.415	69.66
709.6	69.99
709.784	70.07
709.969	70.55
710.153	70.01
710.338	70.04
710.522	70.11
710.707	70.55
710.891	70.46
711.076	70.98
711.26	70.87
711.445	71.15
711.629	71.35
711.813	71.97
711.998	72.38
712.182	72.86
712.366	73.61
712.551	73.88
712.735	73.93
712.919	73.82
713.103	74.12
713.288	73.45
713.472	73.35
713.656	73.57
713.84	73.36
714.024	73.35
714.208	73.54
714.393	73.79
714.577	73.96
714.761	74.27
714.945	74.36
715.129	74.75
715.313	74.7
715.497	74.56
715.681	75.43
715.865	75.24
716.049	75.25
716.233	75.42
716.417	75.92
716.601	75.4
716.785	75.73
716.968	75.79
717.152	76.04
717.336	75.96
717.52	76.31
717.704	76.33
717.888	77.03
718.071	77.08
718.255	76.89
718.439	76.73
718.622	76.99
718.806	76.91
718.99	76.74
719.174	77.04
719.357	77.24
719.541	77.28
719.724	77.05
719.908	77.88
720.092	78.06
720.275	78.41
720.459	78.4
720.642	78.11
720.826	77.32
721.009	77.3
721.193	76.66
721.376	77.14
721.559	77.51
721.743	78
721.926	78.39
722.11	78.8
722.293	78.43
722.476	78.73
722.66	78.41
722.843	78.38
723.026	77.84
723.21	78.21
723.393	78.8
723.576	79.28
723.759	78.66
723.942	79.32
724.126	79.12
724.309	78.78
724.492	78.76
724.675	79.09
724.858	79.29
725.041	79.83
725.224	80.21
725.407	80.19
725.59	80.57
725.774	80.66
725.957	80.44
726.14	79.73
726.322	80.22
726.505	80.14
726.688	80.54
726.871	80.47
727.054	81.1
727.237	80.48
727.42	80.89
727.603	80.41
727.786	80.65
727.968	80.81
728.151	81.47
728.334	81.52
728.517	82.15
728.699	82.8
728.882	82.65
729.065	82.9
729.248	83.24
729.43	83.28
729.613	83.27
729.796	83.99
729.978	83.42
730.161	82.97
730.343	82.52
730.526	82.85
730.708	82.04
730.891	82.6
731.073	82.39
731.256	82.46
731.438	82.69
731.621	82.89
731.803	83.04
731.986	83.73
732.168	83.79
732.35	82.89
732.533	83.34
732.715	83.2
732.898	83.21
733.08	82.82
733.262	84.26
733.444	83.75
733.627	84.28
733.809	84.53
733.991	85.49
734.173	83.89
734.355	84.15
734.538	84.24
734.72	83.88
734.902	84.15
735.084	85.33
735.266	84.64
735.448	84.66
735.63	84.3
735.812	84.44
735.994	84.54
736.176	85.33
736.358	85.08
736.54	86.52
736.722	85.51
736.904	84.99
737.086	84.86
737.268	85.54
737.45	85.11
737.632	85.13
737.814	85.2
737.995	86.11
738.177	85.46
738.359	84.42
738.541	84.85
738.723	84.14
738.904	83.82
739.086	84.49
739.268	85.19
739.449	85.83
739.631	87.15
739.813	87.78
739.994	87.51
740.176	88.12
740.358	88.07
740.539	88.07
740.721	87.4
740.902	88.37
741.084	87.56
741.265	87.27
741.447	87.33
741.628	87.88
741.81	86.53
741.991	87.66
742.172	88.81
742.354	88.98
742.535	88.49
742.717	89.05
742.898	88.75
743.079	87.82
743.261	88.16
743.442	87.11
743.623	87.81
743.804	88.07
743.986	88.71
744.167	87.54
744.348	88.29
744.529	88.08
744.71	86.87
744.891	86.54
745.073	86.09
745.254	86.07
745.435	85.33
745.616	86.12
745.797	86.41
745.978	87.13
746.159	87.52
746.34	87.34
746.521	88.89
746.702	87.75
746.883	87.08
747.064	86.99
747.245	87.34
747.426	85.68
747.606	85.9
747.787	86.48
747.968	86.9
748.149	87.09
748.33	87.58
748.51	88.82
748.691	88.32
748.872	88.79
749.053	88.36
749.233	87.32
749.414	86.55
749.595	86.05
749.775	85.28
749.956	85.1
750.137	85.23
750.317	85.88
750.498	87.97
750.678	86.87
750.859	87.61
751.04	87.56
751.22	85.71
751.4	85.02
751.581	85.03
751.761	84.29
751.942	84.77
752.122	85.85
752.303	84.98
752.483	85.13
752.663	85.22
752.844	83.99
753.024	85.17
753.204	86.39
753.385	86.41
753.565	85.94
753.745	87.47
753.925	85.54
754.106	83.73
754.286	83.47
754.466	84.15
754.646	84.05
754.826	84.24
755.006	83.62
755.187	85.57
755.367	85.45
755.547	85.41
755.727	85.95
755.907	88.02
756.087	87.7
756.267	86.96
756.447	86.82
756.627	85.59
756.807	86.23
756.987	85.47
757.167	86.24
757.346	86.36
757.526	86.16
757.706	85.46
757.886	85.78
758.066	86.58
758.246	88.54
758.425	89.12
758.605	88.86
758.785	88.53
758.965	87.69
759.144	83.46
759.324	83.9
759.504	83.82
759.683	84.3
759.863	82.97
760.043	83.96
760.222	83.07
760.402	82.52
760.581	82.68
760.761	85.05
760.94	84.33
761.12	87.65
761.299	87.77
761.479	86.85
761.658	85.23
761.838	87.17
762.017	84.81
762.197	85.02
762.376	84.2
762.555	85.26
762.735	85.28
762.914	84.78
763.093	84.27
763.273	83.88
763.452	83.13
763.631	81.8
763.81	81.14
763.99	81.05
764.169	82.6
764.348	80.41
764.527	80.33
764.706	82.27
764.885	83.5
765.064	81.39
765.243	83.02
765.423	83.44
765.602	82.1
765.781	80.86
765.96	81.11
766.139	80.9
766.318	81.77
766.497	80.66
766.676	80.65
766.854	82.46
767.033	82.4
767.212	81.54
767.391	82.72
767.57	83.44
767.749	82.8
767.928	84.77
768.106	84.42
768.285	82.99
768.464	81.82
768.643	81.69
768.821	80.83
769	81.77
769.179	81.9
769.357	80.65
769.536	79.59
769.715	77.49
769.893	77.38
770.072	77.42
770.25	78.16
770.429	80.39
770.607	80.76
770.786	79.85
770.964	81.27
771.143	81.47
771.321	81.49
771.5	82.7
771.678	82.47
771.857	81.43
772.035	80.52
772.213	77.8
772.392	77.2
772.57	79.5
772.748	80.87
772.927	82.26
773.105	82.63
773.283	83.3
773.461	83.67
773.64	83.57
773.818	82.79
773.996	84.36
774.174	82.45
774.352	78.67
774.531	75.78
774.709	78.78
774.887	78.16
775.065	78.66
775.243	79.44
775.421	81.3
775.599	81.1
775.777	80.56
775.955	79.08
776.133	77.13
776.311	77.64
776.489	73.21
776.667	74.26
776.844	75.29
777.022	76.44
777.2	75.17
777.378	76.51
777.556	74.15
777.734	76.33
777.911	77.49
778.089	77.35
778.267	77.05
778.445	77.74
778.622	78.11
778.8	77.7
778.978	79.91
779.155	80.34
779.333	81.88
779.511	80.66
779.688	80.88
779.866	75.46
780.043	74.13
780.221	74.89
780.398	72.89
780.576	73.52
780.753	76.85
780.931	76.12
781.108	74.91
781.286	76.18
781.463	73.67
781.64	70.74
781.818	74.57
781.995	76.48
782.172	77.17
782.35	79.11
782.527	84.28
782.704	80.68
782.882	78.93
783.059	77.53
783.236	75.95
783.413	75.93
783.59	78.03
783.768	72.49
783.945	72.58
784.122	75.11
784.299	73.72
784.476	71.72
784.653	74.55
784.83	72.4
785.007	69.67
785.184	70.32
785.361	71.42
785.538	74.34
785.715	77.32
785.892	78.44
786.069	81.16
786.246	80.76
786.423	81.76
786.6	80.19
786.776	80.49
786.953	75.3
787.13	78.22
787.307	75.28
787.484	75.82
787.66	76.06
787.837	75.71
788.014	72.28
788.191	73.04
788.367	71.78
788.544	71.15
788.721	70.75
788.897	74.89
789.074	74.83
789.25	72.71
789.427	75.93
789.603	78.05
789.78	79.21
789.956	77.71
790.133	79.53
790.309	78.54
790.486	79.45
790.662	73.53
790.839	73.04
791.015	70.93
791.192	71
791.368	71.37
791.544	71.05
791.721	71.83
791.897	71.83
792.073	68.4
792.249	63.34
792.426	67.77
792.602	69.43
792.778	72.96
792.954	69.11
793.13	69.42
793.307	60.89
793.483	54.95
793.659	55.06
793.835	62.46
794.011	62.02
794.187	68.56
794.363	69.01
794.539	70.74
794.715	60.95
794.891	61.18
795.067	58.8
795.243	63.89
795.419	63.29
795.595	66.83
795.771	67.86
795.947	70.17
796.122	67.17
796.298	69.36
796.474	72.01
796.65	69.43
796.826	65.32
797.001	68.33
797.177	62.55
797.353	64.53
797.529	66.58
797.704	68.79
797.88	64.89
798.056	63.75
798.231	62.79
798.407	66.05
798.582	66.39
798.758	74.67
798.934	78.97
799.109	79.15
799.285	80.03
799.46	83.37
799.636	78.25
799.811	76.2
799.986	74.45
800.162	76.03
800.337	73.92
800.513	68.42
800.688	70.45
800.863	74.06
801.039	64.85
801.214	62.26
801.389	71.4
801.565	66.79
801.74	59.3
801.915	67.94
802.09	69.91
802.265	68.56
802.441	69.11
802.616	70.13
802.791	68.91
802.966	68.52
803.141	70.54
803.316	69.97
803.491	72.65
803.666	70.66
803.841	71.16
804.016	66.51
804.191	67.72
804.366	61.56
804.541	60.59
804.716	53.16
804.891	43.68
805.066	50.66
805.241	47.09
805.416	44.03
805.591	45.56
805.765	53.3
805.94	51.2
806.115	57.07
806.29	54.98
806.464	59.45
806.639	54.88
806.814	48.69
806.989	47.88
807.163	56.04
807.338	56.94
807.512	58.95
807.687	49.69
807.862	61.36
808.036	64.58
808.211	66.04
808.385	74.52
808.56	86.43
808.734	81.13
808.909	71.55
809.083	65.19
809.258	64.4
809.432	58.47
809.606	46.04
809.781	51.22
809.955	58.36
810.13	52.01
810.304	55.56
810.478	61.2
810.652	66.82
810.827	65.73
811.001	67.41
811.175	63.64
811.349	59.2
811.524	54.39
811.698	43.74
811.872	47.35
812.046	53.03
812.22	59.45
812.394	58.11
812.568	58.06
812.742	58.01
812.916	55.95
813.09	47.57
813.264	48.76
813.438	60.46
813.612	61.47
813.786	58.31
813.96	71.2
814.134	76.88
814.308	82.2
814.482	78.93
814.656	76.47
814.83	73.7
815.003	66.71
815.177	55.39
815.351	45.35
815.525	49.08
815.698	39.11
815.872	38.82
816.046	34.37
816.219	44.44
816.393	50.78
816.567	69.58
816.74	70.39
816.914	80.31
817.088	86.82
817.261	85.52
817.435	66.26
817.608	63.78
817.782	32.31
817.955	29.61
818.129	26.2
818.302	33.7
818.475	42.01
818.649	57.78
818.822	50.93
818.996	72
819.169	75.53
819.342	60.38
819.516	76.52
819.689	76.43
819.862	60.12
820.035	55.44
820.209	61.52
820.382	56.69
820.555	61.22
820.728	57.82
820.901	52.51
821.075	46.49
821.248	45.84
821.421	28.43
821.594	34.63
821.767	56.74
821.94	76.94
822.113	59.74
822.286	63.96
822.459	74.16
822.632	66.09
822.805	42.82
822.978	43.78
823.151	52.04
823.324	35.43
823.496	15.36
823.669	23.97
823.842	34.97
824.015	9.74
824.188	5.48
824.361	22.02
824.533	25.24
824.706	15.73
824.879	29.09
825.051	30.04
825.224	29.93
825.397	13.35
825.569	0.57
825.742	15.54
825.915	41.78
826.087	48.16
826.26	40.96
826.432	53.72
826.605	59.52
826.777	40.61
826.95	36.76
827.122	34.6
827.295	35.76
827.467	28.62
827.64	4.47
827.812	6.65
827.984	7.44
828.157	0.6
828.329	-42.37
828.501	0.64
828.674	22.15
828.846	28.44
829.018	56.15
829.19	51.34
829.363	57.39
829.535	58.72
829.707	56.28
829.879	28.56
830.051	35.28
830.223	15.79
830.395	-4.11
830.568	-6.41
830.74	-6.75
830.912	25.71
831.084	13.7
831.256	5.54
831.428	6.99
831.6	8.2
831.772	-8.96
831.943	-1.1
832.115	28.53
832.287	53.95
832.459	56.08
832.631	48.55
832.803	67.12
832.975	77.15
833.146	59.01
833.318	51.26
833.49	67.68
833.662	47.78
833.833	23.22
834.005	22.65
834.177	25.47
834.348	26.18
834.52	19.84
834.692	19.15
834.863	2.72
835.035	6.98
835.206	-46.59
835.378	-21.41
835.549	-25.21
835.721	-25.55
835.892	-29.08
836.064	-18.23
836.235	-33.82
836.407	-10.81
836.578	-8.18
836.749	-3.71
836.921	-2.12
837.092	-21.61
837.264	-46.9
837.435	-67.96
837.606	-30.98
837.777	0.97
837.949	20.13
838.12	35.74
838.291	45.05
838.462	26.82
838.633	-10.08
838.805	-10.11
838.976	-29.95
839.147	-93.45
839.318	-61.77
839.489	-74.4
839.66	-54.26
839.831	-7.59
840.002	5.2
840.173	-19.11
840.344	21.81
840.515	-42.42
840.686	-226.88
840.857	-139.58
841.028	-122.89
841.199	-65.03
841.369	-60.45
841.54	-30.11
841.711	-11.4
841.882	12.82
842.053	-9.43
842.223	-14.63
842.394	8
842.565	23.52
842.736	35.16
842.906	39.92
843.077	54.27
843.248	86.5
843.418	76.74
843.589	42.04
843.759	110.58
843.93	89.69
844.101	10.84
844.271	15.04
844.442	25.88
844.612	23.78
844.783	-1.57
844.953	-5.96
845.123	-6.55
845.294	-11.65
845.464	-188.06
845.635	-33.64
845.805	20.76
845.975	6.96
846.146	-20.68
846.316	-15.98
846.486	-3.77
846.656	17.94
846.827	14.15
846.997	11.44
847.167	32.38
847.337	19.33
847.507	-22.05
847.677	-12.83
847.848	40.41
848.018	50.02
848.188	45.58
848.358	34.7
848.528	16.35
848.698	-26.38
848.868	-118.76
849.038	-182.77
849.208	-69.15
849.378	-21.18
849.548	-16.33
849.718	2.54
849.887	31.98
850.057	21.15
850.227	6.92
850.397	8.66
850.567	-71.91
850.737	-216.52
850.906	-660
851.076	-597.66
851.246	-201.05
851.415	18.34
851.585	-11.81
851.755	-55.38
851.924	1.14
852.094	-43.17
852.264	-129.42
852.433	-625.96
852.603	-43.81
852.772	-2.05
852.942	25.26
853.111	-14.68
853.281	-6.67
853.45	8.37
853.62	-56.18
853.789	-58.04
853.959	-31.49
854.128	-50.79
854.297	-57
854.467	-70.52
854.636	-107.89
854.805	-23.82
854.975	-70.15
855.144	-106.85
855.313	54.55
855.482	-37.23
855.652	-82.39
855.821	30.52
855.99	43.92
856.159	11.2
856.328	6.66
856.497	-2.6
856.667	3.87
856.836	11.63
857.005	16.83
857.174	21.33
857.343	-25.04
857.512	9.25
857.681	-62.94
857.85	-122.44
858.019	-56.87
858.188	-20.76
858.356	-61.32
858.525	-105.78
858.694	-69.06
858.863	-157.2
859.032	-139.62
859.201	-118.34
859.369	0.77
859.538	1.28
859.707	-31.38
859.876	8.26
860.044	-1.11
860.213	26.51
860.382	23.04
860.55	46.75
860.719	47.05
860.888	35
861.056	8.41
861.225	-1.92
861.393	9.13
861.562	-0.44
861.73	-45.7
861.899	-262.3
862.067	-1965.52
862.236	-110.19
862.404	-256.77
862.572	-135.6
862.741	-42.14
862.909	-38.7
863.078	-115.58
863.246	-37.06
863.414	-25.26
863.582	2.77
863.751	-26.91
863.919	-39.27
864.087	-9.07
864.255	10.57
864.424	-223.51
864.592	-23.7
864.76	-24.89
864.928	-36
865.096	-68.79
865.264	-42.86
865.432	-681.82
865.6	78
865.768	-67.15
865.936	-82.66
866.104	-40.76
866.272	-55.31
866.44	-284.65
866.608	497.28
866.776	243.6
866.944	2651.16
867.112	-447.46
867.28	-162.26
867.448	-40.64
867.615	8.46
867.783	12.83
867.951	-18.08
868.119	17.35
868.286	-33.85
868.454	-157.43
868.622	-131.03
868.789	-72.18
868.957	-2314.29
869.125	-2036.84
869.292	-114.25
869.46	-121.88
869.627	15.17
869.795	-24
869.963	-1.11
870.13	5.09
870.298	0.27
870.465	-123.82
870.632	-134.93
870.8	-102.11
870.967	-162.29
871.135	-232.34
871.302	-156.97
871.469	-116.15
871.637	-17.08
871.804	-5.63
871.971	-52.77
872.139	-284.65
872.306	-9.87
872.473	-82.46
872.64	-408.15
872.807	-142.21
872.975	1.83
873.142	-208.36
873.309	1394.59
873.476	14.55
873.643	81.23
873.81	4.4
873.977	79.06
874.144	84.71
874.311	9.18
874.478	-60
874.645	-50.35
874.812	-31.17
874.979	-28.92
875.146	-19
875.313	-28.61
875.48	27.45
875.647	-7.12
875.813	-37.79
875.98	-1.1
876.147	-15.07
876.314	-36.66
876.481	458.68
876.647	-441.57
876.814	300
876.981	139.62
877.147	38.73
877.314	41.33
877.481	55.13
877.647	83.63
877.814	18.05
877.98	-6.61
878.147	32.26
878.314	83.89
878.48	13.75
878.647	46.59
878.813	77.44
878.979	41.84
879.146	-17.68
879.312	-24.19
879.479	-66.78
879.645	-187.02
879.811	-359.62
879.978	-709.92
880.144	-152.53
880.31	-73.95
880.477	-282.67
880.643	-174.3
880.809	-20.93
880.975	-4.05
881.142	-471.82
881.308	13.48
881.474	-12.1
881.64	-34.95
881.806	-92.58
881.972	-9.36
882.138	-12.38
882.304	3.46
882.47	-125.73
882.636	-521.31
882.802	-149.04
882.968	-41.46
883.134	-23.66
883.3	-24.61
883.466	18.22
883.632	69.04
883.798	51.49
883.964	54.87
884.129	71.89
884.295	88.97
884.461	-21.83
884.627	-17.8
884.793	-45.64
884.958	-33.37
885.124	-121.11
885.29	-193.03
885.455	-458.74
885.621	-129.67
885.787	-169.67
885.952	-61.29
886.118	-73.62
886.283	-38.99
886.449	-102.2
886.614	-105
886.78	-294.23
886.945	1121.31
887.111	-525.43
887.276	-378.41
887.442	-842.73
887.607	-324.06
887.773	-186.31
887.938	-213.84
888.103	-302.79
888.269	-150
888.434	-312.97
888.599	-95.26
888.764	-38.67
888.93	-13.04
889.095	-30.17
889.26	-44.69
889.425	-49.47
889.59	-41.61
889.756	-67.5
889.921	-25.13
890.086	25.76
890.251	7.99
890.416	-45.31
890.581	-464.52
890.746	45
890.911	107.01
891.076	74.44
891.241	-185.82
891.406	55.66
891.571	13.51
891.736	-233.94
891.901	-578.76
892.065	445.05
892.23	153.01
892.395	238.94
892.56	300
892.725	-206.25
892.889	-1185.37
893.054	-181.7
893.219	-64.66
893.384	-25.24
893.548	-81.97
893.713	-81.98
893.878	-44.86
