Data from Ofra_1a_PS_2HS27_Reflection_2.txt Node
Date: Tue Jul 20 10:53:41 EDT 2021
User: Adam
Spectrometer: FLMT01687
Trigger mode: 0
Integration Time (sec): 1.004000E0
Scans to average: 2
Electric dark correction enabled: true
Nonlinearity correction enabled: false
Boxcar width: 2
XAxis mode: Wavelengths
Number of Pixels in Spectrum: 3648
>>>>>Begin Spectral Data<<<<<
179.494	-489.85
179.716	-679.39
179.937	1376.92
180.158	-1674.52
180.38	214.92
180.601	133.23
180.823	104.48
181.044	62.74
181.265	17.42
181.486	86.23
181.708	48.36
181.929	-1845.45
182.15	40.48
182.372	467.49
182.593	60.45
182.814	83.36
183.035	44.63
183.257	58.42
183.478	45.77
183.699	8.5
183.92	-25.71
184.141	8.1
184.363	8.03
184.584	-19.8
184.805	21.54
185.026	54.86
185.247	29.13
185.468	6.73
185.689	30.69
185.91	2.74
186.132	10.4
186.353	13.23
186.574	24.43
186.795	53.99
187.016	71.46
187.237	72.56
187.458	53.47
187.679	39.52
187.9	20.62
188.121	22.41
188.342	47.83
188.563	86.66
188.784	90.35
189.005	77.63
189.226	47.84
189.447	38.58
189.667	18.04
189.888	-5.53
190.109	-11.97
190.33	17.15
190.551	-7.62
190.772	-15.04
190.993	-30.98
191.214	-35.61
191.434	-74.5
191.655	-49.71
191.876	14.92
192.097	93.03
192.318	94.88
192.538	76.82
192.759	49.74
192.98	55.13
193.201	24.33
193.421	-0.38
193.642	13.29
193.863	28.23
194.083	4.07
194.304	27.27
194.525	7.32
194.745	3
194.966	-8.73
195.187	-8.61
195.407	-35.99
195.628	-1.09
195.848	8.18
196.069	-1.24
196.29	10.81
196.51	-7.79
196.731	-29.15
196.951	-57.31
197.172	-23.66
197.392	-27.85
197.613	13.05
197.833	5.21
198.054	26.35
198.274	9.57
198.495	11.74
198.715	-2.29
198.936	40.62
199.156	22.43
199.377	30.41
199.597	21.85
199.817	23.33
200.038	-10.59
200.258	22.95
200.479	29.39
200.699	43.73
200.919	26.42
201.14	21.48
201.36	20.3
201.58	-14.97
201.801	-38.89
202.021	-49.37
202.241	-59.12
202.461	-62.44
202.682	-24.11
202.902	-0.02
203.122	17.93
203.342	30.17
203.563	22.85
203.783	10.97
204.003	11.17
204.223	9.39
204.443	19.35
204.663	7.09
204.884	55.11
205.104	27.74
205.324	59.95
205.544	-6.93
205.764	46.49
205.984	11.29
206.204	22.19
206.424	-7.58
206.644	0.54
206.864	-70.08
207.084	-21.3
207.304	-26.29
207.525	-22.7
207.745	12.02
207.964	37.94
208.184	34.64
208.404	32.81
208.624	50.89
208.844	36.28
209.064	40.69
209.284	18.16
209.504	3.5
209.724	-2.55
209.944	-12.85
210.164	-24.6
210.384	-3.21
210.604	6.61
210.823	-2.74
211.043	27.6
211.263	-7.58
211.483	4.99
211.703	3.3
211.922	-38.68
212.142	-47.94
212.362	-14.23
212.582	-34.12
212.801	-58.52
213.021	-13.77
213.241	-3.15
213.461	-14.74
213.68	5.13
213.9	5.06
214.12	0.9
214.339	-6.6
214.559	11.32
214.779	2.45
214.998	11.73
215.218	22.15
215.438	29.05
215.657	16.57
215.877	9.86
216.096	19.82
216.316	11.02
216.535	12.75
216.755	7.34
216.974	-5.21
217.194	-15.93
217.413	-11.3
217.633	-19.15
217.852	-8.77
218.072	16.55
218.291	12.37
218.511	8.44
218.73	-10.27
218.95	-30.87
219.169	-56.43
219.389	-24.27
219.608	-15.99
219.827	4.38
220.047	26.21
220.266	22.58
220.485	10.4
220.705	7.78
220.924	-2.84
221.143	7.95
221.363	27.77
221.582	34.45
221.801	39.16
222.021	43.75
222.24	51.31
222.459	44.97
222.678	30.21
222.897	10.51
223.117	14.66
223.336	13.96
223.555	21.1
223.774	16.18
223.993	50.96
224.213	58.2
224.432	37.47
224.651	21.42
224.87	24.7
225.089	14.27
225.308	25.07
225.527	15.35
225.746	21.91
225.965	40.88
226.184	37.74
226.404	4.48
226.623	13.98
226.842	16.63
227.061	19.7
227.28	29.06
227.499	33.04
227.718	30.83
227.936	28.26
228.155	19.81
228.374	18.94
228.593	28.09
228.812	36.41
229.031	34.92
229.25	22.35
229.469	16.34
229.688	11.66
229.907	14.71
230.125	10.84
230.344	23.75
230.563	38.52
230.782	40.48
231.001	50.8
231.22	60.05
231.438	75.32
231.657	51.56
231.876	63.12
232.095	56.89
232.313	43.62
232.532	23.16
232.751	16.52
232.969	0.57
233.188	-14.94
233.407	0.82
233.625	2.96
233.844	4.52
234.063	6.71
234.281	20.32
234.5	25.21
234.719	22.46
234.937	26.07
235.156	32.95
235.374	18.09
235.593	14.87
235.811	34.45
236.03	27.99
236.249	29.21
236.467	39.48
236.686	34.36
236.904	25.21
237.123	19.38
237.341	26.66
237.559	28.41
237.778	39.65
237.996	10.47
238.215	28.71
238.433	-43.42
238.652	-24.67
238.87	-51.15
239.088	-31.85
239.307	-21.63
239.525	12.99
239.743	10.7
239.962	9.96
240.18	26.56
240.398	25.81
240.617	6.3
240.835	-4.91
241.053	-11.13
241.271	-12.15
241.49	5.89
241.708	-15.95
241.926	-13.26
242.144	25.76
242.363	7.92
242.581	-7.98
242.799	26.99
243.017	28.9
243.235	-2.92
243.453	-0.52
243.672	6.66
243.89	7.08
244.108	6.81
244.326	28.01
244.544	34.44
244.762	27.2
244.98	36.65
245.198	45.83
245.416	43.71
245.634	35.36
245.852	23.53
246.07	38.43
246.288	30.08
246.506	25.16
246.724	15.91
246.942	22.87
247.16	-2.41
247.378	-27.34
247.596	-18.2
247.814	-42.72
248.032	-44.27
248.25	4.33
248.468	18.1
248.685	9.52
248.903	13.06
249.121	25.21
249.339	11.25
249.557	13.32
249.775	33.8
249.992	43.99
250.21	33.74
250.428	50.58
250.646	57.71
250.863	34.44
251.081	25.77
251.299	36.75
251.517	35.92
251.734	24.76
251.952	23.23
252.17	23.84
252.387	15.69
252.605	-1.16
252.823	-32.05
253.04	-7.63
253.258	17.9
253.475	15.07
253.693	17.16
253.911	22.85
254.128	14.8
254.346	12.26
254.563	21.28
254.781	9.41
254.998	4.82
255.216	-40.9
255.433	-74.42
255.651	-75.94
255.868	-66.24
256.086	-50.82
256.303	-19.45
256.521	-14.47
256.738	-24.01
256.956	-15.87
257.173	-16.74
257.39	-7.83
257.608	-2.98
257.825	8.17
258.043	16.75
258.26	17.54
258.477	23.24
258.695	34.93
258.912	38.17
259.129	35.68
259.346	35.78
259.564	39.28
259.781	18.65
259.998	17.56
260.216	14.17
260.433	7.56
260.65	9.52
260.867	10.56
261.084	-3.66
261.302	-3.73
261.519	11.19
261.736	2.65
261.953	-0.95
262.17	12.17
262.387	9.53
262.604	5.98
262.822	12.92
263.039	22.79
263.256	18.9
263.473	20.11
263.69	21.97
263.907	29.73
264.124	24.94
264.341	37.85
264.558	37.34
264.775	31.52
264.992	23.53
265.209	10.69
265.426	-17.93
265.643	-9.2
265.86	-12.35
266.077	-15.07
266.294	-11.37
266.51	11.4
266.727	11.07
266.944	24.14
267.161	29.52
267.378	43.74
267.595	37.72
267.812	24.54
268.028	14.98
268.245	18.14
268.462	19.04
268.679	31.07
268.896	49.18
269.112	34.46
269.329	1.6
269.546	8.23
269.763	9.82
269.979	-8.98
270.196	0.79
270.413	7
270.629	-13.23
270.846	-32.97
271.063	-32.85
271.279	-7.48
271.496	-10.65
271.712	11.38
271.929	13.18
272.146	28.41
272.362	4.09
272.579	17.14
272.795	2.69
273.012	16.68
273.228	19.66
273.445	21.19
273.661	19.18
273.878	3.72
274.094	6.32
274.311	3.72
274.527	-9
274.744	7.35
274.96	25.07
275.177	7.81
275.393	17.8
275.609	36.84
275.826	36.31
276.042	27.71
276.259	40.38
276.475	28.08
276.691	20.02
276.908	13.71
277.124	26.6
277.34	35.06
277.557	30.26
277.773	20.07
277.989	7.23
278.205	10.02
278.422	-2.68
278.638	10.4
278.854	-8.24
279.07	5.32
279.286	-0.49
279.503	8.53
279.719	2.76
279.935	16.33
280.151	2.48
280.367	10.74
280.583	4.74
280.799	-1.53
281.016	-27.52
281.232	-3.91
281.448	-10.65
281.664	-14.44
281.88	-7.38
282.096	17.26
282.312	10.41
282.528	6.23
282.744	18.02
282.96	16.58
283.176	-4.13
283.392	-23.57
283.608	4.63
283.824	-33.35
284.04	-72.91
284.256	-12.78
284.471	8.26
284.687	2.26
284.903	14.11
285.119	43.84
285.335	49.13
285.551	43.09
285.767	56.4
285.982	65.94
286.198	20.25
286.414	13.08
286.63	14.36
286.846	-6.13
287.061	-6.65
287.277	7.52
287.493	-7.92
287.709	0.98
287.924	11.18
288.14	22.77
288.356	32.74
288.571	27.71
288.787	16.18
289.003	16.22
289.218	-8.13
289.434	-28.89
289.65	5.59
289.865	-1.61
290.081	0.67
290.296	17
290.512	37.13
290.727	14.35
290.943	14.6
291.159	8.43
291.374	1.53
291.59	-3.32
291.805	-22.87
292.021	-2.24
292.236	-14.46
292.451	-18.15
292.667	-27.12
292.882	-6.15
293.098	-16.43
293.313	-6.84
293.529	4.57
293.744	-9.01
293.959	-0.92
294.175	-0.19
294.39	9.83
294.605	16.81
294.821	32.49
295.036	30.71
295.251	36.83
295.467	24.35
295.682	12.95
295.897	10.05
296.112	16.17
296.328	18.67
296.543	28.18
296.758	28.53
296.973	19.58
297.188	5.62
297.404	-27.65
297.619	-38.28
297.834	-52.82
298.049	-40.34
298.264	-21.71
298.479	-21.91
298.694	1.18
298.909	1.79
299.125	0.87
299.34	-0.91
299.555	19.28
299.77	29.61
299.985	35.91
300.2	42.22
300.415	36.53
300.63	32.5
300.845	28.4
301.06	12.14
301.275	-3.01
301.49	5.57
301.704	-7.81
301.919	-13.01
302.134	-14.8
302.349	-9.38
302.564	-15.45
302.779	-15.43
302.994	-9.83
303.209	3.08
303.423	18.15
303.638	27.46
303.853	27.21
304.068	19.98
304.283	27.99
304.497	2.72
304.712	17.2
304.927	16.93
305.142	28.42
305.356	27.35
305.571	27.82
305.786	13.47
306	15.95
306.215	4.67
306.43	1.81
306.644	8.45
306.859	7.85
307.074	9.71
307.288	20.9
307.503	36.88
307.717	32.91
307.932	32.19
308.147	19.74
308.361	12.75
308.576	-16.55
308.79	-5.69
309.005	-14.67
309.219	3.08
309.434	13.1
309.648	24.56
309.863	23.35
310.077	26.26
310.292	33.94
310.506	14.69
310.72	12.8
310.935	41.17
311.149	48.46
311.364	57.64
311.578	73.31
311.792	72.4
312.007	47.8
312.221	18.18
312.435	9.23
312.649	1.35
312.864	-36.38
313.078	-34.11
313.292	-20.4
313.507	-19.12
313.721	-21.55
313.935	7.96
314.149	12.63
314.363	17.27
314.578	7.04
314.792	-10.23
315.006	-0.73
315.22	-9.34
315.434	-1.24
315.648	-16.56
315.862	-9.67
316.077	-9.04
316.291	-16.39
316.505	-70.68
316.719	-39.25
316.933	-19.38
317.147	-24.04
317.361	-16.47
317.575	-3.51
317.789	-13.82
318.003	-18.42
318.217	-0.18
318.431	7.04
318.645	8.06
318.859	11.43
319.073	27.64
319.287	13.08
319.5	7.97
319.714	4.35
319.928	2.06
320.142	-10.08
320.356	0.42
320.57	-21.36
320.784	-21.01
320.997	-33.56
321.211	-18.16
321.425	-56.61
321.639	-10.13
321.853	13.65
322.066	5.41
322.28	-9.98
322.494	10.33
322.707	3.87
322.921	-12.49
323.135	6.17
323.349	5.53
323.562	8.39
323.776	2.98
323.989	21.6
324.203	9.98
324.417	15.4
324.63	8.65
324.844	4.94
325.057	-14.06
325.271	-5.63
325.485	-16.21
325.698	-0.01
325.912	13.58
326.125	9.85
326.339	23.43
326.552	21.32
326.766	-4.32
326.979	-10.51
327.193	-8.03
327.406	-16.27
327.619	3.77
327.833	11.72
328.046	7.98
328.26	4.49
328.473	-5.59
328.686	-14.87
328.9	2.03
329.113	-1.22
329.326	6.06
329.54	28.88
329.753	39.42
329.966	32.68
330.179	29.6
330.393	23.25
330.606	15.24
330.819	-12.4
331.032	-6.13
331.246	18.22
331.459	43.52
331.672	34.49
331.885	54.79
332.098	54.74
332.311	33.2
332.525	15.16
332.738	13.67
332.951	-5.21
333.164	5.99
333.377	-7.24
333.59	-5.86
333.803	4.22
334.016	15.2
334.229	4.97
334.442	13.81
334.655	5.26
334.868	-6.65
335.081	-6.11
335.294	-9.1
335.507	8.47
335.72	17.28
335.933	25.95
336.146	43.65
336.359	42.94
336.572	42.16
336.785	43.18
336.997	59.74
337.21	29.23
337.423	3.6
337.636	-10.91
337.849	-19.74
338.062	-22.39
338.274	-10.96
338.487	-12.85
338.7	-19.62
338.913	-1.79
339.125	-0.4
339.338	-0.82
339.551	22.77
339.763	34.68
339.976	39.34
340.189	55.31
340.402	63.6
340.614	49.8
340.827	54.05
341.039	37.41
341.252	35.73
341.465	17.3
341.677	21.44
341.89	-2.8
342.102	17.64
342.315	5.45
342.527	13.75
342.74	5.25
342.952	19.75
343.165	2.54
343.377	-1.14
343.59	0.47
343.802	8.97
344.015	16.59
344.227	23.73
344.44	26.99
344.652	32.27
344.864	31.23
345.077	34.59
345.289	28.89
345.502	37.09
345.714	21.94
345.926	16.62
346.139	11.98
346.351	11.09
346.563	11.36
346.775	20.63
346.988	19.31
347.2	0.36
347.412	5.92
347.624	1.36
347.837	2.85
348.049	7.87
348.261	12.08
348.473	5.83
348.685	10.31
348.897	16.29
349.11	23.39
349.322	29.73
349.534	37.1
349.746	30.22
349.958	14.97
350.17	-9.82
350.382	-11.04
350.594	10.34
350.806	22.36
351.018	20.23
351.23	39.7
351.442	39.9
351.654	24.81
351.866	15.87
352.078	25.77
352.29	-1.67
352.502	-1.72
352.714	-0.02
352.926	0.47
353.138	3
353.35	13.93
353.561	7.09
353.773	-0.24
353.985	8.45
354.197	3.93
354.409	12.86
354.621	8.38
354.832	6.21
355.044	-10.47
355.256	4.94
355.468	-8.86
355.679	11.32
355.891	21.07
356.103	24.75
356.314	7.01
356.526	-2.2
356.738	-18.22
356.949	-21.7
357.161	-20.9
357.373	-5.33
357.584	1.26
357.796	1.05
358.008	9.29
358.219	7.48
358.431	8.54
358.642	18.4
358.854	23.9
359.065	6.22
359.277	11.01
359.488	6.79
359.7	-0.01
359.911	-11.29
360.123	8.95
360.334	-6.2
360.546	-6.62
360.757	-1.78
360.969	-1.64
361.18	-9.85
361.391	9.21
361.603	17.82
361.814	18.51
362.025	27.38
362.237	29.98
362.448	35.36
362.659	19.48
362.871	1.28
363.082	1.37
363.293	-14.63
363.504	-42.48
363.716	-27.21
363.927	1.17
364.138	-10.9
364.349	-22.16
364.56	-25.21
364.772	-0.37
364.983	-0.99
365.194	10.64
365.405	30.31
365.616	32.7
365.827	9.39
366.038	13.52
366.25	14.91
366.461	11.95
366.672	15.01
366.883	25.9
367.094	9.48
367.305	-16.19
367.516	1.05
367.727	-10.81
367.938	-20.81
368.149	-3.78
368.36	6.97
368.571	-25.01
368.781	-34.32
368.992	-11.64
369.203	-8.83
369.414	-5.65
369.625	9.88
369.836	36.89
370.047	39.7
370.258	35.73
370.468	35.21
370.679	32.71
370.89	22.96
371.101	12.99
371.312	14.04
371.522	15.77
371.733	13.22
371.944	5.05
372.155	4.1
372.365	4.75
372.576	8.72
372.787	-0.3
372.997	-0.75
373.208	3.43
373.419	-2.76
373.629	-21.05
373.84	-18.02
374.05	-17.74
374.261	-30.65
374.472	-23.3
374.682	4.23
374.893	-1.91
375.103	13.04
375.314	24.25
375.524	24.6
375.735	15.39
375.945	21.17
376.156	16.66
376.366	9
376.577	2.76
376.787	3.99
376.997	5.67
377.208	7.76
377.418	5.75
377.629	11.19
377.839	12.07
378.049	13.28
378.26	5.37
378.47	11.72
378.68	13.89
378.89	11.81
379.101	6.02
379.311	8.52
379.521	3.02
379.732	0.55
379.942	1.33
380.152	5.78
380.362	10.65
380.572	19.12
380.783	27.42
380.993	28.8
381.203	22.72
381.413	21.82
381.623	25.85
381.833	19.61
382.043	14.73
382.253	22.1
382.463	27.42
382.674	17.64
382.884	20.81
383.094	22.9
383.304	21.52
383.514	18.76
383.724	18.18
383.934	13.59
384.144	10.51
384.353	10.99
384.563	5.24
384.773	6.32
384.983	0.96
385.193	1.99
385.403	0.95
385.613	5.81
385.823	4.57
386.033	7.31
386.242	1.6
386.452	0.5
386.662	0.07
386.872	9.03
387.082	7.01
387.291	9.72
387.501	12.11
387.711	12.27
387.921	7.82
388.13	7.45
388.34	5.51
388.55	-1.69
388.759	-4.31
388.969	-3.06
389.179	1.12
389.388	2.22
389.598	5.32
389.807	3.27
390.017	1.31
390.227	-1.92
390.436	-0.99
390.646	-1
390.855	-1.7
391.065	-1.94
391.274	-2.16
391.484	-2.17
391.693	-2.74
391.903	-1.58
392.112	-2.68
392.322	-2.6
392.531	-2.1
392.74	-3.02
392.95	-0.98
393.159	-0.55
393.369	1.29
393.578	1.95
393.787	4.11
393.997	2.2
394.206	1.96
394.415	2.48
394.625	0.16
394.834	-1.57
395.043	-0.87
395.252	1.31
395.462	-0
395.671	2.15
395.88	3.27
396.089	3.45
396.298	2.27
396.508	2.52
396.717	2.32
396.926	2.53
397.135	3.14
397.344	2.66
397.553	2.75
397.762	3.49
397.971	3.03
398.181	2.64
398.39	2.64
398.599	2.18
398.808	1.49
399.017	2.11
399.226	1.56
399.435	2.04
399.644	2.61
399.853	2.95
400.062	2.52
400.27	2.53
400.479	2.37
400.688	2.46
400.897	1.96
401.106	1.87
401.315	2.03
401.524	2.28
401.733	1.96
401.941	2.42
402.15	2.81
402.359	2.89
402.568	2.68
402.777	3.01
402.985	2.53
403.194	2.37
403.403	2.46
403.612	2.26
403.82	1.85
404.029	2.04
404.238	2.08
404.446	2.16
404.655	2.45
404.864	2.48
405.072	2.37
405.281	2.36
405.489	2.05
405.698	1.91
405.906	2.11
406.115	2.11
406.324	2.03
406.532	2.22
406.741	2.27
406.949	2.16
407.158	2.22
407.366	2.14
407.574	2.04
407.783	2.02
407.991	2.02
408.2	2.04
408.408	2.12
408.617	2.18
408.825	1.96
409.033	2.01
409.242	2.13
409.45	2.12
409.658	2.04
409.867	2.17
410.075	2.15
410.283	2.07
410.491	2
410.7	1.87
410.908	1.95
411.116	2
411.324	1.94
411.533	1.85
411.741	2.06
411.949	2.09
412.157	2.03
412.365	2.09
412.573	2.2
412.781	2.01
412.99	1.98
413.198	2.09
413.406	2.11
413.614	2.17
413.822	2.42
414.03	2.36
414.238	2.34
414.446	2.35
414.654	2.18
414.862	2.11
415.07	2.1
415.278	2.17
415.486	2
415.694	2.15
415.902	2.05
416.109	1.97
416.317	1.85
416.525	1.89
416.733	1.83
416.941	1.96
417.149	1.98
417.357	2.04
417.564	1.98
417.772	2.03
417.98	1.89
418.188	1.9
418.395	1.69
418.603	1.6
418.811	1.52
419.019	1.51
419.226	1.55
419.434	1.73
419.642	1.67
419.849	1.78
420.057	1.92
420.265	1.91
420.472	1.82
420.68	2.07
420.887	1.98
421.095	2.02
421.302	2.16
421.51	2.03
421.717	1.98
421.925	1.97
422.132	1.85
422.34	1.6
422.547	1.63
422.755	1.73
422.962	1.82
423.17	1.63
423.377	1.74
423.585	1.9
423.792	1.68
423.999	1.64
424.207	1.78
424.414	1.8
424.621	1.79
424.829	1.9
425.036	1.85
425.243	1.92
425.451	1.91
425.658	1.66
425.865	1.7
426.072	1.73
426.28	1.74
426.487	1.74
426.694	1.79
426.901	1.82
427.108	1.78
427.315	1.61
427.523	1.52
427.73	1.66
427.937	1.54
428.144	1.5
428.351	1.61
428.558	1.79
428.765	1.75
428.972	1.84
429.179	1.81
429.386	1.88
429.593	1.7
429.8	1.74
430.007	1.69
430.214	1.75
430.421	1.75
430.628	1.75
430.835	1.6
431.042	1.58
431.249	1.72
431.456	1.65
431.662	1.67
431.869	1.88
432.076	1.87
432.283	1.86
432.49	1.86
432.697	1.96
432.903	1.92
433.11	2.15
433.317	2.1
433.524	2.14
433.73	2.08
433.937	2.12
434.144	1.88
434.35	1.79
434.557	1.85
434.764	1.91
434.97	1.86
435.177	2.03
435.384	2.12
435.59	2.18
435.797	2.19
436.003	2.29
436.21	2.16
436.416	2.13
436.623	1.97
436.829	1.94
437.036	1.75
437.242	1.87
437.449	1.86
437.655	2
437.862	2.11
438.068	2.15
438.275	2.19
438.481	2.3
438.687	2.32
438.894	2.3
439.1	2.34
439.307	2.35
439.513	2.36
439.719	2.34
439.926	2.29
440.132	2.35
440.338	2.33
440.544	2.26
440.751	2.21
440.957	2.29
441.163	2.21
441.369	2.21
441.575	2.23
441.782	2.22
441.988	2.15
442.194	2.16
442.4	2.06
442.606	2.18
442.812	2.24
443.018	2.24
443.224	2.42
443.431	2.55
443.637	2.41
443.843	2.5
444.049	2.64
444.255	2.57
444.461	2.45
444.667	2.47
444.873	2.4
445.079	2.29
445.284	2.24
445.49	2.26
445.696	2.26
445.902	2.21
446.108	2.2
446.314	2.34
446.52	2.41
446.726	2.45
446.931	2.38
447.137	2.45
447.343	2.41
447.549	2.41
447.755	2.37
447.96	2.57
448.166	2.48
448.372	2.42
448.578	2.39
448.783	2.42
448.989	2.32
449.195	2.37
449.4	2.38
449.606	2.44
449.812	2.4
450.017	2.37
450.223	2.34
450.428	2.32
450.634	2.3
450.84	2.34
451.045	2.51
451.251	2.62
451.456	2.68
451.662	2.65
451.867	2.67
452.073	2.6
452.278	2.51
452.483	2.5
452.689	2.47
452.894	2.57
453.1	2.55
453.305	2.61
453.51	2.66
453.716	2.76
453.921	2.74
454.127	2.81
454.332	2.83
454.537	2.76
454.742	2.71
454.948	2.74
455.153	2.66
455.358	2.65
455.563	2.81
455.769	2.77
455.974	2.74
456.179	2.72
456.384	2.67
456.589	2.55
456.795	2.52
457	2.49
457.205	2.5
457.41	2.56
457.615	2.57
457.82	2.64
458.025	2.65
458.23	2.73
458.435	2.68
458.64	2.6
458.845	2.63
459.05	2.68
459.255	2.62
459.46	2.61
459.665	2.62
459.87	2.65
460.075	2.62
460.28	2.7
460.485	2.85
460.69	2.9
460.895	2.9
461.099	2.82
461.304	2.67
461.509	2.62
461.714	2.65
461.919	2.62
462.123	2.72
462.328	2.76
462.533	2.67
462.738	2.61
462.942	2.59
463.147	2.53
463.352	2.6
463.556	2.68
463.761	2.72
463.966	2.74
464.17	2.86
464.375	2.89
464.58	2.81
464.784	2.76
464.989	2.82
465.193	2.76
465.398	2.75
465.602	2.95
465.807	3.03
466.011	3
466.216	2.96
466.42	2.97
466.625	2.93
466.829	2.94
467.034	3.08
467.238	3.21
467.443	3.23
467.647	3.15
467.851	3.13
468.056	3.01
468.26	2.98
468.464	2.99
468.669	3.05
468.873	3.07
469.077	3.11
469.282	3.11
469.486	3.12
469.69	3.2
469.894	3.2
470.099	3.17
470.303	3.17
470.507	3.19
470.711	3.09
470.915	3.14
471.119	3.28
471.324	3.3
471.528	3.29
471.732	3.39
471.936	3.38
472.14	3.31
472.344	3.38
472.548	3.46
472.752	3.39
472.956	3.49
473.16	3.53
473.364	3.45
473.568	3.34
473.772	3.33
473.976	3.28
474.18	3.24
474.384	3.27
474.588	3.39
474.792	3.48
474.995	3.54
475.199	3.57
475.403	3.57
475.607	3.53
475.811	3.46
476.015	3.34
476.218	3.31
476.422	3.36
476.626	3.43
476.83	3.56
477.033	3.68
477.237	3.73
477.441	3.75
477.644	3.7
477.848	3.65
478.052	3.63
478.255	3.71
478.459	3.65
478.663	3.74
478.866	3.79
479.07	3.76
479.273	3.72
479.477	3.78
479.681	3.77
479.884	3.83
480.088	3.93
480.291	3.93
480.495	3.91
480.698	3.83
480.901	3.81
481.105	3.79
481.308	3.78
481.512	3.82
481.715	3.98
481.919	4.04
482.122	4.06
482.325	4.16
482.529	4.19
482.732	4.1
482.935	4.01
483.138	4.02
483.342	4.02
483.545	4.06
483.748	4.13
483.952	4.11
484.155	4.19
484.358	4.22
484.561	4.12
484.764	4.04
484.967	4.09
485.171	4.05
485.374	4.01
485.577	4.12
485.78	4.15
485.983	4.06
486.186	4.03
486.389	4.04
486.592	4
486.795	4.11
486.998	4.15
487.201	4.17
487.404	4.21
487.607	4.27
487.81	4.2
488.013	4.23
488.216	4.22
488.419	4.15
488.622	4.08
488.825	4.11
489.028	4.18
489.231	4.2
489.433	4.26
489.636	4.27
489.839	4.29
490.042	4.29
490.245	4.26
490.447	4.22
490.65	4.25
490.853	4.27
491.056	4.19
491.258	4.26
491.461	4.26
491.664	4.27
491.866	4.22
492.069	4.33
492.272	4.3
492.474	4.34
492.677	4.36
492.879	4.38
493.082	4.34
493.285	4.37
493.487	4.32
493.69	4.33
493.892	4.29
494.095	4.31
494.297	4.35
494.5	4.44
494.702	4.43
494.905	4.49
495.107	4.51
495.309	4.53
495.512	4.48
495.714	4.52
495.917	4.56
496.119	4.6
496.321	4.56
496.524	4.52
496.726	4.48
496.928	4.46
497.13	4.36
497.333	4.39
497.535	4.47
497.737	4.45
497.939	4.45
498.142	4.51
498.344	4.52
498.546	4.53
498.748	4.63
498.95	4.62
499.152	4.65
499.355	4.62
499.557	4.66
499.759	4.66
499.961	4.68
500.163	4.7
500.365	4.74
500.567	4.74
500.769	4.75
500.971	4.78
501.173	4.75
501.375	4.8
501.577	4.77
501.779	4.76
501.981	4.76
502.183	4.78
502.385	4.73
502.587	4.79
502.788	4.83
502.99	4.82
503.192	4.86
503.394	4.86
503.596	4.8
503.798	4.72
503.999	4.77
504.201	4.79
504.403	4.88
504.605	5.01
504.806	5.13
505.008	5.18
505.21	5.24
505.411	5.23
505.613	5.21
505.815	5.23
506.016	5.22
506.218	5.21
506.42	5.19
506.621	5.24
506.823	5.22
507.024	5.24
507.226	5.25
507.427	5.35
507.629	5.37
507.83	5.4
508.032	5.38
508.233	5.45
508.435	5.42
508.636	5.44
508.838	5.5
509.039	5.53
509.24	5.47
509.442	5.52
509.643	5.48
509.845	5.45
510.046	5.48
510.247	5.51
510.448	5.51
510.65	5.52
510.851	5.57
511.052	5.6
511.254	5.68
511.455	5.68
511.656	5.68
511.857	5.72
512.058	5.72
512.26	5.69
512.461	5.72
512.662	5.78
512.863	5.72
513.064	5.73
513.265	5.68
513.466	5.74
513.667	5.75
513.868	5.69
514.069	5.71
514.27	5.81
514.471	5.73
514.672	5.72
514.873	5.81
515.074	5.8
515.275	5.75
515.476	5.82
515.677	5.83
515.878	5.85
516.079	5.88
516.28	5.96
516.481	5.97
516.682	5.97
516.882	5.94
517.083	5.9
517.284	5.9
517.485	5.83
517.686	5.88
517.886	5.89
518.087	5.98
518.288	5.96
518.488	6.02
518.689	6
518.89	6.01
519.091	6.04
519.291	6.06
519.492	6.08
519.692	6.13
519.893	6.18
520.094	6.14
520.294	6.18
520.495	6.17
520.695	6.21
520.896	6.17
521.096	6.24
521.297	6.2
521.497	6.23
521.698	6.21
521.898	6.21
522.099	6.22
522.299	6.28
522.499	6.27
522.7	6.3
522.9	6.37
523.101	6.36
523.301	6.33
523.501	6.37
523.702	6.34
523.902	6.34
524.102	6.45
524.302	6.46
524.503	6.44
524.703	6.49
524.903	6.46
525.103	6.39
525.304	6.43
525.504	6.49
525.704	6.48
525.904	6.48
526.104	6.49
526.304	6.46
526.504	6.42
526.705	6.41
526.905	6.45
527.105	6.44
527.305	6.46
527.505	6.49
527.705	6.47
527.905	6.52
528.105	6.52
528.305	6.54
528.505	6.54
528.705	6.61
528.905	6.6
529.105	6.64
529.304	6.68
529.504	6.74
529.704	6.69
529.904	6.68
530.104	6.71
530.304	6.71
530.503	6.74
530.703	6.77
530.903	6.79
531.103	6.82
531.303	6.82
531.502	6.85
531.702	6.94
531.902	7.03
532.101	7.01
532.301	7.05
532.501	7.06
532.7	7.1
532.9	7.09
533.1	7.09
533.299	7.07
533.499	7.1
533.698	7.06
533.898	7.05
534.097	7.08
534.297	7.1
534.496	7.06
534.696	7.1
534.895	7.1
535.095	7.16
535.294	7.19
535.494	7.2
535.693	7.17
535.892	7.19
536.092	7.2
536.291	7.22
536.491	7.22
536.69	7.19
536.889	7.18
537.088	7.16
537.288	7.17
537.487	7.24
537.686	7.35
537.886	7.38
538.085	7.38
538.284	7.43
538.483	7.44
538.682	7.49
538.882	7.51
539.081	7.59
539.28	7.59
539.479	7.6
539.678	7.56
539.877	7.62
540.076	7.64
540.275	7.69
540.474	7.72
540.673	7.81
540.872	7.79
541.071	7.8
541.27	7.86
541.469	7.86
541.668	7.85
541.867	7.92
542.066	7.98
542.265	7.97
542.464	8.06
542.663	8.17
542.862	8.25
543.06	8.28
543.259	8.34
543.458	8.33
543.657	8.34
543.856	8.32
544.054	8.33
544.253	8.35
544.452	8.41
544.651	8.39
544.849	8.42
545.048	8.47
545.247	8.54
545.445	8.58
545.644	8.66
545.843	8.72
546.041	8.73
546.24	8.76
546.438	8.82
546.637	8.87
546.836	8.86
547.034	8.95
547.233	9.06
547.431	9.11
547.63	9.13
547.828	9.15
548.027	9.19
548.225	9.14
548.423	9.18
548.622	9.26
548.82	9.39
549.019	9.43
549.217	9.44
549.415	9.46
549.614	9.58
549.812	9.64
550.01	9.69
550.209	9.85
550.407	9.93
550.605	9.88
550.803	9.92
551.002	10.04
551.2	10.05
551.398	10.19
551.596	10.26
551.794	10.35
551.993	10.4
552.191	10.51
552.389	10.47
552.587	10.66
552.785	10.72
552.983	10.81
553.181	10.82
553.379	10.96
553.577	10.94
553.775	11.02
553.973	11.09
554.171	11.26
554.369	11.31
554.567	11.41
554.765	11.42
554.963	11.48
555.161	11.45
555.359	11.59
555.557	11.64
555.755	11.82
555.952	11.94
556.15	12.08
556.348	12.15
556.546	12.33
556.744	12.36
556.941	12.33
557.139	12.37
557.337	12.45
557.535	12.43
557.732	12.51
557.93	12.7
558.128	12.81
558.325	12.88
558.523	12.99
558.721	13.12
558.918	13.2
559.116	13.31
559.313	13.44
559.511	13.59
559.708	13.67
559.906	13.84
560.104	13.92
560.301	14
560.498	14.09
560.696	14.17
560.893	14.25
561.091	14.42
561.288	14.53
561.486	14.52
561.683	14.61
561.88	14.77
562.078	14.86
562.275	14.98
562.473	15.18
562.67	15.31
562.867	15.32
563.064	15.41
563.262	15.51
563.459	15.63
563.656	15.82
563.853	15.86
564.051	15.97
564.248	16.08
564.445	16.2
564.642	16.24
564.839	16.49
565.036	16.59
565.234	16.72
565.431	16.79
565.628	16.89
565.825	16.93
566.022	17.08
566.219	17.11
566.416	17.21
566.613	17.37
566.81	17.42
567.007	17.52
567.204	17.61
567.401	17.69
567.598	17.68
567.795	17.75
567.991	17.76
568.188	17.87
568.385	17.94
568.582	18.09
568.779	18.26
568.976	18.35
569.172	18.51
569.369	18.64
569.566	18.74
569.763	18.74
569.96	18.91
570.156	18.91
570.353	18.99
570.55	19.02
570.746	19.09
570.943	19.13
571.14	19.2
571.336	19.19
571.533	19.26
571.729	19.32
571.926	19.42
572.123	19.47
572.319	19.53
572.516	19.64
572.712	19.7
572.909	19.68
573.105	19.78
573.302	19.86
573.498	19.81
573.695	19.87
573.891	19.91
574.087	19.76
574.284	19.82
574.48	19.92
574.677	19.96
574.873	20.01
575.069	20.22
575.266	20.25
575.462	20.22
575.658	20.27
575.854	20.27
576.051	20.29
576.247	20.23
576.443	20.26
576.639	20.28
576.835	20.32
577.032	20.3
577.228	20.39
577.424	20.39
577.62	20.33
577.816	20.32
578.012	20.37
578.208	20.39
578.404	20.47
578.6	20.54
578.796	20.65
578.993	20.6
579.189	20.67
579.384	20.64
579.58	20.66
579.776	20.64
579.972	20.71
580.168	20.63
580.364	20.67
580.56	20.64
580.756	20.59
580.952	20.52
581.148	20.6
581.343	20.64
581.539	20.65
581.735	20.64
581.931	20.73
582.127	20.59
582.322	20.54
582.518	20.51
582.714	20.51
582.909	20.45
583.105	20.58
583.301	20.62
583.496	20.61
583.692	20.64
583.888	20.64
584.083	20.58
584.279	20.44
584.474	20.4
584.67	20.39
584.866	20.32
585.061	20.37
585.257	20.48
585.452	20.56
585.648	20.52
585.843	20.63
586.039	20.61
586.234	20.64
586.429	20.58
586.625	20.64
586.82	20.59
587.015	20.62
587.211	20.58
587.406	20.65
587.601	20.67
587.797	20.67
587.992	20.58
588.187	20.52
588.383	20.59
588.578	20.61
588.773	20.68
588.968	20.81
589.163	20.95
589.359	20.85
589.554	20.89
589.749	20.96
589.944	20.93
590.139	20.92
590.334	21.1
590.529	21.08
590.724	21.14
590.919	21.2
591.114	21.3
591.309	21.3
591.504	21.34
591.699	21.23
591.894	21.23
592.089	21.18
592.284	21.2
592.479	21.21
592.674	21.32
592.869	21.4
593.064	21.49
593.259	21.57
593.454	21.61
593.648	21.65
593.843	21.66
594.038	21.83
594.233	21.89
594.428	22
594.622	22.08
594.817	22.26
595.012	22.21
595.206	22.29
595.401	22.41
595.596	22.51
595.79	22.56
595.985	22.65
596.18	22.72
596.374	22.83
596.569	23.02
596.763	23.08
596.958	23.22
597.153	23.35
597.347	23.38
597.542	23.44
597.736	23.55
597.931	23.58
598.125	23.59
598.319	23.68
598.514	23.67
598.708	23.84
598.903	23.94
599.097	24.06
599.291	24.01
599.486	24.15
599.68	24.14
599.874	24.22
600.069	24.3
600.263	24.5
600.457	24.54
600.651	24.55
600.846	24.56
601.04	24.69
601.234	24.66
601.428	24.71
601.622	24.79
601.817	24.82
602.011	24.79
602.205	24.89
602.399	24.91
602.593	24.97
602.787	24.89
602.981	24.83
603.175	24.89
603.369	24.82
603.563	24.82
603.757	24.96
603.951	25.05
604.145	24.92
604.339	24.97
604.533	24.95
604.727	24.98
604.921	24.98
605.115	25.02
605.309	24.99
605.502	25.03
605.696	24.98
605.89	24.98
606.084	25.01
606.278	25.03
606.471	24.92
606.665	24.85
606.859	24.75
607.053	24.69
607.246	24.59
607.44	24.53
607.634	24.51
607.827	24.41
608.021	24.3
608.214	24.16
608.408	24.07
608.602	23.92
608.795	24.05
608.989	24.08
609.182	24.09
609.376	24.07
609.569	24.08
609.763	23.88
609.956	23.8
610.15	23.74
610.343	23.68
610.537	23.67
610.73	23.52
610.923	23.35
611.117	23.34
611.31	23.25
611.504	23.17
611.697	23.21
611.89	23.15
612.083	22.96
612.277	22.93
612.47	22.82
612.663	22.78
612.856	22.73
613.05	22.78
613.243	22.67
613.436	22.6
613.629	22.36
613.822	22.37
614.015	22.23
614.209	22.18
614.402	22.15
614.595	22.28
614.788	22.17
614.981	22.15
615.174	22
615.367	21.94
615.56	21.71
615.753	21.68
615.946	21.59
616.139	21.62
616.332	21.64
616.525	21.66
616.718	21.65
616.911	21.58
617.103	21.61
617.296	21.43
617.489	21.37
617.682	21.3
617.875	21.23
618.067	21.1
618.26	21.07
618.453	21.09
618.646	21.01
618.838	20.95
619.031	20.87
619.224	20.88
619.417	20.78
619.609	20.76
619.802	20.8
619.994	20.87
620.187	20.78
620.38	20.77
620.572	20.7
620.765	20.67
620.957	20.58
621.15	20.52
621.342	20.45
621.535	20.42
621.727	20.36
621.92	20.33
622.112	20.28
622.305	20.29
622.497	20.25
622.69	20.23
622.882	20.21
623.074	20.33
623.267	20.33
623.459	20.38
623.651	20.35
623.844	20.33
624.036	20.29
624.228	20.21
624.42	20.18
624.613	20.2
624.805	20.18
624.997	20.07
625.189	20.16
625.381	20.03
625.574	19.91
625.766	19.82
625.958	19.9
626.15	19.77
626.342	19.78
626.534	19.8
626.726	19.8
626.918	19.62
627.11	19.62
627.302	19.57
627.494	19.59
627.686	19.54
627.878	19.57
628.07	19.52
628.262	19.61
628.454	19.55
628.646	19.6
628.838	19.63
629.029	19.55
629.221	19.44
629.413	19.38
629.605	19.27
629.797	19.21
629.989	19.25
630.18	19.26
630.372	19.24
630.564	19.25
630.755	19.18
630.947	19.16
631.139	19.09
631.33	18.99
631.522	18.97
631.714	18.85
631.905	18.81
632.097	18.7
632.289	18.73
632.48	18.64
632.672	18.74
632.863	18.62
633.055	18.69
633.246	18.75
633.438	18.81
633.629	18.79
633.821	18.8
634.012	18.76
634.203	18.66
634.395	18.58
634.586	18.56
634.777	18.62
634.969	18.58
635.16	18.57
635.351	18.6
635.543	18.52
635.734	18.42
635.925	18.47
636.117	18.46
636.308	18.39
636.499	18.39
636.69	18.44
636.881	18.35
637.073	18.33
637.264	18.38
637.455	18.44
637.646	18.5
637.837	18.5
638.028	18.45
638.219	18.53
638.41	18.48
638.601	18.43
638.792	18.56
638.983	18.53
639.174	18.41
639.365	18.43
639.556	18.34
639.747	18.15
639.938	18.24
640.129	18.22
640.32	18.15
640.511	18.15
640.701	18.25
640.892	18.17
641.083	18.17
641.274	18.12
641.465	18.21
641.655	18.11
641.846	18.05
642.037	18.01
642.228	17.95
642.418	17.81
642.609	17.83
642.8	17.8
642.99	17.83
643.181	17.92
643.372	17.99
643.562	17.96
643.753	18.02
643.943	17.87
644.134	17.8
644.324	17.77
644.515	17.7
644.705	17.6
644.896	17.71
645.086	17.71
645.277	17.65
645.467	17.69
645.658	17.74
645.848	17.68
646.038	17.63
646.229	17.61
646.419	17.48
646.61	17.44
646.8	17.38
646.99	17.38
647.18	17.38
647.371	17.48
647.561	17.36
647.751	17.39
647.941	17.3
648.132	17.19
648.322	17.03
648.512	17.06
648.702	17.1
648.892	17.12
649.082	17.22
649.272	17.2
649.462	17.22
649.653	17.11
649.843	17.05
650.033	16.97
650.223	16.99
650.413	17
650.603	17.01
650.793	17.08
650.983	17.03
651.172	17.02
651.362	16.88
651.552	16.78
651.742	16.69
651.932	16.65
652.122	16.66
652.312	16.61
652.502	16.58
652.691	16.54
652.881	16.45
653.071	16.29
653.261	16.19
653.45	16.08
653.64	15.96
653.83	15.94
654.019	15.82
654.209	15.7
654.399	15.53
654.588	15.36
654.778	15.18
654.968	15.13
655.157	14.95
655.347	14.85
655.536	14.75
655.726	14.52
655.915	14.33
656.105	14.31
656.294	14.17
656.484	13.97
656.673	13.86
656.863	13.75
657.052	13.54
657.241	13.45
657.431	13.44
657.62	13.41
657.809	13.14
657.999	13.09
658.188	12.9
658.377	12.61
658.567	12.47
658.756	12.42
658.945	12.22
659.134	12.06
659.324	11.91
659.513	11.63
659.702	11.35
659.891	11.19
660.08	11.04
660.269	10.88
660.458	10.74
660.648	10.72
660.837	10.57
661.026	10.33
661.215	10.19
661.404	10.05
661.593	9.86
661.782	9.66
661.971	9.45
662.16	9.36
662.349	9.18
662.538	9.01
662.726	8.88
662.915	8.92
663.104	8.7
663.293	8.67
663.482	8.63
663.671	8.54
663.86	8.37
664.048	8.35
664.237	8.16
664.426	8.11
664.615	8.02
664.803	8
664.992	7.86
665.181	7.83
665.369	7.62
665.558	7.56
665.747	7.48
665.935	7.5
666.124	7.4
666.312	7.42
666.501	7.34
666.69	7.29
666.878	7.16
667.067	7.17
667.255	7.1
667.444	7.1
667.632	7.14
667.82	7.2
668.009	7.07
668.197	7.01
668.386	6.98
668.574	6.83
668.762	6.75
668.951	6.74
669.139	6.69
669.327	6.7
669.516	6.76
669.704	6.74
669.892	6.72
670.08	6.68
670.269	6.56
670.457	6.53
670.645	6.51
670.833	6.65
671.021	6.8
671.21	6.83
671.398	6.85
671.586	6.9
671.774	6.86
671.962	6.8
672.15	6.9
672.338	6.88
672.526	7
672.714	6.99
672.902	7.04
673.09	6.97
673.278	7.08
673.466	7.13
673.654	7.27
673.842	7.41
674.03	7.54
674.218	7.46
674.405	7.39
674.593	7.51
674.781	7.5
674.969	7.67
675.157	7.91
675.344	8.06
675.532	8.08
675.72	8.14
675.908	8.05
676.095	7.99
676.283	8.09
676.471	8.1
676.658	8.22
676.846	8.31
677.033	8.34
677.221	8.35
677.409	8.5
677.596	8.52
677.784	8.62
677.971	8.78
678.159	8.93
678.346	8.89
678.534	9.04
678.721	9.28
678.909	9.43
679.096	9.41
679.283	9.59
679.471	9.65
679.658	9.66
679.846	9.75
680.033	10.03
680.22	10.18
680.408	10.33
680.595	10.46
680.782	10.57
680.969	10.71
681.157	10.74
681.344	10.76
681.531	10.97
681.718	11.14
681.905	11.26
682.093	11.51
682.28	11.7
682.467	11.7
682.654	11.82
682.841	11.94
683.028	12.01
683.215	12.35
683.402	12.6
683.589	12.78
683.776	13.04
683.963	13.41
684.15	13.56
684.337	13.71
684.524	14.08
684.711	14.23
684.898	14.34
685.085	14.54
685.271	14.91
685.458	15.21
685.645	15.51
685.832	15.77
686.019	16.08
686.205	16.6
686.392	17.03
686.579	17.47
686.766	17.95
686.952	18.29
687.139	18.46
687.326	18.77
687.512	19.17
687.699	19.61
687.886	20.03
688.072	20.61
688.259	21.07
688.445	21.55
688.632	22.01
688.818	22.68
689.005	22.97
689.191	23.48
689.378	24.08
689.564	24.67
689.751	25.39
689.937	26.15
690.124	26.61
690.31	27.04
690.496	27.63
690.683	28.15
690.869	28.74
691.055	29.6
691.242	30.13
691.428	30.75
691.614	31.39
691.8	31.89
691.987	32.5
692.173	33.41
692.359	34.14
692.545	34.92
692.731	35.73
692.918	36.37
693.104	36.97
693.29	37.56
693.476	38.18
693.662	38.95
693.848	39.6
694.034	40.44
694.22	41.17
694.406	41.64
694.592	42.25
694.778	42.89
694.964	43.45
695.15	44.19
695.336	44.84
695.522	45.48
695.708	46.15
695.894	46.84
696.08	47.32
696.265	48.38
696.451	48.99
696.637	49.81
696.823	50.5
697.009	51
697.194	51.47
697.38	52.03
697.566	52.3
697.751	52.74
697.937	53.64
698.123	54.11
698.308	54.62
698.494	55.44
698.68	56.14
698.865	56.47
699.051	56.97
699.236	57.6
699.422	57.98
699.607	58.6
699.793	59.56
699.978	60.02
700.164	60.66
700.349	61.28
700.535	61.37
700.72	61.3
700.906	61.82
701.091	62.24
701.276	62.38
701.462	62.95
701.647	63.72
701.832	64.16
702.018	64.99
702.203	65.7
702.388	66.12
702.573	66.48
702.759	66.73
702.944	66.27
703.129	66.36
703.314	66.55
703.499	66.64
703.684	67.21
703.87	67.68
704.055	68.23
704.24	68.7
704.425	69.1
704.61	69.25
704.795	69.84
704.98	69.83
705.165	69.96
705.35	70.52
705.535	71.02
705.72	71.09
705.905	71.57
706.09	72.43
706.275	72.44
706.459	72.4
706.644	72.83
706.829	72.99
707.014	72.95
707.199	73.44
707.384	73.6
707.568	73.96
707.753	74.41
707.938	74.52
708.123	74.4
708.307	74.86
708.492	75.23
708.677	75.38
708.861	75.4
709.046	75.63
709.231	75.62
709.415	75.26
709.6	75.43
709.784	75.81
709.969	76.19
710.153	76.22
710.338	76.69
710.522	76.84
710.707	76.96
710.891	76.87
711.076	77.06
711.26	77.04
711.445	76.97
711.629	76.86
711.813	77.2
711.998	77.58
712.182	77.55
712.366	77.95
712.551	78.52
712.735	78.43
712.919	78.57
713.103	79.03
713.288	79.26
713.472	79.26
713.656	79.17
713.84	79.36
714.024	79.48
714.208	79.36
714.393	79.49
714.577	80.3
714.761	80.58
714.945	80.65
715.129	80.92
715.313	80.9
715.497	80.62
715.681	80.44
715.865	80.13
716.049	80.08
716.233	79.84
716.417	79.86
716.601	79.98
716.785	80.32
716.968	80.26
717.152	80.51
717.336	80.78
717.52	80.86
717.704	81.2
717.888	81.19
718.071	81.43
718.255	81.67
718.439	81.72
718.622	81.31
718.806	81.5
718.99	81.17
719.174	81.06
719.357	81.3
719.541	82.06
719.724	82.11
719.908	82.62
720.092	82.43
720.275	81.97
720.459	81.73
720.642	82.08
720.826	81.91
721.009	81.89
721.193	81.63
721.376	82.05
721.559	82.1
721.743	82.66
721.926	82.98
722.11	84.09
722.293	84.13
722.476	83.71
722.66	83.72
722.843	83.65
723.026	83.41
723.21	82.82
723.393	83.55
723.576	82.95
723.759	83.45
723.942	83.67
724.126	83.95
724.309	83.66
724.492	84.12
724.675	83.86
724.858	83.43
725.041	83.35
725.224	84.08
725.407	83.85
725.59	83.93
725.774	84.21
725.957	84.81
726.14	84.18
726.322	84.99
726.505	84.81
726.688	85.26
726.871	84.91
727.054	85.31
727.237	85.17
727.42	85.35
727.603	84.86
727.786	85.28
727.968	85.15
728.151	85.17
728.334	86.07
728.517	86.1
728.699	85.92
728.882	85.73
729.065	85.21
729.248	84.77
729.43	85.12
729.613	85.2
729.796	85.91
729.978	86.68
730.161	86.88
730.343	86.38
730.526	86.6
730.708	86.38
730.891	86.34
731.073	86.1
731.256	86.92
731.438	87.59
731.621	87.43
731.803	87.42
731.986	87.68
732.168	88.11
732.35	87.82
732.533	87.94
732.715	87.97
732.898	87.7
733.08	87.46
733.262	86.95
733.444	87.64
733.627	87.74
733.809	88.68
733.991	88.69
734.173	88.67
734.355	88.22
734.538	88.17
734.72	87.67
734.902	87.7
735.084	87.8
735.266	88.54
735.448	89
735.63	88.71
735.812	88.49
735.994	88.97
736.176	88.6
736.358	88.82
736.54	89.85
736.722	89.73
736.904	89
737.086	88.31
737.268	88.59
737.45	88.22
737.632	89.03
737.814	89.94
737.995	90.29
738.177	89.85
738.359	89.78
738.541	88.71
738.723	88.53
738.904	88.77
739.086	88.87
739.268	88.75
739.449	89.03
739.631	89.53
739.813	89.83
739.994	88.8
740.176	89.46
740.358	90.53
740.539	89.55
740.721	90.07
740.902	91.29
741.084	91.19
741.265	91.27
741.447	92.07
741.628	91.52
741.81	91.81
741.991	91.27
742.172	90.3
742.354	90.6
742.535	90.22
742.717	88.81
742.898	89.32
743.079	90.32
743.261	90.19
743.442	89.32
743.623	90.03
743.804	89.78
743.986	89.49
744.167	88.73
744.348	89.22
744.529	89.14
744.71	89.12
744.891	88.93
745.073	89.58
745.254	89.96
745.435	90.98
745.616	90.56
745.797	89.71
745.978	89.58
746.159	89.59
746.34	89.17
746.521	89.37
746.702	90.55
746.883	89.74
747.064	90.35
747.245	90
747.426	90.27
747.606	89.43
747.787	89.82
747.968	88.1
748.149	88.23
748.33	87.8
748.51	86.85
748.691	87.57
748.872	89.89
749.053	89.23
749.233	88.55
749.414	91.05
749.595	90.59
749.775	88.41
749.956	88.68
750.137	89.56
750.317	87.48
750.498	87.64
750.678	88.46
750.859	88.65
751.04	88.32
751.22	88.49
751.4	88.45
751.581	89.89
751.761	90.72
751.942	91.37
752.122	91.88
752.303	92
752.483	90.55
752.663	90.13
752.844	89.88
753.024	90.14
753.204	89.69
753.385	90.21
753.565	89.56
753.745	88.42
753.925	88.36
754.106	88.28
754.286	87.8
754.466	88.66
754.646	88.35
754.826	88.57
755.006	88.32
755.187	89.76
755.367	87.52
755.547	88.3
755.727	87.64
755.907	88.95
756.087	87.64
756.267	87.56
756.447	89.31
756.627	89.55
756.807	89.36
756.987	89.09
757.167	90.1
757.346	88.59
757.526	89.57
757.706	87.77
757.886	88.1
758.066	89.26
758.246	88.14
758.425	86.27
758.605	86.11
758.785	85.64
758.965	85.16
759.144	85.66
759.324	87.33
759.504	89.66
759.683	89.51
759.863	89.49
760.043	88.41
760.222	87.01
760.402	84.73
760.581	85.16
760.761	83.85
760.94	84.99
761.12	85.02
761.299	86.43
761.479	86.71
761.658	87.14
761.838	88.71
762.017	88.84
762.197	87.39
762.376	87.39
762.555	87.92
762.735	86.58
762.914	85.53
763.093	86.44
763.273	85.99
763.452	85.27
763.631	85.55
763.81	86.43
763.99	86.21
764.169	85.6
764.348	85.39
764.527	84.73
764.706	84.15
764.885	85.35
765.064	87.04
765.243	87.53
765.423	87.41
765.602	88.76
765.781	87.13
765.96	85.95
766.139	85.01
766.318	88.09
766.497	86.84
766.676	85.73
766.854	86.18
767.033	87.65
767.212	85.43
767.391	85.8
767.57	88.43
767.749	87.68
767.928	87.34
768.106	86.43
768.285	85.91
768.464	85.37
768.643	85.49
768.821	83.81
769	84.35
769.179	84.22
769.357	83.39
769.536	82.71
769.715	81.45
769.893	81.61
770.072	80.86
770.25	79.69
770.429	80.06
770.607	81.34
770.786	81.02
770.964	82.5
771.143	83.14
771.321	82.99
771.5	84.61
771.678	84.71
771.857	83.28
772.035	83.55
772.213	85.11
772.392	83.53
772.57	83.25
772.748	83.9
772.927	84.09
773.105	82.62
773.283	84.14
773.461	85.39
773.64	84.92
773.818	86.73
773.996	86.5
774.174	86.39
774.352	83.42
774.531	83.98
774.709	81.05
774.887	79.78
775.065	79.87
775.243	82.27
775.421	81.33
775.599	82.77
775.777	83.62
775.955	82.46
776.133	82.36
776.311	83.03
776.489	84.01
776.667	83.65
776.844	83.6
777.022	81.54
777.2	81.32
777.378	78.52
777.556	80.2
777.734	82.49
777.911	85.06
778.089	86.44
778.267	87.77
778.445	88.96
778.622	87.8
778.8	84.46
778.978	85.4
779.155	86.68
779.333	86.77
779.511	85.43
779.688	87.46
779.866	86.88
780.043	86.71
780.221	86.48
780.398	85.54
780.576	85.24
780.753	83.98
780.931	83.48
781.108	83.77
781.286	85.11
781.463	84.3
781.64	83.73
781.818	82.39
781.995	79.85
782.172	79.52
782.35	81
782.527	79.62
782.704	78.64
782.882	76.29
783.059	75.77
783.236	74.95
783.413	76.06
783.59	77.03
783.768	80.76
783.945	81.11
784.122	81.68
784.299	83.2
784.476	82.45
784.653	78.98
784.83	76.79
785.007	74.19
785.184	69.78
785.361	72.41
785.538	72.19
785.715	74.04
785.892	75.05
786.069	80.01
786.246	78.53
786.423	81.42
786.6	81.86
786.776	82.85
786.953	79.24
787.13	80.86
787.307	78.09
787.484	74.37
787.66	72.41
787.837	72.02
788.014	70.89
788.191	70.12
788.367	73.75
788.544	74.6
788.721	77.84
788.897	78.22
789.074	81.92
789.25	80.47
789.427	79.7
789.603	75.96
789.78	74.3
789.956	70.56
790.133	69.36
790.309	71.06
790.486	70.75
790.662	69.38
790.839	72.45
791.015	76.64
791.192	77.53
791.368	81.19
791.544	81.7
791.721	80.07
791.897	76.1
792.073	75.32
792.249	73.46
792.426	75.23
792.602	78
792.778	81.44
792.954	83.54
793.13	82.16
793.307	82.87
793.483	78.69
793.659	77.95
793.835	76.77
794.011	84.29
794.187	83.2
794.363	85.44
794.539	84.9
794.715	81.27
794.891	74.48
795.067	74.58
795.243	72.25
795.419	70.71
795.595	76.94
795.771	75.25
795.947	73.94
796.122	70.14
796.298	70.66
796.474	69.58
796.65	72.25
796.826	73.05
797.001	76.73
797.177	73.99
797.353	72.92
797.529	72.08
797.704	74.95
797.88	73.89
798.056	74.72
798.231	74.19
798.407	78.5
798.582	76.94
798.758	79.76
798.934	81.88
799.109	76.89
799.285	73.21
799.46	74.18
799.636	75.14
799.811	76.5
799.986	77.8
800.162	71.89
800.337	69.89
800.513	66.73
800.688	62.42
800.863	68.15
801.039	71.26
801.214	68.98
801.389	71.05
801.565	69.32
801.74	67.24
801.915	69.07
802.09	67.64
802.265	67.57
802.441	70.69
802.616	70.42
802.791	70.83
802.966	76.04
803.141	73.33
803.316	75.06
803.491	76.06
803.666	78.72
803.841	73
804.016	76.2
804.191	81.87
804.366	78.14
804.541	75.56
804.716	74.96
804.891	72.97
805.066	68.78
805.241	66.88
805.416	75.27
805.591	79.46
805.765	93.47
805.94	93.62
806.115	97.36
806.29	82.16
806.464	86.04
806.639	73.44
806.814	70.15
806.989	67.71
807.163	75.11
807.338	67.82
807.512	74.27
807.687	73.02
807.862	71.14
808.036	68.22
808.211	70.69
808.385	64.14
808.56	57.73
808.734	56.42
808.909	64.07
809.083	64.75
809.258	63.94
809.432	70.24
809.606	71.8
809.781	70.71
809.955	79.07
810.13	76.51
810.304	79.72
810.478	78.72
810.652	73.66
810.827	71.78
811.001	72.62
811.175	70.88
811.349	75.64
811.524	81.61
811.698	72.7
811.872	78.9
812.046	79.15
812.22	78.83
812.394	73.46
812.568	83.7
812.742	76.21
812.916	75.77
813.09	75.17
813.264	67.95
813.438	63.99
813.612	60.12
813.786	59.47
813.96	59.21
814.134	66.15
814.308	65.59
814.482	70.15
814.656	64.8
814.83	63.22
815.003	63.11
815.177	66.24
815.351	70.97
815.525	76.28
815.698	78.82
815.872	67.22
816.046	56.19
816.219	62.18
816.393	63.64
816.567	60.46
816.74	70.86
816.914	76.66
817.088	70.6
817.261	77.49
817.435	84.02
817.608	80.26
817.782	76.14
817.955	74.87
818.129	67.43
818.302	63.17
818.475	61.43
818.649	69.8
818.822	59.91
818.996	70.3
819.169	74.46
819.342	79.32
819.516	80.47
819.689	87.96
819.862	80.26
820.035	79.93
820.209	79.36
820.382	70.7
820.555	67.81
820.728	59.91
820.901	45.7
821.075	47.68
821.248	58.81
821.421	48.86
821.594	50.1
821.767	57.54
821.94	50.2
822.113	51.46
822.286	62.02
822.459	70.14
822.632	71.63
822.805	76.86
822.978	79.14
823.151	77.43
823.324	63.41
823.496	58.6
823.669	65.79
823.842	55.05
824.015	45.74
824.188	55.64
824.361	66.69
824.533	53.54
824.706	63.42
824.879	67.23
825.051	73.36
825.224	66.02
825.397	59.53
825.569	63.02
825.742	73.58
825.915	73.38
826.087	75.7
826.26	93.51
826.432	85.88
826.605	82.51
826.777	78.83
826.95	70.45
827.122	59.52
827.295	80.15
827.467	88.17
827.64	90.39
827.812	121.65
827.984	142.33
828.157	95.07
828.329	88.86
828.501	78.93
828.674	65.18
828.846	52.79
829.018	58.02
829.19	50.34
829.363	52.2
829.535	66.33
829.707	68.82
829.879	52.38
830.051	44.07
830.223	47.11
830.395	30.98
830.568	31.78
830.74	55.76
830.912	75.05
831.084	81.89
831.256	82.17
831.428	83.29
831.6	67.38
831.772	52.71
831.943	35.58
832.115	38.98
832.287	36.69
832.459	45.82
832.631	58.49
832.803	58.77
832.975	55.25
833.146	51.86
833.318	53.86
833.49	52.62
833.662	71.14
833.833	69.17
834.005	72.18
834.177	80.98
834.348	68.41
834.52	59.8
834.692	51.14
834.863	67.27
835.035	64.7
835.206	64.49
835.378	62.11
835.549	82.37
835.721	68.4
835.892	66.25
836.064	63.74
836.235	62.36
836.407	55.75
836.578	52.49
836.749	31.78
836.921	28.89
837.092	28.48
837.264	11.06
837.435	4.59
837.606	33.32
837.777	44.02
837.949	57.03
838.12	66.46
838.291	66.31
838.462	71.57
838.633	72.26
838.805	58.09
838.976	55.52
839.147	59.63
839.318	39.76
839.489	40.37
839.66	59.18
839.831	58.89
840.002	63.79
840.173	69.31
840.344	67.98
840.515	47.03
840.686	50.57
840.857	38.08
841.028	48.62
841.199	46.89
841.369	48.89
841.54	33.85
841.711	61.18
841.882	49.82
842.053	39.84
842.223	41.66
842.394	48.8
842.565	35.9
842.736	30.21
842.906	32.53
843.077	55.3
843.248	55.76
843.418	62.16
843.589	51.92
843.759	63.13
843.93	52.07
844.101	44.23
844.271	42.52
844.442	52.79
844.612	50.78
844.783	55.39
844.953	47.01
845.123	36.85
845.294	35.73
845.464	30.9
845.635	-1.8
845.805	-11.32
845.975	12.03
846.146	20.88
846.316	-2.77
846.486	30
846.656	49.63
846.827	58.46
846.997	61.61
847.167	63.81
847.337	58.84
847.507	61.76
847.677	42.13
847.848	42.35
848.018	37.5
848.188	14.47
848.358	-20.51
848.528	-1.24
848.698	2
848.868	16.53
849.038	28.21
849.208	50.26
849.378	46.33
849.548	50.93
849.718	40.28
849.887	37.05
850.057	15.49
850.227	55.5
850.397	30.25
850.567	31.8
850.737	64.25
850.906	62.59
851.076	11.05
851.246	17.07
851.415	46.44
851.585	30.76
851.755	47.98
851.924	96.35
852.094	76.92
852.264	42.79
852.433	21.01
852.603	29.86
852.772	17.08
852.942	32.45
853.111	34.23
853.281	43.75
853.45	30.71
853.62	25.57
853.789	28.93
853.959	37.94
854.128	57.11
854.297	62.1
854.467	57.43
854.636	67.32
854.805	58.26
854.975	44.4
855.144	38.93
855.313	65.77
855.482	50.25
855.652	44.72
855.821	16.94
855.99	51.79
856.159	46.39
856.328	55.62
856.497	57.38
856.667	74.84
856.836	62.62
857.005	37.85
857.174	44.49
857.343	54.92
857.512	60.62
857.681	40.95
857.85	27.47
858.019	5.75
858.188	-7.05
858.356	-12.52
858.525	0.87
858.694	25.11
858.863	37.81
859.032	39.86
859.201	29.69
859.369	57.3
859.538	38.96
859.707	6.19
859.876	19.59
860.044	43.88
860.213	38.13
860.382	31.75
860.55	28.27
860.719	32.98
860.888	24.76
861.056	6.07
861.225	25.73
861.393	62.05
861.562	50.82
861.73	42.94
861.899	50.4
862.067	10.55
862.236	11.35
862.404	-6.49
862.572	-14.31
862.741	-34.79
862.909	-0.03
863.078	-14.78
863.246	-3.42
863.414	21.14
863.582	36.01
863.751	18.81
863.919	39.18
864.087	68.5
864.255	52.68
864.424	37.46
864.592	61.13
864.76	54.21
864.928	54.51
865.096	59.84
865.264	50.84
865.432	47.18
865.6	66.48
865.768	25.07
865.936	23.83
866.104	74.21
866.272	48.86
866.44	3.2
866.608	23.32
866.776	25.66
866.944	38.79
867.112	55.32
867.28	55.53
867.448	64.99
867.615	61.02
867.783	36.18
867.951	24.22
868.119	42.44
868.286	26.32
868.454	19.78
868.622	8.94
868.789	22.16
868.957	28.16
869.125	37.34
869.292	22.9
869.46	15.53
869.627	43.06
869.795	7.84
869.963	21.86
870.13	25.06
870.298	78.54
870.465	47.27
870.632	63.89
870.8	30.36
870.967	21.68
871.135	-24.15
871.302	-20.93
871.469	-36.76
871.637	-55.67
871.804	19.2
871.971	28.46
872.139	16.63
872.306	7.47
872.473	-18.52
872.64	-139.04
872.807	-174.95
872.975	-421.99
873.142	-111.61
873.309	-69.51
873.476	-2.13
873.643	35.4
873.81	55.93
873.977	31.17
874.144	77.06
874.311	38.17
874.478	10.88
874.645	-59.21
874.812	45.48
874.979	58.93
875.146	58.2
875.313	58.05
875.48	77.15
875.647	46.67
875.813	-2.2
875.98	4.11
876.147	-10.2
876.314	43.89
876.481	73.76
876.647	69.56
876.814	45.35
876.981	52.52
877.147	35.17
877.314	41.81
877.481	40.4
877.647	48.55
877.814	39.62
877.98	63.77
878.147	73.57
878.314	70.56
878.48	68.7
878.647	79.72
878.813	57.74
878.979	36.29
879.146	75.8
879.312	88.96
879.479	69.91
879.645	67.95
879.811	59.26
879.978	53.35
880.144	52.89
880.31	44.89
880.477	67.71
880.643	58.74
880.809	81.03
880.975	86.24
881.142	60.72
881.308	223.01
881.474	228.91
881.64	-31
881.806	-78.92
881.972	-33.95
882.138	38.36
882.304	45.68
882.47	28.08
882.636	-0.03
882.802	1.51
882.968	-19.72
883.134	1.04
883.3	-5.27
883.466	97.56
883.632	106.85
883.798	85.45
883.964	76.69
884.129	-63.32
884.295	-3.55
884.461	-46.26
884.627	9.17
884.793	7.76
884.958	56.69
885.124	24.96
885.29	33
885.455	-19.63
885.621	15.83
885.787	0.9
885.952	-36.51
886.118	9.39
886.283	28.03
886.449	22.75
886.614	-3.52
886.78	20.33
886.945	-12.3
887.111	-25.51
887.276	-60.62
887.442	-90.51
887.607	-55.08
887.773	-15.78
887.938	-39.67
888.103	-10.72
888.269	22.2
888.434	26.36
888.599	20.16
888.764	39.1
888.93	51.55
889.095	27.35
889.26	21.44
889.425	30.68
889.59	90.98
889.756	44.04
889.921	66.17
890.086	105.11
890.251	131.02
890.416	39.58
890.581	43.38
890.746	58.54
890.911	55.98
891.076	34.11
891.241	34.47
891.406	17.08
891.571	2.45
891.736	-143.44
891.901	6.94
892.065	12.73
892.23	47.23
892.395	30.72
892.56	62.69
892.725	73.27
892.889	128.71
893.054	89.47
893.219	79.74
893.384	93.67
893.548	59.39
893.713	84.69
893.878	38.29
