Data from Ofra_1a_PS_2CX10_Reflection_1.txt Node
Date: Tue Jul 20 10:46:28 EDT 2021
User: Adam
Spectrometer: FLMT01687
Trigger mode: 0
Integration Time (sec): 1.004000E0
Scans to average: 2
Electric dark correction enabled: true
Nonlinearity correction enabled: false
Boxcar width: 2
XAxis mode: Wavelengths
Number of Pixels in Spectrum: 3648
>>>>>Begin Spectral Data<<<<<
179.494	6.6
179.716	-26.72
179.937	203.01
180.158	-256.69
180.38	87.76
180.601	-28.8
180.823	-77.94
181.044	-238.6
181.265	-273.27
181.486	241.01
181.708	101.35
181.929	-1790.91
182.15	-188.86
182.372	594.58
182.593	510.03
182.814	-351.61
183.035	-39.97
183.257	31.1
183.478	19.28
183.699	-14.58
183.92	-72.44
184.141	-105.83
184.363	-126.41
184.584	-151.66
184.805	-69.95
185.026	-0.12
185.247	3.33
185.468	3.36
185.689	5.02
185.91	0.13
186.132	-0.73
186.353	22.42
186.574	55.3
186.795	71.45
187.016	66.31
187.237	49.26
187.458	24.2
187.679	8.36
187.9	8.06
188.121	-4.96
188.342	14.36
188.563	37.88
188.784	30
189.005	11.59
189.226	21.09
189.447	16.99
189.667	-5.43
189.888	-13.79
190.109	-28.72
190.33	-32.13
190.551	-16.03
190.772	-11.29
190.993	2.61
191.214	26.83
191.434	34.38
191.655	18.09
191.876	24.53
192.097	42.68
192.318	41.01
192.538	17.54
192.759	-5.25
192.98	3.72
193.201	-10.81
193.421	-15.06
193.642	0.06
193.863	5.28
194.083	7.55
194.304	32.27
194.525	25.16
194.745	21.9
194.966	25.84
195.187	16.43
195.407	1.13
195.628	7.94
195.848	7.68
196.069	-21.41
196.29	-9.75
196.51	-23.92
196.731	-33.22
196.951	-48.63
197.172	-11.72
197.392	-54.78
197.613	-19.7
197.833	-25.43
198.054	-30.35
198.274	-35.2
198.495	1.62
198.715	-3.92
198.936	14.71
199.156	35.59
199.377	38.99
199.597	31.89
199.817	24.58
200.038	-13.88
200.258	-17.85
200.479	-23.67
200.699	-43.91
200.919	-38.17
201.14	-20.77
201.36	-26.07
201.58	-61.74
201.801	-73.83
202.021	-72.28
202.241	-48.1
202.461	-14.04
202.682	29.89
202.902	38.45
203.122	47.09
203.342	41.2
203.563	10.61
203.783	-9.55
204.003	-15.75
204.223	-4.82
204.443	-25.01
204.663	-13.08
204.884	10.77
205.104	-3.46
205.324	0.91
205.544	-14.4
205.764	14.28
205.984	16.3
206.204	32.35
206.424	3.76
206.644	21.46
206.864	-24.14
207.084	-12.81
207.304	-29.91
207.525	-20.38
207.745	3.96
207.964	19.67
208.184	13.44
208.404	26.34
208.624	40.22
208.844	6.52
209.064	-18.05
209.284	-20.18
209.504	-27.6
209.724	-32.04
209.944	-19.59
210.164	-11.39
210.384	-6.54
210.604	-22.1
210.823	-43.24
211.043	-17.62
211.263	-41.48
211.483	-18.48
211.703	-24.18
211.922	8.14
212.142	33.03
212.362	50.09
212.582	36.79
212.801	39.82
213.021	23.56
213.241	-20.25
213.461	-23.96
213.68	-0.68
213.9	-4.5
214.12	-10.18
214.339	-6.51
214.559	-1.36
214.779	-16.48
214.998	2.85
215.218	-8.86
215.438	-4.92
215.657	-8.74
215.877	-4.85
216.096	-3.79
216.316	-3.49
216.535	-9.35
216.755	-8.54
216.974	-22.85
217.194	-17
217.413	-9.67
217.633	-13.17
217.852	-16.31
218.072	-16.04
218.291	-19.49
218.511	-26.07
218.73	-34.09
218.95	-58.15
219.169	-28.23
219.389	-9.14
219.608	-6.17
219.827	12.22
220.047	24.23
220.266	6.76
220.485	-26.55
220.705	-10.38
220.924	-5.85
221.143	33.44
221.363	54.57
221.582	53.05
221.801	60.46
222.021	54.6
222.24	50.75
222.459	51.33
222.678	51.06
222.897	35.36
223.117	49.58
223.336	44.17
223.555	43.75
223.774	63.11
223.993	80.44
224.213	68.28
224.432	56.46
224.651	38.02
224.87	26.64
225.089	13.26
225.308	16.68
225.527	13.82
225.746	6.76
225.965	14.6
226.184	18.44
226.404	-4.82
226.623	-4.65
226.842	-6.08
227.061	-3.98
227.28	10.7
227.499	16.72
227.718	24.95
227.936	32.97
228.155	29.01
228.374	20.28
228.593	26.21
228.812	12.22
229.031	27.05
229.25	9.14
229.469	14.96
229.688	13.83
229.907	21.34
230.125	10.25
230.344	20.17
230.563	27.19
230.782	24.8
231.001	24.57
231.22	25.71
231.438	40.89
231.657	37.83
231.876	36.45
232.095	43.31
232.313	39.3
232.532	14.28
232.751	-3
232.969	-4.4
233.188	-25.3
233.407	-22.21
233.625	-11.13
233.844	-7.32
234.063	-7.16
234.281	-1.16
234.5	-2.55
234.719	-9.7
234.937	-24.55
235.156	-20.51
235.374	-10.02
235.593	0.94
235.811	18.63
236.03	9.53
236.249	10.64
236.467	8.18
236.686	-11
236.904	-13.65
237.123	-1.38
237.341	-14.74
237.559	-25.77
237.778	31.46
237.996	18.19
238.215	-47.01
238.433	-53.56
238.652	1.21
238.87	-48.73
239.088	-22.39
239.307	7.76
239.525	12.74
239.743	10.27
239.962	3.2
240.18	3.89
240.398	-0.7
240.617	-23.79
240.835	-55.33
241.053	-23.78
241.271	-25.63
241.49	-8.43
241.708	-9.16
241.926	-8.13
242.144	-4
242.363	-4.54
242.581	-16.15
242.799	-2.4
243.017	16.97
243.235	4.24
243.453	-27.5
243.672	-31.08
243.89	-35.02
244.108	-25.56
244.326	-12.83
244.544	8.37
244.762	13.47
244.98	19.92
245.198	15.15
245.416	10.41
245.634	2.42
245.852	-7.48
246.07	16.93
246.288	8.46
246.506	8.05
246.724	9.71
246.942	10.57
247.16	-1.13
247.378	-9.68
247.596	-12.95
247.814	-1.27
248.032	9.6
248.25	20.05
248.468	24.57
248.685	36.38
248.903	31.99
249.121	29.81
249.339	29.4
249.557	35.73
249.775	21.59
249.992	28.8
250.21	28.61
250.428	36.52
250.646	22.61
250.863	7.87
251.081	0.54
251.299	13.22
251.517	-5.85
251.734	10.02
251.952	20.03
252.17	14.28
252.387	-12.64
252.605	-3.74
252.823	-18.38
253.04	-1.85
253.258	-0.4
253.475	0.49
253.693	-0.73
253.911	-2.05
254.128	-10.1
254.346	2.92
254.563	24.45
254.781	17.45
254.998	0.08
255.216	-43.89
255.433	-74.55
255.651	-92.86
255.868	-71.54
256.086	-44.62
256.303	-10.06
256.521	6.62
256.738	7.17
256.956	6.02
257.173	-4.76
257.39	-0.73
257.608	-11.03
257.825	-3.74
258.043	5.18
258.26	1.7
258.477	-2.45
258.695	-4.63
258.912	-18.35
259.129	-48.97
259.346	-54.87
259.564	-55.71
259.781	-50.73
259.998	-26.28
260.216	-1.88
260.433	5.41
260.65	11.47
260.867	12.72
261.084	17.38
261.302	30.49
261.519	55.24
261.736	49.15
261.953	50.72
262.17	50.31
262.387	40.73
262.604	24.47
262.822	32.37
263.039	34.97
263.256	24.02
263.473	16.02
263.69	8.62
263.907	-2.88
264.124	-4.44
264.341	13.82
264.558	8.5
264.775	11.18
264.992	12.02
265.209	-25.54
265.426	-48.91
265.643	-41.82
265.86	-49.84
266.077	-47.67
266.294	1.69
266.51	14.38
266.727	18.37
266.944	25.83
267.161	18.83
267.378	15.09
267.595	3.41
267.812	-15.71
268.028	-31.78
268.245	-24.04
268.462	-13.67
268.679	-7.44
268.896	17.53
269.112	13.35
269.329	-3.96
269.546	14.52
269.763	5.54
269.979	2.06
270.196	26.23
270.413	29.03
270.629	10.67
270.846	7.85
271.063	-3.28
271.279	-16.34
271.496	-25.27
271.712	-28.04
271.929	-7.91
272.146	-20.79
272.362	-27.01
272.579	-16.76
272.795	-10.75
273.012	-8.92
273.228	28.68
273.445	14.33
273.661	17.48
273.878	8
274.094	1.52
274.311	-9.76
274.527	-19.34
274.744	-7.97
274.96	13.69
275.177	23.19
275.393	27.83
275.609	40.86
275.826	33.09
276.042	24.15
276.259	8.45
276.475	-5.62
276.691	-25.27
276.908	-13.15
277.124	-21.36
277.34	-19.24
277.557	-24.3
277.773	-30.28
277.989	-11.77
278.205	4.43
278.422	-8.08
278.638	3.89
278.854	9.24
279.07	4.33
279.286	-6.42
279.503	8.02
279.719	9.89
279.935	11.79
280.151	4.17
280.367	10.38
280.583	9.1
280.799	-7.06
281.016	-32.44
281.232	-38.84
281.448	-43.87
281.664	-30.11
281.88	-12.83
282.096	1.73
282.312	17.54
282.528	30.35
282.744	38.55
282.96	25.94
283.176	28.38
283.392	-19.99
283.608	-15.39
283.824	-52.37
284.04	-62.42
284.256	-24.49
284.471	-8.04
284.687	-19.41
284.903	-10.96
285.119	6.77
285.335	10.07
285.551	7.17
285.767	8.27
285.982	4.76
286.198	-36.21
286.414	-55.91
286.63	-84.64
286.846	-77.46
287.061	-60.96
287.277	-46.37
287.493	-41.62
287.709	-6.43
287.924	-6.55
288.14	10.5
288.356	37.24
288.571	35.48
288.787	26.84
289.003	30.98
289.218	10.43
289.434	-17.55
289.65	2.15
289.865	12.25
290.081	22.69
290.296	33.71
290.512	43.24
290.727	24.39
290.943	21.43
291.159	15.16
291.374	-14.33
291.59	-9.7
291.805	-16.05
292.021	-19.82
292.236	-22.33
292.451	0.24
292.667	-8.38
292.882	6.21
293.098	-6.71
293.313	-8.82
293.529	-1.29
293.744	-12.32
293.959	-19.7
294.175	-19.96
294.39	-42.96
294.605	-24.32
294.821	-19.12
295.036	-8.46
295.251	-4.88
295.467	12.03
295.682	5.02
295.897	5.1
296.112	2.49
296.328	27.3
296.543	27.44
296.758	28.43
296.973	26.81
297.188	23.02
297.404	-10.42
297.619	-58.69
297.834	-104.78
298.049	-85.97
298.264	-62.31
298.479	-69.47
298.694	1.26
298.909	9.85
299.125	5.48
299.34	5.74
299.555	7.45
299.77	-2.97
299.985	6.06
300.2	10.52
300.415	10.28
300.63	9.59
300.845	0.51
301.06	6.94
301.275	10.57
301.49	20.48
301.704	23.59
301.919	20.03
302.134	14.86
302.349	12.2
302.564	-9.74
302.779	-22.46
302.994	-0.58
303.209	-2.51
303.423	-11.81
303.638	11.15
303.853	8.21
304.068	-1.5
304.283	13.36
304.497	6.84
304.712	5.08
304.927	4.5
305.142	-1.28
305.356	0.61
305.571	17.7
305.786	11.58
306	41.27
306.215	52.03
306.43	28.85
306.644	15.18
306.859	6.54
307.074	-4.56
307.288	-7.26
307.503	7.2
307.717	5.25
307.932	21.72
308.147	17.8
308.361	21.8
308.576	7.39
308.79	8.49
309.005	-25.82
309.219	-12.31
309.434	-8.85
309.648	11.27
309.863	15.79
310.077	37.3
310.292	27.91
310.506	1.87
310.72	-13.33
310.935	-7.84
311.149	-19.61
311.364	-10.87
311.578	3.15
311.792	16.07
312.007	19.66
312.221	16.51
312.435	-2.04
312.649	15.45
312.864	9.05
313.078	11.28
313.292	21.28
313.507	20.55
313.721	13.6
313.935	6.2
314.149	-2.66
314.363	7.78
314.578	17.97
314.792	-4.08
315.006	-4.63
315.22	7.85
315.434	-22.79
315.648	-14.85
315.862	-9.59
316.077	2.53
316.291	-3.98
316.505	0.75
316.719	-1.6
316.933	15.53
317.147	6.67
317.361	9.38
317.575	15.64
317.789	13.72
318.003	6.77
318.217	8.01
318.431	9.62
318.645	9.62
318.859	19.64
319.073	12.27
319.287	8.74
319.5	5.18
319.714	5.47
319.928	-4.83
320.142	-0.47
320.356	20.96
320.57	14.86
320.784	8.23
320.997	5.36
321.211	32.35
321.425	13.07
321.639	40.72
321.853	41.95
322.066	35.86
322.28	24.98
322.494	17.68
322.707	-6.59
322.921	-14.42
323.135	-10.84
323.349	-14.71
323.562	-13.8
323.776	-0.88
323.989	14.55
324.203	13.45
324.417	18.67
324.63	15.1
324.844	4.22
325.057	-22.02
325.271	-23.76
325.485	-40.16
325.698	-10.15
325.912	-2.75
326.125	4.01
326.339	11.49
326.552	13.56
326.766	-9.93
326.979	-0.29
327.193	10.64
327.406	-6.73
327.619	6.16
327.833	18.58
328.046	14.74
328.26	7.79
328.473	18.29
328.686	7.64
328.9	11.93
329.113	-4.31
329.326	-10.41
329.54	-9.9
329.753	2.32
329.966	-5.26
330.179	-0.57
330.393	6.12
330.606	4.75
330.819	-12.92
331.032	-3.91
331.246	12.38
331.459	22.55
331.672	18.92
331.885	30.65
332.098	37.27
332.311	9.46
332.525	1.24
332.738	-0.89
332.951	-2.48
333.164	-4.57
333.377	-10.06
333.59	-19.16
333.803	-29.76
334.016	-28.04
334.229	-25.32
334.442	-23.02
334.655	-10.48
334.868	-3.87
335.081	5.11
335.294	-9.49
335.507	12.8
335.72	5.98
335.933	15.07
336.146	5.24
336.359	20.24
336.572	17.69
336.785	16.8
336.997	14.75
337.21	17.56
337.423	7.36
337.636	9.87
337.849	6.78
338.062	-2.21
338.274	0.56
338.487	-18.97
338.7	-37.04
338.913	-25.01
339.125	-29.17
339.338	-31.64
339.551	-17.8
339.763	-4.67
339.976	-4.32
340.189	-3.82
340.402	-1.9
340.614	18.08
340.827	1.93
341.039	-11.68
341.252	-7.5
341.465	-10.91
341.677	-14.95
341.89	-8.47
342.102	11.63
342.315	22.89
342.527	22.21
342.74	5.82
342.952	-6.12
343.165	-16.71
343.377	-11.81
343.59	-7.17
343.802	-14.24
344.015	10.79
344.227	8.41
344.44	-10.86
344.652	-5.23
344.864	5.8
345.077	4.94
345.289	8.15
345.502	22.23
345.714	26.98
345.926	30.3
346.139	10.93
346.351	6.29
346.563	3.06
346.775	-10.96
346.988	0.82
347.2	10.77
347.412	29.23
347.624	22.44
347.837	27.44
348.049	16.34
348.261	10.65
348.473	-2.79
348.685	-3.7
348.897	-24.74
349.11	-15.38
349.322	-21.44
349.534	-20.84
349.746	-7.53
349.958	0.06
350.17	-18.93
350.382	-0.72
350.594	-5.7
350.806	1.11
351.018	1.82
351.23	26.52
351.442	33.66
351.654	32.11
351.866	26.48
352.078	31.21
352.29	10
352.502	-4.13
352.714	8.24
352.926	7.23
353.138	18.61
353.35	11.21
353.561	12.71
353.773	1.81
353.985	3.39
354.197	0.38
354.409	15.2
354.621	4.26
354.832	7.8
355.044	5.62
355.256	-2.68
355.468	-26.45
355.679	-0.74
355.891	-0.83
356.103	-4.45
356.314	-15.03
356.526	-21.66
356.738	-29.07
356.949	-35.66
357.161	-21.45
357.373	0.19
357.584	15.67
357.796	13.61
358.008	27.03
358.219	23.6
358.431	15.21
358.642	10.4
358.854	11.62
359.065	-5.5
359.277	0.71
359.488	-3.23
359.7	-2.44
359.911	-9.55
360.123	2.23
360.334	-10.39
360.546	-13.81
360.757	-15.39
360.969	-4.7
361.18	-11.57
361.391	-7.11
361.603	7.38
361.814	13.62
362.025	17.26
362.237	14.14
362.448	33.81
362.659	25.05
362.871	12.24
363.082	-3.47
363.293	0.44
363.504	-33.72
363.716	-28.57
363.927	7.78
364.138	-8.55
364.349	-10.51
364.56	-27.43
364.772	-19.35
364.983	-20.45
365.194	-6.22
365.405	-4.67
365.616	15.41
365.827	4.46
366.038	-3.05
366.25	16.18
366.461	19.45
366.672	20.96
366.883	32.41
367.094	39.37
367.305	21.68
367.516	17.46
367.727	-4.06
367.938	-18.08
368.149	-27.38
368.36	-28.66
368.571	-49.73
368.781	-24.56
368.992	-14.63
369.203	-16.8
369.414	-6.83
369.625	8.01
369.836	10.52
370.047	18.37
370.258	21.62
370.468	12.63
370.679	18.86
370.89	7.67
371.101	-4.42
371.312	-9.16
371.522	0.52
371.733	-6.63
371.944	-10.65
372.155	6.71
372.365	17.84
372.576	4.5
372.787	6.33
372.997	5.37
373.208	-3.24
373.419	-2.83
373.629	-8.47
373.84	-10.2
374.05	2.27
374.261	-7.35
374.472	1.59
374.682	24.76
374.893	15.84
375.103	11.29
375.314	25.52
375.524	20.23
375.735	21.17
375.945	23.26
376.156	31.08
376.366	23.31
376.577	25.04
376.787	14.25
376.997	22.42
377.208	9.75
377.418	11.79
377.629	4.74
377.839	13.57
378.049	8.8
378.26	0.77
378.47	-9.45
378.68	0.38
378.89	-2.72
379.101	10.16
379.311	17.1
379.521	12.44
379.732	14.19
379.942	14.68
380.152	-3.88
380.362	-2.83
380.572	22.45
380.783	19.49
380.993	13.62
381.203	16.42
381.413	17.66
381.623	7.71
381.833	7.18
382.043	9.66
382.253	11.3
382.463	24.4
382.674	21.48
382.884	22.34
383.094	24.65
383.304	28.03
383.514	20.36
383.724	19.41
383.934	16.03
384.144	17.85
384.353	12.16
384.563	6.68
384.773	11.04
384.983	6.76
385.193	-1
385.403	-1.08
385.613	3.01
385.823	-2.11
386.033	4.44
386.242	4.07
386.452	4.08
386.662	5.02
386.872	11
387.082	8.1
387.291	3.79
387.501	5.94
387.711	5.41
387.921	5.59
388.13	8.29
388.34	9.7
388.55	8.08
388.759	5.11
388.969	5.03
389.179	3.69
389.388	5.79
389.598	5.15
389.807	4.18
390.017	-2.79
390.227	-4.32
390.436	-3.97
390.646	-1.67
390.855	-0.24
391.065	3.95
391.274	6.27
391.484	4.61
391.693	1.89
391.903	1.27
392.112	2.05
392.322	-1
392.531	1.8
392.74	2.59
392.95	2.3
393.159	1.61
393.369	1.84
393.578	-1.02
393.787	-0.74
393.997	0.73
394.206	-0.8
394.415	1.43
394.625	2.53
394.834	1.67
395.043	1.13
395.252	4.25
395.462	4.48
395.671	4.64
395.88	6.23
396.089	6.06
396.298	3.89
396.508	3.85
396.717	4
396.926	2.89
397.135	3.27
397.344	3.91
397.553	3.08
397.762	4.01
397.971	4.15
398.181	3.89
398.39	3.85
398.599	4.08
398.808	3.6
399.017	4.14
399.226	4.4
399.435	4.64
399.644	5.09
399.853	4.94
400.062	4.75
400.27	4.22
400.479	4.1
400.688	4.03
400.897	3.98
401.106	3.83
401.315	4.18
401.524	4.2
401.733	3.79
401.941	3.97
402.15	4.01
402.359	3.93
402.568	4.04
402.777	4.22
402.985	3.87
403.194	3.65
403.403	3.99
403.612	3.64
403.82	3.34
404.029	3.55
404.238	3.68
404.446	3.67
404.655	3.97
404.864	4.33
405.072	4.2
405.281	4.19
405.489	3.97
405.698	3.97
405.906	4.13
406.115	4.24
406.324	4.27
406.532	4.38
406.741	4.3
406.949	4.07
407.158	4.15
407.366	3.97
407.574	3.98
407.783	4.02
407.991	3.94
408.2	3.91
408.408	4.01
408.617	3.96
408.825	3.85
409.033	3.87
409.242	3.88
409.45	4
409.658	3.96
409.867	3.93
410.075	4
410.283	3.87
410.491	3.76
410.7	3.71
410.908	3.91
411.116	3.8
411.324	3.8
411.533	3.72
411.741	3.66
411.949	3.58
412.157	3.56
412.365	3.72
412.573	3.86
412.781	3.92
412.99	3.91
413.198	3.98
413.406	3.89
413.614	3.95
413.822	4.03
414.03	3.9
414.238	3.94
414.446	4
414.654	3.84
414.862	3.63
415.07	3.67
415.278	3.7
415.486	3.52
415.694	3.55
415.902	3.63
416.109	3.64
416.317	3.53
416.525	3.55
416.733	3.56
416.941	3.57
417.149	3.55
417.357	3.57
417.564	3.5
417.772	3.53
417.98	3.57
418.188	3.52
418.395	3.29
418.603	3.29
418.811	3.07
419.019	2.99
419.226	3.07
419.434	3.32
419.642	3.27
419.849	3.47
420.057	3.46
420.265	3.28
420.472	3.21
420.68	3.38
420.887	3.23
421.095	3.28
421.302	3.42
421.51	3.32
421.717	3.3
421.925	3.43
422.132	3.47
422.34	3.23
422.547	3.07
422.755	2.96
422.962	3.03
423.17	2.78
423.377	2.86
423.585	3.21
423.792	3.27
423.999	3.29
424.207	3.4
424.414	3.44
424.621	3.31
424.829	3.34
425.036	3.29
425.243	3.47
425.451	3.53
425.658	3.5
425.865	3.55
426.072	3.45
426.28	3.35
426.487	3.45
426.694	3.41
426.901	3.36
427.108	3.33
427.315	3.39
427.523	3.2
427.73	3.27
427.937	3.15
428.144	3.13
428.351	3.03
428.558	3.31
428.765	3.27
428.972	3.42
429.179	3.25
429.386	3.34
429.593	3.14
429.8	3.21
430.007	3.22
430.214	3.36
430.421	3.35
430.628	3.37
430.835	3.32
431.042	3.27
431.249	3.33
431.456	3.29
431.662	3.46
431.869	3.48
432.076	3.58
432.283	3.64
432.49	3.65
432.697	3.51
432.903	3.57
433.11	3.66
433.317	3.61
433.524	3.65
433.73	3.56
433.937	3.67
434.144	3.43
434.35	3.39
434.557	3.42
434.764	3.55
434.97	3.38
435.177	3.57
435.384	3.66
435.59	3.62
435.797	3.64
436.003	3.69
436.21	3.56
436.416	3.58
436.623	3.67
436.829	3.62
437.036	3.64
437.242	3.85
437.449	3.83
437.655	3.89
437.862	4.05
438.068	3.87
438.275	3.85
438.481	3.81
438.687	3.6
438.894	3.54
439.1	3.66
439.307	3.62
439.513	3.78
439.719	3.87
439.926	3.86
440.132	4
440.338	3.99
440.544	3.95
440.751	3.97
440.957	3.96
441.163	3.77
441.369	3.86
441.575	3.81
441.782	3.92
441.988	4
442.194	4.04
442.4	3.86
442.606	4.02
442.812	3.94
443.018	3.91
443.224	4.1
443.431	4.21
443.637	4.11
443.843	4.19
444.049	4.21
444.255	4.12
444.461	4.08
444.667	4.06
444.873	3.95
445.079	3.91
445.284	3.9
445.49	3.92
445.696	3.85
445.902	3.87
446.108	3.84
446.314	3.82
446.52	3.86
446.726	4.06
446.931	4.06
447.137	4.12
447.343	4.19
447.549	4.26
447.755	4.19
447.96	4.16
448.166	4.19
448.372	4.21
448.578	4.11
448.783	4.07
448.989	4.17
449.195	4.19
449.4	4.18
449.606	4.22
449.812	4.16
450.017	4.13
450.223	4.15
450.428	4.17
450.634	4.17
450.84	4.24
451.045	4.32
451.251	4.33
451.456	4.33
451.662	4.35
451.867	4.32
452.073	4.31
452.278	4.24
452.483	4.15
452.689	4.17
452.894	4.25
453.1	4.22
453.305	4.28
453.51	4.38
453.716	4.33
453.921	4.46
454.127	4.48
454.332	4.43
454.537	4.4
454.742	4.45
454.948	4.24
455.153	4.29
455.358	4.36
455.563	4.41
455.769	4.41
455.974	4.52
456.179	4.45
456.384	4.48
456.589	4.36
456.795	4.29
457	4.21
457.205	4.12
457.41	4.03
457.615	4.11
457.82	4.25
458.025	4.33
458.23	4.42
458.435	4.55
458.64	4.61
458.845	4.59
459.05	4.62
459.255	4.69
459.46	4.67
459.665	4.64
459.87	4.59
460.075	4.63
460.28	4.66
460.485	4.64
460.69	4.68
460.895	4.81
461.099	4.7
461.304	4.64
461.509	4.59
461.714	4.62
461.919	4.46
462.123	4.47
462.328	4.4
462.533	4.4
462.738	4.27
462.942	4.26
463.147	4.29
463.352	4.36
463.556	4.39
463.761	4.48
463.966	4.52
464.17	4.62
464.375	4.7
464.58	4.69
464.784	4.6
464.989	4.68
465.193	4.6
465.398	4.63
465.602	4.82
465.807	4.92
466.011	4.91
466.216	4.81
466.42	4.82
466.625	4.84
466.829	4.84
467.034	4.87
467.238	5.12
467.443	5.08
467.647	5
467.851	5.02
468.056	4.96
468.26	4.86
468.464	4.86
468.669	4.82
468.873	4.77
469.077	4.89
469.282	4.95
469.486	4.99
469.69	5.03
469.894	5.1
470.099	5.09
470.303	5.06
470.507	5.06
470.711	5.03
470.915	5.15
471.119	5.18
471.324	5.27
471.528	5.35
471.732	5.44
471.936	5.38
472.14	5.42
472.344	5.48
472.548	5.48
472.752	5.44
472.956	5.45
473.16	5.47
473.364	5.44
473.568	5.37
473.772	5.39
473.976	5.46
474.18	5.43
474.384	5.37
474.588	5.54
474.792	5.53
474.995	5.49
475.199	5.54
475.403	5.6
475.607	5.58
475.811	5.58
476.015	5.53
476.218	5.44
476.422	5.49
476.626	5.52
476.83	5.65
477.033	5.77
477.237	5.85
477.441	5.91
477.644	5.84
477.848	5.89
478.052	5.91
478.255	5.92
478.459	5.85
478.663	6
478.866	5.92
479.07	5.87
479.273	5.91
479.477	5.91
479.681	5.84
479.884	5.84
480.088	5.9
480.291	5.93
480.495	5.97
480.698	5.94
480.901	5.97
481.105	5.97
481.308	5.97
481.512	5.99
481.715	6.03
481.919	6.13
482.122	6.12
482.325	6.1
482.529	6.06
482.732	6.01
482.935	5.94
483.138	5.9
483.342	5.98
483.545	6.08
483.748	6.18
483.952	6.2
484.155	6.3
484.358	6.21
484.561	6.19
484.764	6.15
484.967	6.15
485.171	6.12
485.374	6.12
485.577	6.08
485.78	6.11
485.983	6.14
486.186	6.12
486.389	6.21
486.592	6.27
486.795	6.26
486.998	6.19
487.201	6.23
487.404	6.27
487.607	6.23
487.81	6.18
488.013	6.28
488.216	6.24
488.419	6.17
488.622	6.2
488.825	6.26
489.028	6.17
489.231	6.21
489.433	6.24
489.636	6.22
489.839	6.25
490.042	6.3
490.245	6.28
490.447	6.26
490.65	6.3
490.853	6.25
491.056	6.2
491.258	6.25
491.461	6.28
491.664	6.28
491.866	6.22
492.069	6.31
492.272	6.25
492.474	6.25
492.677	6.25
492.879	6.33
493.082	6.36
493.285	6.42
493.487	6.4
493.69	6.38
493.892	6.31
494.095	6.33
494.297	6.35
494.5	6.39
494.702	6.45
494.905	6.5
495.107	6.48
495.309	6.5
495.512	6.57
495.714	6.5
495.917	6.62
496.119	6.65
496.321	6.68
496.524	6.59
496.726	6.6
496.928	6.51
497.13	6.46
497.333	6.39
497.535	6.44
497.737	6.53
497.939	6.56
498.142	6.56
498.344	6.65
498.546	6.62
498.748	6.69
498.95	6.73
499.152	6.73
499.355	6.69
499.557	6.8
499.759	6.8
499.961	6.83
500.163	6.88
500.365	6.96
500.567	6.95
500.769	6.93
500.971	6.95
501.173	6.95
501.375	6.97
501.577	6.97
501.779	6.95
501.981	6.99
502.183	7.03
502.385	7.01
502.587	6.97
502.788	7.03
502.99	6.96
503.192	7
503.394	7.06
503.596	7.11
503.798	7.05
503.999	7.13
504.201	7.14
504.403	7.12
504.605	7.19
504.806	7.27
505.008	7.3
505.21	7.33
505.411	7.34
505.613	7.37
505.815	7.39
506.016	7.48
506.218	7.5
506.42	7.55
506.621	7.59
506.823	7.63
507.024	7.58
507.226	7.64
507.427	7.68
507.629	7.6
507.83	7.67
508.032	7.67
508.233	7.64
508.435	7.64
508.636	7.73
508.838	7.7
509.039	7.7
509.24	7.73
509.442	7.76
509.643	7.77
509.845	7.74
510.046	7.82
510.247	7.85
510.448	7.87
510.65	7.91
510.851	7.95
511.052	7.95
511.254	7.98
511.455	7.95
511.656	7.95
511.857	7.99
512.058	8.06
512.26	8.05
512.461	8.08
512.662	8.05
512.863	7.97
513.064	7.98
513.265	7.98
513.466	8.02
513.667	8.08
513.868	8.14
514.069	8.04
514.27	8.12
514.471	8.07
514.672	8.09
514.873	8.09
515.074	8.18
515.275	8.14
515.476	8.2
515.677	8.24
515.878	8.27
516.079	8.27
516.28	8.28
516.481	8.26
516.682	8.21
516.882	8.21
517.083	8.22
517.284	8.24
517.485	8.26
517.686	8.32
517.886	8.36
518.087	8.4
518.288	8.4
518.488	8.46
518.689	8.47
518.89	8.46
519.091	8.51
519.291	8.5
519.492	8.53
519.692	8.47
519.893	8.52
520.094	8.47
520.294	8.51
520.495	8.45
520.695	8.55
520.896	8.59
521.096	8.65
521.297	8.63
521.497	8.66
521.698	8.64
521.898	8.65
522.099	8.69
522.299	8.73
522.499	8.69
522.7	8.73
522.9	8.76
523.101	8.62
523.301	8.6
523.501	8.68
523.702	8.68
523.902	8.64
524.102	8.78
524.302	8.84
524.503	8.82
524.703	8.76
524.903	8.81
525.103	8.76
525.304	8.7
525.504	8.78
525.704	8.83
525.904	8.81
526.104	8.85
526.304	8.87
526.504	8.8
526.705	8.82
526.905	8.85
527.105	8.82
527.305	8.86
527.505	8.85
527.705	8.84
527.905	8.87
528.105	8.88
528.305	8.9
528.505	8.93
528.705	9.03
528.905	9.03
529.105	9.09
529.304	9.1
529.504	9.12
529.704	9.05
529.904	9.05
530.104	9.02
530.304	8.99
530.503	9.02
530.703	9.04
530.903	9.07
531.103	9.1
531.303	9.16
531.502	9.21
531.702	9.26
531.902	9.36
532.101	9.35
532.301	9.36
532.501	9.36
532.7	9.33
532.9	9.29
533.1	9.31
533.299	9.29
533.499	9.24
533.698	9.27
533.898	9.31
534.097	9.35
534.297	9.42
534.496	9.5
534.696	9.56
534.895	9.54
535.095	9.62
535.294	9.64
535.494	9.64
535.693	9.7
535.892	9.74
536.092	9.71
536.291	9.74
536.491	9.73
536.69	9.68
536.889	9.67
537.088	9.67
537.288	9.64
537.487	9.73
537.686	9.71
537.886	9.78
538.085	9.8
538.284	9.92
538.483	9.86
538.682	9.95
538.882	9.97
539.081	10.03
539.28	9.97
539.479	10.02
539.678	10.05
539.877	10.03
540.076	10.04
540.275	10.1
540.474	10.1
540.673	10.18
540.872	10.22
541.071	10.24
541.27	10.29
541.469	10.35
541.668	10.33
541.867	10.37
542.066	10.43
542.265	10.44
542.464	10.51
542.663	10.58
542.862	10.74
543.06	10.86
543.259	10.98
543.458	11.05
543.657	11.07
543.856	11.06
544.054	10.99
544.253	10.99
544.452	11.03
544.651	11.1
544.849	11.09
545.048	11.19
545.247	11.23
545.445	11.24
545.644	11.24
545.843	11.25
546.041	11.25
546.24	11.24
546.438	11.26
546.637	11.31
546.836	11.4
547.034	11.47
547.233	11.57
547.431	11.55
547.63	11.6
547.828	11.6
548.027	11.61
548.225	11.6
548.423	11.69
548.622	11.79
548.82	11.85
549.019	11.93
549.217	12.04
549.415	12.11
549.614	12.19
549.812	12.24
550.01	12.28
550.209	12.36
550.407	12.41
550.605	12.36
550.803	12.45
551.002	12.55
551.2	12.55
551.398	12.63
551.596	12.73
551.794	12.79
551.993	12.78
552.191	12.92
552.389	12.96
552.587	13.01
552.785	13.04
552.983	13.14
553.181	13.15
553.379	13.29
553.577	13.38
553.775	13.48
553.973	13.56
554.171	13.67
554.369	13.78
554.567	13.9
554.765	13.94
554.963	13.99
555.161	14
555.359	14.02
555.557	14.03
555.755	14.17
555.952	14.3
556.15	14.39
556.348	14.44
556.546	14.6
556.744	14.6
556.941	14.64
557.139	14.75
557.337	14.92
557.535	14.9
557.732	15
557.93	15.1
558.128	15.19
558.325	15.3
558.523	15.46
558.721	15.61
558.918	15.76
559.116	15.89
559.313	15.94
559.511	16.06
559.708	16.16
559.906	16.24
560.104	16.24
560.301	16.3
560.498	16.36
560.696	16.42
560.893	16.49
561.091	16.6
561.288	16.71
561.486	16.76
561.683	16.78
561.88	16.86
562.078	16.97
562.275	17.09
562.473	17.21
562.67	17.34
562.867	17.46
563.064	17.56
563.262	17.6
563.459	17.7
563.656	17.87
563.853	17.84
564.051	17.89
564.248	18.02
564.445	18.08
564.642	18.17
564.839	18.37
565.036	18.5
565.234	18.63
565.431	18.8
565.628	18.84
565.825	18.85
566.022	18.98
566.219	19.03
566.416	19.07
566.613	19.17
566.81	19.35
567.007	19.39
567.204	19.42
567.401	19.51
567.598	19.67
567.795	19.75
567.991	19.78
568.188	19.93
568.385	19.95
568.582	19.97
568.779	20.01
568.976	20.16
569.172	20.2
569.369	20.27
569.566	20.38
569.763	20.4
569.96	20.45
570.156	20.48
570.353	20.51
570.55	20.54
570.746	20.64
570.943	20.68
571.14	20.76
571.336	20.86
571.533	20.92
571.729	20.96
571.926	21.1
572.123	21.14
572.319	21.23
572.516	21.36
572.712	21.4
572.909	21.37
573.105	21.42
573.302	21.34
573.498	21.24
573.695	21.24
573.891	21.22
574.087	21.18
574.284	21.28
574.48	21.43
574.677	21.52
574.873	21.61
575.069	21.75
575.266	21.8
575.462	21.75
575.658	21.84
575.854	21.87
576.051	21.91
576.247	21.94
576.443	21.96
576.639	21.88
576.835	21.73
577.032	21.62
577.228	21.63
577.424	21.69
577.62	21.73
577.816	21.84
578.012	21.96
578.208	22.02
578.404	21.99
578.6	22.05
578.796	22.11
578.993	22.07
579.189	22.06
579.384	22.06
579.58	22.06
579.776	22.04
579.972	22
580.168	22.04
580.364	22.13
580.56	22.02
580.756	22.01
580.952	22.08
581.148	22.02
581.343	21.95
581.539	22.04
581.735	22.03
581.931	21.95
582.127	21.87
582.322	21.82
582.518	21.72
582.714	21.7
582.909	21.66
583.105	21.69
583.301	21.74
583.496	21.73
583.692	21.65
583.888	21.69
584.083	21.63
584.279	21.44
584.474	21.48
584.67	21.54
584.866	21.53
585.061	21.6
585.257	21.73
585.452	21.72
585.648	21.68
585.843	21.72
586.039	21.67
586.234	21.68
586.429	21.64
586.625	21.71
586.82	21.68
587.015	21.72
587.211	21.71
587.406	21.74
587.601	21.75
587.797	21.75
587.992	21.71
588.187	21.61
588.383	21.61
588.578	21.62
588.773	21.66
588.968	21.76
589.163	21.9
589.359	21.95
589.554	21.87
589.749	21.91
589.944	21.87
590.139	21.85
590.334	21.87
590.529	21.98
590.724	22.05
590.919	22.13
591.114	22.26
591.309	22.25
591.504	22.22
591.699	22.2
591.894	22.22
592.089	22.11
592.284	22.14
592.479	22.21
592.674	22.28
592.869	22.25
593.064	22.35
593.259	22.42
593.454	22.39
593.648	22.4
593.843	22.47
594.038	22.55
594.233	22.57
594.428	22.72
594.622	22.77
594.817	22.88
595.012	22.93
595.206	23.03
595.401	23.14
595.596	23.23
595.79	23.25
595.985	23.24
596.18	23.28
596.374	23.34
596.569	23.38
596.763	23.49
596.958	23.64
597.153	23.77
597.347	23.76
597.542	23.85
597.736	23.95
597.931	24.05
598.125	24.12
598.319	24.25
598.514	24.33
598.708	24.33
598.903	24.44
599.097	24.42
599.291	24.37
599.486	24.42
599.68	24.49
599.874	24.51
600.069	24.66
600.263	24.74
600.457	24.82
600.651	24.78
600.846	24.79
601.04	24.74
601.234	24.8
601.428	24.8
601.622	24.94
601.817	24.94
602.011	25.04
602.205	25.11
602.399	25.16
602.593	25.15
602.787	25.16
602.981	25.04
603.175	25.08
603.369	25.06
603.563	25.08
603.757	25.13
603.951	25.17
604.145	25.06
604.339	25.13
604.533	25.13
604.727	25.06
604.921	25.07
605.115	25.1
605.309	25.02
605.502	25.03
605.696	25
605.89	25.06
606.084	25.02
606.278	25.05
606.471	24.95
606.665	24.97
606.859	24.87
607.053	24.77
607.246	24.69
607.44	24.6
607.634	24.53
607.827	24.51
608.021	24.42
608.214	24.31
608.408	24.24
608.602	24.09
608.795	24.13
608.989	24.12
609.182	24.12
609.376	24.2
609.569	24.27
609.763	24.11
609.956	24.12
610.15	24.03
610.343	23.88
610.537	23.8
610.73	23.63
610.923	23.54
611.117	23.55
611.31	23.51
611.504	23.43
611.697	23.47
611.89	23.37
612.083	23.22
612.277	23.22
612.47	23.16
612.663	23.08
612.856	23.02
613.05	22.99
613.243	22.8
613.436	22.7
613.629	22.56
613.822	22.57
614.015	22.51
614.209	22.43
614.402	22.33
614.595	22.32
614.788	22.23
614.981	22.14
615.174	22.2
615.367	22.21
615.56	22.17
615.753	22.18
615.946	22.17
616.139	22.05
616.332	22.01
616.525	21.96
616.718	21.89
616.911	21.8
617.103	21.76
617.296	21.68
617.489	21.58
617.682	21.54
617.875	21.49
618.067	21.43
618.26	21.37
618.453	21.39
618.646	21.34
618.838	21.27
619.031	21.28
619.224	21.2
619.417	21.08
619.609	21.01
619.802	20.99
619.994	20.9
620.187	20.86
620.38	20.88
620.572	20.95
620.765	20.92
620.957	20.87
621.15	20.8
621.342	20.81
621.535	20.73
621.727	20.71
621.92	20.76
622.112	20.88
622.305	20.81
622.497	20.73
622.69	20.68
622.882	20.63
623.074	20.61
623.267	20.61
623.459	20.51
623.651	20.47
623.844	20.51
624.036	20.48
624.228	20.34
624.42	20.36
624.613	20.36
624.805	20.28
624.997	20.2
625.189	20.34
625.381	20.39
625.574	20.33
625.766	20.34
625.958	20.46
626.15	20.33
626.342	20.26
626.534	20.33
626.726	20.28
626.918	20.17
627.11	20.08
627.302	20.07
627.494	19.99
627.686	19.9
627.878	19.8
628.07	19.86
628.262	19.87
628.454	19.86
628.646	19.83
628.838	19.87
629.029	19.76
629.221	19.67
629.413	19.66
629.605	19.58
629.797	19.58
629.989	19.62
630.18	19.56
630.372	19.5
630.564	19.56
630.755	19.5
630.947	19.48
631.139	19.43
631.33	19.3
631.522	19.27
631.714	19.2
631.905	19.14
632.097	19.19
632.289	19.26
632.48	19.23
632.672	19.18
632.863	19.16
633.055	19.06
633.246	19.06
633.438	19.04
633.629	19.07
633.821	19.08
634.012	19.09
634.203	19.05
634.395	19.03
634.586	19.1
634.777	19.05
634.969	19.08
635.16	19.05
635.351	19.02
635.543	18.84
635.734	18.87
635.925	18.92
636.117	18.89
636.308	18.91
636.499	18.98
636.69	18.92
636.881	18.79
637.073	18.86
637.264	18.91
637.455	18.91
637.646	18.91
637.837	18.85
638.028	18.77
638.219	18.73
638.41	18.75
638.601	18.81
638.792	18.86
638.983	18.82
639.174	18.74
639.365	18.72
639.556	18.54
639.747	18.56
639.938	18.67
640.129	18.69
640.32	18.65
640.511	18.74
640.701	18.73
640.892	18.64
641.083	18.58
641.274	18.57
641.465	18.57
641.655	18.55
641.846	18.51
642.037	18.46
642.228	18.34
642.418	18.27
642.609	18.21
642.8	18.21
642.99	18.26
643.181	18.41
643.372	18.42
643.562	18.39
643.753	18.38
643.943	18.28
644.134	18.05
644.324	18.03
644.515	18.08
644.705	18.01
644.896	18.08
645.086	18.14
645.277	18.15
645.467	18.16
645.658	18.09
645.848	18.09
646.038	18.07
646.229	18.02
646.419	17.83
646.61	17.94
646.8	17.8
646.99	17.82
647.18	17.79
647.371	17.85
647.561	17.73
647.751	17.75
647.941	17.7
648.132	17.63
648.322	17.54
648.512	17.59
648.702	17.64
648.892	17.59
649.082	17.62
649.272	17.58
649.462	17.6
649.653	17.5
649.843	17.49
650.033	17.43
650.223	17.48
650.413	17.39
650.603	17.44
650.793	17.46
650.983	17.34
651.172	17.36
651.362	17.32
651.552	17.19
651.742	17.02
651.932	17.11
652.122	17.01
652.312	16.94
652.502	16.76
652.691	16.81
652.881	16.6
653.071	16.55
653.261	16.47
653.45	16.52
653.64	16.43
653.83	16.45
654.019	16.31
654.209	16.18
654.399	16.12
654.588	15.99
654.778	15.81
654.968	15.72
655.157	15.6
655.347	15.28
655.536	15.15
655.726	15.02
655.915	14.87
656.105	14.78
656.294	14.71
656.484	14.57
656.673	14.51
656.863	14.42
657.052	14.27
657.241	14.25
657.431	14.03
657.62	13.83
657.809	13.64
657.999	13.52
658.188	13.3
658.377	13.23
658.567	13.12
658.756	12.95
658.945	12.85
659.134	12.74
659.324	12.49
659.513	12.26
659.702	12.1
659.891	11.97
660.08	11.83
660.269	11.8
660.458	11.65
660.648	11.55
660.837	11.38
661.026	11.13
661.215	10.91
661.404	10.83
661.593	10.73
661.782	10.54
661.971	10.45
662.16	10.39
662.349	10.21
662.538	10.13
662.726	10.09
662.915	10.13
663.104	10.05
663.293	10.1
663.482	9.91
663.671	9.73
663.86	9.57
664.048	9.55
664.237	9.43
664.426	9.35
664.615	9.36
664.803	9.25
664.992	8.99
665.181	8.86
665.369	8.69
665.558	8.6
665.747	8.57
665.935	8.58
666.124	8.59
666.312	8.62
666.501	8.57
666.69	8.55
666.878	8.5
667.067	8.31
667.255	8.21
667.444	8.21
667.632	8.22
667.82	8.3
668.009	8.35
668.197	8.35
668.386	8.29
668.574	8.17
668.762	8.11
668.951	8.13
669.139	8.21
669.327	8.17
669.516	8.12
669.704	8.07
669.892	8.04
670.08	7.97
670.269	7.95
670.457	7.94
670.645	7.95
670.833	8.05
671.021	8.18
671.21	8.17
671.398	8.3
671.586	8.36
671.774	8.39
671.962	8.26
672.15	8.39
672.338	8.4
672.526	8.47
672.714	8.46
672.902	8.58
673.09	8.69
673.278	8.89
673.466	8.92
673.654	8.94
673.842	9.03
674.03	9.06
674.218	8.96
674.405	8.97
674.593	9.07
674.781	9.16
674.969	9.24
675.157	9.43
675.344	9.58
675.532	9.6
675.72	9.61
675.908	9.58
676.095	9.5
676.283	9.57
676.471	9.67
676.658	9.72
676.846	9.84
677.033	9.9
677.221	9.95
677.409	9.97
677.596	10.04
677.784	10.13
677.971	10.21
678.159	10.27
678.346	10.49
678.534	10.5
678.721	10.7
678.909	10.98
679.096	11.02
679.283	11.06
679.471	11.34
679.658	11.33
679.846	11.24
680.033	11.59
680.22	11.7
680.408	11.64
680.595	11.71
680.782	11.89
680.969	11.94
681.157	11.99
681.344	12.09
681.531	12.44
681.718	12.7
681.905	12.81
682.093	12.99
682.28	13.32
682.467	13.48
682.654	13.44
682.841	13.67
683.028	13.82
683.215	14.05
683.402	14.01
683.589	14.32
683.776	14.48
683.963	14.78
684.15	14.87
684.337	15.13
684.524	15.37
684.711	15.51
684.898	15.62
685.085	15.9
685.271	16.22
685.458	16.43
685.645	16.75
685.832	17.07
686.019	17.35
686.205	17.57
686.392	17.87
686.579	18.22
686.766	18.64
686.952	18.93
687.139	19.45
687.326	19.83
687.512	20.18
687.699	20.57
687.886	20.95
688.072	21.09
688.259	21.38
688.445	21.88
688.632	22.16
688.818	22.64
689.005	23.25
689.191	23.93
689.378	24.33
689.564	24.96
689.751	25.39
689.937	25.95
690.124	26.5
690.31	26.86
690.496	27.35
690.683	27.98
690.869	28.46
691.055	28.84
691.242	29.52
691.428	30.03
691.614	30.73
691.8	31.21
691.987	32.08
692.173	32.81
692.359	33.52
692.545	34.13
692.731	34.94
692.918	34.94
693.104	35.45
693.29	35.97
693.476	36.46
693.662	36.92
693.848	38.05
694.034	38.52
694.22	39.05
694.406	39.85
694.592	40.49
694.778	40.81
694.964	41.43
695.15	42.27
695.336	42.76
695.522	43.27
695.708	44.16
695.894	44.86
696.08	45.5
696.265	46.24
696.451	46.84
696.637	47.21
696.823	47.81
697.009	48.41
697.194	48.86
697.38	49.66
697.566	50.31
697.751	50.9
697.937	51.32
698.123	51.93
698.308	52.3
698.494	53.1
698.68	53.69
698.865	54.21
699.051	54.52
699.236	54.99
699.422	55.2
699.607	55.76
699.793	56.22
699.978	56.64
700.164	57.1
700.349	57.71
700.535	57.84
700.72	58.21
700.906	58.86
701.091	59.13
701.276	59.36
701.462	59.99
701.647	60.54
701.832	60.76
702.018	61.64
702.203	62.19
702.388	62.42
702.573	62.83
702.759	63.48
702.944	63.32
703.129	63.63
703.314	64.23
703.499	64.59
703.684	64.54
703.87	65.09
704.055	65.23
704.24	65.53
704.425	65.72
704.61	66.18
704.795	66.62
704.98	66.74
705.165	67.01
705.35	67.06
705.535	67.26
705.72	67.3
705.905	67.93
706.09	68.32
706.275	68.69
706.459	69.03
706.644	69.24
706.829	69.2
707.014	69.29
707.199	69.56
707.384	69.62
707.568	69.94
707.753	70.69
707.938	70.72
708.123	70.87
708.307	71.19
708.492	71.58
708.677	71.24
708.861	71.23
709.046	70.97
709.231	70.86
709.415	70.87
709.6	71.02
709.784	71.53
709.969	72.43
710.153	72.52
710.338	72.82
710.522	73.15
710.707	73.37
710.891	73.03
711.076	72.97
711.26	73.22
711.445	73.34
711.629	73
711.813	73.44
711.998	73.81
712.182	73.57
712.366	73.77
712.551	73.91
712.735	74.03
712.919	74.45
713.103	74.8
713.288	74.81
713.472	75.42
713.656	75.28
713.84	75.43
714.024	75.61
714.208	75.58
714.393	75.69
714.577	75.99
714.761	75.95
714.945	75.76
715.129	75.74
715.313	75.73
715.497	75.44
715.681	75.44
715.865	75.41
716.049	75.84
716.233	75.52
716.417	75.63
716.601	75.91
716.785	76.34
716.968	76.41
717.152	77.14
717.336	77.86
717.52	78.31
717.704	78.47
717.888	78.63
718.071	78.13
718.255	78.31
718.439	78.16
718.622	78.34
718.806	78.36
718.99	78.56
719.174	78.34
719.357	78.4
719.541	78.29
719.724	78.61
719.908	78.66
720.092	78.36
720.275	78.52
720.459	78.76
720.642	78.69
720.826	79.06
721.009	79.38
721.193	78.88
721.376	78.6
721.559	78.33
721.743	78.03
721.926	78.58
722.11	78.98
722.293	79.3
722.476	79.24
722.66	79.91
722.843	79.6
723.026	80.04
723.21	79.72
723.393	80.23
723.576	80.12
723.759	80.44
723.942	80.21
724.126	80.01
724.309	79.92
724.492	79.77
724.675	79.6
724.858	79.61
725.041	80.23
725.224	80.4
725.407	80.64
725.59	80.61
725.774	80.53
725.957	80.35
726.14	79.92
726.322	79.66
726.505	79.68
726.688	80.1
726.871	80.15
727.054	80.85
727.237	80.43
727.42	80.26
727.603	79.85
727.786	80.14
727.968	79.96
728.151	80.88
728.334	81.24
728.517	81.59
728.699	81.76
728.882	82.05
729.065	81.79
729.248	81.99
729.43	82.38
729.613	82.51
729.796	82.89
729.978	83.24
730.161	83.69
730.343	83.87
730.526	83.39
730.708	83.09
730.891	82.83
731.073	82.3
731.256	82.2
731.438	83.13
731.621	83.5
731.803	84.01
731.986	84.23
732.168	84.47
732.35	84.5
732.533	83.99
732.715	84.33
732.898	84.13
733.08	84.5
733.262	84.27
733.444	84.95
733.627	84.59
733.809	85.62
733.991	85.63
734.173	85.52
734.355	85.26
734.538	85.38
734.72	84.92
734.902	84.48
735.084	84.49
735.266	84.66
735.448	85.18
735.63	84.97
735.812	85.38
735.994	85.63
736.176	85.44
736.358	85.85
736.54	86.45
736.722	85.92
736.904	86.23
737.086	86.42
737.268	86.03
737.45	86.15
737.632	86.5
737.814	86.33
737.995	86.55
738.177	86.7
738.359	86.8
738.541	86.44
738.723	86.21
738.904	85.91
739.086	85.93
739.268	85.52
739.449	85.56
739.631	85.8
739.813	85.62
739.994	84.01
740.176	84.11
740.358	84.95
740.539	84.88
740.721	85.28
740.902	86.09
741.084	86.04
741.265	85.74
741.447	86.37
741.628	86.76
741.81	86.86
741.991	87.41
742.172	87.09
742.354	85.81
742.535	85.93
742.717	85.45
742.898	84.72
743.079	86.14
743.261	86.67
743.442	85.67
743.623	86.5
743.804	85.79
743.986	84.05
744.167	84.49
744.348	84.01
744.529	83.78
744.71	84.07
744.891	84.03
745.073	83.95
745.254	84.54
745.435	85.23
745.616	85.81
745.797	86.13
745.978	85.78
746.159	85.07
746.34	85.28
746.521	85.04
746.702	85.26
746.883	85.59
747.064	86.78
747.245	85.41
747.426	86.07
747.606	85.87
747.787	86.12
747.968	85.29
748.149	85.28
748.33	83.83
748.51	82.83
748.691	82.55
748.872	83.9
749.053	83.79
749.233	85.11
749.414	87.27
749.595	87.64
749.775	86.66
749.956	87.27
750.137	86.36
750.317	84.26
750.498	83.72
750.678	84.29
750.859	84.76
751.04	85.77
751.22	85.42
751.4	84.6
751.581	84.11
751.761	84.19
751.942	83.1
752.122	83.88
752.303	85.03
752.483	85.06
752.663	84.87
752.844	85.55
753.024	85.96
753.204	85.35
753.385	85
753.565	84.17
753.745	83.24
753.925	82.78
754.106	83.09
754.286	82.76
754.466	83.44
754.646	82.59
754.826	82.89
755.006	81.92
755.187	82.46
755.367	81.69
755.547	83.27
755.727	83.16
755.907	83.64
756.087	83.64
756.267	82.93
756.447	84.17
756.627	84.78
756.807	85.96
756.987	86
757.167	86.82
757.346	85.56
757.526	85.46
757.706	83.62
757.886	82.74
758.066	82.69
758.246	82.35
758.425	81.44
758.605	82.01
758.785	83.63
758.965	85.16
759.144	84.21
759.324	84.61
759.504	85.27
759.683	83.25
759.863	81.51
760.043	82.92
760.222	82.91
760.402	81.58
760.581	83.14
760.761	83.87
760.94	83.47
761.12	83.35
761.299	84.23
761.479	84.07
761.658	83.24
761.838	83.55
762.017	83.72
762.197	81.68
762.376	80.76
762.555	80.12
762.735	79.44
762.914	78.83
763.093	80.25
763.273	80.43
763.452	79.97
763.631	78.5
763.81	78.54
763.99	78.93
764.169	78.98
764.348	79.96
764.527	80.72
764.706	80.87
764.885	81.33
765.064	82.2
765.243	83.2
765.423	83.63
765.602	82.29
765.781	80.77
765.96	79.66
766.139	77.69
766.318	77.65
766.497	79.33
766.676	80.57
766.854	80.68
767.033	81.69
767.212	82.41
767.391	81.41
767.57	83.15
767.749	82.55
767.928	83.09
768.106	80.55
768.285	82.1
768.464	79.88
768.643	79.15
768.821	78.68
769	81.13
769.179	80.52
769.357	80.74
769.536	81.22
769.715	78.67
769.893	78.62
770.072	77.69
770.25	75.97
770.429	75.86
770.607	77.62
770.786	76.8
770.964	77.3
771.143	79.44
771.321	77.74
771.5	78.8
771.678	78.43
771.857	77.11
772.035	76.16
772.213	77.61
772.392	76.2
772.57	75.79
772.748	75.81
772.927	75.6
773.105	75.51
773.283	76.07
773.461	77.09
773.64	78.77
773.818	79.34
773.996	82.07
774.174	82.6
774.352	81.61
774.531	78.91
774.709	78.54
774.887	73.44
775.065	73.49
775.243	73.45
775.421	75.23
775.599	76.27
775.777	77.77
775.955	75.85
776.133	76.73
776.311	75.27
776.489	75.26
776.667	75.14
776.844	75.63
777.022	74.47
777.2	74.95
777.378	72.12
777.556	74.12
777.734	75.42
777.911	78.16
778.089	80.74
778.267	81.33
778.445	82.02
778.622	80.08
778.8	76.73
778.978	73.8
779.155	76.89
779.333	77.75
779.511	77.5
779.688	77.8
779.866	78.48
780.043	77.15
780.221	75.83
780.398	76.52
780.576	78.11
780.753	78.82
780.931	77.89
781.108	77.08
781.286	78.93
781.463	78.41
781.64	77.78
781.818	80.21
781.995	79.01
782.172	76.21
782.35	74.1
782.527	74.23
782.704	71.82
782.882	70.84
783.059	71.27
783.236	73.1
783.413	74.09
783.59	71.63
783.768	72.21
783.945	72.34
784.122	71.93
784.299	71.17
784.476	70.75
784.653	70.67
784.83	68.96
785.007	66.63
785.184	66.96
785.361	69.41
785.538	69.09
785.715	73.1
785.892	74.44
786.069	73.2
786.246	72.4
786.423	73.98
786.6	74.27
786.776	73.5
786.953	71.78
787.13	74.02
787.307	73.37
787.484	69.58
787.66	70.44
787.837	72.06
788.014	72.81
788.191	70.74
788.367	69.51
788.544	69.33
788.721	70.28
788.897	68.68
789.074	73.41
789.25	74.85
789.427	75
789.603	71.63
789.78	69.19
789.956	64.02
790.133	61.48
790.309	62.11
790.486	62.24
790.662	63.87
790.839	66.83
791.015	70.55
791.192	69.83
791.368	72.72
791.544	74.34
791.721	74.2
791.897	74.39
792.073	73.09
792.249	69.2
792.426	66.99
792.602	65.27
792.778	63.78
792.954	65.59
793.13	67.26
793.307	72.03
793.483	70.92
793.659	70.37
793.835	72.78
794.011	77.52
794.187	74.46
794.363	75.32
794.539	77.11
794.715	72.01
794.891	67.48
795.067	65.67
795.243	66.41
795.419	62.36
795.595	67.33
795.771	67.3
795.947	68.75
796.122	65.58
796.298	68.33
796.474	70.19
796.65	71.43
796.826	69.92
797.001	72.44
797.177	68.11
797.353	63.44
797.529	62.89
797.704	65.47
797.88	65.03
798.056	67.89
798.231	68.24
798.407	70.18
798.582	68.23
798.758	69.31
798.934	73
799.109	70.5
799.285	68.17
799.46	66.22
799.636	66.11
799.811	65.92
799.986	63.9
800.162	58.01
800.337	59.81
800.513	58.14
800.688	52.8
800.863	56.83
801.039	62.74
801.214	59.76
801.389	59.19
801.565	60.37
801.74	57.68
801.915	59.95
802.09	60.33
802.265	63.26
802.441	61.58
802.616	63.03
802.791	61.64
802.966	60.66
803.141	60.85
803.316	63.77
803.491	64.28
803.666	66.45
803.841	71.16
804.016	66.39
804.191	69.54
804.366	72.6
804.541	73.66
804.716	62.54
804.891	67.16
805.066	66.56
805.241	62.03
805.416	65.01
805.591	71.74
805.765	81.41
805.94	75.33
806.115	74.95
806.29	74.3
806.464	71.85
806.639	63.9
806.814	66.97
806.989	70.7
807.163	74.59
807.338	79.95
807.512	77.55
807.687	77.3
807.862	79.91
808.036	72.35
808.211	68.09
808.385	69.89
808.56	68.68
808.734	68.12
808.909	69.06
809.083	74.47
809.258	77.3
809.432	82.92
809.606	81.5
809.781	73.39
809.955	70.57
810.13	65.04
810.304	60.56
810.478	59.11
810.652	65.17
810.827	66.18
811.001	63.39
811.175	63.81
811.349	65.95
811.524	70.8
811.698	66.38
811.872	73.08
812.046	71.08
812.22	70.89
812.394	63.14
812.568	64.42
812.742	59.37
812.916	68.25
813.09	62.9
813.264	60.98
813.438	60.01
813.612	63.58
813.786	59.58
813.96	70
814.134	74.11
814.308	79.42
814.482	83.65
814.656	81.92
814.83	72.15
815.003	65.42
815.177	67.27
815.351	69.69
815.525	72.09
815.698	72.69
815.872	70.38
816.046	56.41
816.219	46.78
816.393	38.62
816.567	38.38
816.74	41.96
816.914	51.54
817.088	53.78
817.261	56.74
817.435	57.5
817.608	50.62
817.782	46.71
817.955	41.26
818.129	38.59
818.302	43.77
818.475	54.48
818.649	56.97
818.822	56.78
818.996	75.23
819.169	73.47
819.342	72.21
819.516	75.2
819.689	77.43
819.862	63.21
820.035	63.89
820.209	62.31
820.382	54.9
820.555	58.16
820.728	53.23
820.901	48.14
821.075	44.96
821.248	59.42
821.421	54.43
821.594	59.29
821.767	65.54
821.94	60.25
822.113	58.09
822.286	57.79
822.459	61.46
822.632	56.84
822.805	58.18
822.978	52.92
823.151	47.9
823.324	45.71
823.496	41.79
823.669	53.03
823.842	67.06
824.015	68.35
824.188	68.1
824.361	76
824.533	60.97
824.706	51.5
824.879	62.82
825.051	71.07
825.224	65.49
825.397	61.74
825.569	59.34
825.742	60.67
825.915	50.99
826.087	48.48
826.26	59.06
826.432	49.73
826.605	45.52
826.777	58.71
826.95	58.71
827.122	55.54
827.295	80.93
827.467	65.42
827.64	53.57
827.812	51
827.984	42.71
828.157	37.72
828.329	65.84
828.501	53.6
828.674	64.32
828.846	69.71
829.018	56.49
829.19	47.56
829.363	46.66
829.535	39.58
829.707	35.41
829.879	38.53
830.051	46.85
830.223	59.34
830.395	55.36
830.568	50.39
830.74	47.02
830.912	34.62
831.084	26.55
831.256	17.31
831.428	23.39
831.6	22.27
831.772	26.86
831.943	23.98
832.115	55.47
832.287	61.69
832.459	64.49
832.631	71.21
832.803	68.54
832.975	68.69
833.146	64.09
833.318	66.8
833.49	60.85
833.662	82.34
833.833	67.91
834.005	68.69
834.177	63.16
834.348	54.39
834.52	46.21
834.692	42.09
834.863	41.77
835.035	40.88
835.206	39.19
835.378	38.18
835.549	40.39
835.721	41
835.892	53.82
836.064	60.67
836.235	66.94
836.407	67.48
836.578	69.02
836.749	45.88
836.921	48.87
837.092	34.33
837.264	28.01
837.435	16.78
837.606	19.36
837.777	20.88
837.949	31.64
838.12	33.81
838.291	42.59
838.462	50.42
838.633	45.13
838.805	41.62
838.976	38.34
839.147	34.87
839.318	30.72
839.489	16.3
839.66	30.99
839.831	34.07
840.002	35.83
840.173	38.85
840.344	53.9
840.515	43.49
840.686	46.23
840.857	40.39
841.028	50.73
841.199	49.35
841.369	52.25
841.54	40.05
841.711	58.29
841.882	39.02
842.053	41.51
842.223	47.01
842.394	54.33
842.565	45.32
842.736	48.61
842.906	43.16
843.077	39.05
843.248	59.52
843.418	58.44
843.589	45.91
843.759	58.34
843.93	61.84
844.101	39.13
844.271	64.6
844.442	77.48
844.612	68.14
844.783	55.84
844.953	57.58
845.123	37.3
845.294	46.44
845.464	35.57
845.635	37.21
845.805	43.7
845.975	14.17
846.146	-21.1
846.316	9.58
846.486	30.14
846.656	8.14
846.827	37.82
846.997	75.24
847.167	60.17
847.337	49.17
847.507	56.61
847.677	41.45
847.848	25.66
848.018	37.58
848.188	43.36
848.358	40.24
848.528	41.22
848.698	36.24
848.868	20.85
849.038	7
849.208	21.9
849.378	41.69
849.548	14.24
849.718	25.29
849.887	43.16
850.057	-7.42
850.227	-6.66
850.397	38.29
850.567	0.73
850.737	32.64
850.906	41.28
851.076	19.58
851.246	23.49
851.415	43.12
851.585	27.17
851.755	32.78
851.924	50.8
852.094	62.5
852.264	62.33
852.433	35.62
852.603	20.07
852.772	40.06
852.942	42.38
853.111	39.94
853.281	66.12
853.45	68.68
853.62	38.13
853.789	17.13
853.959	26.02
854.128	15.46
854.297	20
854.467	42.78
854.636	41.73
854.805	33.99
854.975	24.58
855.144	25.41
855.313	35.27
855.482	35.62
855.652	45.2
855.821	55.17
855.99	64.74
856.159	38.3
856.328	56.46
856.497	58.88
856.667	57.23
856.836	67.54
857.005	59.18
857.174	64.06
857.343	55.91
857.512	65.5
857.681	29.64
857.85	27.05
858.019	3.48
858.188	-30.51
858.356	-12.67
858.525	28.53
858.694	66.41
858.863	40.98
859.032	54.64
859.201	30.88
859.369	-11.98
859.538	-12.97
859.707	-17.62
859.876	-12.58
860.044	15.73
860.213	42.11
860.382	39.53
860.55	48.33
860.719	60.53
860.888	51.1
861.056	35.39
861.225	7.6
861.393	16.14
861.562	7.41
861.73	15.54
861.899	5.59
862.067	1.09
862.236	-24.72
862.404	-11.93
862.572	-4.97
862.741	-2.18
862.909	14.75
863.078	45.37
863.246	8.61
863.414	9.4
863.582	9.33
863.751	12.29
863.919	10.11
864.087	47.89
864.255	29.84
864.424	8.36
864.592	14.9
864.76	10.38
864.928	14.55
865.096	31.43
865.264	47.78
865.432	58.11
865.6	83.41
865.768	71.33
865.936	74.22
866.104	71.1
866.272	50.61
866.44	-19.24
866.608	-20.23
866.776	-23.11
866.944	8.73
867.112	17.7
867.28	35.81
867.448	40.21
867.615	46.86
867.783	16.64
867.951	25.5
868.119	9.18
868.286	15.62
868.454	13.13
868.622	25.32
868.789	43.63
868.957	63.17
869.125	68.65
869.292	49.48
869.46	61.32
869.627	75.54
869.795	32.04
869.963	69.47
870.13	66.93
870.298	42.13
870.465	12.33
870.632	28.4
870.8	-15.55
870.967	8.69
871.135	17.67
871.302	34.97
871.469	37.47
871.637	60.35
871.804	60.97
871.971	45.17
872.139	28.13
872.306	32.17
872.473	-14.53
872.64	-103.51
872.807	-137.11
872.975	-343.73
873.142	-99.24
873.309	-39.2
873.476	7.21
873.643	15.23
873.81	9.21
873.977	-18.81
874.144	-18.19
874.311	-95
874.478	-59.31
874.645	-65.82
874.812	17.31
874.979	29.2
875.146	62.19
875.313	15.95
875.48	44.26
875.647	-21.95
875.813	-37.04
875.98	-22.23
876.147	-94.57
876.314	-66.77
876.481	-17.37
876.647	-30.62
876.814	-7.22
876.981	22.3
877.147	16.01
877.314	30.58
877.481	61.22
877.647	45.26
877.814	64.61
877.98	90.57
878.147	90.65
878.314	94.33
878.48	81.38
878.647	68.73
878.813	57.58
878.979	38.99
879.146	31.63
879.312	64.29
879.479	24.49
879.645	21.36
879.811	2.9
879.978	9.05
880.144	2.24
880.31	9.68
880.477	26.74
880.643	25.46
880.809	-16.98
880.975	-42.58
881.142	-46.29
881.308	344.95
881.474	618.2
881.64	-93.26
881.806	-17.04
881.972	0.83
882.138	27.2
882.304	62.96
882.47	52.4
882.636	3.12
882.802	4.79
882.968	-24.24
883.134	-32.23
883.3	-53.39
883.466	-51.78
883.632	-78.18
883.798	-114.85
883.964	-113.15
884.129	-165.5
884.295	24.69
884.461	-91.18
884.627	-30.78
884.793	-31
884.958	-3.39
885.124	-16.17
885.29	24.95
885.455	12.87
885.621	14.94
885.787	14.21
885.952	-23.68
886.118	-6.25
886.283	8.52
886.449	-0.54
886.614	-13.84
886.78	31.73
886.945	27.54
887.111	22.55
887.276	22.68
887.442	4.06
887.607	14.83
887.773	51.79
887.938	24.62
888.103	31.12
888.269	51.06
888.434	41.99
888.599	20.95
888.764	33.21
888.93	38.66
889.095	32.29
889.26	25.6
889.425	13.2
889.59	23.18
889.756	-3.37
889.921	-35.33
890.086	-78.52
890.251	99.39
890.416	42.11
890.581	22.26
890.746	102.01
890.911	55.02
891.076	0.38
891.241	5.56
891.406	39.06
891.571	-7.24
891.736	-133.12
891.901	9.03
892.065	23.93
892.23	10.63
892.395	-16.09
892.56	11.92
892.725	85.76
892.889	127.99
893.054	26.72
893.219	61.47
893.384	130.47
893.548	25.1
893.713	4.06
893.878	71.75
