Data from Ofra_1a_PS_9CX6_Reflection_3.txt Node
Date: Tue Jul 20 11:05:58 EDT 2021
User: Adam
Spectrometer: FLMT01687
Trigger mode: 0
Integration Time (sec): 1.004000E0
Scans to average: 2
Electric dark correction enabled: true
Nonlinearity correction enabled: false
Boxcar width: 2
XAxis mode: Wavelengths
Number of Pixels in Spectrum: 3648
>>>>>Begin Spectral Data<<<<<
179.494	-147.72
179.716	-254.2
179.937	775.59
180.158	-827.39
180.38	134.28
180.601	40.99
180.823	-39.55
181.044	-121.16
181.265	-70.88
181.486	81.09
181.708	-36.59
181.929	9627.27
182.15	-47.81
182.372	403.45
182.593	214.76
182.814	-206.28
183.035	-31.97
183.257	-29.33
183.478	-36.59
183.699	-63.29
183.92	-72.33
184.141	-76.74
184.363	-52.3
184.584	-39.26
184.805	0.74
185.026	17.62
185.247	2.11
185.468	-7.9
185.689	5.34
185.91	-23.46
186.132	6.13
186.353	19.71
186.574	17.37
186.795	12.75
187.016	37.22
187.237	19.7
187.458	7.21
187.679	14.16
187.9	31.52
188.121	31.54
188.342	53.76
188.563	65.16
188.784	60.19
189.005	46.58
189.226	54.65
189.447	43.33
189.667	21.24
189.888	0.77
190.109	-19.02
190.33	-20.29
190.551	-8.58
190.772	12.89
190.993	28.09
191.214	22.32
191.434	1.91
191.655	13.21
191.876	32.79
192.097	27.54
192.318	36.01
192.538	4.21
192.759	-17.96
192.98	-12.37
193.201	-15.93
193.421	-3.11
193.642	16.93
193.863	16.68
194.083	21.57
194.304	32.36
194.525	10.82
194.745	-1.45
194.966	3.4
195.187	-0.04
195.407	7.27
195.628	4.78
195.848	16.15
196.069	23.89
196.29	12.25
196.51	-6.86
196.731	-19.48
196.951	-35.32
197.172	-35.03
197.392	-45.42
197.613	-2.77
197.833	5.8
198.054	7.37
198.274	27.83
198.495	48.74
198.715	23.11
198.936	37.14
199.156	31.98
199.377	9.78
199.597	5.12
199.817	5.16
200.038	-14.07
200.258	25.1
200.479	26.4
200.699	41.04
200.919	45.52
201.14	29.83
201.36	6.72
201.58	9.73
201.801	4.94
202.021	3.12
202.241	17.81
202.461	23.91
202.682	27.39
202.902	21.54
203.122	24.09
203.342	14.08
203.563	0.15
203.783	-15.52
204.003	-15.67
204.223	2.89
204.443	28.4
204.663	49.39
204.884	78.3
205.104	70.81
205.324	31.22
205.544	-9.29
205.764	-8.62
205.984	-35.79
206.204	-35.83
206.424	-33.4
206.644	-35.17
206.864	-43.39
207.084	-0.48
207.304	-0.87
207.525	15.55
207.745	35.66
207.964	38.72
208.184	30.86
208.404	21.34
208.624	20.75
208.844	10.94
209.064	-1.32
209.284	7.91
209.504	10.5
209.724	26.79
209.944	28.7
210.164	34.98
210.384	19.08
210.604	-12.2
210.823	-79.14
211.043	-71.12
211.263	-137.25
211.483	-45.95
211.703	-32.54
211.922	-1.75
212.142	13.34
212.362	21.26
212.582	6.91
212.801	22.31
213.021	-25.4
213.241	-30.61
213.461	-10.8
213.68	1.29
213.9	-4.78
214.12	10.58
214.339	13.52
214.559	10.05
214.779	14.29
214.998	20.43
215.218	25.32
215.438	23.1
215.657	3.18
215.877	-25.15
216.096	-6.43
216.316	-9.21
216.535	-10.07
216.755	0.31
216.974	1.68
217.194	-20.48
217.413	-23.91
217.633	-34.61
217.852	-16.62
218.072	-8.93
218.291	-2.74
218.511	6.68
218.73	-2.83
218.95	-38.92
219.169	-36.19
219.389	-25.81
219.608	-49.27
219.827	-16.79
220.047	0.71
220.266	-20.54
220.485	-37.18
220.705	-13.59
220.924	-71.96
221.143	-13.46
221.363	22.48
221.582	42.86
221.801	39.77
222.021	54.1
222.24	35.49
222.459	23.9
222.678	11.09
222.897	5.02
223.117	11.3
223.336	13.28
223.555	28.34
223.774	35.69
223.993	54.62
224.213	60.14
224.432	62.19
224.651	37.26
224.87	43.67
225.089	43.72
225.308	38.04
225.527	33.77
225.746	30.05
225.965	22.03
226.184	2.06
226.404	4.24
226.623	-4.23
226.842	-5.13
227.061	2.77
227.28	15.71
227.499	13.46
227.718	16.01
227.936	22.89
228.155	22.36
228.374	21.28
228.593	36.39
228.812	32.09
229.031	40.18
229.25	31.88
229.469	36.9
229.688	29.39
229.907	31.01
230.125	28.67
230.344	17.97
230.563	13.4
230.782	10.71
231.001	14.03
231.22	33.1
231.438	44.59
231.657	44.88
231.876	31.84
232.095	40.28
232.313	15.05
232.532	-3.76
232.751	-11.97
232.969	-9.21
233.188	-20.01
233.407	0.96
233.625	17.29
233.844	26.51
234.063	30.54
234.281	28.55
234.5	19.96
234.719	17.63
234.937	1.4
235.156	-2.44
235.374	1.35
235.593	18.03
235.811	45.3
236.03	37.58
236.249	36.16
236.467	44.36
236.686	30.04
236.904	16.92
237.123	24.32
237.341	23.46
237.559	13.93
237.778	53.58
237.996	28.2
238.215	15.34
238.433	-19.92
238.652	-9.66
238.87	-67.48
239.088	-46.31
239.307	-26.31
239.525	-15.24
239.743	-7.07
239.962	-6.91
240.18	-16.98
240.398	-9.05
240.617	-15.04
240.835	-50.63
241.053	-37.29
241.271	-18.57
241.49	-13.58
241.708	-6.92
241.926	-3.96
242.144	8.85
242.363	2.4
242.581	-25.81
242.799	-53.31
243.017	-20.85
243.235	-28.06
243.453	-35.38
243.672	-38.36
243.89	-24.5
244.108	-13.14
244.326	21.93
244.544	34.01
244.762	29.71
244.98	36.76
245.198	30.99
245.416	19.24
245.634	15.05
245.852	2.94
246.07	14.8
246.288	5.22
246.506	-19.61
246.724	-17.27
246.942	1.51
247.16	-1.75
247.378	-24.29
247.596	0.78
247.814	-39.58
248.032	-48.04
248.25	-15.41
248.468	12.75
248.685	14.69
248.903	18.7
249.121	28.97
249.339	15.82
249.557	21.29
249.775	29.41
249.992	29.9
250.21	17.94
250.428	30.91
250.646	29.61
250.863	21.55
251.081	32.66
251.299	46.31
251.517	33.03
251.734	18.98
251.952	12.13
252.17	-3.03
252.387	-24.7
252.605	-19.32
252.823	-25.58
253.04	1.9
253.258	9.78
253.475	32.34
253.693	28.78
253.911	34.7
254.128	29.42
254.346	42.83
254.563	42.88
254.781	54.29
254.998	47.12
255.216	25.45
255.433	-10.77
255.651	0.19
255.868	-11.74
256.086	-8.99
256.303	9.26
256.521	33.06
256.738	19.77
256.956	11.85
257.173	8.75
257.39	10.96
257.608	-1.45
257.825	6.83
258.043	29.05
258.26	36.31
258.477	33.94
258.695	38.17
258.912	17.71
259.129	2.04
259.346	-14.89
259.564	-3.77
259.781	-25.07
259.998	20.16
260.216	23.18
260.433	15.86
260.65	9.02
260.867	16.42
261.084	-3.87
261.302	-12.82
261.519	18.1
261.736	4.47
261.953	11.12
262.17	20.32
262.387	16.85
262.604	7.56
262.822	27.98
263.039	20.22
263.256	11.9
263.473	12.53
263.69	5.89
263.907	-1.51
264.124	-0.59
264.341	1.09
264.558	3.43
264.775	13.21
264.992	8.39
265.209	3.01
265.426	17.56
265.643	13.83
265.86	-14.87
266.077	-25.83
266.294	-4.29
266.51	5.93
266.727	-7.25
266.944	22.36
267.161	31.96
267.378	41.04
267.595	29.1
267.812	20.13
268.028	2.24
268.245	-3.73
268.462	-18.71
268.679	10.44
268.896	22.88
269.112	17.2
269.329	-8.35
269.546	8.4
269.763	-10.06
269.979	-8.18
270.196	10.87
270.413	12.42
270.629	-8.52
270.846	-0.97
271.063	2.56
271.279	-9.19
271.496	-2.91
271.712	6.02
271.929	2.24
272.146	2.93
272.362	14.73
272.579	16.79
272.795	20.64
273.012	26.97
273.228	28.34
273.445	15.64
273.661	10.75
273.878	-2.91
274.094	0.77
274.311	8.81
274.527	-0.31
274.744	25.28
274.96	30.02
275.177	28.41
275.393	29.55
275.609	38.98
275.826	34.14
276.042	21.3
276.259	21.44
276.475	19.86
276.691	16.22
276.908	5.89
277.124	26.38
277.34	33.13
277.557	15.39
277.773	22.73
277.989	27.19
278.205	25.52
278.422	17.76
278.638	26.52
278.854	10.72
279.07	18.71
279.286	5.34
279.503	9.22
279.719	4.12
279.935	11.42
280.151	4.22
280.367	9.3
280.583	1.07
280.799	-2.16
281.016	-38.6
281.232	-39.18
281.448	-23.36
281.664	-4.35
281.88	-11.1
282.096	2.67
282.312	1.33
282.528	-8.87
282.744	-23.87
282.96	-41.55
283.176	-63.8
283.392	-105.52
283.608	-85.46
283.824	-97.03
284.04	-106.55
284.256	-35.78
284.471	-16.43
284.687	-23.74
284.903	-6.67
285.119	12.39
285.335	8.53
285.551	21.44
285.767	34.21
285.982	21.85
286.198	-12.46
286.414	25.48
286.63	7.29
286.846	-5.85
287.061	-22.26
287.277	14.51
287.493	-28.45
287.709	-33.22
287.924	-9.59
288.14	6.49
288.356	9.45
288.571	18.87
288.787	17.15
289.003	14.98
289.218	9.08
289.434	5.57
289.65	19.96
289.865	12.88
290.081	28.36
290.296	31.55
290.512	24.9
290.727	5.68
290.943	19.8
291.159	10.29
291.374	-10.41
291.59	1.01
291.805	7.03
292.021	3.9
292.236	-17.08
292.451	10.44
292.667	15.09
292.882	21.69
293.098	22.21
293.313	15.83
293.529	15.07
293.744	-0.55
293.959	0.5
294.175	-6.78
294.39	5.36
294.605	12.31
294.821	18.7
295.036	9.04
295.251	11.05
295.467	4.81
295.682	0.93
295.897	-5.23
296.112	-12.01
296.328	-2.84
296.543	-6.43
296.758	-5.94
296.973	9.76
297.188	20.07
297.404	3.63
297.619	6.35
297.834	-10.31
298.049	-25.24
298.264	-13.03
298.479	8.94
298.694	17.15
298.909	29.78
299.125	35.83
299.34	36.28
299.555	35.02
299.77	51.26
299.985	30.13
300.2	26.32
300.415	23.6
300.63	24.11
300.845	4.77
301.06	9.48
301.275	0.79
301.49	1.55
301.704	-2.24
301.919	-6.85
302.134	-0.57
302.349	8.41
302.564	3.01
302.779	-4.48
302.994	10.1
303.209	12.67
303.423	3.86
303.638	20.37
303.853	12.55
304.068	-1.42
304.283	0.57
304.497	-0.06
304.712	-9.3
304.927	-1.28
305.142	0.1
305.356	4.69
305.571	15.17
305.786	10.72
306	25.72
306.215	24.56
306.43	9.42
306.644	-8.15
306.859	-8.89
307.074	-3.01
307.288	12.06
307.503	17.01
307.717	19.17
307.932	37.38
308.147	29.53
308.361	26.89
308.576	15.72
308.79	15.03
309.005	-12.5
309.219	5.05
309.434	14.02
309.648	19.02
309.863	6.27
310.077	3.97
310.292	10.31
310.506	-11.58
310.72	-8.33
310.935	21.04
311.149	10.36
311.364	-9.17
311.578	3.55
311.792	4.73
312.007	-24.69
312.221	-22.88
312.435	-13.92
312.649	-0.21
312.864	-27.14
313.078	-20.18
313.292	-8.27
313.507	-5.74
313.721	-7.6
313.935	16.28
314.149	27.47
314.363	25.89
314.578	29.06
314.792	14.07
315.006	12
315.22	10.24
315.434	16.36
315.648	1.57
315.862	-6.31
316.077	-12.85
316.291	-10.43
316.505	-35.72
316.719	-6.8
316.933	7.03
317.147	11.46
317.361	1.21
317.575	5.52
317.789	4.09
318.003	-8.15
318.217	9.92
318.431	6.82
318.645	7.37
318.859	2.97
319.073	20.37
319.287	1.28
319.5	-1.01
319.714	-0.15
319.928	8.51
320.142	4.2
320.356	23.76
320.57	11.72
320.784	1.29
320.997	-25.79
321.211	-0.04
321.425	-12.58
321.639	18.65
321.853	34.04
322.066	33.2
322.28	23.38
322.494	18.87
322.707	9.52
322.921	0.58
323.135	8.1
323.349	4.65
323.562	12.5
323.776	22
323.989	35.94
324.203	10.46
324.417	7.6
324.63	-17.85
324.844	-37.89
325.057	-70.49
325.271	-30.91
325.485	-35.5
325.698	-3.79
325.912	14.33
326.125	18.47
326.339	31.36
326.552	20.72
326.766	13.58
326.979	17.26
327.193	10.7
327.406	-9.5
327.619	11
327.833	17.48
328.046	13.92
328.26	7.42
328.473	9.49
328.686	9.03
328.9	18.87
329.113	21.23
329.326	26.51
329.54	42.04
329.753	38.83
329.966	35.31
330.179	29.83
330.393	25.88
330.606	5.96
330.819	-5.71
331.032	-9.06
331.246	1.38
331.459	16.94
331.672	28.07
331.885	31.22
332.098	42.75
332.311	28.98
332.525	11.97
332.738	1.61
332.951	1.3
333.164	0.97
333.377	3.78
333.59	6.88
333.803	25.55
334.016	34.74
334.229	28.31
334.442	29.71
334.655	40.62
334.868	18.53
335.081	-2.76
335.294	-15.24
335.507	8.62
335.72	-0.64
335.933	11.73
336.146	15.1
336.359	27.88
336.572	11.67
336.785	2.89
336.997	6.92
337.21	29.85
337.423	5.37
337.636	1.06
337.849	4.74
338.062	-4.99
338.274	5.02
338.487	-3.21
338.7	-14.79
338.913	-6.42
339.125	-21.84
339.338	-36.28
339.551	-19.87
339.763	-11.71
339.976	-9.67
340.189	-6.47
340.402	18.05
340.614	19.53
340.827	17.92
341.039	9.36
341.252	21.21
341.465	-17.19
341.677	-25.78
341.89	-35.18
342.102	-21.75
342.315	-20.13
342.527	21.16
342.74	9.17
342.952	11.58
343.165	7.98
343.377	2.21
343.59	-25.12
343.802	-9.02
344.015	12.06
344.227	2.88
344.44	-7.93
344.652	1.82
344.864	9.71
345.077	8.04
345.289	16.87
345.502	28.62
345.714	19.66
345.926	11.4
346.139	0.14
346.351	0.33
346.563	2.94
346.775	18.76
346.988	30.25
347.2	22.84
347.412	29.92
347.624	27.3
347.837	29.12
348.049	27.2
348.261	22.52
348.473	1.01
348.685	2.42
348.897	1.04
349.11	8.4
349.322	17.05
349.534	32.53
349.746	30.19
349.958	15.86
350.17	-23.77
350.382	-16.88
350.594	-3.61
350.806	6.42
351.018	15.86
351.23	41.36
351.442	41.94
351.654	33.78
351.866	24.62
352.078	28.63
352.29	15.16
352.502	9.91
352.714	2.42
352.926	3.05
353.138	4.64
353.35	-6.87
353.561	-4.42
353.773	-4.96
353.985	8.43
354.197	-0.14
354.409	8.26
354.621	-6.11
354.832	10.58
355.044	-13.6
355.256	-12.34
355.468	-14.04
355.679	18.81
355.891	8.68
356.103	8.97
356.314	10.63
356.526	6.38
356.738	-16.73
356.949	-8.31
357.161	17.68
357.373	22.84
357.584	28.09
357.796	37.58
358.008	34.66
358.219	26.9
358.431	17.19
358.642	14.21
358.854	14.29
359.065	1.32
359.277	0.53
359.488	-0.39
359.7	-2.15
359.911	-18.83
360.123	1.25
360.334	-2.39
360.546	-8.22
360.757	-3.32
360.969	0.65
361.18	-11.02
361.391	-5.31
361.603	0.11
361.814	-1.54
362.025	15.24
362.237	13.27
362.448	10.19
362.659	2.95
362.871	-4.91
363.082	-23.42
363.293	-22.79
363.504	-41.69
363.716	-25.78
363.927	-3.75
364.138	-12.8
364.349	-29.62
364.56	-32.6
364.772	-13.77
364.983	-9.65
365.194	-5.73
365.405	9.12
365.616	22.49
365.827	11.64
366.038	11.16
366.25	19.59
366.461	10.42
366.672	16.31
366.883	15.26
367.094	9.61
367.305	-11.55
367.516	-2.46
367.727	-15.43
367.938	-24.52
368.149	-34.42
368.36	-16.43
368.571	-28.38
368.781	-43.1
368.992	-31.49
369.203	-19.64
369.414	-19.63
369.625	-12.63
369.836	17.46
370.047	17.29
370.258	18.57
370.468	8.25
370.679	5.81
370.89	-20.7
371.101	-5.07
371.312	-7.36
371.522	-1.4
371.733	-4.21
371.944	-13.64
372.155	-20.13
372.365	-19.72
372.576	-14.43
372.787	-3.74
372.997	7.63
373.208	13
373.419	15.3
373.629	-6.77
373.84	-16.4
374.05	-19.28
374.261	-38.74
374.472	-30.78
374.682	-6.7
374.893	-10.45
375.103	13.47
375.314	22.89
375.524	18.85
375.735	23.82
375.945	29.87
376.156	17.9
376.366	12.64
376.577	6.83
376.787	-0.47
376.997	-0.45
377.208	2.5
377.418	-0.6
377.629	3.4
377.839	4.25
378.049	1.48
378.26	-13.57
378.47	-12.99
378.68	-18.6
378.89	-13.4
379.101	-13.16
379.311	-1.41
379.521	-0.43
379.732	8.55
379.942	4.41
380.152	0.52
380.362	4.34
380.572	12.44
380.783	19.14
380.993	21.08
381.203	21.83
381.413	24.27
381.623	17.63
381.833	16.61
382.043	11.74
382.253	24.11
382.463	24.43
382.674	21.42
382.884	21.95
383.094	22.4
383.304	17.69
383.514	17.11
383.724	16.42
383.934	2.45
384.144	5.57
384.353	5.06
384.563	3.27
384.773	11.96
384.983	18.03
385.193	15.6
385.403	11.63
385.613	19.63
385.823	12.15
386.033	9.72
386.242	5.42
386.452	4.91
386.662	-2.08
386.872	2.74
387.082	1.51
387.291	1.74
387.501	7.57
387.711	3.52
387.921	-0.8
388.13	1.55
388.34	4.78
388.55	-2.82
388.759	-8.99
388.969	-8.86
389.179	-8.06
389.388	-13.28
389.598	-10.21
389.807	-11.23
390.017	-8.31
390.227	-12.55
390.436	-6.21
390.646	-2.34
390.855	3.05
391.065	0.87
391.274	3.99
391.484	1.2
391.693	-0.41
391.903	-0.44
392.112	0.8
392.322	-1.21
392.531	0.05
392.74	-1.63
392.95	-1.97
393.159	-1.04
393.369	-0.37
393.578	-0.33
393.787	0.01
393.997	0.88
394.206	-0.48
394.415	0.59
394.625	-0.69
394.834	-1.56
395.043	-1.04
395.252	1.09
395.462	2.28
395.671	2.98
395.88	5.02
396.089	4.66
396.298	3.77
396.508	3.49
396.717	2.89
396.926	2.18
397.135	2.02
397.344	1.37
397.553	0.51
397.762	1.82
397.971	1.68
398.181	1.63
398.39	1.8
398.599	2.31
398.808	2.11
399.017	2.88
399.226	3.09
399.435	3.45
399.644	3.37
399.853	3.09
400.062	2.63
400.27	2.53
400.479	2.44
400.688	2.33
400.897	2.31
401.106	2.27
401.315	2.19
401.524	2.23
401.733	1.81
401.941	1.5
402.15	1.29
402.359	1.47
402.568	1.4
402.777	1.85
402.985	2.19
403.194	2.16
403.403	2.18
403.612	2.22
403.82	1.94
404.029	1.89
404.238	2.04
404.446	2.21
404.655	2.25
404.864	2.31
405.072	2.38
405.281	2.42
405.489	2.18
405.698	2.35
405.906	2.37
406.115	2.2
406.324	2.29
406.532	2.41
406.741	2.24
406.949	2.36
407.158	2.61
407.366	2.45
407.574	2.46
407.783	2.49
407.991	2.51
408.2	2.53
408.408	2.5
408.617	2.4
408.825	2.33
409.033	2.29
409.242	2.24
409.45	2.31
409.658	2.25
409.867	2.28
410.075	2.28
410.283	2.14
410.491	1.97
410.7	1.92
410.908	1.97
411.116	2
411.324	1.96
411.533	2.11
411.741	2.32
411.949	2.28
412.157	2.12
412.365	2.3
412.573	2.17
412.781	2.07
412.99	1.99
413.198	2.1
413.406	2.07
413.614	2.27
413.822	2.41
414.03	2.58
414.238	2.48
414.446	2.47
414.654	2.35
414.862	2.09
415.07	1.84
415.278	2
415.486	1.8
415.694	1.86
415.902	1.97
416.109	1.92
416.317	1.83
416.525	1.87
416.733	1.77
416.941	1.8
417.149	1.9
417.357	1.89
417.564	1.9
417.772	1.93
417.98	1.84
418.188	1.73
418.395	1.63
418.603	1.58
418.811	1.5
419.019	1.47
419.226	1.63
419.434	1.77
419.642	1.75
419.849	1.66
420.057	1.79
420.265	1.78
420.472	1.68
420.68	1.85
420.887	1.99
421.095	2.14
421.302	2.18
421.51	2.18
421.717	2.23
421.925	2.23
422.132	1.95
422.34	1.63
422.547	1.62
422.755	1.49
422.962	1.54
423.17	1.51
423.377	1.59
423.585	1.75
423.792	1.66
423.999	1.6
424.207	1.55
424.414	1.61
424.621	1.54
424.829	1.6
425.036	1.6
425.243	1.78
425.451	1.85
425.658	1.83
425.865	1.95
426.072	1.99
426.28	2.03
426.487	1.96
426.694	1.95
426.901	1.89
427.108	1.72
427.315	1.55
427.523	1.46
427.73	1.35
427.937	1.15
428.144	1.27
428.351	1.3
428.558	1.47
428.765	1.51
428.972	1.66
429.179	1.62
429.386	1.74
429.593	1.65
429.8	1.68
430.007	1.76
430.214	1.7
430.421	1.74
430.628	1.88
430.835	1.79
431.042	1.73
431.249	1.74
431.456	1.71
431.662	1.79
431.869	1.95
432.076	1.87
432.283	2.05
432.49	1.93
432.697	1.81
432.903	1.7
433.11	1.8
433.317	1.81
433.524	1.92
433.73	1.95
433.937	2.08
434.144	1.95
434.35	1.73
434.557	1.7
434.764	1.66
434.97	1.47
435.177	1.68
435.384	1.81
435.59	1.81
435.797	1.95
436.003	2.19
436.21	2.1
436.416	2.13
436.623	2.11
436.829	2.04
437.036	1.88
437.242	1.97
437.449	1.95
437.655	2.09
437.862	2.15
438.068	2.19
438.275	2.13
438.481	2.23
438.687	2.2
438.894	2.22
439.1	2.19
439.307	2.36
439.513	2.35
439.719	2.3
439.926	2.27
440.132	2.41
440.338	2.31
440.544	2.2
440.751	2.18
440.957	2.19
441.163	1.93
441.369	1.92
441.575	1.91
441.782	2.07
441.988	2.03
442.194	2.19
442.4	2.2
442.606	2.44
442.812	2.32
443.018	2.33
443.224	2.37
443.431	2.25
443.637	2.02
443.843	2
444.049	2.08
444.255	2.09
444.461	2.1
444.667	2.12
444.873	2.18
445.079	2.09
445.284	2.1
445.49	2.12
445.696	2.15
445.902	2.14
446.108	2.22
446.314	2.19
446.52	2.35
446.726	2.38
446.931	2.31
447.137	2.3
447.343	2.39
447.549	2.29
447.755	2.25
447.96	2.32
448.166	2.3
448.372	2.27
448.578	2.18
448.783	2.27
448.989	2.29
449.195	2.3
449.4	2.29
449.606	2.38
449.812	2.26
450.017	2.32
450.223	2.26
450.428	2.24
450.634	2.21
450.84	2.35
451.045	2.27
451.251	2.37
451.456	2.42
451.662	2.49
451.867	2.48
452.073	2.48
452.278	2.44
452.483	2.36
452.689	2.35
452.894	2.41
453.1	2.41
453.305	2.39
453.51	2.47
453.716	2.46
453.921	2.39
454.127	2.45
454.332	2.45
454.537	2.38
454.742	2.35
454.948	2.33
455.153	2.29
455.358	2.27
455.563	2.31
455.769	2.36
455.974	2.33
456.179	2.29
456.384	2.31
456.589	2.33
456.795	2.31
457	2.29
457.205	2.26
457.41	2.24
457.615	2.18
457.82	2.19
458.025	2.25
458.23	2.28
458.435	2.38
458.64	2.4
458.845	2.35
459.05	2.35
459.255	2.38
459.46	2.31
459.665	2.32
459.87	2.36
460.075	2.39
460.28	2.39
460.485	2.5
460.69	2.43
460.895	2.49
461.099	2.41
461.304	2.36
461.509	2.34
461.714	2.48
461.919	2.45
462.123	2.45
462.328	2.43
462.533	2.3
462.738	2.2
462.942	2.19
463.147	2.19
463.352	2.27
463.556	2.38
463.761	2.42
463.966	2.43
464.17	2.5
464.375	2.54
464.58	2.42
464.784	2.37
464.989	2.38
465.193	2.28
465.398	2.25
465.602	2.45
465.807	2.52
466.011	2.58
466.216	2.7
466.42	2.71
466.625	2.69
466.829	2.6
467.034	2.58
467.238	2.57
467.443	2.68
467.647	2.64
467.851	2.74
468.056	2.8
468.26	2.74
468.464	2.74
468.669	2.74
468.873	2.74
469.077	2.68
469.282	2.81
469.486	2.74
469.69	2.79
469.894	2.81
470.099	2.75
470.303	2.74
470.507	2.83
470.711	2.74
470.915	2.76
471.119	2.85
471.324	2.87
471.528	2.84
471.732	2.94
471.936	2.96
472.14	2.94
472.344	3.01
472.548	3.04
472.752	3.01
472.956	2.96
473.16	3
473.364	2.92
473.568	2.86
473.772	2.84
473.976	2.97
474.18	2.94
474.384	2.9
474.588	2.99
474.792	2.99
474.995	2.94
475.199	2.97
475.403	3
475.607	3.03
475.811	3.04
476.015	3.03
476.218	2.98
476.422	3.01
476.626	2.93
476.83	3
477.033	3
477.237	3.03
477.441	3.02
477.644	3.06
477.848	3.07
478.052	3.08
478.255	3.13
478.459	3.15
478.663	3.26
478.866	3.26
479.07	3.25
479.273	3.33
479.477	3.3
479.681	3.29
479.884	3.26
480.088	3.35
480.291	3.27
480.495	3.28
480.698	3.25
480.901	3.26
481.105	3.23
481.308	3.22
481.512	3.29
481.715	3.37
481.919	3.47
482.122	3.43
482.325	3.55
482.529	3.48
482.732	3.39
482.935	3.34
483.138	3.34
483.342	3.29
483.545	3.42
483.748	3.47
483.952	3.49
484.155	3.53
484.358	3.55
484.561	3.41
484.764	3.39
484.967	3.34
485.171	3.4
485.374	3.31
485.577	3.4
485.78	3.42
485.983	3.42
486.186	3.38
486.389	3.45
486.592	3.42
486.795	3.47
486.998	3.42
487.201	3.46
487.404	3.59
487.607	3.66
487.81	3.59
488.013	3.67
488.216	3.63
488.419	3.52
488.622	3.46
488.825	3.49
489.028	3.48
489.231	3.5
489.433	3.5
489.636	3.53
489.839	3.6
490.042	3.63
490.245	3.61
490.447	3.65
490.65	3.64
490.853	3.58
491.056	3.51
491.258	3.55
491.461	3.51
491.664	3.56
491.866	3.56
492.069	3.64
492.272	3.64
492.474	3.68
492.677	3.6
492.879	3.61
493.082	3.61
493.285	3.69
493.487	3.71
493.69	3.75
493.892	3.77
494.095	3.76
494.297	3.73
494.5	3.69
494.702	3.73
494.905	3.78
495.107	3.76
495.309	3.81
495.512	3.81
495.714	3.89
495.917	3.92
496.119	3.98
496.321	3.97
496.524	3.99
496.726	3.89
496.928	3.85
497.13	3.81
497.333	3.76
497.535	3.86
497.737	3.92
497.939	3.91
498.142	3.96
498.344	3.97
498.546	3.9
498.748	3.94
498.95	4.01
499.152	3.99
499.355	3.97
499.557	4.01
499.759	4.03
499.961	4.02
500.163	4.05
500.365	4.19
500.567	4.22
500.769	4.22
500.971	4.25
501.173	4.24
501.375	4.26
501.577	4.28
501.779	4.25
501.981	4.29
502.183	4.34
502.385	4.31
502.587	4.28
502.788	4.35
502.99	4.34
503.192	4.39
503.394	4.45
503.596	4.49
503.798	4.46
503.999	4.48
504.201	4.47
504.403	4.47
504.605	4.52
504.806	4.62
505.008	4.59
505.21	4.62
505.411	4.63
505.613	4.61
505.815	4.59
506.016	4.71
506.218	4.71
506.42	4.72
506.621	4.77
506.823	4.83
507.024	4.85
507.226	4.9
507.427	4.95
507.629	5
507.83	4.99
508.032	4.93
508.233	4.99
508.435	5.05
508.636	5.07
508.838	5.04
509.039	5.11
509.24	5.08
509.442	5.07
509.643	5.06
509.845	5.1
510.046	5.18
510.247	5.2
510.448	5.24
510.65	5.3
510.851	5.35
511.052	5.38
511.254	5.45
511.455	5.41
511.656	5.39
511.857	5.38
512.058	5.38
512.26	5.31
512.461	5.35
512.662	5.4
512.863	5.36
513.064	5.36
513.265	5.39
513.466	5.45
513.667	5.47
513.868	5.57
514.069	5.56
514.27	5.61
514.471	5.56
514.672	5.55
514.873	5.5
515.074	5.59
515.275	5.55
515.476	5.66
515.677	5.68
515.878	5.76
516.079	5.73
516.28	5.77
516.481	5.73
516.682	5.73
516.882	5.74
517.083	5.76
517.284	5.81
517.485	5.85
517.686	5.9
517.886	5.9
518.087	5.85
518.288	5.79
518.488	5.79
518.689	5.78
518.89	5.81
519.091	5.9
519.291	5.92
519.492	5.97
519.692	6.01
519.893	6.07
520.094	6.05
520.294	6.14
520.495	6.1
520.695	6.13
520.896	6.07
521.096	6.13
521.297	6.1
521.497	6.08
521.698	6.07
521.898	6.13
522.099	6.14
522.299	6.15
522.499	6.2
522.7	6.26
522.9	6.24
523.101	6.22
523.301	6.24
523.501	6.3
523.702	6.3
523.902	6.35
524.102	6.46
524.302	6.53
524.503	6.53
524.703	6.54
524.903	6.53
525.103	6.44
525.304	6.38
525.504	6.43
525.704	6.43
525.904	6.42
526.104	6.5
526.304	6.56
526.504	6.51
526.705	6.55
526.905	6.63
527.105	6.56
527.305	6.57
527.505	6.51
527.705	6.46
527.905	6.53
528.105	6.56
528.305	6.56
528.505	6.66
528.705	6.72
528.905	6.68
529.105	6.73
529.304	6.76
529.504	6.85
529.704	6.87
529.904	6.89
530.104	6.91
530.304	6.96
530.503	6.93
530.703	6.91
530.903	6.93
531.103	6.98
531.303	6.97
531.502	7.01
531.702	7.1
531.902	7.19
532.101	7.14
532.301	7.17
532.501	7.25
532.7	7.24
532.9	7.23
533.1	7.32
533.299	7.35
533.499	7.27
533.698	7.3
533.898	7.32
534.097	7.3
534.297	7.28
534.496	7.33
534.696	7.35
534.895	7.44
535.095	7.51
535.294	7.56
535.494	7.57
535.693	7.64
535.892	7.58
536.092	7.57
536.291	7.63
536.491	7.65
536.69	7.66
536.889	7.66
537.088	7.68
537.288	7.67
537.487	7.74
537.686	7.73
537.886	7.83
538.085	7.86
538.284	7.94
538.483	7.89
538.682	7.97
538.882	7.93
539.081	8.02
539.28	8.01
539.479	8.11
539.678	8.1
539.877	8.17
540.076	8.17
540.275	8.22
540.474	8.22
540.673	8.27
540.872	8.24
541.071	8.29
541.27	8.34
541.469	8.36
541.668	8.4
541.867	8.49
542.066	8.53
542.265	8.66
542.464	8.68
542.663	8.74
542.862	8.82
543.06	8.85
543.259	8.86
543.458	8.93
543.657	9
543.856	9.06
544.054	9.06
544.253	9.08
544.452	9.15
544.651	9.16
544.849	9.17
545.048	9.24
545.247	9.26
545.445	9.29
545.644	9.35
545.843	9.37
546.041	9.46
546.24	9.54
546.438	9.63
546.637	9.68
546.836	9.79
547.034	9.88
547.233	10.01
547.431	10.04
547.63	10.1
547.828	10.1
548.027	10.11
548.225	10.06
548.423	10.12
548.622	10.2
548.82	10.29
549.019	10.34
549.217	10.45
549.415	10.54
549.614	10.72
549.812	10.75
550.01	10.82
550.209	10.89
550.407	10.96
550.605	10.89
550.803	11.03
551.002	11.13
551.2	11.11
551.398	11.23
551.596	11.34
551.794	11.37
551.993	11.43
552.191	11.59
552.389	11.64
552.587	11.72
552.785	11.81
552.983	11.96
553.181	12.03
553.379	12.12
553.577	12.22
553.775	12.36
553.973	12.5
554.171	12.64
554.369	12.72
554.567	12.82
554.765	12.84
554.963	12.84
555.161	12.88
555.359	12.99
555.557	13.1
555.755	13.3
555.952	13.46
556.15	13.58
556.348	13.61
556.546	13.73
556.744	13.77
556.941	13.82
557.139	13.93
557.337	14.08
557.535	14.14
557.732	14.17
557.93	14.35
558.128	14.46
558.325	14.56
558.523	14.7
558.721	14.92
558.918	14.95
559.116	15.07
559.313	15.21
559.511	15.33
559.708	15.38
559.906	15.53
560.104	15.57
560.301	15.69
560.498	15.75
560.696	15.88
560.893	16
561.091	16.19
561.288	16.3
561.486	16.39
561.683	16.54
561.88	16.67
562.078	16.72
562.275	16.84
562.473	17
562.67	17.08
562.867	17.1
563.064	17.23
563.262	17.26
563.459	17.4
563.656	17.49
563.853	17.62
564.051	17.77
564.248	17.94
564.445	17.99
564.642	18.1
564.839	18.34
565.036	18.45
565.234	18.58
565.431	18.69
565.628	18.78
565.825	18.76
566.022	18.82
566.219	18.9
566.416	19.03
566.613	19.14
566.81	19.26
567.007	19.3
567.204	19.33
567.401	19.49
567.598	19.59
567.795	19.61
567.991	19.71
568.188	19.82
568.385	19.8
568.582	19.86
568.779	20.02
568.976	20.15
569.172	20.24
569.369	20.32
569.566	20.4
569.763	20.36
569.96	20.45
570.156	20.6
570.353	20.71
570.55	20.8
570.746	20.95
570.943	21.02
571.14	21.03
571.336	21.03
571.533	21.12
571.729	21.18
571.926	21.18
572.123	21.25
572.319	21.3
572.516	21.38
572.712	21.39
572.909	21.37
573.105	21.43
573.302	21.5
573.498	21.42
573.695	21.48
573.891	21.49
574.087	21.43
574.284	21.46
574.48	21.46
574.677	21.47
574.873	21.51
575.069	21.56
575.266	21.59
575.462	21.66
575.658	21.77
575.854	21.88
576.051	21.82
576.247	21.77
576.443	21.74
576.639	21.61
576.835	21.45
577.032	21.56
577.228	21.6
577.424	21.65
577.62	21.64
577.816	21.72
578.012	21.67
578.208	21.67
578.404	21.56
578.6	21.71
578.796	21.73
578.993	21.78
579.189	21.78
579.384	21.81
579.58	21.73
579.776	21.74
579.972	21.69
580.168	21.67
580.364	21.72
580.56	21.62
580.756	21.61
580.952	21.57
581.148	21.53
581.343	21.48
581.539	21.52
581.735	21.51
581.931	21.43
582.127	21.4
582.322	21.43
582.518	21.42
582.714	21.36
582.909	21.45
583.105	21.44
583.301	21.36
583.496	21.39
583.692	21.33
583.888	21.36
584.083	21.38
584.279	21.42
584.474	21.37
584.67	21.38
584.866	21.36
585.061	21.38
585.257	21.38
585.452	21.37
585.648	21.25
585.843	21.1
586.039	21.15
586.234	21.16
586.429	21.04
586.625	21.3
586.82	21.41
587.015	21.34
587.211	21.3
587.406	21.34
587.601	21.26
587.797	21.22
587.992	21.14
588.187	21.03
588.383	21.14
588.578	21.1
588.773	21.17
588.968	21.29
589.163	21.44
589.359	21.39
589.554	21.43
589.749	21.34
589.944	21.34
590.139	21.35
590.334	21.32
590.529	21.38
590.724	21.49
590.919	21.47
591.114	21.52
591.309	21.57
591.504	21.57
591.699	21.62
591.894	21.67
592.089	21.66
592.284	21.68
592.479	21.73
592.674	21.68
592.869	21.71
593.064	21.75
593.259	21.92
593.454	21.93
593.648	22.05
593.843	22.06
594.038	22.17
594.233	22.1
594.428	22.3
594.622	22.37
594.817	22.5
595.012	22.47
595.206	22.63
595.401	22.63
595.596	22.58
595.79	22.62
595.985	22.78
596.18	22.84
596.374	22.99
596.569	23.19
596.763	23.41
596.958	23.46
597.153	23.5
597.347	23.49
597.542	23.63
597.736	23.63
597.931	23.69
598.125	23.83
598.319	23.92
598.514	23.89
598.708	23.92
598.903	24.1
599.097	24.15
599.291	24.14
599.486	24.27
599.68	24.37
599.874	24.42
600.069	24.51
600.263	24.65
600.457	24.71
600.651	24.74
600.846	24.72
601.04	24.66
601.234	24.67
601.428	24.65
601.622	24.68
601.817	24.7
602.011	24.75
602.205	24.79
602.399	24.83
602.593	24.91
602.787	24.85
602.981	24.86
603.175	24.88
603.369	24.86
603.563	24.87
603.757	24.9
603.951	24.9
604.145	24.78
604.339	24.81
604.533	24.72
604.727	24.77
604.921	24.83
605.115	24.92
605.309	24.87
605.502	24.88
605.696	24.83
605.89	24.79
606.084	24.73
606.278	24.74
606.471	24.64
606.665	24.57
606.859	24.46
607.053	24.34
607.246	24.28
607.44	24.13
607.634	24.13
607.827	24.08
608.021	24.02
608.214	23.93
608.408	23.91
608.602	23.8
608.795	23.77
608.989	23.76
609.182	23.66
609.376	23.62
609.569	23.52
609.763	23.42
609.956	23.39
610.15	23.26
610.343	23.19
610.537	23.09
610.73	22.87
610.923	22.69
611.117	22.75
611.31	22.64
611.504	22.68
611.697	22.77
611.89	22.66
612.083	22.43
612.277	22.51
612.47	22.28
612.663	22.14
612.856	22.13
613.05	22.14
613.243	21.86
613.436	21.86
613.629	21.77
613.822	21.8
614.015	21.66
614.209	21.65
614.402	21.52
614.595	21.51
614.788	21.3
614.981	21.24
615.174	21.08
615.367	21.01
615.56	20.85
615.753	20.91
615.946	20.85
616.139	20.86
616.332	20.8
616.525	20.68
616.718	20.55
616.911	20.49
617.103	20.51
617.296	20.42
617.489	20.35
617.682	20.36
617.875	20.32
618.067	20.16
618.26	20.11
618.453	20.07
618.646	19.96
618.838	19.93
619.031	19.94
619.224	19.97
619.417	19.95
619.609	19.93
619.802	19.85
619.994	19.75
620.187	19.68
620.38	19.63
620.572	19.58
620.765	19.53
620.957	19.5
621.15	19.39
621.342	19.43
621.535	19.44
621.727	19.43
621.92	19.38
622.112	19.43
622.305	19.37
622.497	19.31
622.69	19.31
622.882	19.33
623.074	19.31
623.267	19.23
623.459	19.16
623.651	19.12
623.844	19.08
624.036	19.1
624.228	19.1
624.42	19.08
624.613	19.01
624.805	18.93
624.997	18.87
625.189	18.9
625.381	18.86
625.574	18.81
625.766	18.82
625.958	18.8
626.15	18.77
626.342	18.77
626.534	18.75
626.726	18.78
626.918	18.64
627.11	18.59
627.302	18.51
627.494	18.5
627.686	18.42
627.878	18.42
628.07	18.42
628.262	18.49
628.454	18.44
628.646	18.34
628.838	18.35
629.029	18.2
629.221	18.05
629.413	17.99
629.605	18
629.797	17.94
629.989	17.93
630.18	18.03
630.372	18
630.564	17.99
630.755	17.96
630.947	18.01
631.139	17.8
631.33	17.75
631.522	17.65
631.714	17.66
631.905	17.6
632.097	17.58
632.289	17.59
632.48	17.66
632.672	17.54
632.863	17.5
633.055	17.52
633.246	17.51
633.438	17.47
633.629	17.52
633.821	17.49
634.012	17.45
634.203	17.41
634.395	17.33
634.586	17.29
634.777	17.29
634.969	17.31
635.16	17.28
635.351	17.28
635.543	17.24
635.734	17.23
635.925	17.29
636.117	17.28
636.308	17.32
636.499	17.27
636.69	17.22
636.881	17.02
637.073	16.98
637.264	16.9
637.455	16.9
637.646	16.94
637.837	17.03
638.028	17.01
638.219	17.12
638.41	17.13
638.601	16.99
638.792	16.97
638.983	16.94
639.174	16.8
639.365	16.8
639.556	16.77
639.747	16.74
639.938	16.8
640.129	16.75
640.32	16.66
640.511	16.65
640.701	16.67
640.892	16.53
641.083	16.49
641.274	16.4
641.465	16.4
641.655	16.31
641.846	16.27
642.037	16.21
642.228	16.17
642.418	16.1
642.609	16.01
642.8	15.95
642.99	15.95
643.181	16.03
643.372	16.03
643.562	16.07
643.753	16.01
643.943	15.9
644.134	15.73
644.324	15.78
644.515	15.67
644.705	15.73
644.896	15.83
645.086	15.91
645.277	15.81
645.467	15.77
645.658	15.63
645.848	15.56
646.038	15.56
646.229	15.62
646.419	15.61
646.61	15.71
646.8	15.68
646.99	15.59
647.18	15.53
647.371	15.54
647.561	15.4
647.751	15.32
647.941	15.39
648.132	15.38
648.322	15.34
648.512	15.46
648.702	15.55
648.892	15.45
649.082	15.39
649.272	15.33
649.462	15.27
649.653	15.19
649.843	15.24
650.033	15.23
650.223	15.27
650.413	15.23
650.603	15.17
650.793	15.13
650.983	15.02
651.172	14.99
651.362	14.92
651.552	14.83
651.742	14.73
651.932	14.73
652.122	14.71
652.312	14.7
652.502	14.63
652.691	14.61
652.881	14.61
653.071	14.54
653.261	14.39
653.45	14.27
653.64	14.14
653.83	13.91
654.019	13.61
654.209	13.57
654.399	13.59
654.588	13.5
654.778	13.42
654.968	13.42
655.157	13.23
655.347	13.03
655.536	12.83
655.726	12.67
655.915	12.55
656.105	12.44
656.294	12.33
656.484	12.2
656.673	12
656.863	11.92
657.052	11.76
657.241	11.66
657.431	11.58
657.62	11.58
657.809	11.37
657.999	11.26
658.188	11.09
658.377	10.93
658.567	10.77
658.756	10.65
658.945	10.47
659.134	10.26
659.324	10.03
659.513	9.92
659.702	9.74
659.891	9.57
660.08	9.49
660.269	9.32
660.458	9.06
660.648	8.84
660.837	8.67
661.026	8.46
661.215	8.37
661.404	8.25
661.593	8.23
661.782	8.15
661.971	7.95
662.16	7.77
662.349	7.58
662.538	7.38
662.726	7.2
662.915	7.15
663.104	7.05
663.293	7.01
663.482	6.98
663.671	6.9
663.86	6.82
664.048	6.8
664.237	6.67
664.426	6.6
664.615	6.54
664.803	6.44
664.992	6.29
665.181	6.27
665.369	6.06
665.558	6
665.747	6.02
665.935	6.04
666.124	5.98
666.312	6
666.501	5.91
666.69	5.83
666.878	5.79
667.067	5.67
667.255	5.52
667.444	5.6
667.632	5.64
667.82	5.57
668.009	5.61
668.197	5.67
668.386	5.55
668.574	5.51
668.762	5.42
668.951	5.39
669.139	5.32
669.327	5.24
669.516	5.2
669.704	5.31
669.892	5.4
670.08	5.48
670.269	5.54
670.457	5.56
670.645	5.54
670.833	5.54
671.021	5.64
671.21	5.67
671.398	5.67
671.586	5.59
671.774	5.55
671.962	5.49
672.15	5.59
672.338	5.69
672.526	5.78
672.714	5.73
672.902	5.79
673.09	5.9
673.278	5.87
673.466	5.97
673.654	6.16
673.842	6.25
674.03	6.19
674.218	6.32
674.405	6.36
674.593	6.36
674.781	6.29
674.969	6.36
675.157	6.4
675.344	6.5
675.532	6.59
675.72	6.72
675.908	6.67
676.095	6.66
676.283	6.69
676.471	6.76
676.658	6.85
676.846	7.02
677.033	7.1
677.221	7.17
677.409	7.2
677.596	7.23
677.784	7.31
677.971	7.33
678.159	7.49
678.346	7.67
678.534	7.7
678.721	7.79
678.909	8.02
679.096	7.99
679.283	7.9
679.471	8.12
679.658	8.23
679.846	8.2
680.033	8.46
680.22	8.6
680.408	8.56
680.595	8.53
680.782	8.73
680.969	8.86
681.157	9.02
681.344	9.17
681.531	9.5
681.718	9.59
681.905	9.67
682.093	9.83
682.28	9.99
682.467	10.12
682.654	10.28
682.841	10.38
683.028	10.53
683.215	10.88
683.402	10.91
683.589	11.09
683.776	11.28
683.963	11.54
684.15	11.7
684.337	12.01
684.524	12.3
684.711	12.52
684.898	12.51
685.085	12.64
685.271	13.04
685.458	13.33
685.645	13.48
685.832	14.03
686.019	14.27
686.205	14.45
686.392	14.72
686.579	15.23
686.766	15.57
686.952	16.08
687.139	16.47
687.326	16.74
687.512	17.05
687.699	17.43
687.886	17.74
688.072	18.17
688.259	18.7
688.445	19.21
688.632	19.58
688.818	20.11
689.005	20.62
689.191	21.28
689.378	21.95
689.564	22.69
689.751	23.35
689.937	24.1
690.124	24.59
690.31	24.98
690.496	25.42
690.683	26.1
690.869	26.56
691.055	27.18
691.242	28
691.428	28.74
691.614	29.47
691.8	30.26
691.987	31.14
692.173	31.87
692.359	32.8
692.545	33.71
692.731	34.43
692.918	35.07
693.104	35.79
693.29	36.5
693.476	37.17
693.662	37.97
693.848	38.82
694.034	39.68
694.22	40.27
694.406	40.81
694.592	41.54
694.778	42.24
694.964	42.95
695.15	44.04
695.336	44.83
695.522	45.64
695.708	46.53
695.894	47.5
696.08	48.03
696.265	49.24
696.451	49.93
696.637	50.98
696.823	51.61
697.009	52.62
697.194	53.14
697.38	54.01
697.566	54.29
697.751	54.97
697.937	55.71
698.123	56.4
698.308	57
698.494	58.14
698.68	59.06
698.865	59.58
699.051	60.2
699.236	60.96
699.422	61.33
699.607	61.94
699.793	62.71
699.978	63.33
700.164	63.92
700.349	64.8
700.535	65.32
700.72	65.86
700.906	66.62
701.091	67.37
701.276	67.74
701.462	68.36
701.647	68.8
701.832	69.37
702.018	69.93
702.203	70.42
702.388	70.6
702.573	71.39
702.759	71.9
702.944	72.17
703.129	72.39
703.314	73.06
703.499	73.24
703.684	73.2
703.87	73.76
704.055	74.55
704.24	75.13
704.425	75.36
704.61	75.93
704.795	76.33
704.98	76.18
705.165	76.3
705.35	76.93
705.535	77.75
705.72	77.73
705.905	78.72
706.09	79.55
706.275	79.6
706.459	79.64
706.644	80.36
706.829	80.9
707.014	81.07
707.199	81.68
707.384	81.91
707.568	82.08
707.753	82.29
707.938	82.29
708.123	82.83
708.307	83.04
708.492	83.49
708.677	83.4
708.861	83.81
709.046	83.69
709.231	83.86
709.415	84.04
709.6	84.23
709.784	84.64
709.969	85
710.153	85.11
710.338	85.6
710.522	86.17
710.707	86.04
710.891	86.27
711.076	86.84
711.26	86.79
711.445	86.43
711.629	86.88
711.813	87.35
711.998	87.64
712.182	87.24
712.366	88.18
712.551	88.33
712.735	88.28
712.919	88.57
713.103	89.39
713.288	89.19
713.472	89.38
713.656	89.28
713.84	89.26
714.024	89.09
714.208	89.12
714.393	89.07
714.577	89.7
714.761	89.95
714.945	90.13
715.129	90.37
715.313	90.44
715.497	90.28
715.681	90.18
715.865	90.06
716.049	90.26
716.233	90.41
716.417	90.25
716.601	90.55
716.785	91.26
716.968	91.06
717.152	91.47
717.336	91.36
717.52	90.9
717.704	90.85
717.888	91.29
718.071	90.93
718.255	91.63
718.439	91.92
718.622	92.11
718.806	91.76
718.99	91.86
719.174	92
719.357	92.92
719.541	93.2
719.724	93.45
719.908	94.01
720.092	93.89
720.275	93.39
720.459	93.12
720.642	93.6
720.826	93.09
721.009	92.61
721.193	92.32
721.376	92.67
721.559	92.63
721.743	93.29
721.926	94.07
722.11	94.86
722.293	95.33
722.476	94.74
722.66	95.53
722.843	95.92
723.026	95.69
723.21	95.25
723.393	96.2
723.576	95.81
723.759	95.64
723.942	95.82
724.126	95.94
724.309	95.89
724.492	95.59
724.675	95.37
724.858	95.39
725.041	94.83
725.224	94.92
725.407	95.04
725.59	94.93
725.774	95.17
725.957	96.13
726.14	95.77
726.322	95.76
726.505	96.53
726.688	96.42
726.871	96.18
727.054	96.44
727.237	96.43
727.42	96.14
727.603	96.59
727.786	96.81
727.968	96.61
728.151	96.61
728.334	96.83
728.517	97.01
728.699	96.52
728.882	96.51
729.065	96.2
729.248	96.51
729.43	96.24
729.613	96.86
729.796	98.1
729.978	98.77
730.161	98.43
730.343	98.48
730.526	98.52
730.708	98.27
730.891	98.19
731.073	98.4
731.256	98.66
731.438	99
731.621	98.83
731.803	99.24
731.986	99.83
732.168	100.11
732.35	100.37
732.533	100.16
732.715	100.11
732.898	99.29
733.08	99.17
733.262	98.5
733.444	98.98
733.627	98.99
733.809	99.71
733.991	100.07
734.173	99.79
734.355	99.64
734.538	100.1
734.72	99.75
734.902	99.58
735.084	100.71
735.266	100.76
735.448	100.76
735.63	101.5
735.812	101.26
735.994	100.23
736.176	100.67
736.358	100.67
736.54	100.71
736.722	100.59
736.904	101.39
737.086	101.14
737.268	101.42
737.45	100.84
737.632	101.49
737.814	102.04
737.995	102.13
738.177	101.68
738.359	102.1
738.541	101.74
738.723	101.09
738.904	100.93
739.086	101.29
739.268	100.38
739.449	100.16
739.631	100.26
739.813	100.25
739.994	99.71
740.176	100.86
740.358	101.67
740.539	101.37
740.721	101.86
740.902	102.35
741.084	102.13
741.265	102.02
741.447	102.54
741.628	101.7
741.81	102.07
741.991	102.62
742.172	102.4
742.354	102.65
742.535	103.31
742.717	101.76
742.898	100.99
743.079	101.64
743.261	101.08
743.442	99.36
743.623	100.03
743.804	99.32
743.986	98.47
744.167	98.73
744.348	99.08
744.529	99.38
744.71	100.14
744.891	99.62
745.073	100.11
745.254	100.87
745.435	101.99
745.616	101.21
745.797	101.13
745.978	100.52
746.159	100.75
746.34	99.79
746.521	100.71
746.702	101.57
746.883	101.16
747.064	101.27
747.245	101.48
747.426	102.03
747.606	101.76
747.787	102.64
747.968	101.8
748.149	101.3
748.33	101.08
748.51	99.69
748.691	99.51
748.872	101.36
749.053	100.82
749.233	98.84
749.414	100.34
749.595	99.95
749.775	99.02
749.956	100.03
750.137	101.2
750.317	99.85
750.498	101.1
750.678	101.14
750.859	101.51
751.04	101.28
751.22	101.5
751.4	100.31
751.581	100.4
751.761	100.16
751.942	100.27
752.122	100.42
752.303	100.6
752.483	99.52
752.663	99.39
752.844	99.75
753.024	101.23
753.204	101.35
753.385	101.61
753.565	100.43
753.745	99.83
753.925	98.87
754.106	99.55
754.286	99.34
754.466	100.06
754.646	100.91
754.826	102.27
755.006	100.19
755.187	101.28
755.367	100.61
755.547	100.65
755.727	100.05
755.907	101.07
756.087	100.01
756.267	98.97
756.447	99.53
756.627	97.36
756.807	97.39
756.987	97.24
757.167	98.24
757.346	96.42
757.526	98.84
757.706	98.53
757.886	99.21
758.066	99.98
758.246	99.43
758.425	97.56
758.605	97.2
758.785	97.14
758.965	96.83
759.144	97.03
759.324	99.5
759.504	100.36
759.683	98.77
759.863	99.48
760.043	99.8
760.222	98.18
760.402	97.09
760.581	98.11
760.761	96.81
760.94	96.96
761.12	96.5
761.299	98.35
761.479	99.7
761.658	99.68
761.838	100.42
762.017	100.51
762.197	98.14
762.376	95.87
762.555	97.02
762.735	96.84
762.914	96.58
763.093	96.54
763.273	96.7
763.452	95.38
763.631	93.88
763.81	93.97
763.99	95.05
764.169	96.18
764.348	96.02
764.527	96.48
764.706	95.95
764.885	96.9
765.064	97.2
765.243	97.6
765.423	98.54
765.602	100
765.781	97.38
765.96	97.19
766.139	96.31
766.318	97.13
766.497	95.69
766.676	96.3
766.854	95.29
767.033	95.92
767.212	95.04
767.391	96.66
767.57	99.4
767.749	100.58
767.928	100.83
768.106	99.46
768.285	98.31
768.464	96.63
768.643	95.05
768.821	94.27
769	93.57
769.179	93.9
769.357	93.37
769.536	92.86
769.715	94.04
769.893	96.51
770.072	94.94
770.25	93.54
770.429	94.69
770.607	93.49
770.786	91.52
770.964	93.42
771.143	95.36
771.321	93.99
771.5	94.12
771.678	94.09
771.857	91.74
772.035	90.5
772.213	91.98
772.392	90.68
772.57	91.32
772.748	91.74
772.927	92.03
773.105	91.99
773.283	93.73
773.461	95.28
773.64	95.1
773.818	94.59
773.996	96.15
774.174	95.89
774.352	93.46
774.531	92.06
774.709	92.01
774.887	88.13
775.065	87
775.243	85.76
775.421	87.52
775.599	88.25
775.777	87.99
775.955	87.81
776.133	89.32
776.311	88.35
776.489	88.4
776.667	89.91
776.844	89.85
777.022	91.42
777.2	92.39
777.378	90.56
777.556	91.48
777.734	93.25
777.911	92.44
778.089	94.65
778.267	96.14
778.445	98.37
778.622	96.83
778.8	93.6
778.978	91.23
779.155	93.6
779.333	92.64
779.511	93.33
779.688	95.43
779.866	95.57
780.043	93.44
780.221	90.78
780.398	89.2
780.576	88.64
780.753	86.35
780.931	84.9
781.108	86.68
781.286	87.78
781.463	85.46
781.64	88.47
781.818	89.03
781.995	88.07
782.172	87.48
782.35	91.12
782.527	91.16
782.704	88.93
782.882	85.77
783.059	86.1
783.236	85.46
783.413	82.35
783.59	84.37
783.768	86.79
783.945	87.24
784.122	86.07
784.299	88.95
784.476	88.04
784.653	88.49
784.83	83.94
785.007	85.05
785.184	82.9
785.361	83.95
785.538	81.07
785.715	87.74
785.892	86.67
786.069	90.23
786.246	91.51
786.423	95.04
786.6	92.44
786.776	93.52
786.953	89.23
787.13	87.19
787.307	85.46
787.484	82.19
787.66	81.58
787.837	82.06
788.014	83.32
788.191	83.51
788.367	84.68
788.544	84.9
788.721	84.84
788.897	82.67
789.074	86.15
789.25	85.6
789.427	84.47
789.603	82.7
789.78	83.19
789.956	77.85
790.133	77.41
790.309	78.94
790.486	78.91
790.662	78.8
790.839	79.9
791.015	83.79
791.192	80.64
791.368	84.68
791.544	84.32
791.721	84.24
791.897	79.22
792.073	77.52
792.249	74.8
792.426	76.52
792.602	75.67
792.778	77.58
792.954	82.85
793.13	83.92
793.307	82.99
793.483	83.22
793.659	86.27
793.835	85.96
794.011	90.01
794.187	88.91
794.363	89.25
794.539	85.42
794.715	85.23
794.891	81.29
795.067	79.48
795.243	81.45
795.419	83.41
795.595	85.5
795.771	84.35
795.947	83.48
796.122	76.03
796.298	73.75
796.474	76.28
796.65	77.85
796.826	76.25
797.001	82.44
797.177	80.31
797.353	78.48
797.529	77.31
797.704	83.93
797.88	81.15
798.056	79.65
798.231	76.23
798.407	77.03
798.582	73.87
798.758	74.44
798.934	85.42
799.109	87.16
799.285	86.52
799.46	87.15
799.636	88.42
799.811	82.28
799.986	78.79
800.162	72.36
800.337	72.89
800.513	73.29
800.688	69.09
800.863	73.67
801.039	81.69
801.214	76.86
801.389	75.45
801.565	74.3
801.74	68.45
801.915	66.25
802.09	67.78
802.265	69.63
802.441	78.08
802.616	81.33
802.791	79.98
802.966	86.7
803.141	85.89
803.316	81.38
803.491	83.58
803.666	85.37
803.841	77.43
804.016	72.08
804.191	77.26
804.366	70.66
804.541	71.95
804.716	75.69
804.891	79.12
805.066	79.72
805.241	82.59
805.416	83.9
805.591	84.18
805.765	87.64
805.94	82.4
806.115	81.39
806.29	76.58
806.464	74.93
806.639	71.75
806.814	73.21
806.989	74.83
807.163	81.46
807.338	83.17
807.512	83.36
807.687	80.02
807.862	78.11
808.036	80.39
808.211	82.22
808.385	83.1
808.56	78.24
808.734	68.5
808.909	65.71
809.083	61.63
809.258	71.5
809.432	75.17
809.606	81.53
809.781	77.89
809.955	85.95
810.13	73.07
810.304	77.91
810.478	77.29
810.652	75.09
810.827	74.44
811.001	77.87
811.175	74.22
811.349	77.67
811.524	85.43
811.698	77.64
811.872	78.2
812.046	80.01
812.22	78.06
812.394	63.55
812.568	67
812.742	62.89
812.916	63.11
813.09	61.58
813.264	70.25
813.438	67.78
813.612	66.81
813.786	67.72
813.96	72.46
814.134	65.75
814.308	68.78
814.482	69.72
814.656	59.46
814.83	53.71
815.003	54.46
815.177	52.16
815.351	56.23
815.525	73.16
815.698	73.19
815.872	68.81
816.046	69.01
816.219	65.97
816.393	58.7
816.567	60.19
816.74	65.76
816.914	72.28
817.088	79.59
817.261	77.85
817.435	82.53
817.608	79.61
817.782	63.36
817.955	57.17
818.129	51.65
818.302	56.93
818.475	63.51
818.649	72.41
818.822	66.06
818.996	82.68
819.169	76.35
819.342	77.52
819.516	83.45
819.689	86.86
819.862	74.15
820.035	79.44
820.209	79.24
820.382	69.31
820.555	66.82
820.728	70.92
820.901	65.68
821.075	57.7
821.248	64.94
821.421	49.96
821.594	58.41
821.767	59.16
821.94	54.97
822.113	61.86
822.286	71.41
822.459	65.38
822.632	70.49
822.805	80.88
822.978	74.45
823.151	67.39
823.324	62.32
823.496	46.86
823.669	52.42
823.842	68.27
824.015	72.64
824.188	71.21
824.361	72.92
824.533	62.33
824.706	50.54
824.879	59.14
825.051	71.34
825.224	74.61
825.397	72.73
825.569	63
825.742	69.82
825.915	64.93
826.087	65.17
826.26	64.17
826.432	73.53
826.605	71.03
826.777	72.4
826.95	69.76
827.122	62.38
827.295	75.77
827.467	73.35
827.64	68.8
827.812	71.62
827.984	93.49
828.157	52.3
828.329	63.74
828.501	55.51
828.674	51.16
828.846	45.48
829.018	58.29
829.19	39.76
829.363	41.87
829.535	60.43
829.707	51.74
829.879	47.41
830.051	54
830.223	61.2
830.395	39.92
830.568	49.35
830.74	50.56
830.912	57.35
831.084	60.5
831.256	51.57
831.428	54.41
831.6	51.92
831.772	44.49
831.943	33.81
832.115	54.74
832.287	56.22
832.459	53.97
832.631	53.84
832.803	61.91
832.975	61.07
833.146	52.87
833.318	57.96
833.49	62.9
833.662	67.98
833.833	67.46
834.005	77.44
834.177	79.01
834.348	62.36
834.52	62.64
834.692	54.4
834.863	44.2
835.035	39.65
835.206	47.19
835.378	46.27
835.549	47.14
835.721	48.29
835.892	42.25
836.064	44.49
836.235	42.23
836.407	39.85
836.578	30.68
836.749	28.33
836.921	36.29
837.092	21.81
837.264	37.56
837.435	48.89
837.606	59.17
837.777	46.65
837.949	62.92
838.12	51.19
838.291	50.14
838.462	46.61
838.633	52.68
838.805	29.59
838.976	29.92
839.147	31.13
839.318	29.34
839.489	12.83
839.66	43.56
839.831	59.14
840.002	55.2
840.173	52.76
840.344	61.14
840.515	41.99
840.686	37.09
840.857	42.42
841.028	35.38
841.199	43.06
841.369	47.95
841.54	29.68
841.711	43.1
841.882	60.14
842.053	41.58
842.223	26.36
842.394	32.8
842.565	20.68
842.736	13.14
842.906	23.22
843.077	30.94
843.248	36.83
843.418	40.15
843.589	59.28
843.759	59.15
843.93	65.27
844.101	65.66
844.271	93.41
844.442	86.16
844.612	90.9
844.783	83.16
844.953	81.24
845.123	68.11
845.294	67.92
845.464	47.12
845.635	47.69
845.805	52.7
845.975	63.31
846.146	41.08
846.316	28.88
846.486	40.14
846.656	50.74
846.827	51.72
846.997	65.34
847.167	63.07
847.337	50.68
847.507	42.84
847.677	37.87
847.848	45.77
848.018	67.72
848.188	80.44
848.358	65.36
848.528	60.22
848.698	32.67
848.868	15.39
849.038	5.6
849.208	40.93
849.378	44.91
849.548	22.36
849.718	-1.37
849.887	3.05
850.057	-50.08
850.227	-25.31
850.397	2.76
850.567	7.73
850.737	13.42
850.906	17.64
851.076	-8.76
851.246	24.58
851.415	19.82
851.585	8.33
851.755	20.38
851.924	33.99
852.094	33.16
852.264	30.25
852.433	33.26
852.603	25.34
852.772	51.24
852.942	67.22
853.111	77.35
853.281	65
853.45	56.06
853.62	32.23
853.789	-1.28
853.959	20.07
854.128	27.21
854.297	44.91
854.467	40.68
854.636	65.25
854.805	58.62
854.975	45.76
855.144	27.72
855.313	43.04
855.482	1.92
855.652	-3.89
855.821	5.28
855.99	17.6
856.159	6.03
856.328	35.24
856.497	36.74
856.667	40.82
856.836	44.52
857.005	52.2
857.174	23.65
857.343	12.67
857.512	5.2
857.681	-16.14
857.85	-9.23
858.019	-2.99
858.188	-9.32
858.356	28.49
858.525	33.49
858.694	46.45
858.863	33.48
859.032	30.9
859.201	-28.12
859.369	-17
859.538	6.96
859.707	13.24
859.876	31.27
860.044	53.6
860.213	56.8
860.382	45.35
860.55	24.94
860.719	20.32
860.888	37.53
861.056	13.13
861.225	-4.83
861.393	9.39
861.562	17.9
861.73	-14.94
861.899	-9.87
862.067	3.44
862.236	-8.46
862.404	-6.25
862.572	11.63
862.741	-0.49
862.909	-4.83
863.078	12.37
863.246	7.01
863.414	17.61
863.582	32.6
863.751	18.76
863.919	13.09
864.087	11.79
864.255	-7.91
864.424	-20.79
864.592	43.38
864.76	54.75
864.928	59.47
865.096	71.94
865.264	83.92
865.432	64.48
865.6	84.73
865.768	68.23
865.936	35.28
866.104	4.46
866.272	-28.83
866.44	-13.54
866.608	8.31
866.776	42.96
866.944	78.93
867.112	74.16
867.28	67.25
867.448	74.18
867.615	50.95
867.783	31.83
867.951	15.56
868.119	18.32
868.286	20.27
868.454	28.71
868.622	36.62
868.789	28.74
868.957	34.84
869.125	29.83
869.292	8.84
869.46	6.36
869.627	19.44
869.795	-46.54
869.963	-19.06
870.13	-26.73
870.298	-27.67
870.465	-15.5
870.632	4.74
870.8	-20.66
870.967	-1.61
871.135	-13.32
871.302	-28.86
871.469	-4.89
871.637	0.34
871.804	30.32
871.971	12.13
872.139	27.91
872.306	11.76
872.473	-6.41
872.64	-65
872.807	-33.25
872.975	-71.93
873.142	-11.23
873.309	2.75
873.476	38.35
873.643	58.84
873.81	37.14
873.977	12.1
874.144	20.06
874.311	-57.77
874.478	-112.65
874.645	-135.71
874.812	-4.2
874.979	-0.12
875.146	7.82
875.313	75.08
875.48	89.59
875.647	44.14
875.813	20.23
875.98	20.22
876.147	-112.43
876.314	-57.8
876.481	-40.01
876.647	-13.18
876.814	20.31
876.981	58.85
877.147	59.1
877.314	60.83
877.481	69.97
877.647	68.56
877.814	62.31
877.98	61.41
878.147	67.97
878.314	79.74
878.48	78.93
878.647	82.02
878.813	77.04
878.979	66.08
879.146	93.82
879.312	112.51
879.479	64.52
879.645	63.09
879.811	42.32
879.978	25.94
880.144	19.08
880.31	43.97
880.477	53.76
880.643	52.84
880.809	15.96
880.975	-6.98
881.142	-40.18
881.308	286.27
881.474	378.37
881.64	29.94
881.806	41.94
881.972	2.19
882.138	54.67
882.304	93.93
882.47	56.12
882.636	14.35
882.802	20.75
882.968	-53.3
883.134	-21.43
883.3	10.02
883.466	58.3
883.632	68.16
883.798	110.5
883.964	80.72
884.129	-64.19
884.295	41.49
884.461	44.3
884.627	27.08
884.793	-43.03
884.958	11.04
885.124	-23
885.29	-79.21
885.455	-107.11
885.621	51
885.787	8.29
885.952	5.74
886.118	68.6
886.283	80.22
886.449	39.7
886.614	42.56
886.78	39.73
886.945	6.95
887.111	-52.59
887.276	-70.21
887.442	-136.79
887.607	-68.09
887.773	-38.91
887.938	-5.26
888.103	18.65
888.269	35.92
888.434	25.4
888.599	28.28
888.764	43.26
888.93	56.12
889.095	34.68
889.26	19.88
889.425	33.24
889.59	39.31
889.756	-51.9
889.921	10.85
890.086	-31.78
890.251	-51.57
890.416	-69.21
890.581	-45.36
890.746	-18.71
890.911	14.41
891.076	-1.95
891.241	-13.81
891.406	-44.37
891.571	-114.47
891.736	-235.93
891.901	-52.65
892.065	9.22
892.23	37.96
892.395	25.22
892.56	57.92
892.725	169.04
892.889	335.46
893.054	183.68
893.219	93.04
893.384	22.27
893.548	-102.72
893.713	-227.81
893.878	-353.53
