Data from Ofra_PS_T2_2A_0CX05_Reflection_2.txt Node
Date: Wed Jul 21 16:49:55 EDT 2021
User: Adam
Spectrometer: FLMT01687
Trigger mode: 0
Integration Time (sec): 1.100000E0
Scans to average: 2
Electric dark correction enabled: true
Nonlinearity correction enabled: false
Boxcar width: 2
XAxis mode: Wavelengths
Number of Pixels in Spectrum: 3648
>>>>>Begin Spectral Data<<<<<
179.494	380.4
179.716	381.18
179.937	353.53
180.158	325.12
180.38	535.31
180.601	307.46
180.823	179.92
181.044	132.94
181.265	197.43
181.486	78.42
181.708	56.47
181.929	-186.73
182.15	196.48
182.372	147.47
182.593	120.73
182.814	58.09
183.035	71.74
183.257	23.29
183.478	-9.89
183.699	73.44
183.92	81.2
184.141	50.26
184.363	29.04
184.584	30.5
184.805	16.79
185.026	23.99
185.247	46.42
185.468	63.52
185.689	58.19
185.91	55.01
186.132	56.11
186.353	36.28
186.574	40.69
186.795	51.59
187.016	21.29
187.237	7.99
187.458	14.04
187.679	-1.6
187.9	1.76
188.121	-6.26
188.342	20.88
188.563	29.25
188.784	44.76
189.005	41.13
189.226	85.5
189.447	68.29
189.667	-25.49
189.888	-204.68
190.109	-637.01
190.33	-262.26
190.551	-630.53
190.772	-127.48
190.993	-70.53
191.214	-57.97
191.434	-75.23
191.655	-23.01
191.876	-0.8
192.097	-40.65
192.318	-83.3
192.538	-111.29
192.759	-62.36
192.98	-27.59
193.201	18.01
193.421	39.25
193.642	41.06
193.863	40.99
194.083	31.89
194.304	12.73
194.525	-13.53
194.745	-28.76
194.966	-39.83
195.187	-33.04
195.407	-70.19
195.628	-75.55
195.848	-84.25
196.069	-77.34
196.29	-60.12
196.51	-22.86
196.731	-5.26
196.951	2.38
197.172	10.45
197.392	2.38
197.613	0.57
197.833	-26.59
198.054	-19.16
198.274	8.26
198.495	-22.09
198.715	-1.72
198.936	-15.03
199.156	-0.93
199.377	-64.29
199.597	-38.18
199.817	-58.86
200.038	-15.54
200.258	-60.2
200.479	-43.63
200.699	-76.06
200.919	-14.11
201.14	-10.22
201.36	6.39
201.58	37.77
201.801	58.27
202.021	55.16
202.241	41.21
202.461	25.16
202.682	3.73
202.902	-17.35
203.122	13.34
203.342	25.7
203.563	64.62
203.783	60.1
204.003	31.6
204.223	7.52
204.443	52.7
204.663	43.86
204.884	47.27
205.104	74.01
205.324	105.32
205.544	127.51
205.764	89.31
205.984	74
206.204	73.07
206.424	43.25
206.644	10.84
206.864	14.13
207.084	8.68
207.304	-1.75
207.525	14.53
207.745	-19.98
207.964	22.06
208.184	-14.81
208.404	-30.5
208.624	-38.38
208.844	-31.08
209.064	-178
209.284	-139.51
209.504	-38.56
209.724	31.37
209.944	29.88
210.164	35.38
210.384	34.09
210.604	29.65
210.823	-1.44
211.043	-5.95
211.263	1.41
211.483	7.52
211.703	-27.33
211.922	-22.69
212.142	6.87
212.362	5.28
212.582	6.21
212.801	31.4
213.021	31.75
213.241	7.61
213.461	-10.58
213.68	-13.26
213.9	-5.33
214.12	14.02
214.339	-0.43
214.559	17.05
214.779	18.57
214.998	0.56
215.218	-25.99
215.438	8.15
215.657	4.85
215.877	15.8
216.096	42.87
216.316	59.33
216.535	38.55
216.755	15.58
216.974	-21.99
217.194	-88.84
217.413	-96.46
217.633	-113.77
217.852	-141.36
218.072	-48.41
218.291	-8.98
218.511	2.59
218.73	-10.3
218.95	-9.46
219.169	-15.56
219.389	-43.1
219.608	-23.52
219.827	-11.69
220.047	-6.01
220.266	5.15
220.485	8.78
220.705	10.84
220.924	18.87
221.143	52.74
221.363	46.02
221.582	54.03
221.801	42.31
222.021	46.9
222.24	-29.54
222.459	-6.97
222.678	16.17
222.897	14.48
223.117	-43.19
223.336	-15.43
223.555	-8.79
223.774	16.92
223.993	24.44
224.213	49.24
224.432	61.12
224.651	68.67
224.87	41.29
225.089	40.14
225.308	50.55
225.527	46.16
225.746	48.46
225.965	45.68
226.184	36.67
226.404	40.55
226.623	30.52
226.842	32.87
227.061	37.5
227.28	40.2
227.499	26.62
227.718	33.13
227.936	19.75
228.155	35.94
228.374	24.58
228.593	27.34
228.812	25.18
229.031	17.24
229.25	-18.19
229.469	9.85
229.688	24.8
229.907	44.67
230.125	42.77
230.344	50.96
230.563	51.29
230.782	50.67
231.001	-8.23
231.22	-14.35
231.438	-0.11
231.657	1.22
231.876	-26.16
232.095	15.8
232.313	34.14
232.532	26.5
232.751	-6.04
232.969	28.15
233.188	-2.25
233.407	12.03
233.625	-6.68
233.844	-29.71
234.063	-44.92
234.281	-6.63
234.5	-25.52
234.719	-9.93
234.937	16.68
235.156	29.33
235.374	21.23
235.593	24.3
235.811	30.27
236.03	40.51
236.249	29.22
236.467	33.51
236.686	41.45
236.904	39.16
237.123	20.22
237.341	22.92
237.559	11.29
237.778	-6.18
237.996	-20.24
238.215	6.78
238.433	5.12
238.652	15.77
238.87	4.78
239.088	4.98
239.307	-5.68
239.525	-7.97
239.743	-20.95
239.962	-0.65
240.18	2.56
240.398	-22.2
240.617	-21.28
240.835	-12.69
241.053	-21.88
241.271	-15.23
241.49	9.68
241.708	-12.9
241.926	-18.68
242.144	-10.4
242.363	-53.2
242.581	-57.48
242.799	-35.84
243.017	-19.15
243.235	-15.89
243.453	14.17
243.672	17.67
243.89	19.75
244.108	25.18
244.326	32.03
244.544	29.12
244.762	31.93
244.98	42.02
245.198	42.25
245.416	30.02
245.634	19.91
245.852	-2.52
246.07	-16.24
246.288	-16.68
246.506	-48.02
246.724	-66.47
246.942	-43.35
247.16	-14.69
247.378	-20.57
247.596	0.31
247.814	17.08
248.032	12.43
248.25	18.6
248.468	20.54
248.685	33.32
248.903	54.18
249.121	46.79
249.339	25.23
249.557	26.21
249.775	20.54
249.992	-24.32
250.21	-8.32
250.428	8.59
250.646	-19.83
250.863	-24.65
251.081	8.53
251.299	7.97
251.517	-1.27
251.734	11.56
251.952	13.76
252.17	-10.09
252.387	1.77
252.605	1.3
252.823	15.07
253.04	23.44
253.258	49.94
253.475	39.03
253.693	57.43
253.911	58.56
254.128	55.09
254.346	50.38
254.563	46.91
254.781	22.83
254.998	-2.57
255.216	1.18
255.433	8.89
255.651	27.26
255.868	44.89
256.086	54.07
256.303	33.93
256.521	15.74
256.738	3.62
256.956	-21.99
257.173	-17.5
257.39	-22.32
257.608	-14.09
257.825	21.72
258.043	38.28
258.26	17.64
258.477	48.24
258.695	34.23
258.912	-9.34
259.129	19.1
259.346	14.2
259.564	-3.05
259.781	9.37
259.998	38.99
260.216	18.71
260.433	30.66
260.65	13.68
260.867	10.62
261.084	-14.13
261.302	-8.17
261.519	6.49
261.736	18.58
261.953	4.76
262.17	22.2
262.387	-3.34
262.604	-69.44
262.822	-75.56
263.039	-38.82
263.256	-63.43
263.473	-26.42
263.69	13.93
263.907	28.33
264.124	32.97
264.341	34.45
264.558	30.69
264.775	24.97
264.992	22.27
265.209	2.11
265.426	8.39
265.643	14.14
265.86	31.15
266.077	25.81
266.294	56.38
266.51	41.05
266.727	18.49
266.944	7.51
267.161	-3.82
267.378	-31.85
267.595	-10.13
267.812	-37.61
268.028	-53.02
268.245	-19.53
268.462	-3.39
268.679	-1.6
268.896	41.73
269.112	33.11
269.329	26.52
269.546	36.94
269.763	20.18
269.979	15.17
270.196	32.98
270.413	-1.48
270.629	-23.12
270.846	-7.28
271.063	-12.2
271.279	-32.57
271.496	2.25
271.712	28.49
271.929	24.9
272.146	21.16
272.362	24.41
272.579	28.33
272.795	18.41
273.012	30
273.228	37.02
273.445	34.26
273.661	20.51
273.878	13.69
274.094	12.77
274.311	-8.95
274.527	32.29
274.744	29.77
274.96	16.01
275.177	17.25
275.393	49.87
275.609	32.14
275.826	40.26
276.042	45.66
276.259	46.99
276.475	24.05
276.691	35.29
276.908	26.34
277.124	38.91
277.34	32.46
277.557	32.69
277.773	12.41
277.989	7.68
278.205	-9.3
278.422	5.3
278.638	1.96
278.854	2.14
279.07	15.51
279.286	23.52
279.503	0.76
279.719	-2.39
279.935	-2.11
280.151	-17.01
280.367	-3.45
280.583	-7.51
280.799	-6.59
281.016	-23.89
281.232	-11.32
281.448	-7.27
281.664	14.18
281.88	13.76
282.096	27.32
282.312	31.29
282.528	37.1
282.744	26.7
282.96	22.36
283.176	16.17
283.392	15.05
283.608	7.63
283.824	9.06
284.04	15
284.256	25.4
284.471	32.11
284.687	29.14
284.903	50.88
285.119	53.11
285.335	35.43
285.551	36.15
285.767	23.62
285.982	7.6
286.198	-22.04
286.414	13.24
286.63	13.24
286.846	29.7
287.061	15.21
287.277	38.03
287.493	16.67
287.709	22
287.924	4.59
288.14	19.9
288.356	6.09
288.571	28.49
288.787	19.29
289.003	22.98
289.218	10.29
289.434	3.18
289.65	-10.59
289.865	-10.29
290.081	5.15
290.296	23.73
290.512	26.08
290.727	15.9
290.943	24.45
291.159	11.96
291.374	1.8
291.59	3.39
291.805	18.5
292.021	25.17
292.236	29.66
292.451	38.67
292.667	25.15
292.882	29.87
293.098	11.92
293.313	-3.13
293.529	-17.85
293.744	-16.8
293.959	-24.45
294.175	-19.13
294.39	4.54
294.605	14.66
294.821	24.84
295.036	28.27
295.251	24.72
295.467	20.2
295.682	21.63
295.897	-1.46
296.112	-6.28
296.328	5.1
296.543	-25.62
296.758	-21.21
296.973	13.19
297.188	32.63
297.404	16.26
297.619	20.9
297.834	9.12
298.049	-12.85
298.264	-42
298.479	-4.74
298.694	4.36
298.909	12.83
299.125	17.78
299.34	22.55
299.555	15.51
299.77	12.48
299.985	-13.11
300.2	-31.54
300.415	-28.35
300.63	-20.71
300.845	-27.8
301.06	-9.05
301.275	6.92
301.49	17.4
301.704	16.62
301.919	9.18
302.134	-1.5
302.349	-3.1
302.564	-45.07
302.779	-71.7
302.994	-59.95
303.209	-28.26
303.423	-17.09
303.638	27.11
303.853	5.3
304.068	14.55
304.283	9.18
304.497	8.96
304.712	2.29
304.927	14.49
305.142	2.55
305.356	10.76
305.571	7.69
305.786	4.9
306	0.29
306.215	12.98
306.43	7.62
306.644	11.99
306.859	13.97
307.074	25.08
307.288	8.71
307.503	-2.94
307.717	-6.17
307.932	-1.86
308.147	-1.49
308.361	23.75
308.576	10.81
308.79	-10.53
309.005	-1.77
309.219	-9.36
309.434	-19.11
309.648	2.85
309.863	9.83
310.077	-4.32
310.292	-5.14
310.506	-14.43
310.72	-7.11
310.935	-1.2
311.149	-5.17
311.364	16.03
311.578	25.7
311.792	17.93
312.007	25.48
312.221	34.81
312.435	26.26
312.649	13.53
312.864	39.79
313.078	50.94
313.292	77.41
313.507	69.37
313.721	90.57
313.935	44.34
314.149	35.75
314.363	24.86
314.578	21.72
314.792	23.69
315.006	8.57
315.22	23.23
315.434	18.69
315.648	30.49
315.862	43.43
316.077	45.44
316.291	32.16
316.505	46.89
316.719	49.24
316.933	6.52
317.147	1.22
317.361	-18.73
317.575	-45.1
317.789	-62.38
318.003	-82.74
318.217	-78.73
318.431	-3.91
318.645	22.01
318.859	20.49
319.073	28.55
319.287	35.38
319.5	1.86
319.714	-18.5
319.928	-21.77
320.142	-33.24
320.356	-2
320.57	13.39
320.784	13.21
320.997	-20.26
321.211	-26.93
321.425	-71.28
321.639	-81.04
321.853	-51.71
322.066	-14.26
322.28	-14.19
322.494	-6.06
322.707	19.18
322.921	35.01
323.135	34.06
323.349	39.74
323.562	31.08
323.776	21.35
323.989	9.33
324.203	-11
324.417	-7.61
324.63	-24.76
324.844	-24.32
325.057	-18.11
325.271	-5.33
325.485	15.98
325.698	42.18
325.912	50.1
326.125	32.74
326.339	32.47
326.552	13.2
326.766	5.37
326.979	22.74
327.193	60.75
327.406	52.54
327.619	38.23
327.833	41.46
328.046	7.18
328.26	-19.92
328.473	-17.31
328.686	-23.62
328.9	-19.91
329.113	10.71
329.326	0.62
329.54	32.86
329.753	34.7
329.966	6.53
330.179	-8.02
330.393	6.53
330.606	8.05
330.819	21.55
331.032	42.45
331.246	39.66
331.459	49.96
331.672	44.04
331.885	44.78
332.098	27.9
332.311	33.96
332.525	4.47
332.738	16.48
332.951	24.75
333.164	29.4
333.377	33.91
333.59	48
333.803	37.91
334.016	30.94
334.229	38.39
334.442	29.63
334.655	25.55
334.868	32.16
335.081	22.92
335.294	31.14
335.507	42.31
335.72	49.13
335.933	37.48
336.146	37.57
336.359	22.72
336.572	-11.08
336.785	-43.65
336.997	-23.43
337.21	2.69
337.423	8.45
337.636	27.52
337.849	34.99
338.062	16.33
338.274	8.67
338.487	1.78
338.7	-0.5
338.913	-20.04
339.125	-27.5
339.338	-59.33
339.551	-53.86
339.763	-53.59
339.976	-21.87
340.189	-0.5
340.402	13.58
340.614	14.08
340.827	16.7
341.039	9.14
341.252	26.14
341.465	36.62
341.677	34.76
341.89	32.41
342.102	35.18
342.315	-1.4
342.527	-38.59
342.74	-29.92
342.952	-26.15
343.165	-25.44
343.377	10.32
343.59	18.78
343.802	30.81
344.015	34.07
344.227	46.99
344.44	35.89
344.652	33.98
344.864	20.15
345.077	42.04
345.289	35.05
345.502	28.3
345.714	26.19
345.926	19.14
346.139	1.64
346.351	0.35
346.563	9.74
346.775	6.73
346.988	12.52
347.2	10.04
347.412	-8.49
347.624	-4.2
347.837	-4.4
348.049	19.61
348.261	17.94
348.473	17.24
348.685	25.55
348.897	20.17
349.11	11.91
349.322	31.71
349.534	47.86
349.746	25.51
349.958	37.25
350.17	31.65
350.382	27.44
350.594	17.25
350.806	21.37
351.018	25.91
351.23	19.47
351.442	-10.32
351.654	-2.83
351.866	10.74
352.078	9.89
352.29	24.46
352.502	29.32
352.714	52.2
352.926	39.13
353.138	29.02
353.35	18.44
353.561	26.89
353.773	-7.09
353.985	5.49
354.197	9.32
354.409	11.54
354.621	16.65
354.832	26.06
355.044	24.78
355.256	20.35
355.468	22.4
355.679	0.57
355.891	3.84
356.103	-8.59
356.314	8.4
356.526	8.61
356.738	28.09
356.949	21.04
357.161	43.99
357.373	21.19
357.584	22.31
357.796	29.92
358.008	32.62
358.219	41.03
358.431	44.29
358.642	44.14
358.854	29.66
359.065	24.3
359.277	-12.87
359.488	-24.72
359.7	-28.93
359.911	-21.2
360.123	-14.24
360.334	-8.75
360.546	5.77
360.757	-0.28
360.969	4.81
361.18	4.36
361.391	10.7
361.603	-8.17
361.814	-5.6
362.025	-5.58
362.237	-12.36
362.448	-8.12
362.659	1.08
362.871	0.07
363.082	-6.34
363.293	-3.04
363.504	-9.79
363.716	-11.47
363.927	-17.12
364.138	-14.62
364.349	-15.36
364.56	-18.03
364.772	-8.41
364.983	7.78
365.194	2.04
365.405	17.68
365.616	21.94
365.827	19.2
366.038	1.64
366.25	-2.36
366.461	-27.67
366.672	10.16
366.883	11.46
367.094	18.21
367.305	24.37
367.516	26.92
367.727	-0.48
367.938	1.85
368.149	-1.55
368.36	-0.48
368.571	7.08
368.781	6.34
368.992	-0.86
369.203	-7.22
369.414	-15.16
369.625	-23.94
369.836	-8.5
370.047	-27.77
370.258	-16.98
370.468	-7.97
370.679	-18.28
370.89	-27.98
371.101	-15.22
371.312	-19.46
371.522	-22.95
371.733	-19.8
371.944	-7.03
372.155	-1.93
372.365	0.97
372.576	1.91
372.787	-0.47
372.997	-18.32
373.208	-16.6
373.419	-1.34
373.629	-21.15
373.84	-10.98
374.05	-10.09
374.261	-4.31
374.472	-15.17
374.682	18.49
374.893	25.59
375.103	39.98
375.314	37.5
375.524	23.93
375.735	15.79
375.945	20.21
376.156	6.01
376.366	6.47
376.577	17.87
376.787	16.79
376.997	2.71
377.208	9.99
377.418	14.91
377.629	17.21
377.839	14.97
378.049	24.62
378.26	32.47
378.47	27.6
378.68	14.57
378.89	17.04
379.101	5.49
379.311	-26.34
379.521	-46.8
379.732	-31.01
379.942	-36.8
380.152	-32.93
380.362	-5.93
380.572	4.72
380.783	11.21
380.993	12.23
381.203	17.7
381.413	21.97
381.623	23.66
381.833	16.79
382.043	18.53
382.253	13.51
382.463	16.95
382.674	2.26
382.884	-6.41
383.094	-2.12
383.304	4.01
383.514	-1.51
383.724	8.1
383.934	10.86
384.144	-3.2
384.353	-11.6
384.563	-13.55
384.773	-1.55
384.983	-3.01
385.193	11.74
385.403	17.48
385.613	20.45
385.823	4.68
386.033	5.83
386.242	1.09
386.452	-1.81
386.662	-6.15
386.872	5.09
387.082	4.97
387.291	-0.26
387.501	-6.4
387.711	0.48
387.921	-2.78
388.13	-2.67
388.34	6.79
388.55	6.97
388.759	1.26
388.969	6.55
389.179	6.76
389.388	3.77
389.598	10.88
389.807	10.57
390.017	1.84
390.227	1.72
390.436	2.25
390.646	-2.83
390.855	-2.69
391.065	-1.51
391.274	-2.71
391.484	-5.88
391.693	-3.21
391.903	0.52
392.112	6.57
392.322	8.03
392.531	12.13
392.74	11.31
392.95	5.85
393.159	3.57
393.369	2.45
393.578	2.17
393.787	1.97
393.997	4.25
394.206	2.52
394.415	3.98
394.625	2.24
394.834	1.65
395.043	2.56
395.252	4.82
395.462	4.76
395.671	5.17
395.88	4.81
396.089	5.14
396.298	3.19
396.508	2.54
396.717	2.15
396.926	2.48
397.135	1.49
397.344	1.75
397.553	2.71
397.762	3.8
397.971	4.01
398.181	4.39
398.39	3.93
398.599	4.04
398.808	3.87
399.017	4.31
399.226	5.1
399.435	5.89
399.644	5.72
399.853	4.84
400.062	4.44
400.27	3.93
400.479	3.5
400.688	2.93
400.897	3.3
401.106	3.48
401.315	3.74
401.524	3.9
401.733	4.37
401.941	4.42
402.15	4.29
402.359	3.82
402.568	3.69
402.777	3.55
402.985	3.21
403.194	3.16
403.403	3.24
403.612	3.19
403.82	2.95
404.029	3.26
404.238	3.36
404.446	3.47
404.655	3.22
404.864	3.3
405.072	3.2
405.281	3.17
405.489	3.18
405.698	3.38
405.906	3.39
406.115	3.24
406.324	3.19
406.532	3.28
406.741	3.44
406.949	3.51
407.158	3.62
407.366	3.63
407.574	3.52
407.783	3.44
407.991	3.3
408.2	3.34
408.408	3.35
408.617	3.35
408.825	3.31
409.033	3.42
409.242	3.42
409.45	3.48
409.658	3.45
409.867	3.62
410.075	3.54
410.283	3.47
410.491	3.27
410.7	3.17
410.908	2.97
411.116	3.17
411.324	3.18
411.533	3.14
411.741	3.28
411.949	3.27
412.157	2.93
412.365	2.93
412.573	3
412.781	2.99
412.99	2.95
413.198	3.14
413.406	3.22
413.614	3.13
413.822	3
414.03	2.9
414.238	2.7
414.446	2.64
414.654	2.73
414.862	2.9
415.07	2.95
415.278	3.2
415.486	3.12
415.694	3.16
415.902	2.92
416.109	3.02
416.317	2.86
416.525	2.8
416.733	2.79
416.941	2.93
417.149	2.89
417.357	2.98
417.564	3.01
417.772	3.11
417.98	3.03
418.188	3.01
418.395	2.99
418.603	3.21
418.811	2.85
419.019	2.84
419.226	2.92
419.434	2.95
419.642	2.79
419.849	2.98
420.057	2.95
420.265	2.86
420.472	2.73
420.68	2.68
420.887	2.74
421.095	2.77
421.302	2.94
421.51	3.03
421.717	3.12
421.925	2.95
422.132	2.88
422.34	2.61
422.547	2.62
422.755	2.54
422.962	2.54
423.17	2.53
423.377	2.66
423.585	2.7
423.792	2.65
423.999	2.72
424.207	2.74
424.414	2.7
424.621	2.45
424.829	2.45
425.036	2.42
425.243	2.6
425.451	2.52
425.658	2.6
425.865	2.65
426.072	2.72
426.28	2.64
426.487	2.58
426.694	2.58
426.901	2.54
427.108	2.49
427.315	2.4
427.523	2.62
427.73	2.62
427.937	2.57
428.144	2.43
428.351	2.44
428.558	2.54
428.765	2.34
428.972	2.38
429.179	2.57
429.386	2.83
429.593	2.62
429.8	2.74
430.007	2.85
430.214	2.87
430.421	2.64
430.628	2.55
430.835	2.47
431.042	2.45
431.249	2.5
431.456	2.52
431.662	2.63
431.869	2.79
432.076	2.8
432.283	2.82
432.49	2.86
432.697	2.88
432.903	2.7
433.11	2.62
433.317	2.64
433.524	2.66
433.73	2.68
433.937	2.94
434.144	2.98
434.35	2.84
434.557	2.69
434.764	2.67
434.97	2.52
435.177	2.55
435.384	2.67
435.59	2.83
435.797	2.91
436.003	2.96
436.21	3
436.416	3.06
436.623	3.07
436.829	3.19
437.036	3.36
437.242	3.4
437.449	3.38
437.655	3.43
437.862	3.29
438.068	3.2
438.275	3.35
438.481	3.5
438.687	3.43
438.894	3.44
439.1	3.5
439.307	3.45
439.513	3.29
439.719	3.3
439.926	3.42
440.132	3.35
440.338	3.24
440.544	3.43
440.751	3.45
440.957	3.44
441.163	3.37
441.369	3.52
441.575	3.28
441.782	3.31
441.988	3.28
442.194	3.39
442.4	3.31
442.606	3.53
442.812	3.55
443.018	3.57
443.224	3.62
443.431	3.63
443.637	3.49
443.843	3.41
444.049	3.4
444.255	3.38
444.461	3.44
444.667	3.46
444.873	3.62
445.079	3.7
445.284	3.85
445.49	3.72
445.696	3.65
445.902	3.54
446.108	3.56
446.314	3.38
446.52	3.46
446.726	3.71
446.931	3.75
447.137	3.71
447.343	3.77
447.549	3.73
447.755	3.59
447.96	3.54
448.166	3.49
448.372	3.41
448.578	3.47
448.783	3.48
448.989	3.63
449.195	3.66
449.4	3.74
449.606	3.69
449.812	3.66
450.017	3.59
450.223	3.71
450.428	3.66
450.634	3.82
450.84	3.81
451.045	3.83
451.251	3.74
451.456	4.01
451.662	3.98
451.867	4.1
452.073	4.11
452.278	4.07
452.483	3.95
452.689	3.89
452.894	3.86
453.1	3.87
453.305	3.92
453.51	3.93
453.716	3.96
453.921	3.97
454.127	3.87
454.332	3.89
454.537	3.83
454.742	3.78
454.948	3.7
455.153	3.85
455.358	3.86
455.563	4.02
455.769	4.12
455.974	4.13
456.179	4.07
456.384	3.99
456.589	3.88
456.795	3.75
457	3.8
457.205	3.86
457.41	3.97
457.615	3.95
457.82	4
458.025	3.87
458.23	3.86
458.435	3.76
458.64	3.75
458.845	3.86
459.05	4.04
459.255	4.09
459.46	4.13
459.665	4.18
459.87	4.18
460.075	4.17
460.28	4.21
460.485	4.24
460.69	4.26
460.895	4.19
461.099	4.18
461.304	4.13
461.509	4.16
461.714	4.05
461.919	4.13
462.123	3.99
462.328	4.01
462.533	3.99
462.738	4.09
462.942	4.06
463.147	4.2
463.352	4.23
463.556	4.22
463.761	4.21
463.966	4.19
464.17	4.27
464.375	4.2
464.58	4.23
464.784	4.21
464.989	4.29
465.193	4.19
465.398	4.27
465.602	4.31
465.807	4.33
466.011	4.41
466.216	4.41
466.42	4.43
466.625	4.49
466.829	4.57
467.034	4.54
467.238	4.71
467.443	4.62
467.647	4.54
467.851	4.55
468.056	4.53
468.26	4.49
468.464	4.59
468.669	4.69
468.873	4.73
469.077	4.68
469.282	4.76
469.486	4.71
469.69	4.72
469.894	4.66
470.099	4.73
470.303	4.72
470.507	4.71
470.711	4.66
470.915	4.68
471.119	4.63
471.324	4.63
471.528	4.72
471.732	4.74
471.936	4.7
472.14	4.8
472.344	4.83
472.548	4.8
472.752	4.97
472.956	5.18
473.16	5.15
473.364	4.98
473.568	4.98
473.772	4.96
473.976	4.82
474.18	4.8
474.384	4.99
474.588	5.02
474.792	4.97
474.995	5.11
475.199	5.22
475.403	5.23
475.607	5.23
475.811	5.2
476.015	5.23
476.218	5.23
476.422	5.19
476.626	5.26
476.83	5.28
477.033	5.26
477.237	5.2
477.441	5.33
477.644	5.26
477.848	5.25
478.052	5.2
478.255	5.28
478.459	5.24
478.663	5.44
478.866	5.56
479.07	5.66
479.273	5.76
479.477	5.75
479.681	5.66
479.884	5.64
480.088	5.57
480.291	5.49
480.495	5.53
480.698	5.54
480.901	5.53
481.105	5.64
481.308	5.65
481.512	5.63
481.715	5.7
481.919	5.82
482.122	5.82
482.325	5.86
482.529	5.93
482.732	5.89
482.935	5.89
483.138	5.79
483.342	5.84
483.545	5.82
483.748	5.9
483.952	5.85
484.155	6
484.358	5.96
484.561	6.01
484.764	5.92
484.967	5.99
485.171	6.03
485.374	6.06
485.577	6.06
485.78	6.11
485.983	6.07
486.186	5.98
486.389	5.97
486.592	5.99
486.795	6.01
486.998	6
487.201	6.06
487.404	6.08
487.607	6.14
487.81	6.1
488.013	6.16
488.216	6.12
488.419	6.11
488.622	6.04
488.825	6.06
489.028	6
489.231	6.01
489.433	5.97
489.636	5.89
489.839	5.93
490.042	5.94
490.245	5.91
490.447	5.99
490.65	6.1
490.853	6.07
491.056	6.1
491.258	6.15
491.461	6.14
491.664	6.13
491.866	6.1
492.069	6.16
492.272	6.1
492.474	6.14
492.677	6.16
492.879	6.31
493.082	6.28
493.285	6.39
493.487	6.38
493.69	6.42
493.892	6.31
494.095	6.31
494.297	6.34
494.5	6.37
494.702	6.35
494.905	6.43
495.107	6.49
495.309	6.43
495.512	6.48
495.714	6.51
495.917	6.47
496.119	6.41
496.321	6.47
496.524	6.49
496.726	6.48
496.928	6.59
497.13	6.63
497.333	6.68
497.535	6.69
497.737	6.74
497.939	6.71
498.142	6.77
498.344	6.71
498.546	6.69
498.748	6.72
498.95	6.77
499.152	6.77
499.355	6.87
499.557	6.9
499.759	6.91
499.961	6.91
500.163	6.94
500.365	6.89
500.567	6.91
500.769	6.91
500.971	6.92
501.173	6.86
501.375	7
501.577	7.04
501.779	6.99
501.981	7.01
502.183	7.1
502.385	6.96
502.587	6.98
502.788	7.08
502.99	7.16
503.192	7.25
503.394	7.33
503.596	7.41
503.798	7.47
503.999	7.51
504.201	7.45
504.403	7.47
504.605	7.45
504.806	7.41
505.008	7.39
505.21	7.49
505.411	7.53
505.613	7.53
505.815	7.56
506.016	7.6
506.218	7.61
506.42	7.61
506.621	7.67
506.823	7.75
507.024	7.72
507.226	7.71
507.427	7.78
507.629	7.82
507.83	7.86
508.032	7.91
508.233	7.99
508.435	8.08
508.636	8.18
508.838	8.16
509.039	8.19
509.24	8.16
509.442	8.17
509.643	8.07
509.845	8.17
510.046	8.3
510.247	8.4
510.448	8.4
510.65	8.51
510.851	8.49
511.052	8.45
511.254	8.44
511.455	8.49
511.656	8.46
511.857	8.52
512.058	8.59
512.26	8.64
512.461	8.7
512.662	8.79
512.863	8.8
513.064	8.83
513.265	8.85
513.466	8.87
513.667	8.88
513.868	8.91
514.069	8.91
514.27	8.99
514.471	9.03
514.672	9.07
514.873	9.04
515.074	9.07
515.275	9.01
515.476	8.97
515.677	8.95
515.878	9.05
516.079	9.1
516.28	9.15
516.481	9.29
516.682	9.34
516.882	9.27
517.083	9.27
517.284	9.29
517.485	9.27
517.686	9.27
517.886	9.4
518.087	9.4
518.288	9.49
518.488	9.5
518.689	9.53
518.89	9.51
519.091	9.61
519.291	9.54
519.492	9.63
519.692	9.67
519.893	9.7
520.094	9.67
520.294	9.73
520.495	9.68
520.695	9.71
520.896	9.7
521.096	9.77
521.297	9.81
521.497	9.83
521.698	9.9
521.898	9.92
522.099	9.93
522.299	10.01
522.499	10.09
522.7	10.09
522.9	10.13
523.101	10.17
523.301	10.15
523.501	10.1
523.702	10.13
523.902	10.25
524.102	10.36
524.302	10.36
524.503	10.46
524.703	10.48
524.903	10.45
525.103	10.34
525.304	10.41
525.504	10.48
525.704	10.49
525.904	10.5
526.104	10.56
526.304	10.56
526.504	10.55
526.705	10.52
526.905	10.6
527.105	10.66
527.305	10.63
527.505	10.66
527.705	10.76
527.905	10.74
528.105	10.78
528.305	10.78
528.505	10.75
528.705	10.82
528.905	10.86
529.105	10.84
529.304	10.96
529.504	11.05
529.704	11.01
529.904	11.04
530.104	11.11
530.304	11.1
530.503	11.1
530.703	11.13
530.903	11.12
531.103	11.13
531.303	11.16
531.502	11.2
531.702	11.26
531.902	11.37
532.101	11.32
532.301	11.34
532.501	11.38
532.7	11.33
532.9	11.3
533.1	11.34
533.299	11.38
533.499	11.41
533.698	11.45
533.898	11.5
534.097	11.58
534.297	11.6
534.496	11.6
534.696	11.61
534.895	11.74
535.095	11.81
535.294	11.84
535.494	11.85
535.693	11.89
535.892	11.85
536.092	11.81
536.291	11.78
536.491	11.91
536.69	11.92
536.889	11.9
537.088	11.99
537.288	12.07
537.487	12.05
537.686	12.15
537.886	12.19
538.085	12.26
538.284	12.37
538.483	12.39
538.682	12.45
538.882	12.57
539.081	12.6
539.28	12.58
539.479	12.57
539.678	12.58
539.877	12.62
540.076	12.63
540.275	12.66
540.474	12.81
540.673	12.86
540.872	12.89
541.071	13
541.27	13.05
541.469	13.11
541.668	13.1
541.867	13.11
542.066	13.17
542.265	13.26
542.464	13.21
542.663	13.26
542.862	13.33
543.06	13.3
543.259	13.36
543.458	13.48
543.657	13.65
543.856	13.71
544.054	13.67
544.253	13.63
544.452	13.67
544.651	13.67
544.849	13.65
545.048	13.82
545.247	13.95
545.445	13.97
545.644	13.99
545.843	14.11
546.041	14.17
546.24	14.2
546.438	14.33
546.637	14.4
546.836	14.55
547.034	14.59
547.233	14.72
547.431	14.74
547.63	14.86
547.828	14.79
548.027	14.82
548.225	14.86
548.423	14.89
548.622	14.9
548.82	15
549.019	15.12
549.217	15.13
549.415	15.22
549.614	15.3
549.812	15.34
550.01	15.35
550.209	15.44
550.407	15.51
550.605	15.53
550.803	15.71
551.002	15.82
551.2	15.88
551.398	15.97
551.596	16.19
551.794	16.28
551.993	16.42
552.191	16.57
552.389	16.72
552.587	16.67
552.785	16.65
552.983	16.72
553.181	16.81
553.379	16.83
553.577	16.97
553.775	17.09
553.973	17.23
554.171	17.34
554.369	17.46
554.567	17.54
554.765	17.63
554.963	17.74
555.161	17.77
555.359	17.9
555.557	18.04
555.755	18.18
555.952	18.2
556.15	18.31
556.348	18.37
556.546	18.49
556.744	18.57
556.941	18.61
557.139	18.71
557.337	18.78
557.535	18.82
557.732	18.85
557.93	18.93
558.128	18.99
558.325	19.09
558.523	19.14
558.721	19.23
558.918	19.41
559.116	19.53
559.313	19.61
559.511	19.77
559.708	19.92
559.906	20.05
560.104	20.11
560.301	20.22
560.498	20.31
560.696	20.34
560.893	20.42
561.091	20.52
561.288	20.62
561.486	20.66
561.683	20.81
561.88	20.9
562.078	21.07
562.275	21.14
562.473	21.3
562.67	21.48
562.867	21.57
563.064	21.6
563.262	21.73
563.459	21.85
563.656	21.88
563.853	21.9
564.051	22.05
564.248	22.17
564.445	22.24
564.642	22.34
564.839	22.57
565.036	22.69
565.234	22.83
565.431	22.95
565.628	23.04
565.825	23.1
566.022	23.2
566.219	23.27
566.416	23.34
566.613	23.5
566.81	23.53
567.007	23.56
567.204	23.57
567.401	23.58
567.598	23.59
567.795	23.64
567.991	23.65
568.188	23.79
568.385	23.93
568.582	24
568.779	24.12
568.976	24.3
569.172	24.42
569.369	24.46
569.566	24.51
569.763	24.57
569.96	24.58
570.156	24.5
570.353	24.48
570.55	24.52
570.746	24.54
570.943	24.61
571.14	24.65
571.336	24.8
571.533	24.95
571.729	24.99
571.926	25.02
572.123	25.19
572.319	25.15
572.516	25.02
572.712	25.11
572.909	25.11
573.105	25.13
573.302	25.18
573.498	25.26
573.695	25.24
573.891	25.26
574.087	25.23
574.284	25.29
574.48	25.42
574.677	25.48
574.873	25.58
575.069	25.61
575.266	25.67
575.462	25.58
575.658	25.57
575.854	25.66
576.051	25.68
576.247	25.62
576.443	25.7
576.639	25.71
576.835	25.6
577.032	25.52
577.228	25.6
577.424	25.61
577.62	25.56
577.816	25.57
578.012	25.63
578.208	25.61
578.404	25.62
578.6	25.71
578.796	25.68
578.993	25.8
579.189	25.82
579.384	25.76
579.58	25.76
579.776	25.79
579.972	25.75
580.168	25.63
580.364	25.66
580.56	25.57
580.756	25.55
580.952	25.46
581.148	25.48
581.343	25.53
581.539	25.62
581.735	25.65
581.931	25.73
582.127	25.9
582.322	25.77
582.518	25.76
582.714	25.69
582.909	25.63
583.105	25.61
583.301	25.68
583.496	25.67
583.692	25.65
583.888	25.64
584.083	25.58
584.279	25.59
584.474	25.54
584.67	25.6
584.866	25.65
585.061	25.5
585.257	25.5
585.452	25.55
585.648	25.52
585.843	25.46
586.039	25.59
586.234	25.61
586.429	25.58
586.625	25.65
586.82	25.61
587.015	25.61
587.211	25.57
587.406	25.69
587.601	25.74
587.797	25.78
587.992	25.77
588.187	25.81
588.383	25.73
588.578	25.6
588.773	25.77
588.968	25.86
589.163	25.89
589.359	25.91
589.554	26.01
589.749	25.88
589.944	25.94
590.139	25.99
590.334	26.07
590.529	26.1
590.724	26.17
590.919	26.14
591.114	26.13
591.309	26.19
591.504	26.3
591.699	26.25
591.894	26.35
592.089	26.45
592.284	26.39
592.479	26.44
592.674	26.49
592.869	26.52
593.064	26.53
593.259	26.64
593.454	26.67
593.648	26.77
593.843	26.75
594.038	26.85
594.233	26.89
594.428	26.95
594.622	27.01
594.817	27.13
595.012	27.11
595.206	27.15
595.401	27.11
595.596	27.19
595.79	27.2
595.985	27.32
596.18	27.34
596.374	27.55
596.569	27.54
596.763	27.67
596.958	27.69
597.153	27.83
597.347	27.73
597.542	27.84
597.736	27.84
597.931	27.85
598.125	27.8
598.319	28.02
598.514	27.95
598.708	28.02
598.903	28
599.097	28.12
599.291	28.06
599.486	28.11
599.68	28.14
599.874	28.32
600.069	28.29
600.263	28.31
600.457	28.52
600.651	28.45
600.846	28.47
601.04	28.47
601.234	28.52
601.428	28.53
601.622	28.62
601.817	28.53
602.011	28.61
602.205	28.61
602.399	28.66
602.593	28.74
602.787	28.81
602.981	28.89
603.175	29.06
603.369	28.93
603.563	29.01
603.757	29.12
603.951	29.08
604.145	28.85
604.339	28.89
604.533	28.69
604.727	28.51
604.921	28.43
605.115	28.49
605.309	28.59
605.502	28.63
605.696	28.66
605.89	28.7
606.084	28.7
606.278	28.53
606.471	28.42
606.665	28.44
606.859	28.32
607.053	28.26
607.246	28.25
607.44	28.27
607.634	28.19
607.827	28.15
608.021	28.11
608.214	28.06
608.408	27.96
608.602	27.96
608.795	28.04
608.989	27.94
609.182	27.81
609.376	27.81
609.569	27.71
609.763	27.57
609.956	27.53
610.15	27.53
610.343	27.51
610.537	27.37
610.73	27.29
610.923	27.23
611.117	27.21
611.31	27.12
611.504	27.08
611.697	27.03
611.89	26.95
612.083	26.86
612.277	26.84
612.47	26.75
612.663	26.71
612.856	26.68
613.05	26.6
613.243	26.59
613.436	26.53
613.629	26.4
613.822	26.33
614.015	26.26
614.209	25.98
614.402	26.01
614.595	26.12
614.788	26.12
614.981	25.99
615.174	26.02
615.367	26.04
615.56	25.87
615.753	25.74
615.946	25.71
616.139	25.78
616.332	25.72
616.525	25.59
616.718	25.57
616.911	25.63
617.103	25.55
617.296	25.45
617.489	25.51
617.682	25.57
617.875	25.52
618.067	25.54
618.26	25.43
618.453	25.38
618.646	25.2
618.838	25.18
619.031	25.16
619.224	25.17
619.417	25.28
619.609	25.44
619.802	25.32
619.994	25.18
620.187	25.16
620.38	25.03
620.572	24.86
620.765	25
620.957	25.02
621.15	24.92
621.342	24.88
621.535	24.93
621.727	24.78
621.92	24.71
622.112	24.66
622.305	24.65
622.497	24.56
622.69	24.61
622.882	24.61
623.074	24.74
623.267	24.72
623.459	24.66
623.651	24.56
623.844	24.54
624.036	24.5
624.228	24.44
624.42	24.49
624.613	24.62
624.805	24.6
624.997	24.55
625.189	24.52
625.381	24.53
625.574	24.37
625.766	24.36
625.958	24.39
626.15	24.45
626.342	24.42
626.534	24.44
626.726	24.36
626.918	24.35
627.11	24.31
627.302	24.26
627.494	24.29
627.686	24.31
627.878	24.23
628.07	24.13
628.262	24.1
628.454	24.01
628.646	24.02
628.838	24.03
629.029	24.13
629.221	24.13
629.413	24.18
629.605	24.13
629.797	24.03
629.989	23.97
630.18	23.88
630.372	23.71
630.564	23.68
630.755	23.76
630.947	23.78
631.139	23.73
631.33	23.67
631.522	23.72
631.714	23.64
631.905	23.56
632.097	23.58
632.289	23.6
632.48	23.53
632.672	23.48
632.863	23.5
633.055	23.47
633.246	23.39
633.438	23.32
633.629	23.29
633.821	23.17
634.012	23.2
634.203	23.26
634.395	23.26
634.586	23.26
634.777	23.25
634.969	23.19
635.16	23.19
635.351	23.05
635.543	23.06
635.734	23.04
635.925	23.03
636.117	22.99
636.308	23.11
636.499	23.02
636.69	23.01
636.881	22.98
637.073	22.93
637.264	22.89
637.455	22.92
637.646	22.92
637.837	22.83
638.028	22.85
638.219	22.77
638.41	22.68
638.601	22.55
638.792	22.65
638.983	22.54
639.174	22.51
639.365	22.52
639.556	22.5
639.747	22.4
639.938	22.45
640.129	22.39
640.32	22.37
640.511	22.35
640.701	22.32
640.892	22.24
641.083	22.26
641.274	22.21
641.465	22.16
641.655	22.08
641.846	22.09
642.037	22.02
642.228	21.91
642.418	21.93
642.609	21.94
642.8	21.94
642.99	21.83
643.181	21.91
643.372	21.88
643.562	21.82
643.753	21.67
643.943	21.62
644.134	21.48
644.324	21.33
644.515	21.3
644.705	21.3
644.896	21.32
645.086	21.35
645.277	21.3
645.467	21.28
645.658	21.28
645.848	21.23
646.038	21.22
646.229	21.24
646.419	21.1
646.61	21.06
646.8	21.05
646.99	20.98
647.18	20.92
647.371	21.02
647.561	20.88
647.751	20.88
647.941	20.83
648.132	20.84
648.322	20.76
648.512	20.82
648.702	20.82
648.892	20.78
649.082	20.77
649.272	20.67
649.462	20.57
649.653	20.43
649.843	20.32
650.033	20.3
650.223	20.25
650.413	20.14
650.603	20.07
650.793	20.08
650.983	19.98
651.172	19.91
651.362	19.98
651.552	19.93
651.742	19.89
651.932	19.84
652.122	19.89
652.312	19.81
652.502	19.76
652.691	19.65
652.881	19.55
653.071	19.46
653.261	19.3
653.45	19.23
653.64	19.24
653.83	19.2
654.019	19.1
654.209	19.03
654.399	18.87
654.588	18.61
654.778	18.49
654.968	18.3
655.157	18.3
655.347	18.27
655.536	18.23
655.726	18.04
655.915	17.89
656.105	17.65
656.294	17.47
656.484	17.32
656.673	17.22
656.863	17.26
657.052	17.12
657.241	16.87
657.431	16.65
657.62	16.48
657.809	16.1
657.999	15.96
658.188	15.9
658.377	15.76
658.567	15.66
658.756	15.54
658.945	15.39
659.134	15.22
659.324	15.04
659.513	14.77
659.702	14.62
659.891	14.41
660.08	14.22
660.269	14.18
660.458	13.91
660.648	13.79
660.837	13.62
661.026	13.5
661.215	13.19
661.404	13.1
661.593	12.99
661.782	12.78
661.971	12.64
662.16	12.49
662.349	12.4
662.538	12.15
662.726	12.09
662.915	11.88
663.104	11.85
663.293	11.77
663.482	11.75
663.671	11.6
663.86	11.5
664.048	11.36
664.237	11.31
664.426	11.08
664.615	11.01
664.803	10.87
664.992	10.75
665.181	10.46
665.369	10.29
665.558	10.21
665.747	10.15
665.935	10.2
666.124	10.25
666.312	10.3
666.501	10.21
666.69	10.09
666.878	9.9
667.067	9.7
667.255	9.7
667.444	9.69
667.632	9.78
667.82	9.79
668.009	9.85
668.197	9.65
668.386	9.61
668.574	9.6
668.762	9.56
668.951	9.49
669.139	9.51
669.327	9.41
669.516	9.28
669.704	9.23
669.892	9.28
670.08	9.2
670.269	9.13
670.457	9.13
670.645	8.99
670.833	8.97
671.021	9.09
671.21	9.23
671.398	9.27
671.586	9.33
671.774	9.22
671.962	9.18
672.15	9.11
672.338	9.08
672.526	9.09
672.714	9.07
672.902	9.18
673.09	9.34
673.278	9.49
673.466	9.64
673.654	9.77
673.842	9.73
674.03	9.67
674.218	9.6
674.405	9.53
674.593	9.49
674.781	9.48
674.969	9.49
675.157	9.56
675.344	9.76
675.532	9.98
675.72	10.07
675.908	10.15
676.095	10.25
676.283	10.2
676.471	10.33
676.658	10.37
676.846	10.41
677.033	10.5
677.221	10.63
677.409	10.42
677.596	10.57
677.784	10.6
677.971	10.59
678.159	10.61
678.346	10.77
678.534	10.87
678.721	11.15
678.909	11.24
679.096	11.28
679.283	11.53
679.471	11.63
679.658	11.74
679.846	11.99
680.033	12.27
680.22	12.35
680.408	12.37
680.595	12.37
680.782	12.42
680.969	12.53
681.157	12.6
681.344	12.79
681.531	12.96
681.718	13.06
681.905	13.22
682.093	13.51
682.28	13.8
682.467	14.22
682.654	14.45
682.841	14.61
683.028	14.65
683.215	14.86
683.402	14.84
683.589	15.06
683.776	15.44
683.963	15.77
684.15	15.94
684.337	16.33
684.524	16.56
684.711	16.79
684.898	16.94
685.085	17.21
685.271	17.47
685.458	17.74
685.645	18.04
685.832	18.57
686.019	18.98
686.205	19.21
686.392	19.63
686.579	19.93
686.766	20.21
686.952	20.6
687.139	21.24
687.326	21.61
687.512	21.97
687.699	22.31
687.886	22.68
688.072	22.96
688.259	23.45
688.445	24.13
688.632	24.57
688.818	25.18
689.005	25.62
689.191	26.16
689.378	26.54
689.564	27.09
689.751	27.54
689.937	28.01
690.124	28.53
690.31	28.84
690.496	29.41
690.683	29.86
690.869	30.41
691.055	30.76
691.242	31.35
691.428	31.63
691.614	32.14
691.8	32.78
691.987	33.53
692.173	34.13
692.359	34.98
692.545	35.45
692.731	35.89
692.918	36.28
693.104	36.83
693.29	37.34
693.476	37.95
693.662	38.56
693.848	39.14
694.034	39.58
694.22	40.08
694.406	40.59
694.592	40.93
694.778	41.44
694.964	41.93
695.15	42.36
695.336	42.78
695.522	43.66
695.708	44.08
695.894	44.65
696.08	45.34
696.265	45.99
696.451	46.34
696.637	46.79
696.823	47.34
697.009	47.88
697.194	48.34
697.38	48.6
697.566	49.11
697.751	49.53
697.937	50.11
698.123	50.76
698.308	51.1
698.494	51.67
698.68	52.19
698.865	52.19
699.051	52.53
699.236	53.14
699.422	53.52
699.607	53.92
699.793	54.52
699.978	54.82
700.164	55.19
700.349	55.59
700.535	55.86
700.72	56.04
700.906	56.52
701.091	56.88
701.276	57.2
701.462	57.79
701.647	58.53
701.832	58.86
702.018	59.38
702.203	59.83
702.388	59.77
702.573	59.97
702.759	60.3
702.944	60.53
703.129	60.59
703.314	61.05
703.499	61.25
703.684	61.43
703.87	61.98
704.055	62.46
704.24	62.59
704.425	63.06
704.61	63.56
704.795	63.35
704.98	63.49
705.165	63.88
705.35	63.93
705.535	64.05
705.72	64.58
705.905	65.14
706.09	65.59
706.275	65.85
706.459	65.99
706.644	66.04
706.829	66.23
707.014	66.2
707.199	66.7
707.384	66.85
707.568	67.05
707.753	67.25
707.938	67.54
708.123	67.51
708.307	67.78
708.492	68.08
708.677	68.2
708.861	68.27
709.046	68.5
709.231	68.91
709.415	69.35
709.6	69.27
709.784	69.38
709.969	69.24
710.153	68.94
710.338	68.8
710.522	69.38
710.707	69.85
710.891	69.84
711.076	70.4
711.26	70.4
711.445	70.55
711.629	70.71
711.813	71.38
711.998	71.47
712.182	71.83
712.366	71.92
712.551	72.24
712.735	72.34
712.919	72.19
713.103	72.18
713.288	72.03
713.472	72.05
713.656	72.46
713.84	72.8
714.024	73.39
714.208	73.57
714.393	73.83
714.577	73.48
714.761	73.57
714.945	73.11
715.129	73.57
715.313	73.58
715.497	73.63
715.681	74.27
715.865	74.36
716.049	74.33
716.233	74.33
716.417	74.85
716.601	74.42
716.785	74.75
716.968	74.82
717.152	74.43
717.336	74.48
717.52	74.62
717.704	74.79
717.888	74.96
718.071	75.67
718.255	75.76
718.439	75.6
718.622	75.55
718.806	75.89
718.99	75.45
719.174	75.19
719.357	75.47
719.541	75.81
719.724	75.33
719.908	76.28
720.092	76.5
720.275	76.56
720.459	76.57
720.642	76.84
720.826	76.51
721.009	76.61
721.193	76.55
721.376	76.88
721.559	76.81
721.743	77.08
721.926	77.25
722.11	77.81
722.293	77.26
722.476	77.48
722.66	77.15
722.843	77.13
723.026	76.67
723.21	77.23
723.393	77.7
723.576	77.78
723.759	77.99
723.942	78.29
724.126	78.18
724.309	77.8
724.492	77.86
724.675	77.52
724.858	78.07
725.041	77.97
725.224	78.01
725.407	78.25
725.59	79
725.774	79.08
725.957	78.75
726.14	79.34
726.322	79.32
726.505	78.9
726.688	79.08
726.871	79.96
727.054	79.51
727.237	79.48
727.42	79.6
727.603	79.2
727.786	79.11
727.968	79.39
728.151	79.66
728.334	79.79
728.517	79.8
728.699	80.07
728.882	80.42
729.065	80.67
729.248	80.65
729.43	81.08
729.613	81.1
729.796	81.4
729.978	80.96
730.161	81.33
730.343	80.95
730.526	81.52
730.708	80.89
730.891	81.6
731.073	81.42
731.256	81.58
731.438	81.59
731.621	81.77
731.803	81.45
731.986	81.8
732.168	81.79
732.35	81.81
732.533	81.95
732.715	82.41
732.898	82.39
733.08	82.49
733.262	82.53
733.444	82.21
733.627	81.92
733.809	82.4
733.991	82.46
734.173	81.65
734.355	82.24
734.538	82.65
734.72	82.27
734.902	82.88
735.084	83.72
735.266	83.65
735.448	84.15
735.63	84.42
735.812	84.16
735.994	84.51
736.176	84.86
736.358	84.27
736.54	84.75
736.722	84.7
736.904	84.11
737.086	84.18
737.268	85.03
737.45	84.93
737.632	85.05
737.814	84.9
737.995	84.86
738.177	84.04
738.359	82.91
738.541	82.82
738.723	82.9
738.904	83.33
739.086	83.47
739.268	84.46
739.449	84.48
739.631	84.84
739.813	84.51
739.994	85.35
740.176	86.31
740.358	86.47
740.539	86.79
740.721	86.95
740.902	86.83
741.084	85.75
741.265	85.52
741.447	84.95
741.628	84.42
741.81	83.35
741.991	83.66
742.172	84.04
742.354	84.81
742.535	85.45
742.717	86.69
742.898	87.4
743.079	87.93
743.261	87.43
743.442	86.84
743.623	86.72
743.804	86.31
743.986	86.28
744.167	85.78
744.348	86.16
744.529	85.96
744.71	84.92
744.891	84.29
745.073	84.28
745.254	84.09
745.435	83.94
745.616	83.72
745.797	83.99
745.978	83.8
746.159	84.02
746.34	83.91
746.521	85.62
746.702	84.51
746.883	84.44
747.064	84.46
747.245	84.99
747.426	84.39
747.606	85.38
747.787	86.04
747.968	86.56
748.149	86.86
748.33	86.83
748.51	86.52
748.691	86.64
748.872	86.02
749.053	84.13
749.233	84.12
749.414	84.52
749.595	84.67
749.775	84.31
749.956	85.57
750.137	84.97
750.317	85.77
750.498	85.85
750.678	86.36
750.859	86.11
751.04	87.41
751.22	85.88
751.4	85.7
751.581	84.36
751.761	84.85
751.942	84
752.122	84.18
752.303	84.08
752.483	85
752.663	85
752.844	84.88
753.024	85.98
753.204	86.9
753.385	86.73
753.565	86.02
753.745	86.22
753.925	85.19
754.106	83.77
754.286	83.52
754.466	84.56
754.646	84.85
754.826	84.26
755.006	84.93
755.187	85.54
755.367	85.11
755.547	85.88
755.727	86.53
755.907	86.86
756.087	87.7
756.267	86.28
756.447	84.19
756.627	83.81
756.807	83.48
756.987	81.99
757.167	82.91
757.346	83.39
757.526	83.69
757.706	84.71
757.886	87.24
758.066	88.16
758.246	89.12
758.425	89.41
758.605	88.67
758.785	87.59
758.965	86.67
759.144	84.74
759.324	84.75
759.504	84.87
759.683	85.09
759.863	85.2
760.043	85.36
760.222	85.46
760.402	83.9
760.581	82.16
760.761	82.29
760.94	83.7
761.12	84.31
761.299	85.22
761.479	86.22
761.658	85.18
761.838	83.64
762.017	82.61
762.197	83.4
762.376	82.67
762.555	82.48
762.735	83.19
762.914	83.08
763.093	83.09
763.273	83.51
763.452	83.77
763.631	85.27
763.81	86.39
763.99	85.76
764.169	85.97
764.348	85.95
764.527	84.5
764.706	84.23
764.885	85.66
765.064	83.82
765.243	85.67
765.423	86.39
765.602	84.88
765.781	82.22
765.96	82.19
766.139	80.16
766.318	80.14
766.497	81.17
766.676	81
766.854	82.71
767.033	82.01
767.212	80.52
767.391	79.3
767.57	80.86
767.749	80.66
767.928	83.3
768.106	83.36
768.285	83.46
768.464	83.77
768.643	84.11
768.821	83.32
769	83.59
769.179	84.24
769.357	83.3
769.536	82.62
769.715	82.08
769.893	83.48
770.072	83.17
770.25	84.16
770.429	84.59
770.607	84.37
770.786	82.6
770.964	83.34
771.143	82.14
771.321	83.15
771.5	84.22
771.678	84.15
771.857	83.61
772.035	82.59
772.213	81.05
772.392	79.09
772.57	80.38
772.748	80.29
772.927	80.04
773.105	80.2
773.283	81.03
773.461	81.22
773.64	82.7
773.818	84.87
773.996	84.24
774.174	84.44
774.352	82.62
774.531	78.76
774.709	79.56
774.887	79.56
775.065	78.85
775.243	80.92
775.421	83.07
775.599	82.79
775.777	81.41
775.955	80.6
776.133	79.86
776.311	81.1
776.489	79.81
776.667	82.09
776.844	82.26
777.022	79.08
777.2	78.17
777.378	77.28
777.556	77.86
777.734	79.45
777.911	83.99
778.089	84.53
778.267	84.45
778.445	81.66
778.622	82.02
778.8	78.9
778.978	77.68
779.155	76.4
779.333	78.02
779.511	78.61
779.688	80.77
779.866	79.26
780.043	79.72
780.221	77.7
780.398	74.58
780.576	74.75
780.753	76.61
780.931	74.62
781.108	76.91
781.286	77.63
781.463	76.01
781.64	76.29
781.818	78.63
781.995	77.27
782.172	76.43
782.35	77.21
782.527	75.96
782.704	76.58
782.882	76.3
783.059	78.83
783.236	80.65
783.413	83.3
783.59	84.32
783.768	82.97
783.945	81.86
784.122	79.27
784.299	78.62
784.476	78
784.653	76.13
784.83	75.64
785.007	73.86
785.184	73.84
785.361	73.06
785.538	79.2
785.715	80.77
785.892	82.74
786.069	83.8
786.246	85.77
786.423	83.47
786.6	83.85
786.776	84.61
786.953	81.01
787.13	79.9
787.307	79.21
787.484	78.61
787.66	78.62
787.837	82.45
788.014	80.57
788.191	77.83
788.367	75.99
788.544	75.99
788.721	72.66
788.897	76.99
789.074	81.53
789.25	81.45
789.427	82.26
789.603	85.77
789.78	82.98
789.956	80.65
790.133	80.67
790.309	79.06
790.486	77.76
790.662	78.75
790.839	79.8
791.015	79.57
791.192	79.14
791.368	79.16
791.544	78.39
791.721	80.11
791.897	82.53
792.073	83.76
792.249	79.4
792.426	79.45
792.602	78.52
792.778	79.35
792.954	78.46
793.13	81.05
793.307	76.58
793.483	70.12
793.659	70.87
793.835	70.01
794.011	73.21
794.187	77.44
794.363	81.88
794.539	79.77
794.715	76.95
794.891	68.04
795.067	68.92
795.243	71.11
795.419	70.24
795.595	70.18
795.771	75.05
795.947	70.79
796.122	69.41
796.298	71.22
796.474	72.41
796.65	71.44
796.826	74
797.001	70.84
797.177	66.99
797.353	72.14
797.529	72
797.704	72.44
797.88	78.56
798.056	79.01
798.231	74.95
798.407	78.1
798.582	80.46
798.758	77.74
798.934	81.11
799.109	78.23
799.285	76.98
799.46	73.34
799.636	74.18
799.811	74.01
799.986	77.67
800.162	80.44
800.337	84.86
800.513	81.09
800.688	80.01
800.863	86.92
801.039	83.56
801.214	80.09
801.389	86.34
801.565	83.31
801.74	72.99
801.915	75.38
802.09	77.67
802.265	77.33
802.441	78.61
802.616	83.79
802.791	83.53
802.966	82.86
803.141	84.57
803.316	81.58
803.491	78.3
803.666	81.91
803.841	79.66
804.016	72.69
804.191	76.87
804.366	78.97
804.541	72.72
804.716	71.7
804.891	69.68
805.066	69.74
805.241	65.96
805.416	65.33
805.591	66.88
805.765	69.73
805.94	69.81
806.115	67.37
806.29	65.97
806.464	60.35
806.639	55.48
806.814	55.52
806.989	58.94
807.163	62.94
807.338	74.94
807.512	81.62
807.687	71.36
807.862	74.28
808.036	78.81
808.211	74.54
808.385	77.83
808.56	90.06
808.734	102.01
808.909	96.63
809.083	95.5
809.258	93.2
809.432	88.76
809.606	70.74
809.781	69.16
809.955	68.3
810.13	68.23
810.304	69.79
810.478	70.37
810.652	71.98
810.827	73.63
811.001	69.38
811.175	64.37
811.349	63.39
811.524	64.59
811.698	55.79
811.872	62.38
812.046	73.92
812.22	75.87
812.394	68.76
812.568	83.49
812.742	80.97
812.916	70.52
813.09	68.57
813.264	74.91
813.438	69.45
813.612	66.34
813.786	68.51
813.96	76.78
814.134	73.71
814.308	74.29
814.482	72.07
814.656	59.45
814.83	66.22
815.003	67.6
815.177	58.72
815.351	54.31
815.525	56.4
815.698	52.44
815.872	46.79
816.046	45.59
816.219	51.68
816.393	60.98
816.567	54.12
816.74	60.91
816.914	67.06
817.088	68.5
817.261	60.06
817.435	69.23
817.608	66.14
817.782	65.72
817.955	67.02
818.129	61.67
818.302	58.97
818.475	65.67
818.649	69.23
818.822	61.69
818.996	78.21
819.169	81.89
819.342	74.26
819.516	73.24
819.689	78.25
819.862	72.42
820.035	63.98
820.209	65.47
820.382	58.6
820.555	62.32
820.728	55.79
820.901	54.85
821.075	54.81
821.248	68.87
821.421	62.49
821.594	63.09
821.767	73.76
821.94	71.92
822.113	52.33
822.286	54.5
822.459	59.9
822.632	45.48
822.805	44.44
822.978	49.46
823.151	47.94
823.324	46.24
823.496	46.15
823.669	53.82
823.842	56.74
824.015	55.75
824.188	53.12
824.361	62.51
824.533	58.01
824.706	54.91
824.879	61.41
825.051	57.6
825.224	50.88
825.397	40.14
825.569	29.87
825.742	35.19
825.915	40.64
826.087	55.93
826.26	47.6
826.432	73.83
826.605	75.63
826.777	72.44
826.95	63.96
827.122	72.46
827.295	56.84
827.467	61.81
827.64	61.73
827.812	63.84
827.984	59.64
828.157	65.13
828.329	27.39
828.501	32.32
828.674	38.65
828.846	33.11
829.018	35.9
829.19	33.79
829.363	41.96
829.535	49.52
829.707	56.89
829.879	58.41
830.051	58.9
830.223	51.27
830.395	42.04
830.568	28.84
830.74	26.71
830.912	44.3
831.084	31.67
831.256	41.21
831.428	50.13
831.6	37.22
831.772	21.66
831.943	23.75
832.115	15.93
832.287	31.27
832.459	47.87
832.631	52.98
832.803	57.39
832.975	54.95
833.146	54.99
833.318	54.47
833.49	71.34
833.662	81.71
833.833	73.99
834.005	67.57
834.177	74.14
834.348	59.63
834.52	58.51
834.692	58.34
834.863	33.54
835.035	38.41
835.206	17.02
835.378	37.4
835.549	35.89
835.721	51.45
835.892	31.89
836.064	41.12
836.235	45.06
836.407	78.33
836.578	66.26
836.749	96.97
836.921	121.15
837.092	55.46
837.264	11.33
837.435	13.09
837.606	21.99
837.777	37.74
837.949	41.74
838.12	49.15
838.291	50.42
838.462	41.39
838.633	22.67
838.805	36.46
838.976	53.21
839.147	33.19
839.318	20.73
839.489	4.63
839.66	-46.03
839.831	-8.01
840.002	19.37
840.173	21.54
840.344	68.87
840.515	155.62
840.686	83.29
840.857	65.73
841.028	112.82
841.199	56.45
841.369	50.05
841.54	50.33
841.711	59.16
841.882	62.05
842.053	62.97
842.223	34.34
842.394	42.9
842.565	49.56
842.736	43.23
842.906	53.19
843.077	66.56
843.248	78.53
843.418	59.64
843.589	39.17
843.759	23.27
843.93	24.91
844.101	40.46
844.271	44.19
844.442	45.53
844.612	48.31
844.783	30.9
844.953	5.83
845.123	-42.94
845.294	-64.52
845.464	-227.91
845.635	-82.04
845.805	-4.41
845.975	40.37
846.146	24.13
846.316	35.39
846.486	38.91
846.656	52.29
846.827	53.78
846.997	78.25
847.167	90.53
847.337	67.21
847.507	57.65
847.677	69.28
847.848	76.91
848.018	68.84
848.188	63.99
848.358	64.34
848.528	39.07
848.698	4.07
848.868	-34.97
849.038	-54.52
849.208	16.75
849.378	46.79
849.548	56.23
849.718	65.06
849.887	83.43
850.057	49.92
850.227	59.23
850.397	21.65
850.567	-5.01
850.737	-101.09
850.906	-286.88
851.076	-244.92
851.246	21.2
851.415	42.55
851.585	24.66
851.755	11.54
851.924	3
852.094	-33.02
852.264	-137.72
852.433	-696.63
852.603	-144.43
852.772	-20.99
852.942	20.53
853.111	28.42
853.281	23.71
853.45	47.51
853.62	21.97
853.789	42.62
853.959	96.47
854.128	90.43
854.297	56.8
854.467	23.18
854.636	42.11
854.805	37.82
854.975	10.81
855.144	46.44
855.313	292.66
855.482	-47.08
855.652	-59.68
855.821	58.87
855.99	52.67
856.159	19.85
856.328	38.5
856.497	34.45
856.667	22.92
856.836	10.07
857.005	8.56
857.174	2.24
857.343	7.69
857.512	56.25
857.681	41.12
857.85	53.27
858.019	25.71
858.188	24.03
858.356	5.45
858.525	7.61
858.694	-2.01
858.863	-51.67
859.032	17.39
859.201	-15.45
859.369	24.87
859.538	63.51
859.707	40.85
859.876	28.35
860.044	50.93
860.213	41.25
860.382	41.44
860.55	71.91
860.719	72.19
860.888	68.61
861.056	42.18
861.225	30.66
861.393	85.6
861.562	50.51
861.73	30.18
861.899	-21.2
862.067	212.07
862.236	-82.82
862.404	-104.18
862.572	-45.9
862.741	38
862.909	9.75
863.078	16.7
863.246	31.34
863.414	41.73
863.582	34.23
863.751	51.84
863.919	49.28
864.087	64.85
864.255	103.6
864.424	121.31
864.592	119.15
864.76	88.76
864.928	351.6
865.096	44.43
865.264	86.12
865.432	-248.86
865.6	83.25
865.768	-36.01
865.936	-50.81
866.104	-97.22
866.272	-82.03
866.44	-154.13
866.608	250.27
866.776	51.91
866.944	589.53
867.112	-107.42
867.28	-42
867.448	19.03
867.615	16.49
867.783	36.93
867.951	13.89
868.119	41.02
868.286	50.77
868.454	15.97
868.622	-15.39
868.789	37.78
868.957	1339.29
869.125	-548.68
869.292	1.84
869.46	47.34
869.627	85.62
869.795	35.53
869.963	43.82
870.13	48.77
870.298	24.02
870.465	-45.91
870.632	-31.04
870.8	-11.85
870.967	-63.76
871.135	-75.79
871.302	-63.77
871.469	-158.3
871.637	-290.93
871.804	-106.66
871.971	-99.9
872.139	-402.56
872.306	-48.11
872.473	-12.76
872.64	-148.71
872.807	-29.71
872.975	58.77
873.142	25.64
873.309	547.3
873.476	54.57
873.643	60.18
873.81	25.05
873.977	40.63
874.144	40.35
874.311	-56.82
874.478	-54.66
874.645	-41.26
874.812	1.95
874.979	18.78
875.146	25.53
875.313	-15.74
875.48	6.3
875.647	-7.44
875.813	-24.11
875.98	-1.88
876.147	-21.12
876.314	-77.57
876.481	697.93
876.647	-834.27
876.814	499.74
876.981	-13.27
877.147	21.94
877.314	54.34
877.481	47.52
877.647	50.58
877.814	33.54
877.98	23.39
878.147	0.63
878.314	57.13
878.48	60.64
878.647	45.98
878.813	66.58
878.979	66.79
879.146	34.02
879.312	25.55
879.479	-34.14
879.645	-131.81
879.811	-165.14
879.978	-411.07
880.144	-95.65
880.31	-13.81
880.477	-40.58
880.643	-146.3
880.809	-9.2
880.975	-15.93
881.142	-197.73
881.308	-4.98
881.474	11.85
881.64	-52.14
881.806	-49.77
881.972	-17.71
882.138	-15.62
882.304	-58.36
882.47	-59.28
882.636	-266.8
882.802	-161.94
882.968	-53.8
883.134	-8.65
883.3	-44.66
883.466	-0.34
883.632	33.85
883.798	24.29
883.964	13.64
884.129	62.67
884.295	46.72
884.461	16
884.627	10.01
884.793	23.71
884.958	9.94
885.124	-23.32
885.29	-61.17
885.455	-22.57
885.621	51.52
885.787	-4.24
885.952	20.5
886.118	2.39
886.283	-41.8
886.449	-121.27
886.614	-70.45
886.78	-136.73
886.945	725.41
887.111	-101.45
887.276	-63.92
887.442	-271.36
887.607	-176.18
887.773	-40.61
887.938	-47.39
888.103	-82.2
888.269	-94.43
888.434	-158.11
888.599	-53.67
888.764	-37.21
888.93	-15.92
889.095	-5.8
889.26	-10.57
889.425	25.92
889.59	72.54
889.756	94.55
889.921	86.37
890.086	122.78
890.251	70.62
890.416	9.27
890.581	-258.87
890.746	194.46
890.911	400.32
891.076	119.83
891.241	21.27
891.406	98.24
891.571	162.44
891.736	98.39
891.901	104.87
892.065	176.37
892.23	114.13
892.395	140.61
892.56	121.82
892.725	116.02
892.889	62.2
893.054	45.9
893.219	99.38
893.384	121.1
893.548	105.18
893.713	120
893.878	119.86
