Data from Ofra_PS_T2_2A_0CX05_Reflection_3.txt Node
Date: Wed Jul 21 16:50:06 EDT 2021
User: Adam
Spectrometer: FLMT01687
Trigger mode: 0
Integration Time (sec): 1.100000E0
Scans to average: 2
Electric dark correction enabled: true
Nonlinearity correction enabled: false
Boxcar width: 2
XAxis mode: Wavelengths
Number of Pixels in Spectrum: 3648
>>>>>Begin Spectral Data<<<<<
179.494	369.6
179.716	381.88
179.937	395.56
180.158	403.5
180.38	667.5
180.601	291.71
180.823	88.24
181.044	-5.69
181.265	-44.12
181.486	-24.13
181.708	26.33
181.929	208.16
182.15	-228.17
182.372	32.43
182.593	-20.91
182.814	17.56
183.035	21.91
183.257	29.61
183.478	-22.34
183.699	-22.32
183.92	-35.7
184.141	-29.5
184.363	-45.27
184.584	-39.9
184.805	-18.48
185.026	6.31
185.247	13.02
185.468	10.96
185.689	10.7
185.91	33.77
186.132	27.02
186.353	16.96
186.574	53.12
186.795	76.55
187.016	44.85
187.237	24.67
187.458	38.26
187.679	10.65
187.9	-15.99
188.121	-9.45
188.342	1.22
188.563	41.31
188.784	32.89
189.005	48.76
189.226	104.38
189.447	115.02
189.667	90.29
189.888	127.09
190.109	194.81
190.33	-34.84
190.551	-347.79
190.772	-55.21
190.993	-65.87
191.214	-50.44
191.434	-46.65
191.655	17.67
191.876	-0.53
192.097	-31.47
192.318	-73.77
192.538	-93.26
192.759	-86.68
192.98	-51.89
193.201	-3.12
193.421	27.75
193.642	30.05
193.863	23.74
194.083	16.19
194.304	12.44
194.525	9.56
194.745	-7.8
194.966	1.8
195.187	21.94
195.407	-4.72
195.628	-62.04
195.848	-67.25
196.069	-57.95
196.29	-37
196.51	-30.03
196.731	-19.84
196.951	-5.85
197.172	-8.8
197.392	-49.33
197.613	-50.63
197.833	-107.09
198.054	-92.38
198.274	-62.49
198.495	-56.14
198.715	-12.6
198.936	9.93
199.156	19.75
199.377	-4.17
199.597	-24.1
199.817	-34.52
200.038	-8.27
200.258	-27.42
200.479	15.28
200.699	48.76
200.919	39.05
201.14	21.48
201.36	22.78
201.58	37.48
201.801	49.79
202.021	30.76
202.241	30.68
202.461	13.11
202.682	-61.78
202.902	-132.45
203.122	-54.92
203.342	-46.89
203.563	-4.27
203.783	12.12
204.003	4.84
204.223	-11.51
204.443	26.64
204.663	-9.78
204.884	12.2
205.104	27.63
205.324	24
205.544	37.7
205.764	55.92
205.984	43.07
206.204	52.4
206.424	38.2
206.644	23.55
206.864	25.88
207.084	43.18
207.304	-4.01
207.525	-28.12
207.745	-8.44
207.964	5.56
208.184	-34.3
208.404	-16.93
208.624	-25.87
208.844	-21.04
209.064	-164.52
209.284	-170.98
209.504	-127.2
209.724	-19.5
209.944	-33.84
210.164	7.05
210.384	25.93
210.604	20.27
210.823	-13.07
211.043	4.81
211.263	-16.25
211.483	-29.62
211.703	-33.36
211.922	-2.75
212.142	32.58
212.362	53.07
212.582	49.16
212.801	29.59
213.021	11.97
213.241	-8.27
213.461	-27.14
213.68	-31.37
213.9	-7.66
214.12	-6.17
214.339	-35.29
214.559	-32.72
214.779	-1.56
214.998	-11.22
215.218	-31.19
215.438	-14.8
215.657	-18.3
215.877	-15.1
216.096	19.18
216.316	29.83
216.535	22.27
216.755	25.25
216.974	-48.77
217.194	-128.09
217.413	-98.97
217.633	-93.22
217.852	-146.26
218.072	-54.52
218.291	17.74
218.511	29.01
218.73	23.16
218.95	21.16
219.169	30.96
219.389	-8.15
219.608	3.07
219.827	-6.89
220.047	2.4
220.266	3.5
220.485	13.42
220.705	22.99
220.924	22.06
221.143	44.03
221.363	26.56
221.582	28.59
221.801	11.7
222.021	20.26
222.24	-50.7
222.459	-13.94
222.678	-21.27
222.897	-31.8
223.117	-33.22
223.336	-28.48
223.555	5.74
223.774	34.56
223.993	55.63
224.213	67.07
224.432	55.81
224.651	49.23
224.87	27.95
225.089	21.49
225.308	14.37
225.527	29.14
225.746	26.58
225.965	15.89
226.184	0
226.404	16.25
226.623	-9.95
226.842	-4.73
227.061	16.25
227.28	20.75
227.499	0.87
227.718	13.58
227.936	-0.35
228.155	6.85
228.374	21.19
228.593	36.91
228.812	44.48
229.031	54.53
229.25	27.79
229.469	9.17
229.688	16.23
229.907	45.93
230.125	54.88
230.344	51.47
230.563	64.19
230.782	66.71
231.001	22.47
231.22	-1.4
231.438	16.46
231.657	10.53
231.876	-9.37
232.095	25.52
232.313	30.08
232.532	12.62
232.751	-7.13
232.969	1.49
233.188	-50.58
233.407	12.56
233.625	24.45
233.844	17.43
234.063	2.14
234.281	8.59
234.5	-1.41
234.719	1.89
234.937	11.75
235.156	27.88
235.374	43.69
235.593	30.76
235.811	28.22
236.03	27.34
236.249	10.98
236.467	6.38
236.686	20.68
236.904	37.69
237.123	25.71
237.341	27.54
237.559	20.04
237.778	22.2
237.996	-1.99
238.215	33.04
238.433	12.18
238.652	3.13
238.87	-15.8
239.088	-16.68
239.307	-16.96
239.525	-13.64
239.743	-16.93
239.962	6.72
240.18	-3.9
240.398	-34.24
240.617	-19.6
240.835	1.46
241.053	-0.57
241.271	40.7
241.49	47.86
241.708	36.99
241.926	20.41
242.144	8.14
242.363	-41.59
242.581	-65.94
242.799	-37.87
243.017	-19.45
243.235	-15.2
243.453	2.09
243.672	1.06
243.89	4.12
244.108	12.63
244.326	30.98
244.544	37.86
244.762	43.12
244.98	51.1
245.198	32.8
245.416	11.24
245.634	-0.21
245.852	-27.36
246.07	-43.2
246.288	-16.84
246.506	-47.86
246.724	-31.88
246.942	-0.89
247.16	39.76
247.378	39.14
247.596	60.25
247.814	70.54
248.032	61.79
248.25	38.99
248.468	29.05
248.685	33.01
248.903	34.38
249.121	35.24
249.339	18.9
249.557	19.34
249.775	30.09
249.992	-6.48
250.21	-11.95
250.428	18.72
250.646	-20.55
250.863	-47.18
251.081	-24.66
251.299	-21.69
251.517	-50.33
251.734	-15.57
251.952	-2.35
252.17	0.33
252.387	10.74
252.605	4.11
252.823	13.98
253.04	17.97
253.258	27
253.475	19.57
253.693	51.45
253.911	54.56
254.128	45.06
254.346	57.65
254.563	51.22
254.781	23.56
254.998	6.36
255.216	19.65
255.433	21.34
255.651	45.29
255.868	57.93
256.086	57.88
256.303	59.36
256.521	48.39
256.738	18.53
256.956	-2.08
257.173	-24.52
257.39	-51.98
257.608	-92.07
257.825	-56.86
258.043	-40.56
258.26	-17.33
258.477	2.63
258.695	-3.51
258.912	-29.75
259.129	-1.08
259.346	-10.32
259.564	-17.09
259.781	-1.73
259.998	54.79
260.216	63.12
260.433	83.49
260.65	64.86
260.867	56.35
261.084	9.77
261.302	-11.19
261.519	-31.51
261.736	-31.69
261.953	-47.37
262.17	-19.28
262.387	-32.3
262.604	-42.41
262.822	-40.93
263.039	-13.41
263.256	-17
263.473	8.67
263.69	6.4
263.907	29.64
264.124	22.75
264.341	4.81
264.558	-1.83
264.775	0.66
264.992	-12.81
265.209	9.8
265.426	26.27
265.643	23.02
265.86	26.78
266.077	40.07
266.294	23.94
266.51	7.56
266.727	28.04
266.944	27.64
267.161	9.1
267.378	9.73
267.595	37.9
267.812	2.32
268.028	-7.45
268.245	-1.81
268.462	3.08
268.679	-15.4
268.896	25.06
269.112	21.27
269.329	16.08
269.546	12.39
269.763	11.22
269.979	-8.29
270.196	-3.58
270.413	-17.53
270.629	-26.18
270.846	-28.71
271.063	-25.84
271.279	-30.43
271.496	-22.88
271.712	4.9
271.929	8.09
272.146	-7.45
272.362	10.64
272.579	17.22
272.795	7.68
273.012	19.93
273.228	23.55
273.445	17.9
273.661	23.86
273.878	21.84
274.094	31.41
274.311	34.03
274.527	47.81
274.744	50.22
274.96	37.2
275.177	20.31
275.393	19
275.609	-2.8
275.826	11.28
276.042	12.51
276.259	-3.34
276.475	14.06
276.691	21.35
276.908	-3.6
277.124	2.28
277.34	13.02
277.557	-3.43
277.773	2.05
277.989	14
278.205	26.66
278.422	23.59
278.638	26.61
278.854	26.38
279.07	8
279.286	-14.9
279.503	-42.55
279.719	-39.12
279.935	-37.06
280.151	-25.94
280.367	-11.3
280.583	-3.81
280.799	-4.64
281.016	-34.71
281.232	-7.44
281.448	-0.92
281.664	16.16
281.88	-0.73
282.096	16.78
282.312	28.69
282.528	19.23
282.744	17.28
282.96	23.72
283.176	14.92
283.392	6.3
283.608	-1.45
283.824	0.69
284.04	5.62
284.256	8.32
284.471	7.8
284.687	23.31
284.903	29.94
285.119	33.47
285.335	33.94
285.551	25.02
285.767	14.44
285.982	7.09
286.198	-6.82
286.414	27.9
286.63	39.62
286.846	52.71
287.061	44.81
287.277	58.66
287.493	35.66
287.709	40.92
287.924	17.54
288.14	29.64
288.356	11.29
288.571	44.08
288.787	32.57
289.003	31.02
289.218	28.71
289.434	23.27
289.65	14.84
289.865	4.69
290.081	37.79
290.296	30.71
290.512	26.79
290.727	-0
290.943	0.86
291.159	-6.09
291.374	-7.02
291.59	-10.45
291.805	-6.03
292.021	12.47
292.236	20.29
292.451	18.67
292.667	22.39
292.882	34.09
293.098	18.96
293.313	-2.09
293.529	0.7
293.744	-5.17
293.959	-16.24
294.175	-20.49
294.39	3.33
294.605	16.97
294.821	20.12
295.036	25.11
295.251	40.05
295.467	40.4
295.682	32.3
295.897	17.99
296.112	9.04
296.328	-4.58
296.543	-29.31
296.758	-42.19
296.973	-10.36
297.188	16.84
297.404	0.5
297.619	-8.63
297.834	-7.41
298.049	-22.35
298.264	-42.1
298.479	-5.57
298.694	1.8
298.909	17.85
299.125	24.45
299.34	34.5
299.555	32.42
299.77	28.45
299.985	0.36
300.2	-36.39
300.415	-50.03
300.63	-33.1
300.845	-32.48
301.06	-34.26
301.275	-1.26
301.49	16.98
301.704	6.97
301.919	6.86
302.134	4.06
302.349	-1.6
302.564	-47.32
302.779	-55.01
302.994	-88.87
303.209	-52.46
303.423	-39.36
303.638	9
303.853	-12.53
304.068	18.53
304.283	25.47
304.497	35.39
304.712	36.12
304.927	40.34
305.142	27.52
305.356	31.44
305.571	22.34
305.786	19.78
306	17.45
306.215	31.29
306.43	17.58
306.644	22.8
306.859	44.83
307.074	50.91
307.288	15.87
307.503	19.66
307.717	8.73
307.932	11.71
308.147	-0.7
308.361	16.07
308.576	7.43
308.79	-13.34
309.005	-24.18
309.219	-5.93
309.434	-14.21
309.648	-13.06
309.863	10.23
310.077	24.66
310.292	17.49
310.506	13.65
310.72	30.95
310.935	29.07
311.149	5.83
311.364	10.78
311.578	21.21
311.792	10.63
312.007	11.9
312.221	17.89
312.435	9.7
312.649	-2.99
312.864	-31.18
313.078	-19.65
313.292	0.27
313.507	-5.79
313.721	36.23
313.935	28.56
314.149	14.38
314.363	7.06
314.578	18.35
314.792	14.59
315.006	14.68
315.22	20.78
315.434	28.56
315.648	33
315.862	32.91
316.077	48.37
316.291	62.49
316.505	62.76
316.719	52
316.933	24.95
317.147	-9.52
317.361	-51.62
317.575	-97.36
317.789	-128.69
318.003	-199.11
318.217	-135.58
318.431	-58.99
318.645	-5.04
318.859	13.45
319.073	38.48
319.287	29.72
319.5	6.13
319.714	-11.85
319.928	-28.04
320.142	-48.08
320.356	-14.95
320.57	19.5
320.784	33.89
320.997	15.66
321.211	-13.39
321.425	-38.95
321.639	-66.2
321.853	-33.43
322.066	-13.47
322.28	-10.17
322.494	-7.6
322.707	-5.3
322.921	-11.7
323.135	-2.05
323.349	-1.48
323.562	-14.97
323.776	-9.02
323.989	-14.2
324.203	-48.15
324.417	-40.8
324.63	-41.99
324.844	-38.43
325.057	-40.82
325.271	-1.55
325.485	22.79
325.698	36.52
325.912	41.19
326.125	32.02
326.339	24.52
326.552	-5.16
326.766	-2.54
326.979	22.06
327.193	43.18
327.406	37.22
327.619	43.54
327.833	40.8
328.046	10.04
328.26	-14.92
328.473	-6.54
328.686	-25.66
328.9	-32.47
329.113	1
329.326	-2.73
329.54	2.06
329.753	7.79
329.966	22.34
330.179	-1.36
330.393	15.8
330.606	24.06
330.819	26.24
331.032	36.82
331.246	42.96
331.459	52.31
331.672	45.52
331.885	43.34
332.098	29.19
332.311	21.5
332.525	-12.6
332.738	10.29
332.951	30.52
333.164	35.46
333.377	26.68
333.59	35.77
333.803	28.41
334.016	20.87
334.229	-1.13
334.442	20.01
334.655	44.9
334.868	34.93
335.081	26.06
335.294	22.88
335.507	-3.32
335.72	-9.84
335.933	-9.22
336.146	-17.5
336.359	-20.41
336.572	-29.08
336.785	-73.27
336.997	-75.35
337.21	-41.77
337.423	-22.66
337.636	-9.67
337.849	18.54
338.062	23.41
338.274	18.22
338.487	12.77
338.7	8.46
338.913	-6.27
339.125	-7.55
339.338	-26.69
339.551	-28.84
339.763	-13.72
339.976	8.96
340.189	14.18
340.402	-1.14
340.614	4.49
340.827	6.23
341.039	-27.7
341.252	-17.43
341.465	4.08
341.677	4.31
341.89	-27.27
342.102	10.08
342.315	-14.59
342.527	-41.07
342.74	-17.15
342.952	0.87
343.165	-0.85
343.377	36.3
343.59	38.26
343.802	35.82
344.015	23.16
344.227	26.32
344.44	4.24
344.652	5.12
344.864	0.77
345.077	35.08
345.289	32.26
345.502	22.77
345.714	21.52
345.926	23.93
346.139	15.36
346.351	14.11
346.563	30.21
346.775	23.6
346.988	6.23
347.2	1.26
347.412	-29.5
347.624	-46.45
347.837	-47.56
348.049	-11.41
348.261	-6.77
348.473	7.83
348.685	24.29
348.897	14.32
349.11	-10.28
349.322	-33.21
349.534	-27.77
349.746	-46.2
349.958	-46.26
350.17	-49.12
350.382	-16.79
350.594	-13.01
350.806	-10.73
351.018	15.91
351.23	15.74
351.442	-3.64
351.654	8.88
351.866	24.52
352.078	16.2
352.29	22.89
352.502	28.84
352.714	31
352.926	23.41
353.138	18.27
353.35	9.98
353.561	11.76
353.773	-6.1
353.985	-0.47
354.197	-11.3
354.409	-4.62
354.621	-18.16
354.832	-7.89
355.044	-15.33
355.256	-13.11
355.468	0.74
355.679	3.29
355.891	13.75
356.103	15.44
356.314	34.21
356.526	31.36
356.738	44.25
356.949	34.54
357.161	44.79
357.373	14.18
357.584	14.09
357.796	6.36
358.008	3.99
358.219	4.46
358.431	11.19
358.642	16.7
358.854	11.27
359.065	10.92
359.277	1.02
359.488	4.53
359.7	-16.23
359.911	-20.16
360.123	-12.14
360.334	-21.58
360.546	-48.62
360.757	-39.87
360.969	-13.73
361.18	-34.42
361.391	-25.26
361.603	-25.33
361.814	-34.7
362.025	-36.21
362.237	-25.74
362.448	-15.74
362.659	8.91
362.871	6.72
363.082	-9.83
363.293	-7.35
363.504	-14.93
363.716	-37.31
363.927	-28.74
364.138	-32.14
364.349	-36.42
364.56	-41.45
364.772	-26.26
364.983	-8.44
365.194	0.86
365.405	12.35
365.616	30.98
365.827	40.46
366.038	13.62
366.25	3.74
366.461	-12.05
366.672	-4.1
366.883	-1.5
367.094	18.01
367.305	20.2
367.516	14.13
367.727	3.15
367.938	-5.62
368.149	-1.18
368.36	15.25
368.571	14.55
368.781	-2.62
368.992	-5
369.203	-28.43
369.414	-57.48
369.625	-47.16
369.836	-30.84
370.047	-52.56
370.258	-35.62
370.468	-22.48
370.679	-28.56
370.89	-21.63
371.101	-1.5
371.312	-2.69
371.522	-15.72
371.733	-2.74
371.944	4.15
372.155	2.4
372.365	-0.26
372.576	11.44
372.787	2.7
372.997	-21.34
373.208	-17.11
373.419	-1.13
373.629	-17.13
373.84	-12.99
374.05	-4.41
374.261	1.52
374.472	-8.5
374.682	23.26
374.893	16.53
375.103	35.47
375.314	28.14
375.524	30.17
375.735	18.37
375.945	28.28
376.156	16.91
376.366	16.62
376.577	12.56
376.787	1.28
376.997	3.52
377.208	4.62
377.418	20.13
377.629	26.49
377.839	39.95
378.049	35.78
378.26	38.4
378.47	31.08
378.68	21.49
378.89	19.58
379.101	13.61
379.311	-2.79
379.521	-15.62
379.732	-14.2
379.942	-16.46
380.152	-33.3
380.362	-12.85
380.572	-14.23
380.783	4.81
380.993	6.53
381.203	25.44
381.413	25.67
381.623	34.76
381.833	33.69
382.043	26.42
382.253	18.36
382.463	14.5
382.674	8.44
382.884	-6.14
383.094	0
383.304	3.35
383.514	5.09
383.724	9.17
383.934	8.44
384.144	-6.23
384.353	-10.56
384.563	-12.42
384.773	-7.24
384.983	-16.61
385.193	1.72
385.403	5.53
385.613	11.69
385.823	1.26
386.033	4.13
386.242	-1.83
386.452	-11.66
386.662	-18.62
386.872	-4.03
387.082	-7.51
387.291	-12.56
387.501	-7.01
387.711	-2.27
387.921	-8.74
388.13	-2.89
388.34	5.6
388.55	0.66
388.759	-2.97
388.969	-0.86
389.179	-3.02
389.388	-4.76
389.598	4.16
389.807	4
390.017	1.68
390.227	2.93
390.436	5.29
390.646	5.42
390.855	5.42
391.065	3.79
391.274	3.61
391.484	0.31
391.693	-0.43
391.903	2.11
392.112	6.99
392.322	7.79
392.531	9.39
392.74	8.51
392.95	5.59
393.159	3.08
393.369	4.11
393.578	4.89
393.787	4.17
393.997	6.06
394.206	5.06
394.415	4.19
394.625	3.33
394.834	1.81
395.043	1.86
395.252	3.17
395.462	4.74
395.671	4.83
395.88	6.29
396.089	6.12
396.298	5.28
396.508	4.34
396.717	3.67
396.926	4.36
397.135	3.5
397.344	4.16
397.553	4.66
397.762	5.61
397.971	5.39
398.181	5.78
398.39	4.75
398.599	4.12
398.808	4.05
399.017	4.18
399.226	5.11
399.435	6.06
399.644	6.09
399.853	5.31
400.062	5.3
400.27	4.48
400.479	4.07
400.688	3.86
400.897	4.41
401.106	4.28
401.315	4.27
401.524	4.44
401.733	4.93
401.941	5.15
402.15	5.52
402.359	5.53
402.568	5.75
402.777	5.94
402.985	5.6
403.194	5.35
403.403	5.27
403.612	5.01
403.82	4.6
404.029	4.81
404.238	4.7
404.446	4.96
404.655	4.8
404.864	4.74
405.072	4.51
405.281	4.35
405.489	4.34
405.698	4.46
405.906	4.58
406.115	4.71
406.324	4.92
406.532	4.88
406.741	4.93
406.949	4.9
407.158	4.81
407.366	4.89
407.574	4.97
407.783	5.01
407.991	4.78
408.2	4.86
408.408	4.71
408.617	4.38
408.825	4.25
409.033	4.41
409.242	4.36
409.45	4.56
409.658	4.67
409.867	4.69
410.075	4.59
410.283	4.51
410.491	4.31
410.7	4.29
410.908	4.2
411.116	4.44
411.324	4.39
411.533	4.28
411.741	4.43
411.949	4.46
412.157	4.28
412.365	4.2
412.573	4.18
412.781	4.13
412.99	4.1
413.198	4.21
413.406	4.36
413.614	4.41
413.822	4.31
414.03	4.3
414.238	4.13
414.446	4.13
414.654	4.08
414.862	3.96
415.07	4
415.278	4.2
415.486	4.14
415.694	4.22
415.902	4.22
416.109	4.11
416.317	3.96
416.525	3.8
416.733	3.75
416.941	3.94
417.149	3.93
417.357	3.95
417.564	3.9
417.772	4.1
417.98	4.02
418.188	4.06
418.395	4.16
418.603	4.51
418.811	4.13
419.019	4
419.226	4.02
419.434	3.96
419.642	3.77
419.849	3.97
420.057	3.99
420.265	3.95
420.472	3.75
420.68	3.67
420.887	3.54
421.095	3.68
421.302	3.8
421.51	3.91
421.717	4.05
421.925	4.13
422.132	3.97
422.34	3.7
422.547	3.71
422.755	3.69
422.962	3.62
423.17	3.62
423.377	3.76
423.585	3.84
423.792	3.65
423.999	3.61
424.207	3.54
424.414	3.55
424.621	3.33
424.829	3.44
425.036	3.53
425.243	3.67
425.451	3.55
425.658	3.51
425.865	3.54
426.072	3.45
426.28	3.6
426.487	3.6
426.694	3.69
426.901	3.63
427.108	3.69
427.315	3.57
427.523	3.83
427.73	3.76
427.937	3.85
428.144	3.76
428.351	3.76
428.558	3.71
428.765	3.62
428.972	3.46
429.179	3.46
429.386	3.62
429.593	3.4
429.8	3.43
430.007	3.62
430.214	3.75
430.421	3.64
430.628	3.61
430.835	3.69
431.042	3.75
431.249	3.78
431.456	3.72
431.662	3.88
431.869	3.98
432.076	3.91
432.283	4
432.49	4.01
432.697	3.94
432.903	3.7
433.11	3.75
433.317	3.67
433.524	3.77
433.73	3.86
433.937	4.14
434.144	4.1
434.35	4.13
434.557	4
434.764	4.04
434.97	4
435.177	4.19
435.384	4.2
435.59	4.25
435.797	4.39
436.003	4.33
436.21	4.2
436.416	4.19
436.623	4.27
436.829	4.25
437.036	4.42
437.242	4.39
437.449	4.38
437.655	4.45
437.862	4.42
438.068	4.3
438.275	4.49
438.481	4.7
438.687	4.67
438.894	4.61
439.1	4.66
439.307	4.7
439.513	4.54
439.719	4.42
439.926	4.53
440.132	4.52
440.338	4.47
440.544	4.56
440.751	4.64
440.957	4.73
441.163	4.82
441.369	4.92
441.575	4.81
441.782	4.88
441.988	4.65
442.194	4.63
442.4	4.5
442.606	4.73
442.812	4.8
443.018	4.96
443.224	4.91
443.431	4.98
443.637	4.79
443.843	4.73
444.049	4.74
444.255	4.67
444.461	4.73
444.667	4.81
444.873	4.88
445.079	4.84
445.284	4.97
445.49	4.74
445.696	4.72
445.902	4.57
446.108	4.6
446.314	4.54
446.52	4.67
446.726	4.81
446.931	4.91
447.137	4.97
447.343	5.12
447.549	5.12
447.755	5.02
447.96	5.1
448.166	5.04
448.372	4.92
448.578	5
448.783	4.99
448.989	5.09
449.195	5.16
449.4	5.25
449.606	5.22
449.812	5.15
450.017	5.06
450.223	5.02
450.428	5.02
450.634	5.06
450.84	5.19
451.045	5.21
451.251	5.21
451.456	5.32
451.662	5.34
451.867	5.37
452.073	5.38
452.278	5.43
452.483	5.44
452.689	5.39
452.894	5.39
453.1	5.33
453.305	5.33
453.51	5.3
453.716	5.29
453.921	5.32
454.127	5.32
454.332	5.29
454.537	5.15
454.742	5.16
454.948	5.03
455.153	5.07
455.358	5.13
455.563	5.33
455.769	5.35
455.974	5.42
456.179	5.38
456.384	5.28
456.589	5.27
456.795	5.24
457	5.17
457.205	5.3
457.41	5.34
457.615	5.21
457.82	5.26
458.025	5.26
458.23	5.1
458.435	5.22
458.64	5.25
458.845	5.39
459.05	5.47
459.255	5.56
459.46	5.5
459.665	5.54
459.87	5.47
460.075	5.47
460.28	5.5
460.485	5.48
460.69	5.47
460.895	5.42
461.099	5.37
461.304	5.4
461.509	5.44
461.714	5.38
461.919	5.41
462.123	5.43
462.328	5.44
462.533	5.43
462.738	5.54
462.942	5.54
463.147	5.59
463.352	5.6
463.556	5.68
463.761	5.62
463.966	5.56
464.17	5.57
464.375	5.58
464.58	5.52
464.784	5.5
464.989	5.55
465.193	5.62
465.398	5.65
465.602	5.69
465.807	5.82
466.011	5.92
466.216	5.9
466.42	5.91
466.625	5.99
466.829	6.02
467.034	6.02
467.238	6.2
467.443	6.17
467.647	6
467.851	6.09
468.056	6.08
468.26	5.89
468.464	5.91
468.669	6.08
468.873	6.12
469.077	6.13
469.282	6.27
469.486	6.33
469.69	6.35
469.894	6.19
470.099	6.23
470.303	6.23
470.507	6.22
470.711	6.16
470.915	6.19
471.119	6.09
471.324	6.13
471.528	6.17
471.732	6.26
471.936	6.26
472.14	6.35
472.344	6.39
472.548	6.38
472.752	6.49
472.956	6.66
473.16	6.66
473.364	6.54
473.568	6.57
473.772	6.51
473.976	6.46
474.18	6.54
474.384	6.68
474.588	6.68
474.792	6.68
474.995	6.77
475.199	6.85
475.403	6.84
475.607	6.9
475.811	6.83
476.015	6.77
476.218	6.77
476.422	6.69
476.626	6.74
476.83	6.89
477.033	6.95
477.237	6.88
477.441	7.01
477.644	7.01
477.848	7.01
478.052	6.99
478.255	7.08
478.459	7.05
478.663	7.11
478.866	7.11
479.07	7.19
479.273	7.29
479.477	7.33
479.681	7.35
479.884	7.34
480.088	7.33
480.291	7.32
480.495	7.33
480.698	7.31
480.901	7.38
481.105	7.4
481.308	7.38
481.512	7.38
481.715	7.44
481.919	7.48
482.122	7.51
482.325	7.51
482.529	7.52
482.732	7.49
482.935	7.48
483.138	7.48
483.342	7.5
483.545	7.62
483.748	7.67
483.952	7.74
484.155	7.76
484.358	7.82
484.561	7.75
484.764	7.74
484.967	7.78
485.171	7.86
485.374	7.81
485.577	7.93
485.78	7.9
485.983	7.88
486.186	7.79
486.389	7.77
486.592	7.69
486.795	7.75
486.998	7.72
487.201	7.83
487.404	7.94
487.607	8.01
487.81	7.98
488.013	8.02
488.216	7.94
488.419	7.84
488.622	7.79
488.825	7.83
489.028	7.82
489.231	7.85
489.433	7.87
489.636	7.83
489.839	7.82
490.042	7.73
490.245	7.74
490.447	7.8
490.65	7.84
490.853	7.82
491.056	7.87
491.258	7.87
491.461	7.86
491.664	7.86
491.866	7.93
492.069	8
492.272	7.93
492.474	7.97
492.677	8.06
492.879	8.06
493.082	8.1
493.285	8.2
493.487	8.15
493.69	8.08
493.892	8.05
494.095	8.03
494.297	8.06
494.5	8.1
494.702	8.15
494.905	8.19
495.107	8.22
495.309	8.16
495.512	8.27
495.714	8.28
495.917	8.32
496.119	8.31
496.321	8.45
496.524	8.4
496.726	8.42
496.928	8.41
497.13	8.4
497.333	8.35
497.535	8.38
497.737	8.38
497.939	8.41
498.142	8.41
498.344	8.43
498.546	8.36
498.748	8.41
498.95	8.52
499.152	8.59
499.355	8.66
499.557	8.74
499.759	8.77
499.961	8.68
500.163	8.67
500.365	8.64
500.567	8.73
500.769	8.71
500.971	8.78
501.173	8.8
501.375	8.84
501.577	8.81
501.779	8.83
501.981	8.84
502.183	8.87
502.385	8.88
502.587	8.83
502.788	8.87
502.99	8.87
503.192	8.93
503.394	8.95
503.596	9.04
503.798	9.06
503.999	9.15
504.201	9.09
504.403	9.15
504.605	9.11
504.806	9.14
505.008	9.11
505.21	9.2
505.411	9.2
505.613	9.3
505.815	9.29
506.016	9.37
506.218	9.45
506.42	9.45
506.621	9.46
506.823	9.57
507.024	9.54
507.226	9.48
507.427	9.52
507.629	9.59
507.83	9.59
508.032	9.61
508.233	9.76
508.435	9.82
508.636	9.87
508.838	9.86
509.039	9.94
509.24	9.83
509.442	9.86
509.643	9.77
509.845	9.83
510.046	9.9
510.247	10
510.448	9.95
510.65	10.04
510.851	10.08
511.052	10.04
511.254	10.08
511.455	10.18
511.656	10.19
511.857	10.21
512.058	10.23
512.26	10.25
512.461	10.3
512.662	10.41
512.863	10.42
513.064	10.49
513.265	10.53
513.466	10.57
513.667	10.56
513.868	10.63
514.069	10.68
514.27	10.68
514.471	10.61
514.672	10.59
514.873	10.55
515.074	10.59
515.275	10.56
515.476	10.66
515.677	10.68
515.878	10.84
516.079	10.82
516.28	10.83
516.481	10.86
516.682	10.91
516.882	10.8
517.083	10.82
517.284	10.85
517.485	10.79
517.686	10.79
517.886	10.87
518.087	10.85
518.288	10.94
518.488	11.05
518.689	11.04
518.89	11.08
519.091	11.22
519.291	11.19
519.492	11.21
519.692	11.32
519.893	11.33
520.094	11.27
520.294	11.35
520.495	11.38
520.695	11.41
520.896	11.39
521.096	11.41
521.297	11.44
521.497	11.46
521.698	11.51
521.898	11.58
522.099	11.61
522.299	11.64
522.499	11.63
522.7	11.6
522.9	11.63
523.101	11.76
523.301	11.8
523.501	11.84
523.702	11.89
523.902	11.91
524.102	11.88
524.302	11.91
524.503	11.91
524.703	11.93
524.903	11.92
525.103	11.87
525.304	11.9
525.504	12.02
525.704	12.09
525.904	12.16
526.104	12.22
526.304	12.26
526.504	12.22
526.705	12.2
526.905	12.33
527.105	12.35
527.305	12.34
527.505	12.35
527.705	12.38
527.905	12.3
528.105	12.38
528.305	12.37
528.505	12.42
528.705	12.45
528.905	12.51
529.105	12.49
529.304	12.51
529.504	12.59
529.704	12.63
529.904	12.62
530.104	12.61
530.304	12.67
530.503	12.64
530.703	12.58
530.903	12.57
531.103	12.59
531.303	12.65
531.502	12.74
531.702	12.79
531.902	12.89
532.101	12.94
532.301	12.94
532.501	12.94
532.7	13.05
532.9	13.03
533.1	13.04
533.299	13.04
533.499	13.09
533.698	13.04
533.898	13.11
534.097	13.15
534.297	13.22
534.496	13.17
534.696	13.24
534.895	13.27
535.095	13.35
535.294	13.38
535.494	13.41
535.693	13.4
535.892	13.48
536.092	13.41
536.291	13.47
536.491	13.57
536.69	13.64
536.889	13.54
537.088	13.6
537.288	13.62
537.487	13.65
537.686	13.71
537.886	13.85
538.085	13.93
538.284	13.97
538.483	13.94
538.682	13.97
538.882	13.99
539.081	13.99
539.28	14.03
539.479	14.05
539.678	14.06
539.877	14.15
540.076	14.17
540.275	14.2
540.474	14.31
540.673	14.32
540.872	14.34
541.071	14.43
541.27	14.47
541.469	14.52
541.668	14.57
541.867	14.6
542.066	14.69
542.265	14.77
542.464	14.79
542.663	14.88
542.862	14.96
543.06	14.99
543.259	15.05
543.458	15.09
543.657	15.18
543.856	15.22
544.054	15.2
544.253	15.21
544.452	15.27
544.651	15.25
544.849	15.27
545.048	15.33
545.247	15.41
545.445	15.5
545.644	15.57
545.843	15.6
546.041	15.62
546.24	15.66
546.438	15.77
546.637	15.86
546.836	15.98
547.034	16.11
547.233	16.13
547.431	16.06
547.63	16.11
547.828	16.13
548.027	16.2
548.225	16.26
548.423	16.34
548.622	16.44
548.82	16.51
549.019	16.6
549.217	16.69
549.415	16.78
549.614	16.8
549.812	16.86
550.01	16.87
550.209	17.04
550.407	17.15
550.605	17.21
550.803	17.37
551.002	17.47
551.2	17.47
551.398	17.56
551.596	17.68
551.794	17.73
551.993	17.73
552.191	17.8
552.389	17.91
552.587	18
552.785	18.09
552.983	18.19
553.181	18.39
553.379	18.47
553.577	18.59
553.775	18.7
553.973	18.9
554.171	18.9
554.369	18.97
554.567	19
554.765	19.07
554.963	19.11
555.161	19.16
555.359	19.27
555.557	19.4
555.755	19.46
555.952	19.56
556.15	19.69
556.348	19.74
556.546	19.88
556.744	19.96
556.941	20.05
557.139	20.2
557.337	20.27
557.535	20.26
557.732	20.34
557.93	20.41
558.128	20.41
558.325	20.53
558.523	20.68
558.721	20.83
558.918	20.98
559.116	21.12
559.313	21.16
559.511	21.29
559.708	21.39
559.906	21.46
560.104	21.49
560.301	21.63
560.498	21.67
560.696	21.68
560.893	21.79
561.091	22.02
561.288	22.12
561.486	22.18
561.683	22.39
561.88	22.42
562.078	22.49
562.275	22.56
562.473	22.68
562.67	22.74
562.867	22.91
563.064	23.05
563.262	23.17
563.459	23.28
563.656	23.34
563.853	23.46
564.051	23.53
564.248	23.59
564.445	23.67
564.642	23.76
564.839	23.88
565.036	23.99
565.234	24.02
565.431	24.15
565.628	24.33
565.825	24.37
566.022	24.5
566.219	24.74
566.416	24.86
566.613	24.97
566.81	25.11
567.007	25.13
567.204	25.07
567.401	25.19
567.598	25.19
567.795	25.32
567.991	25.32
568.188	25.46
568.385	25.5
568.582	25.5
568.779	25.54
568.976	25.67
569.172	25.86
569.369	25.87
569.566	25.97
569.763	25.99
569.96	25.96
570.156	25.94
570.353	25.95
570.55	26.13
570.746	26.09
570.943	26.17
571.14	26.18
571.336	26.33
571.533	26.33
571.729	26.41
571.926	26.57
572.123	26.64
572.319	26.67
572.516	26.65
572.712	26.78
572.909	26.68
573.105	26.82
573.302	26.82
573.498	27.02
573.695	26.98
573.891	27.17
574.087	27.09
574.284	27.16
574.48	27.06
574.677	27.1
574.873	27.08
575.069	27.17
575.266	27.27
575.462	27.28
575.658	27.31
575.854	27.41
576.051	27.47
576.247	27.34
576.443	27.35
576.639	27.28
576.835	27.27
577.032	27.17
577.228	27.36
577.424	27.35
577.62	27.45
577.816	27.41
578.012	27.52
578.208	27.44
578.404	27.51
578.6	27.47
578.796	27.47
578.993	27.38
579.189	27.29
579.384	27.17
579.58	27.16
579.776	27.09
579.972	27.13
580.168	27.13
580.364	27.31
580.56	27.36
580.756	27.36
580.952	27.32
581.148	27.32
581.343	27.36
581.539	27.39
581.735	27.48
581.931	27.51
582.127	27.55
582.322	27.45
582.518	27.42
582.714	27.39
582.909	27.4
583.105	27.35
583.301	27.35
583.496	27.32
583.692	27.33
583.888	27.27
584.083	27.36
584.279	27.29
584.474	27.26
584.67	27.18
584.866	27.24
585.061	27.15
585.257	27.24
585.452	27.31
585.648	27.35
585.843	27.36
586.039	27.42
586.234	27.36
586.429	27.35
586.625	27.43
586.82	27.41
587.015	27.39
587.211	27.33
587.406	27.36
587.601	27.33
587.797	27.33
587.992	27.37
588.187	27.43
588.383	27.46
588.578	27.39
588.773	27.41
588.968	27.45
589.163	27.52
589.359	27.44
589.554	27.47
589.749	27.52
589.944	27.59
590.139	27.61
590.334	27.78
590.529	27.82
590.724	27.91
590.919	27.89
591.114	27.94
591.309	28
591.504	28.1
591.699	28.12
591.894	28.13
592.089	28.05
592.284	27.94
592.479	28
592.674	27.94
592.869	28.04
593.064	28.16
593.259	28.38
593.454	28.44
593.648	28.51
593.843	28.52
594.038	28.55
594.233	28.49
594.428	28.46
594.622	28.62
594.817	28.72
595.012	28.76
595.206	28.86
595.401	28.96
595.596	28.91
595.79	28.97
595.985	29.13
596.18	29.18
596.374	29.2
596.569	29.36
596.763	29.42
596.958	29.49
597.153	29.57
597.347	29.55
597.542	29.58
597.736	29.62
597.931	29.57
598.125	29.58
598.319	29.76
598.514	29.76
598.708	29.82
598.903	29.9
599.097	29.93
599.291	29.98
599.486	30.04
599.68	30.02
599.874	30.02
600.069	29.98
600.263	29.96
600.457	29.97
600.651	30.02
600.846	30.06
601.04	30.16
601.234	30.17
601.428	30.23
601.622	30.22
601.817	30.22
602.011	30.32
602.205	30.44
602.399	30.49
602.593	30.63
602.787	30.68
602.981	30.61
603.175	30.67
603.369	30.65
603.563	30.58
603.757	30.66
603.951	30.71
604.145	30.52
604.339	30.56
604.533	30.52
604.727	30.43
604.921	30.35
605.115	30.48
605.309	30.42
605.502	30.42
605.696	30.49
605.89	30.5
606.084	30.44
606.278	30.48
606.471	30.42
606.665	30.32
606.859	30.24
607.053	30.14
607.246	29.91
607.44	29.93
607.634	29.87
607.827	29.89
608.021	29.82
608.214	29.93
608.408	29.81
608.602	29.8
608.795	29.66
608.989	29.63
609.182	29.53
609.376	29.48
609.569	29.39
609.763	29.32
609.956	29.16
610.15	29.1
610.343	29.1
610.537	29.03
610.73	29.09
610.923	29.17
611.117	29.18
611.31	29.07
611.504	29
611.697	28.82
611.89	28.71
612.083	28.55
612.277	28.52
612.47	28.47
612.663	28.52
612.856	28.47
613.05	28.5
613.243	28.5
613.436	28.33
613.629	28.21
613.822	28.08
614.015	27.95
614.209	27.8
614.402	27.95
614.595	27.97
614.788	27.99
614.981	27.93
615.174	27.89
615.367	27.81
615.56	27.7
615.753	27.57
615.946	27.52
616.139	27.49
616.332	27.51
616.525	27.46
616.718	27.47
616.911	27.37
617.103	27.41
617.296	27.29
617.489	27.3
617.682	27.36
617.875	27.43
618.067	27.28
618.26	27.24
618.453	27.2
618.646	27.17
618.838	27.15
619.031	27.2
619.224	27.14
619.417	27.19
619.609	27.03
619.802	26.87
619.994	26.74
620.187	26.71
620.38	26.63
620.572	26.64
620.765	26.76
620.957	26.79
621.15	26.73
621.342	26.59
621.535	26.59
621.727	26.52
621.92	26.42
622.112	26.41
622.305	26.51
622.497	26.44
622.69	26.46
622.882	26.48
623.074	26.54
623.267	26.51
623.459	26.41
623.651	26.27
623.844	26.32
624.036	26.28
624.228	26.16
624.42	26.25
624.613	26.4
624.805	26.38
624.997	26.36
625.189	26.47
625.381	26.44
625.574	26.3
625.766	26.26
625.958	26.18
626.15	26.13
626.342	26.13
626.534	26.18
626.726	26.14
626.918	26.18
627.11	26.1
627.302	26.02
627.494	25.98
627.686	25.94
627.878	25.91
628.07	26.01
628.262	25.94
628.454	25.86
628.646	25.89
628.838	25.82
629.029	25.67
629.221	25.7
629.413	25.69
629.605	25.59
629.797	25.62
629.989	25.69
630.18	25.61
630.372	25.59
630.564	25.5
630.755	25.4
630.947	25.3
631.139	25.26
631.33	25.13
631.522	25.31
631.714	25.33
631.905	25.37
632.097	25.35
632.289	25.44
632.48	25.26
632.672	25.16
632.863	25.06
633.055	25.04
633.246	25.06
633.438	25.03
633.629	24.99
633.821	25.06
634.012	25.04
634.203	24.91
634.395	24.99
634.586	25.06
634.777	24.97
634.969	25.04
635.16	25.05
635.351	24.97
635.543	24.96
635.734	24.92
635.925	24.8
636.117	24.82
636.308	24.85
636.499	24.73
636.69	24.67
636.881	24.66
637.073	24.69
637.264	24.58
637.455	24.63
637.646	24.71
637.837	24.82
638.028	24.69
638.219	24.77
638.41	24.71
638.601	24.52
638.792	24.39
638.983	24.39
639.174	24.32
639.365	24.32
639.556	24.37
639.747	24.42
639.938	24.42
640.129	24.35
640.32	24.29
640.511	24.36
640.701	24.38
640.892	24.32
641.083	24.36
641.274	24.41
641.465	24.32
641.655	24.16
641.846	24.15
642.037	24.09
642.228	24.01
642.418	23.92
642.609	23.96
642.8	23.97
642.99	23.95
643.181	23.98
643.372	24
643.562	23.92
643.753	23.77
643.943	23.72
644.134	23.62
644.324	23.56
644.515	23.59
644.705	23.65
644.896	23.59
645.086	23.64
645.277	23.64
645.467	23.5
645.658	23.41
645.848	23.41
646.038	23.3
646.229	23.3
646.419	23.27
646.61	23.37
646.8	23.3
646.99	23.3
647.18	23.19
647.371	23.14
647.561	22.98
647.751	23
647.941	22.95
648.132	22.94
648.322	22.99
648.512	23.03
648.702	23.01
648.892	23.07
649.082	22.98
649.272	22.89
649.462	22.78
649.653	22.65
649.843	22.51
650.033	22.62
650.223	22.53
650.413	22.46
650.603	22.51
650.793	22.43
650.983	22.25
651.172	22.23
651.362	22.15
651.552	21.93
651.742	21.91
651.932	21.9
652.122	21.81
652.312	21.81
652.502	21.8
652.691	21.71
652.881	21.54
653.071	21.48
653.261	21.28
653.45	21.18
653.64	21.17
653.83	21.04
654.019	20.89
654.209	20.92
654.399	20.86
654.588	20.63
654.778	20.57
654.968	20.52
655.157	20.33
655.347	20.22
655.536	20.06
655.726	19.85
655.915	19.66
656.105	19.54
656.294	19.33
656.484	19.18
656.673	19.15
656.863	19.12
657.052	19.01
657.241	18.82
657.431	18.58
657.62	18.32
657.809	17.98
657.999	17.75
658.188	17.62
658.377	17.5
658.567	17.38
658.756	17.27
658.945	17.04
659.134	16.92
659.324	16.66
659.513	16.45
659.702	16.36
659.891	16.19
660.08	15.9
660.269	15.93
660.458	15.83
660.648	15.63
660.837	15.53
661.026	15.51
661.215	15.23
661.404	15.1
661.593	14.94
661.782	14.72
661.971	14.56
662.16	14.4
662.349	14.21
662.538	13.98
662.726	13.9
662.915	13.66
663.104	13.58
663.293	13.49
663.482	13.42
663.671	13.23
663.86	13.15
664.048	13.01
664.237	12.87
664.426	12.73
664.615	12.64
664.803	12.45
664.992	12.31
665.181	12.06
665.369	11.94
665.558	11.83
665.747	11.72
665.935	11.63
666.124	11.69
666.312	11.63
666.501	11.56
666.69	11.45
666.878	11.43
667.067	11.32
667.255	11.28
667.444	11.44
667.632	11.48
667.82	11.46
668.009	11.32
668.197	11.27
668.386	11.04
668.574	11.04
668.762	10.91
668.951	10.89
669.139	10.85
669.327	10.77
669.516	10.71
669.704	10.75
669.892	10.87
670.08	10.76
670.269	10.64
670.457	10.61
670.645	10.44
670.833	10.36
671.021	10.43
671.21	10.59
671.398	10.73
671.586	10.83
671.774	10.81
671.962	10.77
672.15	10.79
672.338	10.72
672.526	10.74
672.714	10.66
672.902	10.75
673.09	10.75
673.278	10.74
673.466	10.79
673.654	10.98
673.842	10.97
674.03	10.98
674.218	10.99
674.405	11.05
674.593	10.96
674.781	11.05
674.969	11.19
675.157	11.24
675.344	11.28
675.532	11.47
675.72	11.5
675.908	11.56
676.095	11.69
676.283	11.7
676.471	11.86
676.658	11.89
676.846	11.9
677.033	11.91
677.221	11.94
677.409	11.73
677.596	11.82
677.784	11.84
677.971	11.95
678.159	12.09
678.346	12.27
678.534	12.41
678.721	12.49
678.909	12.56
679.096	12.6
679.283	12.85
679.471	13.04
679.658	13.24
679.846	13.37
680.033	13.65
680.22	13.76
680.408	13.69
680.595	13.68
680.782	13.74
680.969	13.77
681.157	13.9
681.344	14.01
681.531	14.2
681.718	14.41
681.905	14.57
682.093	14.78
682.28	15.17
682.467	15.56
682.654	15.77
682.841	16.11
683.028	16.27
683.215	16.45
683.402	16.39
683.589	16.64
683.776	16.92
683.963	17.09
684.15	17.26
684.337	17.68
684.524	18.06
684.711	18.33
684.898	18.49
685.085	18.87
685.271	19.26
685.458	19.38
685.645	19.72
685.832	20.21
686.019	20.69
686.205	20.8
686.392	21.14
686.579	21.35
686.766	21.74
686.952	21.93
687.139	22.45
687.326	22.9
687.512	23.37
687.699	23.82
687.886	24.27
688.072	24.67
688.259	25
688.445	25.42
688.632	25.71
688.818	26.27
689.005	26.59
689.191	27.03
689.378	27.53
689.564	28.04
689.751	28.61
689.937	29.23
690.124	29.92
690.31	30.3
690.496	30.94
690.683	31.14
690.869	31.66
691.055	32.09
691.242	32.67
691.428	33.18
691.614	33.86
691.8	34.45
691.987	35.13
692.173	35.79
692.359	36.26
692.545	36.74
692.731	37.3
692.918	37.72
693.104	38.17
693.29	38.74
693.476	39.38
693.662	39.85
693.848	40.36
694.034	40.78
694.22	41.3
694.406	41.79
694.592	42.41
694.778	42.98
694.964	43.57
695.15	43.93
695.336	44.24
695.522	44.76
695.708	45.27
695.894	45.87
696.08	46.48
696.265	47.12
696.451	47.7
696.637	48.11
696.823	48.42
697.009	48.68
697.194	48.93
697.38	49.21
697.566	49.7
697.751	50.15
697.937	51.07
698.123	51.72
698.308	52.25
698.494	52.71
698.68	53.04
698.865	53.26
699.051	53.7
699.236	54.05
699.422	54.52
699.607	54.97
699.793	55.3
699.978	55.55
700.164	55.67
700.349	55.93
700.535	56.38
700.72	56.67
700.906	57.23
701.091	57.8
701.276	58.17
701.462	58.74
701.647	59.19
701.832	59.41
702.018	59.8
702.203	60.12
702.388	60.16
702.573	60.65
702.759	61.19
702.944	61.46
703.129	61.7
703.314	62
703.499	62.03
703.684	61.94
703.87	62.39
704.055	63.07
704.24	63.39
704.425	63.83
704.61	64.39
704.795	64.5
704.98	64.68
705.165	64.73
705.35	64.85
705.535	65.13
705.72	65.23
705.905	65.12
706.09	65.83
706.275	65.95
706.459	65.92
706.644	66.36
706.829	66.72
707.014	66.42
707.199	66.86
707.384	67.49
707.568	67.51
707.753	67.76
707.938	68.17
708.123	68.3
708.307	68.14
708.492	68.42
708.677	68.73
708.861	68.83
709.046	68.73
709.231	69.43
709.415	69.57
709.6	69.45
709.784	69.4
709.969	69.44
710.153	68.93
710.338	68.85
710.522	69.05
710.707	69.77
710.891	70.04
711.076	70.71
711.26	70.85
711.445	71.04
711.629	70.98
711.813	71.26
711.998	70.97
712.182	70.87
712.366	71.17
712.551	71.51
712.735	71.89
712.919	71.71
713.103	72
713.288	71.78
713.472	71.57
713.656	71.74
713.84	71.99
714.024	72.97
714.208	73.27
714.393	73.6
714.577	73.37
714.761	73.46
714.945	73.09
715.129	73.34
715.313	73.69
715.497	73.93
715.681	74.33
715.865	73.95
716.049	73.82
716.233	73.5
716.417	73.59
716.601	73.9
716.785	74.28
716.968	74.24
717.152	74.42
717.336	74.64
717.52	74.6
717.704	74.47
717.888	75.1
718.071	75.49
718.255	74.99
718.439	74.45
718.622	74.61
718.806	74.5
718.99	73.88
719.174	74.24
719.357	74.79
719.541	75.38
719.724	75.55
719.908	76.41
720.092	76.8
720.275	76.91
720.459	76.38
720.642	76.24
720.826	75.51
721.009	74.91
721.193	74.94
721.376	75.62
721.559	75.5
721.743	76.14
721.926	77.14
722.11	77.17
722.293	76.41
722.476	76.39
722.66	76.09
722.843	75.96
723.026	75.53
723.21	76.11
723.393	76.65
723.576	76.95
723.759	76.23
723.942	76.78
724.126	76.96
724.309	77.07
724.492	77.26
724.675	77.92
724.858	78.09
725.041	78.31
725.224	78.12
725.407	77.94
725.59	78.18
725.774	77.8
725.957	77.32
726.14	77.36
726.322	77.85
726.505	78.18
726.688	79.28
726.871	79.68
727.054	79.92
727.237	79.15
727.42	78.77
727.603	78.16
727.786	77.91
727.968	77.76
728.151	78.26
728.334	77.87
728.517	78.19
728.699	78.7
728.882	78.9
729.065	79.13
729.248	79.6
729.43	79.24
729.613	79.35
729.796	79.84
729.978	79.77
730.161	80.43
730.343	80.72
730.526	80.81
730.708	80.43
730.891	80.98
731.073	80.26
731.256	80.23
731.438	80.45
731.621	80.24
731.803	79.82
731.986	80.08
732.168	80.16
732.35	80.48
732.533	81.06
732.715	80.94
732.898	81.2
733.08	81.22
733.262	81.01
733.444	80.98
733.627	81.46
733.809	81.18
733.991	81.33
734.173	80.92
734.355	80.3
734.538	80.61
734.72	80.85
734.902	81.16
735.084	81.81
735.266	82.47
735.448	82.98
735.63	83.47
735.812	83.2
735.994	83.65
736.176	83.61
736.358	83.05
736.54	82.82
736.722	83.16
736.904	82.27
737.086	82.38
737.268	82.57
737.45	82.6
737.632	82.8
737.814	82.68
737.995	82.66
738.177	82.82
738.359	82.37
738.541	82.49
738.723	83.15
738.904	83.63
739.086	83.52
739.268	83.63
739.449	83.81
739.631	83.74
739.813	83.7
739.994	84.08
740.176	85.62
740.358	85.46
740.539	85.46
740.721	85.81
740.902	85.54
741.084	84
741.265	83.55
741.447	83.66
741.628	82.81
741.81	82.6
741.991	83.72
742.172	84.08
742.354	84.34
742.535	85.16
742.717	85.23
742.898	85.47
743.079	85.77
743.261	85.49
743.442	84.55
743.623	84.91
743.804	84.6
743.986	84.63
744.167	84.04
744.348	84.29
744.529	84.13
744.71	84.22
744.891	83.89
745.073	84.2
745.254	84.6
745.435	84.12
745.616	83.27
745.797	82.83
745.978	82.63
746.159	82.42
746.34	82.99
746.521	84.17
746.702	84.47
746.883	85
747.064	84.82
747.245	84.32
747.426	82.79
747.606	83.28
747.787	83.73
747.968	83.92
748.149	83.41
748.33	84.89
748.51	84.92
748.691	83.64
748.872	83.59
749.053	84.55
749.233	83.93
749.414	82.38
749.595	82.61
749.775	81.95
749.956	81.72
750.137	81.37
750.317	83.38
750.498	85.02
750.678	85.98
750.859	86.08
751.04	85.85
751.22	85.35
751.4	84.44
751.581	84.44
751.761	84.48
751.942	84.17
752.122	83.85
752.303	84.16
752.483	83.51
752.663	83.51
752.844	83.03
753.024	84.06
753.204	83.32
753.385	83.1
753.565	82.66
753.745	83.68
753.925	82.37
754.106	82.48
754.286	82.66
754.466	82.65
754.646	83.35
754.826	82.99
755.006	82.59
755.187	83.55
755.367	83.58
755.547	82.61
755.727	83.89
755.907	84.8
756.087	85.12
756.267	85.22
756.447	84.95
756.627	82.89
756.807	83.49
756.987	82.89
757.167	83.8
757.346	84.14
757.526	84.63
757.706	83.76
757.886	84.65
758.066	84.26
758.246	85.22
758.425	84.93
758.605	84.62
758.785	83.38
758.965	82.85
759.144	81.9
759.324	83.9
759.504	84.4
759.683	84.58
759.863	83.68
760.043	82.32
760.222	80.63
760.402	79.48
760.581	78.14
760.761	79.02
760.94	79.13
761.12	81.46
761.299	81.5
761.479	82.26
761.658	81.01
761.838	81.83
762.017	80.47
762.197	81.39
762.376	82.05
762.555	82.89
762.735	82.47
762.914	81.93
763.093	81.77
763.273	81.56
763.452	82.1
763.631	83.39
763.81	83.95
763.99	84.39
764.169	84.56
764.348	82.98
764.527	81.69
764.706	82.41
764.885	82.43
765.064	80.4
765.243	82.7
765.423	84.4
765.602	83.22
765.781	80.23
765.96	80.16
766.139	78.63
766.318	78.26
766.497	77.74
766.676	78.78
766.854	80.91
767.033	82.12
767.212	80.16
767.391	80.04
767.57	81.61
767.749	80.73
767.928	81.07
768.106	82.11
768.285	81.67
768.464	81.53
768.643	81.77
768.821	81.58
769	82.79
769.179	82.22
769.357	80.87
769.536	81.22
769.715	80.84
769.893	80.96
770.072	81.44
770.25	83.39
770.429	83.03
770.607	81.86
770.786	80.84
770.964	82.19
771.143	81.91
771.321	82.67
771.5	82.51
771.678	82.29
771.857	79.74
772.035	77.78
772.213	77.02
772.392	77.2
772.57	76.96
772.748	79.31
772.927	79.93
773.105	78.84
773.283	78.39
773.461	79.57
773.64	79.16
773.818	78.73
773.996	80.42
774.174	80.08
774.352	78.36
774.531	75.94
774.709	78.71
774.887	77.07
775.065	78.21
775.243	78.9
775.421	81.96
775.599	80.9
775.777	82.36
775.955	79.51
776.133	78.35
776.311	77.43
776.489	77.14
776.667	75.75
776.844	77.43
777.022	76.8
777.2	78.39
777.378	76.29
777.556	77.19
777.734	81.44
777.911	83.87
778.089	82.06
778.267	85.46
778.445	83.16
778.622	78.85
778.8	78.35
778.978	78.05
779.155	75.48
779.333	75.93
779.511	76.4
779.688	77.12
779.866	74.19
780.043	72.08
780.221	72.75
780.398	72.52
780.576	72.17
780.753	74.02
780.931	74.95
781.108	74.8
781.286	74.4
781.463	73.58
781.64	73.52
781.818	73.32
781.995	73.27
782.172	71.79
782.35	71.1
782.527	72.59
782.704	74.44
782.882	75.77
783.059	79.88
783.236	80.35
783.413	82.4
783.59	82.61
783.768	80.6
783.945	80.78
784.122	81.64
784.299	81.19
784.476	80.51
784.653	80.76
784.83	76.85
785.007	75.58
785.184	74.23
785.361	72.45
785.538	75.53
785.715	78.21
785.892	79.51
786.069	80.49
786.246	82.75
786.423	82.42
786.6	81.31
786.776	80.65
786.953	78.8
787.13	81.08
787.307	78.42
787.484	78.33
787.66	75.57
787.837	77.06
788.014	73.27
788.191	70.83
788.367	68.52
788.544	72.15
788.721	69.99
788.897	71.2
789.074	75.36
789.25	76.66
789.427	77.73
789.603	78.46
789.78	79.86
789.956	78.37
790.133	77.65
790.309	77
790.486	75.99
790.662	72.84
790.839	72.27
791.015	72.13
791.192	69.22
791.368	67.33
791.544	70.19
791.721	70.66
791.897	73.47
792.073	72.84
792.249	73.12
792.426	72.84
792.602	74.24
792.778	76.67
792.954	76.91
793.13	79.81
793.307	76.02
793.483	68.66
793.659	65.83
793.835	72.16
794.011	69.14
794.187	70.01
794.363	77.27
794.539	76.32
794.715	68.94
794.891	68.29
795.067	67.2
795.243	65.24
795.419	66.38
795.595	64.71
795.771	65.79
795.947	67.65
796.122	70.92
796.298	69.89
796.474	71
796.65	71.37
796.826	70.32
797.001	65.99
797.177	68.05
797.353	71.78
797.529	72.83
797.704	73.93
797.88	74.59
798.056	71.44
798.231	69.77
798.407	72.53
798.582	71
798.758	76.43
798.934	81.4
799.109	85.93
799.285	83.32
799.46	84.33
799.636	82.45
799.811	79.02
799.986	75.03
800.162	77.77
800.337	80.13
800.513	76.65
800.688	78.58
800.863	78.59
801.039	70.33
801.214	65.3
801.389	71.34
801.565	64.57
801.74	60.87
801.915	73.4
802.09	77.45
802.265	75.6
802.441	75.67
802.616	79.29
802.791	70.9
802.966	70.68
803.141	66.86
803.316	68.58
803.491	68.5
803.666	73.37
803.841	69.09
804.016	68.24
804.191	66.77
804.366	63.84
804.541	62.04
804.716	65.95
804.891	69.21
805.066	69.96
805.241	66.3
805.416	63.1
805.591	58.01
805.765	60.46
805.94	65.45
806.115	65.43
806.29	62.62
806.464	67.1
806.639	57.62
806.814	53.55
806.989	56.78
807.163	60.72
807.338	63.8
807.512	71.41
807.687	62.78
807.862	70.49
808.036	72.32
808.211	73.04
808.385	73.25
808.56	79
808.734	84.21
808.909	82.44
809.083	75.47
809.258	77.1
809.432	76.61
809.606	67.5
809.781	68.56
809.955	71.88
810.13	68.81
810.304	70.07
810.478	59.46
810.652	57.89
810.827	54.87
811.001	50.82
811.175	50.44
811.349	57.01
811.524	59.99
811.698	57.04
811.872	58.77
812.046	64.86
812.22	65.6
812.394	63.83
812.568	70.39
812.742	77.2
812.916	74.23
813.09	71.89
813.264	69.64
813.438	66.39
813.612	62.45
813.786	57.49
813.96	63.6
814.134	65.73
814.308	71.82
814.482	76.02
814.656	75.29
814.83	69.78
815.003	78.3
815.177	68.08
815.351	64.1
815.525	62.43
815.698	63.05
815.872	52.94
816.046	50.06
816.219	49.3
816.393	55.81
816.567	63.04
816.74	63.32
816.914	70.73
817.088	72.68
817.261	73.43
817.435	76.55
817.608	81.27
817.782	86.03
817.955	86.78
818.129	73.63
818.302	69.22
818.475	70.71
818.649	67.73
818.822	62.41
818.996	79.65
819.169	87.08
819.342	74.08
819.516	76.76
819.689	79.3
819.862	66.96
820.035	58.01
820.209	61.33
820.382	58.74
820.555	59.98
820.728	59.69
820.901	60.38
821.075	61.71
821.248	58.7
821.421	58.52
821.594	57.59
821.767	60.26
821.94	54.8
822.113	41.25
822.286	35.86
822.459	33.85
822.632	34.23
822.805	24.59
822.978	32.83
823.151	37.57
823.324	32.64
823.496	11.16
823.669	23.52
823.842	31.28
824.015	24.12
824.188	25.81
824.361	33.12
824.533	39.38
824.706	41.66
824.879	53.11
825.051	55.79
825.224	52.52
825.397	46.31
825.569	38.44
825.742	48.37
825.915	64.6
826.087	70.46
826.26	59.94
826.432	68.64
826.605	45.59
826.777	38.56
826.95	45.27
827.122	41.41
827.295	45.84
827.467	60.62
827.64	45.03
827.812	40.4
827.984	51.59
828.157	38.05
828.329	14.37
828.501	22.76
828.674	41.83
828.846	30.1
829.018	50.03
829.19	43.48
829.363	62.05
829.535	48.09
829.707	54.89
829.879	37.29
830.051	51.71
830.223	40.9
830.395	53.6
830.568	51.48
830.74	41.34
830.912	43.28
831.084	25.11
831.256	25.01
831.428	18.12
831.6	21.74
831.772	13.23
831.943	17.89
832.115	26.19
832.287	55.63
832.459	71.85
832.631	67.84
832.803	79.47
832.975	85.33
833.146	61.28
833.318	38.39
833.49	70.34
833.662	53.19
833.833	40.17
834.005	32.88
834.177	57.07
834.348	38.78
834.52	47.92
834.692	63.32
834.863	79.34
835.035	31.29
835.206	-13.88
835.378	9.45
835.549	-9.52
835.721	5.39
835.892	33.36
836.064	53.5
836.235	48.65
836.407	77.63
836.578	52.26
836.749	20.77
836.921	-30.98
837.092	-27.65
837.264	-39.49
837.435	-43.77
837.606	-19.41
837.777	12.93
837.949	27.26
838.12	40.14
838.291	51.15
838.462	44.76
838.633	24.84
838.805	17.74
838.976	32.63
839.147	21.88
839.318	14.3
839.489	5.83
839.66	3.5
839.831	-7.03
840.002	-0.78
840.173	-1.94
840.344	54.98
840.515	69.51
840.686	56.53
840.857	42.28
841.028	40.28
841.199	-11.97
841.369	-13.43
841.54	-1.12
841.711	33.05
841.882	49.91
842.053	48.35
842.223	39.65
842.394	45.61
842.565	38.4
842.736	38.73
842.906	47.68
843.077	50.2
843.248	56.71
843.418	48.1
843.589	16.43
843.759	40.51
843.93	67.13
844.101	36.55
844.271	41.16
844.442	62.3
844.612	65.45
844.783	48.66
844.953	33.45
845.123	-0.39
845.294	-67.08
845.464	-305.37
845.635	-172.31
845.805	-106.92
845.975	-39.62
846.146	-45.55
846.316	-22.63
846.486	-0.75
846.656	35.08
846.827	33.41
846.997	33.16
847.167	40.92
847.337	30.25
847.507	-1.49
847.677	23.14
847.848	72.05
848.018	67.5
848.188	64.49
848.358	49.17
848.528	29.28
848.698	0.49
848.868	-81.1
849.038	-170.17
849.208	-34.57
849.378	6.93
849.548	3.69
849.718	33.85
849.887	43.29
850.057	25.93
850.227	9.32
850.397	-0.35
850.567	-50.69
850.737	-152.61
850.906	-472.5
851.076	-288.28
851.246	-122.51
851.415	20.69
851.585	18.6
851.755	-14.91
851.924	-21.16
852.094	-46.62
852.264	-123.45
852.433	-937.5
852.603	-106.93
852.772	-58.36
852.942	-26.17
853.111	-24.09
853.281	19.67
853.45	14.56
853.62	-10.32
853.789	1.45
853.959	-10.88
854.128	-26.58
854.297	-54.69
854.467	-28.05
854.636	-53.39
854.805	-15.77
854.975	-18.97
855.144	-6.58
855.313	-83.92
855.482	-205.84
855.652	-2.11
855.821	34.01
855.99	53.6
856.159	37.74
856.328	48.37
856.497	25.22
856.667	16.14
856.836	5.67
857.005	-1.45
857.174	-12.39
857.343	-26.79
857.512	-3.08
857.681	-9.65
857.85	-7.95
858.019	8.17
858.188	21.9
858.356	21.54
858.525	12.38
858.694	30.33
858.863	20.67
859.032	21.28
859.201	-26.38
859.369	19.9
859.538	-27.45
859.707	12
859.876	-4.95
860.044	7.24
860.213	29.48
860.382	45.54
860.55	31.9
860.719	45.45
860.888	56.05
861.056	40.96
861.225	35.47
861.393	44.02
861.562	55.59
861.73	17.58
861.899	3.14
862.067	-537.93
862.236	39.1
862.404	-5.19
862.572	28.8
862.741	56.18
862.909	59.49
863.078	-5.65
863.246	0
863.414	22.11
863.582	-19.39
863.751	-40.59
863.919	-16.1
864.087	32.72
864.255	20.67
864.424	13.15
864.592	73.77
864.76	70.09
864.928	189.6
865.096	93.63
865.264	105.93
865.432	388.64
865.6	196.5
865.768	37.91
865.936	5.35
866.104	9.35
866.272	-5.62
866.44	-41.34
866.608	267.39
866.776	195.37
866.944	1772.09
867.112	-235.17
867.28	-100.17
867.448	-18.47
867.615	21.6
867.783	45.06
867.951	17
868.119	54.94
868.286	42.66
868.454	1.49
868.622	-18.62
868.789	-3.38
868.957	-1585.71
869.125	-1231.58
869.292	-30.22
869.46	-57.19
869.627	17.34
869.795	28.11
869.963	60.83
870.13	47.88
870.298	41.86
870.465	18.7
870.632	-1.79
870.8	8.34
870.967	1.39
871.135	-2.1
871.302	-27.37
871.469	-33.19
871.637	-150.53
871.804	-55.16
871.971	-110.28
872.139	-375.35
872.306	-34.54
872.473	-16.1
872.64	-139.06
872.807	1.95
872.975	58.54
873.142	-53.45
873.309	1183.78
873.476	-11.19
873.643	17.19
873.81	6.61
873.977	21.52
874.144	17.75
874.311	-99.53
874.478	-83.9
874.645	-44.64
874.812	-32.84
874.979	7.77
875.146	24.93
875.313	-7.77
875.48	13.24
875.647	-4.31
875.813	-21.89
875.98	-10.6
876.147	-40.63
876.314	-106.86
876.481	733.88
876.647	-549.44
876.814	290.67
876.981	36.92
877.147	13.43
877.314	14.08
877.481	42.62
877.647	54.42
877.814	59.25
877.98	67.56
878.147	124.86
878.314	97.7
878.48	89.36
878.647	86.24
878.813	121.83
878.979	97.31
879.146	65.63
879.312	68.04
879.479	38.37
879.645	-116.81
879.811	-214.83
879.978	-620.61
880.144	-173.6
880.31	-48.67
880.477	-96.66
880.643	-114.08
880.809	27.27
880.975	1.74
881.142	-338.18
881.308	-7.62
881.474	63.87
881.64	44.85
881.806	42.46
881.972	50.88
882.138	41.85
882.304	-75.22
882.47	-168.7
882.636	-526.23
882.802	-85.99
882.968	-45.65
883.134	0.3
883.3	-7.42
883.466	11.24
883.632	21.14
883.798	38.44
883.964	50.37
884.129	75.66
884.295	78.69
884.461	16.94
884.627	-20.92
884.793	-67.36
884.958	-23.6
885.124	-57.77
885.29	-98.98
885.455	-218.45
885.621	-67.99
885.787	-175.84
885.952	-75.11
886.118	-59.26
886.283	-30.73
886.449	-22.88
886.614	-4.29
886.78	5.77
886.945	285.25
887.111	-110.98
887.276	-206.25
887.442	-422.73
887.607	-267.45
887.773	-178.66
887.938	-201.31
888.103	-239.63
888.269	-137.35
888.434	-181.62
888.599	-41.94
888.764	-8.2
888.93	-8.06
889.095	-4.64
889.26	-27.71
889.425	-23.35
889.59	42.7
889.756	58.93
889.921	31.52
890.086	58.59
890.251	87.94
890.416	34.32
890.581	-188.71
890.746	75
890.911	126.11
891.076	89.66
891.241	-123.13
891.406	71.24
891.571	75.36
891.736	105.96
891.901	61.06
892.065	102.2
892.23	105.85
892.395	125.64
892.56	215.9
892.725	-297.66
892.889	-1156.1
893.054	-104.1
893.219	-33.92
893.384	-8.14
893.548	-32.3
893.713	-11.45
893.878	-7.01
