Data from Ofra_PS_T2_1A_1GT42_Reflection_3.txt Node
Date: Wed Jul 21 17:49:10 EDT 2021
User: Adam
Spectrometer: FLMT01687
Trigger mode: 0
Integration Time (sec): 1.100000E0
Scans to average: 2
Electric dark correction enabled: true
Nonlinearity correction enabled: false
Boxcar width: 2
XAxis mode: Wavelengths
Number of Pixels in Spectrum: 3648
>>>>>Begin Spectral Data<<<<<
179.494	630.6
179.716	684
179.937	584.12
180.158	567.56
180.38	833.91
180.601	117.27
180.823	23.59
181.044	-111.26
181.265	43.57
181.486	35.99
181.708	163.34
181.929	831.12
182.15	-907.39
182.372	176.6
182.593	51.48
182.814	55.38
183.035	68.48
183.257	96.77
183.478	-64.31
183.699	28.16
183.92	20.14
184.141	34.64
184.363	-38.3
184.584	16.21
184.805	27.18
185.026	49.15
185.247	22.49
185.468	6.37
185.689	11.52
185.91	0.56
186.132	-17.03
186.353	-1.32
186.574	79.43
186.795	46.36
187.016	-0.89
187.237	-14.23
187.458	-19.44
187.679	-30.8
187.9	0.72
188.121	11.19
188.342	66.99
188.563	72.71
188.784	86.69
189.005	61.51
189.226	133.77
189.447	106.03
189.667	-46.24
189.888	-259.73
190.109	-871.75
190.33	-632.42
190.551	-1233.85
190.772	-193.04
190.993	-168.08
191.214	-122.33
191.434	-82.2
191.655	7.45
191.876	-39.83
192.097	-85.36
192.318	-135.09
192.538	-183.65
192.759	-159.75
192.98	-71.16
193.201	-17.79
193.421	2.67
193.642	19.17
193.863	29.81
194.083	6.29
194.304	-5.97
194.525	-11.75
194.745	-29.17
194.966	-61.85
195.187	-37.77
195.407	-34.73
195.628	-96.94
195.848	-93.68
196.069	-61.68
196.29	-38.91
196.51	-76
196.731	-62.15
196.951	-83.95
197.172	-111.77
197.392	-159.59
197.613	-134.41
197.833	-181.08
198.054	-162.4
198.274	-95.23
198.495	-112.23
198.715	-73.45
198.936	-79.34
199.156	-57.58
199.377	-153.89
199.597	-144.82
199.817	-158.72
200.038	-74.93
200.258	-135.4
200.479	-47.35
200.699	13.91
200.919	41.85
201.14	10.13
201.36	3.54
201.58	24.17
201.801	44.12
202.021	11.82
202.241	-2.96
202.461	-7.47
202.682	-107.13
202.902	-157.48
203.122	-88.1
203.342	-63.35
203.563	-19.62
203.783	28.61
204.003	-14.74
204.223	-11.43
204.443	62.14
204.663	51.93
204.884	31.12
205.104	84.38
205.324	112.82
205.544	72.94
205.764	90.59
205.984	87.88
206.204	71.26
206.424	54.29
206.644	39.67
206.864	9.31
207.084	-41.28
207.304	-31.93
207.525	-126.33
207.745	-81.47
207.964	26.42
208.184	-16.14
208.404	-63.25
208.624	-91.31
208.844	-53.16
209.064	-406.28
209.284	-449.03
209.504	-198.55
209.724	-19.75
209.944	-32.58
210.164	20.11
210.384	36.35
210.604	20.33
210.823	-33.91
211.043	-44.53
211.263	-42.62
211.483	-28.44
211.703	-76.15
211.922	-38.98
212.142	37.53
212.362	72.14
212.582	35.28
212.801	39.03
213.021	0.91
213.241	-29.03
213.461	-71.89
213.68	-79.21
213.9	-52.44
214.12	-34.41
214.339	-87.58
214.559	-75.35
214.779	-16.18
214.998	-21.26
215.218	-59.03
215.438	-24.27
215.657	-4.37
215.877	-10.55
216.096	11.08
216.316	32.47
216.535	5.21
216.755	7.79
216.974	-69.12
217.194	-105.34
217.413	-91.91
217.633	-51.19
217.852	-147.26
218.072	-59.21
218.291	-14.95
218.511	18.91
218.73	-5.9
218.95	-12.05
219.169	-11.45
219.389	-64.15
219.608	-55.24
219.827	-49.44
220.047	-30.1
220.266	-24.24
220.485	-8.63
220.705	-20.09
220.924	-33.24
221.143	16.06
221.363	-13.15
221.582	-7.61
221.801	2.56
222.021	20.53
222.24	-58.14
222.459	47.63
222.678	47.08
222.897	-4.63
223.117	-46.38
223.336	-16.97
223.555	-54.46
223.774	-20.93
223.993	-6.26
224.213	66.82
224.432	37.99
224.651	64.93
224.87	32.06
225.089	44.4
225.308	47.71
225.527	54
225.746	50.26
225.965	35.61
226.184	23.61
226.404	7.15
226.623	-23.68
226.842	-15.17
227.061	13.31
227.28	15.57
227.499	2.99
227.718	21.88
227.936	12.46
228.155	13.14
228.374	5.52
228.593	7.32
228.812	3.32
229.031	6.53
229.25	-29.54
229.469	-26.1
229.688	-1.43
229.907	24.73
230.125	49.17
230.344	59.52
230.563	59.97
230.782	48.61
231.001	-40.18
231.22	-51.96
231.438	-30.41
231.657	-24.22
231.876	-16.85
232.095	46.35
232.313	45.82
232.532	22.5
232.751	0.7
232.969	-35.38
233.188	-136.1
233.407	-52.94
233.625	-13.75
233.844	-40.34
234.063	-18.29
234.281	4.34
234.5	-14.27
234.719	-18.87
234.937	9.89
235.156	13.38
235.374	15.55
235.593	2.72
235.811	-0.18
236.03	-9.72
236.249	-74.52
236.467	-68.4
236.686	-15.77
236.904	-8.93
237.123	-37.62
237.341	-23.25
237.559	-18.27
237.778	-51.86
237.996	-73.7
238.215	-12.36
238.433	6.7
238.652	13.84
238.87	0.05
239.088	14.73
239.307	1.72
239.525	-5.49
239.743	-53.56
239.962	-42.87
240.18	-75.67
240.398	-130.2
240.617	-136.65
240.835	-97.98
241.053	-41.4
241.271	21.18
241.49	45.74
241.708	37.38
241.926	42.07
242.144	9.72
242.363	-53.27
242.581	-63.09
242.799	-14.81
243.017	2.26
243.235	-28.37
243.453	-13.65
243.672	-22.82
243.89	-29.4
244.108	-35.86
244.326	3.43
244.544	4.19
244.762	6.59
244.98	16.3
245.198	9.81
245.416	-24.01
245.634	-18.71
245.852	-25.62
246.07	-37.16
246.288	-41.86
246.506	-93.14
246.724	-74.52
246.942	-71.13
247.16	-27.56
247.378	7.84
247.596	43.83
247.814	42.82
248.032	28.26
248.25	32.96
248.468	21.02
248.685	48.94
248.903	59.19
249.121	73.75
249.339	36.29
249.557	25.76
249.775	20.33
249.992	-42.09
250.21	-42.64
250.428	-24.63
250.646	-67.14
250.863	-94.94
251.081	-41.04
251.299	-44.36
251.517	-25.23
251.734	18.15
251.952	16.7
252.17	-6.96
252.387	5.97
252.605	-1.88
252.823	-6.37
253.04	3.78
253.258	15.45
253.475	-7.73
253.693	8.56
253.911	7.69
254.128	6.67
254.346	19.2
254.563	13.45
254.781	2.35
254.998	-11.19
255.216	-16.18
255.433	-17.73
255.651	36.42
255.868	90.7
256.086	94.6
256.303	101.28
256.521	87.01
256.738	50.41
256.956	-7.32
257.173	-24.46
257.39	-58.82
257.608	-111.92
257.825	-42.7
258.043	17.82
258.26	38.43
258.477	87.7
258.695	84.12
258.912	35.11
259.129	17.98
259.346	-13.65
259.564	-40.95
259.781	-25.89
259.998	23.91
260.216	45.73
260.433	77.75
260.65	69.12
260.867	75.88
261.084	39.78
261.302	20.43
261.519	9.07
261.736	-36.87
261.953	-57.76
262.17	-10.56
262.387	-37.57
262.604	-87.61
262.822	-79.56
263.039	-70.61
263.256	-130.56
263.473	-69.27
263.69	-25.74
263.907	14.09
264.124	27.59
264.341	29.78
264.558	12.68
264.775	35.41
264.992	26.9
265.209	24.38
265.426	51.99
265.643	67.17
265.86	68.3
266.077	63.24
266.294	52.02
266.51	6.84
266.727	-32.09
266.944	-26.63
267.161	-32.62
267.378	-42.34
267.595	-14.39
267.812	-19.33
268.028	-41.91
268.245	-0.19
268.462	8.68
268.679	-3.58
268.896	36.68
269.112	33.39
269.329	20.91
269.546	14.91
269.763	7.52
269.979	-12.77
270.196	-17.86
270.413	-51.76
270.629	-62.86
270.846	-67.62
271.063	-65.98
271.279	-68.46
271.496	-60.89
271.712	-10.16
271.929	18.46
272.146	14.17
272.362	19.98
272.579	72.19
272.795	47.72
273.012	49.01
273.228	51.45
273.445	16.78
273.661	-12.15
273.878	-51.36
274.094	-49.86
274.311	-77.33
274.527	11.62
274.744	-2.62
274.96	4.43
275.177	12.26
275.393	28.69
275.609	14.21
275.826	39.11
276.042	26.6
276.259	6.33
276.475	37.28
276.691	46.56
276.908	21.77
277.124	50.29
277.34	52.59
277.557	18.92
277.773	3.2
277.989	-1.14
278.205	-12.3
278.422	0.49
278.638	11.96
278.854	22.14
279.07	26.19
279.286	19.6
279.503	16.12
279.719	-7.22
279.935	-37.44
280.151	-31.75
280.367	-1.41
280.583	-28.3
280.799	-24.27
281.016	-46.87
281.232	-24.02
281.448	-27.18
281.664	16.89
281.88	9.31
282.096	22.97
282.312	60.37
282.528	78.2
282.744	76.68
282.96	56.85
283.176	43.62
283.392	19.58
283.608	3.09
283.824	-8.54
284.04	2.99
284.256	17.04
284.471	9.17
284.687	9.91
284.903	29.8
285.119	45.14
285.335	13.94
285.551	34.95
285.767	13.46
285.982	-1.16
286.198	-22.34
286.414	34.42
286.63	35.5
286.846	51.29
287.061	23.25
287.277	55.75
287.493	26.31
287.709	32.62
287.924	17.08
288.14	62.27
288.356	51.4
288.571	70.65
288.787	47.42
289.003	39.03
289.218	11.88
289.434	-37.5
289.65	-30.71
289.865	-29.3
290.081	13.11
290.296	22.82
290.512	43.49
290.727	-9.7
290.943	-15.34
291.159	-34.47
291.374	-40.23
291.59	-62.26
291.805	-38.58
292.021	-27.42
292.236	-27.12
292.451	-4.94
292.667	10.66
292.882	26.96
293.098	19.01
293.313	7.02
293.529	-31.67
293.744	-56.32
293.959	-59.61
294.175	-41.58
294.39	-7.77
294.605	16.52
294.821	51.91
295.036	50.12
295.251	60.33
295.467	22.24
295.682	8.96
295.897	-59.54
296.112	-69.82
296.328	-84
296.543	-67.61
296.758	-59.71
296.973	-0.15
297.188	41.22
297.404	26.72
297.619	11.04
297.834	-14.04
298.049	-25.02
298.264	-60.45
298.479	7.26
298.694	19.82
298.909	42.89
299.125	34.71
299.34	50.3
299.555	14.59
299.77	40.89
299.985	-14.76
300.2	-60.27
300.415	-82.75
300.63	-40.62
300.845	-57.7
301.06	-39.47
301.275	-2.11
301.49	11.65
301.704	-16.18
301.919	-28.28
302.134	-38.07
302.349	-40.05
302.564	-91.98
302.779	-87.56
302.994	-35.15
303.209	10.81
303.423	29.78
303.638	70.77
303.853	29.93
304.068	8.2
304.283	-4.09
304.497	-6.95
304.712	-18.27
304.927	-6.23
305.142	-4.09
305.356	15.68
305.571	16.88
305.786	-1.29
306	-9.26
306.215	-0.39
306.43	-39.32
306.644	-23.62
306.859	16.66
307.074	18.6
307.288	-20
307.503	-12.19
307.717	-32.99
307.932	-29.58
308.147	-36.4
308.361	-10.07
308.576	-22.58
308.79	-60.2
309.005	-59.84
309.219	-36.64
309.434	-58.19
309.648	-44.65
309.863	-0.75
310.077	4.62
310.292	-8.97
310.506	8.86
310.72	22.33
310.935	4.06
311.149	-3.31
311.364	27.84
311.578	30.82
311.792	18.46
312.007	38.02
312.221	28.64
312.435	19.99
312.649	7.51
312.864	48.67
313.078	52.24
313.292	106.48
313.507	85.06
313.721	149.49
313.935	65.01
314.149	52.76
314.363	35.48
314.578	29.21
314.792	22.55
315.006	-0.54
315.22	13.43
315.434	31.16
315.648	46.44
315.862	47.16
316.077	46.01
316.291	35.79
316.505	31.08
316.719	12.43
316.933	-20.17
317.147	7.96
317.361	-34.52
317.575	-55.54
317.789	-72.27
318.003	-101.94
318.217	-60.25
318.431	15.95
318.645	39.22
318.859	27.26
319.073	54.53
319.287	29.02
319.5	-6.74
319.714	-51.53
319.928	-68.79
320.142	-99.04
320.356	-37.03
320.57	-9.03
320.784	-27.28
320.997	-32.6
321.211	-15.14
321.425	-87.31
321.639	-112.11
321.853	-22.93
322.066	-4.68
322.28	-18.82
322.494	2.58
322.707	38.58
322.921	8.08
323.135	4.13
323.349	20.45
323.562	-9.59
323.776	-33.47
323.989	-27.7
324.203	-51.27
324.417	-52.72
324.63	-57.61
324.844	-56.99
325.057	-61.29
325.271	-13.14
325.485	1.33
325.698	31.43
325.912	38.52
326.125	15.02
326.339	3.07
326.552	-10.08
326.766	-33.76
326.979	-3.63
327.193	42.76
327.406	29.47
327.619	22.17
327.833	45.78
328.046	16.87
328.26	-20.32
328.473	9.77
328.686	-6.2
328.9	-27.52
329.113	-17.76
329.326	-29.49
329.54	-38.19
329.753	-54.48
329.966	-57.66
330.179	-48.07
330.393	-28.82
330.606	-17.44
330.819	4.65
331.032	29.22
331.246	26.2
331.459	60.14
331.672	49.15
331.885	41.06
332.098	5.21
332.311	15.65
332.525	-49.18
332.738	-26.6
332.951	-3.65
333.164	13.21
333.377	22.43
333.59	34.13
333.803	38.77
334.016	17.18
334.229	27.64
334.442	28.03
334.655	44.74
334.868	31.08
335.081	48.94
335.294	36.18
335.507	32.88
335.72	10.78
335.933	2.09
336.146	-7.75
336.359	-6.35
336.572	-52.42
336.785	-61.71
336.997	-45.63
337.21	-8.68
337.423	-23.14
337.636	-6.64
337.849	13.57
338.062	-16.57
338.274	-16.43
338.487	-16.29
338.7	-17.87
338.913	-62.18
339.125	-62.92
339.338	-119.75
339.551	-73.73
339.763	-34.48
339.976	7.52
340.189	27.61
340.402	40.3
340.614	7.99
340.827	-1.88
341.039	-25.02
341.252	-40.99
341.465	-20.19
341.677	-22.73
341.89	-72.53
342.102	-34.87
342.315	-51.2
342.527	-95.54
342.74	-64.89
342.952	-13.43
343.165	-29.54
343.377	7.79
343.59	6.98
343.802	15.13
344.015	13.55
344.227	30.08
344.44	24.38
344.652	27.31
344.864	25.47
345.077	33.19
345.289	31.68
345.502	41.87
345.714	40.58
345.926	38.85
346.139	29.18
346.351	36.29
346.563	32.73
346.775	40.18
346.988	26.74
347.2	17.74
347.412	-33.93
347.624	-60.11
347.837	-91.68
348.049	-54.85
348.261	-0.97
348.473	22.78
348.685	23.18
348.897	8.08
349.11	-13.32
349.322	-39.37
349.534	-30.93
349.746	-20.75
349.958	1.83
350.17	-5.43
350.382	2.12
350.594	-6.03
350.806	-8.05
351.018	6.71
351.23	-4.99
351.442	-61.64
351.654	-59.13
351.866	-55.29
352.078	-58.56
352.29	-12.14
352.502	19.63
352.714	29.24
352.926	22.36
353.138	21.9
353.35	5.14
353.561	0.3
353.773	-24.75
353.985	-7.06
354.197	-17.66
354.409	-24.87
354.621	-30.53
354.832	-12.04
355.044	-30.89
355.256	-40.26
355.468	-21.7
355.679	-16.41
355.891	-23.27
356.103	-19.66
356.314	0.34
356.526	-0.86
356.738	-1.94
356.949	6.12
357.161	33.81
357.373	19.21
357.584	4.27
357.796	10.67
358.008	-5.41
358.219	0.98
358.431	2.73
358.642	18.78
358.854	12.29
359.065	14.29
359.277	-19.22
359.488	-28.62
359.7	-44.83
359.911	-62.7
360.123	-36.06
360.334	-49.17
360.546	-60.31
360.757	-60.33
360.969	-38.6
361.18	-36.28
361.391	-19.42
361.603	-36.6
361.814	-25.29
362.025	-31.02
362.237	-29.79
362.448	-30.74
362.659	1.33
362.871	-2.85
363.082	-2.24
363.293	-2.65
363.504	0.18
363.716	-18.95
363.927	-13.62
364.138	-25.92
364.349	-43.36
364.56	-42.36
364.772	-33.31
364.983	-17.67
365.194	-16.5
365.405	0.03
365.616	12.68
365.827	12.42
366.038	-25.17
366.25	-25.01
366.461	-51.82
366.672	-42.81
366.883	-18.24
367.094	-0.1
367.305	-16.54
367.516	-9.35
367.727	-34.04
367.938	-48.66
368.149	-49.62
368.36	-8.49
368.571	-7.63
368.781	-9.78
368.992	-18.66
369.203	-33.87
369.414	-58.48
369.625	-71.68
369.836	-56.73
370.047	-79.44
370.258	-61.09
370.468	-70.98
370.679	-73.08
370.89	-74.48
371.101	-52.79
371.312	-57.56
371.522	-48.35
371.733	-32.86
371.944	-26.35
372.155	-26.11
372.365	-26.76
372.576	-29.81
372.787	-38.99
372.997	-59.03
373.208	-49.12
373.419	-4.33
373.629	-22.25
373.84	-27.38
374.05	-36.25
374.261	-23.79
374.472	-58.92
374.682	-6.15
374.893	-1.99
375.103	36.9
375.314	25.55
375.524	21.8
375.735	15.26
375.945	17.47
376.156	-15.45
376.366	-9.37
376.577	-4.2
376.787	-21.58
376.997	-7.27
377.208	-7.94
377.418	-20.61
377.629	-1.39
377.839	8.76
378.049	4.24
378.26	33.21
378.47	40.97
378.68	17.28
378.89	7.42
379.101	-2.31
379.311	-39.82
379.521	-83.1
379.732	-64.19
379.942	-58.64
380.152	-75.41
380.362	-37.14
380.572	-21.42
380.783	-12.33
380.993	0.03
381.203	19.97
381.413	33.71
381.623	38.38
381.833	29.66
382.043	16.63
382.253	1.38
382.463	-13.74
382.674	-23.48
382.884	-39.06
383.094	-33.65
383.304	-26.95
383.514	-12.75
383.724	5.34
383.934	-0.47
384.144	-13.67
384.353	-16.54
384.563	-21.68
384.773	-20.67
384.983	-24.94
385.193	5.34
385.403	11.47
385.613	13
385.823	2.22
386.033	8.79
386.242	-4.07
386.452	-5.95
386.662	-14.6
386.872	-1.14
387.082	-5.06
387.291	-16.03
387.501	-25.03
387.711	-21.7
387.921	-29.38
388.13	-25.15
388.34	-6.11
388.55	-7.49
388.759	-5.37
388.969	-0.04
389.179	-0.88
389.388	-1.96
389.598	5.42
389.807	-1.48
390.017	-6.53
390.227	-4.24
390.436	-9.55
390.646	-7.38
390.855	-4.82
391.065	-4.83
391.274	-6.19
391.484	-8.83
391.693	-7.36
391.903	-4.97
392.112	1.25
392.322	2.73
392.531	6.27
392.74	4.97
392.95	0.56
393.159	-1.76
393.369	-2.25
393.578	-1.22
393.787	-2.75
393.997	-0.35
394.206	-2.73
394.415	-1.18
394.625	-2.95
394.834	-4.74
395.043	-3.76
395.252	0.14
395.462	0.47
395.671	2.19
395.88	5.06
396.089	6.19
396.298	2.94
396.508	3.81
396.717	3.1
396.926	2.35
397.135	0.67
397.344	1.08
397.553	0.91
397.762	2.4
397.971	2.21
398.181	3.47
398.39	3.26
398.599	2.56
398.808	2.49
399.017	3.17
399.226	3.95
399.435	5.17
399.644	5.28
399.853	4.29
400.062	3.78
400.27	3.11
400.479	2.47
400.688	1.98
400.897	2.3
401.106	2.35
401.315	1.85
401.524	1.74
401.733	2.65
401.941	3.06
402.15	3.31
402.359	3.2
402.568	3.84
402.777	3.72
402.985	3.17
403.194	2.99
403.403	3.17
403.612	2.53
403.82	2.17
404.029	2.59
404.238	2.42
404.446	2.67
404.655	2.72
404.864	2.65
405.072	2.31
405.281	2.71
405.489	2.42
405.698	2.46
405.906	2.58
406.115	2.64
406.324	2.36
406.532	2.76
406.741	2.96
406.949	2.93
407.158	2.93
407.366	3.06
407.574	2.73
407.783	2.69
407.991	2.65
408.2	2.86
408.408	2.81
408.617	2.77
408.825	2.53
409.033	2.54
409.242	2.5
409.45	2.62
409.658	2.54
409.867	2.68
410.075	2.5
410.283	2.29
410.491	2.13
410.7	2.14
410.908	2.2
411.116	2.62
411.324	2.67
411.533	2.6
411.741	2.81
411.949	2.69
412.157	2.35
412.365	2.4
412.573	2.47
412.781	2.45
412.99	2.44
413.198	2.55
413.406	2.51
413.614	2.48
413.822	2.35
414.03	2.34
414.238	2.16
414.446	2.2
414.654	2.01
414.862	2.14
415.07	2.09
415.278	2.38
415.486	2.15
415.694	2.32
415.902	2.17
416.109	2.21
416.317	2.12
416.525	2.13
416.733	2.13
416.941	2.25
417.149	2.2
417.357	2.23
417.564	2.38
417.772	2.57
417.98	2.61
418.188	2.59
418.395	2.6
418.603	2.82
418.811	2.45
419.019	2.26
419.226	2.54
419.434	2.59
419.642	2.18
419.849	2.38
420.057	2.45
420.265	2.21
420.472	1.86
420.68	2.04
420.887	1.88
421.095	2.03
421.302	2.15
421.51	2.44
421.717	2.48
421.925	2.64
422.132	2.42
422.34	2.16
422.547	2.28
422.755	2.21
422.962	2.06
423.17	1.98
423.377	2.12
423.585	2.13
423.792	1.98
423.999	2.05
424.207	2.03
424.414	2.19
424.621	2.03
424.829	2.16
425.036	2.24
425.243	2.37
425.451	2.15
425.658	1.9
425.865	2.09
426.072	2.09
426.28	2.37
426.487	2.34
426.694	2.59
426.901	2.31
427.108	2.29
427.315	2.08
427.523	2.38
427.73	2.32
427.937	2.31
428.144	2.12
428.351	2.06
428.558	2.16
428.765	2.01
428.972	1.96
429.179	2.21
429.386	2.48
429.593	2.1
429.8	2.14
430.007	2.35
430.214	2.36
430.421	2.07
430.628	1.95
430.835	1.9
431.042	2.12
431.249	2.16
431.456	2.15
431.662	2.43
431.869	2.69
432.076	2.55
432.283	2.62
432.49	2.74
432.697	2.73
432.903	2.43
433.11	2.32
433.317	2.34
433.524	2.46
433.73	2.33
433.937	2.71
434.144	2.61
434.35	2.58
434.557	2.44
434.764	2.5
434.97	2.27
435.177	2.48
435.384	2.32
435.59	2.37
435.797	2.57
436.003	2.65
436.21	2.64
436.416	2.81
436.623	2.79
436.829	2.77
437.036	2.86
437.242	2.87
437.449	2.67
437.655	2.73
437.862	2.68
438.068	2.61
438.275	2.7
438.481	3.03
438.687	2.96
438.894	2.98
439.1	3.01
439.307	3.16
439.513	3.03
439.719	3.1
439.926	3.24
440.132	3.19
440.338	2.99
440.544	3.09
440.751	3
440.957	2.94
441.163	2.89
441.369	2.97
441.575	2.62
441.782	2.55
441.988	2.38
442.194	2.44
442.4	2.34
442.606	2.76
442.812	2.92
443.018	3.09
443.224	3.16
443.431	3.2
443.637	2.98
443.843	2.92
444.049	2.94
444.255	2.89
444.461	3
444.667	2.95
444.873	3.04
445.079	2.96
445.284	3.02
445.49	2.79
445.696	2.74
445.902	2.64
446.108	2.56
446.314	2.44
446.52	2.51
446.726	2.74
446.931	2.81
447.137	2.9
447.343	3.03
447.549	2.98
447.755	2.86
447.96	2.9
448.166	2.88
448.372	2.77
448.578	2.91
448.783	2.93
448.989	2.98
449.195	3.19
449.4	3.25
449.606	3.18
449.812	3.1
450.017	3.07
450.223	2.9
450.428	2.78
450.634	2.95
450.84	3.08
451.045	3.06
451.251	3.08
451.456	3.3
451.662	3.26
451.867	3.34
452.073	3.32
452.278	3.4
452.483	3.53
452.689	3.47
452.894	3.5
453.1	3.46
453.305	3.36
453.51	3.21
453.716	3.11
453.921	3.05
454.127	3.06
454.332	3.01
454.537	3
454.742	3.04
454.948	2.98
455.153	3.09
455.358	3.12
455.563	3.26
455.769	3.43
455.974	3.48
456.179	3.31
456.384	3.37
456.589	3.31
456.795	3.03
457	3
457.205	3.33
457.41	3.34
457.615	3.27
457.82	3.44
458.025	3.44
458.23	3.22
458.435	3.21
458.64	3.12
458.845	3.23
459.05	3.26
459.255	3.29
459.46	3.25
459.665	3.33
459.87	3.28
460.075	3.23
460.28	3.2
460.485	3.42
460.69	3.4
460.895	3.22
461.099	3.23
461.304	3.46
461.509	3.36
461.714	3.26
461.919	3.56
462.123	3.47
462.328	3.46
462.533	3.37
462.738	3.53
462.942	3.34
463.147	3.47
463.352	3.38
463.556	3.48
463.761	3.51
463.966	3.53
464.17	3.53
464.375	3.46
464.58	3.37
464.784	3.34
464.989	3.28
465.193	3.29
465.398	3.33
465.602	3.49
465.807	3.39
466.011	3.44
466.216	3.46
466.42	3.51
466.625	3.5
466.829	3.63
467.034	3.69
467.238	3.78
467.443	3.71
467.647	3.56
467.851	3.62
468.056	3.74
468.26	3.67
468.464	3.77
468.669	3.96
468.873	4.14
469.077	4.04
469.282	4.08
469.486	4.08
469.69	4.07
469.894	3.79
470.099	3.83
470.303	4.02
470.507	3.95
470.711	3.76
470.915	3.85
471.119	3.81
471.324	3.65
471.528	3.68
471.732	3.82
471.936	3.82
472.14	3.86
472.344	3.89
472.548	3.9
472.752	4.07
472.956	4.34
473.16	4.31
473.364	4.26
473.568	4.25
473.772	4.26
473.976	4.13
474.18	4.09
474.384	4.12
474.588	4.08
474.792	3.93
474.995	3.91
475.199	4.01
475.403	4.15
475.607	4.18
475.811	4.16
476.015	4.2
476.218	4.21
476.422	3.99
476.626	4.13
476.83	4.27
477.033	4.19
477.237	4.08
477.441	4.25
477.644	4.21
477.848	4.16
478.052	4.08
478.255	4.17
478.459	4.17
478.663	4.31
478.866	4.31
479.07	4.42
479.273	4.5
479.477	4.56
479.681	4.48
479.884	4.44
480.088	4.39
480.291	4.33
480.495	4.28
480.698	4.19
480.901	4.3
481.105	4.45
481.308	4.43
481.512	4.39
481.715	4.5
481.919	4.46
482.122	4.39
482.325	4.47
482.529	4.51
482.732	4.48
482.935	4.41
483.138	4.35
483.342	4.38
483.545	4.49
483.748	4.57
483.952	4.67
484.155	4.88
484.358	4.87
484.561	4.77
484.764	4.69
484.967	4.79
485.171	4.76
485.374	4.7
485.577	4.79
485.78	4.85
485.983	4.81
486.186	4.72
486.389	4.69
486.592	4.64
486.795	4.7
486.998	4.61
487.201	4.65
487.404	4.78
487.607	4.85
487.81	4.79
488.013	4.84
488.216	4.88
488.419	4.86
488.622	4.79
488.825	4.74
489.028	4.68
489.231	4.57
489.433	4.47
489.636	4.4
489.839	4.38
490.042	4.29
490.245	4.29
490.447	4.33
490.65	4.38
490.853	4.44
491.056	4.58
491.258	4.6
491.461	4.6
491.664	4.67
491.866	4.54
492.069	4.62
492.272	4.54
492.474	4.56
492.677	4.55
492.879	4.72
493.082	4.76
493.285	4.98
493.487	4.96
493.69	4.91
493.892	4.72
494.095	4.61
494.297	4.48
494.5	4.55
494.702	4.56
494.905	4.69
495.107	4.7
495.309	4.74
495.512	4.7
495.714	4.78
495.917	4.84
496.119	4.84
496.321	4.9
496.524	4.94
496.726	4.89
496.928	4.88
497.13	4.84
497.333	4.76
497.535	4.8
497.737	4.83
497.939	4.87
498.142	4.95
498.344	4.94
498.546	4.83
498.748	4.84
498.95	4.92
499.152	4.91
499.355	4.96
499.557	5.01
499.759	5.07
499.961	4.94
500.163	4.95
500.365	4.94
500.567	5.02
500.769	4.94
500.971	4.99
501.173	4.94
501.375	4.99
501.577	4.9
501.779	4.98
501.981	4.99
502.183	5
502.385	4.95
502.587	4.94
502.788	4.99
502.99	4.97
503.192	5.04
503.394	5.02
503.596	5.05
503.798	5.05
503.999	5.09
504.201	5.05
504.403	5.14
504.605	5.18
504.806	5.12
505.008	5.14
505.21	5.24
505.411	5.19
505.613	5.18
505.815	5.19
506.016	5.2
506.218	5.27
506.42	5.23
506.621	5.25
506.823	5.32
507.024	5.28
507.226	5.23
507.427	5.26
507.629	5.29
507.83	5.3
508.032	5.28
508.233	5.39
508.435	5.43
508.636	5.5
508.838	5.43
509.039	5.54
509.24	5.5
509.442	5.53
509.643	5.44
509.845	5.46
510.046	5.46
510.247	5.45
510.448	5.43
510.65	5.5
510.851	5.63
511.052	5.61
511.254	5.59
511.455	5.69
511.656	5.79
511.857	5.84
512.058	5.82
512.26	5.79
512.461	5.75
512.662	5.73
512.863	5.58
513.064	5.59
513.265	5.68
513.466	5.74
513.667	5.65
513.868	5.68
514.069	5.84
514.27	5.87
514.471	5.79
514.672	5.87
514.873	5.89
515.074	5.88
515.275	5.77
515.476	5.79
515.677	5.77
515.878	5.91
516.079	5.85
516.28	5.93
516.481	6.05
516.682	6.06
516.882	5.87
517.083	5.83
517.284	5.77
517.485	5.7
517.686	5.71
517.886	5.76
518.087	5.82
518.288	5.87
518.488	5.83
518.689	5.81
518.89	5.81
519.091	5.84
519.291	5.82
519.492	5.92
519.692	5.97
519.893	6.07
520.094	6.01
520.294	6.04
520.495	5.97
520.695	5.96
520.896	5.91
521.096	5.98
521.297	5.98
521.497	6.03
521.698	6
521.898	5.99
522.099	5.99
522.299	6.1
522.499	6.09
522.7	6.14
522.9	6.15
523.101	6.23
523.301	6.17
523.501	6.16
523.702	6.16
523.902	6.25
524.102	6.24
524.302	6.21
524.503	6.27
524.703	6.28
524.903	6.3
525.103	6.23
525.304	6.39
525.504	6.45
525.704	6.52
525.904	6.42
526.104	6.42
526.304	6.31
526.504	6.3
526.705	6.29
526.905	6.41
527.105	6.46
527.305	6.49
527.505	6.38
527.705	6.33
527.905	6.32
528.105	6.34
528.305	6.32
528.505	6.45
528.705	6.54
528.905	6.48
529.105	6.52
529.304	6.59
529.504	6.63
529.704	6.51
529.904	6.53
530.104	6.51
530.304	6.59
530.503	6.53
530.703	6.57
530.903	6.59
531.103	6.65
531.303	6.52
531.502	6.59
531.702	6.7
531.902	6.74
532.101	6.65
532.301	6.74
532.501	6.67
532.7	6.59
532.9	6.58
533.1	6.63
533.299	6.63
533.499	6.67
533.698	6.66
533.898	6.74
534.097	6.77
534.297	6.82
534.496	6.83
534.696	6.86
534.895	6.89
535.095	6.96
535.294	6.93
535.494	6.89
535.693	6.93
535.892	6.94
536.092	6.86
536.291	6.8
536.491	6.9
536.69	6.91
536.889	6.84
537.088	6.84
537.288	6.93
537.487	6.98
537.686	6.98
537.886	7.06
538.085	7.12
538.284	7.25
538.483	7.21
538.682	7.32
538.882	7.29
539.081	7.34
539.28	7.18
539.479	7.21
539.678	7.1
539.877	7.26
540.076	7.27
540.275	7.36
540.474	7.47
540.673	7.57
540.872	7.48
541.071	7.49
541.27	7.48
541.469	7.51
541.668	7.5
541.867	7.55
542.066	7.63
542.265	7.72
542.464	7.69
542.663	7.72
542.862	7.9
543.06	7.91
543.259	7.97
543.458	8
543.657	8.06
543.856	8.02
544.054	8.05
544.253	8
544.452	8.03
544.651	8.11
544.849	8.06
545.048	8.1
545.247	8.19
545.445	8.23
545.644	8.25
545.843	8.29
546.041	8.3
546.24	8.37
546.438	8.48
546.637	8.53
546.836	8.67
547.034	8.78
547.233	8.78
547.431	8.78
547.63	8.82
547.828	8.77
548.027	8.74
548.225	8.72
548.423	8.74
548.622	8.81
548.82	8.85
549.019	8.94
549.217	9.08
549.415	9.17
549.614	9.17
549.812	9.19
550.01	9.16
550.209	9.2
550.407	9.23
550.605	9.24
550.803	9.42
551.002	9.56
551.2	9.52
551.398	9.59
551.596	9.73
551.794	9.73
551.993	9.77
552.191	9.96
552.389	10.07
552.587	10.13
552.785	10.19
552.983	10.31
553.181	10.34
553.379	10.37
553.577	10.42
553.775	10.53
553.973	10.6
554.171	10.72
554.369	10.71
554.567	10.75
554.765	10.76
554.963	10.83
555.161	10.75
555.359	10.92
555.557	11.04
555.755	11.12
555.952	11.19
556.15	11.34
556.348	11.39
556.546	11.51
556.744	11.53
556.941	11.53
557.139	11.64
557.337	11.72
557.535	11.65
557.732	11.82
557.93	12
558.128	12.05
558.325	12.14
558.523	12.23
558.721	12.33
558.918	12.35
559.116	12.41
559.313	12.42
559.511	12.6
559.708	12.64
559.906	12.72
560.104	12.86
560.301	12.99
560.498	13.01
560.696	13.04
560.893	13.1
561.091	13.22
561.288	13.29
561.486	13.43
561.683	13.55
561.88	13.66
562.078	13.7
562.275	13.73
562.473	13.82
562.67	13.99
562.867	14.12
563.064	14.21
563.262	14.32
563.459	14.39
563.656	14.53
563.853	14.6
564.051	14.69
564.248	14.89
564.445	15.04
564.642	15.02
564.839	15.17
565.036	15.33
565.234	15.42
565.431	15.47
565.628	15.59
565.825	15.62
566.022	15.67
566.219	15.72
566.416	15.76
566.613	15.84
566.81	15.97
567.007	15.95
567.204	15.97
567.401	16.07
567.598	16.12
567.795	16.11
567.991	16.21
568.188	16.33
568.385	16.44
568.582	16.56
568.779	16.68
568.976	16.84
569.172	16.98
569.369	17.01
569.566	17.1
569.763	17.22
569.96	17.15
570.156	17.05
570.353	17.07
570.55	17.07
570.746	17.07
570.943	17.24
571.14	17.34
571.336	17.47
571.533	17.56
571.729	17.52
571.926	17.55
572.123	17.66
572.319	17.58
572.516	17.53
572.712	17.67
572.909	17.68
573.105	17.75
573.302	17.87
573.498	18.03
573.695	18.04
573.891	18.09
574.087	18.12
574.284	18.16
574.48	18.02
574.677	17.98
574.873	17.97
575.069	17.97
575.266	18.03
575.462	17.99
575.658	18.16
575.854	18.26
576.051	18.25
576.247	18.3
576.443	18.42
576.639	18.3
576.835	18.23
577.032	18.21
577.228	18.21
577.424	18.31
577.62	18.24
577.816	18.27
578.012	18.23
578.208	18.12
578.404	18.12
578.6	18.26
578.796	18.31
578.993	18.45
579.189	18.51
579.384	18.31
579.58	18.21
579.776	18.13
579.972	18.06
580.168	17.94
580.364	18.11
580.56	18.18
580.756	18.23
580.952	18.19
581.148	18.27
581.343	18.16
581.539	18.13
581.735	18.17
581.931	18.18
582.127	18.18
582.322	18.18
582.518	18.21
582.714	18.18
582.909	18.23
583.105	18.21
583.301	18.17
583.496	18.2
583.692	18.08
583.888	17.94
584.083	18.02
584.279	18.11
584.474	18.08
584.67	18.16
584.866	18.23
585.061	18.1
585.257	18.18
585.452	18.1
585.648	18.04
585.843	18.07
586.039	18.19
586.234	18.05
586.429	18.09
586.625	18.21
586.82	18.18
587.015	18.13
587.211	18.02
587.406	18.1
587.601	17.99
587.797	17.96
587.992	17.88
588.187	18.06
588.383	17.88
588.578	17.82
588.773	17.9
588.968	18
589.163	17.92
589.359	18.08
589.554	18.14
589.749	18.14
589.944	18.07
590.139	18.15
590.334	18.13
590.529	18.18
590.724	18.27
590.919	18.41
591.114	18.47
591.309	18.59
591.504	18.58
591.699	18.49
591.894	18.51
592.089	18.41
592.284	18.38
592.479	18.51
592.674	18.47
592.869	18.5
593.064	18.69
593.259	18.8
593.454	18.86
593.648	19.06
593.843	19.14
594.038	19.11
594.233	19.07
594.428	19.05
594.622	19.03
594.817	19.15
595.012	19.21
595.206	19.29
595.401	19.39
595.596	19.47
595.79	19.54
595.985	19.74
596.18	19.82
596.374	19.98
596.569	20.09
596.763	20.01
596.958	20.03
597.153	20.1
597.347	20.1
597.542	20.15
597.736	20.24
597.931	20.26
598.125	20.27
598.319	20.35
598.514	20.37
598.708	20.43
598.903	20.52
599.097	20.55
599.291	20.61
599.486	20.71
599.68	20.71
599.874	20.8
600.069	20.83
600.263	20.88
600.457	20.88
600.651	21.12
600.846	21.09
601.04	21.27
601.234	21.28
601.428	21.39
601.622	21.34
601.817	21.37
602.011	21.37
602.205	21.34
602.399	21.36
602.593	21.3
602.787	21.36
602.981	21.34
603.175	21.53
603.369	21.41
603.563	21.49
603.757	21.52
603.951	21.46
604.145	21.4
604.339	21.52
604.533	21.43
604.727	21.42
604.921	21.43
605.115	21.46
605.309	21.52
605.502	21.62
605.696	21.53
605.89	21.5
606.084	21.31
606.278	21.2
606.471	21.03
606.665	20.96
606.859	20.87
607.053	20.8
607.246	20.75
607.44	20.76
607.634	20.73
607.827	20.79
608.021	20.76
608.214	20.71
608.408	20.63
608.602	20.6
608.795	20.47
608.989	20.37
609.182	20.33
609.376	20.31
609.569	20.22
609.763	20.17
609.956	20.2
610.15	20.1
610.343	20.02
610.537	19.99
610.73	20.01
610.923	19.95
611.117	19.93
611.31	19.83
611.504	19.8
611.697	19.64
611.89	19.57
612.083	19.5
612.277	19.55
612.47	19.42
612.663	19.35
612.856	19.29
613.05	19.17
613.243	18.99
613.436	18.9
613.629	18.83
613.822	18.74
614.015	18.65
614.209	18.55
614.402	18.56
614.595	18.56
614.788	18.51
614.981	18.41
615.174	18.4
615.367	18.26
615.56	18.14
615.753	18
615.946	17.93
616.139	17.9
616.332	17.98
616.525	17.94
616.718	18.14
616.911	18.13
617.103	18.09
617.296	17.96
617.489	17.9
617.682	17.73
617.875	17.73
618.067	17.67
618.26	17.59
618.453	17.67
618.646	17.61
618.838	17.56
619.031	17.64
619.224	17.61
619.417	17.52
619.609	17.53
619.802	17.46
619.994	17.38
620.187	17.42
620.38	17.42
620.572	17.27
620.765	17.31
620.957	17.12
621.15	17.02
621.342	16.95
621.535	17.01
621.727	16.91
621.92	16.89
622.112	16.84
622.305	16.85
622.497	16.73
622.69	16.78
622.882	16.86
623.074	16.92
623.267	16.84
623.459	16.84
623.651	16.77
623.844	16.77
624.036	16.72
624.228	16.65
624.42	16.67
624.613	16.65
624.805	16.6
624.997	16.55
625.189	16.52
625.381	16.48
625.574	16.44
625.766	16.32
625.958	16.31
626.15	16.38
626.342	16.37
626.534	16.4
626.726	16.45
626.918	16.39
627.11	16.33
627.302	16.29
627.494	16.18
627.686	16.19
627.878	16.17
628.07	16.14
628.262	16.12
628.454	16.16
628.646	16.14
628.838	16.2
629.029	16.14
629.221	16.19
629.413	16.04
629.605	15.85
629.797	15.75
629.989	15.79
630.18	15.71
630.372	15.73
630.564	15.8
630.755	15.85
630.947	15.87
631.139	15.74
631.33	15.69
631.522	15.8
631.714	15.75
631.905	15.7
632.097	15.69
632.289	15.69
632.48	15.51
632.672	15.44
632.863	15.3
633.055	15.29
633.246	15.24
633.438	15.24
633.629	15.17
633.821	15.24
634.012	15.26
634.203	15.18
634.395	15.2
634.586	15.21
634.777	15.16
634.969	15.18
635.16	15.29
635.351	15.19
635.543	15.21
635.734	15.17
635.925	15.1
636.117	15.08
636.308	15.14
636.499	15.11
636.69	15.01
636.881	14.94
637.073	15
637.264	14.96
637.455	14.96
637.646	15.12
637.837	15.23
638.028	15.15
638.219	15.23
638.41	15.18
638.601	15.04
638.792	15.11
638.983	14.99
639.174	14.9
639.365	14.93
639.556	14.93
639.747	14.75
639.938	14.84
640.129	14.77
640.32	14.75
640.511	14.73
640.701	14.83
640.892	14.83
641.083	14.84
641.274	14.86
641.465	14.87
641.655	14.8
641.846	14.71
642.037	14.72
642.228	14.61
642.418	14.68
642.609	14.66
642.8	14.69
642.99	14.61
643.181	14.75
643.372	14.73
643.562	14.65
643.753	14.48
643.943	14.48
644.134	14.27
644.324	14.14
644.515	14.1
644.705	14.26
644.896	14.25
645.086	14.29
645.277	14.32
645.467	14.31
645.658	14.23
645.848	14.24
646.038	14.33
646.229	14.29
646.419	14.26
646.61	14.27
646.8	14.27
646.99	14.13
647.18	14.11
647.371	14.17
647.561	14.05
647.751	14.02
647.941	13.98
648.132	13.93
648.322	13.91
648.512	13.97
648.702	13.94
648.892	13.99
649.082	14.02
649.272	13.85
649.462	13.71
649.653	13.69
649.843	13.59
650.033	13.62
650.223	13.67
650.413	13.69
650.603	13.71
650.793	13.76
650.983	13.61
651.172	13.52
651.362	13.54
651.552	13.46
651.742	13.31
651.932	13.35
652.122	13.39
652.312	13.38
652.502	13.36
652.691	13.4
652.881	13.32
653.071	13.32
653.261	13.15
653.45	13.02
653.64	13.01
653.83	12.82
654.019	12.62
654.209	12.6
654.399	12.52
654.588	12.39
654.778	12.44
654.968	12.34
655.157	12.25
655.347	12.16
655.536	11.98
655.726	11.8
655.915	11.7
656.105	11.55
656.294	11.49
656.484	11.29
656.673	11.14
656.863	11.11
657.052	10.9
657.241	10.68
657.431	10.54
657.62	10.45
657.809	10.13
657.999	10.03
658.188	9.84
658.377	9.68
658.567	9.61
658.756	9.61
658.945	9.49
659.134	9.4
659.324	9.38
659.513	9.24
659.702	9.09
659.891	8.92
660.08	8.84
660.269	8.72
660.458	8.57
660.648	8.48
660.837	8.4
661.026	8.35
661.215	8.25
661.404	8.03
661.593	7.88
661.782	7.72
661.971	7.59
662.16	7.49
662.349	7.49
662.538	7.43
662.726	7.43
662.915	7.25
663.104	7.11
663.293	7.08
663.482	7.13
663.671	6.99
663.86	6.92
664.048	6.86
664.237	6.87
664.426	6.55
664.615	6.58
664.803	6.64
664.992	6.56
665.181	6.39
665.369	6.34
665.558	6.18
665.747	6.05
665.935	6.12
666.124	6.15
666.312	6.25
666.501	6.19
666.69	6.06
666.878	5.91
667.067	5.68
667.255	5.71
667.444	6.01
667.632	6.12
667.82	6.25
668.009	6.28
668.197	6.08
668.386	5.83
668.574	5.81
668.762	5.59
668.951	5.57
669.139	5.67
669.327	5.58
669.516	5.65
669.704	5.64
669.892	5.82
670.08	5.83
670.269	5.77
670.457	5.62
670.645	5.54
670.833	5.61
671.021	5.53
671.21	5.71
671.398	5.93
671.586	6.07
671.774	5.82
671.962	5.84
672.15	5.88
672.338	5.76
672.526	5.72
672.714	5.81
672.902	5.89
673.09	5.99
673.278	6.18
673.466	6.3
673.654	6.43
673.842	6.41
674.03	6.34
674.218	6.18
674.405	6.16
674.593	6.04
674.781	6.26
674.969	6.25
675.157	6.46
675.344	6.63
675.532	6.78
675.72	6.78
675.908	6.92
676.095	6.77
676.283	6.69
676.471	6.88
676.658	6.87
676.846	6.9
677.033	7.05
677.221	7.18
677.409	7
677.596	7.09
677.784	7.18
677.971	7.29
678.159	7.31
678.346	7.43
678.534	7.43
678.721	7.46
678.909	7.37
679.096	7.44
679.283	7.65
679.471	7.85
679.658	8.08
679.846	8.3
680.033	8.5
680.22	8.58
680.408	8.52
680.595	8.39
680.782	8.29
680.969	8.34
681.157	8.34
681.344	8.38
681.531	8.54
681.718	8.64
681.905	8.71
682.093	8.97
682.28	9.33
682.467	9.53
682.654	9.78
682.841	9.92
683.028	9.92
683.215	9.95
683.402	9.86
683.589	10.05
683.776	10.25
683.963	10.3
684.15	10.46
684.337	10.73
684.524	10.89
684.711	11.08
684.898	11.17
685.085	11.3
685.271	11.6
685.458	11.84
685.645	11.9
685.832	12.39
686.019	12.81
686.205	13.01
686.392	13.31
686.579	13.63
686.766	13.95
686.952	14.1
687.139	14.59
687.326	14.78
687.512	15.18
687.699	15.49
687.886	15.81
688.072	15.91
688.259	16.15
688.445	16.66
688.632	16.93
688.818	17.54
689.005	17.98
689.191	18.52
689.378	19.05
689.564	19.63
689.751	19.91
689.937	20.28
690.124	20.8
690.31	21.01
690.496	21.34
690.683	21.86
690.869	22.54
691.055	23.04
691.242	23.74
691.428	24.5
691.614	25.18
691.8	25.85
691.987	26.49
692.173	27.21
692.359	27.79
692.545	28.48
692.731	29
692.918	29.75
693.104	30.22
693.29	31.04
693.476	31.5
693.662	32.25
693.848	32.73
694.034	33.31
694.22	33.69
694.406	34.46
694.592	35.31
694.778	35.98
694.964	36.64
695.15	37.48
695.336	37.96
695.522	38.7
695.708	39.47
695.894	40.02
696.08	40.62
696.265	41.33
696.451	41.78
696.637	42.44
696.823	43.09
697.009	43.49
697.194	44.19
697.38	44.58
697.566	45.12
697.751	45.91
697.937	46.76
698.123	47.36
698.308	48.21
698.494	48.9
698.68	49.38
698.865	49.99
699.051	50.71
699.236	50.95
699.422	51.51
699.607	52.13
699.793	52.57
699.978	52.94
700.164	53.48
700.349	54.15
700.535	54.56
700.72	54.88
700.906	55.35
701.091	56.02
701.276	56.28
701.462	57.18
701.647	58.21
701.832	58.63
702.018	59.22
702.203	59.8
702.388	59.59
702.573	59.42
702.759	60.19
702.944	60.41
703.129	60.28
703.314	60.7
703.499	61.21
703.684	61.35
703.87	62.3
704.055	63.19
704.24	63.89
704.425	64.41
704.61	64.82
704.795	64.4
704.98	64.4
705.165	64.16
705.35	64.44
705.535	64.54
705.72	65.22
705.905	65.62
706.09	66.54
706.275	66.79
706.459	66.94
706.644	67.16
706.829	67.33
707.014	67.54
707.199	67.78
707.384	68.17
707.568	68.37
707.753	69.2
707.938	69.36
708.123	69.6
708.307	69.9
708.492	69.91
708.677	69.73
708.861	69.89
709.046	69.64
709.231	70.32
709.415	70.85
709.6	70.94
709.784	70.98
709.969	71.76
710.153	71.13
710.338	70.96
710.522	71.09
710.707	71.66
710.891	71.41
711.076	71.94
711.26	71.88
711.445	72.24
711.629	72.08
711.813	72.55
711.998	72.74
712.182	72.88
712.366	73.01
712.551	73.74
712.735	73.58
712.919	73.36
713.103	74.05
713.288	73.99
713.472	73.34
713.656	74.26
713.84	74.14
714.024	73.72
714.208	73.95
714.393	74.49
714.577	74.31
714.761	74.82
714.945	75.34
715.129	75.2
715.313	75.08
715.497	74.88
715.681	75.52
715.865	75.15
716.049	75.5
716.233	75.63
716.417	75.75
716.601	75.83
716.785	76.21
716.968	76.43
717.152	76.8
717.336	76.98
717.52	76.58
717.704	76.58
717.888	76.73
718.071	76.51
718.255	76.94
718.439	76.96
718.622	77.57
718.806	77.88
718.99	77.64
719.174	77.51
719.357	77.67
719.541	77.2
719.724	76.67
719.908	77.67
720.092	77.81
720.275	78.03
720.459	78.22
720.642	78.05
720.826	77.18
721.009	76.7
721.193	75.99
721.376	76.31
721.559	76.6
721.743	76.87
721.926	77.26
722.11	77.84
722.293	77.34
722.476	77.36
722.66	77.36
722.843	76.9
723.026	76.66
723.21	77.16
723.393	77.67
723.576	77.71
723.759	77.77
723.942	78.01
724.126	77.67
724.309	77.24
724.492	77.4
724.675	77.16
724.858	77.77
725.041	78.46
725.224	78.72
725.407	78.95
725.59	79.78
725.774	79.3
725.957	78.38
726.14	78.31
726.322	78.69
726.505	78.11
726.688	78.53
726.871	78.97
727.054	78.71
727.237	78.48
727.42	79.45
727.603	79.22
727.786	79.48
727.968	80.52
728.151	80.52
728.334	79.89
728.517	80.02
728.699	80.44
728.882	79.61
729.065	79.92
729.248	80.82
729.43	80.93
729.613	81.44
729.796	82.81
729.978	82.15
730.161	81.48
730.343	81.15
730.526	81.26
730.708	79.66
730.891	80
731.073	79.97
731.256	79.42
731.438	78.87
731.621	80.27
731.803	80.55
731.986	80.8
732.168	81.07
732.35	81.23
732.533	80.51
732.715	80.27
732.898	80.8
733.08	81.39
733.262	81.85
733.444	81.47
733.627	81.99
733.809	81.9
733.991	82.48
734.173	81.75
734.355	82.22
734.538	82.1
734.72	81.49
734.902	81.2
735.084	81.78
735.266	81.66
735.448	81.84
735.63	82.02
735.812	82.04
735.994	82.54
736.176	82.93
736.358	82.78
736.54	84.08
736.722	83.21
736.904	82.25
737.086	82.27
737.268	82.95
737.45	81.63
737.632	82.34
737.814	82.21
737.995	81.97
738.177	81.47
738.359	81.15
738.541	81.35
738.723	81.89
738.904	82.33
739.086	82.15
739.268	82.7
739.449	83.6
739.631	83.12
739.813	83.69
739.994	84.09
740.176	84.79
740.358	83.71
740.539	85.22
740.721	84.97
740.902	85.33
741.084	84.72
741.265	84.73
741.447	84.02
741.628	84.16
741.81	82.93
741.991	83.19
742.172	84.87
742.354	85.67
742.535	85.99
742.717	87.05
742.898	87.63
743.079	87.36
743.261	86.39
743.442	84.89
743.623	85.51
743.804	85.89
743.986	86
744.167	84.52
744.348	84.71
744.529	84.39
744.71	81.99
744.891	81.06
745.073	82.06
745.254	81.87
745.435	81.61
745.616	82.33
745.797	82.37
745.978	82
746.159	82.38
746.34	81.04
746.521	83
746.702	81.48
746.883	82.62
747.064	82.52
747.245	83.3
747.426	82.02
747.606	83.47
747.787	82.95
747.968	83.72
748.149	84.25
748.33	85.52
748.51	84.88
748.691	83.92
748.872	84.36
749.053	84.5
749.233	82.22
749.414	81.59
749.595	80.78
749.775	79.04
749.956	78.11
750.137	79.59
750.317	81.53
750.498	84.09
750.678	85.54
750.859	86.13
751.04	85.39
751.22	84.71
751.4	84.62
751.581	82.36
751.761	82.64
751.942	84.27
752.122	83.28
752.303	80.89
752.483	82.25
752.663	82.15
752.844	80.8
753.024	83.65
753.204	86.1
753.385	85.14
753.565	84.86
753.745	84.22
753.925	81.57
754.106	80.88
754.286	81.03
754.466	80.54
754.646	81.54
754.826	81.17
755.006	80.32
755.187	82.01
755.367	83.39
755.547	82.85
755.727	84.03
755.907	84.46
756.087	85.5
756.267	83.54
756.447	83.3
756.627	81.04
756.807	82.43
756.987	80.09
757.167	80.79
757.346	81.29
757.526	80.64
757.706	79.35
757.886	80.09
758.066	81.39
758.246	83.27
758.425	85.21
758.605	84.37
758.785	84.99
758.965	84.12
759.144	80.43
759.324	81.35
759.504	82.49
759.683	81.65
759.863	80.29
760.043	81.24
760.222	80.53
760.402	79.32
760.581	78.92
760.761	81.09
760.94	80.7
761.12	82.89
761.299	84.51
761.479	83.63
761.658	81.45
761.838	81.41
762.017	79.59
762.197	79.47
762.376	80.46
762.555	82.03
762.735	83.81
762.914	81.68
763.093	82.3
763.273	82.54
763.452	81.83
763.631	80.35
763.81	81.97
763.99	81.02
764.169	81.02
764.348	80.02
764.527	80
764.706	81.68
764.885	83.55
765.064	82.24
765.243	83.11
765.423	83.6
765.602	81.07
765.781	76.15
765.96	75.72
766.139	75.19
766.318	76.11
766.497	76.61
766.676	79.13
766.854	82.3
767.033	82.99
767.212	81.3
767.391	80.73
767.57	79.64
767.749	77.93
767.928	79.2
768.106	78.58
768.285	77.62
768.464	78.88
768.643	77.61
768.821	75.11
769	77.78
769.179	78.96
769.357	77.24
769.536	78.41
769.715	80.52
769.893	81.01
770.072	79.93
770.25	82.63
770.429	81.18
770.607	79.66
770.786	76.88
770.964	78.67
771.143	76.51
771.321	78.36
771.5	80.21
771.678	80.31
771.857	78.48
772.035	78.44
772.213	76.75
772.392	73.79
772.57	78.04
772.748	80.77
772.927	80.3
773.105	80.76
773.283	82.79
773.461	80.46
773.64	79.2
773.818	79.9
773.996	79.62
774.174	77.36
774.352	74.31
774.531	71.4
774.709	74.08
774.887	74.8
775.065	74.2
775.243	76.58
775.421	79.01
775.599	78.3
775.777	77.08
775.955	76.05
776.133	72.5
776.311	72.35
776.489	69.09
776.667	68.77
776.844	71.44
777.022	71.97
777.2	70.41
777.378	71.58
777.556	72.45
777.734	73.25
777.911	76.57
778.089	78.2
778.267	79.43
778.445	78.18
778.622	77.44
778.8	76.78
778.978	78.04
779.155	76.24
779.333	76.27
779.511	73.81
779.688	74.72
779.866	71
780.043	69.65
780.221	71.06
780.398	71.11
780.576	72.38
780.753	75.69
780.931	77.64
781.108	76.77
781.286	81.02
781.463	74.88
781.64	69.64
781.818	70.63
781.995	71.03
782.172	68.45
782.35	69.81
782.527	75.01
782.704	70.56
782.882	72.71
783.059	72.73
783.236	75.17
783.413	75.19
783.59	79.21
783.768	74.85
783.945	76.89
784.122	76.07
784.299	73.99
784.476	70.79
784.653	70.21
784.83	65.65
785.007	61.79
785.184	64.65
785.361	65.37
785.538	72.28
785.715	78.16
785.892	81.6
786.069	81.26
786.246	82.41
786.423	79.22
786.6	74.22
786.776	75.7
786.953	74.02
787.13	78.82
787.307	78.09
787.484	82.28
787.66	79.04
787.837	79.22
788.014	72.04
788.191	69.56
788.367	65.27
788.544	70.59
788.721	71.13
788.897	75.31
789.074	78.02
789.25	75.77
789.427	75.39
789.603	73.3
789.78	71.07
789.956	66.9
790.133	67.18
790.309	65.82
790.486	68.61
790.662	67.53
790.839	71.62
791.015	73.96
791.192	71.89
791.368	71.16
791.544	68.55
791.721	69.14
791.897	67.13
792.073	65.9
792.249	60.43
792.426	65.76
792.602	66.75
792.778	68.85
792.954	66.89
793.13	71.38
793.307	63.17
793.483	56.31
793.659	53.99
793.835	57.89
794.011	55.6
794.187	61.62
794.363	61.63
794.539	62.32
794.715	58.61
794.891	60.19
795.067	59.71
795.243	66.37
795.419	69.66
795.595	70.44
795.771	71.7
795.947	71
796.122	64.35
796.298	64.45
796.474	64.48
796.65	60.88
796.826	60.14
797.001	62.92
797.177	57.25
797.353	64.02
797.529	68.17
797.704	65.56
797.88	61.2
798.056	59.5
798.231	51.45
798.407	54.52
798.582	59.46
798.758	67.67
798.934	76.15
799.109	78.22
799.285	68.72
799.46	69.2
799.636	66.35
799.811	64.69
799.986	67.7
800.162	73.93
800.337	77.26
800.513	75.46
800.688	72.78
800.863	80.05
801.039	71.67
801.214	65.14
801.389	68.84
801.565	63.42
801.74	45.46
801.915	56.09
802.09	56.22
802.265	62.35
802.441	62.28
802.616	68.95
802.791	64.12
802.966	64.21
803.141	56.11
803.316	54.74
803.491	59.66
803.666	68.08
803.841	65.71
804.016	65.37
804.191	69.57
804.366	66.13
804.541	59.16
804.716	60.19
804.891	58.27
805.066	64.99
805.241	64
805.416	57.08
805.591	53.98
805.765	56.51
805.94	57.37
806.115	53.54
806.29	53.98
806.464	55.68
806.639	52.52
806.814	46.71
806.989	38.17
807.163	56.13
807.338	60.43
807.512	60.12
807.687	47.43
807.862	64.91
808.036	58.89
808.211	63.06
808.385	71.62
808.56	80.35
808.734	82.3
808.909	79.47
809.083	69.42
809.258	73.78
809.432	81.34
809.606	66.71
809.781	63.44
809.955	70.72
810.13	68.83
810.304	56.77
810.478	54.76
810.652	62.21
810.827	65.21
811.001	55.11
811.175	55.06
811.349	57.47
811.524	45.8
811.698	34.09
811.872	40.36
812.046	48.83
812.22	62.05
812.394	66.07
812.568	68.69
812.742	76.87
812.916	70.07
813.09	60.02
813.264	60.53
813.438	63.76
813.612	55.06
813.786	53.4
813.96	59.73
814.134	62.79
814.308	68.64
814.482	71.86
814.656	66.02
814.83	67.72
815.003	68.17
815.177	59.02
815.351	54.95
815.525	59.13
815.698	50.55
815.872	42.63
816.046	36.8
816.219	42.84
816.393	59.63
816.567	74.78
816.74	77.77
816.914	86.49
817.088	90.56
817.261	75.64
817.435	53.75
817.608	51.6
817.782	37.53
817.955	35.05
818.129	41.03
818.302	45.37
818.475	64.6
818.649	62.57
818.822	54.11
818.996	75.32
819.169	84.54
819.342	56.72
819.516	75.93
819.689	80.43
819.862	54.94
820.035	50.14
820.209	46.62
820.382	39.62
820.555	38.07
820.728	27.17
820.901	25.33
821.075	33.1
821.248	44.66
821.421	32.64
821.594	45.54
821.767	68.38
821.94	66.68
822.113	32.39
822.286	34.58
822.459	38.03
822.632	14.99
822.805	4.7
822.978	15.05
823.151	20.91
823.324	11.84
823.496	-4.69
823.669	2.87
823.842	6.53
824.015	-8.93
824.188	-22.23
824.361	-21.81
824.533	-22.16
824.706	1.74
824.879	12.66
825.051	31.41
825.224	44.28
825.397	48.38
825.569	31.52
825.742	58.02
825.915	70.44
826.087	80.81
826.26	65.26
826.432	63.28
826.605	52.94
826.777	35.26
826.95	35.8
827.122	22.13
827.295	21.04
827.467	29.22
827.64	6.83
827.812	-12.74
827.984	5.58
828.157	-9.41
828.329	-69.83
828.501	-37.1
828.674	1.08
828.846	-4.72
829.018	32.8
829.19	21.52
829.363	50.3
829.535	47.96
829.707	52.85
829.879	19.37
830.051	30.66
830.223	-1.66
830.395	-34.1
830.568	-48.95
830.74	-49.06
830.912	-15.86
831.084	-29.63
831.256	-14.9
831.428	-21.1
831.6	-27.43
831.772	-70.57
831.943	-74.17
832.115	-52.13
832.287	-13.77
832.459	4.85
832.631	28.2
832.803	48.17
832.975	74.74
833.146	58.65
833.318	62.85
833.49	74.61
833.662	57.31
833.833	14.97
834.005	27.73
834.177	20.27
834.348	3.54
834.52	-13.32
834.692	-10.91
834.863	-66.66
835.035	-49.07
835.206	-115.89
835.378	-79.73
835.549	-73.78
835.721	-39.08
835.892	-30.15
836.064	-9.46
836.235	1.45
836.407	36.95
836.578	-12.83
836.749	-32.17
836.921	-58.45
837.092	-83.18
837.264	-89.25
837.435	-87.7
837.606	-14.38
837.777	29.62
837.949	54.71
838.12	53.65
838.291	75.43
838.462	57.31
838.633	17.24
838.805	1.29
838.976	-2.62
839.147	-87.42
839.318	-109.18
839.489	-154.54
839.66	-138.54
839.831	-75.28
840.002	-68.57
840.173	-78.32
840.344	-32.2
840.515	-46.89
840.686	-195.79
840.857	-129.58
841.028	-105.21
841.199	-42.19
841.369	-70.28
841.54	-72.42
841.711	-18.86
841.882	11.52
842.053	-18.55
842.223	-21.66
842.394	29.88
842.565	31.98
842.736	22.81
842.906	43.03
843.077	61.77
843.248	66.7
843.418	55.4
843.589	48.63
843.759	105.25
843.93	66.74
844.101	33.59
844.271	37.87
844.442	47.78
844.612	46.79
844.783	19.08
844.953	-13.68
845.123	-28.02
845.294	-35.75
845.464	-248.73
845.635	-85.64
845.805	13.62
845.975	8.54
846.146	-35.59
846.316	-20.58
846.486	10.79
846.656	32.85
846.827	21.52
846.997	13.62
847.167	28.93
847.337	2.79
847.507	-52.36
847.677	-16.38
847.848	47.13
848.018	48.23
848.188	49
848.358	33.18
848.528	17.11
848.698	-36.67
848.868	-166.66
849.038	-310.56
849.208	-102.91
849.378	-38.8
849.548	-8.89
849.718	21.84
849.887	53.79
850.057	10.52
850.227	-41.46
850.397	-49.45
850.567	-133.06
850.737	-393.59
850.906	-696.56
851.076	-517.38
851.246	-299.61
851.415	-33.74
851.585	-21.78
851.755	-86.18
851.924	-30.53
852.094	-39.17
852.264	-133.9
852.433	-971.39
852.603	-135.71
852.772	-174.83
852.942	-75.68
853.111	-58.25
853.281	-11.15
853.45	25.58
853.62	-15.57
853.789	-54.69
853.959	-13.6
854.128	-39.28
854.297	-90.4
854.467	-138.21
854.636	-96.74
854.805	-47.56
854.975	-74.01
855.144	-105.82
855.313	109.62
855.482	-220.62
855.652	-149.74
855.821	-29.43
855.99	46.25
856.159	57.28
856.328	51.31
856.497	39.06
856.667	25.02
856.836	60.47
857.005	11.68
857.174	6.62
857.343	-9.11
857.512	18.62
857.681	-88.55
857.85	-106.4
858.019	-78.58
858.188	-67.61
858.356	-72.4
858.525	-125.15
858.694	-80.3
858.863	-151.41
859.032	-92.78
859.201	-161.12
859.369	-53.38
859.538	-73.24
859.707	-44.19
859.876	-25.18
860.044	-51.07
860.213	-6.63
860.382	-7.35
860.55	-13.41
860.719	14.52
860.888	27.54
861.056	-1.83
861.225	-32.65
861.393	16.71
861.562	-1.21
861.73	-33.84
861.899	-169.24
862.067	-1300.86
862.236	-76.6
862.404	-239.27
862.572	-157.65
862.741	-30.88
862.909	-27.11
863.078	-182.23
863.246	-137.48
863.414	-103.2
863.582	-77.87
863.751	-113.71
863.919	-55.66
864.087	15.47
864.255	-20.1
864.424	-383.37
864.592	3.24
864.76	-42.41
864.928	-304.2
865.096	-206.13
865.264	-131.6
865.432	-2411.93
865.6	-179.63
865.768	-111.42
865.936	-79.13
866.104	-53.29
866.272	-35.39
866.44	-329.23
866.608	637.09
866.776	316.14
866.944	2733.14
867.112	-603.5
867.28	-219.52
867.448	-34.64
867.615	7.66
867.783	6.63
867.951	15.45
868.119	51.42
868.286	4.29
868.454	-85.95
868.622	-96.48
868.789	-96.71
868.957	-2544.64
869.125	-2034.87
869.292	-142.08
869.46	-234.14
869.627	-33.71
869.795	-41.92
869.963	-14.03
870.13	5.41
870.298	45.68
870.465	-39.79
870.632	-30.77
870.8	-32.29
870.967	-90.3
871.135	-182.91
871.302	-114.5
871.469	-146.52
871.637	-100.09
871.804	-9.43
871.971	-40.76
872.139	-323.37
872.306	18.87
872.473	-44.67
872.64	-321.57
872.807	-73.78
872.975	-4.46
873.142	-265.91
873.309	2114.19
873.476	24.21
873.643	73.67
873.81	81.61
873.977	89.71
874.144	98.52
874.311	-1.24
874.478	-48.69
874.645	-118.21
874.812	-57.75
874.979	-24.06
875.146	-41.46
875.313	-84.09
875.48	36.25
875.647	-3.61
875.813	-53.89
875.98	-19.39
876.147	-27.38
876.314	-104.06
876.481	854.75
876.647	-1148.6
876.814	436.4
876.981	-38.94
877.147	-25.69
877.314	15.08
877.481	56.23
877.647	44.14
877.814	-2.3
877.98	-33.43
878.147	-3.67
878.314	34.26
878.48	10.43
878.647	16.04
878.813	46.67
878.979	54.31
879.146	-4.42
879.312	-32.89
879.479	-83.6
879.645	-180.48
879.811	-455.91
879.978	-1078.05
880.144	-274.51
880.31	-100.98
880.477	-294.3
880.643	-261.71
880.809	-31.55
880.975	3.04
881.142	-623.86
881.308	-78.96
881.474	-36.17
881.64	-55.78
881.806	-158.53
881.972	-45.08
882.138	-29.91
882.304	-45.61
882.47	-195.56
882.636	-665.78
882.802	-191.8
882.968	-43.67
883.134	-9.02
883.3	-2.95
883.466	31.09
883.632	67.52
883.798	31
883.964	-13.72
884.129	-12.33
884.295	23.81
884.461	-70.29
884.627	-86.68
884.793	-74.34
884.958	-14.07
885.124	-117.58
885.29	-157.22
885.455	-218.08
885.621	-10.34
885.787	-106.23
885.952	-39.6
886.118	-47.76
886.283	-35.93
886.449	-176.31
886.614	-165.4
886.78	-341.25
886.945	1429.92
887.111	-594.36
887.276	-352.41
887.442	-932.05
887.607	-489.27
887.773	-341.8
887.938	-389.88
888.103	-450.23
888.269	-273.57
888.434	-443.92
888.599	-173.28
888.764	-60.21
888.93	-45.56
889.095	-39.36
889.26	-83.4
889.425	-58.08
889.59	-3.7
889.756	-5.22
889.921	-54.95
890.086	25.87
890.251	12.28
890.416	-208.52
890.581	-1774.6
890.746	172.23
890.911	370.22
891.076	167.9
891.241	-326.31
891.406	4.59
891.571	-92.95
891.736	-437.27
891.901	-848.89
892.065	721.15
892.23	140.34
892.395	238.8
892.56	320.59
892.725	-261.91
892.889	-868.9
893.054	-212.7
893.219	-64
893.384	-27.58
893.548	-106.9
893.713	-139.69
893.878	-86.57
