Data from Ofra_1a_PS_1GT43_Reflection_1.txt Node
Date: Tue Jul 20 10:45:49 EDT 2021
User: Adam
Spectrometer: FLMT01687
Trigger mode: 0
Integration Time (sec): 1.004000E0
Scans to average: 2
Electric dark correction enabled: true
Nonlinearity correction enabled: false
Boxcar width: 2
XAxis mode: Wavelengths
Number of Pixels in Spectrum: 3648
>>>>>Begin Spectral Data<<<<<
179.494	189.34
179.716	119.85
179.937	6.35
180.158	87.26
180.38	86.84
180.601	-47.27
180.823	-83.32
181.044	-306.56
181.265	-470.88
181.486	212.64
181.708	-49.03
181.929	9554.55
182.15	-200.71
182.372	1043.84
182.593	473.26
182.814	-264.01
183.035	27.59
183.257	28.13
183.478	13.59
183.699	-13.4
183.92	-54.64
184.141	-80.75
184.363	-62.25
184.584	-86.01
184.805	-26.84
185.026	42.28
185.247	32.7
185.468	24.43
185.689	49.48
185.91	57.34
186.132	28
186.353	27.77
186.574	27.21
186.795	25.73
187.016	33.2
187.237	31.75
187.458	35.96
187.679	59.29
187.9	70.24
188.121	76.99
188.342	88.7
188.563	92.25
188.784	61.19
189.005	22.65
189.226	17.68
189.447	-0.84
189.667	-19.12
189.888	-26.85
190.109	-31.57
190.33	-2.72
190.551	6.09
190.772	21.09
190.993	12.82
191.214	23.63
191.434	6.33
191.655	-15.65
191.876	4.45
192.097	30.69
192.318	51.42
192.538	16.12
192.759	8.47
192.98	23.92
193.201	21.83
193.421	13.59
193.642	25.75
193.863	43.01
194.083	36.15
194.304	51.72
194.525	39.84
194.745	27.7
194.966	19.85
195.187	22.05
195.407	5.94
195.628	13.49
195.848	18.68
196.069	7.92
196.29	8.23
196.51	9.32
196.731	-1.47
196.951	5.07
197.172	13.65
197.392	7.84
197.613	23.3
197.833	5.11
198.054	2.98
198.274	-3.18
198.495	7.5
198.715	-5.69
198.936	32.56
199.156	39.87
199.377	49.06
199.597	35.66
199.817	46.34
200.038	34.4
200.258	26.13
200.479	25.59
200.699	21.86
200.919	8.16
201.14	-0.77
201.36	-17.42
201.58	-34.42
201.801	-50.33
202.021	-43.77
202.241	-36.28
202.461	-9.13
202.682	14.87
202.902	25.24
203.122	15.68
203.342	29.63
203.563	10
203.783	-5.74
204.003	-20.18
204.223	15.96
204.443	-4.68
204.663	-0.88
204.884	24.72
205.104	39.34
205.324	-20.21
205.544	3.99
205.764	39.94
205.984	32.49
206.204	27.48
206.424	32.04
206.644	10.51
206.864	-47.02
207.084	-37.32
207.304	-63.95
207.525	-40.87
207.745	-26.03
207.964	2.74
208.184	8.38
208.404	25.4
208.624	37.48
208.844	41.78
209.064	32.15
209.284	18.26
209.504	-6.94
209.724	-29.72
209.944	-27.34
210.164	-36.18
210.384	-34.46
210.604	-63.49
210.823	-78.88
211.043	-64.65
211.263	-107.79
211.483	-42.49
211.703	-8.33
211.922	9.47
212.142	29.52
212.362	63.32
212.582	46.61
212.801	47.87
213.021	62.36
213.241	27
213.461	-2.24
213.68	16.08
213.9	18.17
214.12	9.05
214.339	24.3
214.559	27.5
214.779	5.55
214.998	24.85
215.218	29.72
215.438	23.22
215.657	20.56
215.877	12.22
216.096	16.87
216.316	9.75
216.535	9.12
216.755	6.36
216.974	34.07
217.194	19.81
217.413	17.01
217.633	6.18
217.852	8.08
218.072	5.43
218.291	15.15
218.511	11.42
218.73	9.92
218.95	-3.59
219.169	-23.45
219.389	-18.89
219.608	-4.34
219.827	18.49
220.047	40.45
220.266	46.11
220.485	40.61
220.705	36.15
220.924	-5.05
221.143	16.64
221.363	30.5
221.582	19.95
221.801	6.51
222.021	27.06
222.24	23.87
222.459	23.21
222.678	30.63
222.897	26.39
223.117	32.17
223.336	22.02
223.555	28.03
223.774	42.62
223.993	63.35
224.213	79.08
224.432	70.84
224.651	53.07
224.87	53.57
225.089	56.84
225.308	53.14
225.527	27.92
225.746	23.74
225.965	2.13
226.184	-33.45
226.404	-38.76
226.623	-5.74
226.842	-1.44
227.061	9.23
227.28	44.17
227.499	44.27
227.718	38.78
227.936	41.83
228.155	37.72
228.374	32.6
228.593	30.29
228.812	27.93
229.031	41.95
229.25	31.34
229.469	25.26
229.688	18.19
229.907	31.25
230.125	23.94
230.344	25.93
230.563	28.82
230.782	28.92
231.001	28.77
231.22	12.89
231.438	21.9
231.657	15.21
231.876	12.5
232.095	9.99
232.313	32.3
232.532	15.64
232.751	10.85
232.969	22.88
233.188	19.46
233.407	9.78
233.625	20.74
233.844	31.49
234.063	23.6
234.281	21.93
234.5	24.52
234.719	24.71
234.937	5.47
235.156	-1.21
235.374	-3.67
235.593	8.39
235.811	17.22
236.03	39.94
236.249	44.02
236.467	56.35
236.686	44.03
236.904	42.68
237.123	36.6
237.341	40
237.559	33.42
237.778	55.14
237.996	49.09
238.215	29.35
238.433	-21.02
238.652	-20.98
238.87	-25.59
239.088	-29
239.307	-14.05
239.525	9.36
239.743	15.36
239.962	-20.08
240.18	-2.42
240.398	7.71
240.617	1.27
240.835	-6.78
241.053	28.68
241.271	19.63
241.49	15.35
241.708	18.69
241.926	10.52
242.144	-7.61
242.363	-21.25
242.581	-61.46
242.799	-85.63
243.017	-37.23
243.235	-24.18
243.453	-25.02
243.672	0.09
243.89	17.04
244.108	25.35
244.326	42.9
244.544	44.29
244.762	26.76
244.98	27.52
245.198	28.31
245.416	18.24
245.634	25.69
245.852	21.51
246.07	28.73
246.288	21.45
246.506	13.48
246.724	-1.59
246.942	14.87
247.16	7.42
247.378	-1.95
247.596	17.16
247.814	16.16
248.032	5.21
248.25	40.76
248.468	34
248.685	28.25
248.903	21.08
249.121	25.4
249.339	16.75
249.557	22.4
249.775	27.41
249.992	38.08
250.21	27.98
250.428	22.83
250.646	23.89
250.863	10.48
251.081	13.74
251.299	13.93
251.517	-0.49
251.734	-3.07
251.952	7.08
252.17	-7.12
252.387	-10.65
252.605	-6.79
252.823	-20.98
253.04	13.35
253.258	36.46
253.475	51.58
253.693	51
253.911	35.88
254.128	11.32
254.346	0.43
254.563	-6.44
254.781	-2.88
254.998	2.3
255.216	-13.43
255.433	-22.34
255.651	-0.15
255.868	3.55
256.086	17.15
256.303	25.15
256.521	38.55
256.738	26.8
256.956	18.81
257.173	1.11
257.39	4.37
257.608	-2.12
257.825	-1.84
258.043	18.62
258.26	22.96
258.477	19.83
258.695	20.8
258.912	14.98
259.129	-1.37
259.346	-6.03
259.564	15.78
259.781	4.43
259.998	25.14
260.216	22.41
260.433	19.97
260.65	-0.25
260.867	11.86
261.084	15.74
261.302	13.32
261.519	34.39
261.736	38.07
261.953	34.9
262.17	26.11
262.387	24.14
262.604	15.12
262.822	19.44
263.039	17.73
263.256	14.87
263.473	10.29
263.69	6.09
263.907	15.82
264.124	45.28
264.341	48.6
264.558	50.97
264.775	64.58
264.992	58.24
265.209	11.74
265.426	18.29
265.643	30.87
265.86	57.88
266.077	60.66
266.294	74.24
266.51	64.74
266.727	61.16
266.944	46.76
267.161	42.15
267.378	36.83
267.595	12.33
267.812	0.6
268.028	-16.58
268.245	-9.79
268.462	-0.11
268.679	34.53
268.896	55.8
269.112	53.86
269.329	44.81
269.546	52.45
269.763	29.4
269.979	17.84
270.196	40.19
270.413	37.29
270.629	23.72
270.846	29.52
271.063	31.98
271.279	9.59
271.496	9.7
271.712	19.93
271.929	16.35
272.146	0.08
272.362	17.33
272.579	5.57
272.795	-2.24
273.012	-6.5
273.228	18.74
273.445	8.99
273.661	15.88
273.878	13.06
274.094	21.14
274.311	10.32
274.527	-5.13
274.744	15.76
274.96	10.03
275.177	-0.6
275.393	8.75
275.609	24.18
275.826	20.3
276.042	22.41
276.259	26.23
276.475	15.62
276.691	-7.63
276.908	-18.74
277.124	-0.29
277.34	-9.15
277.557	-5.2
277.773	16.28
277.989	18.55
278.205	2.35
278.422	11.88
278.638	12.74
278.854	17.94
279.07	41.06
279.286	43.1
279.503	46.8
279.719	51.85
279.935	41.53
280.151	15.62
280.367	23.96
280.583	16.23
280.799	8.55
281.016	-16.18
281.232	5.62
281.448	-11.16
281.664	-9.71
281.88	4.59
282.096	18.99
282.312	24.74
282.528	30.22
282.744	30.66
282.96	10.5
283.176	-3.75
283.392	-41.14
283.608	-49.24
283.824	-36.21
284.04	-39.9
284.256	-28.2
284.471	-18
284.687	-15.68
284.903	-17.59
285.119	-12.75
285.335	-0.34
285.551	-5.57
285.767	3.43
285.982	-4.33
286.198	-13.12
286.414	-40.51
286.63	-8.4
286.846	-26.97
287.061	7.61
287.277	20.45
287.493	36.39
287.709	27.49
287.924	40.12
288.14	43.71
288.356	50.85
288.571	67.85
288.787	57.25
289.003	58.27
289.218	42.88
289.434	15.97
289.65	18.78
289.865	14.86
290.081	4.99
290.296	10.45
290.512	23.06
290.727	-5.53
290.943	6.58
291.159	9.62
291.374	6.72
291.59	12.22
291.805	15.2
292.021	1.96
292.236	12.48
292.451	11.55
292.667	-6.62
292.882	3.53
293.098	15.93
293.313	-3.11
293.529	0.24
293.744	5.84
293.959	17.86
294.175	17.34
294.39	18.22
294.605	36.94
294.821	36.37
295.036	40.56
295.251	47.71
295.467	53.62
295.682	35.36
295.897	27.5
296.112	10.26
296.328	12.7
296.543	2.36
296.758	2.65
296.973	15.35
297.188	24.43
297.404	-22.38
297.619	-18.83
297.834	-60.9
298.049	-66.3
298.264	-42.47
298.479	-22.77
298.694	14.11
298.909	33.04
299.125	43.69
299.34	26.22
299.555	24.56
299.77	28.96
299.985	33.34
300.2	26.4
300.415	26.84
300.63	28.79
300.845	6.23
301.06	-6.67
301.275	-5.43
301.49	13.62
301.704	14.18
301.919	13.22
302.134	24.19
302.349	23.26
302.564	12.28
302.779	9.91
302.994	20.35
303.209	12.27
303.423	8.9
303.638	17.25
303.853	4.96
304.068	-4.22
304.283	-3.85
304.497	-15.85
304.712	-7.14
304.927	0.34
305.142	15.27
305.356	37
305.571	34.92
305.786	32.48
306	53.61
306.215	32.89
306.43	-9.03
306.644	-9.13
306.859	-12.31
307.074	-4.77
307.288	20.07
307.503	42.85
307.717	52.34
307.932	43.51
308.147	37.01
308.361	30.07
308.576	17.19
308.79	3.15
309.005	5.91
309.219	11
309.434	5.02
309.648	-3.78
309.863	-1.07
310.077	-20.18
310.292	-2.14
310.506	-12.24
310.72	-8.4
310.935	21.98
311.149	34.94
311.364	19.96
311.578	42.46
311.792	55.03
312.007	31.74
312.221	24.2
312.435	34.37
312.649	20.24
312.864	26.45
313.078	32.43
313.292	32.46
313.507	38.89
313.721	31.35
313.935	34.02
314.149	41.95
314.363	54.58
314.578	52.15
314.792	54.29
315.006	26.1
315.22	21.82
315.434	23.11
315.648	-2.08
315.862	4.48
316.077	13.53
316.291	3.77
316.505	-23.32
316.719	-14.26
316.933	-4.02
317.147	-7.54
317.361	3.47
317.575	6.9
317.789	10.7
318.003	10.36
318.217	24.9
318.431	2.37
318.645	2.21
318.859	11.36
319.073	17.64
319.287	10.64
319.5	16.66
319.714	17.95
319.928	12
320.142	6.81
320.356	12.54
320.57	-5.31
320.784	0.07
320.997	-2.23
321.211	27.12
321.425	7.7
321.639	30.08
321.853	36.69
322.066	31.87
322.28	15.85
322.494	33.26
322.707	34.82
322.921	27.8
323.135	34.43
323.349	21.22
323.562	8.61
323.776	17.54
323.989	22.34
324.203	12.82
324.417	21.31
324.63	20.49
324.844	-5.52
325.057	-24.29
325.271	-8.33
325.485	-20.69
325.698	-1.12
325.912	10.53
326.125	3.7
326.339	15.11
326.552	10.94
326.766	-6.65
326.979	-8.03
327.193	6.63
327.406	-8.99
327.619	20.66
327.833	26.68
328.046	25.35
328.26	14.97
328.473	26.18
328.686	10.91
328.9	26.23
329.113	21.48
329.326	29.35
329.54	20.81
329.753	27.43
329.966	16.82
330.179	18.14
330.393	14.59
330.606	3.83
330.819	-17.4
331.032	-21.49
331.246	-6.88
331.459	3.98
331.672	5.79
331.885	10.55
332.098	30.91
332.311	15.34
332.525	7.57
332.738	17.59
332.951	20.19
333.164	14.43
333.377	18.58
333.59	13.45
333.803	5.83
334.016	10
334.229	0.84
334.442	-2.05
334.655	10.6
334.868	8.46
335.081	0.83
335.294	3.83
335.507	12.46
335.72	5.22
335.933	11.19
336.146	30.02
336.359	31.35
336.572	39.12
336.785	37.57
336.997	17.07
337.21	13.63
337.423	-18.8
337.636	-26.12
337.849	-25.2
338.062	3.88
338.274	0.39
338.487	3.54
338.7	-3.98
338.913	19.64
339.125	0.27
339.338	1.04
339.551	3.84
339.763	7.48
339.976	-7.36
340.189	-10.59
340.402	0.79
340.614	25.42
340.827	20.24
341.039	23.76
341.252	29.69
341.465	4.7
341.677	-12.14
341.89	-10.93
342.102	1.78
342.315	6.01
342.527	20
342.74	10.26
342.952	24.5
343.165	15.95
343.377	23.18
343.59	24.18
343.802	31.11
344.015	24.1
344.227	19.55
344.44	-5.7
344.652	-2.8
344.864	8.33
345.077	14.85
345.289	27.95
345.502	51.04
345.714	39.91
345.926	34.24
346.139	20.46
346.351	23.24
346.563	26.75
346.775	47.73
346.988	53.04
347.2	65.55
347.412	53.75
347.624	48.54
347.837	52.78
348.049	44.11
348.261	36.74
348.473	25.7
348.685	-0.75
348.897	-25.83
349.11	-23.5
349.322	-19.23
349.534	-17.6
349.746	-5.98
349.958	-7.73
350.17	-5.02
350.382	-13.14
350.594	7.54
350.806	32.04
351.018	37.55
351.23	41.68
351.442	65.55
351.654	56.63
351.866	50.11
352.078	57.37
352.29	59.72
352.502	33.03
352.714	40.11
352.926	18.14
353.138	14.54
353.35	6.89
353.561	16.46
353.773	3.22
353.985	27.7
354.197	27.27
354.409	23.05
354.621	18.29
354.832	31.77
355.044	13.63
355.256	14.57
355.468	8.52
355.679	7.96
355.891	6.11
356.103	1.12
356.314	-10.35
356.526	-17.72
356.738	-20.57
356.949	-18.65
357.161	11.77
357.373	18.01
357.584	26.32
357.796	26.23
358.008	25.9
358.219	11.88
358.431	7.18
358.642	14.44
358.854	12.01
359.065	-2.11
359.277	-0.18
359.488	1.39
359.7	-0.45
359.911	-2.59
360.123	8.76
360.334	4.33
360.546	1.24
360.757	-4.76
360.969	-5.92
361.18	-0.26
361.391	9.58
361.603	13.48
361.814	16.02
362.025	21.5
362.237	17.97
362.448	18.54
362.659	14.15
362.871	3.07
363.082	-2.86
363.293	-6.6
363.504	-22.38
363.716	-37.77
363.927	-5.13
364.138	-14.93
364.349	-21.75
364.56	-38.87
364.772	-14.01
364.983	-14.75
365.194	12.61
365.405	19.97
365.616	44.39
365.827	25.1
366.038	26.66
366.25	17.26
366.461	22.97
366.672	19.04
366.883	33.55
367.094	40.12
367.305	29.3
367.516	23.96
367.727	6.89
367.938	-4.66
368.149	-16.53
368.36	-11.29
368.571	-30.66
368.781	-16.89
368.992	-2.15
369.203	-4.19
369.414	-13.57
369.625	2.61
369.836	24.44
370.047	23.86
370.258	38.17
370.468	40.8
370.679	40.3
370.89	23.37
371.101	23.97
371.312	4.31
371.522	2.95
371.733	-3.56
371.944	-7.75
372.155	4.02
372.365	20.54
372.576	19.36
372.787	33.1
372.997	36.49
373.208	27.56
373.419	20.46
373.629	19.17
373.84	5.12
374.05	-6.04
374.261	-10.25
374.472	3.56
374.682	10.97
374.893	9.37
375.103	15.24
375.314	14.26
375.524	2.79
375.735	15.95
375.945	22.47
376.156	26.02
376.366	30.62
376.577	32.9
376.787	16.91
376.997	14.07
377.208	15.18
377.418	12.78
377.629	6.36
377.839	9.12
378.049	9.75
378.26	0.46
378.47	-2.17
378.68	4.16
378.89	6.34
379.101	11.78
379.311	20.09
379.521	14.25
379.732	24.43
379.942	19.84
380.152	18.38
380.362	13.05
380.572	22.45
380.783	33.01
380.993	34.26
381.203	27.26
381.413	35.1
381.623	29.34
381.833	20.56
382.043	13.04
382.253	13.53
382.463	17.04
382.674	25.01
382.884	25.38
383.094	28.46
383.304	29.2
383.514	23.16
383.724	14.57
383.934	2.42
384.144	6.74
384.353	8.07
384.563	11.46
384.773	14.84
384.983	14.31
385.193	12.14
385.403	9.25
385.613	7.33
385.823	3.35
386.033	8.63
386.242	6.23
386.452	5.68
386.662	-0.04
386.872	6.86
387.082	2.74
387.291	3.73
387.501	7.01
387.711	16.91
387.921	17.13
388.13	19.2
388.34	21.39
388.55	16.08
388.759	11.73
388.969	10.4
389.179	11.79
389.388	5.74
389.598	6.97
389.807	4.32
390.017	1.07
390.227	-0.41
390.436	3.93
390.646	2
390.855	2.03
391.065	1.53
391.274	2.44
391.484	1.29
391.693	4.28
391.903	5.61
392.112	6.99
392.322	5.23
392.531	4.77
392.74	4.57
392.95	4.67
393.159	4.82
393.369	5.65
393.578	5.85
393.787	5.86
393.997	4.98
394.206	4.14
394.415	4.28
394.625	3.1
394.834	2.67
395.043	2.92
395.252	5.95
395.462	7.03
395.671	8.67
395.88	9.48
396.089	9.64
396.298	7.56
396.508	6.79
396.717	5.79
396.926	4.35
397.135	4.5
397.344	4.38
397.553	4.88
397.762	5.98
397.971	6.57
398.181	6.65
398.39	6.77
398.599	6.93
398.808	6.29
399.017	7.02
399.226	7.09
399.435	7.13
399.644	6.91
399.853	7.17
400.062	6.49
400.27	6.15
400.479	6.09
400.688	5.99
400.897	5.71
401.106	5.89
401.315	5.86
401.524	5.95
401.733	5.52
401.941	5.82
402.15	5.64
402.359	5.79
402.568	5.79
402.777	6.04
402.985	5.62
403.194	5.58
403.403	5.7
403.612	5.49
403.82	5.17
404.029	5.4
404.238	5.61
404.446	5.41
404.655	5.58
404.864	5.88
405.072	5.86
405.281	5.8
405.489	5.78
405.698	5.73
405.906	5.75
406.115	5.67
406.324	5.66
406.532	5.9
406.741	5.81
406.949	5.89
407.158	5.94
407.366	5.82
407.574	5.79
407.783	5.96
407.991	5.92
408.2	5.89
408.408	5.93
408.617	5.82
408.825	5.52
409.033	5.44
409.242	5.48
409.45	5.42
409.658	5.38
409.867	5.43
410.075	5.44
410.283	5.32
410.491	5.31
410.7	5.21
410.908	5.32
411.116	5.41
411.324	5.45
411.533	5.44
411.741	5.44
411.949	5.38
412.157	5.21
412.365	5.23
412.573	5.2
412.781	5.15
412.99	5.23
413.198	5.24
413.406	5.29
413.614	5.38
413.822	5.51
414.03	5.46
414.238	5.56
414.446	5.58
414.654	5.52
414.862	5.4
415.07	5.27
415.278	5.17
415.486	4.99
415.694	4.89
415.902	4.86
416.109	4.91
416.317	5.01
416.525	4.97
416.733	5.05
416.941	5.07
417.149	4.94
417.357	4.83
417.564	4.8
417.772	4.81
417.98	4.8
418.188	4.81
418.395	4.48
418.603	4.45
418.811	4.39
419.019	4.46
419.226	4.67
419.434	4.85
419.642	4.73
419.849	4.75
420.057	4.73
420.265	4.49
420.472	4.58
420.68	4.74
420.887	4.69
421.095	4.69
421.302	4.79
421.51	4.74
421.717	4.7
421.925	4.67
422.132	4.71
422.34	4.72
422.547	4.75
422.755	4.91
422.962	5.02
423.17	4.89
423.377	4.88
423.585	5.06
423.792	4.91
423.999	4.72
424.207	4.73
424.414	4.57
424.621	4.54
424.829	4.56
425.036	4.65
425.243	4.73
425.451	4.82
425.658	4.66
425.865	4.68
426.072	4.77
426.28	4.78
426.487	4.76
426.694	4.74
426.901	4.78
427.108	4.68
427.315	4.68
427.523	4.69
427.73	4.68
427.937	4.51
428.144	4.45
428.351	4.37
428.558	4.34
428.765	4.33
428.972	4.34
429.179	4.26
429.386	4.3
429.593	4.18
429.8	4.2
430.007	4.35
430.214	4.48
430.421	4.58
430.628	4.82
430.835	4.85
431.042	4.77
431.249	4.9
431.456	4.85
431.662	4.95
431.869	5.15
432.076	5.17
432.283	5.17
432.49	5.14
432.697	5.06
432.903	4.94
433.11	5.14
433.317	5.14
433.524	5.17
433.73	5.1
433.937	5.13
434.144	4.81
434.35	4.65
434.557	4.69
434.764	4.82
434.97	4.74
435.177	4.88
435.384	5.09
435.59	5.05
435.797	5.06
436.003	5
436.21	4.96
436.416	4.99
436.623	5.07
436.829	5.03
437.036	5.04
437.242	5.25
437.449	5.08
437.655	5.08
437.862	5.01
438.068	5.13
438.275	5.05
438.481	5.18
438.687	5.18
438.894	5.44
439.1	5.44
439.307	5.42
439.513	5.49
439.719	5.5
439.926	5.38
440.132	5.43
440.338	5.43
440.544	5.37
440.751	5.35
440.957	5.44
441.163	5.34
441.369	5.33
441.575	5.3
441.782	5.4
441.988	5.39
442.194	5.41
442.4	5.45
442.606	5.68
442.812	5.73
443.018	5.75
443.224	5.94
443.431	5.98
443.637	5.83
443.843	5.8
444.049	5.75
444.255	5.68
444.461	5.57
444.667	5.56
444.873	5.56
445.079	5.58
445.284	5.62
445.49	5.76
445.696	5.74
445.902	5.83
446.108	5.89
446.314	5.82
446.52	5.9
446.726	6.02
446.931	5.89
447.137	5.82
447.343	5.87
447.549	5.84
447.755	5.75
447.96	5.88
448.166	5.88
448.372	5.93
448.578	5.83
448.783	5.87
448.989	5.82
449.195	5.84
449.4	5.79
449.606	5.94
449.812	5.86
450.017	5.95
450.223	5.92
450.428	5.96
450.634	5.93
450.84	6.05
451.045	5.92
451.251	5.98
451.456	5.96
451.662	5.96
451.867	5.94
452.073	6.04
452.278	6.06
452.483	6.12
452.689	6.14
452.894	6.14
453.1	6.04
453.305	6.04
453.51	5.99
453.716	5.98
453.921	6.01
454.127	6.06
454.332	6.05
454.537	6.03
454.742	6
454.948	5.95
455.153	5.98
455.358	6.05
455.563	6.03
455.769	6.04
455.974	6.08
456.179	6.04
456.384	5.92
456.589	5.97
456.795	5.94
457	5.88
457.205	5.85
457.41	5.94
457.615	5.99
457.82	6.09
458.025	6.17
458.23	6.28
458.435	6.31
458.64	6.36
458.845	6.36
459.05	6.24
459.255	6.1
459.46	5.96
459.665	5.91
459.87	5.83
460.075	5.97
460.28	6.06
460.485	6.28
460.69	6.26
460.895	6.41
461.099	6.32
461.304	6.31
461.509	6.2
461.714	6.27
461.919	6.14
462.123	6.18
462.328	6.11
462.533	6.05
462.738	6.01
462.942	6.09
463.147	6.16
463.352	6.24
463.556	6.33
463.761	6.3
463.966	6.23
464.17	6.33
464.375	6.38
464.58	6.35
464.784	6.47
464.989	6.55
465.193	6.44
465.398	6.52
465.602	6.69
465.807	6.7
466.011	6.65
466.216	6.63
466.42	6.56
466.625	6.5
466.829	6.38
467.034	6.53
467.238	6.73
467.443	6.86
467.647	6.86
467.851	6.95
468.056	6.87
468.26	6.84
468.464	6.83
468.669	6.83
468.873	6.82
469.077	6.83
469.282	6.77
469.486	6.7
469.69	6.75
469.894	6.82
470.099	6.79
470.303	6.83
470.507	6.92
470.711	6.9
470.915	6.99
471.119	7.07
471.324	7.1
471.528	7.19
471.732	7.28
471.936	7.2
472.14	7.21
472.344	7.26
472.548	7.3
472.752	7.19
472.956	7.32
473.16	7.41
473.364	7.39
473.568	7.19
473.772	7.29
473.976	7.34
474.18	7.37
474.384	7.41
474.588	7.54
474.792	7.49
474.995	7.48
475.199	7.48
475.403	7.56
475.607	7.51
475.811	7.65
476.015	7.59
476.218	7.56
476.422	7.45
476.626	7.61
476.83	7.67
477.033	7.72
477.237	7.77
477.441	7.86
477.644	7.81
477.848	7.78
478.052	7.79
478.255	7.84
478.459	7.8
478.663	7.94
478.866	8.03
479.07	8
479.273	8.03
479.477	8.15
479.681	8.13
479.884	8.03
480.088	8.12
480.291	8.11
480.495	8.1
480.698	8.05
480.901	8.1
481.105	8.07
481.308	8.11
481.512	8.11
481.715	8.22
481.919	8.31
482.122	8.37
482.325	8.4
482.529	8.38
482.732	8.23
482.935	8.09
483.138	8.03
483.342	8
483.545	8.13
483.748	8.27
483.952	8.37
484.155	8.46
484.358	8.49
484.561	8.41
484.764	8.46
484.967	8.45
485.171	8.39
485.374	8.34
485.577	8.35
485.78	8.29
485.983	8.25
486.186	8.28
486.389	8.35
486.592	8.35
486.795	8.41
486.998	8.41
487.201	8.49
487.404	8.57
487.607	8.65
487.81	8.64
488.013	8.73
488.216	8.7
488.419	8.57
488.622	8.54
488.825	8.56
489.028	8.55
489.231	8.57
489.433	8.62
489.636	8.56
489.839	8.61
490.042	8.63
490.245	8.65
490.447	8.61
490.65	8.68
490.853	8.62
491.056	8.54
491.258	8.55
491.461	8.54
491.664	8.44
491.866	8.42
492.069	8.51
492.272	8.45
492.474	8.53
492.677	8.6
492.879	8.61
493.082	8.62
493.285	8.65
493.487	8.68
493.69	8.7
493.892	8.68
494.095	8.65
494.297	8.75
494.5	8.8
494.702	8.83
494.905	8.88
495.107	8.87
495.309	8.83
495.512	8.73
495.714	8.81
495.917	8.84
496.119	8.94
496.321	8.96
496.524	8.98
496.726	8.92
496.928	8.88
497.13	8.85
497.333	8.84
497.535	8.85
497.737	8.91
497.939	9
498.142	8.99
498.344	9.07
498.546	9.13
498.748	9.15
498.95	9.17
499.152	9.25
499.355	9.21
499.557	9.23
499.759	9.29
499.961	9.23
500.163	9.26
500.365	9.3
500.567	9.33
500.769	9.3
500.971	9.43
501.173	9.41
501.375	9.51
501.577	9.51
501.779	9.5
501.981	9.49
502.183	9.51
502.385	9.49
502.587	9.54
502.788	9.67
502.99	9.72
503.192	9.77
503.394	9.8
503.596	9.82
503.798	9.73
503.999	9.78
504.201	9.79
504.403	9.8
504.605	9.88
504.806	9.98
505.008	10.01
505.21	10.01
505.411	10.04
505.613	10.05
505.815	10.05
506.016	10.09
506.218	10.2
506.42	10.19
506.621	10.22
506.823	10.26
507.024	10.28
507.226	10.34
507.427	10.48
507.629	10.53
507.83	10.6
508.032	10.64
508.233	10.62
508.435	10.6
508.636	10.68
508.838	10.58
509.039	10.59
509.24	10.66
509.442	10.68
509.643	10.66
509.845	10.79
510.046	10.84
510.247	10.87
510.448	10.95
510.65	10.98
510.851	11
511.052	11.02
511.254	11.13
511.455	11.18
511.656	11.15
511.857	11.15
512.058	11.19
512.26	11.13
512.461	11.13
512.662	11.18
512.863	11.2
513.064	11.17
513.265	11.23
513.466	11.27
513.667	11.4
513.868	11.46
514.069	11.55
514.27	11.62
514.471	11.58
514.672	11.63
514.873	11.53
515.074	11.56
515.275	11.46
515.476	11.5
515.677	11.42
515.878	11.56
516.079	11.54
516.28	11.64
516.481	11.71
516.682	11.76
516.882	11.8
517.083	11.8
517.284	11.86
517.485	11.84
517.686	11.85
517.886	11.88
518.087	11.86
518.288	11.77
518.488	11.82
518.689	11.85
518.89	11.86
519.091	12
519.291	12.06
519.492	12.13
519.692	12.16
519.893	12.2
520.094	12.14
520.294	12.14
520.495	12.07
520.695	12.12
520.896	12.13
521.096	12.19
521.297	12.25
521.497	12.25
521.698	12.24
521.898	12.21
522.099	12.24
522.299	12.25
522.499	12.3
522.7	12.31
522.9	12.38
523.101	12.34
523.301	12.39
523.501	12.41
523.702	12.47
523.902	12.5
524.102	12.59
524.302	12.58
524.503	12.59
524.703	12.56
524.903	12.52
525.103	12.52
525.304	12.55
525.504	12.63
525.704	12.69
525.904	12.71
526.104	12.75
526.304	12.77
526.504	12.78
526.705	12.77
526.905	12.85
527.105	12.81
527.305	12.82
527.505	12.8
527.705	12.79
527.905	12.8
528.105	12.84
528.305	12.89
528.505	12.91
528.705	13.05
528.905	13.08
529.105	13.14
529.304	13.18
529.504	13.22
529.704	13.16
529.904	13.2
530.104	13.21
530.304	13.25
530.503	13.31
530.703	13.31
530.903	13.27
531.103	13.3
531.303	13.31
531.502	13.34
531.702	13.39
531.902	13.46
532.101	13.49
532.301	13.51
532.501	13.56
532.7	13.65
532.9	13.71
533.1	13.77
533.299	13.81
533.499	13.79
533.698	13.8
533.898	13.78
534.097	13.74
534.297	13.76
534.496	13.74
534.696	13.79
534.895	13.82
535.095	13.9
535.294	13.94
535.494	14.05
535.693	14.03
535.892	14.07
536.092	14.06
536.291	14.15
536.491	14.13
536.69	14.23
536.889	14.21
537.088	14.3
537.288	14.19
537.487	14.24
537.686	14.18
537.886	14.33
538.085	14.29
538.284	14.41
538.483	14.45
538.682	14.52
538.882	14.53
539.081	14.68
539.28	14.68
539.479	14.73
539.678	14.78
539.877	14.81
540.076	14.82
540.275	14.89
540.474	14.89
540.673	15.01
540.872	14.97
541.071	15
541.27	15.03
541.469	15.08
541.668	15.02
541.867	15.1
542.066	15.15
542.265	15.29
542.464	15.38
542.663	15.56
542.862	15.72
543.06	15.84
543.259	15.94
543.458	16.03
543.657	16.02
543.856	16.05
544.054	16.04
544.253	15.99
544.452	16.07
544.651	16.14
544.849	16.15
545.048	16.23
545.247	16.32
545.445	16.27
545.644	16.36
545.843	16.36
546.041	16.43
546.24	16.45
546.438	16.54
546.637	16.59
546.836	16.74
547.034	16.8
547.233	16.98
547.431	17.09
547.63	17.13
547.828	17.11
548.027	17.13
548.225	17.13
548.423	17.23
548.622	17.34
548.82	17.52
549.019	17.6
549.217	17.66
549.415	17.66
549.614	17.82
549.812	17.9
550.01	18
550.209	18.12
550.407	18.25
550.605	18.22
550.803	18.29
551.002	18.42
551.2	18.46
551.398	18.6
551.596	18.7
551.794	18.78
551.993	18.88
552.191	19.05
552.389	19.07
552.587	19.15
552.785	19.22
552.983	19.41
553.181	19.43
553.379	19.54
553.577	19.61
553.775	19.77
553.973	19.81
554.171	19.9
554.369	20.04
554.567	20.2
554.765	20.26
554.963	20.3
555.161	20.44
555.359	20.51
555.557	20.62
555.755	20.78
555.952	21.03
556.15	21.09
556.348	21.24
556.546	21.4
556.744	21.52
556.941	21.46
557.139	21.66
557.337	21.75
557.535	21.83
557.732	21.79
557.93	22.04
558.128	22.12
558.325	22.24
558.523	22.36
558.721	22.64
558.918	22.71
559.116	22.8
559.313	22.96
559.511	23.08
559.708	23.11
559.906	23.23
560.104	23.38
560.301	23.49
560.498	23.63
560.696	23.81
560.893	23.96
561.091	24.07
561.288	24.24
561.486	24.35
561.683	24.46
561.88	24.59
562.078	24.7
562.275	24.75
562.473	24.9
562.67	24.96
562.867	25.08
563.064	25.24
563.262	25.37
563.459	25.49
563.656	25.69
563.853	25.73
564.051	25.84
564.248	26
564.445	26.06
564.642	26.19
564.839	26.46
565.036	26.54
565.234	26.61
565.431	26.73
565.628	26.86
565.825	26.97
566.022	27.18
566.219	27.33
566.416	27.49
566.613	27.59
566.81	27.69
567.007	27.68
567.204	27.75
567.401	27.85
567.598	27.87
567.795	27.79
567.991	27.9
568.188	28.02
568.385	28.18
568.582	28.29
568.779	28.46
568.976	28.62
569.172	28.78
569.369	28.85
569.566	28.94
569.763	28.93
569.96	29.04
570.156	29.11
570.353	29.1
570.55	29.12
570.746	29.34
570.943	29.36
571.14	29.36
571.336	29.38
571.533	29.47
571.729	29.51
571.926	29.5
572.123	29.56
572.319	29.58
572.516	29.66
572.712	29.67
572.909	29.77
573.105	29.87
573.302	29.94
573.498	29.96
573.695	30.03
573.891	30.02
574.087	29.8
574.284	29.81
574.48	29.78
574.677	29.74
574.873	29.85
575.069	29.97
575.266	30.07
575.462	30.17
575.658	30.23
575.854	30.16
576.051	30.22
576.247	30.12
576.443	30.04
576.639	30.04
576.835	30.05
577.032	29.99
577.228	30.04
577.424	30.11
577.62	30.02
577.816	29.92
578.012	29.98
578.208	30.06
578.404	29.98
578.6	30.09
578.796	30.2
578.993	30.17
579.189	30.2
579.384	30.26
579.58	30.26
579.776	30.17
579.972	30.19
580.168	30.11
580.364	30.26
580.56	30.14
580.756	30.14
580.952	30.03
581.148	30.07
581.343	29.97
581.539	30.02
581.735	30.1
581.931	30.09
582.127	29.97
582.322	29.95
582.518	29.94
582.714	29.83
582.909	29.91
583.105	29.87
583.301	29.85
583.496	29.78
583.692	29.77
583.888	29.64
584.083	29.64
584.279	29.52
584.474	29.57
584.67	29.64
584.866	29.65
585.061	29.67
585.257	29.74
585.452	29.72
585.648	29.63
585.843	29.67
586.039	29.59
586.234	29.66
586.429	29.65
586.625	29.82
586.82	29.81
587.015	29.86
587.211	29.75
587.406	29.73
587.601	29.64
587.797	29.76
587.992	29.74
588.187	29.71
588.383	29.78
588.578	29.86
588.773	29.81
588.968	29.88
589.163	30.01
589.359	30.06
589.554	29.95
589.749	30.01
589.944	30.06
590.139	30.11
590.334	30.15
590.529	30.23
590.724	30.31
590.919	30.36
591.114	30.36
591.309	30.34
591.504	30.37
591.699	30.22
591.894	30.25
592.089	30.33
592.284	30.36
592.479	30.35
592.674	30.52
592.869	30.47
593.064	30.43
593.259	30.51
593.454	30.65
593.648	30.69
593.843	30.79
594.038	30.91
594.233	31.01
594.428	31.12
594.622	31.23
594.817	31.36
595.012	31.33
595.206	31.45
595.401	31.49
595.596	31.57
595.79	31.57
595.985	31.66
596.18	31.62
596.374	31.8
596.569	31.86
596.763	31.98
596.958	32.22
597.153	32.31
597.347	32.27
597.542	32.34
597.736	32.42
597.931	32.42
598.125	32.61
598.319	32.76
598.514	32.79
598.708	32.96
598.903	33.05
599.097	33.1
599.291	33.1
599.486	33.3
599.68	33.28
599.874	33.4
600.069	33.49
600.263	33.62
600.457	33.7
600.651	33.78
600.846	33.82
601.04	33.83
601.234	33.8
601.428	33.77
601.622	33.81
601.817	33.79
602.011	33.81
602.205	33.97
602.399	33.98
602.593	34.11
602.787	34.04
602.981	34.08
603.175	33.99
603.369	34.06
603.563	34.03
603.757	34.13
603.951	34.15
604.145	34.15
604.339	34.11
604.533	33.98
604.727	33.99
604.921	34
605.115	33.97
605.309	33.94
605.502	34.14
605.696	34.1
605.89	34.1
606.084	34.18
606.278	34.27
606.471	34.03
606.665	33.98
606.859	33.86
607.053	33.68
607.246	33.51
607.44	33.36
607.634	33.42
607.827	33.37
608.021	33.26
608.214	33.18
608.408	33.21
608.602	32.97
608.795	32.89
608.989	32.91
609.182	32.92
609.376	32.93
609.569	32.89
609.763	32.89
609.956	32.91
610.15	32.74
610.343	32.73
610.537	32.56
610.73	32.37
610.923	32.19
611.117	32.15
611.31	31.98
611.504	32.05
611.697	32.01
611.89	31.8
612.083	31.58
612.277	31.54
612.47	31.37
612.663	31.29
612.856	31.39
613.05	31.47
613.243	31.4
613.436	31.35
613.629	31.26
613.822	31.13
614.015	30.98
614.209	30.82
614.402	30.73
614.595	30.73
614.788	30.62
614.981	30.54
615.174	30.46
615.367	30.36
615.56	30.23
615.753	30.2
615.946	30.2
616.139	30.12
616.332	30.11
616.525	29.99
616.718	29.88
616.911	29.79
617.103	29.8
617.296	29.77
617.489	29.66
617.682	29.63
617.875	29.59
618.067	29.47
618.26	29.3
618.453	29.29
618.646	29.29
618.838	29.26
619.031	29.21
619.224	29.29
619.417	29.33
619.609	29.26
619.802	29.13
619.994	29.07
620.187	28.84
620.38	28.73
620.572	28.69
620.765	28.7
620.957	28.65
621.15	28.75
621.342	28.79
621.535	28.72
621.727	28.66
621.92	28.66
622.112	28.56
622.305	28.48
622.497	28.4
622.69	28.4
622.882	28.4
623.074	28.45
623.267	28.45
623.459	28.47
623.651	28.41
623.844	28.31
624.036	28.32
624.228	28.27
624.42	28.17
624.613	28.15
624.805	28.21
624.997	28.1
625.189	28.08
625.381	28.03
625.574	28.01
625.766	27.98
625.958	27.95
626.15	27.93
626.342	27.94
626.534	27.86
626.726	27.7
626.918	27.73
627.11	27.69
627.302	27.69
627.494	27.65
627.686	27.58
627.878	27.56
628.07	27.53
628.262	27.49
628.454	27.48
628.646	27.49
628.838	27.5
629.029	27.38
629.221	27.32
629.413	27.24
629.605	27.22
629.797	27.03
629.989	27
630.18	27.01
630.372	27.04
630.564	27.02
630.755	26.95
630.947	26.89
631.139	26.75
631.33	26.64
631.522	26.56
631.714	26.5
631.905	26.53
632.097	26.48
632.289	26.54
632.48	26.62
632.672	26.72
632.863	26.62
633.055	26.73
633.246	26.7
633.438	26.63
633.629	26.55
633.821	26.54
634.012	26.42
634.203	26.24
634.395	26.21
634.586	26.27
634.777	26.19
634.969	26.16
635.16	26.21
635.351	26.15
635.543	26.05
635.734	26.04
635.925	26.05
636.117	26.07
636.308	26.11
636.499	26.19
636.69	26.27
636.881	26.27
637.073	26.29
637.264	26.18
637.455	26.01
637.646	25.89
637.837	25.87
638.028	25.81
638.219	25.97
638.41	26.02
638.601	26.08
638.792	26.1
638.983	26.11
639.174	25.99
639.365	26.12
639.556	26.02
639.747	25.99
639.938	26.07
640.129	26.01
640.32	25.79
640.511	25.85
640.701	25.82
640.892	25.61
641.083	25.64
641.274	25.66
641.465	25.69
641.655	25.58
641.846	25.59
642.037	25.5
642.228	25.43
642.418	25.32
642.609	25.38
642.8	25.26
642.99	25.27
643.181	25.28
643.372	25.21
643.562	25.08
643.753	25.16
643.943	24.99
644.134	24.86
644.324	24.94
644.515	24.97
644.705	24.89
644.896	25.01
645.086	25.09
645.277	25
645.467	25.1
645.658	24.99
645.848	24.98
646.038	24.94
646.229	24.93
646.419	24.75
646.61	24.88
646.8	24.8
646.99	24.72
647.18	24.63
647.371	24.63
647.561	24.57
647.751	24.53
647.941	24.58
648.132	24.51
648.322	24.48
648.512	24.57
648.702	24.65
648.892	24.68
649.082	24.71
649.272	24.66
649.462	24.46
649.653	24.33
649.843	24.19
650.033	24.12
650.223	24.07
650.413	24.09
650.603	24.13
650.793	24.07
650.983	24.08
651.172	24.06
651.362	23.9
651.552	23.72
651.742	23.66
651.932	23.64
652.122	23.57
652.312	23.72
652.502	23.74
652.691	23.65
652.881	23.53
653.071	23.42
653.261	23.19
653.45	22.97
653.64	22.87
653.83	22.75
654.019	22.64
654.209	22.47
654.399	22.41
654.588	22.31
654.778	22.06
654.968	22.01
655.157	21.9
655.347	21.68
655.536	21.46
655.726	21.36
655.915	21.09
656.105	20.95
656.294	20.77
656.484	20.6
656.673	20.4
656.863	20.28
657.052	20.06
657.241	19.95
657.431	19.85
657.62	19.72
657.809	19.44
657.999	19.32
658.188	19.09
658.377	18.79
658.567	18.66
658.756	18.47
658.945	18.19
659.134	17.97
659.324	17.8
659.513	17.56
659.702	17.32
659.891	17.19
660.08	17
660.269	16.77
660.458	16.49
660.648	16.28
660.837	16.04
661.026	15.89
661.215	15.68
661.404	15.49
661.593	15.38
661.782	15.16
661.971	14.95
662.16	14.89
662.349	14.62
662.538	14.36
662.726	14.17
662.915	14.06
663.104	13.81
663.293	13.75
663.482	13.68
663.671	13.56
663.86	13.37
664.048	13.31
664.237	13.22
664.426	13.07
664.615	12.93
664.803	12.82
664.992	12.64
665.181	12.42
665.369	12.23
665.558	12.17
665.747	12.11
665.935	12.08
666.124	12.14
666.312	12.17
666.501	12.04
666.69	11.9
666.878	11.8
667.067	11.63
667.255	11.48
667.444	11.46
667.632	11.46
667.82	11.45
668.009	11.33
668.197	11.32
668.386	11.28
668.574	11.2
668.762	11.04
668.951	11.21
669.139	11.18
669.327	11.04
669.516	10.98
669.704	11.08
669.892	11.07
670.08	11.1
670.269	11.19
670.457	11.25
670.645	11.16
670.833	11.08
671.021	11.14
671.21	11.18
671.398	11.17
671.586	11.3
671.774	11.32
671.962	11.29
672.15	11.37
672.338	11.47
672.526	11.57
672.714	11.61
672.902	11.64
673.09	11.66
673.278	11.76
673.466	11.77
673.654	11.8
673.842	11.99
674.03	12.03
674.218	12.01
674.405	12.02
674.593	12.06
674.781	12.13
674.969	12.32
675.157	12.5
675.344	12.61
675.532	12.79
675.72	12.71
675.908	12.7
676.095	12.61
676.283	12.9
676.471	13.02
676.658	13.21
676.846	13.32
677.033	13.39
677.221	13.33
677.409	13.37
677.596	13.37
677.784	13.49
677.971	13.72
678.159	13.88
678.346	14.05
678.534	14.31
678.721	14.43
678.909	14.68
679.096	14.67
679.283	14.71
679.471	14.86
679.658	14.97
679.846	14.9
680.033	15.22
680.22	15.57
680.408	15.61
680.595	15.82
680.782	16.12
680.969	16.43
681.157	16.57
681.344	16.76
681.531	16.93
681.718	17.11
681.905	17.05
682.093	17.17
682.28	17.48
682.467	17.8
682.654	17.98
682.841	18.39
683.028	18.52
683.215	18.88
683.402	19.09
683.589	19.42
683.776	19.59
683.963	20.05
684.15	20.27
684.337	20.65
684.524	20.93
684.711	21.22
684.898	21.4
685.085	21.65
685.271	22.08
685.458	22.45
685.645	22.76
685.832	23.25
686.019	23.56
686.205	23.71
686.392	24.3
686.579	24.82
686.766	25.32
686.952	25.87
687.139	26.4
687.326	26.65
687.512	27.06
687.699	27.61
687.886	28.24
688.072	28.84
688.259	29.35
688.445	30.02
688.632	30.44
688.818	30.83
689.005	31.48
689.191	32.25
689.378	32.83
689.564	33.5
689.751	34.17
689.937	34.81
690.124	35.38
690.31	35.95
690.496	36.73
690.683	37.45
690.869	37.9
691.055	38.57
691.242	39.28
691.428	39.91
691.614	40.85
691.8	41.89
691.987	42.59
692.173	43.35
692.359	43.88
692.545	44.69
692.731	45.22
692.918	45.88
693.104	46.68
693.29	47.49
693.476	47.92
693.662	48.74
693.848	49.68
694.034	50.18
694.22	50.76
694.406	51.5
694.592	52.21
694.778	52.78
694.964	53.59
695.15	54.48
695.336	55.22
695.522	55.53
695.708	56.33
695.894	57.07
696.08	57.94
696.265	58.74
696.451	59.64
696.637	60.42
696.823	61.19
697.009	61.61
697.194	62.42
697.38	63.19
697.566	63.55
697.751	64.35
697.937	65.31
698.123	65.66
698.308	66.28
698.494	67.12
698.68	67.54
698.865	67.94
699.051	68.71
699.236	68.92
699.422	69.32
699.607	69.82
699.793	70.56
699.978	70.75
700.164	71.56
700.349	72.15
700.535	72.42
700.72	72.44
700.906	72.75
701.091	73.26
701.276	73.43
701.462	73.87
701.647	74.37
701.832	75
702.018	75.33
702.203	75.92
702.388	76.29
702.573	76.68
702.759	76.9
702.944	76.99
703.129	77.15
703.314	77.41
703.499	77.73
703.684	78.27
703.87	79.03
704.055	79.46
704.24	79.91
704.425	80.33
704.61	80.38
704.795	80.47
704.98	80.58
705.165	81.01
705.35	81.4
705.535	81.8
705.72	82.05
705.905	82.59
706.09	83.19
706.275	83.11
706.459	83.61
706.644	83.68
706.829	83.99
707.014	84.12
707.199	84.8
707.384	84.63
707.568	84.73
707.753	85.04
707.938	85.13
708.123	85.19
708.307	85.37
708.492	86.04
708.677	86.04
708.861	86.25
709.046	85.92
709.231	86.06
709.415	85.87
709.6	86.15
709.784	86.06
709.969	86.8
710.153	86.71
710.338	87.33
710.522	87.62
710.707	87.82
710.891	87.44
711.076	88.13
711.26	88.35
711.445	88.23
711.629	88.48
711.813	89.21
711.998	89.23
712.182	88.97
712.366	89.24
712.551	89.5
712.735	89.23
712.919	89.95
713.103	90.3
713.288	90.47
713.472	90.5
713.656	90.23
713.84	89.74
714.024	89.76
714.208	89.42
714.393	89.65
714.577	90.36
714.761	90.65
714.945	90.5
715.129	90.77
715.313	90.66
715.497	90.65
715.681	90.6
715.865	90.71
716.049	90.97
716.233	91.19
716.417	91.37
716.601	91.57
716.785	91.87
716.968	91.79
717.152	91.68
717.336	92.31
717.52	92.23
717.704	92.64
717.888	93.25
718.071	93.4
718.255	93.05
718.439	93.21
718.622	93.28
718.806	92.78
718.99	92.3
719.174	92.46
719.357	92.93
719.541	92.85
719.724	93.13
719.908	93.48
720.092	93.04
720.275	92.91
720.459	92.71
720.642	92.82
720.826	92.73
721.009	92.84
721.193	92.4
721.376	92.82
721.559	93.19
721.743	93.9
721.926	94.32
722.11	95.08
722.293	95.4
722.476	94.99
722.66	95.22
722.843	95.14
723.026	95.26
723.21	95.23
723.393	95.94
723.576	95.63
723.759	95.5
723.942	95.16
724.126	94.69
724.309	94.21
724.492	93.9
724.675	94.14
724.858	94.8
725.041	95.04
725.224	95.72
725.407	96.19
725.59	96.59
725.774	96.21
725.957	96.6
726.14	95.86
726.322	96.23
726.505	96
726.688	95.96
726.871	95.63
727.054	96.03
727.237	95.99
727.42	95.76
727.603	95.76
727.786	96.22
727.968	96.31
728.151	96.1
728.334	96.57
728.517	97.28
728.699	97.06
728.882	97.18
729.065	97.11
729.248	97.37
729.43	96.78
729.613	97.06
729.796	97.04
729.978	97.26
730.161	97.47
730.343	97.69
730.526	97.45
730.708	97.61
730.891	97.78
731.073	97.84
731.256	98.36
731.438	99.46
731.621	99.55
731.803	99.62
731.986	99.89
732.168	99.5
732.35	99.18
732.533	98.81
732.715	99
732.898	98.02
733.08	97.96
733.262	97.08
733.444	98
733.627	98.28
733.809	99.42
733.991	99.98
734.173	99.91
734.355	99.1
734.538	98.7
734.72	98.02
734.902	98.37
735.084	99.19
735.266	100.06
735.448	100.82
735.63	101.29
735.812	101.01
735.994	100.9
736.176	100.98
736.358	100.98
736.54	102.2
736.722	101.92
736.904	101.73
737.086	100.39
737.268	100.35
737.45	99.47
737.632	99.42
737.814	100.3
737.995	101.2
738.177	100.42
738.359	100.4
738.541	100.46
738.723	100.17
738.904	100.41
739.086	101.28
739.268	100.8
739.449	100.7
739.631	100.3
739.813	99.87
739.994	98.91
740.176	99.1
740.358	100.74
740.539	100.4
740.721	101.51
740.902	102.77
741.084	102.96
741.265	101.85
741.447	103.05
741.628	102.07
741.81	102.34
741.991	102.09
742.172	102.07
742.354	101.28
742.535	101.78
742.717	100.32
742.898	100.48
743.079	101.13
743.261	101.73
743.442	100.57
743.623	101.52
743.804	101.79
743.986	100.87
744.167	100.26
744.348	101.05
744.529	99.83
744.71	99.51
744.891	99.5
745.073	99.77
745.254	99.69
745.435	100.05
745.616	100.48
745.797	100.55
745.978	100.87
746.159	101.04
746.34	102.33
746.521	101.76
746.702	102.48
746.883	101.83
747.064	102.17
747.245	101.31
747.426	101.22
747.606	100.96
747.787	101.3
747.968	100.57
748.149	100.33
748.33	100.65
748.51	99.97
748.691	100.35
748.872	101.7
749.053	101
749.233	101.1
749.414	101.95
749.595	102.28
749.775	100.41
749.956	101.34
750.137	101.07
750.317	99.18
750.498	98.25
750.678	98.89
750.859	99.54
751.04	99.78
751.22	99.8
751.4	100.04
751.581	100.89
751.761	99.76
751.942	99.64
752.122	99.59
752.303	99.49
752.483	98.74
752.663	98.61
752.844	98.5
753.024	99.87
753.204	100.14
753.385	100.35
753.565	100.99
753.745	100.44
753.925	99.88
754.106	99.38
754.286	97.97
754.466	98.04
754.646	98.78
754.826	99.15
755.006	98.47
755.187	99.38
755.367	98.82
755.547	98.02
755.727	97.91
755.907	97.83
756.087	98.11
756.267	97.13
756.447	97.22
756.627	97.86
756.807	98.24
756.987	97.44
757.167	98.77
757.346	97.79
757.526	97.35
757.706	97.8
757.886	98.42
758.066	98.04
758.246	98.67
758.425	97.25
758.605	96.7
758.785	96.62
758.965	96.98
759.144	96.35
759.324	98.25
759.504	98.6
759.683	97.12
759.863	97.65
760.043	98.19
760.222	97.01
760.402	95.17
760.581	96.81
760.761	95.64
760.94	96.72
761.12	95.78
761.299	97.89
761.479	96.63
761.658	97.18
761.838	96.02
762.017	96.88
762.197	96.19
762.376	96.25
762.555	96.72
762.735	96.7
762.914	95.96
763.093	95.96
763.273	95.6
763.452	94.17
763.631	94.81
763.81	96.13
763.99	96.25
764.169	96.74
764.348	96.96
764.527	95.36
764.706	93.39
764.885	94.48
765.064	96.13
765.243	96.52
765.423	96.94
765.602	98.49
765.781	96.08
765.96	95.1
766.139	93.43
766.318	95.58
766.497	93.93
766.676	92.61
766.854	92.63
767.033	93.82
767.212	93.9
767.391	95.6
767.57	99.73
767.749	99.51
767.928	100.45
768.106	97.42
768.285	96.88
768.464	95.4
768.643	93.91
768.821	92.48
769	92.65
769.179	92.6
769.357	92.02
769.536	92.3
769.715	91.33
769.893	93.49
770.072	93.01
770.25	90.85
770.429	91.91
770.607	94.01
770.786	91.77
770.964	93.19
771.143	95.64
771.321	93.2
771.5	93.12
771.678	94.08
771.857	92.46
772.035	91.94
772.213	94.46
772.392	92.6
772.57	92.91
772.748	92.61
772.927	93.81
773.105	93.56
773.283	92.91
773.461	93.69
773.64	93.44
773.818	90.99
773.996	90.81
774.174	92.15
774.352	91.42
774.531	92.27
774.709	93.78
774.887	89.93
775.065	90.88
775.243	89.71
775.421	89.16
775.599	90.33
775.777	93.36
775.955	92.2
776.133	93.16
776.311	93.34
776.489	91.64
776.667	91.04
776.844	90.84
777.022	88.86
777.2	89.13
777.378	86.86
777.556	89.05
777.734	91.25
777.911	92.41
778.089	95.42
778.267	98.25
778.445	98.32
778.622	97.07
778.8	95.1
778.978	90.85
779.155	92.03
779.333	91.97
779.511	92.11
779.688	94.11
779.866	95.97
780.043	94.14
780.221	93.1
780.398	91.44
780.576	90.84
780.753	89.98
780.931	89.04
781.108	90.48
781.286	92.79
781.463	92.2
781.64	91.43
781.818	94.87
781.995	90.98
782.172	89.91
782.35	90.51
782.527	90.7
782.704	88.73
782.882	87.11
783.059	86.67
783.236	86.38
783.413	84.75
783.59	84.78
783.768	89.15
783.945	87.25
784.122	86.5
784.299	89.91
784.476	88.48
784.653	87.08
784.83	86.71
785.007	85.43
785.184	83.81
785.361	83.24
785.538	82.94
785.715	85.63
785.892	84.13
786.069	82.94
786.246	83.62
786.423	83.61
786.6	82.67
786.776	87.6
786.953	85.62
787.13	86.62
787.307	84.41
787.484	82.87
787.66	79.67
787.837	81.37
788.014	81.43
788.191	83.04
788.367	82.91
788.544	84.24
788.721	84.8
788.897	85.16
789.074	84.45
789.25	85.69
789.427	83.18
789.603	77.01
789.78	74.12
789.956	74.48
790.133	73.49
790.309	77.75
790.486	85.73
790.662	88.39
790.839	89.72
791.015	91.69
791.192	89.68
791.368	88.2
791.544	88.85
791.721	86.61
791.897	83.2
792.073	81.11
792.249	75.31
792.426	74.71
792.602	74.68
792.778	77.09
792.954	80.53
793.13	83.08
793.307	81.7
793.483	80.17
793.659	77.77
793.835	77.18
794.011	85.13
794.187	87.51
794.363	90.11
794.539	89.21
794.715	90.86
794.891	88.26
795.067	84.98
795.243	84.61
795.419	87.18
795.595	89.75
795.771	79.63
795.947	79.13
796.122	75.92
796.298	74
796.474	73.09
796.65	82.49
796.826	83.05
797.001	83.12
797.177	80.02
797.353	79.52
797.529	74.27
797.704	76.58
797.88	78.86
798.056	84.14
798.231	80.23
798.407	82.77
798.582	80.64
798.758	81.23
798.934	82.15
799.109	81.14
799.285	79.49
799.46	76.24
799.636	76.9
799.811	76.76
799.986	73.39
800.162	70.17
800.337	78.83
800.513	78.21
800.688	69.29
800.863	80.58
801.039	85.94
801.214	74.88
801.389	68.44
801.565	73.73
801.74	69.92
801.915	68.78
802.09	72.41
802.265	74.77
802.441	75.26
802.616	76.99
802.791	78.24
802.966	81.73
803.141	82.04
803.316	82.75
803.491	74.9
803.666	74.08
803.841	68.86
804.016	71.82
804.191	70.41
804.366	74.37
804.541	75.6
804.716	77.78
804.891	75.7
805.066	78.01
805.241	77.21
805.416	83.54
805.591	84.09
805.765	89.15
805.94	84.42
806.115	90.04
806.29	82.83
806.464	84.67
806.639	79.49
806.814	89.35
806.989	84.35
807.163	87.31
807.338	79.23
807.512	79
807.687	71.29
807.862	70.26
808.036	65.33
808.211	71.35
808.385	68.8
808.56	62.35
808.734	55.89
808.909	53.12
809.083	56.34
809.258	61.5
809.432	65.81
809.606	74.84
809.781	86.88
809.955	85.17
810.13	83.72
810.304	82.56
810.478	76.23
810.652	68.77
810.827	67.14
811.001	65.79
811.175	67.86
811.349	75.67
811.524	82.6
811.698	81.23
811.872	87.69
812.046	85.48
812.22	91.89
812.394	82.08
812.568	80.63
812.742	76.53
812.916	87.74
813.09	76.76
813.264	76.83
813.438	78.98
813.612	75.42
813.786	68.32
813.96	73
814.134	86.08
814.308	88.62
814.482	92.8
814.656	87.24
814.83	86.93
815.003	78.67
815.177	74.02
815.351	73.41
815.525	80.75
815.698	76.72
815.872	65.66
816.046	62.13
816.219	68.22
816.393	58.4
816.567	59.74
816.74	65.73
816.914	72.06
817.088	68.38
817.261	66.58
817.435	70.84
817.608	69.4
817.782	63.88
817.955	57.47
818.129	70.33
818.302	70.62
818.475	69.67
818.649	67.58
818.822	66.32
818.996	70.05
819.169	71.29
819.342	75.34
819.516	84.09
819.689	81.95
819.862	75.67
820.035	69.19
820.209	62.22
820.382	49.93
820.555	47.59
820.728	48.82
820.901	47.07
821.075	53.05
821.248	72.83
821.421	77.99
821.594	67.96
821.767	79.89
821.94	69.83
822.113	65.46
822.286	59.4
822.459	71.16
822.632	66.87
822.805	77.48
822.978	74.09
823.151	70.45
823.324	44.43
823.496	37.73
823.669	36.84
823.842	49.53
824.015	60.39
824.188	90.27
824.361	84.42
824.533	75.97
824.706	75.05
824.879	70.76
825.051	70.24
825.224	77.75
825.397	74.05
825.569	61.65
825.742	69.43
825.915	64.89
826.087	54.76
826.26	53.85
826.432	57.1
826.605	55.65
826.777	63.62
826.95	76.42
827.122	81.99
827.295	105.62
827.467	106.43
827.64	89.09
827.812	66.29
827.984	75.8
828.157	36.55
828.329	52.04
828.501	50.74
828.674	55.38
828.846	49.98
829.018	62.63
829.19	44.13
829.363	53.57
829.535	52.28
829.707	55.25
829.879	51.7
830.051	58.85
830.223	58.19
830.395	61.07
830.568	56.61
830.74	56.59
830.912	68.91
831.084	55.47
831.256	45.35
831.428	49.13
831.6	47.78
831.772	24.3
831.943	30.09
832.115	52.47
832.287	51.18
832.459	59.73
832.631	64.68
832.803	72.29
832.975	72.3
833.146	69.1
833.318	60.42
833.49	63.24
833.662	59.78
833.833	53.09
834.005	56.27
834.177	64.54
834.348	57.32
834.52	55.18
834.692	44.76
834.863	40.98
835.035	51.97
835.206	57.13
835.378	62.3
835.549	69.04
835.721	64.21
835.892	60.17
836.064	69.06
836.235	68.59
836.407	65.86
836.578	72.16
836.749	52.54
836.921	21.77
837.092	19.3
837.264	10.79
837.435	9.68
837.606	33.97
837.777	44.48
837.949	53.77
838.12	61.16
838.291	61.7
838.462	63.69
838.633	55.36
838.805	48.9
838.976	57.88
839.147	65.72
839.318	70.67
839.489	72.73
839.66	85.51
839.831	87.94
840.002	80.59
840.173	77.38
840.344	82.69
840.515	63.29
840.686	61.5
840.857	58.78
841.028	55.36
841.199	70.74
841.369	80.06
841.54	84.39
841.711	106.23
841.882	107.01
842.053	73.8
842.223	54.98
842.394	52.34
842.565	29.95
842.736	28.68
842.906	23.71
843.077	45.13
843.248	57.13
843.418	70.94
843.589	68.09
843.759	104.95
843.93	97.34
844.101	84.46
844.271	100.9
844.442	79.94
844.612	37.63
844.783	43.39
844.953	47.79
845.123	36.4
845.294	71.19
845.464	81.16
845.635	87.64
845.805	121.5
845.975	114.91
846.146	62.54
846.316	79.98
846.486	78.61
846.656	76.4
846.827	90.64
846.997	96.53
847.167	64.96
847.337	61.69
847.507	55.76
847.677	44.02
847.848	46.61
848.018	66.18
848.188	75.2
848.358	60.53
848.528	70.95
848.698	54.22
848.868	38.86
849.038	22.66
849.208	41.63
849.378	62.99
849.548	74.61
849.718	90.76
849.887	87.03
850.057	64.91
850.227	34.35
850.397	50.91
850.567	9.13
850.737	65.7
850.906	46.93
851.076	34.55
851.246	45.52
851.415	103.64
851.585	45.73
851.755	66.86
851.924	74.61
852.094	61.62
852.264	33.61
852.433	47.64
852.603	9.42
852.772	20.94
852.942	56.86
853.111	79.76
853.281	73.53
853.45	80.7
853.62	63.96
853.789	35.13
853.959	33.48
854.128	45.75
854.297	57.86
854.467	70.26
854.636	82.2
854.805	73.95
854.975	58.64
855.144	62.37
855.313	53.47
855.482	20.28
855.652	32.5
855.821	39.1
855.99	46.15
856.159	40.15
856.328	59.46
856.497	53.33
856.667	56
856.836	46.46
857.005	54.89
857.174	56.23
857.343	36.65
857.512	27.92
857.681	19.48
857.85	9
858.019	-3.55
858.188	34.82
858.356	31.07
858.525	43.64
858.694	61.6
858.863	53.65
859.032	48.49
859.201	51.14
859.369	39.48
859.538	35.44
859.707	27.34
859.876	31.91
860.044	47.84
860.213	51
860.382	41.87
860.55	42.41
860.719	40.14
860.888	25.18
861.056	12.34
861.225	7.6
861.393	-0.52
861.562	45.46
861.73	23.25
861.899	34.69
862.067	49.48
862.236	63.88
862.404	51.58
862.572	100.49
862.741	50.15
862.909	26.06
863.078	18.16
863.246	21.64
863.414	29.16
863.582	53.24
863.751	63.58
863.919	65.1
864.087	51.45
864.255	51.71
864.424	25.15
864.592	51.55
864.76	38.53
864.928	51.84
865.096	46.32
865.264	68.42
865.432	67.49
865.6	119.65
865.768	100.15
865.936	65.58
866.104	76.91
866.272	63.19
866.44	0.66
866.608	3.12
866.776	29.65
866.944	34.5
867.112	43.97
867.28	55.2
867.448	55.66
867.615	46.26
867.783	12.81
867.951	29.7
868.119	47.13
868.286	68.34
868.454	77.82
868.622	96.73
868.789	68.12
868.957	54.67
869.125	67.55
869.292	37.07
869.46	40.59
869.627	56.35
869.795	13.94
869.963	16.57
870.13	13.28
870.298	-9.29
870.465	-38.19
870.632	-20.28
870.8	-7.7
870.967	9.91
871.135	23.89
871.302	61.32
871.469	69.39
871.637	59.89
871.804	60.62
871.971	50.69
872.139	29.46
872.306	4.12
872.473	12.36
872.64	-37.93
872.807	-51.13
872.975	-61.99
873.142	13.34
873.309	12.91
873.476	50.89
873.643	75.56
873.81	54.93
873.977	50.85
874.144	71.01
874.311	13.77
874.478	-12.34
874.645	-3.78
874.812	68.04
874.979	88.17
875.146	102.04
875.313	107.8
875.48	103.43
875.647	52.61
875.813	-11.07
875.98	7.22
876.147	-58.36
876.314	-35.47
876.481	46
876.647	73.99
876.814	52.55
876.981	61.32
877.147	46.54
877.314	26.28
877.481	17.72
877.647	31.78
877.814	52.89
877.98	81.04
878.147	69.27
878.314	78.78
878.48	83.58
878.647	64.92
878.813	76.62
878.979	58.05
879.146	57.49
879.312	85.38
879.479	47.67
879.645	14.85
879.811	28.07
879.978	36.15
880.144	18.46
880.31	37.79
880.477	71.11
880.643	75.86
880.809	77.97
880.975	64.82
881.142	36.16
881.308	193.14
881.474	204.5
881.64	-35.36
881.806	-102.29
881.972	-25.47
882.138	24.82
882.304	1.64
882.47	10.9
882.636	20.89
882.802	16.37
882.968	-8.82
883.134	2.99
883.3	14.01
883.466	33.56
883.632	48.34
883.798	15.68
883.964	37.25
884.129	-149.78
884.295	72.48
884.461	54.09
884.627	42
884.793	31.9
884.958	46.31
885.124	30
885.29	10.61
885.455	29.64
885.621	64.92
885.787	89.88
885.952	83.04
886.118	66.98
886.283	68.18
886.449	55.91
886.614	42.44
886.78	43.28
886.945	43.1
887.111	10.97
887.276	27.88
887.442	-30.1
887.607	-3.14
887.773	3.45
887.938	13.93
888.103	3.05
888.269	31.25
888.434	36.66
888.599	30.93
888.764	61.55
888.93	59.41
889.095	47.24
889.26	13.23
889.425	50.45
889.59	32.1
889.756	48.4
889.921	59.37
890.086	142.37
890.251	116.81
890.416	53.17
890.581	59.15
890.746	40.64
890.911	38.36
891.076	35.32
891.241	27.6
891.406	40.06
891.571	83.97
891.736	94.93
891.901	67.14
892.065	47.03
892.23	33.22
892.395	4.26
892.56	2.91
892.725	-57.69
892.889	-42.82
893.054	-16.46
893.219	-36.98
893.384	-25.24
893.548	-31.74
893.713	-68.12
893.878	-120.07
