Data from Ofra_PS_T2_1A_0GT03_Reflection_2.txt Node
Date: Wed Jul 21 17:46:09 EDT 2021
User: Adam
Spectrometer: FLMT01687
Trigger mode: 0
Integration Time (sec): 1.100000E0
Scans to average: 2
Electric dark correction enabled: true
Nonlinearity correction enabled: false
Boxcar width: 2
XAxis mode: Wavelengths
Number of Pixels in Spectrum: 3648
>>>>>Begin Spectral Data<<<<<
179.494	655.2
179.716	712.24
179.937	709.48
180.158	675.75
180.38	1042.5
180.601	367.96
180.823	126.6
181.044	-143.6
181.265	-11.03
181.486	-28.15
181.708	92.84
181.929	697.96
182.15	-456.34
182.372	44.59
182.593	-110.8
182.814	2.58
183.035	41.22
183.257	39.62
183.478	-38.94
183.699	14.01
183.92	15.24
184.141	27.17
184.363	-20.12
184.584	43.35
184.805	59.14
185.026	82.27
185.247	77.41
185.468	41.08
185.689	28.01
185.91	22.35
186.132	4.41
186.353	1.39
186.574	76.96
186.795	56.38
187.016	-3.9
187.237	-24.39
187.458	-81
187.679	-85.92
187.9	-42.86
188.121	-45.04
188.342	-14.19
188.563	46.3
188.784	61.75
189.005	54.34
189.226	136.63
189.447	67.57
189.667	-42.23
189.888	-232.02
190.109	-962.34
190.33	-689.03
190.551	-1022.12
190.772	-251.33
190.993	-239.14
191.214	-203.06
191.434	-123.02
191.655	-34.23
191.876	-73.53
192.097	-103.85
192.318	-164.75
192.538	-238.42
192.759	-216.69
192.98	-101.58
193.201	-42.53
193.421	-21.34
193.642	4.1
193.863	9.13
194.083	-17.95
194.304	-34.78
194.525	-47.59
194.745	-87.11
194.966	-80.86
195.187	-80.07
195.407	-90.33
195.628	-102.81
195.848	-113.95
196.069	-121.88
196.29	-81.23
196.51	-107.45
196.731	-109.72
196.951	-123.51
197.172	-122.49
197.392	-168.82
197.613	-159.07
197.833	-198.41
198.054	-168.71
198.274	-107.98
198.495	-108.14
198.715	-52.44
198.936	-37.78
199.156	-28.83
199.377	-95.95
199.597	-110.29
199.817	-132.91
200.038	-60.17
200.258	-96.95
200.479	-53.08
200.699	20.14
200.919	40.21
201.14	-32.91
201.36	-58
201.58	2.39
201.801	28.7
202.021	-4.75
202.241	14.84
202.461	11.18
202.682	-61.07
202.902	-135.24
203.122	-100.73
203.342	-88.68
203.563	-24.66
203.783	11.3
204.003	-21.77
204.223	-2.24
204.443	42.86
204.663	18.91
204.884	11.37
205.104	47.93
205.324	91.58
205.544	50.05
205.764	68.57
205.984	74.74
206.204	62.78
206.424	38.53
206.644	44.16
206.864	12.15
207.084	-26.26
207.304	28.05
207.525	-63.75
207.745	-46.15
207.964	44.5
208.184	-21.83
208.404	-81.13
208.624	-90.25
208.844	-88.63
209.064	-465.9
209.284	-499.74
209.504	-229.08
209.724	-54.93
209.944	-26.88
210.164	20.94
210.384	33.8
210.604	17.69
210.823	-39.46
211.043	-81.08
211.263	-56.97
211.483	-61.93
211.703	-133.45
211.922	-105.87
212.142	-3.26
212.362	-8.14
212.582	-23.82
212.801	-0.24
213.021	-15.61
213.241	-62.72
213.461	-92.12
213.68	-104.09
213.9	-90.52
214.12	-67.67
214.339	-122.66
214.559	-112.01
214.779	-55.15
214.998	-55.42
215.218	-101.58
215.438	-52.42
215.657	-47.97
215.877	-33.83
216.096	-6.61
216.316	21.61
216.535	13.83
216.755	18.42
216.974	-43.98
217.194	-69.34
217.413	-98.2
217.633	-114.79
217.852	-210.17
218.072	-91.76
218.291	-27.29
218.511	12.22
218.73	-2.76
218.95	-6.04
219.169	-0.96
219.389	-45.24
219.608	-45.58
219.827	-44.95
220.047	-24.25
220.266	-28.76
220.485	-34.93
220.705	-17.52
220.924	-32.13
221.143	9.48
221.363	-11.53
221.582	-6.81
221.801	-6.27
222.021	14.21
222.24	-118.16
222.459	-95.01
222.678	-74.45
222.897	-152.37
223.117	-191.65
223.336	-121.04
223.555	-74.64
223.774	-20.31
223.993	3.97
224.213	60.2
224.432	36.7
224.651	63.73
224.87	25.18
225.089	40.74
225.308	33.64
225.527	38.95
225.746	26.77
225.965	12.11
226.184	-29.44
226.404	-24.21
226.623	-39.99
226.842	-36.85
227.061	4.32
227.28	18.52
227.499	14.39
227.718	19.48
227.936	13.46
228.155	26.98
228.374	13.55
228.593	26.24
228.812	48.84
229.031	45.33
229.25	-19.2
229.469	-8.63
229.688	-12.32
229.907	11.65
230.125	26.75
230.344	33.83
230.563	44.02
230.782	48.56
231.001	-22.21
231.22	-31.49
231.438	-2.22
231.657	-4.33
231.876	-11.65
232.095	36
232.313	33.67
232.532	11.78
232.751	-17.98
232.969	-42.3
233.188	-124.71
233.407	-30.7
233.625	-9.28
233.844	-26.94
234.063	-11.68
234.281	6.53
234.5	-0.61
234.719	13.05
234.937	28.86
235.156	34.38
235.374	34.35
235.593	14.35
235.811	-20.98
236.03	-39.38
236.249	-89.77
236.467	-88.49
236.686	-33.13
236.904	-13.45
237.123	-37.99
237.341	-15.53
237.559	-5.88
237.778	-18.79
237.996	-37.75
238.215	13.18
238.433	7.15
238.652	-14.62
238.87	-43.3
239.088	-39.34
239.307	-48.07
239.525	-60.79
239.743	-61.43
239.962	-43.71
240.18	-38.23
240.398	-69.05
240.617	-76.1
240.835	-66.25
241.053	-23.16
241.271	42.51
241.49	55.47
241.708	51.92
241.926	68.55
242.144	23.52
242.363	-52.49
242.581	-93.9
242.799	-66.82
243.017	-38.5
243.235	-50.92
243.453	-31.77
243.672	-29.89
243.89	-7.93
244.108	-15.79
244.326	17.11
244.544	23.98
244.762	34.57
244.98	41.27
245.198	46.51
245.416	17.32
245.634	10.63
245.852	-2.88
246.07	-8.04
246.288	-10.1
246.506	-57.87
246.724	-38.89
246.942	-19.07
247.16	27.61
247.378	34.03
247.596	68.8
247.814	63.04
248.032	33.81
248.25	15.1
248.468	23.55
248.685	29.46
248.903	53.61
249.121	59
249.339	21.85
249.557	-4.78
249.775	0.69
249.992	-76.95
250.21	-71.67
250.428	-43.39
250.646	-73.77
250.863	-97.53
251.081	-49.52
251.299	-44.95
251.517	-30.93
251.734	3.21
251.952	7.89
252.17	2.67
252.387	13.42
252.605	3.28
252.823	12.67
253.04	35.95
253.258	60.3
253.475	63.83
253.693	80.82
253.911	66.65
254.128	65.85
254.346	45.66
254.563	29.01
254.781	1.04
254.998	-25.2
255.216	-32.49
255.433	-9.01
255.651	33.55
255.868	88.62
256.086	111.61
256.303	88.34
256.521	52.03
256.738	26.61
256.956	-31.53
257.173	-62.41
257.39	-70.74
257.608	-85.86
257.825	-55.95
258.043	-13.2
258.26	0.21
258.477	29.72
258.695	31.6
258.912	-7.38
259.129	-3.23
259.346	-47.25
259.564	-105.45
259.781	-113.65
259.998	-31.15
260.216	-12.39
260.433	27.56
260.65	46.68
260.867	45.47
261.084	-7.86
261.302	-25.97
261.519	-26.74
261.736	-58.36
261.953	-73.61
262.17	-10.61
262.387	-46.98
262.604	-99.57
262.822	-99.25
263.039	-73.26
263.256	-148.27
263.473	-87.79
263.69	-43.74
263.907	9.11
264.124	11.55
264.341	18.69
264.558	11.12
264.775	21.62
264.992	6.31
265.209	-2.2
265.426	24.64
265.643	31.01
265.86	45.01
266.077	43.65
266.294	63.93
266.51	29.71
266.727	3.87
266.944	2.14
267.161	-11.78
267.378	-16.45
267.595	0.4
267.812	-27.6
268.028	-49.42
268.245	-21.98
268.462	-42.12
268.679	-55.38
268.896	9.68
269.112	17.4
269.329	6.34
269.546	24.47
269.763	33.19
269.979	17.9
270.196	7.67
270.413	-28.76
270.629	-73.05
270.846	-95.97
271.063	-91.87
271.279	-92.19
271.496	-66.29
271.712	-1.84
271.929	32.87
272.146	30.88
272.362	26.73
272.579	50.17
272.795	37.27
273.012	33.36
273.228	36.45
273.445	0.24
273.661	-22.7
273.878	-87.37
274.094	-72.89
274.311	-109.66
274.527	-22.75
274.744	-17.69
274.96	3.18
275.177	3.96
275.393	24.21
275.609	14.53
275.826	25.89
276.042	10.28
276.259	3.73
276.475	18.86
276.691	19.12
276.908	-1.09
277.124	23.45
277.34	16.92
277.557	-5.72
277.773	-14.38
277.989	-9.62
278.205	-10.7
278.422	1.64
278.638	20.65
278.854	37.52
279.07	26.92
279.286	-0.97
279.503	-30.17
279.719	-40.94
279.935	-63.24
280.151	-52.37
280.367	-11.51
280.583	-12.87
280.799	-27.29
281.016	-56.57
281.232	-26.6
281.448	-25.2
281.664	6.7
281.88	-9.01
282.096	19.03
282.312	42.92
282.528	53.25
282.744	46.43
282.96	48.27
283.176	35.7
283.392	27.42
283.608	17.6
283.824	8.86
284.04	11.82
284.256	30
284.471	8.13
284.687	-0.54
284.903	18.95
285.119	54.96
285.335	25.32
285.551	50.04
285.767	22.28
285.982	-1.01
286.198	-56.74
286.414	-6.47
286.63	6.33
286.846	39.06
287.061	21.45
287.277	49.61
287.493	24.25
287.709	35.05
287.924	24.05
288.14	72.87
288.356	65.65
288.571	85.26
288.787	60
289.003	48.24
289.218	30.78
289.434	-3.41
289.65	-2.17
289.865	-4.89
290.081	25.19
290.296	-1.07
290.512	8.73
290.727	-43.3
290.943	-38.36
291.159	-41.61
291.374	-46.83
291.59	-74.59
291.805	-40.58
292.021	-29.51
292.236	-46.76
292.451	-10.89
292.667	5.53
292.882	16.57
293.098	8.64
293.313	-12.77
293.529	-47.82
293.744	-67.66
293.959	-69.67
294.175	-57.63
294.39	-15.1
294.605	11.04
294.821	43.85
295.036	44.85
295.251	45.48
295.467	6.96
295.682	-13.37
295.897	-77.59
296.112	-91.04
296.328	-86.13
296.543	-67.91
296.758	-75
296.973	-23.06
297.188	28.39
297.404	3.17
297.619	-9.22
297.834	-11.38
298.049	-26.95
298.264	-79.97
298.479	-24.52
298.694	-6.5
298.909	11.72
299.125	18.59
299.34	30.12
299.555	10.86
299.77	20.71
299.985	-31.39
300.2	-78.51
300.415	-82.21
300.63	-41.61
300.845	-50.03
301.06	-41.08
301.275	-11.68
301.49	8.41
301.704	-2.11
301.919	-37.07
302.134	-32.82
302.349	-44.71
302.564	-123.03
302.779	-180.81
302.994	-95.92
303.209	-83.13
303.423	-23.82
303.638	40.07
303.853	8.68
304.068	-3.15
304.283	9.1
304.497	1.31
304.712	-10.18
304.927	8.16
305.142	2.89
305.356	14.09
305.571	7.61
305.786	-2.16
306	-17.45
306.215	-19.53
306.43	-38.67
306.644	-29.02
306.859	11.98
307.074	10.87
307.288	-12.12
307.503	-16.34
307.717	-32.09
307.932	-40.45
308.147	-40.13
308.361	-20.23
308.576	-41.77
308.79	-76.93
309.005	-62.31
309.219	-42.06
309.434	-57.64
309.648	-51.13
309.863	-19.66
310.077	-26.07
310.292	-26.68
310.506	-19.53
310.72	0.59
310.935	11.88
311.149	10.63
311.364	20.09
311.578	45.29
311.792	42.23
312.007	36.65
312.221	22.2
312.435	28.27
312.649	0.82
312.864	57.99
313.078	68.22
313.292	152.34
313.507	131.65
313.721	183.99
313.935	62.91
314.149	42.94
314.363	12.55
314.578	9.25
314.792	5.7
315.006	-15.12
315.22	8.14
315.434	14.35
315.648	25.4
315.862	26.53
316.077	30.95
316.291	7.56
316.505	30.05
316.719	55.9
316.933	-3.6
317.147	-2.99
317.361	-47.42
317.575	-99.09
317.789	-178.6
318.003	-233.5
318.217	-191.6
318.431	-66.81
318.645	1.55
318.859	11.44
319.073	46.33
319.287	37.22
319.5	8.71
319.714	-58.32
319.928	-88.68
320.142	-128.29
320.356	-95.82
320.57	-68.37
320.784	-65.28
320.997	-60.27
321.211	-44.42
321.425	-78.18
321.639	-105.34
321.853	-43.04
322.066	-12.24
322.28	-23.78
322.494	-20.45
322.707	4.07
322.921	-7.33
323.135	-19.04
323.349	6.25
323.562	-5.04
323.776	-30.13
323.989	-36.32
324.203	-59.25
324.417	-86.47
324.63	-102.58
324.844	-94.46
325.057	-85.83
325.271	-52.17
325.485	-19.49
325.698	-2.87
325.912	8.84
326.125	-21.03
326.339	-21.95
326.552	-51.82
326.766	-41.04
326.979	-21.1
327.193	21.29
327.406	3.12
327.619	11.94
327.833	22.8
328.046	-8.65
328.26	-37.92
328.473	-4.63
328.686	-25.66
328.9	-21.44
329.113	-14.01
329.326	-22.85
329.54	-28.4
329.753	-34.82
329.966	-80.37
330.179	-50.86
330.393	-26.92
330.606	-22.85
330.819	2.74
331.032	30.16
331.246	28.71
331.459	57.93
331.672	51.31
331.885	28.9
332.098	-0.46
332.311	3.04
332.525	-67.33
332.738	-21.28
332.951	29
333.164	55.3
333.377	59.4
333.59	79.09
333.803	60.72
334.016	45.33
334.229	42.8
334.442	44.69
334.655	56.88
334.868	59.18
335.081	48.32
335.294	26.15
335.507	15.05
335.72	-19.69
335.933	-32.27
336.146	-40.14
336.359	-35.02
336.572	-82.78
336.785	-86.46
336.997	-60.51
337.21	-35.46
337.423	-44.45
337.636	-22.51
337.849	2
338.062	-7.17
338.274	4.56
338.487	3.75
338.7	12.28
338.913	-34.25
339.125	-68.8
339.338	-132.59
339.551	-102.07
339.763	-58.91
339.976	-7.47
340.189	27.16
340.402	41.2
340.614	25.92
340.827	0.16
341.039	-28.64
341.252	-22.67
341.465	5.18
341.677	9.66
341.89	-11.96
342.102	7.82
342.315	-23
342.527	-71.75
342.74	-62.9
342.952	-22.92
343.165	-17.41
343.377	2.48
343.59	-3.68
343.802	15.37
344.015	29.54
344.227	33.91
344.44	42.88
344.652	43.24
344.864	19.31
345.077	23.88
345.289	24.55
345.502	20.45
345.714	16.45
345.926	24.04
346.139	7.75
346.351	25.88
346.563	35.7
346.775	41.17
346.988	27.12
347.2	16.12
347.412	-34.72
347.624	-60.37
347.837	-73.93
348.049	-28.29
348.261	20.92
348.473	17.89
348.685	5.78
348.897	11.53
349.11	-13.36
349.322	-43.58
349.534	-22.04
349.746	-7.66
349.958	4
350.17	8.91
350.382	19.73
350.594	7.8
350.806	17.94
351.018	9.92
351.23	-5.25
351.442	-62.91
351.654	-61.88
351.866	-71.27
352.078	-71.49
352.29	-43.57
352.502	-3.17
352.714	7.43
352.926	-3.27
353.138	2.11
353.35	-10.47
353.561	-13.88
353.773	-43.07
353.985	-26.22
354.197	-43.15
354.409	-42.26
354.621	-49.59
354.832	-24.39
355.044	-25.9
355.256	-21.25
355.468	-0.98
355.679	-11.51
355.891	-9.56
356.103	-28.68
356.314	-25.88
356.526	-40.06
356.738	-20.95
356.949	-39.57
357.161	-15.28
357.373	-8.54
357.584	-12.06
357.796	4.01
358.008	12.36
358.219	29.47
358.431	20.36
358.642	34.9
358.854	20.43
359.065	6.65
359.277	-32.56
359.488	-37.54
359.7	-70.08
359.911	-77.45
360.123	-53.99
360.334	-62.13
360.546	-77.18
360.757	-75.8
360.969	-61.81
361.18	-49.29
361.391	-2.51
361.603	-4.49
361.814	5.51
362.025	-10.3
362.237	-14.83
362.448	-16.42
362.659	-1.29
362.871	0.55
363.082	8.12
363.293	6.64
363.504	-5.51
363.716	-20.47
363.927	-26.79
364.138	-62.47
364.349	-66.58
364.56	-68.13
364.772	-51.41
364.983	-30.89
365.194	-17.64
365.405	-3.03
365.616	27.43
365.827	26.97
366.038	14.25
366.25	6.34
366.461	-33.29
366.672	-33.47
366.883	-6.14
367.094	-0.13
367.305	-1.69
367.516	10.88
367.727	-18.34
367.938	-40.4
368.149	-50.83
368.36	-31.06
368.571	-24.3
368.781	-31.26
368.992	-39.62
369.203	-45.77
369.414	-71.32
369.625	-86.97
369.836	-68.17
370.047	-85.66
370.258	-82
370.468	-72.06
370.679	-80.96
370.89	-83.44
371.101	-60.33
371.312	-58.87
371.522	-46.84
371.733	-31.38
371.944	-8.71
372.155	4
372.365	2.07
372.576	-5
372.787	-9.99
372.997	-42.84
373.208	-48.57
373.419	-10.85
373.629	-46.39
373.84	-42.81
374.05	-41.55
374.261	-28.9
374.472	-51.85
374.682	9.68
374.893	5.07
375.103	40.42
375.314	28.14
375.524	25.23
375.735	21.52
375.945	34.64
376.156	-2.14
376.366	2.52
376.577	4.34
376.787	-6.27
376.997	1.26
377.208	8.55
377.418	-0.88
377.629	10.41
377.839	6.52
378.049	-1.85
378.26	15.17
378.47	21.4
378.68	9.95
378.89	6.14
379.101	5.15
379.311	-23.98
379.521	-55.76
379.732	-64.39
379.942	-47.7
380.152	-74.4
380.362	-45.65
380.572	-34.79
380.783	-14.98
380.993	-10.4
381.203	1.72
381.413	11.14
381.623	24.24
381.833	14.04
382.043	-0.84
382.253	-1.15
382.463	-4.53
382.674	-16.87
382.884	-27.03
383.094	-24.29
383.304	-22.56
383.514	-18.04
383.724	-2.14
383.934	-12.95
384.144	-20.88
384.353	-26.58
384.563	-23.95
384.773	-24.51
384.983	-21.28
385.193	-0.25
385.403	2.46
385.613	-0.99
385.823	-16.58
386.033	-6.6
386.242	-16.2
386.452	-15.71
386.662	-18.91
386.872	2.94
387.082	-3.93
387.291	-11.22
387.501	-11.36
387.711	-6.14
387.921	-17.55
388.13	-14.41
388.34	3
388.55	-3.93
388.759	-10.05
388.969	-3.64
389.179	-4.21
389.388	-11.48
389.598	-0
389.807	-0.67
390.017	-5.49
390.227	-2.17
390.436	-5.84
390.646	-5.85
390.855	-1.63
391.065	-2
391.274	-5.6
391.484	-4.32
391.693	-5.03
391.903	-5.3
392.112	0.61
392.322	3.44
392.531	8.37
392.74	8.97
392.95	3.8
393.159	-0.02
393.369	-0.36
393.578	-3.51
393.787	-4.43
393.997	-1.61
394.206	-3.11
394.415	-2.08
394.625	-2.87
394.834	-4.03
395.043	-2.11
395.252	0.76
395.462	2.84
395.671	4.39
395.88	4.63
396.089	5.27
396.298	3.62
396.508	1.83
396.717	1.79
396.926	2.34
397.135	1.87
397.344	1.36
397.553	2.73
397.762	3.95
397.971	3.75
398.181	3.6
398.39	3.85
398.599	2.68
398.808	2.17
399.017	3.01
399.226	3.87
399.435	4.76
399.644	5.27
399.853	4.4
400.062	3.91
400.27	3.65
400.479	3.33
400.688	2.3
400.897	2.77
401.106	2.81
401.315	2.43
401.524	2.55
401.733	3.43
401.941	3.92
402.15	3.79
402.359	3.46
402.568	3.57
402.777	3.76
402.985	3.48
403.194	3.39
403.403	3.63
403.612	3.13
403.82	2.73
404.029	2.77
404.238	2.81
404.446	3.08
404.655	3.04
404.864	3.01
405.072	2.68
405.281	2.88
405.489	2.52
405.698	2.51
405.906	2.58
406.115	2.61
406.324	2.56
406.532	2.66
406.741	2.94
406.949	2.84
407.158	2.98
407.366	2.96
407.574	2.97
407.783	2.92
407.991	2.73
408.2	2.79
408.408	2.7
408.617	2.62
408.825	2.45
409.033	2.63
409.242	2.75
409.45	2.82
409.658	2.77
409.867	2.92
410.075	2.84
410.283	2.59
410.491	2.69
410.7	2.61
410.908	2.67
411.116	2.94
411.324	2.97
411.533	2.77
411.741	2.99
411.949	2.93
412.157	2.55
412.365	2.72
412.573	2.8
412.781	2.87
412.99	2.84
413.198	3.21
413.406	3.07
413.614	3.13
413.822	2.86
414.03	2.68
414.238	2.3
414.446	2.46
414.654	2.18
414.862	2.29
415.07	2.52
415.278	2.83
415.486	2.52
415.694	2.65
415.902	2.64
416.109	2.5
416.317	2.41
416.525	2.36
416.733	2.34
416.941	2.47
417.149	2.43
417.357	2.49
417.564	2.71
417.772	2.95
417.98	2.81
418.188	2.82
418.395	2.72
418.603	2.85
418.811	2.47
419.019	2.4
419.226	2.78
419.434	2.92
419.642	2.62
419.849	2.86
420.057	2.88
420.265	2.6
420.472	2.42
420.68	2.36
420.887	2.26
421.095	2.34
421.302	2.27
421.51	2.39
421.717	2.61
421.925	2.67
422.132	2.54
422.34	2.35
422.547	2.25
422.755	2
422.962	1.82
423.17	1.75
423.377	2.02
423.585	1.97
423.792	2.01
423.999	1.99
424.207	2.03
424.414	2.06
424.621	2.1
424.829	2.16
425.036	2.34
425.243	2.41
425.451	2.35
425.658	2.15
425.865	2.36
426.072	2.3
426.28	2.66
426.487	2.44
426.694	2.68
426.901	2.45
427.108	2.44
427.315	2.12
427.523	2.46
427.73	2.31
427.937	2.34
428.144	2.05
428.351	2.06
428.558	2.19
428.765	2.19
428.972	2.12
429.179	2.42
429.386	2.6
429.593	2.23
429.8	2.21
430.007	2.35
430.214	2.43
430.421	2.14
430.628	2.03
430.835	1.93
431.042	2.11
431.249	2.09
431.456	2.17
431.662	2.37
431.869	2.55
432.076	2.54
432.283	2.62
432.49	2.69
432.697	2.7
432.903	2.45
433.11	2.26
433.317	2.3
433.524	2.43
433.73	2.38
433.937	2.74
434.144	2.7
434.35	2.66
434.557	2.37
434.764	2.47
434.97	2.34
435.177	2.44
435.384	2.32
435.59	2.54
435.797	2.66
436.003	2.71
436.21	2.74
436.416	2.91
436.623	2.87
436.829	2.9
437.036	2.92
437.242	3
437.449	2.8
437.655	2.81
437.862	2.7
438.068	2.61
438.275	2.69
438.481	3.04
438.687	2.97
438.894	2.96
439.1	3.01
439.307	3.04
439.513	2.85
439.719	2.95
439.926	3.06
440.132	3.07
440.338	2.92
440.544	3.07
440.751	2.97
440.957	3.05
441.163	2.97
441.369	3.01
441.575	2.8
441.782	2.85
441.988	2.73
442.194	2.76
442.4	2.79
442.606	3.07
442.812	3.18
443.018	3.29
443.224	3.34
443.431	3.51
443.637	3.18
443.843	3.06
444.049	3.02
444.255	3.05
444.461	2.97
444.667	2.96
444.873	3.15
445.079	3.17
445.284	3.19
445.49	3
445.696	2.97
445.902	2.79
446.108	2.63
446.314	2.53
446.52	2.57
446.726	2.84
446.931	2.82
447.137	2.95
447.343	2.97
447.549	2.92
447.755	2.79
447.96	2.84
448.166	2.71
448.372	2.67
448.578	2.71
448.783	2.67
448.989	2.76
449.195	3
449.4	3.09
449.606	3.1
449.812	3.01
450.017	3.01
450.223	2.85
450.428	2.73
450.634	2.91
450.84	3.08
451.045	3.01
451.251	2.98
451.456	3.31
451.662	3.26
451.867	3.34
452.073	3.31
452.278	3.47
452.483	3.43
452.689	3.3
452.894	3.35
453.1	3.42
453.305	3.27
453.51	3.17
453.716	3.22
453.921	3.16
454.127	3.04
454.332	3
454.537	2.91
454.742	2.87
454.948	2.83
455.153	3.01
455.358	3.14
455.563	3.31
455.769	3.4
455.974	3.36
456.179	3.17
456.384	3.13
456.589	3.07
456.795	2.86
457	2.88
457.205	3.17
457.41	3.21
457.615	3.17
457.82	3.27
458.025	3.31
458.23	3.1
458.435	3.13
458.64	3.04
458.845	3.22
459.05	3.2
459.255	3.25
459.46	3.16
459.665	3.26
459.87	3.24
460.075	3.2
460.28	3.19
460.485	3.29
460.69	3.28
460.895	3.03
461.099	3.08
461.304	3.22
461.509	3.18
461.714	3.07
461.919	3.26
462.123	3.14
462.328	3.19
462.533	3.03
462.738	3.2
462.942	3.14
463.147	3.3
463.352	3.31
463.556	3.46
463.761	3.45
463.966	3.51
464.17	3.43
464.375	3.25
464.58	3.17
464.784	3.05
464.989	2.98
465.193	2.94
465.398	3
465.602	3.11
465.807	3.13
466.011	3.2
466.216	3.35
466.42	3.38
466.625	3.42
466.829	3.59
467.034	3.67
467.238	3.82
467.443	3.83
467.647	3.71
467.851	3.64
468.056	3.6
468.26	3.39
468.464	3.37
468.669	3.55
468.873	3.78
469.077	3.71
469.282	3.78
469.486	3.84
469.69	3.83
469.894	3.55
470.099	3.64
470.303	3.72
470.507	3.6
470.711	3.42
470.915	3.49
471.119	3.43
471.324	3.34
471.528	3.41
471.732	3.53
471.936	3.52
472.14	3.67
472.344	3.66
472.548	3.66
472.752	3.87
472.956	4.12
473.16	4.04
473.364	4.01
473.568	4.03
473.772	3.88
473.976	3.72
474.18	3.69
474.384	3.75
474.588	3.75
474.792	3.68
474.995	3.74
475.199	3.84
475.403	3.92
475.607	3.98
475.811	3.91
476.015	3.95
476.218	3.94
476.422	3.81
476.626	3.85
476.83	4.02
477.033	3.91
477.237	3.78
477.441	3.91
477.644	3.81
477.848	3.71
478.052	3.66
478.255	3.67
478.459	3.63
478.663	3.79
478.866	3.9
479.07	3.98
479.273	4.18
479.477	4.18
479.681	4.14
479.884	4.06
480.088	4.04
480.291	3.93
480.495	4
480.698	4.01
480.901	4.04
481.105	4.16
481.308	4.15
481.512	4.04
481.715	4.02
481.919	4.11
482.122	4.1
482.325	4.14
482.529	4.19
482.732	4.19
482.935	4.08
483.138	4.01
483.342	4.07
483.545	4.2
483.748	4.26
483.952	4.3
484.155	4.49
484.358	4.48
484.561	4.45
484.764	4.41
484.967	4.46
485.171	4.45
485.374	4.42
485.577	4.46
485.78	4.52
485.983	4.56
486.186	4.48
486.389	4.42
486.592	4.39
486.795	4.46
486.998	4.38
487.201	4.45
487.404	4.62
487.607	4.7
487.81	4.68
488.013	4.83
488.216	4.78
488.419	4.77
488.622	4.75
488.825	4.74
489.028	4.69
489.231	4.81
489.433	4.75
489.636	4.77
489.839	4.78
490.042	4.72
490.245	4.62
490.447	4.8
490.65	4.87
490.853	4.97
491.056	5.16
491.258	5.31
491.461	5.31
491.664	5.46
491.866	5.5
492.069	5.61
492.272	5.67
492.474	5.73
492.677	5.85
492.879	5.92
493.082	6.04
493.285	6.25
493.487	6.31
493.69	6.29
493.892	6.31
494.095	6.31
494.297	6.28
494.5	6.37
494.702	6.47
494.905	6.66
495.107	6.72
495.309	6.84
495.512	7.02
495.714	7.12
495.917	7.15
496.119	7.26
496.321	7.4
496.524	7.52
496.726	7.62
496.928	7.76
497.13	7.82
497.333	7.91
497.535	7.93
497.737	7.94
497.939	8.04
498.142	8.16
498.344	8.14
498.546	8.13
498.748	8.23
498.95	8.39
499.152	8.39
499.355	8.53
499.557	8.67
499.759	8.87
499.961	8.82
500.163	8.98
500.365	9.01
500.567	9.18
500.769	9.08
500.971	9.15
501.173	9.15
501.375	9.28
501.577	9.14
501.779	9.22
501.981	9.21
502.183	9.17
502.385	9.08
502.587	9.1
502.788	9.16
502.99	9.21
503.192	9.36
503.394	9.36
503.596	9.36
503.798	9.37
503.999	9.38
504.201	9.3
504.403	9.3
504.605	9.35
504.806	9.28
505.008	9.19
505.21	9.23
505.411	9.24
505.613	9.15
505.815	9.06
506.016	9.06
506.218	9.08
506.42	8.97
506.621	8.98
506.823	8.96
507.024	8.92
507.226	8.81
507.427	8.82
507.629	8.84
507.83	8.9
508.032	8.82
508.233	8.86
508.435	8.83
508.636	8.78
508.838	8.69
509.039	8.71
509.24	8.61
509.442	8.62
509.643	8.51
509.845	8.47
510.046	8.46
510.247	8.44
510.448	8.36
510.65	8.34
510.851	8.39
511.052	8.32
511.254	8.24
511.455	8.32
511.656	8.29
511.857	8.25
512.058	8.24
512.26	8.2
512.461	8.08
512.662	8.14
512.863	8.02
513.064	7.93
513.265	7.93
513.466	7.89
513.667	7.76
513.868	7.72
514.069	7.77
514.27	7.81
514.471	7.71
514.672	7.72
514.873	7.8
515.074	7.8
515.275	7.65
515.476	7.74
515.677	7.76
515.878	7.78
516.079	7.7
516.28	7.7
516.481	7.69
516.682	7.65
516.882	7.46
517.083	7.41
517.284	7.35
517.485	7.24
517.686	7.2
517.886	7.18
518.087	7.32
518.288	7.31
518.488	7.3
518.689	7.28
518.89	7.29
519.091	7.15
519.291	7.19
519.492	7.22
519.692	7.25
519.893	7.29
520.094	7.27
520.294	7.21
520.495	7.14
520.695	7.16
520.896	7.12
521.096	7.17
521.297	7.2
521.497	7.22
521.698	7.08
521.898	7.04
522.099	6.97
522.299	7.01
522.499	6.96
522.7	7.02
522.9	7.02
523.101	7.08
523.301	7.06
523.501	7.06
523.702	7.03
523.902	7.08
524.102	7.1
524.302	7
524.503	7.07
524.703	7.05
524.903	7.05
525.103	6.95
525.304	7.04
525.504	7.07
525.704	7.19
525.904	7.12
526.104	7.1
526.304	7.06
526.504	7.02
526.705	6.91
526.905	7.02
527.105	7.05
527.305	7.02
527.505	6.92
527.705	6.96
527.905	6.95
528.105	6.9
528.305	6.86
528.505	6.97
528.705	7.02
528.905	6.97
529.105	6.99
529.304	7.11
529.504	7.16
529.704	7.1
529.904	7.1
530.104	7.13
530.304	7.13
530.503	7.06
530.703	7.01
530.903	6.97
531.103	7
531.303	6.91
531.502	6.93
531.702	7.03
531.902	7.09
532.101	7.02
532.301	7.06
532.501	7.03
532.7	7
532.9	7
533.1	7.02
533.299	7.05
533.499	7.07
533.698	6.99
533.898	6.94
534.097	6.98
534.297	7.03
534.496	6.98
534.696	7.08
534.895	7.22
535.095	7.25
535.294	7.16
535.494	7.15
535.693	7.13
535.892	7.05
536.092	6.97
536.291	6.99
536.491	7.06
536.69	7.11
536.889	7.03
537.088	7.04
537.288	7.07
537.487	7.09
537.686	7.06
537.886	7.18
538.085	7.23
538.284	7.34
538.483	7.3
538.682	7.32
538.882	7.27
539.081	7.34
539.28	7.2
539.479	7.24
539.678	7.23
539.877	7.37
540.076	7.3
540.275	7.33
540.474	7.39
540.673	7.38
540.872	7.27
541.071	7.33
541.27	7.37
541.469	7.37
541.668	7.38
541.867	7.39
542.066	7.43
542.265	7.39
542.464	7.33
542.663	7.32
542.862	7.44
543.06	7.43
543.259	7.46
543.458	7.51
543.657	7.59
543.856	7.53
544.054	7.51
544.253	7.47
544.452	7.42
544.651	7.47
544.849	7.44
545.048	7.48
545.247	7.51
545.445	7.58
545.644	7.54
545.843	7.54
546.041	7.57
546.24	7.65
546.438	7.68
546.637	7.72
546.836	7.82
547.034	7.87
547.233	7.87
547.431	7.89
547.63	7.9
547.828	7.9
548.027	7.89
548.225	7.87
548.423	7.84
548.622	7.91
548.82	7.89
549.019	7.89
549.217	8.02
549.415	8.06
549.614	8.14
549.812	8.1
550.01	8.1
550.209	8.09
550.407	8.12
550.605	8.04
550.803	8.15
551.002	8.23
551.2	8.25
551.398	8.34
551.596	8.5
551.794	8.5
551.993	8.51
552.191	8.55
552.389	8.62
552.587	8.64
552.785	8.67
552.983	8.74
553.181	8.79
553.379	8.79
553.577	8.73
553.775	8.84
553.973	8.84
554.171	8.92
554.369	8.9
554.567	9
554.765	8.97
554.963	9.03
555.161	8.98
555.359	9.09
555.557	9.13
555.755	9.26
555.952	9.36
556.15	9.42
556.348	9.49
556.546	9.58
556.744	9.57
556.941	9.56
557.139	9.62
557.337	9.6
557.535	9.57
557.732	9.67
557.93	9.86
558.128	9.95
558.325	10.03
558.523	10.06
558.721	10.11
558.918	10.02
559.116	10.06
559.313	10.11
559.511	10.28
559.708	10.28
559.906	10.39
560.104	10.36
560.301	10.41
560.498	10.41
560.696	10.51
560.893	10.61
561.091	10.7
561.288	10.87
561.486	10.91
561.683	11
561.88	11.01
562.078	11.12
562.275	11.05
562.473	11.1
562.67	11.2
562.867	11.3
563.064	11.39
563.262	11.43
563.459	11.52
563.656	11.55
563.853	11.52
564.051	11.59
564.248	11.75
564.445	11.82
564.642	11.91
564.839	12.05
565.036	12.14
565.234	12.24
565.431	12.31
565.628	12.36
565.825	12.51
566.022	12.55
566.219	12.59
566.416	12.62
566.613	12.63
566.81	12.63
567.007	12.55
567.204	12.54
567.401	12.58
567.598	12.66
567.795	12.64
567.991	12.71
568.188	12.79
568.385	12.89
568.582	12.95
568.779	13.08
568.976	13.22
569.172	13.32
569.369	13.22
569.566	13.25
569.763	13.24
569.96	13.23
570.156	13.19
570.353	13.3
570.55	13.37
570.746	13.39
570.943	13.42
571.14	13.51
571.336	13.59
571.533	13.61
571.729	13.57
571.926	13.61
572.123	13.66
572.319	13.69
572.516	13.64
572.712	13.76
572.909	13.78
573.105	13.87
573.302	13.86
573.498	14.03
573.695	14
573.891	14.08
574.087	14.06
574.284	14.02
574.48	13.88
574.677	13.89
574.873	13.81
575.069	13.88
575.266	14.05
575.462	14.05
575.658	14.16
575.854	14.3
576.051	14.26
576.247	14.14
576.443	14.14
576.639	14.03
576.835	13.94
577.032	13.84
577.228	13.96
577.424	14.07
577.62	14.04
577.816	14.06
578.012	14.13
578.208	14.05
578.404	14.06
578.6	14.13
578.796	14.13
578.993	14.11
579.189	14.04
579.384	13.91
579.58	13.8
579.776	13.78
579.972	13.73
580.168	13.68
580.364	13.69
580.56	13.76
580.756	13.73
580.952	13.72
581.148	13.77
581.343	13.77
581.539	13.85
581.735	13.91
581.931	13.94
582.127	14.02
582.322	13.95
582.518	13.9
582.714	13.84
582.909	13.82
583.105	13.78
583.301	13.81
583.496	13.77
583.692	13.71
583.888	13.62
584.083	13.67
584.279	13.66
584.474	13.62
584.67	13.66
584.866	13.75
585.061	13.62
585.257	13.73
585.452	13.75
585.648	13.74
585.843	13.74
586.039	13.82
586.234	13.75
586.429	13.65
586.625	13.72
586.82	13.73
587.015	13.66
587.211	13.55
587.406	13.63
587.601	13.46
587.797	13.35
587.992	13.32
588.187	13.43
588.383	13.38
588.578	13.45
588.773	13.51
588.968	13.6
589.163	13.6
589.359	13.63
589.554	13.65
589.749	13.66
589.944	13.69
590.139	13.67
590.334	13.75
590.529	13.75
590.724	13.78
590.919	13.85
591.114	13.87
591.309	13.93
591.504	14.02
591.699	13.95
591.894	13.95
592.089	14.05
592.284	14.02
592.479	14.1
592.674	14.15
592.869	14.12
593.064	14.2
593.259	14.34
593.454	14.35
593.648	14.42
593.843	14.47
594.038	14.44
594.233	14.37
594.428	14.37
594.622	14.42
594.817	14.56
595.012	14.56
595.206	14.58
595.401	14.62
595.596	14.68
595.79	14.77
595.985	14.93
596.18	15.01
596.374	15.1
596.569	15.12
596.763	14.99
596.958	14.88
597.153	14.97
597.347	14.94
597.542	15.06
597.736	15.2
597.931	15.34
598.125	15.4
598.319	15.58
598.514	15.58
598.708	15.6
598.903	15.6
599.097	15.59
599.291	15.65
599.486	15.71
599.68	15.78
599.874	15.97
600.069	16.05
600.263	15.99
600.457	16.08
600.651	16.07
600.846	16.01
601.04	16.03
601.234	16.07
601.428	16.19
601.622	16.26
601.817	16.32
602.011	16.34
602.205	16.45
602.399	16.35
602.593	16.38
602.787	16.41
602.981	16.43
603.175	16.44
603.369	16.39
603.563	16.46
603.757	16.43
603.951	16.41
604.145	16.34
604.339	16.42
604.533	16.29
604.727	16.25
604.921	16.24
605.115	16.22
605.309	16.28
605.502	16.28
605.696	16.22
605.89	16.14
606.084	16.15
606.278	16.05
606.471	15.97
606.665	15.97
606.859	15.97
607.053	15.93
607.246	15.87
607.44	15.87
607.634	15.8
607.827	15.87
608.021	15.74
608.214	15.71
608.408	15.63
608.602	15.61
608.795	15.48
608.989	15.46
609.182	15.36
609.376	15.38
609.569	15.33
609.763	15.21
609.956	15.23
610.15	15.18
610.343	15.14
610.537	15.08
610.73	15.12
610.923	15.08
611.117	15.06
611.31	15
611.504	14.95
611.697	14.86
611.89	14.78
612.083	14.72
612.277	14.73
612.47	14.7
612.663	14.68
612.856	14.59
613.05	14.45
613.243	14.34
613.436	14.16
613.629	14.04
613.822	13.95
614.015	13.94
614.209	13.71
614.402	13.74
614.595	13.75
614.788	13.71
614.981	13.6
615.174	13.58
615.367	13.52
615.56	13.39
615.753	13.37
615.946	13.28
616.139	13.34
616.332	13.5
616.525	13.51
616.718	13.53
616.911	13.53
617.103	13.53
617.296	13.35
617.489	13.28
617.682	13.16
617.875	13.14
618.067	13.01
618.26	12.87
618.453	12.92
618.646	12.88
618.838	12.88
619.031	13
619.224	13.03
619.417	12.95
619.609	13.01
619.802	12.9
619.994	12.84
620.187	12.83
620.38	12.8
620.572	12.7
620.765	12.76
620.957	12.6
621.15	12.56
621.342	12.47
621.535	12.58
621.727	12.59
621.92	12.57
622.112	12.52
622.305	12.58
622.497	12.4
622.69	12.34
622.882	12.45
623.074	12.53
623.267	12.46
623.459	12.41
623.651	12.33
623.844	12.28
624.036	12.21
624.228	12.19
624.42	12.22
624.613	12.33
624.805	12.25
624.997	12.21
625.189	12.17
625.381	12.26
625.574	12.16
625.766	12.1
625.958	12.15
626.15	12.29
626.342	12.19
626.534	12.24
626.726	12.23
626.918	12.15
627.11	12.04
627.302	12.08
627.494	12
627.686	12.05
627.878	12.01
628.07	11.94
628.262	11.82
628.454	11.82
628.646	11.8
628.838	11.8
629.029	11.8
629.221	11.94
629.413	11.87
629.605	11.8
629.797	11.76
629.989	11.78
630.18	11.65
630.372	11.62
630.564	11.61
630.755	11.72
630.947	11.74
631.139	11.58
631.33	11.48
631.522	11.62
631.714	11.53
631.905	11.48
632.097	11.51
632.289	11.6
632.48	11.49
632.672	11.37
632.863	11.24
633.055	11.26
633.246	11.18
633.438	11.03
633.629	11.02
633.821	11.1
634.012	11.14
634.203	11.09
634.395	11.27
634.586	11.33
634.777	11.21
634.969	11.2
635.16	11.25
635.351	11.1
635.543	11.03
635.734	11.14
635.925	11.15
636.117	11.15
636.308	11.15
636.499	11.13
636.69	10.97
636.881	10.86
637.073	10.85
637.264	10.76
637.455	10.8
637.646	11
637.837	11.13
638.028	11.12
638.219	11.31
638.41	11.19
638.601	10.99
638.792	10.95
638.983	10.92
639.174	10.69
639.365	10.77
639.556	10.82
639.747	10.74
639.938	10.82
640.129	10.93
640.32	10.85
640.511	10.95
640.701	11.12
640.892	11.01
641.083	11.07
641.274	11.13
641.465	11.11
641.655	10.9
641.846	10.91
642.037	10.8
642.228	10.72
642.418	10.68
642.609	10.69
642.8	10.72
642.99	10.7
643.181	10.82
643.372	10.85
643.562	10.9
643.753	10.85
643.943	10.84
644.134	10.7
644.324	10.64
644.515	10.53
644.705	10.64
644.896	10.63
645.086	10.67
645.277	10.62
645.467	10.71
645.658	10.57
645.848	10.59
646.038	10.57
646.229	10.52
646.419	10.41
646.61	10.47
646.8	10.4
646.99	10.3
647.18	10.26
647.371	10.27
647.561	10.18
647.751	10.22
647.941	10.21
648.132	10.27
648.322	10.33
648.512	10.41
648.702	10.32
648.892	10.36
649.082	10.35
649.272	10.17
649.462	10.06
649.653	10.03
649.843	10.03
650.033	10.04
650.223	10.09
650.413	10.09
650.603	10.13
650.793	10.09
650.983	10.05
651.172	10.07
651.362	9.98
651.552	9.89
651.742	9.78
651.932	9.73
652.122	9.72
652.312	9.83
652.502	9.75
652.691	9.88
652.881	9.78
653.071	9.73
653.261	9.53
653.45	9.55
653.64	9.46
653.83	9.42
654.019	9.33
654.209	9.36
654.399	9.37
654.588	9.31
654.778	9.17
654.968	9.14
655.157	9.07
655.347	8.92
655.536	8.81
655.726	8.78
655.915	8.64
656.105	8.58
656.294	8.52
656.484	8.34
656.673	8.25
656.863	8.23
657.052	8.12
657.241	8.02
657.431	7.99
657.62	7.88
657.809	7.64
657.999	7.51
658.188	7.36
658.377	7.17
658.567	7.16
658.756	7.1
658.945	6.96
659.134	6.88
659.324	6.89
659.513	6.79
659.702	6.73
659.891	6.67
660.08	6.55
660.269	6.52
660.458	6.34
660.648	6.28
660.837	6.24
661.026	6.28
661.215	6.15
661.404	6.1
661.593	6.03
661.782	5.9
661.971	5.83
662.16	5.71
662.349	5.66
662.538	5.54
662.726	5.52
662.915	5.41
663.104	5.4
663.293	5.45
663.482	5.52
663.671	5.43
663.86	5.35
664.048	5.29
664.237	5.2
664.426	5.04
664.615	5.08
664.803	5.06
664.992	4.97
665.181	4.93
665.369	4.86
665.558	4.73
665.747	4.69
665.935	4.72
666.124	4.71
666.312	4.78
666.501	4.83
666.69	4.78
666.878	4.76
667.067	4.59
667.255	4.62
667.444	4.95
667.632	5.06
667.82	5.12
668.009	5.2
668.197	5.06
668.386	4.73
668.574	4.74
668.762	4.59
668.951	4.52
669.139	4.57
669.327	4.5
669.516	4.58
669.704	4.55
669.892	4.73
670.08	4.77
670.269	4.68
670.457	4.51
670.645	4.45
670.833	4.5
671.021	4.46
671.21	4.52
671.398	4.7
671.586	4.75
671.774	4.52
671.962	4.49
672.15	4.54
672.338	4.41
672.526	4.52
672.714	4.52
672.902	4.56
673.09	4.68
673.278	4.86
673.466	4.84
673.654	5.07
673.842	4.98
674.03	5.03
674.218	4.79
674.405	4.84
674.593	4.7
674.781	4.93
674.969	4.84
675.157	5.02
675.344	5.05
675.532	5.06
675.72	5.13
675.908	5.12
676.095	5.12
676.283	5.14
676.471	5.33
676.658	5.29
676.846	5.3
677.033	5.33
677.221	5.43
677.409	5.19
677.596	5.29
677.784	5.3
677.971	5.24
678.159	5.2
678.346	5.33
678.534	5.36
678.721	5.68
678.909	5.7
679.096	5.7
679.283	5.93
679.471	5.94
679.658	5.78
679.846	6.04
680.033	6.28
680.22	6.23
680.408	6.2
680.595	6.35
680.782	6.21
680.969	6.15
681.157	6.1
681.344	6.13
681.531	6.04
681.718	6.14
681.905	6.17
682.093	6.26
682.28	6.52
682.467	6.77
682.654	6.79
682.841	6.97
683.028	7.19
683.215	7.22
683.402	7.12
683.589	7.32
683.776	7.35
683.963	7.28
684.15	7.46
684.337	7.56
684.524	7.73
684.711	7.96
684.898	7.99
685.085	7.98
685.271	8.35
685.458	8.45
685.645	8.43
685.832	8.82
686.019	9.01
686.205	8.99
686.392	9.18
686.579	9.4
686.766	9.55
686.952	9.66
687.139	10.17
687.326	10.24
687.512	10.44
687.699	10.68
687.886	10.93
688.072	10.86
688.259	11.23
688.445	11.57
688.632	11.67
688.818	12.22
689.005	12.58
689.191	12.85
689.378	13.48
689.564	14.07
689.751	14.18
689.937	14.65
690.124	15.21
690.31	15.08
690.496	15.4
690.683	15.95
690.869	16.25
691.055	16.51
691.242	17.38
691.428	17.87
691.614	18.39
691.8	19.04
691.987	19.68
692.173	20.1
692.359	20.74
692.545	21.39
692.731	21.79
692.918	22.35
693.104	22.78
693.29	23.4
693.476	23.99
693.662	24.77
693.848	25.25
694.034	25.97
694.22	26.42
694.406	26.92
694.592	27.61
694.778	28.44
694.964	29.13
695.15	30
695.336	30.71
695.522	31.66
695.708	32.3
695.894	33.29
696.08	34.1
696.265	34.69
696.451	35.25
696.637	36.14
696.823	36.55
697.009	36.96
697.194	37.79
697.38	38.32
697.566	38.87
697.751	39.9
697.937	40.95
698.123	41.81
698.308	42.73
698.494	43.48
698.68	44.07
698.865	44.68
699.051	45.37
699.236	46.01
699.422	46.83
699.607	47.22
699.793	47.79
699.978	48.11
700.164	48.65
700.349	49.33
700.535	50.12
700.72	50.62
700.906	51.71
701.091	52.22
701.276	52.66
701.462	53.64
701.647	54.87
701.832	55.24
702.018	55.93
702.203	56.42
702.388	56.54
702.573	56.89
702.759	57.86
702.944	58.38
703.129	58.84
703.314	59.52
703.499	59.76
703.684	60
703.87	61.2
704.055	62.16
704.24	62.64
704.425	63.43
704.61	63.78
704.795	63.64
704.98	63.74
705.165	63.72
705.35	64.03
705.535	64.75
705.72	65.28
705.905	66.09
706.09	67.17
706.275	67.67
706.459	67.8
706.644	68.15
706.829	68.33
707.014	68.39
707.199	68.59
707.384	69.02
707.568	69.08
707.753	69.8
707.938	70.06
708.123	70.53
708.307	70.76
708.492	71.28
708.677	71.14
708.861	71.51
709.046	71.43
709.231	72.29
709.415	72.96
709.6	73.03
709.784	72.93
709.969	73.51
710.153	73.18
710.338	72.97
710.522	73.34
710.707	74.1
710.891	74.15
711.076	74.27
711.26	74.25
711.445	74.74
711.629	74.76
711.813	74.82
711.998	75.72
712.182	75.96
712.366	76.39
712.551	77.06
712.735	77.34
712.919	76.83
713.103	77.17
713.288	76.79
713.472	76.41
713.656	77.47
713.84	77.65
714.024	78.17
714.208	78.23
714.393	78.91
714.577	78.4
714.761	78.56
714.945	78.6
715.129	78.96
715.313	78.81
715.497	78.8
715.681	79.6
715.865	79.68
716.049	79.97
716.233	79.82
716.417	80.09
716.601	79.92
716.785	79.86
716.968	79.85
717.152	80.39
717.336	80.71
717.52	80.39
717.704	80.71
717.888	81.16
718.071	81.28
718.255	81.37
718.439	81.39
718.622	81.67
718.806	81.57
718.99	81.04
719.174	81.03
719.357	81.69
719.541	81.6
719.724	81.58
719.908	82.67
720.092	83.11
720.275	83.27
720.459	83.48
720.642	83.24
720.826	82.56
721.009	82.23
721.193	81.43
721.376	81.43
721.559	82.23
721.743	82.96
721.926	82.96
722.11	84
722.293	83.52
722.476	82.75
722.66	82.71
722.843	82.66
723.026	81.8
723.21	82.59
723.393	83.59
723.576	83.3
723.759	82.9
723.942	83.47
724.126	83.06
724.309	82.7
724.492	82.4
724.675	82.86
724.858	83.4
725.041	83.75
725.224	83.93
725.407	83.82
725.59	84.26
725.774	83.64
725.957	82.83
726.14	82.89
726.322	83.44
726.505	82.82
726.688	83.24
726.871	83.8
727.054	83.96
727.237	83.89
727.42	84.74
727.603	84.65
727.786	84.57
727.968	84.59
728.151	84.69
728.334	84.38
728.517	84.09
728.699	84.86
728.882	84.27
729.065	85.25
729.248	85.8
729.43	86.08
729.613	86.42
729.796	87.76
729.978	87.01
730.161	86.59
730.343	86.85
730.526	86.66
730.708	85.35
730.891	85.55
731.073	85.18
731.256	84.43
731.438	83.93
731.621	84.67
731.803	84.57
731.986	84.73
732.168	84.97
732.35	85.53
732.533	85.07
732.715	84.97
732.898	85.8
733.08	85.83
733.262	86.18
733.444	86.07
733.627	86.06
733.809	86.53
733.991	87.96
734.173	86.7
734.355	87.57
734.538	88.11
734.72	87.25
734.902	86.51
735.084	87.64
735.266	87.58
735.448	87.47
735.63	87.17
735.812	86.91
735.994	87.95
736.176	88.05
736.358	87.67
736.54	88.99
736.722	88.72
736.904	87.11
737.086	86.81
737.268	87.9
737.45	87.61
737.632	87.71
737.814	87.26
737.995	87.55
738.177	86.93
738.359	85.5
738.541	86.19
738.723	87.62
738.904	87.77
739.086	88.44
739.268	89.11
739.449	89.38
739.631	88.44
739.813	88.94
739.994	88.17
740.176	88.83
740.358	88.01
740.539	88.92
740.721	88.58
740.902	90
741.084	88.82
741.265	89.06
741.447	89.04
741.628	88.83
741.81	87.05
741.991	88.13
742.172	88.94
742.354	89.84
742.535	90
742.717	90.74
742.898	90.48
743.079	90.67
743.261	89.62
743.442	88.71
743.623	89.31
743.804	89.58
743.986	89.8
744.167	88.3
744.348	88.35
744.529	88.25
744.71	88.26
744.891	86.18
745.073	86.71
745.254	86.63
745.435	85.71
745.616	85.21
745.797	86.21
745.978	85.87
746.159	86.28
746.34	85.19
746.521	86.28
746.702	85.38
746.883	86.33
747.064	86.04
747.245	87.45
747.426	86.59
747.606	87.15
747.787	87.36
747.968	87.62
748.149	88.55
748.33	88.21
748.51	88.33
748.691	87.45
748.872	88.27
749.053	87.22
749.233	87.31
749.414	87.55
749.595	87.58
749.775	86
749.956	85.43
750.137	84.46
750.317	84.89
750.498	86.39
750.678	87.46
750.859	87.33
751.04	88.65
751.22	87
751.4	85.52
751.581	84.03
751.761	83.91
751.942	84.78
752.122	84.69
752.303	83.33
752.483	83.73
752.663	83.99
752.844	82.41
753.024	85.06
753.204	86.51
753.385	85.71
753.565	85.99
753.745	86.54
753.925	85.45
754.106	84.39
754.286	85.36
754.466	85.09
754.646	85.21
754.826	83.29
755.006	82.73
755.187	83.59
755.367	84.42
755.547	84.97
755.727	87.94
755.907	90.24
756.087	90.43
756.267	89.09
756.447	87.69
756.627	84.19
756.807	84.33
756.987	83.18
757.167	84.82
757.346	85.43
757.526	86.24
757.706	86.15
757.886	87.25
758.066	87.1
758.246	89.07
758.425	89.93
758.605	88.24
758.785	87.7
758.965	86.64
759.144	83.19
759.324	82.19
759.504	83.05
759.683	81.52
759.863	80.4
760.043	80.87
760.222	81.36
760.402	81.31
760.581	83.12
760.761	85.42
760.94	84.61
761.12	86.21
761.299	86.39
761.479	86.16
761.658	83.86
761.838	84.33
762.017	83.74
762.197	83.4
762.376	83.6
762.555	85.28
762.735	87.12
762.914	84.85
763.093	85.62
763.273	84.29
763.452	83.61
763.631	83.01
763.81	83.16
763.99	82.02
764.169	82.27
764.348	81.75
764.527	80.41
764.706	82.23
764.885	84.74
765.064	83.54
765.243	83.58
765.423	84.35
765.602	84.02
765.781	79.93
765.96	80.12
766.139	79.73
766.318	80.75
766.497	78.94
766.676	81.3
766.854	83.87
767.033	84.13
767.212	83.17
767.391	84.9
767.57	85.98
767.749	84.41
767.928	85.1
768.106	83.01
768.285	81.71
768.464	80.33
768.643	80.13
768.821	79.64
769	83.76
769.179	84.96
769.357	83.87
769.536	83.24
769.715	83.93
769.893	84.59
770.072	83.73
770.25	83.78
770.429	85.06
770.607	84.5
770.786	81.25
770.964	81.46
771.143	81.35
771.321	81.72
771.5	83.07
771.678	82.58
771.857	82.24
772.035	84.37
772.213	83.09
772.392	80.47
772.57	83.71
772.748	83.8
772.927	81.56
773.105	82.84
773.283	84.45
773.461	83.15
773.64	84.07
773.818	83.56
773.996	83.2
774.174	81.73
774.352	79.44
774.531	76.09
774.709	78.75
774.887	76.91
775.065	76.03
775.243	75.39
775.421	77.89
775.599	77.99
775.777	76.7
775.955	75.33
776.133	76.32
776.311	75.26
776.489	72.86
776.667	74.6
776.844	77.66
777.022	76.97
777.2	76.35
777.378	78.6
777.556	78.4
777.734	79.2
777.911	82.76
778.089	83.66
778.267	81.98
778.445	81.34
778.622	79.55
778.8	76.75
778.978	80.06
779.155	80.11
779.333	82.05
779.511	81.41
779.688	82.54
779.866	75.41
780.043	70.7
780.221	70.53
780.398	70.96
780.576	72.87
780.753	76.88
780.931	78.21
781.108	77.56
781.286	79.67
781.463	73.6
781.64	69.95
781.818	73.17
781.995	76.01
782.172	73.64
782.35	75.39
782.527	80.76
782.704	79.3
782.882	77.75
783.059	77.03
783.236	80.43
783.413	81.58
783.59	81.95
783.768	76.49
783.945	78.44
784.122	76.52
784.299	73.81
784.476	73.99
784.653	75.38
784.83	74.18
785.007	70.04
785.184	69.08
785.361	68.12
785.538	71.84
785.715	76.83
785.892	80.64
786.069	84.37
786.246	85.9
786.423	86.36
786.6	80.96
786.776	79.49
786.953	75.8
787.13	78.28
787.307	76.76
787.484	76.65
787.66	74.71
787.837	76.64
788.014	70.38
788.191	66.15
788.367	64.72
788.544	69.92
788.721	67.98
788.897	72.53
789.074	76.99
789.25	77.02
789.427	74.76
789.603	76
789.78	75.91
789.956	70.44
790.133	68.08
790.309	71.93
790.486	73.88
790.662	72.95
790.839	77.22
791.015	79.04
791.192	74.21
791.368	75.04
791.544	71.12
791.721	70.37
791.897	74.23
792.073	74.08
792.249	63.49
792.426	69.74
792.602	73.53
792.778	69.86
792.954	67.46
793.13	72.96
793.307	61.01
793.483	56.52
793.659	59.51
793.835	66.25
794.011	66.75
794.187	73.56
794.363	69.74
794.539	71.03
794.715	63.54
794.891	62.36
795.067	62.55
795.243	70.19
795.419	67.53
795.595	66.97
795.771	65.52
795.947	66.96
796.122	61.29
796.298	63.13
796.474	67.5
796.65	68.54
796.826	63.79
797.001	64.33
797.177	57.19
797.353	63
797.529	67.01
797.704	69.47
797.88	66.61
798.056	64.25
798.231	56.23
798.407	60.98
798.582	60.42
798.758	68.41
798.934	81.86
799.109	81.86
799.285	73.54
799.46	76.89
799.636	71.72
799.811	62.4
799.986	66.07
800.162	67.42
800.337	67.93
800.513	64.23
800.688	66.89
800.863	72.89
801.039	63.41
801.214	57.54
801.389	65.23
801.565	59.69
801.74	42.11
801.915	53.93
802.09	57.08
802.265	59.28
802.441	58.85
802.616	61.49
802.791	63.22
802.966	64.73
803.141	62.15
803.316	62.59
803.491	74.4
803.666	70.94
803.841	62.06
804.016	56.58
804.191	62.33
804.366	52.13
804.541	50.83
804.716	54.81
804.891	50.17
805.066	53.34
805.241	52.68
805.416	52.68
805.591	53.53
805.765	64.73
805.94	62.43
806.115	66.13
806.29	59.92
806.464	58.72
806.639	50.61
806.814	45.11
806.989	35.42
807.163	53.85
807.338	58.05
807.512	57.97
807.687	48.39
807.862	66.88
808.036	61.88
808.211	67.27
808.385	73.62
808.56	92.45
808.734	93.7
808.909	90.78
809.083	78.08
809.258	84.49
809.432	83.6
809.606	54.31
809.781	49.21
809.955	60.95
810.13	55.38
810.304	46.53
810.478	52.85
810.652	58.46
810.827	54.71
811.001	45.42
811.175	47.36
811.349	51.62
811.524	42.17
811.698	29.31
811.872	33.8
812.046	37.64
812.22	48.39
812.394	56.81
812.568	64.83
812.742	70.8
812.916	70.56
813.09	60.09
813.264	56.12
813.438	61.43
813.612	59.58
813.786	51.13
813.96	60.67
814.134	65.14
814.308	72.94
814.482	69.38
814.656	65.18
814.83	71.38
815.003	72.72
815.177	57.88
815.351	51.87
815.525	53.21
815.698	41.66
815.872	31.59
816.046	26.67
816.219	32.83
816.393	50.49
816.567	49.77
816.74	52.91
816.914	61.5
817.088	68.34
817.261	54.56
817.435	54.38
817.608	61.82
817.782	57.74
817.955	57.68
818.129	46.6
818.302	57.77
818.475	68.01
818.649	65.03
818.822	50.73
818.996	77.52
819.169	69.22
819.342	47.04
819.516	62.28
819.689	71.91
819.862	55.53
820.035	45.68
820.209	45.45
820.382	39.87
820.555	40.53
820.728	28.6
820.901	28.2
821.075	32.57
821.248	44.74
821.421	27.31
821.594	33.04
821.767	65.35
821.94	76.21
822.113	46.7
822.286	52.37
822.459	57.64
822.632	42.34
822.805	26.71
822.978	24.13
823.151	30.33
823.324	29.72
823.496	8.93
823.669	14
823.842	16.67
824.015	-11.6
824.188	-25.28
824.361	-13.35
824.533	-15.21
824.706	6.24
824.879	23.47
825.051	45.46
825.224	39.12
825.397	32.28
825.569	22.05
825.742	31.26
825.915	30.9
826.087	50.78
826.26	41.67
826.432	45.48
826.605	43.2
826.777	25.62
826.95	15.3
827.122	13.9
827.295	27.96
827.467	34.1
827.64	9.29
827.812	15.34
827.984	23.54
828.157	-18.32
828.329	-54.55
828.501	-37.8
828.674	-11.69
828.846	-12.04
829.018	23.58
829.19	1.57
829.363	27.77
829.535	25.31
829.707	21.89
829.879	-5.99
830.051	0.37
830.223	-10.08
830.395	-46.9
830.568	-56.03
830.74	-52.18
830.912	0.74
831.084	-23.21
831.256	-14.44
831.428	-8.12
831.6	-18.87
831.772	-82.79
831.943	-87.92
832.115	-53.36
832.287	-23.71
832.459	-1.83
832.631	39.68
832.803	67.76
832.975	80.83
833.146	64.79
833.318	51.92
833.49	41.27
833.662	31.33
833.833	2.4
834.005	2.83
834.177	11.02
834.348	17.07
834.52	-0.67
834.692	7.15
834.863	-21.79
835.035	-9.83
835.206	-74.67
835.378	-37.53
835.549	-35.76
835.721	-9.38
835.892	-10.37
836.064	-3.96
836.235	-1.39
836.407	18.58
836.578	-18.26
836.749	-44.13
836.921	-56.01
837.092	-84.85
837.264	-76.29
837.435	-93.26
837.606	-32.4
837.777	7.27
837.949	31.13
838.12	33.98
838.291	54.06
838.462	43.44
838.633	-2.61
838.805	-15.61
838.976	-20.7
839.147	-82.32
839.318	-76.64
839.489	-108
839.66	-67.21
839.831	-12.93
840.002	-24.18
840.173	-43.41
840.344	14.64
840.515	-8.18
840.686	-206.53
840.857	-97.3
841.028	-81.58
841.199	-78.59
841.369	-87.63
841.54	-63.57
841.711	-33.28
841.882	-24.82
842.053	-24.66
842.223	-37.29
842.394	-14.7
842.565	-20.4
842.736	6.46
842.906	12.28
843.077	41.21
843.248	73.95
843.418	86.47
843.589	42.42
843.759	126.46
843.93	87.59
844.101	26.72
844.271	34.68
844.442	46.2
844.612	52.16
844.783	31.2
844.953	2.59
845.123	-18.87
845.294	-20.03
845.464	-234.63
845.635	-111.21
845.805	6.75
845.975	13
846.146	-16.78
846.316	-27.51
846.486	3.58
846.656	29.58
846.827	15.51
846.997	8.14
847.167	45.34
847.337	-1.59
847.507	-44.99
847.677	-20.91
847.848	36.59
848.018	36.07
848.188	37.68
848.358	16.65
848.528	-18.68
848.698	-69.02
848.868	-198.62
849.038	-248.95
849.208	-83.91
849.378	20.03
849.548	12.91
849.718	29.2
849.887	41.12
850.057	-3.18
850.227	-44.45
850.397	-80.37
850.567	-209.82
850.737	-550.43
850.906	-1470
851.076	-1071.09
851.246	-471.2
851.415	-48.9
851.585	-55.51
851.755	-107.93
851.924	-54.05
852.094	-132.95
852.264	-282.08
852.433	-1407.69
852.603	-243.56
852.772	-229.35
852.942	-81.2
853.111	-77.16
853.281	-28.45
853.45	8.74
853.62	-77.96
853.789	-87.79
853.959	-62.98
854.128	-75
854.297	-95.89
854.467	-95.84
854.636	-28.07
854.805	25.11
854.975	24.26
855.144	23.84
855.313	381.82
855.482	-190.51
855.652	-245.07
855.821	-229.36
855.99	-23.82
856.159	-11.2
856.328	6.88
856.497	-5.2
856.667	4.52
856.836	-9.07
857.005	-39.46
857.174	-62.96
857.343	-98.39
857.512	-71.92
857.681	-103.37
857.85	-151.06
858.019	-83.09
858.188	-49.19
858.356	-78.04
858.525	-142.92
858.694	-106.7
858.863	-193.53
859.032	-148.96
859.201	-146.98
859.369	-44.39
859.538	-33.19
859.707	-72.92
859.876	-124.95
860.044	-135.25
860.213	-19.08
860.382	-24.36
860.55	9.35
860.719	47.05
860.888	54.33
861.056	9.49
861.225	-12.37
861.393	25.76
861.562	7.06
861.73	-72.07
861.899	-287.43
862.067	-2131.03
862.236	-161.37
862.404	-331.99
862.572	-204
862.741	-67.71
862.909	-63.97
863.078	-185.96
863.246	-126.94
863.414	-123.61
863.582	-68.87
863.751	-84.71
863.919	-69.9
864.087	8.67
864.255	-3.68
864.424	-388.45
864.592	-69.75
864.76	-128.38
864.928	-621.6
865.096	-281.85
865.264	-160.11
865.432	-1534.09
865.6	91.5
865.768	-36.28
865.936	-50.08
866.104	-9.35
866.272	-100.31
866.44	-385.04
866.608	751.63
866.776	376.84
866.944	4193.02
867.112	-680.08
867.28	-308.35
867.448	-84.61
867.615	-2.63
867.783	21.39
867.951	-4.05
868.119	56.39
868.286	-9.74
868.454	-193.81
868.622	-176.85
868.789	-166.92
868.957	-3964.29
869.125	-2550
869.292	-158.48
869.46	-260.63
869.627	-38.58
869.795	-43.58
869.963	-11.89
870.13	7.64
870.298	39.18
870.465	-22.02
870.632	-53.83
870.8	-25.03
870.967	-70.94
871.135	-122.2
871.302	-90.36
871.469	-97.57
871.637	-105.69
871.804	-24.77
871.971	-70.55
872.139	-372.56
872.306	0.99
872.473	-40.05
872.64	-307.73
872.807	-92.53
872.975	34.76
873.142	-183.27
873.309	1597.3
873.476	78.36
873.643	143.48
873.81	115.6
873.977	118.16
874.144	94.08
874.311	-34.59
874.478	-102.71
874.645	-167.65
874.812	-114.66
874.979	-34.96
875.146	-38.39
875.313	-88.69
875.48	-4.52
875.647	-23.08
875.813	-80.02
875.98	-47.05
876.147	-56.5
876.314	-91.65
876.481	743.8
876.647	-974.16
876.814	469.43
876.981	-155.77
877.147	-100.69
877.314	-52.35
877.481	-32.47
877.647	-20.71
877.814	-38.14
877.98	-130.39
878.147	-66.2
878.314	13.46
878.48	12.77
878.647	-0.82
878.813	53.2
878.979	51.45
879.146	-16.78
879.312	-22.68
879.479	-52.33
879.645	-137.87
879.811	-297.16
879.978	-652.67
880.144	-151.69
880.31	-45.87
880.477	-217.02
880.643	-242.96
880.809	-42.49
880.975	-5.79
881.142	-550.91
881.308	-31.64
881.474	-18.39
881.64	-25.05
881.806	-148.26
881.972	-26.87
882.138	-11.2
882.304	40.63
882.47	-142.44
882.636	-395.9
882.802	-117.52
882.968	-22.83
883.134	-18.2
883.3	-34.04
883.466	14.84
883.632	39.36
883.798	13.3
883.964	-18.29
884.129	20.33
884.295	60.36
884.461	-23.34
884.627	-60.09
884.793	-60.71
884.958	-18.88
885.124	-148.5
885.29	-231.15
885.455	-195.15
885.621	-34.35
885.787	-147.3
885.952	-79.86
886.118	-80.98
886.283	-99.45
886.449	-186.61
886.614	-178.39
886.78	-378.46
886.945	1224.59
887.111	-652.02
887.276	-542.05
887.442	-1126.36
887.607	-387.74
887.773	-336.31
887.938	-295.3
888.103	-365.94
888.269	-151.81
888.434	-303.24
888.599	-41.94
888.764	62.7
888.93	85.93
889.095	33.48
889.26	1.73
889.425	39.58
889.59	54.74
889.756	9.64
889.921	15.56
890.086	68.56
890.251	29.7
890.416	-127.69
890.581	-1524.19
890.746	216.43
890.911	575.16
891.076	244.17
891.241	-445.52
891.406	-6.12
891.571	-97.39
891.736	-262.84
891.901	-607.96
892.065	715.38
892.23	154.52
892.395	223.09
892.56	324.28
892.725	-213.28
892.889	-695.12
893.054	-178.86
893.219	-72.08
893.384	-42.74
893.548	-112.65
893.713	-144.27
893.878	-93.93
