Data from Ofra_2a_PS_8CX24_Reflection_2.txt Node
Date: Tue Jul 20 09:55:00 EDT 2021
User: Adam
Spectrometer: FLMT01687
Trigger mode: 0
Integration Time (sec): 9.450000E-1
Scans to average: 3
Electric dark correction enabled: true
Nonlinearity correction enabled: false
Boxcar width: 3
XAxis mode: Wavelengths
Number of Pixels in Spectrum: 3648
>>>>>Begin Spectral Data<<<<<
179.494	1121.3
179.716	654.49
179.937	655.49
180.158	2566.02
180.38	-1585.17
180.601	-343.96
180.823	-52.95
181.044	79.58
181.265	-19.26
181.486	18.63
181.708	-761.96
181.929	80.35
182.15	617.61
182.372	104.42
182.593	86.73
182.814	243.56
183.035	163.12
183.257	65.16
183.478	56.94
183.699	75.35
183.92	74.18
184.141	82.5
184.363	67.92
184.584	60.53
184.805	70.35
185.026	67.84
185.247	35.54
185.468	29.05
185.689	19.6
185.91	21.69
186.132	32.38
186.353	21.8
186.574	36.91
186.795	33.06
187.016	39.05
187.237	49.44
187.458	44.67
187.679	23.9
187.9	35.75
188.121	35.71
188.342	58.65
188.563	67.99
188.784	65.54
189.005	81.04
189.226	78.3
189.447	76.69
189.667	71.23
189.888	66.04
190.109	66.04
190.33	52.43
190.551	34.37
190.772	39.27
190.993	40.6
191.214	46.26
191.434	45.91
191.655	38.99
191.876	40.35
192.097	40.82
192.318	38.56
192.538	36.26
192.759	36.05
192.98	32.15
193.201	40.17
193.421	52.46
193.642	62.22
193.863	72.38
194.083	66.95
194.304	57.32
194.525	55.69
194.745	36.21
194.966	31.43
195.187	35.43
195.407	30.64
195.628	39.38
195.848	35.92
196.069	44.7
196.29	43.75
196.51	47.26
196.731	36.55
196.951	37.66
197.172	21.53
197.392	25.29
197.613	1.26
197.833	-0.16
198.054	9.05
198.274	-6.41
198.495	2.99
198.715	-10.94
198.936	-8.75
199.156	-10.51
199.377	-4.11
199.597	-23.06
199.817	-4.03
200.038	-4.09
200.258	8.44
200.479	20.08
200.699	37.49
200.919	16.55
201.14	17.22
201.36	17.99
201.58	12.58
201.801	5.57
202.021	-4.87
202.241	-4.59
202.461	14.14
202.682	20.98
202.902	23.03
203.122	23.3
203.342	36.61
203.563	46.2
203.783	45.82
204.003	40.74
204.223	42.47
204.443	41.35
204.663	44.54
204.884	37.45
205.104	36.86
205.324	51.32
205.544	59.79
205.764	57.24
205.984	62.19
206.204	67.81
206.424	70.35
206.644	67.78
206.864	62.49
207.084	75.3
207.304	69.01
207.525	59.66
207.745	57.96
207.964	36.25
208.184	27.05
208.404	8.12
208.624	-25.77
208.844	-42.99
209.064	-25.78
209.284	-14.15
209.504	-8.7
209.724	-35.47
209.944	-28.9
210.164	-19.32
210.384	8.96
210.604	-18.56
210.823	-28.08
211.043	-23.31
211.263	-3.84
211.483	-2.37
211.703	12.68
211.922	14.36
212.142	24.84
212.362	20.83
212.582	19.49
212.801	10.56
213.021	20.09
213.241	9.37
213.461	5.68
213.68	24.29
213.9	31.14
214.12	23.24
214.339	33.94
214.559	42.19
214.779	43.19
214.998	36.21
215.218	39.16
215.438	55.29
215.657	60.36
215.877	69.29
216.096	55.09
216.316	51.01
216.535	62.83
216.755	32.31
216.974	25.61
217.194	34.5
217.413	36.77
217.633	33.03
217.852	40.73
218.072	34.92
218.291	59.98
218.511	40.78
218.73	28.78
218.95	29.53
219.169	32.38
219.389	19.35
219.608	26.56
219.827	19.16
220.047	40.59
220.266	50.62
220.485	38.82
220.705	28.28
220.924	44.63
221.143	36.26
221.363	25.12
221.582	20.63
221.801	27.05
222.021	31.39
222.24	45.59
222.459	33.84
222.678	34.78
222.897	29.66
223.117	33.06
223.336	32.5
223.555	20.58
223.774	19.55
223.993	29.6
224.213	37.07
224.432	48.75
224.651	46.89
224.87	31.13
225.089	43.03
225.308	51.15
225.527	45.68
225.746	37.84
225.965	29.56
226.184	12.67
226.404	11.56
226.623	14.87
226.842	9.17
227.061	6
227.28	20.81
227.499	36.27
227.718	36.15
227.936	31.47
228.155	28.89
228.374	20.47
228.593	15.12
228.812	8.21
229.031	-6.59
229.25	11.42
229.469	20.97
229.688	26.14
229.907	23.07
230.125	28.98
230.344	32.35
230.563	39.39
230.782	25.73
231.001	26.53
231.22	21.89
231.438	30.25
231.657	30.36
231.876	28.62
232.095	29.13
232.313	38.48
232.532	35.43
232.751	35.66
232.969	34.03
233.188	41.96
233.407	32.73
233.625	29.53
233.844	26.39
234.063	24.23
234.281	17.91
234.5	26.02
234.719	22.32
234.937	38.48
235.156	29.41
235.374	31.47
235.593	33.91
235.811	35.99
236.03	28.53
236.249	20.57
236.467	19.18
236.686	43.08
236.904	27.11
237.123	23.61
237.341	25.99
237.559	29.48
237.778	32.98
237.996	24.41
238.215	7.53
238.433	27.65
238.652	26.76
238.87	26.82
239.088	14.74
239.307	22.3
239.525	15.97
239.743	11.94
239.962	6.73
240.18	10.52
240.398	16.36
240.617	31.66
240.835	28.96
241.053	44.89
241.271	55.6
241.49	46.38
241.708	48.27
241.926	38.22
242.144	31.62
242.363	21.1
242.581	18.34
242.799	1.19
243.017	6.74
243.235	-3.04
243.453	16.6
243.672	19.64
243.89	25.13
244.108	25.76
244.326	29.16
244.544	31.86
244.762	34.97
244.98	24.15
245.198	12.93
245.416	14.55
245.634	17.2
245.852	28.91
246.07	29.26
246.288	21.57
246.506	35.89
246.724	49.53
246.942	53.43
247.16	42.25
247.378	28.48
247.596	38.78
247.814	28.81
248.032	15.22
248.25	6.75
248.468	6.03
248.685	9.49
248.903	14.52
249.121	10.22
249.339	27.71
249.557	26.2
249.775	13.23
249.992	7.03
250.21	0.05
250.428	-1.91
250.646	1.48
250.863	1.07
251.081	3.62
251.299	33.03
251.517	42.01
251.734	54.62
251.952	73.97
252.17	55.87
252.387	54.37
252.605	53.89
252.823	42.11
253.04	41.49
253.258	31.45
253.475	15.07
253.693	33.74
253.911	31.53
254.128	28.49
254.346	21.14
254.563	15.64
254.781	13.78
254.998	21.28
255.216	20.63
255.433	13.12
255.651	15.17
255.868	25.35
256.086	29.92
256.303	37.08
256.521	24.41
256.738	6.73
256.956	13.68
257.173	15.21
257.39	10.98
257.608	13.73
257.825	10.55
258.043	21.88
258.26	30.84
258.477	30.77
258.695	32.2
258.912	46.06
259.129	38.84
259.346	40.18
259.564	44.6
259.781	40.08
259.998	34.38
260.216	41.93
260.433	38.38
260.65	64.52
260.867	53.76
261.084	41.95
261.302	42.65
261.519	41.7
261.736	30.46
261.953	28.84
262.17	4.29
262.387	11.28
262.604	-1.64
262.822	-2.43
263.039	3.61
263.256	12.33
263.473	6.47
263.69	7.14
263.907	8.64
264.124	21.84
264.341	18.7
264.558	23.14
264.775	18.64
264.992	17.91
265.209	20.48
265.426	23.55
265.643	23.4
265.86	20.26
266.077	21.44
266.294	23.27
266.51	31.34
266.727	30.56
266.944	31.39
267.161	30.12
267.378	47.8
267.595	30.29
267.812	22.83
268.028	19.11
268.245	17.27
268.462	16.62
268.679	12.15
268.896	7.03
269.112	20.3
269.329	22.43
269.546	20.23
269.763	30.09
269.979	22.29
270.196	26.06
270.413	29.26
270.629	22.83
270.846	20.73
271.063	26.85
271.279	22.7
271.496	19.64
271.712	18.63
271.929	21.06
272.146	22.09
272.362	18.89
272.579	11.4
272.795	12.99
273.012	21.92
273.228	19.99
273.445	14.2
273.661	17.73
273.878	22.29
274.094	20.76
274.311	12.69
274.527	12.39
274.744	10.02
274.96	13.23
275.177	11.3
275.393	12.15
275.609	16.21
275.826	19.67
276.042	33.63
276.259	39.87
276.475	34.73
276.691	37.46
276.908	37.6
277.124	38.34
277.34	37.34
277.557	32.44
277.773	32.07
277.989	33.44
278.205	23.88
278.422	31.57
278.638	32.45
278.854	41.14
279.07	31.49
279.286	27.31
279.503	29.98
279.719	43.4
279.935	42.73
280.151	45.21
280.367	43.35
280.583	39.9
280.799	36.35
281.016	39.43
281.232	31.41
281.448	24.55
281.664	16.28
281.88	16.84
282.096	26.3
282.312	17.45
282.528	3.33
282.744	1.95
282.96	9.06
283.176	17.23
283.392	22.1
283.608	23.3
283.824	33.18
284.04	40.88
284.256	52.79
284.471	45.9
284.687	43.46
284.903	39.49
285.119	24.5
285.335	27.97
285.551	26.62
285.767	18.86
285.982	21.38
286.198	16.29
286.414	29.31
286.63	47.83
286.846	39.5
287.061	50.4
287.277	46.55
287.493	45.98
287.709	48.24
287.924	41.98
288.14	28.24
288.356	36.84
288.571	17.39
288.787	23.28
289.003	24.39
289.218	20.04
289.434	20.84
289.65	34.59
289.865	39.57
290.081	42.29
290.296	39.83
290.512	50.38
290.727	62.89
290.943	57.42
291.159	47.08
291.374	49.52
291.59	49.77
291.805	56.15
292.021	33.9
292.236	11.56
292.451	10.53
292.667	19.49
292.882	5.26
293.098	4.2
293.313	-8.74
293.529	-3.7
293.744	11.43
293.959	10.96
294.175	8.59
294.39	21.32
294.605	16.79
294.821	26.8
295.036	35.32
295.251	23.89
295.467	22.16
295.682	20.32
295.897	13.93
296.112	14.33
296.328	17.62
296.543	11.47
296.758	18.93
296.973	26.17
297.188	30.64
297.404	33.13
297.619	37.9
297.834	38.52
298.049	35.23
298.264	32.38
298.479	19.05
298.694	15.16
298.909	9.39
299.125	14.38
299.34	7.06
299.555	13.75
299.77	11.52
299.985	15
300.2	15.31
300.415	17.88
300.63	6.9
300.845	10.1
301.06	9.55
301.275	20.44
301.49	28.83
301.704	27.73
301.919	26.85
302.134	27.92
302.349	28.17
302.564	25.45
302.779	15.71
302.994	7.54
303.209	4.2
303.423	12.91
303.638	24.17
303.853	28.95
304.068	29.66
304.283	23.04
304.497	22.23
304.712	25.67
304.927	16.21
305.142	12.03
305.356	14.16
305.571	18.03
305.786	18.23
306	26.07
306.215	28.32
306.43	45.83
306.644	51.11
306.859	47.18
307.074	35.82
307.288	33.93
307.503	27.79
307.717	23.68
307.932	18.61
308.147	19.26
308.361	21.77
308.576	31.38
308.79	35.93
309.005	44.75
309.219	47.03
309.434	43.04
309.648	33.92
309.863	27.4
310.077	20.43
310.292	19.07
310.506	18.71
310.72	7.33
310.935	10.64
311.149	15.43
311.364	23.29
311.578	22.47
311.792	17.36
312.007	6.87
312.221	23.05
312.435	20.48
312.649	31.62
312.864	28.62
313.078	37.86
313.292	48.38
313.507	52.21
313.721	56.34
313.935	69.63
314.149	48.01
314.363	45.48
314.578	61.42
314.792	57.72
315.006	63.78
315.22	58.76
315.434	43.37
315.648	48.12
315.862	44.22
316.077	26.76
316.291	36.23
316.505	23.68
316.719	6.19
316.933	15.48
317.147	11.59
317.361	19.07
317.575	23.84
317.789	17.55
318.003	24.92
318.217	38.44
318.431	40.9
318.645	44.64
318.859	36.75
319.073	30.92
319.287	30.75
319.5	31.49
319.714	26.74
319.928	23.69
320.142	28.63
320.356	37.27
320.57	36.46
320.784	37.09
320.997	32.5
321.211	32.56
321.425	26.33
321.639	18.37
321.853	5.03
322.066	0.04
322.28	1.83
322.494	1.33
322.707	-1.51
322.921	0.79
323.135	11.87
323.349	16.91
323.562	29.3
323.776	23.33
323.989	25.4
324.203	33.59
324.417	28.39
324.63	13.95
324.844	15.02
325.057	19.28
325.271	10.98
325.485	12.52
325.698	14.34
325.912	24.07
326.125	34.83
326.339	36.57
326.552	37.92
326.766	48.55
326.979	50.05
327.193	43.96
327.406	51.11
327.619	31.17
327.833	31.75
328.046	13.1
328.26	2.89
328.473	-0.69
328.686	4.51
328.9	-4.52
329.113	9.6
329.326	5.06
329.54	13.62
329.753	13.58
329.966	20.16
330.179	26.35
330.393	29.84
330.606	35.98
330.819	39.01
331.032	39.77
331.246	43.08
331.459	47.33
331.672	40.58
331.885	37.86
332.098	37.4
332.311	32.07
332.525	27.79
332.738	32.66
332.951	28.49
333.164	17.07
333.377	7.64
333.59	4.68
333.803	15.8
334.016	6.7
334.229	10.85
334.442	7.64
334.655	33.92
334.868	46.66
335.081	56.02
335.294	53.43
335.507	51.27
335.72	37.45
335.933	45.09
336.146	43.59
336.359	32.99
336.572	18.64
336.785	17.1
336.997	11.94
337.21	22.57
337.423	18.06
337.636	17.28
337.849	13.29
338.062	23.46
338.274	28.57
338.487	26.04
338.7	25.29
338.913	22.09
339.125	17.58
339.338	22.66
339.551	21.81
339.763	19.58
339.976	17.98
340.189	11.61
340.402	4.48
340.614	10.31
340.827	5.87
341.039	3.81
341.252	3.24
341.465	2.38
341.677	-2.67
341.89	9.17
342.102	1.58
342.315	15.36
342.527	11.84
342.74	15.95
342.952	24.99
343.165	45.62
343.377	39.65
343.59	39.66
343.802	34.6
344.015	42.65
344.227	30.92
344.44	25.43
344.652	21.89
344.864	24.27
345.077	17.06
345.289	14.96
345.502	18.32
345.714	22.58
345.926	22.42
346.139	18.95
346.351	12.41
346.563	20.16
346.775	18.95
346.988	4.09
347.2	5.62
347.412	10.82
347.624	10.38
347.837	9.06
348.049	14.81
348.261	14.22
348.473	7.66
348.685	10.62
348.897	11.59
349.11	11.53
349.322	13.08
349.534	1.16
349.746	5.82
349.958	18.01
350.17	18.16
350.382	12.58
350.594	22.45
350.806	29.81
351.018	34.35
351.23	36.62
351.442	40.85
351.654	48.31
351.866	47.54
352.078	41.77
352.29	45.36
352.502	43.97
352.714	42.36
352.926	33.72
353.138	22.51
353.35	23.1
353.561	9.1
353.773	1.07
353.985	0.69
354.197	-3.86
354.409	1.82
354.621	9.12
354.832	4.65
355.044	18.1
355.256	20.17
355.468	22.02
355.679	28.87
355.891	24.01
356.103	23.97
356.314	28.57
356.526	27.01
356.738	24.66
356.949	24.55
357.161	14.17
357.373	12.67
357.584	17.7
357.796	13.89
358.008	17
358.219	27.64
358.431	31.07
358.642	33.63
358.854	33.91
359.065	30.11
359.277	34.71
359.488	29.46
359.7	31.87
359.911	22.86
360.123	26.67
360.334	30.43
360.546	21.75
360.757	26.01
360.969	32.23
361.18	25.9
361.391	31.91
361.603	37.92
361.814	37.43
362.025	38.99
362.237	34.55
362.448	33.02
362.659	22.54
362.871	21.92
363.082	15.89
363.293	17.94
363.504	19.5
363.716	20.9
363.927	20.71
364.138	29.88
364.349	29.88
364.56	26.64
364.772	24.81
364.983	19.99
365.194	11.95
365.405	8.78
365.616	0.05
365.827	-7.89
366.038	14.26
366.25	13.6
366.461	25.5
366.672	31.67
366.883	33.85
367.094	36.37
367.305	42.46
367.516	23.51
367.727	23.84
367.938	21.16
368.149	28.71
368.36	27.99
368.571	27.48
368.781	24.76
368.992	28.24
369.203	26.45
369.414	19.47
369.625	12.68
369.836	10.23
370.047	12.06
370.258	6.61
370.468	7.64
370.679	8.29
370.89	16.31
371.101	12.67
371.312	15.77
371.522	14.33
371.733	19.06
371.944	21.78
372.155	7.8
372.365	3.63
372.576	6.88
372.787	-1.07
372.997	-6.65
373.208	-7.32
373.419	-9.24
373.629	7.34
373.84	9.99
374.05	8.69
374.261	6.34
374.472	16.75
374.682	16.32
374.893	9.08
375.103	11.24
375.314	11.93
375.524	13.93
375.735	19.2
375.945	14.5
376.156	19.48
376.366	24.05
376.577	21.33
376.787	21.39
376.997	19.76
377.208	17.32
377.418	21.89
377.629	18.64
377.839	22.84
378.049	26.32
378.26	26.97
378.47	30.4
378.68	32.64
378.89	27.62
379.101	23.46
379.311	11.61
379.521	14.8
379.732	2.33
379.942	4.05
380.152	10.21
380.362	15.52
380.572	23.05
380.783	30.18
380.993	31.92
381.203	37.85
381.413	32.37
381.623	30.37
381.833	27.46
382.043	22.61
382.253	24.59
382.463	20.69
382.674	19.36
382.884	18.69
383.094	15.71
383.304	12.35
383.514	14.22
383.724	12.12
383.934	10
384.144	10.86
384.353	10.67
384.563	10.05
384.773	12.46
384.983	10.06
385.193	10.26
385.403	11.32
385.613	10.58
385.823	12.83
386.033	13.04
386.242	8.84
386.452	9.7
386.662	8.12
386.872	5.64
387.082	6.36
387.291	3.54
387.501	4.95
387.711	7.28
387.921	5.93
388.13	2.98
388.34	5.91
388.55	6.81
388.759	7.91
388.969	3.59
389.179	7.76
389.388	9.72
389.598	10.31
389.807	7.06
390.017	6.26
390.227	5.44
390.436	7.77
390.646	6.56
390.855	5.61
391.065	6.26
391.274	4.56
391.484	4.62
391.693	6.36
391.903	5.53
392.112	3.49
392.322	4.29
392.531	5.01
392.74	5.7
392.95	5.53
393.159	4.5
393.369	5.27
393.578	5.48
393.787	5.23
393.997	6.76
394.206	7.41
394.415	7.31
394.625	5.95
394.834	4.78
395.043	5.16
395.252	4.79
395.462	3.54
395.671	3.68
395.88	4.56
396.089	5.18
396.298	5.11
396.508	4.83
396.717	4.29
396.926	3.7
397.135	3.28
397.344	2.52
397.553	2.54
397.762	2.6
397.971	2.65
398.181	2.41
398.39	2.48
398.599	2.75
398.808	2.89
399.017	3.2
399.226	3.62
399.435	3.56
399.644	3.56
399.853	3.91
400.062	3.48
400.27	3.6
400.479	3.27
400.688	3.18
400.897	3.07
401.106	3.32
401.315	3.15
401.524	3.36
401.733	3.29
401.941	3.27
402.15	3.03
402.359	3.12
402.568	3.14
402.777	3.11
402.985	3.07
403.194	3.03
403.403	2.77
403.612	2.84
403.82	2.88
404.029	2.76
404.238	2.77
404.446	2.73
404.655	2.53
404.864	2.63
405.072	2.63
405.281	2.41
405.489	2.49
405.698	2.43
405.906	2.44
406.115	2.54
406.324	2.53
406.532	2.54
406.741	2.62
406.949	2.53
407.158	2.64
407.366	2.67
407.574	2.7
407.783	2.7
407.991	2.6
408.2	2.48
408.408	2.47
408.617	2.32
408.825	2.24
409.033	2.15
409.242	2.08
409.45	2.04
409.658	2.13
409.867	2.16
410.075	2.15
410.283	2.12
410.491	2.06
410.7	2.15
410.908	2.23
411.116	2.13
411.324	2.15
411.533	2.07
411.741	2.07
411.949	2.15
412.157	2.19
412.365	2.15
412.573	2.22
412.781	2.19
412.99	2.34
413.198	2.41
413.406	2.41
413.614	2.33
413.822	2.3
414.03	2.19
414.238	2.24
414.446	2.15
414.654	2.06
414.862	2.01
415.07	2.08
415.278	2.03
415.486	2.18
415.694	2.1
415.902	2.03
416.109	2.04
416.317	1.97
416.525	1.97
416.733	2.05
416.941	1.98
417.149	2.08
417.357	2.07
417.564	2.1
417.772	2.18
417.98	2.05
418.188	1.91
418.395	1.89
418.603	1.76
418.811	1.75
419.019	1.78
419.226	1.84
419.434	1.82
419.642	1.95
419.849	1.98
420.057	2.11
420.265	2.11
420.472	2.05
420.68	1.96
420.887	2.03
421.095	2.02
421.302	2.05
421.51	2.01
421.717	2.08
421.925	1.99
422.132	1.97
422.34	1.96
422.547	1.88
422.755	1.82
422.962	1.7
423.17	1.69
423.377	1.88
423.585	2.01
423.792	2.05
423.999	2.03
424.207	1.96
424.414	2.08
424.621	2.04
424.829	1.93
425.036	1.81
425.243	1.85
425.451	1.9
425.658	2.03
425.865	1.9
426.072	1.94
426.28	1.94
426.487	1.92
426.694	1.83
426.901	1.8
427.108	1.76
427.315	1.7
427.523	1.75
427.73	1.74
427.937	1.71
428.144	1.72
428.351	1.87
428.558	1.86
428.765	1.94
428.972	1.88
429.179	1.81
429.386	1.87
429.593	1.84
429.8	1.77
430.007	1.83
430.214	1.88
430.421	1.84
430.628	1.79
430.835	1.74
431.042	1.77
431.249	1.74
431.456	1.77
431.662	1.73
431.869	1.78
432.076	1.91
432.283	1.95
432.49	1.92
432.697	1.91
432.903	1.86
433.11	1.93
433.317	1.91
433.524	1.8
433.73	1.84
433.937	1.84
434.144	1.92
434.35	1.88
434.557	1.82
434.764	1.78
434.97	1.86
435.177	1.77
435.384	1.86
435.59	1.8
435.797	1.86
436.003	1.84
436.21	1.84
436.416	1.8
436.623	1.89
436.829	1.8
437.036	1.77
437.242	1.72
437.449	1.7
437.655	1.74
437.862	1.73
438.068	1.76
438.275	1.79
438.481	1.88
438.687	1.98
438.894	2.01
439.1	2.04
439.307	2.08
439.513	2.03
439.719	2.1
439.926	2.06
440.132	1.98
440.338	2
440.544	1.95
440.751	1.93
440.957	1.86
441.163	1.79
441.369	1.78
441.575	1.78
441.782	1.73
441.988	1.76
442.194	1.86
442.4	1.92
442.606	2
442.812	2.01
443.018	1.97
443.224	2.02
443.431	2.05
443.637	1.93
443.843	1.95
444.049	1.92
444.255	1.89
444.461	1.94
444.667	1.97
444.873	1.93
445.079	2.01
445.284	2
445.49	1.97
445.696	2.02
445.902	2.09
446.108	2.04
446.314	2.07
446.52	2.12
446.726	2.12
446.931	2.11
447.137	2.12
447.343	2.04
447.549	2.05
447.755	2.03
447.96	1.96
448.166	1.99
448.372	2.05
448.578	2.03
448.783	2.07
448.989	2.11
449.195	2.12
449.4	2.14
449.606	2.09
449.812	2.08
450.017	2.12
450.223	2.12
450.428	2.09
450.634	2.12
450.84	2.1
451.045	2.13
451.251	2.15
451.456	2.06
451.662	2.03
451.867	2.04
452.073	2.02
452.278	2.02
452.483	2.01
452.689	1.96
452.894	2.03
453.1	2.02
453.305	1.99
453.51	2
453.716	2.02
453.921	2.01
454.127	2.01
454.332	2.01
454.537	2.08
454.742	2.09
454.948	2.05
455.153	2.08
455.358	2.16
455.563	2.2
455.769	2.18
455.974	2.1
456.179	2.02
456.384	2.07
456.589	2.11
456.795	2.02
457	2
457.205	1.96
457.41	2.02
457.615	2.12
457.82	2.16
458.025	2.07
458.23	2.09
458.435	2.04
458.64	2.14
458.845	2.14
459.05	2.12
459.255	2.09
459.46	2.11
459.665	2.22
459.87	2.25
460.075	2.22
460.28	2.19
460.485	2.23
460.69	2.14
460.895	2.14
461.099	2.04
461.304	2.04
461.509	1.98
461.714	2.03
461.919	1.95
462.123	2.06
462.328	2.05
462.533	2.04
462.738	2.04
462.942	2.08
463.147	2.03
463.352	2.07
463.556	2.07
463.761	2.09
463.966	2.12
464.17	2.13
464.375	2.09
464.58	2.1
464.784	2.13
464.989	2.11
465.193	2.14
465.398	2.15
465.602	2.16
465.807	2.19
466.011	2.24
466.216	2.2
466.42	2.22
466.625	2.24
466.829	2.28
467.034	2.29
467.238	2.33
467.443	2.31
467.647	2.37
467.851	2.33
468.056	2.29
468.26	2.24
468.464	2.28
468.669	2.21
468.873	2.21
469.077	2.22
469.282	2.26
469.486	2.33
469.69	2.36
469.894	2.39
470.099	2.49
470.303	2.51
470.507	2.46
470.711	2.47
470.915	2.51
471.119	2.48
471.324	2.4
471.528	2.4
471.732	2.42
471.936	2.48
472.14	2.49
472.344	2.45
472.548	2.53
472.752	2.61
472.956	2.59
473.16	2.6
473.364	2.56
473.568	2.59
473.772	2.65
473.976	2.6
474.18	2.56
474.384	2.55
474.588	2.58
474.792	2.6
474.995	2.59
475.199	2.58
475.403	2.58
475.607	2.61
475.811	2.6
476.015	2.62
476.218	2.62
476.422	2.65
476.626	2.62
476.83	2.67
477.033	2.69
477.237	2.75
477.441	2.76
477.644	2.77
477.848	2.75
478.052	2.76
478.255	2.75
478.459	2.77
478.663	2.77
478.866	2.78
479.07	2.84
479.273	2.88
479.477	2.93
479.681	2.94
479.884	2.91
480.088	2.91
480.291	2.93
480.495	2.93
480.698	2.89
480.901	2.9
481.105	2.92
481.308	2.96
481.512	3
481.715	3
481.919	2.99
482.122	2.98
482.325	2.99
482.529	3.02
482.732	3.06
482.935	3.04
483.138	3.04
483.342	3.08
483.545	3.11
483.748	3.13
483.952	3.14
484.155	3.16
484.358	3.15
484.561	3.19
484.764	3.16
484.967	3.2
485.171	3.15
485.374	3.13
485.577	3.1
485.78	3.11
485.983	3.08
486.186	3.08
486.389	3.08
486.592	3.13
486.795	3.16
486.998	3.18
487.201	3.2
487.404	3.25
487.607	3.28
487.81	3.31
488.013	3.27
488.216	3.25
488.419	3.25
488.622	3.25
488.825	3.23
489.028	3.2
489.231	3.16
489.433	3.15
489.636	3.14
489.839	3.13
490.042	3.13
490.245	3.09
490.447	3.04
490.65	3.08
490.853	3.09
491.056	3.09
491.258	3.09
491.461	3.06
491.664	3.05
491.866	3.09
492.069	3.07
492.272	3.1
492.474	3.13
492.677	3.13
492.879	3.16
493.082	3.22
493.285	3.25
493.487	3.22
493.69	3.19
493.892	3.25
494.095	3.26
494.297	3.29
494.5	3.32
494.702	3.35
494.905	3.41
495.107	3.48
495.309	3.42
495.512	3.46
495.714	3.47
495.917	3.46
496.119	3.46
496.321	3.47
496.524	3.46
496.726	3.48
496.928	3.49
497.13	3.51
497.333	3.57
497.535	3.54
497.737	3.55
497.939	3.58
498.142	3.58
498.344	3.57
498.546	3.61
498.748	3.58
498.95	3.6
499.152	3.59
499.355	3.59
499.557	3.65
499.759	3.72
499.961	3.71
500.163	3.77
500.365	3.81
500.567	3.84
500.769	3.86
500.971	3.86
501.173	3.8
501.375	3.8
501.577	3.79
501.779	3.83
501.981	3.84
502.183	3.82
502.385	3.83
502.587	3.85
502.788	3.87
502.99	3.85
503.192	3.86
503.394	3.89
503.596	3.99
503.798	4.05
503.999	4.1
504.201	4.1
504.403	4.14
504.605	4.17
504.806	4.17
505.008	4.17
505.21	4.16
505.411	4.16
505.613	4.19
505.815	4.21
506.016	4.24
506.218	4.27
506.42	4.26
506.621	4.27
506.823	4.29
507.024	4.29
507.226	4.3
507.427	4.25
507.629	4.26
507.83	4.25
508.032	4.31
508.233	4.33
508.435	4.37
508.636	4.39
508.838	4.47
509.039	4.49
509.24	4.53
509.442	4.48
509.643	4.47
509.845	4.47
510.046	4.49
510.247	4.51
510.448	4.53
510.65	4.57
510.851	4.61
511.052	4.66
511.254	4.69
511.455	4.67
511.656	4.65
511.857	4.64
512.058	4.63
512.26	4.65
512.461	4.67
512.662	4.67
512.863	4.7
513.064	4.7
513.265	4.75
513.466	4.81
513.667	4.8
513.868	4.78
514.069	4.82
514.27	4.85
514.471	4.89
514.672	4.95
514.873	4.96
515.074	5
515.275	5.02
515.476	5.02
515.677	5.02
515.878	5.06
516.079	5.04
516.28	5.03
516.481	5
516.682	5.05
516.882	5.05
517.083	5.09
517.284	5.08
517.485	5.06
517.686	5.07
517.886	5.12
518.087	5.12
518.288	5.11
518.488	5.1
518.689	5.09
518.89	5.13
519.091	5.17
519.291	5.14
519.492	5.19
519.692	5.24
519.893	5.24
520.094	5.27
520.294	5.25
520.495	5.24
520.695	5.28
520.896	5.25
521.096	5.27
521.297	5.3
521.497	5.29
521.698	5.3
521.898	5.33
522.099	5.31
522.299	5.33
522.499	5.34
522.7	5.36
522.9	5.38
523.101	5.41
523.301	5.4
523.501	5.45
523.702	5.48
523.902	5.51
524.102	5.52
524.302	5.53
524.503	5.54
524.703	5.58
524.903	5.62
525.103	5.64
525.304	5.63
525.504	5.63
525.704	5.64
525.904	5.67
526.104	5.66
526.304	5.66
526.504	5.65
526.705	5.7
526.905	5.71
527.105	5.74
527.305	5.71
527.505	5.73
527.705	5.73
527.905	5.75
528.105	5.73
528.305	5.77
528.505	5.79
528.705	5.82
528.905	5.82
529.105	5.85
529.304	5.88
529.504	5.9
529.704	5.89
529.904	5.91
530.104	5.9
530.304	5.94
530.503	5.96
530.703	5.98
530.903	6.01
531.103	6.02
531.303	6.07
531.502	6.1
531.702	6.12
531.902	6.12
532.101	6.14
532.301	6.12
532.501	6.16
532.7	6.13
532.9	6.17
533.1	6.14
533.299	6.2
533.499	6.22
533.698	6.29
533.898	6.3
534.097	6.34
534.297	6.35
534.496	6.4
534.696	6.41
534.895	6.42
535.095	6.42
535.294	6.43
535.494	6.48
535.693	6.51
535.892	6.53
536.092	6.51
536.291	6.53
536.491	6.58
536.69	6.63
536.889	6.61
537.088	6.61
537.288	6.69
537.487	6.76
537.686	6.82
537.886	6.8
538.085	6.83
538.284	6.86
538.483	6.9
538.682	6.91
538.882	6.91
539.081	6.92
539.28	6.93
539.479	6.96
539.678	7.03
539.877	7.08
540.076	7.07
540.275	7.12
540.474	7.11
540.673	7.18
540.872	7.21
541.071	7.25
541.27	7.25
541.469	7.31
541.668	7.34
541.867	7.41
542.066	7.47
542.265	7.5
542.464	7.53
542.663	7.59
542.862	7.61
543.06	7.64
543.259	7.67
543.458	7.69
543.657	7.74
543.856	7.76
544.054	7.79
544.253	7.85
544.452	7.87
544.651	7.91
544.849	7.93
545.048	7.93
545.247	7.98
545.445	8.02
545.644	8.06
545.843	8.13
546.041	8.18
546.24	8.27
546.438	8.36
546.637	8.4
546.836	8.45
547.034	8.5
547.233	8.57
547.431	8.6
547.63	8.67
547.828	8.7
548.027	8.71
548.225	8.75
548.423	8.8
548.622	8.83
548.82	8.88
549.019	8.9
549.217	8.98
549.415	9.1
549.614	9.13
549.812	9.2
550.01	9.28
550.209	9.37
550.407	9.46
550.605	9.5
550.803	9.54
551.002	9.62
551.2	9.74
551.398	9.78
551.596	9.85
551.794	9.93
551.993	9.99
552.191	10.12
552.389	10.2
552.587	10.19
552.785	10.29
552.983	10.38
553.181	10.43
553.379	10.53
553.577	10.57
553.775	10.64
553.973	10.75
554.171	10.82
554.369	10.89
554.567	10.95
554.765	10.99
554.963	11.04
555.161	11.14
555.359	11.24
555.557	11.34
555.755	11.42
555.952	11.53
556.15	11.64
556.348	11.76
556.546	11.81
556.744	11.9
556.941	11.98
557.139	12.1
557.337	12.17
557.535	12.32
557.732	12.43
557.93	12.55
558.128	12.63
558.325	12.68
558.523	12.74
558.721	12.82
558.918	12.89
559.116	12.95
559.313	13.07
559.511	13.16
559.708	13.26
559.906	13.31
560.104	13.46
560.301	13.53
560.498	13.62
560.696	13.69
560.893	13.8
561.091	13.92
561.288	14.06
561.486	14.15
561.683	14.22
561.88	14.33
562.078	14.4
562.275	14.49
562.473	14.61
562.67	14.71
562.867	14.79
563.064	14.89
563.262	15
563.459	15.16
563.656	15.28
563.853	15.35
564.051	15.44
564.248	15.56
564.445	15.69
564.642	15.79
564.839	15.88
565.036	15.97
565.234	16.08
565.431	16.16
565.628	16.26
565.825	16.36
566.022	16.43
566.219	16.47
566.416	16.55
566.613	16.65
566.81	16.77
567.007	16.8
567.204	16.84
567.401	16.91
567.598	17
567.795	17.03
567.991	17.09
568.188	17.13
568.385	17.2
568.582	17.29
568.779	17.37
568.976	17.47
569.172	17.63
569.369	17.65
569.566	17.7
569.763	17.82
569.96	17.9
570.156	17.94
570.353	17.97
570.55	18.01
570.746	18.11
570.943	18.22
571.14	18.26
571.336	18.28
571.533	18.39
571.729	18.45
571.926	18.46
572.123	18.47
572.319	18.45
572.516	18.45
572.712	18.54
572.909	18.57
573.105	18.62
573.302	18.63
573.498	18.7
573.695	18.76
573.891	18.84
574.087	18.82
574.284	18.82
574.48	18.84
574.677	18.86
574.873	18.91
575.069	18.97
575.266	18.95
575.462	18.94
575.658	19
575.854	19.01
576.051	19.06
576.247	19.02
576.443	19.02
576.639	19.06
576.835	19.1
577.032	19.14
577.228	19.15
577.424	19.15
577.62	19.2
577.816	19.2
578.012	19.22
578.208	19.26
578.404	19.26
578.6	19.27
578.796	19.23
578.993	19.19
579.189	19.16
579.384	19.12
579.58	19.1
579.776	19.05
579.972	19.05
580.168	19.03
580.364	19.06
580.56	19.09
580.756	19.08
580.952	19.08
581.148	19.11
581.343	19.08
581.539	19.11
581.735	19.09
581.931	19.09
582.127	19.1
582.322	19.1
582.518	19.04
582.714	19.03
582.909	18.98
583.105	18.91
583.301	18.86
583.496	18.82
583.692	18.77
583.888	18.75
584.083	18.84
584.279	18.89
584.474	18.9
584.67	18.93
584.866	18.92
585.061	18.97
585.257	18.96
585.452	18.8
585.648	18.73
585.843	18.76
586.039	18.74
586.234	18.73
586.429	18.71
586.625	18.71
586.82	18.73
587.015	18.72
587.211	18.73
587.406	18.76
587.601	18.78
587.797	18.73
587.992	18.77
588.187	18.87
588.383	18.91
588.578	18.9
588.773	18.88
588.968	18.91
589.163	18.94
589.359	18.92
589.554	18.87
589.749	18.92
589.944	18.94
590.139	18.99
590.334	18.97
590.529	19.06
590.724	19.14
590.919	19.25
591.114	19.27
591.309	19.32
591.504	19.35
591.699	19.38
591.894	19.35
592.089	19.36
592.284	19.3
592.479	19.31
592.674	19.34
592.869	19.39
593.064	19.54
593.259	19.6
593.454	19.66
593.648	19.74
593.843	19.82
594.038	19.84
594.233	19.91
594.428	19.93
594.622	19.99
594.817	20.09
595.012	20.12
595.206	20.19
595.401	20.23
595.596	20.33
595.79	20.37
595.985	20.5
596.18	20.55
596.374	20.69
596.569	20.78
596.763	20.93
596.958	20.94
597.153	20.99
597.347	21.04
597.542	21.09
597.736	21.16
597.931	21.26
598.125	21.32
598.319	21.45
598.514	21.57
598.708	21.63
598.903	21.71
599.097	21.79
599.291	21.85
599.486	21.88
599.68	21.89
599.874	22.01
600.069	22.04
600.263	22.07
600.457	22.09
600.651	22.09
600.846	22.11
601.04	22.17
601.234	22.16
601.428	22.19
601.622	22.23
601.817	22.3
602.011	22.38
602.205	22.43
602.399	22.49
602.593	22.43
602.787	22.51
602.981	22.53
603.175	22.5
603.369	22.5
603.563	22.54
603.757	22.46
603.951	22.53
604.145	22.48
604.339	22.46
604.533	22.47
604.727	22.46
604.921	22.38
605.115	22.4
605.309	22.42
605.502	22.43
605.696	22.41
605.89	22.35
606.084	22.31
606.278	22.31
606.471	22.29
606.665	22.18
606.859	22.08
607.053	22.04
607.246	22.02
607.44	21.94
607.634	21.9
607.827	21.76
608.021	21.71
608.214	21.67
608.408	21.58
608.602	21.52
608.795	21.43
608.989	21.37
609.182	21.41
609.376	21.32
609.569	21.26
609.763	21.3
609.956	21.19
610.15	21.16
610.343	21.07
610.537	20.98
610.73	20.97
610.923	20.85
611.117	20.68
611.31	20.64
611.504	20.61
611.697	20.58
611.89	20.46
612.083	20.36
612.277	20.31
612.47	20.28
612.663	20.2
612.856	20.05
613.05	19.94
613.243	19.89
613.436	19.74
613.629	19.7
613.822	19.58
614.015	19.49
614.209	19.47
614.402	19.42
614.595	19.32
614.788	19.28
614.981	19.16
615.174	19.06
615.367	19.02
615.56	18.91
615.753	18.87
615.946	18.81
616.139	18.78
616.332	18.68
616.525	18.7
616.718	18.59
616.911	18.58
617.103	18.5
617.296	18.48
617.489	18.44
617.682	18.5
617.875	18.41
618.067	18.35
618.26	18.28
618.453	18.22
618.646	18.14
618.838	18.06
619.031	17.97
619.224	17.97
619.417	17.96
619.609	17.95
619.802	17.92
619.994	17.91
620.187	17.88
620.38	17.88
620.572	17.84
620.765	17.82
620.957	17.73
621.15	17.69
621.342	17.68
621.535	17.62
621.727	17.57
621.92	17.53
622.112	17.53
622.305	17.51
622.497	17.47
622.69	17.42
622.882	17.46
623.074	17.43
623.267	17.39
623.459	17.35
623.651	17.34
623.844	17.33
624.036	17.34
624.228	17.3
624.42	17.28
624.613	17.28
624.805	17.27
624.997	17.29
625.189	17.29
625.381	17.23
625.574	17.15
625.766	17.16
625.958	17.15
626.15	17.12
626.342	17.03
626.534	16.96
626.726	16.99
626.918	16.92
627.11	16.85
627.302	16.79
627.494	16.78
627.686	16.77
627.878	16.73
628.07	16.68
628.262	16.72
628.454	16.63
628.646	16.61
628.838	16.51
629.029	16.47
629.221	16.47
629.413	16.41
629.605	16.36
629.797	16.43
629.989	16.4
630.18	16.38
630.372	16.36
630.564	16.35
630.755	16.34
630.947	16.35
631.139	16.26
631.33	16.26
631.522	16.24
631.714	16.2
631.905	16.15
632.097	16.12
632.289	16.03
632.48	16.01
632.672	15.97
632.863	15.95
633.055	15.88
633.246	15.88
633.438	15.85
633.629	15.89
633.821	15.87
634.012	15.84
634.203	15.87
634.395	15.91
634.586	15.87
634.777	15.86
634.969	15.81
635.16	15.81
635.351	15.81
635.543	15.79
635.734	15.76
635.925	15.83
636.117	15.81
636.308	15.81
636.499	15.79
636.69	15.81
636.881	15.81
637.073	15.78
637.264	15.69
637.455	15.66
637.646	15.68
637.837	15.66
638.028	15.69
638.219	15.63
638.41	15.64
638.601	15.64
638.792	15.59
638.983	15.54
639.174	15.55
639.365	15.46
639.556	15.45
639.747	15.42
639.938	15.42
640.129	15.45
640.32	15.47
640.511	15.43
640.701	15.41
640.892	15.42
641.083	15.44
641.274	15.42
641.465	15.41
641.655	15.41
641.846	15.38
642.037	15.41
642.228	15.35
642.418	15.31
642.609	15.25
642.8	15.2
642.99	15.16
643.181	15.14
643.372	15.12
643.562	15.1
643.753	15.08
643.943	15.08
644.134	15.07
644.324	15.02
644.515	15.01
644.705	15.02
644.896	14.95
645.086	14.91
645.277	14.94
645.467	14.94
645.658	14.93
645.848	14.92
646.038	14.86
646.229	14.92
646.419	14.92
646.61	14.85
646.8	14.79
646.99	14.77
647.18	14.72
647.371	14.66
647.561	14.64
647.751	14.62
647.941	14.6
648.132	14.64
648.322	14.67
648.512	14.7
648.702	14.72
648.892	14.69
649.082	14.66
649.272	14.61
649.462	14.51
649.653	14.47
649.843	14.4
650.033	14.35
650.223	14.33
650.413	14.29
650.603	14.32
650.793	14.34
650.983	14.32
651.172	14.3
651.362	14.26
651.552	14.16
651.742	14.11
651.932	14.06
652.122	14.02
652.312	13.91
652.502	13.9
652.691	13.84
652.881	13.84
653.071	13.77
653.261	13.69
653.45	13.61
653.64	13.53
653.83	13.37
654.019	13.24
654.209	13.15
654.399	13.03
654.588	12.91
654.778	12.81
654.968	12.7
655.157	12.63
655.347	12.52
655.536	12.33
655.726	12.26
655.915	12.12
656.105	12
656.294	11.86
656.484	11.72
656.673	11.59
656.863	11.48
657.052	11.26
657.241	11.12
657.431	10.93
657.62	10.75
657.809	10.56
657.999	10.4
658.188	10.28
658.377	10.24
658.567	10.08
658.756	9.92
658.945	9.78
659.134	9.63
659.324	9.52
659.513	9.3
659.702	9.07
659.891	8.92
660.08	8.82
660.269	8.73
660.458	8.66
660.648	8.5
660.837	8.44
661.026	8.31
661.215	8.2
661.404	8.1
661.593	7.96
661.782	7.76
661.971	7.63
662.16	7.46
662.349	7.33
662.538	7.25
662.726	7.04
662.915	6.9
663.104	6.8
663.293	6.73
663.482	6.62
663.671	6.53
663.86	6.41
664.048	6.38
664.237	6.32
664.426	6.29
664.615	6.19
664.803	6.14
664.992	6.11
665.181	6.02
665.369	5.97
665.558	5.91
665.747	5.89
665.935	5.86
666.124	5.84
666.312	5.74
666.501	5.73
666.69	5.67
666.878	5.66
667.067	5.62
667.255	5.61
667.444	5.58
667.632	5.55
667.82	5.5
668.009	5.52
668.197	5.47
668.386	5.38
668.574	5.31
668.762	5.29
668.951	5.33
669.139	5.36
669.327	5.31
669.516	5.35
669.704	5.4
669.892	5.41
670.08	5.38
670.269	5.37
670.457	5.34
670.645	5.39
670.833	5.36
671.021	5.37
671.21	5.45
671.398	5.42
671.586	5.46
671.774	5.46
671.962	5.48
672.15	5.51
672.338	5.57
672.526	5.57
672.714	5.62
672.902	5.67
673.09	5.77
673.278	5.79
673.466	5.85
673.654	5.86
673.842	5.96
674.03	6.09
674.218	6.11
674.405	6.17
674.593	6.25
674.781	6.29
674.969	6.37
675.157	6.4
675.344	6.45
675.532	6.57
675.72	6.62
675.908	6.71
676.095	6.85
676.283	6.86
676.471	6.89
676.658	6.95
676.846	7
677.033	7.09
677.221	7.16
677.409	7.19
677.596	7.35
677.784	7.5
677.971	7.58
678.159	7.69
678.346	7.73
678.534	7.79
678.721	7.89
678.909	7.93
679.096	7.96
679.283	8.08
679.471	8.14
679.658	8.31
679.846	8.42
680.033	8.6
680.22	8.69
680.408	8.77
680.595	8.83
680.782	8.93
680.969	8.94
681.157	9.04
681.344	9.13
681.531	9.32
681.718	9.5
681.905	9.68
682.093	9.88
682.28	10.08
682.467	10.22
682.654	10.28
682.841	10.4
683.028	10.6
683.215	10.78
683.402	10.87
683.589	11.04
683.776	11.22
683.963	11.42
684.15	11.61
684.337	11.78
684.524	12.01
684.711	12.21
684.898	12.45
685.085	12.71
685.271	12.98
685.458	13.29
685.645	13.53
685.832	13.76
686.019	14.1
686.205	14.39
686.392	14.69
686.579	15.01
686.766	15.3
686.952	15.7
687.139	16.06
687.326	16.41
687.512	16.8
687.699	17.16
687.886	17.49
688.072	17.91
688.259	18.3
688.445	18.65
688.632	19.15
688.818	19.55
689.005	20.15
689.191	20.75
689.378	21.17
689.564	21.6
689.751	22.29
689.937	22.68
690.124	23.23
690.31	23.66
690.496	24.16
690.683	24.78
690.869	25.34
691.055	25.85
691.242	26.48
691.428	27.09
691.614	27.8
691.8	28.48
691.987	29.17
692.173	30.02
692.359	30.84
692.545	31.6
692.731	32.31
692.918	32.98
693.104	33.58
693.29	34.2
693.476	34.69
693.662	35.34
693.848	35.98
694.034	36.58
694.22	37.27
694.406	38.05
694.592	38.79
694.778	39.56
694.964	40.11
695.15	40.87
695.336	41.87
695.522	42.57
695.708	43.29
695.894	44.1
696.08	44.87
696.265	45.49
696.451	46.23
696.637	46.78
696.823	47.39
697.009	48.17
697.194	48.79
697.38	49.41
697.566	50.16
697.751	50.71
697.937	51.42
698.123	52.17
698.308	52.67
698.494	53.25
698.68	53.86
698.865	54.59
699.051	55.32
699.236	55.89
699.422	56.38
699.607	56.85
699.793	57.49
699.978	57.97
700.164	58.55
700.349	59.05
700.535	59.59
700.72	60.09
700.906	60.69
701.091	61.11
701.276	61.73
701.462	62.24
701.647	62.55
701.832	62.93
702.018	63.47
702.203	63.91
702.388	64.23
702.573	64.74
702.759	65.12
702.944	65.65
703.129	66.16
703.314	66.6
703.499	67.19
703.684	67.91
703.87	68.32
704.055	68.7
704.24	69.29
704.425	69.61
704.61	69.82
704.795	70.03
704.98	70.12
705.165	70.37
705.35	70.77
705.535	71.06
705.72	71.17
705.905	71.53
706.09	71.71
706.275	71.83
706.459	72.39
706.644	72.48
706.829	72.48
707.014	72.82
707.199	73.19
707.384	73.63
707.568	74.16
707.753	74.27
707.938	74.53
708.123	74.79
708.307	75.44
708.492	75.67
708.677	76
708.861	76.29
709.046	76.19
709.231	76.52
709.415	76.88
709.6	76.58
709.784	76.75
709.969	76.85
710.153	77.04
710.338	77.48
710.522	77.63
710.707	77.54
710.891	78.07
711.076	78.12
711.26	78.46
711.445	78.48
711.629	78.69
711.813	78.7
711.998	79.04
712.182	79.3
712.366	79.58
712.551	79.65
712.735	79.72
712.919	79.91
713.103	80.17
713.288	80.51
713.472	80.24
713.656	80.22
713.84	80.22
714.024	80.62
714.208	80.54
714.393	80.81
714.577	80.82
714.761	81.16
714.945	81.29
715.129	81.47
715.313	81.66
715.497	82.01
715.681	82.21
715.865	82.32
716.049	82.59
716.233	82.95
716.417	83.29
716.601	83.25
716.785	83.31
716.968	82.98
717.152	83.07
717.336	82.86
717.52	83.01
717.704	83.32
717.888	83.36
718.071	83.58
718.255	84.02
718.439	84.01
718.622	84.48
718.806	84.26
718.99	84.31
719.174	84.37
719.357	84.38
719.541	84.56
719.724	84.77
719.908	84.73
720.092	85.09
720.275	84.93
720.459	85
720.642	84.89
720.826	84.7
721.009	84.69
721.193	84.7
721.376	84.86
721.559	84.78
721.743	85.03
721.926	85.22
722.11	85.33
722.293	85.28
722.476	85.22
722.66	85.04
722.843	85.23
723.026	85.18
723.21	85.27
723.393	85.58
723.576	85.75
723.759	86.4
723.942	86.67
724.126	86.65
724.309	87.08
724.492	87.02
724.675	87.06
724.858	87.53
725.041	87.25
725.224	87.45
725.407	87.43
725.59	87.36
725.774	87.71
725.957	87.86
726.14	87.57
726.322	87.38
726.505	87.44
726.688	87.71
726.871	87.55
727.054	87.58
727.237	87.37
727.42	87.83
727.603	88.27
727.786	88.34
727.968	88.59
728.151	89.2
728.334	89.24
728.517	89.65
728.699	89.61
728.882	89.96
729.065	89.98
729.248	89.76
729.43	89.26
729.613	89.56
729.796	89.4
729.978	89.5
730.161	89.51
730.343	89.59
730.526	89.6
730.708	90.12
730.891	90.19
731.073	90.31
731.256	90.47
731.438	90.46
731.621	90.98
731.803	91.34
731.986	91.29
732.168	91.32
732.35	91.29
732.533	91.24
732.715	91.4
732.898	90.96
733.08	91.38
733.262	91.5
733.444	91.4
733.627	92.06
733.809	92.36
733.991	92.27
734.173	92.03
734.355	91.99
734.538	91.91
734.72	92.25
734.902	91.8
735.084	92.06
735.266	92.16
735.448	92.92
735.63	92.83
735.812	93.13
735.994	93.24
736.176	93.37
736.358	93.39
736.54	93.05
736.722	92.53
736.904	92.46
737.086	92.35
737.268	92.11
737.45	92.1
737.632	91.38
737.814	91.69
737.995	92.39
738.177	92.84
738.359	93.02
738.541	92.8
738.723	93.23
738.904	93.4
739.086	93.52
739.268	93.72
739.449	93.31
739.631	93.04
739.813	93.2
739.994	93.18
740.176	93.63
740.358	93.5
740.539	92.82
740.721	92.91
740.902	92.76
741.084	93.25
741.265	93.22
741.447	92.8
741.628	92.68
741.81	93.06
741.991	93.2
742.172	93.73
742.354	93.53
742.535	94.11
742.717	94.04
742.898	94.25
743.079	94.04
743.261	94.17
743.442	94.65
743.623	94.97
743.804	94.22
743.986	94.43
744.167	94.15
744.348	94.7
744.529	94.38
744.71	93.31
744.891	93.04
745.073	93.01
745.254	93.79
745.435	93.71
745.616	93
745.797	92.56
745.978	93.61
746.159	93.41
746.34	93.54
746.521	92.87
746.702	93.07
746.883	93.62
747.064	94.13
747.245	94.07
747.426	94.31
747.606	94.24
747.787	94.55
747.968	95.34
748.149	94.93
748.33	95.38
748.51	94.13
748.691	93.77
748.872	93.5
749.053	93.39
749.233	93.02
749.414	93.1
749.595	92.21
749.775	92.69
749.956	92.2
750.137	92.61
750.317	92.54
750.498	92.19
750.678	91.99
750.859	91.86
751.04	91.67
751.22	91.81
751.4	91.39
751.581	91.26
751.761	91.46
751.942	91.52
752.122	91.73
752.303	91.99
752.483	93.08
752.663	93.62
752.844	93.59
753.024	93.68
753.204	93.38
753.385	93
753.565	92.23
753.745	91.43
753.925	90.6
754.106	90.82
754.286	90.61
754.466	91.48
754.646	91.47
754.826	91.89
755.006	91.36
755.187	92.17
755.367	91.74
755.547	91.21
755.727	90.59
755.907	91.42
756.087	91.53
756.267	91.15
756.447	91.07
756.627	91.11
756.807	91.81
756.987	92.38
757.167	92.09
757.346	91.75
757.526	92.86
757.706	92.54
757.886	92.84
758.066	93.09
758.246	92.92
758.425	93.22
758.605	93.66
758.785	93.33
758.965	92.14
759.144	92.36
759.324	92
759.504	91.3
759.683	91.04
759.863	90.37
760.043	90.82
760.222	91.24
760.402	91.83
760.581	90.99
760.761	90.44
760.94	89.7
761.12	89.62
761.299	88.57
761.479	89.05
761.658	87.37
761.838	87.94
762.017	88.89
762.197	89.65
762.376	89.65
762.555	89.54
762.735	88.76
762.914	89.4
763.093	89.06
763.273	88.67
763.452	88.61
763.631	88.35
763.81	89.34
763.99	89.96
764.169	89.67
764.348	89.99
764.527	89.94
764.706	89.91
764.885	90.47
765.064	90.11
765.243	90.52
765.423	91.16
765.602	91.03
765.781	90.85
765.96	90.68
766.139	90.53
766.318	91.68
766.497	91.24
766.676	91.17
766.854	90.4
767.033	89.34
767.212	88.51
767.391	88.43
767.57	86.93
767.749	87.4
767.928	86.36
768.106	86.63
768.285	88.23
768.464	89.12
768.643	89.96
768.821	90.14
769	89.96
769.179	89.69
769.357	90.35
769.536	89.89
769.715	89.74
769.893	89.49
770.072	89.51
770.25	88.92
770.429	90.59
770.607	90.68
770.786	90.37
770.964	89.6
771.143	89.71
771.321	89.41
771.5	89.35
771.678	87.97
771.857	86.74
772.035	86.33
772.213	86.7
772.392	86.4
772.57	86.93
772.748	86.97
772.927	87.04
773.105	87.88
773.283	88.26
773.461	87.83
773.64	87.04
773.818	86.5
773.996	86.19
774.174	86.68
774.352	86.04
774.531	85.05
774.709	85.45
774.887	85.2
775.065	84.23
775.243	84.57
775.421	83.95
775.599	82.85
775.777	83.35
775.955	83.18
776.133	82.62
776.311	82.23
776.489	82.18
776.667	82.59
776.844	83.93
777.022	83.68
777.2	83.56
777.378	84.18
777.556	86.4
777.734	86.6
777.911	87.45
778.089	87.13
778.267	88.36
778.445	88.24
778.622	87.98
778.8	86.36
778.978	85.56
779.155	83.17
779.333	81.57
779.511	80.72
779.688	79.51
779.866	79.02
780.043	79.76
780.221	80.32
780.398	81.72
780.576	82.22
780.753	82.1
780.931	83.54
781.108	85.22
781.286	83.98
781.463	83.81
781.64	84.22
781.818	84.39
781.995	85.44
782.172	84.28
782.35	81.91
782.527	84.56
782.704	83.5
782.882	83.74
783.059	84.16
783.236	82.6
783.413	84.16
783.59	85.12
783.768	82.86
783.945	84.34
784.122	82.42
784.299	83.16
784.476	84.18
784.653	82.68
784.83	81.82
785.007	81.67
785.184	81.02
785.361	81.84
785.538	81.52
785.715	80.92
785.892	82.09
786.069	82.77
786.246	82.63
786.423	82.91
786.6	81.51
786.776	80.65
786.953	80.26
787.13	80.77
787.307	81.03
787.484	82.79
787.66	81.76
787.837	83.74
788.014	84.84
788.191	84.08
788.367	82.52
788.544	82.7
788.721	80.61
788.897	82.62
789.074	81.78
789.25	82.7
789.427	83.41
789.603	85.1
789.78	85.87
789.956	86.18
790.133	86.18
790.309	84.68
790.486	84.4
790.662	85.37
790.839	84.66
791.015	84.3
791.192	88.08
791.368	86.9
791.544	87.22
791.721	85.35
791.897	84.97
792.073	83.39
792.249	85.1
792.426	84.91
792.602	84
792.778	84.24
792.954	84.16
793.13	85.08
793.307	84.72
793.483	81.66
793.659	81.17
793.835	82.29
794.011	81.41
794.187	79
794.363	78.64
794.539	78.05
794.715	78.24
794.891	73.77
795.067	74.3
795.243	76.96
795.419	81.26
795.595	80.12
795.771	83.02
795.947	82.72
796.122	85.32
796.298	82.66
796.474	81.88
796.65	79.22
796.826	81.65
797.001	78.21
797.177	80.85
797.353	81.38
797.529	84.49
797.704	85.39
797.88	84.59
798.056	83.93
798.231	86.51
798.407	85.7
798.582	84.23
798.758	84.7
798.934	80.3
799.109	80.86
799.285	79.13
799.46	79.03
799.636	80.3
799.811	81.57
799.986	80.43
800.162	85.69
800.337	86.44
800.513	87.55
800.688	89.45
800.863	88.11
801.039	84.4
801.214	83.14
801.389	82.14
801.565	83.99
801.74	81.09
801.915	79.82
802.09	77.44
802.265	81.88
802.441	82.11
802.616	77.74
802.791	80.28
802.966	79.27
803.141	74.62
803.316	80.3
803.491	79.94
803.666	77.93
803.841	80.52
804.016	77.46
804.191	81
804.366	84.33
804.541	78.64
804.716	73.19
804.891	76.21
805.066	75.54
805.241	74.77
805.416	73.51
805.591	76.4
805.765	79.98
805.94	84.25
806.115	80.59
806.29	83.69
806.464	83.01
806.639	82.95
806.814	77.64
806.989	75.92
807.163	75.28
807.338	77.27
807.512	71.08
807.687	68.78
807.862	69.37
808.036	69.17
808.211	70.93
808.385	68.17
808.56	69.55
808.734	71.58
808.909	73.97
809.083	75.41
809.258	78.47
809.432	70.52
809.606	74
809.781	72.33
809.955	74.4
810.13	79.41
810.304	74.89
810.478	74.47
810.652	82.99
810.827	79.59
811.001	77.85
811.175	72.18
811.349	67.71
811.524	68.31
811.698	68.54
811.872	67.02
812.046	67.28
812.22	68.69
812.394	76.49
812.568	79.15
812.742	81.16
812.916	77.75
813.09	76.19
813.264	79.16
813.438	86.16
813.612	81.69
813.786	81.71
813.96	85.81
814.134	83.8
814.308	81.87
814.482	79.39
814.656	78.39
814.83	79.9
815.003	78.3
815.177	74.86
815.351	80.65
815.525	79.42
815.698	79.22
815.872	72.91
816.046	70.41
816.219	70.1
816.393	63.75
816.567	58.31
816.74	63.34
816.914	63.96
817.088	64.26
817.261	66.61
817.435	66.12
817.608	70.65
817.782	78.88
817.955	77.59
818.129	86.1
818.302	85.06
818.475	86.69
818.649	82.2
818.822	89.21
818.996	85.03
819.169	83.41
819.342	74.31
819.516	79.01
819.689	78.28
819.862	78.23
820.035	68.85
820.209	67.93
820.382	65.7
820.555	64.82
820.728	57.03
820.901	58.53
821.075	66.49
821.248	67.61
821.421	66.67
821.594	70.29
821.767	72.38
821.94	67.68
822.113	67.03
822.286	66.82
822.459	76.98
822.632	80.9
822.805	78.15
822.978	72.52
823.151	83.8
823.324	77.16
823.496	64
823.669	59.3
823.842	53.75
824.015	52.4
824.188	62.35
824.361	60.46
824.533	69.38
824.706	90.42
824.879	85.9
825.051	94.27
825.224	92.14
825.397	83.31
825.569	81.29
825.742	76.88
825.915	70.75
826.087	67.65
826.26	65.73
826.432	70.23
826.605	70.73
826.777	71.76
826.95	71.29
827.122	74.37
827.295	78.71
827.467	71.99
827.64	59.94
827.812	61.53
827.984	60.99
828.157	62.97
828.329	57.14
828.501	62.55
828.674	63.91
828.846	71.11
829.018	66.49
829.19	64.65
829.363	68.84
829.535	68.06
829.707	55.44
829.879	59.46
830.051	56.45
830.223	53.92
830.395	51.18
830.568	47.36
830.74	51.62
830.912	56.96
831.084	54.66
831.256	59.86
831.428	64.07
831.6	70
831.772	69.47
831.943	72.8
832.115	73.05
832.287	76.23
832.459	74.88
832.631	77.2
832.803	85.21
832.975	81.45
833.146	78.32
833.318	82.72
833.49	84.83
833.662	76.17
833.833	79.43
834.005	76.97
834.177	80.25
834.348	66.17
834.52	65.81
834.692	66.55
834.863	70.69
835.035	64.44
835.206	57.27
835.378	53.74
835.549	69.64
835.721	62.83
835.892	60.21
836.064	70.74
836.235	75.13
836.407	74.83
836.578	79.24
836.749	83.81
836.921	87.29
837.092	89.46
837.264	70.43
837.435	58.68
837.606	61.98
837.777	59.91
837.949	49.63
838.12	46.87
838.291	52.37
838.462	62.1
838.633	60.47
838.805	53.75
838.976	52.63
839.147	48.51
839.318	45.01
839.489	41.43
839.66	39.27
839.831	42.48
840.002	48.6
840.173	50.61
840.344	60.69
840.515	66.02
840.686	65.76
840.857	57.96
841.028	69.8
841.199	61.4
841.369	66.4
841.54	66.37
841.711	69.42
841.882	74.21
842.053	85.42
842.223	73.89
842.394	82.72
842.565	86.61
842.736	92.07
842.906	95.81
843.077	86.27
843.248	84.89
843.418	87.52
843.589	82.81
843.759	66.52
843.93	68.65
844.101	68.69
844.271	64.89
844.442	68.76
844.612	58.39
844.783	43.56
844.953	40.29
845.123	48.04
845.294	46.56
845.464	50.53
845.635	55.01
845.805	62.92
845.975	68.24
846.146	64.01
846.316	72.78
846.486	78.09
846.656	92.35
846.827	78.91
846.997	91.59
847.167	96.83
847.337	113.32
847.507	96.84
847.677	87.95
847.848	72.34
848.018	78.62
848.188	60.8
848.358	65.56
848.528	57.71
848.698	57.09
848.868	62.56
849.038	70.77
849.208	70.84
849.378	76.24
849.548	77.43
849.718	83.46
849.887	72.62
850.057	69.98
850.227	67.84
850.397	66.72
850.567	86
850.737	74.4
850.906	59.67
851.076	62.95
851.246	61.52
851.415	68.93
851.585	61.33
851.755	54.43
851.924	64.86
852.094	61.46
852.264	68.94
852.433	80.29
852.603	84.98
852.772	83.72
852.942	65.39
853.111	71.92
853.281	74.22
853.45	63.2
853.62	55.19
853.789	56.49
853.959	64.97
854.128	61.3
854.297	48.23
854.467	61.59
854.636	69.49
854.805	72.71
854.975	69.28
855.144	85.78
855.313	108.28
855.482	107.53
855.652	99.65
855.821	93.2
855.99	104.93
856.159	86.92
856.328	64.53
856.497	61.96
856.667	62.42
856.836	63.74
857.005	70.77
857.174	64.38
857.343	65.07
857.512	42.64
857.681	31.15
857.85	13.49
858.019	11.67
858.188	8.34
858.356	-10.81
858.525	16.21
858.694	41.07
858.863	47.56
859.032	61.84
859.201	63.58
859.369	62.02
859.538	57.9
859.707	58.8
859.876	59.45
860.044	65.65
860.213	60.64
860.382	59.23
860.55	65.55
860.719	86.43
860.888	77.19
861.056	93.91
861.225	108.58
861.393	100.94
861.562	102.96
861.73	86.39
861.899	78.61
862.067	89.14
862.236	63.66
862.404	51.02
862.572	43.24
862.741	45.75
862.909	39.45
863.078	34.79
863.246	21.77
863.414	36.71
863.582	38.63
863.751	42.04
863.919	49.65
864.087	53.18
864.255	53.09
864.424	55.31
864.592	55.06
864.76	67.45
864.928	69.47
865.096	62.98
865.264	75.2
865.432	83.58
865.6	76.78
865.768	52.4
865.936	41.8
866.104	59.14
866.272	37.4
866.44	4.57
866.608	-19.22
866.776	23.5
866.944	55.84
867.112	21.29
867.28	0.16
867.448	28.44
867.615	56.04
867.783	49.46
867.951	19.11
868.119	51.57
868.286	66.98
868.454	54.27
868.622	59.96
868.789	53.86
868.957	61.32
869.125	63.98
869.292	53.5
869.46	57.01
869.627	64.83
869.795	53.76
869.963	62.53
870.13	79.4
870.298	82.95
870.465	59.22
870.632	79.61
870.8	69.74
870.967	62.75
871.135	58.22
871.302	47.01
871.469	35.48
871.637	39.22
871.804	29.91
871.971	31.33
872.139	29.95
872.306	4.48
872.473	-19.83
872.64	-11.98
872.807	0.12
872.975	28.73
873.142	0.42
873.309	31.5
873.476	189.41
873.643	260.36
873.81	239.67
873.977	101.46
874.144	52.24
874.311	27.29
874.478	-62.06
874.645	-77.6
874.812	-31.57
874.979	-32.25
875.146	-14.9
875.313	-37.97
875.48	109.52
875.647	151.3
875.813	86.31
875.98	22.79
876.147	32.51
876.314	30.9
876.481	39.4
876.647	23.7
876.814	32.93
876.981	36.53
877.147	23.02
877.314	17.84
877.481	33.21
877.647	31.99
877.814	13.72
877.98	16.62
878.147	27.25
878.314	35.51
878.48	54.18
878.647	71.34
878.813	85.21
878.979	99.98
879.146	77.01
879.312	95.77
879.479	103.56
879.645	69.65
879.811	45.87
879.978	36.74
880.144	52.78
880.31	37.85
880.477	3.69
880.643	-107.35
880.809	36.14
880.975	14.08
881.142	28.11
881.308	18.66
881.474	91
881.64	49.35
881.806	71.09
881.972	73.04
882.138	90.53
882.304	37.85
882.47	25.62
882.636	-39.11
882.802	-26.5
882.968	-133.66
883.134	-252.53
883.3	-62.44
883.466	43.57
883.632	26.72
883.798	42.61
883.964	32.78
884.129	51.95
884.295	42.39
884.461	20.21
884.627	-3.03
884.793	17.62
884.958	18.73
885.124	-21.86
885.29	2.81
885.455	29.77
885.621	20.07
885.787	23.58
885.952	23.12
886.118	35.34
886.283	64.42
886.449	48.15
886.614	72.39
886.78	83.31
886.945	74.43
887.111	97.49
887.276	77.95
887.442	61.6
887.607	95.23
887.773	39.74
887.938	52.45
888.103	54.2
888.269	53.73
888.434	54.28
888.599	61.3
888.764	41.3
888.93	58.05
889.095	31.91
889.26	62.33
889.425	61.03
889.59	50.32
889.756	56.27
889.921	44.62
890.086	65.9
890.251	60.13
890.416	-15.11
890.581	-4.14
890.746	6.21
890.911	-80.62
891.076	-71.4
891.241	-107.25
891.406	-5.28
891.571	17.08
891.736	9.27
891.901	32.94
892.065	94.29
892.23	74.58
892.395	43.18
892.56	29.86
892.725	56.83
892.889	-0.65
893.054	-77.51
893.219	-186.68
893.384	-297.85
893.548	-774.17
893.713	1376.98
893.878	889.67
