Data from Ofra_PS_T2_1A_9CX06_Reflection_3.txt Node
Date: Wed Jul 21 18:18:58 EDT 2021
User: Adam
Spectrometer: FLMT01687
Trigger mode: 0
Integration Time (sec): 1.100000E0
Scans to average: 2
Electric dark correction enabled: true
Nonlinearity correction enabled: false
Boxcar width: 2
XAxis mode: Wavelengths
Number of Pixels in Spectrum: 3648
>>>>>Begin Spectral Data<<<<<
179.494	509.8
179.716	544.71
179.937	489.36
180.158	467.31
180.38	768.91
180.601	271.96
180.823	108.25
181.044	71.21
181.265	222.98
181.486	13.74
181.708	54.1
181.929	122.96
182.15	-190.49
182.372	129.65
182.593	44.86
182.814	31.97
183.035	54.74
183.257	39.59
183.478	-50.48
183.699	2.55
183.92	-7.44
184.141	-27.98
184.363	-36.17
184.584	2.27
184.805	-11.11
185.026	13.14
185.247	34.71
185.468	21.68
185.689	24.17
185.91	35.24
186.132	37.75
186.353	22.22
186.574	48.33
186.795	34.89
187.016	-30.58
187.237	-46.57
187.458	-68.01
187.679	-45.83
187.9	-25.93
188.121	-1.14
188.342	24.7
188.563	35.47
188.784	10.93
189.005	-22.74
189.226	-17.01
189.447	-45.57
189.667	-361.29
189.888	-424.26
190.109	-1301.62
190.33	-621.45
190.551	-1181.64
190.772	-247.03
190.993	-187.65
191.214	-71.45
191.434	-38.45
191.655	40.46
191.876	41.52
192.097	-10.53
192.318	-115.63
192.538	-185.7
192.759	-148.84
192.98	-64.71
193.201	-29.51
193.421	-1.68
193.642	34.13
193.863	36.14
194.083	28.46
194.304	15.72
194.525	14.02
194.745	-27.65
194.966	-60.45
195.187	-77.08
195.407	-82.01
195.628	-124.11
195.848	-131.91
196.069	-92.93
196.29	-62.77
196.51	-70.77
196.731	-64.65
196.951	-76.04
197.172	-93.18
197.392	-115.13
197.613	-109.98
197.833	-137.56
198.054	-110.22
198.274	-55.57
198.495	-65.68
198.715	-40.32
198.936	-54.89
199.156	-56.34
199.377	-129.36
199.597	-109.64
199.817	-111.19
200.038	-23.41
200.258	-31.42
200.479	11.63
200.699	21.16
200.919	43.27
201.14	-6.96
201.36	-55.61
201.58	-3.8
201.801	20.92
202.021	-19.76
202.241	-25.28
202.461	-4.45
202.682	-96.24
202.902	-165.99
203.122	-61.85
203.342	-43.31
203.563	-9.74
203.783	17.86
204.003	-11.52
204.223	-53.44
204.443	24.07
204.663	9.43
204.884	10.24
205.104	49.6
205.324	79.24
205.544	54.46
205.764	55.68
205.984	52.97
206.204	49.4
206.424	31.9
206.644	-21.43
206.864	-33.56
207.084	-105.53
207.304	-83.68
207.525	-233.52
207.745	-86.73
207.964	-13.38
208.184	-49.61
208.404	-96.04
208.624	-92.81
208.844	-95.67
209.064	-394.07
209.284	-406.54
209.504	-189.73
209.724	-49.43
209.944	-32.18
210.164	4.39
210.384	34.36
210.604	23.92
210.823	-23.02
211.043	-40.31
211.263	-19.51
211.483	-14.6
211.703	-54.94
211.922	-2.22
212.142	64.91
212.362	74.15
212.582	32.16
212.801	27.65
213.021	-10.28
213.241	-49.93
213.461	-79.69
213.68	-101.83
213.9	-41.32
214.12	-12.63
214.339	-78.42
214.559	-36.07
214.779	11.77
214.998	-0.69
215.218	-30.62
215.438	6.25
215.657	-31.08
215.877	-58.74
216.096	-44.32
216.316	-31.79
216.535	-30.25
216.755	-9.12
216.974	-52.29
217.194	-35.67
217.413	-43.72
217.633	-53.77
217.852	-139.4
218.072	-39.35
218.291	-23.45
218.511	12.21
218.73	-9.37
218.95	6.51
219.169	2.54
219.389	-22.64
219.608	-15.85
219.827	-2.92
220.047	-3.3
220.266	-10.9
220.485	-13.24
220.705	-8.56
220.924	-17.05
221.143	20.19
221.363	4.5
221.582	18.19
221.801	9.8
222.021	29.44
222.24	-44.87
222.459	17.51
222.678	-45.24
222.897	-93.55
223.117	-135.48
223.336	-104
223.555	-83.28
223.774	-28.53
223.993	-30.63
224.213	11.42
224.432	-7.61
224.651	19.77
224.87	1.26
225.089	24.74
225.308	22.94
225.527	43.4
225.746	36.54
225.965	33.65
226.184	0.96
226.404	8.62
226.623	-8.82
226.842	-5.08
227.061	17.58
227.28	27.7
227.499	7.1
227.718	12.09
227.936	-6.05
228.155	-20.76
228.374	-26.02
228.593	3.54
228.812	-11.79
229.031	1.44
229.25	-22.84
229.469	-46.16
229.688	-70.67
229.907	-18.07
230.125	-9.01
230.344	-14.37
230.563	5.8
230.782	22.89
231.001	-58.56
231.22	-50.17
231.438	-4.91
231.657	6.76
231.876	-1.16
232.095	43.76
232.313	59.57
232.532	39.23
232.751	-22.34
232.969	-31.01
233.188	-104.72
233.407	-57.24
233.625	-11.57
233.844	6.84
234.063	12.85
234.281	30.79
234.5	13.3
234.719	-4.18
234.937	13.46
235.156	22.73
235.374	21.3
235.593	17.62
235.811	19.75
236.03	1.73
236.249	-52.02
236.467	-48.19
236.686	-7.08
236.904	9.38
237.123	-1.49
237.341	3.06
237.559	7.6
237.778	-8.43
237.996	-25.1
238.215	21.75
238.433	21.26
238.652	10.22
238.87	-16.01
239.088	-10.17
239.307	-32.44
239.525	-42.55
239.743	-48.43
239.962	-33.9
240.18	-59.19
240.398	-87.06
240.617	-73.02
240.835	-57.22
241.053	-29.48
241.271	24.7
241.49	36.31
241.708	22.36
241.926	3.43
242.144	-0.33
242.363	-47.63
242.581	-74.6
242.799	-44.93
243.017	-10.65
243.235	-37.52
243.453	-23.6
243.672	-23.93
243.89	-16.03
244.108	-26.77
244.326	-10.02
244.544	-6.33
244.762	-2.38
244.98	-3.65
245.198	4.34
245.416	-18.01
245.634	-16.9
245.852	-25.22
246.07	-21.77
246.288	-29.72
246.506	-40.38
246.724	-36.05
246.942	-23.86
247.16	6.17
247.378	6.88
247.596	22.71
247.814	23.13
248.032	0.88
248.25	-4.08
248.468	6.35
248.685	16.9
248.903	29.16
249.121	40.07
249.339	15.94
249.557	4.77
249.775	11.85
249.992	-39.79
250.21	-53.87
250.428	-37.11
250.646	-66.59
250.863	-75.12
251.081	-34.54
251.299	-17.27
251.517	-9.02
251.734	0.67
251.952	-7.91
252.17	-20.69
252.387	-1.85
252.605	-13.29
252.823	-10.35
253.04	3.73
253.258	17.55
253.475	-10.47
253.693	3.83
253.911	21.13
254.128	19.67
254.346	20.5
254.563	-4.24
254.781	-5.44
254.998	-29.14
255.216	-53.73
255.433	-49.82
255.651	4.45
255.868	12.02
256.086	49.33
256.303	53.59
256.521	33.28
256.738	6.89
256.956	-30.22
257.173	-72.23
257.39	-84.99
257.608	-78.38
257.825	12.26
258.043	54.46
258.26	53.63
258.477	81.99
258.695	82.1
258.912	-2.79
259.129	3.93
259.346	-23.84
259.564	-48.6
259.781	-75.6
259.998	-12.39
260.216	8.24
260.433	35.74
260.65	25.81
260.867	20
261.084	-8.73
261.302	-37.85
261.519	-32.59
261.736	-49.03
261.953	-51.34
262.17	-10.63
262.387	-24.31
262.604	-41.4
262.822	-42.92
263.039	-20.92
263.256	-69.28
263.473	-52.59
263.69	-38.81
263.907	4.62
264.124	13.31
264.341	16.54
264.558	21
264.775	32.41
264.992	4.25
265.209	-2.21
265.426	12.31
265.643	6.38
265.86	4.08
266.077	19.92
266.294	20.33
266.51	-3.67
266.727	-14.04
266.944	-22.9
267.161	-8.29
267.378	-10.91
267.595	27.26
267.812	14.73
268.028	0.97
268.245	-7.52
268.462	-26.52
268.679	-47.49
268.896	3.96
269.112	18.52
269.329	18.85
269.546	19.97
269.763	15.88
269.979	0.55
270.196	4.25
270.413	-18.73
270.629	-20.07
270.846	-28.52
271.063	-12.53
271.279	-34.73
271.496	-22.68
271.712	-4.31
271.929	18.62
272.146	-39.15
272.362	-38.75
272.579	-23.48
272.795	-16.96
273.012	-14.1
273.228	24.21
273.445	7.52
273.661	-12.83
273.878	-29.33
274.094	-40.33
274.311	-76.16
274.527	-3.29
274.744	2.46
274.96	4.76
275.177	21.29
275.393	34.61
275.609	22.72
275.826	39.37
276.042	42.3
276.259	30.4
276.475	29.4
276.691	26.75
276.908	2.02
277.124	15.06
277.34	14.3
277.557	14.09
277.773	14.05
277.989	17.03
278.205	6.4
278.422	22.83
278.638	22.82
278.854	22.94
279.07	37.43
279.286	28.82
279.503	-8.92
279.719	-5.02
279.935	-16.44
280.151	-54.59
280.367	-22.63
280.583	-25.52
280.799	-33.62
281.016	-52.09
281.232	-8.56
281.448	-4.25
281.664	14.43
281.88	-3.19
282.096	25.77
282.312	33.64
282.528	33.5
282.744	34.8
282.96	42.22
283.176	11.72
283.392	10.39
283.608	-4.81
283.824	-15.37
284.04	-19.22
284.256	-13.71
284.471	-28.89
284.687	-26.37
284.903	4.15
285.119	38.39
285.335	16.34
285.551	17.43
285.767	1.01
285.982	-30.6
286.198	-94.01
286.414	-20.84
286.63	4.81
286.846	26.56
287.061	13.06
287.277	47.6
287.493	20.63
287.709	36.12
287.924	21.7
288.14	58.12
288.356	30.34
288.571	42.18
288.787	16.12
289.003	13.08
289.218	-5.49
289.434	-22.19
289.65	-11.78
289.865	-24.88
290.081	0.9
290.296	-4.74
290.512	7.49
290.727	-25.37
290.943	-23.17
291.159	-43.22
291.374	-45.59
291.59	-65.44
291.805	-51.83
292.021	-39.78
292.236	-45.4
292.451	-20.4
292.667	-7.52
292.882	-4.16
293.098	-8.28
293.313	-1.18
293.529	-31.51
293.744	-42.31
293.959	-41.93
294.175	-41.16
294.39	-10.63
294.605	5.33
294.821	27.56
295.036	27.79
295.251	48.55
295.467	7.39
295.682	1.84
295.897	-59.61
296.112	-52.04
296.328	-79.28
296.543	-64.83
296.758	-68.46
296.973	-11.55
297.188	18.22
297.404	5.82
297.619	-10.61
297.834	-20.06
298.049	-50.99
298.264	-78.93
298.479	-24.39
298.694	-8.18
298.909	7.02
299.125	17.58
299.34	24.49
299.555	-4.57
299.77	0.37
299.985	-23.91
300.2	-67.06
300.415	-72.42
300.63	-38.23
300.845	-48.56
301.06	-46.93
301.275	-3.79
301.49	-2.7
301.704	-8.12
301.919	-17.01
302.134	-30.54
302.349	-56.96
302.564	-112.64
302.779	-130.23
302.994	-108.66
303.209	-69.86
303.423	-16.25
303.638	31.05
303.853	-15.63
304.068	-27.07
304.283	-8.61
304.497	-7.73
304.712	-17.48
304.927	-3.36
305.142	-0.15
305.356	-1.87
305.571	-5.36
305.786	-20.62
306	-22.32
306.215	-10.23
306.43	-21.82
306.644	-32.01
306.859	11.95
307.074	12.09
307.288	-29.34
307.503	-49.04
307.717	-40.65
307.932	-56.25
308.147	-51.88
308.361	-22.05
308.576	-18.18
308.79	-42.34
309.005	-18.43
309.219	-10.39
309.434	-26.63
309.648	-14.18
309.863	7.22
310.077	3.33
310.292	-8.31
310.506	8.11
310.72	5.42
310.935	10.75
311.149	5.08
311.364	26.2
311.578	32.7
311.792	22.38
312.007	11.36
312.221	10.57
312.435	4.84
312.649	-13.6
312.864	19.17
313.078	48.32
313.292	100.34
313.507	85.92
313.721	115.16
313.935	40.68
314.149	27.97
314.363	6.57
314.578	3.44
314.792	3.32
315.006	-0.16
315.22	12.39
315.434	13.35
315.648	26.42
315.862	27.54
316.077	24.02
316.291	4.07
316.505	17.18
316.719	-12.38
316.933	-15.55
317.147	-12.81
317.361	-54.26
317.575	-85.28
317.789	-104.6
318.003	-177.74
318.217	-146.88
318.431	-49.18
318.645	-4.09
318.859	5.4
319.073	25.38
319.287	7.05
319.5	-35.19
319.714	-73.83
319.928	-118.79
320.142	-141.31
320.356	-83.3
320.57	-13.8
320.784	-27.38
320.997	3.04
321.211	0.89
321.425	-54.13
321.639	-89.86
321.853	-29.68
322.066	-13.48
322.28	-3.79
322.494	2.52
322.707	13.07
322.921	-2.81
323.135	-7.25
323.349	-9.89
323.562	-25.98
323.776	-33.85
323.989	-18.01
324.203	-32.32
324.417	-36.55
324.63	-25.71
324.844	-19.23
325.057	-42.52
325.271	-31.04
325.485	-6.61
325.698	4.67
325.912	9.11
326.125	-2.24
326.339	0.74
326.552	-12.52
326.766	-23.66
326.979	-4.47
327.193	23.1
327.406	-5.73
327.619	-8.31
327.833	4.34
328.046	-25.33
328.26	-60.75
328.473	-27.46
328.686	-67.09
328.9	-67.61
329.113	-52.05
329.326	-69.06
329.54	-46.51
329.753	-50.43
329.966	-60.08
330.179	-45.17
330.393	-12.89
330.606	-23.21
330.819	1.14
331.032	15.25
331.246	14.7
331.459	27.41
331.672	22.11
331.885	21.93
332.098	6.68
332.311	8.73
332.525	-30.71
332.738	-16.15
332.951	11.54
333.164	24.21
333.377	28.73
333.59	52.39
333.803	54.42
334.016	45.76
334.229	33.78
334.442	30.49
334.655	16.87
334.868	14.16
335.081	-12
335.294	-15.45
335.507	-21.91
335.72	-11.11
335.933	-15.89
336.146	-24.94
336.359	-23.23
336.572	-45.58
336.785	-85.64
336.997	-66.46
337.21	-24.33
337.423	-14.48
337.636	-15.67
337.849	-0.01
338.062	-9.08
338.274	-13.68
338.487	-30.05
338.7	-29.41
338.913	-48.6
339.125	-81.76
339.338	-117.24
339.551	-88.52
339.763	-49.7
339.976	-30.74
340.189	-8.21
340.402	-7.42
340.614	-15.22
340.827	-20.95
341.039	-28.28
341.252	-24.56
341.465	-7.85
341.677	-10.71
341.89	-38.41
342.102	-12.17
342.315	-33.49
342.527	-71.07
342.74	-66.8
342.952	-39.02
343.165	-32.13
343.377	14.88
343.59	23.37
343.802	42.12
344.015	52.54
344.227	48.58
344.44	22.45
344.652	12.64
344.864	-7.37
345.077	8.48
345.289	17.04
345.502	22.34
345.714	17.23
345.926	25.91
346.139	21.13
346.351	14.38
346.563	14.37
346.775	33.85
346.988	24.48
347.2	15.16
347.412	-15.14
347.624	-19.66
347.837	-48.03
348.049	-27.36
348.261	4.08
348.473	30.36
348.685	26.21
348.897	10.99
349.11	-1.73
349.322	-25.38
349.534	-22.97
349.746	-27.17
349.958	-18.25
350.17	-6.87
350.382	10.03
350.594	-23.08
350.806	-11.8
351.018	9.05
351.23	-12.73
351.442	-57.11
351.654	-45.49
351.866	-38.94
352.078	-42.67
352.29	-1.68
352.502	17.51
352.714	25.86
352.926	16.59
353.138	16.15
353.35	-0.38
353.561	-2.79
353.773	-13.92
353.985	-0.25
354.197	-2.33
354.409	-5.89
354.621	-15
354.832	2.7
355.044	-14.02
355.256	-27.47
355.468	-17.81
355.679	-25.69
355.891	-26.36
356.103	-42.24
356.314	-22.41
356.526	-6.36
356.738	0.35
356.949	-25.56
357.161	-10.5
357.373	-15.96
357.584	-37.12
357.796	-17.84
358.008	-6.26
358.219	17.7
358.431	22.51
358.642	33.25
358.854	19.15
359.065	5.53
359.277	-24.9
359.488	-43.42
359.7	-61.89
359.911	-52.97
360.123	-39.38
360.334	-47.26
360.546	-48.84
360.757	-41.58
360.969	-41.42
361.18	-37.2
361.391	-4.64
361.603	-13.67
361.814	-9.93
362.025	-2.59
362.237	-3.93
362.448	5.46
362.659	26.15
362.871	22.77
363.082	5.97
363.293	6.49
363.504	-7.99
363.716	-24.12
363.927	-39.58
364.138	-48.14
364.349	-62
364.56	-59.89
364.772	-58.37
364.983	-33.63
365.194	-26.16
365.405	-8.99
365.616	3.3
365.827	6.04
366.038	-15.83
366.25	-13.84
366.461	-40.25
366.672	-19.99
366.883	-8.25
367.094	6.47
367.305	-0.61
367.516	10.76
367.727	-15.34
367.938	-27.84
368.149	-34.05
368.36	-20.9
368.571	-18.85
368.781	-30.61
368.992	-38.32
369.203	-57.18
369.414	-75.19
369.625	-87.52
369.836	-68.18
370.047	-84.18
370.258	-57.5
370.468	-47.66
370.679	-53.44
370.89	-54.85
371.101	-42.19
371.312	-37.09
371.522	-39.22
371.733	-28.38
371.944	-6.71
372.155	6.12
372.365	-2.34
372.576	-2.51
372.787	-6.76
372.997	-29.7
373.208	-32.06
373.419	-13.96
373.629	-41.09
373.84	-40.9
374.05	-50.04
374.261	-40.75
374.472	-50.82
374.682	3.08
374.893	3.61
375.103	29.86
375.314	27.06
375.524	22.5
375.735	10.43
375.945	17.55
376.156	-7.27
376.366	-7.34
376.577	-7.09
376.787	-10.47
376.997	-10.96
377.208	-2.67
377.418	-8.32
377.629	-3.79
377.839	-4.2
378.049	2.77
378.26	15.64
378.47	18.48
378.68	8.97
378.89	4.98
379.101	-7.98
379.311	-34.65
379.521	-56.49
379.732	-48.3
379.942	-37.72
380.152	-46.06
380.362	-20.47
380.572	-15.13
380.783	2.07
380.993	-7.87
381.203	3.54
381.413	18.9
381.623	22.95
381.833	9.04
382.043	13.15
382.253	1.56
382.463	-11.55
382.674	-21.2
382.884	-35.01
383.094	-36.55
383.304	-23.01
383.514	-19.43
383.724	-6.52
383.934	-3.29
384.144	-15.1
384.353	-29.5
384.563	-27.56
384.773	-26.03
384.983	-30.9
385.193	-6.55
385.403	5.06
385.613	5.99
385.823	-5.11
386.033	-1.02
386.242	-9.3
386.452	-17.64
386.662	-24.52
386.872	-10.38
387.082	-15.59
387.291	-21.19
387.501	-13.86
387.711	-12.07
387.921	-14.81
388.13	-10.32
388.34	1.03
388.55	-4.85
388.759	-5.49
388.969	-1.02
389.179	-4.76
389.388	-6.13
389.598	2.67
389.807	-0.58
390.017	-6.04
390.227	-0.05
390.436	-2
390.646	-5.93
390.855	-2.04
391.065	0.18
391.274	-4.66
391.484	-6.58
391.693	-2.11
391.903	-1.58
392.112	1.96
392.322	3.35
392.531	8.32
392.74	7.51
392.95	3.5
393.159	0.31
393.369	0.52
393.578	-1.22
393.787	-2.45
393.997	-1.12
394.206	-2.9
394.415	-3.08
394.625	-3.25
394.834	-5.02
395.043	-3.47
395.252	-0.61
395.462	2.34
395.671	2.47
395.88	3.05
396.089	2.74
396.298	0.87
396.508	-0.28
396.717	-1.02
396.926	-0.21
397.135	-0.73
397.344	-0.32
397.553	-0.24
397.762	1.03
397.971	1
398.181	1.13
398.39	0.39
398.599	-0.12
398.808	-0.04
399.017	0.61
399.226	1.85
399.435	3.4
399.644	3.83
399.853	2.95
400.062	2.72
400.27	1.98
400.479	1.18
400.688	0.74
400.897	1.45
401.106	1.44
401.315	1.46
401.524	1.5
401.733	2.11
401.941	2.32
402.15	2.33
402.359	2.44
402.568	2.76
402.777	2.77
402.985	2.29
403.194	2.09
403.403	1.98
403.612	1.61
403.82	1.33
404.029	1.72
404.238	1.87
404.446	2.08
404.655	2.01
404.864	2.03
405.072	1.65
405.281	1.58
405.489	1.43
405.698	1.42
405.906	1.52
406.115	1.67
406.324	1.62
406.532	1.86
406.741	2.06
406.949	1.99
407.158	1.96
407.366	2.03
407.574	1.82
407.783	2.02
407.991	1.89
408.2	1.99
408.408	1.91
408.617	1.88
408.825	1.63
409.033	1.76
409.242	1.82
409.45	1.93
409.658	1.82
409.867	1.92
410.075	1.79
410.283	1.69
410.491	1.6
410.7	1.61
410.908	1.71
411.116	2
411.324	1.97
411.533	1.94
411.741	2.17
411.949	2.03
412.157	1.82
412.365	1.79
412.573	1.77
412.781	1.83
412.99	1.84
413.198	1.99
413.406	2.05
413.614	2.19
413.822	1.95
414.03	1.83
414.238	1.64
414.446	1.65
414.654	1.37
414.862	1.55
415.07	1.66
415.278	1.76
415.486	1.52
415.694	1.75
415.902	1.53
416.109	1.34
416.317	1.28
416.525	1.37
416.733	1.29
416.941	1.46
417.149	1.55
417.357	1.57
417.564	1.78
417.772	2.01
417.98	1.88
418.188	1.89
418.395	1.88
418.603	1.97
418.811	1.52
419.019	1.63
419.226	1.74
419.434	1.88
419.642	1.5
419.849	1.71
420.057	1.5
420.265	1.49
420.472	1.3
420.68	1.4
420.887	1.4
421.095	1.67
421.302	1.6
421.51	1.84
421.717	1.96
421.925	2
422.132	1.85
422.34	1.67
422.547	1.56
422.755	1.42
422.962	1.29
423.17	1.2
423.377	1.29
423.585	1.28
423.792	1.23
423.999	1.2
424.207	1.25
424.414	1.31
424.621	1.28
424.829	1.33
425.036	1.4
425.243	1.59
425.451	1.54
425.658	1.45
425.865	1.55
426.072	1.64
426.28	1.77
426.487	1.86
426.694	1.93
426.901	1.84
427.108	1.68
427.315	1.52
427.523	1.7
427.73	1.52
427.937	1.43
428.144	1.3
428.351	1.18
428.558	1.22
428.765	1.28
428.972	1.16
429.179	1.38
429.386	1.7
429.593	1.35
429.8	1.31
430.007	1.59
430.214	1.71
430.421	1.45
430.628	1.34
430.835	1.31
431.042	1.36
431.249	1.4
431.456	1.4
431.662	1.58
431.869	1.76
432.076	1.75
432.283	1.76
432.49	1.8
432.697	1.71
432.903	1.43
433.11	1.33
433.317	1.28
433.524	1.38
433.73	1.46
433.937	1.78
434.144	1.71
434.35	1.7
434.557	1.54
434.764	1.57
434.97	1.39
435.177	1.56
435.384	1.42
435.59	1.54
435.797	1.83
436.003	1.91
436.21	1.88
436.416	2.05
436.623	2.06
436.829	1.93
437.036	1.93
437.242	1.97
437.449	1.85
437.655	1.85
437.862	1.78
438.068	1.8
438.275	1.85
438.481	2.05
438.687	1.95
438.894	1.93
439.1	1.91
439.307	2.06
439.513	1.95
439.719	1.95
439.926	2.01
440.132	1.96
440.338	1.77
440.544	1.93
440.751	1.95
440.957	2.07
441.163	2.05
441.369	2.2
441.575	1.96
441.782	1.96
441.988	1.8
442.194	1.82
442.4	1.73
442.606	2.01
442.812	2.17
443.018	2.22
443.224	2.24
443.431	2.31
443.637	2.13
443.843	1.88
444.049	1.93
444.255	1.89
444.461	1.78
444.667	1.76
444.873	1.95
445.079	1.88
445.284	2.05
445.49	1.89
445.696	1.73
445.902	1.69
446.108	1.69
446.314	1.53
446.52	1.68
446.726	2.01
446.931	1.99
447.137	2.06
447.343	2.14
447.549	2.12
447.755	1.95
447.96	1.99
448.166	1.93
448.372	1.92
448.578	1.91
448.783	1.97
448.989	2.05
449.195	2.27
449.4	2.24
449.606	2.22
449.812	2.1
450.017	2
450.223	1.86
450.428	1.83
450.634	2.01
450.84	2.18
451.045	2.14
451.251	2.06
451.456	2.35
451.662	2.35
451.867	2.38
452.073	2.4
452.278	2.54
452.483	2.48
452.689	2.38
452.894	2.27
453.1	2.34
453.305	2.16
453.51	2.07
453.716	2
453.921	2.1
454.127	2.02
454.332	2.04
454.537	2.02
454.742	2.07
454.948	1.93
455.153	2.04
455.358	2.12
455.563	2.29
455.769	2.46
455.974	2.49
456.179	2.37
456.384	2.4
456.589	2.28
456.795	2.03
457	2.09
457.205	2.26
457.41	2.18
457.615	2.15
457.82	2.24
458.025	2.23
458.23	2.07
458.435	2.2
458.64	2.16
458.845	2.31
459.05	2.24
459.255	2.26
459.46	2.16
459.665	2.17
459.87	2.09
460.075	2.14
460.28	2.2
460.485	2.33
460.69	2.36
460.895	2.25
461.099	2.19
461.304	2.24
461.509	2.18
461.714	2.1
461.919	2.26
462.123	2.27
462.328	2.31
462.533	2.19
462.738	2.31
462.942	2.2
463.147	2.28
463.352	2.28
463.556	2.42
463.761	2.45
463.966	2.44
464.17	2.45
464.375	2.33
464.58	2.26
464.784	2.15
464.989	2.16
465.193	2.08
465.398	2.13
465.602	2.23
465.807	2.28
466.011	2.25
466.216	2.35
466.42	2.4
466.625	2.41
466.829	2.49
467.034	2.56
467.238	2.66
467.443	2.63
467.647	2.48
467.851	2.47
468.056	2.57
468.26	2.44
468.464	2.42
468.669	2.56
468.873	2.67
469.077	2.64
469.282	2.73
469.486	2.82
469.69	2.83
469.894	2.71
470.099	2.76
470.303	2.82
470.507	2.69
470.711	2.59
470.915	2.57
471.119	2.43
471.324	2.35
471.528	2.4
471.732	2.48
471.936	2.51
472.14	2.71
472.344	2.71
472.548	2.76
472.752	2.86
472.956	3.02
473.16	2.94
473.364	2.91
473.568	2.91
473.772	2.91
473.976	2.75
474.18	2.74
474.384	2.81
474.588	2.77
474.792	2.64
474.995	2.73
475.199	2.8
475.403	2.91
475.607	2.98
475.811	3.01
476.015	3.02
476.218	3.06
476.422	2.95
476.626	2.97
476.83	3.08
477.033	3.04
477.237	2.95
477.441	3.07
477.644	3.08
477.848	3.08
478.052	3.05
478.255	3.09
478.459	3.03
478.663	3.11
478.866	3.12
479.07	3.17
479.273	3.28
479.477	3.34
479.681	3.29
479.884	3.23
480.088	3.17
480.291	3.09
480.495	3.04
480.698	3.05
480.901	3.09
481.105	3.24
481.308	3.21
481.512	3.19
481.715	3.2
481.919	3.24
482.122	3.21
482.325	3.26
482.529	3.26
482.732	3.24
482.935	3.12
483.138	3.09
483.342	3.07
483.545	3.18
483.748	3.19
483.952	3.31
484.155	3.44
484.358	3.5
484.561	3.39
484.764	3.37
484.967	3.43
485.171	3.39
485.374	3.39
485.577	3.53
485.78	3.53
485.983	3.45
486.186	3.4
486.389	3.36
486.592	3.29
486.795	3.39
486.998	3.37
487.201	3.42
487.404	3.45
487.607	3.58
487.81	3.55
488.013	3.61
488.216	3.57
488.419	3.6
488.622	3.5
488.825	3.5
489.028	3.49
489.231	3.52
489.433	3.5
489.636	3.41
489.839	3.4
490.042	3.34
490.245	3.3
490.447	3.31
490.65	3.31
490.853	3.28
491.056	3.35
491.258	3.41
491.461	3.41
491.664	3.49
491.866	3.46
492.069	3.57
492.272	3.47
492.474	3.53
492.677	3.59
492.879	3.69
493.082	3.69
493.285	3.84
493.487	3.77
493.69	3.68
493.892	3.58
494.095	3.49
494.297	3.45
494.5	3.47
494.702	3.52
494.905	3.62
495.107	3.61
495.309	3.6
495.512	3.61
495.714	3.59
495.917	3.59
496.119	3.57
496.321	3.64
496.524	3.72
496.726	3.75
496.928	3.79
497.13	3.85
497.333	3.76
497.535	3.72
497.737	3.73
497.939	3.72
498.142	3.72
498.344	3.75
498.546	3.72
498.748	3.74
498.95	3.81
499.152	3.85
499.355	3.91
499.557	4
499.759	4.12
499.961	4.06
500.163	4.07
500.365	4.09
500.567	4.15
500.769	4.05
500.971	4.09
501.173	4.06
501.375	4.08
501.577	4.03
501.779	4.03
501.981	4.03
502.183	4.08
502.385	4.05
502.587	3.95
502.788	3.99
502.99	4.06
503.192	4.11
503.394	4.15
503.596	4.27
503.798	4.36
503.999	4.37
504.201	4.33
504.403	4.37
504.605	4.4
504.806	4.35
505.008	4.33
505.21	4.36
505.411	4.35
505.613	4.39
505.815	4.45
506.016	4.54
506.218	4.68
506.42	4.69
506.621	4.73
506.823	4.78
507.024	4.73
507.226	4.69
507.427	4.76
507.629	4.75
507.83	4.76
508.032	4.77
508.233	4.84
508.435	4.82
508.636	4.9
508.838	4.89
509.039	4.9
509.24	4.93
509.442	4.98
509.643	4.89
509.845	4.92
510.046	5.03
510.247	5.02
510.448	5.02
510.65	5.11
510.851	5.18
511.052	5.15
511.254	5.17
511.455	5.21
511.656	5.28
511.857	5.34
512.058	5.38
512.26	5.4
512.461	5.38
512.662	5.4
512.863	5.32
513.064	5.29
513.265	5.31
513.466	5.38
513.667	5.33
513.868	5.38
514.069	5.47
514.27	5.53
514.471	5.52
514.672	5.6
514.873	5.63
515.074	5.66
515.275	5.54
515.476	5.55
515.677	5.57
515.878	5.58
516.079	5.54
516.28	5.63
516.481	5.71
516.682	5.7
516.882	5.66
517.083	5.67
517.284	5.66
517.485	5.62
517.686	5.61
517.886	5.62
518.087	5.69
518.288	5.73
518.488	5.67
518.689	5.62
518.89	5.64
519.091	5.69
519.291	5.65
519.492	5.74
519.692	5.8
519.893	5.84
520.094	5.78
520.294	5.81
520.495	5.82
520.695	5.89
520.896	5.91
521.096	5.93
521.297	5.96
521.497	5.98
521.698	5.94
521.898	5.93
522.099	5.98
522.299	6.02
522.499	6
522.7	6.05
522.9	6.05
523.101	6.07
523.301	6.05
523.501	6.08
523.702	6.05
523.902	6.16
524.102	6.21
524.302	6.24
524.503	6.28
524.703	6.34
524.903	6.3
525.103	6.24
525.304	6.31
525.504	6.35
525.704	6.36
525.904	6.32
526.104	6.32
526.304	6.26
526.504	6.28
526.705	6.24
526.905	6.29
527.105	6.33
527.305	6.36
527.505	6.29
527.705	6.36
527.905	6.4
528.105	6.4
528.305	6.37
528.505	6.48
528.705	6.54
528.905	6.47
529.105	6.48
529.304	6.57
529.504	6.57
529.704	6.48
529.904	6.52
530.104	6.54
530.304	6.55
530.503	6.55
530.703	6.57
530.903	6.61
531.103	6.64
531.303	6.62
531.502	6.64
531.702	6.73
531.902	6.77
532.101	6.74
532.301	6.8
532.501	6.83
532.7	6.78
532.9	6.79
533.1	6.83
533.299	6.87
533.499	6.86
533.698	6.85
533.898	6.87
534.097	6.91
534.297	6.92
534.496	6.93
534.696	7.02
534.895	7.08
535.095	7.18
535.294	7.17
535.494	7.12
535.693	7.13
535.892	7.14
536.092	7.11
536.291	7.11
536.491	7.26
536.69	7.36
536.889	7.31
537.088	7.28
537.288	7.35
537.487	7.37
537.686	7.35
537.886	7.49
538.085	7.6
538.284	7.69
538.483	7.7
538.682	7.76
538.882	7.71
539.081	7.71
539.28	7.56
539.479	7.53
539.678	7.53
539.877	7.67
540.076	7.72
540.275	7.86
540.474	7.99
540.673	8.02
540.872	7.96
541.071	8.01
541.27	8.06
541.469	8.07
541.668	8.1
541.867	8.14
542.066	8.15
542.265	8.21
542.464	8.19
542.663	8.26
542.862	8.39
543.06	8.49
543.259	8.51
543.458	8.61
543.657	8.68
543.856	8.71
544.054	8.68
544.253	8.69
544.452	8.69
544.651	8.67
544.849	8.66
545.048	8.71
545.247	8.8
545.445	8.87
545.644	8.92
545.843	8.94
546.041	9
546.24	9.12
546.438	9.25
546.637	9.37
546.836	9.52
547.034	9.63
547.233	9.63
547.431	9.57
547.63	9.57
547.828	9.59
548.027	9.6
548.225	9.59
548.423	9.63
548.622	9.74
548.82	9.76
549.019	9.87
549.217	10.04
549.415	10.17
549.614	10.24
549.812	10.34
550.01	10.27
550.209	10.28
550.407	10.43
550.605	10.42
550.803	10.52
551.002	10.67
551.2	10.76
551.398	10.77
551.596	10.97
551.794	11.06
551.993	11.2
552.191	11.23
552.389	11.38
552.587	11.37
552.785	11.45
552.983	11.5
553.181	11.7
553.379	11.72
553.577	11.85
553.775	11.93
553.973	12.05
554.171	12.09
554.369	12.19
554.567	12.22
554.765	12.3
554.963	12.38
555.161	12.42
555.359	12.55
555.557	12.73
555.755	12.81
555.952	12.96
556.15	13.07
556.348	13.15
556.546	13.25
556.744	13.39
556.941	13.43
557.139	13.59
557.337	13.65
557.535	13.65
557.732	13.8
557.93	13.98
558.128	14.08
558.325	14.16
558.523	14.26
558.721	14.37
558.918	14.37
559.116	14.4
559.313	14.52
559.511	14.75
559.708	14.77
559.906	14.89
560.104	15.05
560.301	15.21
560.498	15.22
560.696	15.37
560.893	15.51
561.091	15.65
561.288	15.75
561.486	15.92
561.683	16.02
561.88	16.13
562.078	16.19
562.275	16.22
562.473	16.3
562.67	16.48
562.867	16.56
563.064	16.74
563.262	16.9
563.459	17.01
563.656	17.04
563.853	17.12
564.051	17.23
564.248	17.38
564.445	17.49
564.642	17.61
564.839	17.83
565.036	17.96
565.234	18.07
565.431	18.19
565.628	18.32
565.825	18.44
566.022	18.55
566.219	18.66
566.416	18.8
566.613	18.92
566.81	18.98
567.007	18.97
567.204	18.95
567.401	19.05
567.598	19.14
567.795	19.13
567.991	19.21
568.188	19.39
568.385	19.51
568.582	19.53
568.779	19.61
568.976	19.72
569.172	19.87
569.369	19.8
569.566	19.92
569.763	20.07
569.96	20.13
570.156	20.08
570.353	20.15
570.55	20.16
570.746	20.17
570.943	20.22
571.14	20.35
571.336	20.48
571.533	20.63
571.729	20.67
571.926	20.71
572.123	20.76
572.319	20.78
572.516	20.67
572.712	20.79
572.909	20.78
573.105	20.87
573.302	20.86
573.498	20.99
573.695	20.98
573.891	21.04
574.087	20.92
574.284	20.97
574.48	20.95
574.677	20.99
574.873	21.04
575.069	21.16
575.266	21.29
575.462	21.25
575.658	21.3
575.854	21.43
576.051	21.42
576.247	21.31
576.443	21.34
576.639	21.25
576.835	21.17
577.032	21.11
577.228	21.25
577.424	21.3
577.62	21.33
577.816	21.34
578.012	21.34
578.208	21.2
578.404	21.22
578.6	21.21
578.796	21.17
578.993	21.22
579.189	21.17
579.384	21
579.58	20.96
579.776	21
579.972	20.96
580.168	20.96
580.364	21.11
580.56	21.11
580.756	21.01
580.952	20.93
581.148	20.95
581.343	20.95
581.539	21.05
581.735	21.12
581.931	21.19
582.127	21.31
582.322	21.24
582.518	21.13
582.714	21.11
582.909	21.09
583.105	20.98
583.301	20.9
583.496	20.97
583.692	20.85
583.888	20.75
584.083	20.76
584.279	20.8
584.474	20.74
584.67	20.84
584.866	20.87
585.061	20.74
585.257	20.78
585.452	20.82
585.648	20.74
585.843	20.8
586.039	20.83
586.234	20.77
586.429	20.66
586.625	20.72
586.82	20.62
587.015	20.74
587.211	20.66
587.406	20.8
587.601	20.73
587.797	20.79
587.992	20.64
588.187	20.77
588.383	20.65
588.578	20.66
588.773	20.72
588.968	20.78
589.163	20.77
589.359	20.85
589.554	20.88
589.749	20.87
589.944	20.9
590.139	20.9
590.334	20.91
590.529	20.83
590.724	20.85
590.919	20.94
591.114	20.95
591.309	20.99
591.504	21.17
591.699	21.16
591.894	21.26
592.089	21.21
592.284	21.23
592.479	21.32
592.674	21.39
592.869	21.37
593.064	21.52
593.259	21.65
593.454	21.7
593.648	21.76
593.843	21.75
594.038	21.83
594.233	21.78
594.428	21.77
594.622	21.82
594.817	21.96
595.012	21.95
595.206	22.03
595.401	22.07
595.596	22.1
595.79	22.19
595.985	22.36
596.18	22.51
596.374	22.66
596.569	22.73
596.763	22.81
596.958	22.83
597.153	22.91
597.347	22.9
597.542	23.1
597.736	23.05
597.931	23.16
598.125	23.15
598.319	23.29
598.514	23.28
598.708	23.47
598.903	23.58
599.097	23.73
599.291	23.76
599.486	23.8
599.68	23.77
599.874	23.78
600.069	23.74
600.263	23.8
600.457	23.89
600.651	24.06
600.846	24.09
601.04	24.14
601.234	24.16
601.428	24.27
601.622	24.34
601.817	24.3
602.011	24.4
602.205	24.44
602.399	24.43
602.593	24.4
602.787	24.55
602.981	24.53
603.175	24.57
603.369	24.54
603.563	24.52
603.757	24.42
603.951	24.39
604.145	24.38
604.339	24.44
604.533	24.39
604.727	24.51
604.921	24.49
605.115	24.43
605.309	24.44
605.502	24.5
605.696	24.38
605.89	24.33
606.084	24.3
606.278	24.14
606.471	23.98
606.665	23.91
606.859	23.83
607.053	23.82
607.246	23.82
607.44	23.83
607.634	23.8
607.827	23.82
608.021	23.73
608.214	23.62
608.408	23.5
608.602	23.34
608.795	23.29
608.989	23.25
609.182	23.17
609.376	23.11
609.569	23.06
609.763	22.87
609.956	22.63
610.15	22.56
610.343	22.54
610.537	22.51
610.73	22.52
610.923	22.53
611.117	22.49
611.31	22.37
611.504	22.27
611.697	22.11
611.89	22.03
612.083	21.99
612.277	21.95
612.47	21.79
612.663	21.72
612.856	21.7
613.05	21.51
613.243	21.35
613.436	21.27
613.629	21.27
613.822	21.16
614.015	21.08
614.209	20.95
614.402	20.99
614.595	20.88
614.788	20.72
614.981	20.6
615.174	20.57
615.367	20.44
615.56	20.35
615.753	20.32
615.946	20.25
616.139	20.22
616.332	20.25
616.525	20.22
616.718	20.22
616.911	20.23
617.103	20.12
617.296	20
617.489	19.85
617.682	19.74
617.875	19.69
618.067	19.58
618.26	19.48
618.453	19.52
618.646	19.49
618.838	19.46
619.031	19.61
619.224	19.61
619.417	19.62
619.609	19.67
619.802	19.67
619.994	19.54
620.187	19.48
620.38	19.3
620.572	19.18
620.765	19.1
620.957	19.06
621.15	19
621.342	19
621.535	18.93
621.727	18.91
621.92	18.83
622.112	18.76
622.305	18.84
622.497	18.73
622.69	18.71
622.882	18.71
623.074	18.76
623.267	18.63
623.459	18.67
623.651	18.55
623.844	18.59
624.036	18.6
624.228	18.62
624.42	18.62
624.613	18.78
624.805	18.7
624.997	18.6
625.189	18.53
625.381	18.47
625.574	18.34
625.766	18.27
625.958	18.28
626.15	18.3
626.342	18.34
626.534	18.35
626.726	18.32
626.918	18.24
627.11	18.17
627.302	18.18
627.494	18.15
627.686	18.22
627.878	18.12
628.07	18.16
628.262	18.01
628.454	18.05
628.646	17.98
628.838	18.08
629.029	18.05
629.221	18.16
629.413	18
629.605	17.89
629.797	17.81
629.989	17.69
630.18	17.54
630.372	17.47
630.564	17.44
630.755	17.39
630.947	17.46
631.139	17.45
631.33	17.43
631.522	17.53
631.714	17.44
631.905	17.42
632.097	17.31
632.289	17.34
632.48	17.23
632.672	17.3
632.863	17.12
633.055	17.15
633.246	17.03
633.438	16.94
633.629	16.9
633.821	16.97
634.012	16.96
634.203	16.94
634.395	16.92
634.586	16.92
634.777	16.92
634.969	16.91
635.16	16.94
635.351	16.94
635.543	16.94
635.734	16.98
635.925	16.96
636.117	17.01
636.308	17
636.499	16.91
636.69	16.74
636.881	16.67
637.073	16.74
637.264	16.73
637.455	16.8
637.646	16.87
637.837	16.96
638.028	16.81
638.219	16.8
638.41	16.74
638.601	16.6
638.792	16.54
638.983	16.57
639.174	16.46
639.365	16.46
639.556	16.48
639.747	16.42
639.938	16.46
640.129	16.52
640.32	16.46
640.511	16.49
640.701	16.57
640.892	16.46
641.083	16.42
641.274	16.44
641.465	16.48
641.655	16.34
641.846	16.35
642.037	16.31
642.228	16.19
642.418	16.13
642.609	16.17
642.8	16.15
642.99	16.13
643.181	16.25
643.372	16.29
643.562	16.21
643.753	16.11
643.943	16.04
644.134	15.92
644.324	15.81
644.515	15.75
644.705	15.77
644.896	15.83
645.086	15.89
645.277	15.93
645.467	15.93
645.658	15.93
645.848	15.88
646.038	15.78
646.229	15.7
646.419	15.65
646.61	15.6
646.8	15.49
646.99	15.45
647.18	15.39
647.371	15.41
647.561	15.29
647.751	15.34
647.941	15.35
648.132	15.4
648.322	15.36
648.512	15.47
648.702	15.43
648.892	15.44
649.082	15.38
649.272	15.27
649.462	15.21
649.653	15.16
649.843	15.02
650.033	15.01
650.223	15.04
650.413	14.92
650.603	15.03
650.793	15.02
650.983	14.88
651.172	14.81
651.362	14.85
651.552	14.64
651.742	14.58
651.932	14.6
652.122	14.58
652.312	14.52
652.502	14.54
652.691	14.55
652.881	14.5
653.071	14.48
653.261	14.36
653.45	14.19
653.64	14.09
653.83	13.93
654.019	13.74
654.209	13.6
654.399	13.53
654.588	13.36
654.778	13.23
654.968	13.17
655.157	13.11
655.347	12.93
655.536	12.89
655.726	12.77
655.915	12.55
656.105	12.42
656.294	12.35
656.484	12.1
656.673	11.98
656.863	12
657.052	11.78
657.241	11.6
657.431	11.43
657.62	11.18
657.809	10.79
657.999	10.62
658.188	10.4
658.377	10.22
658.567	10.19
658.756	10.06
658.945	9.89
659.134	9.68
659.324	9.65
659.513	9.49
659.702	9.3
659.891	9.19
660.08	9.04
660.269	8.9
660.458	8.67
660.648	8.55
660.837	8.41
661.026	8.35
661.215	8.11
661.404	7.97
661.593	7.96
661.782	7.71
661.971	7.6
662.16	7.48
662.349	7.39
662.538	7.17
662.726	7.15
662.915	7.01
663.104	6.92
663.293	6.8
663.482	6.84
663.671	6.75
663.86	6.61
664.048	6.52
664.237	6.48
664.426	6.2
664.615	6.2
664.803	6.17
664.992	6.04
665.181	5.85
665.369	5.83
665.558	5.66
665.747	5.62
665.935	5.61
666.124	5.68
666.312	5.73
666.501	5.7
666.69	5.58
666.878	5.49
667.067	5.33
667.255	5.27
667.444	5.43
667.632	5.54
667.82	5.63
668.009	5.72
668.197	5.58
668.386	5.46
668.574	5.47
668.762	5.4
668.951	5.29
669.139	5.33
669.327	5.15
669.516	5.08
669.704	5.07
669.892	5.22
670.08	5.26
670.269	5.28
670.457	5.2
670.645	5.04
670.833	5.07
671.021	5.05
671.21	5.16
671.398	5.37
671.586	5.48
671.774	5.39
671.962	5.44
672.15	5.48
672.338	5.33
672.526	5.35
672.714	5.35
672.902	5.36
673.09	5.52
673.278	5.74
673.466	5.84
673.654	5.9
673.842	5.91
674.03	5.87
674.218	5.72
674.405	5.73
674.593	5.74
674.781	5.84
674.969	5.95
675.157	6.12
675.344	6.27
675.532	6.35
675.72	6.58
675.908	6.51
676.095	6.44
676.283	6.48
676.471	6.61
676.658	6.46
676.846	6.56
677.033	6.73
677.221	6.75
677.409	6.71
677.596	6.89
677.784	6.89
677.971	6.93
678.159	6.91
678.346	7.04
678.534	7.07
678.721	7.21
678.909	7.28
679.096	7.41
679.283	7.6
679.471	7.7
679.658	7.8
679.846	8
680.033	8.22
680.22	8.19
680.408	8.21
680.595	8.24
680.782	8.18
680.969	8.23
681.157	8.38
681.344	8.55
681.531	8.6
681.718	8.71
681.905	8.85
682.093	8.99
682.28	9.17
682.467	9.49
682.654	9.76
682.841	9.87
683.028	10.09
683.215	10.21
683.402	10.21
683.589	10.24
683.776	10.39
683.963	10.4
684.15	10.59
684.337	10.91
684.524	11.22
684.711	11.42
684.898	11.66
685.085	11.84
685.271	12.16
685.458	12.33
685.645	12.59
685.832	12.98
686.019	13.43
686.205	13.58
686.392	13.86
686.579	14.24
686.766	14.67
686.952	14.83
687.139	15.34
687.326	15.71
687.512	16
687.699	16.17
687.886	16.48
688.072	16.76
688.259	17.33
688.445	17.93
688.632	18.3
688.818	19
689.005	19.51
689.191	19.9
689.378	20.41
689.564	21.16
689.751	21.55
689.937	22.05
690.124	22.72
690.31	23.23
690.496	23.66
690.683	24.34
690.869	24.89
691.055	25.4
691.242	26.04
691.428	26.83
691.614	27.4
691.8	28.17
691.987	28.81
692.173	29.34
692.359	29.93
692.545	30.75
692.731	31.47
692.918	32.14
693.104	32.9
693.29	33.55
693.476	34.12
693.662	34.69
693.848	35.49
694.034	36.17
694.22	36.84
694.406	37.73
694.592	38.67
694.778	39.35
694.964	40.1
695.15	40.94
695.336	41.43
695.522	42.32
695.708	43.23
695.894	44.06
696.08	44.87
696.265	45.69
696.451	46.35
696.637	46.82
696.823	47.31
697.009	47.82
697.194	48.47
697.38	48.81
697.566	49.57
697.751	50.35
697.937	51.3
698.123	51.95
698.308	52.76
698.494	53.38
698.68	54.03
698.865	54.46
699.051	55.29
699.236	55.78
699.422	56.33
699.607	56.64
699.793	57.07
699.978	57.44
700.164	57.93
700.349	58.65
700.535	59.39
700.72	59.93
700.906	60.6
701.091	61.34
701.276	61.8
701.462	62.55
701.647	63.2
701.832	63.3
702.018	63.71
702.203	64.09
702.388	64.21
702.573	64.58
702.759	65.47
702.944	65.8
703.129	65.98
703.314	66.53
703.499	66.66
703.684	66.93
703.87	68.16
704.055	69.42
704.24	69.43
704.425	70.21
704.61	70.58
704.795	70.42
704.98	70.33
705.165	70.96
705.35	71
705.535	71.51
705.72	71.56
705.905	71.81
706.09	72.07
706.275	72.5
706.459	72.57
706.644	72.71
706.829	72.69
707.014	72.83
707.199	73.2
707.384	73.83
707.568	74.14
707.753	74.69
707.938	75.47
708.123	75.46
708.307	75.43
708.492	75.52
708.677	75.89
708.861	75.77
709.046	75.98
709.231	76.49
709.415	76.92
709.6	76.96
709.784	76.9
709.969	76.95
710.153	76.67
710.338	76.98
710.522	77.18
710.707	77.58
710.891	78.16
711.076	78.28
711.26	78.19
711.445	78.16
711.629	78.61
711.813	79.16
711.998	79.65
712.182	79.64
712.366	80.34
712.551	80.79
712.735	80.45
712.919	80.49
713.103	80.89
713.288	80.39
713.472	79.91
713.656	80.61
713.84	80.48
714.024	80.87
714.208	81.08
714.393	81.78
714.577	81.83
714.761	82.25
714.945	82.06
715.129	82.38
715.313	82.38
715.497	82.07
715.681	82.05
715.865	82.16
716.049	82.6
716.233	82.25
716.417	82.26
716.601	82.28
716.785	82.53
716.968	82.31
717.152	82.65
717.336	83.16
717.52	82.95
717.704	82.99
717.888	83.39
718.071	83.62
718.255	83.66
718.439	84.03
718.622	83.96
718.806	83.8
718.99	83.55
719.174	83.32
719.357	83.35
719.541	83.75
719.724	83.92
719.908	84.61
720.092	85.15
720.275	85.69
720.459	85.3
720.642	84.77
720.826	84.44
721.009	83.92
721.193	83.28
721.376	83.53
721.559	84.21
721.743	84.06
721.926	85.03
722.11	85.73
722.293	85.52
722.476	85.15
722.66	85.4
722.843	84.55
723.026	84.01
723.21	84.25
723.393	85.05
723.576	84.9
723.759	84.97
723.942	85.38
724.126	85.81
724.309	85.66
724.492	86.2
724.675	86.1
724.858	86.28
725.041	86.62
725.224	86.45
725.407	86.82
725.59	87.86
725.774	87.63
725.957	86.59
726.14	86.21
726.322	85.38
726.505	84.79
726.688	85.37
726.871	85.47
727.054	86.13
727.237	86.32
727.42	86.73
727.603	86.87
727.786	87.34
727.968	87.24
728.151	87.47
728.334	86.85
728.517	86.77
728.699	87.18
728.882	86.99
729.065	87.52
729.248	87.98
729.43	88.4
729.613	89.43
729.796	89.91
729.978	88.8
730.161	89.05
730.343	88.35
730.526	87.82
730.708	87.67
730.891	88.25
731.073	87.63
731.256	87.54
731.438	87.51
731.621	87.79
731.803	88.07
731.986	88.66
732.168	88.23
732.35	88.21
732.533	88.38
732.715	88.5
732.898	88.81
733.08	89.21
733.262	89.78
733.444	89.56
733.627	89.55
733.809	89.41
733.991	90.73
734.173	89.35
734.355	88.98
734.538	89.62
734.72	89.35
734.902	88.73
735.084	89.44
735.266	89.42
735.448	89.66
735.63	90.47
735.812	90.31
735.994	90.58
736.176	91.64
736.358	90.55
736.54	90.6
736.722	90.57
736.904	90.51
737.086	90.1
737.268	91.28
737.45	90.87
737.632	91.32
737.814	90.6
737.995	91.24
738.177	90.33
738.359	89.79
738.541	89.73
738.723	90.73
738.904	90.9
739.086	91.13
739.268	91.4
739.449	91.56
739.631	90.83
739.813	90.57
739.994	90.72
740.176	91.47
740.358	90.89
740.539	92.05
740.721	91.95
740.902	92.16
741.084	92.09
741.265	92.1
741.447	92.02
741.628	91.32
741.81	90.74
741.991	91.03
742.172	92.52
742.354	92.52
742.535	93.18
742.717	93.64
742.898	93.27
743.079	92.85
743.261	92.78
743.442	91.95
743.623	92.38
743.804	92.38
743.986	92.38
744.167	90.87
744.348	91.18
744.529	90.74
744.71	89.82
744.891	89.04
745.073	89.49
745.254	89.59
745.435	89.94
745.616	90.28
745.797	90.34
745.978	90.67
746.159	91.69
746.34	89.93
746.521	91.01
746.702	90.61
746.883	90.75
747.064	90.3
747.245	91.67
747.426	91.87
747.606	93.11
747.787	93.59
747.968	92.84
748.149	93.67
748.33	93.37
748.51	92.71
748.691	91.53
748.872	91.6
749.053	90.32
749.233	88.98
749.414	88.27
749.595	87.63
749.775	87.47
749.956	87.19
750.137	87.35
750.317	88.25
750.498	90.31
750.678	90.67
750.859	92.03
751.04	92.08
751.22	90.42
751.4	90.22
751.581	90.15
751.761	90.34
751.942	90.96
752.122	91.42
752.303	90.34
752.483	89.66
752.663	88.73
752.844	87.02
753.024	88.83
753.204	89.29
753.385	89.39
753.565	89.03
753.745	89.9
753.925	88.33
754.106	88
754.286	87.34
754.466	87.68
754.646	88.87
754.826	88.4
755.006	87.33
755.187	89.05
755.367	88.97
755.547	88.66
755.727	90.78
755.907	92.09
756.087	91.14
756.267	91.14
756.447	89.95
756.627	87.35
756.807	87.84
756.987	88.48
757.167	88.23
757.346	88.97
757.526	88.85
757.706	88.88
757.886	88.87
758.066	89.1
758.246	91.17
758.425	92.25
758.605	90.8
758.785	89.91
758.965	90.71
759.144	87.87
759.324	88.02
759.504	89
759.683	90.18
759.863	88.28
760.043	87.32
760.222	87.01
760.402	85.93
760.581	84.3
760.761	86.15
760.94	86.62
761.12	88
761.299	89.72
761.479	89.98
761.658	87.68
761.838	88.66
762.017	87.51
762.197	87.85
762.376	88.49
762.555	90.65
762.735	91.01
762.914	89.89
763.093	88.23
763.273	87.03
763.452	85.81
763.631	84.73
763.81	84.79
763.99	83.82
764.169	84.5
764.348	83.26
764.527	83.09
764.706	84.07
764.885	85.85
765.064	84.74
765.243	86.05
765.423	86.54
765.602	86.42
765.781	85.24
765.96	84.65
766.139	83.95
766.318	84.41
766.497	84.17
766.676	84.57
766.854	86.52
767.033	88.3
767.212	87.73
767.391	88.16
767.57	89.78
767.749	90.28
767.928	88.72
768.106	87.32
768.285	85.95
768.464	83.92
768.643	82.87
768.821	83.34
769	85.72
769.179	85.88
769.357	85.1
769.536	85.58
769.715	85.8
769.893	86.16
770.072	86.2
770.25	86.28
770.429	86.7
770.607	85.45
770.786	82.67
770.964	83.87
771.143	84.34
771.321	84.09
771.5	84.82
771.678	84.88
771.857	82.25
772.035	81.91
772.213	81.24
772.392	80.11
772.57	83.18
772.748	83.02
772.927	83.46
773.105	82.31
773.283	82.53
773.461	81.33
773.64	83.85
773.818	82.83
773.996	84.02
774.174	83.78
774.352	82.15
774.531	79.24
774.709	80.68
774.887	79.66
775.065	79.33
775.243	79.66
775.421	80.89
775.599	81.51
775.777	80.01
775.955	78.1
776.133	77.04
776.311	77.18
776.489	74.61
776.667	77.17
776.844	79.22
777.022	79.11
777.2	78.53
777.378	79.74
777.556	79.68
777.734	80.32
777.911	81.97
778.089	82.17
778.267	82.02
778.445	80.05
778.622	80.68
778.8	80.49
778.978	80.16
779.155	79.15
779.333	80.67
779.511	78.62
779.688	80.04
779.866	77.16
780.043	75.92
780.221	73.75
780.398	73.08
780.576	74.06
780.753	79.26
780.931	78.78
781.108	79.71
781.286	80.83
781.463	77.95
781.64	75.34
781.818	76.58
781.995	76.86
782.172	76.91
782.35	76.39
782.527	76.53
782.704	77.17
782.882	80.53
783.059	80.11
783.236	79.96
783.413	82.11
783.59	83.23
783.768	78.32
783.945	80.66
784.122	80.37
784.299	78.95
784.476	77.22
784.653	79.86
784.83	77.04
785.007	76.57
785.184	77.9
785.361	76.31
785.538	76.91
785.715	80.7
785.892	79.88
786.069	81.51
786.246	85.03
786.423	84.57
786.6	81.76
786.776	85.31
786.953	80.36
787.13	79.13
787.307	78.51
787.484	77.62
787.66	75.29
787.837	78.38
788.014	77.86
788.191	74.57
788.367	73.04
788.544	73.34
788.721	69.16
788.897	71.8
789.074	74.5
789.25	74.1
789.427	75.89
789.603	78.74
789.78	78.31
789.956	77.99
790.133	77.39
790.309	74.33
790.486	76.59
790.662	74.35
790.839	73.48
791.015	72.54
791.192	72.22
791.368	72.35
791.544	68.86
791.721	65.82
791.897	69.42
792.073	69.72
792.249	62.69
792.426	66.76
792.602	72.41
792.778	72.87
792.954	70.88
793.13	71.25
793.307	67.5
793.483	59.52
793.659	56.85
793.835	62.82
794.011	68.36
794.187	72.86
794.363	73.11
794.539	76.56
794.715	68.24
794.891	63.53
795.067	62.37
795.243	68.34
795.419	68.98
795.595	70.89
795.771	72.5
795.947	71.75
796.122	70.78
796.298	71.63
796.474	71.42
796.65	69.87
796.826	67.68
797.001	66.86
797.177	63.35
797.353	65.15
797.529	67.96
797.704	71.67
797.88	70.3
798.056	68.61
798.231	68.72
798.407	71.79
798.582	68.72
798.758	70.28
798.934	78.76
799.109	78.2
799.285	70.9
799.46	75.27
799.636	74.46
799.811	67.81
799.986	71.41
800.162	76.24
800.337	72.25
800.513	68.31
800.688	65.92
800.863	70.86
801.039	63.35
801.214	63.95
801.389	73.91
801.565	79.36
801.74	68.48
801.915	78.1
802.09	78.58
802.265	74.48
802.441	68.08
802.616	71.22
802.791	68.14
802.966	67.86
803.141	66.69
803.316	71.29
803.491	72.21
803.666	73.53
803.841	72.91
804.016	70.86
804.191	71.51
804.366	65.14
804.541	65.56
804.716	62.23
804.891	56.34
805.066	57.01
805.241	56.08
805.416	51.96
805.591	56.01
805.765	64.6
805.94	62.24
806.115	66.06
806.29	62.21
806.464	60.25
806.639	55.79
806.814	53.62
806.989	51.3
807.163	63.78
807.338	65.21
807.512	63.04
807.687	56.27
807.862	60.83
808.036	58.79
808.211	60.65
808.385	67.95
808.56	82.12
808.734	87.01
808.909	82.79
809.083	87.13
809.258	92.72
809.432	88.15
809.606	82.73
809.781	78.91
809.955	73.05
810.13	70.03
810.304	63.24
810.478	55.68
810.652	56.66
810.827	56.02
811.001	47.11
811.175	49.58
811.349	54.09
811.524	48.5
811.698	43.51
811.872	48.71
812.046	53.03
812.22	56.78
812.394	60.93
812.568	65.24
812.742	62.18
812.916	60.81
813.09	54.31
813.264	55.83
813.438	58.86
813.612	61.91
813.786	58.68
813.96	66.92
814.134	66.14
814.308	68.87
814.482	61.74
814.656	59.13
814.83	57.13
815.003	67.81
815.177	60.12
815.351	56
815.525	56.11
815.698	56.57
815.872	40.8
816.046	34.75
816.219	44.43
816.393	58.45
816.567	65.48
816.74	64.39
816.914	71.35
817.088	77.11
817.261	71.24
817.435	58.72
817.608	72.05
817.782	67.46
817.955	67.71
818.129	59.12
818.302	65.46
818.475	58.43
818.649	65.44
818.822	53.12
818.996	69.44
819.169	61.62
819.342	53.58
819.516	69.2
819.689	75.21
819.862	59.5
820.035	51.69
820.209	59.9
820.382	52.14
820.555	49.2
820.728	34.41
820.901	41.84
821.075	43.45
821.248	41.98
821.421	42.77
821.594	50.54
821.767	64.55
821.94	64.95
822.113	44.56
822.286	44.6
822.459	56.02
822.632	50.15
822.805	50.86
822.978	55.83
823.151	52.72
823.324	37.54
823.496	17.58
823.669	17.41
823.842	26.7
824.015	19.78
824.188	19.25
824.361	26.34
824.533	16.26
824.706	11.89
824.879	24.83
825.051	36.33
825.224	42.4
825.397	52.38
825.569	51.81
825.742	51.67
825.915	60.2
826.087	59.76
826.26	47.37
826.432	44.75
826.605	45.86
826.777	30.35
826.95	34.53
827.122	34.31
827.295	39.72
827.467	36.19
827.64	24.64
827.812	13.96
827.984	17.99
828.157	26.76
828.329	-13.9
828.501	5.35
828.674	31.77
828.846	15.35
829.018	28.96
829.19	38.93
829.363	61.1
829.535	56.85
829.707	76.94
829.879	62.59
830.051	66.44
830.223	37.27
830.395	29.59
830.568	-6.84
830.74	-26.01
830.912	-3.9
831.084	-12.76
831.256	-7.4
831.428	5.84
831.6	14.75
831.772	-9.83
831.943	2.85
832.115	22.46
832.287	36.76
832.459	36.82
832.631	48.69
832.803	56.98
832.975	60.56
833.146	36.71
833.318	48.8
833.49	59.89
833.662	55.88
833.833	19.7
834.005	41.99
834.177	44.6
834.348	39.35
834.52	25.61
834.692	50.02
834.863	33.34
835.035	10.06
835.206	-23.82
835.378	12.49
835.549	28.8
835.721	39.36
835.892	38.52
836.064	50.12
836.235	35.89
836.407	28.81
836.578	-7.9
836.749	-3
836.921	-64.11
837.092	-78.2
837.264	-78.55
837.435	-83.16
837.606	-50.4
837.777	-14.08
837.949	11.91
838.12	28.7
838.291	43.45
838.462	37.01
838.633	16.84
838.805	20.21
838.976	11.18
839.147	-34.52
839.318	-34.63
839.489	-85.74
839.66	-91.04
839.831	-23.92
840.002	1.28
840.173	-13.96
840.344	51.97
840.515	80.2
840.686	-73.18
840.857	-70.13
841.028	-16.57
841.199	7.55
841.369	-29.77
841.54	2.49
841.711	16.17
841.882	25.34
842.053	12.79
842.223	16.03
842.394	13.17
842.565	28.78
842.736	26.66
842.906	22.02
843.077	27.97
843.248	65.83
843.418	46.96
843.589	38.95
843.759	107.8
843.93	120.06
844.101	48.63
844.271	45.11
844.442	43.31
844.612	46.41
844.783	19.41
844.953	-16.1
845.123	-1.57
845.294	7.88
845.464	-179.18
845.635	-34.38
845.805	36.29
845.975	25.08
846.146	-30.59
846.316	-22.87
846.486	0.17
846.656	24.72
846.827	3.91
846.997	14.53
847.167	42.66
847.337	23.41
847.507	-18.79
847.677	11.69
847.848	52.4
848.018	40.43
848.188	36.82
848.358	19.59
848.528	-6.3
848.698	-46.36
848.868	-127.9
849.038	-199.21
849.208	-40.37
849.378	19.99
849.548	36.59
849.718	46.74
849.887	48.71
850.057	29.78
850.227	-1.62
850.397	-47.49
850.567	-120.28
850.737	-214.02
850.906	-705.31
851.076	-314.26
851.246	-0.13
851.415	64.38
851.585	20.05
851.755	9.2
851.924	24.86
852.094	-11.69
852.264	-53.15
852.433	-724.28
852.603	-153.77
852.772	-158.79
852.942	-66.8
853.111	-72.68
853.281	10.86
853.45	36.01
853.62	-30.61
853.789	-18.89
853.959	1.67
854.128	-58.43
854.297	-88.22
854.467	-96.66
854.636	-115.09
854.805	-58.61
854.975	-95.33
855.144	-135.68
855.313	-29.55
855.482	-337.41
855.652	-169.1
855.821	-95.13
855.99	27.51
856.159	25.3
856.328	47.02
856.497	49.11
856.667	57.44
856.836	41.38
857.005	28.99
857.174	13.39
857.343	-28.59
857.512	-55.01
857.681	-78.14
857.85	-129.9
858.019	-66.43
858.188	-31.59
858.356	-36
858.525	-81.04
858.694	-69.46
858.863	-165.4
859.032	-143.3
859.201	-220.16
859.369	-72.77
859.538	-49.2
859.707	-65.58
859.876	-72.71
860.044	-55.15
860.213	-9.19
860.382	-18.29
860.55	0.53
860.719	26.84
860.888	37.78
861.056	4.59
861.225	-5.8
861.393	29.65
861.562	12.32
861.73	-53.96
861.899	-256.15
862.067	-1914.66
862.236	-119.49
862.404	-243.01
862.572	-115.25
862.741	-34.96
862.909	-31.37
863.078	-124.87
863.246	-79.27
863.414	-76.73
863.582	-11.51
863.751	-16.8
863.919	-18.49
864.087	31.11
864.255	27.07
864.424	-208.07
864.592	-26.42
864.76	-63.59
864.928	-197
865.096	-134.79
865.264	-52.63
865.432	-975.57
865.6	-0.13
865.768	-111.06
865.936	-140.07
866.104	-203.17
866.272	-274.77
866.44	-483.17
866.608	693.07
866.776	288.62
866.944	2763.37
867.112	-526.38
867.28	-218.13
867.448	-122.32
867.615	-54.6
867.783	-41.66
867.951	-55.87
868.119	-45.93
868.286	-50.12
868.454	-197.59
868.622	-148.99
868.789	-108.36
868.957	-2316.07
869.125	-1887.5
869.292	-67.14
869.46	-153.83
869.627	-10.01
869.795	-30.97
869.963	-9.98
870.13	0.74
870.298	16.88
870.465	-68.18
870.632	-63.55
870.8	-28.39
870.967	-89.53
871.135	-182.04
871.302	-151.33
871.469	-183.24
871.637	-275.53
871.804	-153.14
871.971	-156.57
872.139	-484.3
872.306	-56.78
872.473	-95.84
872.64	-262.77
872.807	-36.12
872.975	64.44
873.142	-56.82
873.309	130.41
873.476	84.47
873.643	96
873.81	12.06
873.977	13.58
874.144	12.7
874.311	-149.71
874.478	-130.21
874.645	-150.04
874.812	-79.08
874.979	-20.76
875.146	-42.38
875.313	-49.49
875.48	21.61
875.647	-15.12
875.813	-62.32
875.98	-28.52
876.147	-64.6
876.314	-129.25
876.481	808.47
876.647	-1062.08
876.814	447.8
876.981	-72.79
877.147	-42.38
877.314	4.26
877.481	35.82
877.647	14.85
877.814	-22.5
877.98	-63.35
878.147	-49.9
878.314	-9.35
878.48	-34.41
878.647	-4.12
878.813	52.23
878.979	38.71
879.146	1.47
879.312	3.3
879.479	-50.87
879.645	-208.14
879.811	-391.88
879.978	-1003.24
880.144	-292.49
880.31	-139.04
880.477	-342.02
880.643	-391.99
880.809	-116.12
880.975	-73.02
881.142	-630.23
881.308	-69.19
881.474	20.28
881.64	-22.18
881.806	-67.58
881.972	-22.42
882.138	5.84
882.304	-78.75
882.47	-144.1
882.636	-642.01
882.802	-178.74
882.968	-33.11
883.134	5.13
883.3	5.03
883.466	19.1
883.632	49.46
883.798	6.99
883.964	-17.67
884.129	-8.69
884.295	-2.72
884.461	-45.2
884.627	-35.2
884.793	-31.06
884.958	-11.83
885.124	-42.83
885.29	-112.55
885.455	-199.64
885.621	-34.4
885.787	-89.52
885.952	-55.29
886.118	-42.73
886.283	-33.4
886.449	-112.92
886.614	-128.62
886.78	-274.71
886.945	1377.46
887.111	-683.38
887.276	-547.3
887.442	-1112.95
887.607	-563.33
887.773	-366
887.938	-271.87
888.103	-365.09
888.269	-124.77
888.434	-165.54
888.599	-53.38
888.764	1.71
888.93	36.41
889.095	-35.17
889.26	-47.49
889.425	-19.43
889.59	-18.11
889.756	-65.94
889.921	-7.61
890.086	29.88
890.251	0.73
890.416	-135.3
890.581	-1268.15
890.746	220.8
890.911	407.17
891.076	147.79
891.241	-156.9
891.406	63.4
891.571	10.6
891.736	-298.74
891.901	-624.12
892.065	623.35
892.23	159.57
892.395	220.21
892.56	266.26
892.725	-105.66
892.889	-585.98
893.054	-181.78
893.219	-48.28
893.384	10.14
893.548	-50.91
893.713	-77.25
893.878	-9
