Data from Ofra_1a_PS_1GT43_Reflection_3.txt Node
Date: Tue Jul 20 10:46:07 EDT 2021
User: Adam
Spectrometer: FLMT01687
Trigger mode: 0
Integration Time (sec): 1.004000E0
Scans to average: 2
Electric dark correction enabled: true
Nonlinearity correction enabled: false
Boxcar width: 2
XAxis mode: Wavelengths
Number of Pixels in Spectrum: 3648
>>>>>Begin Spectral Data<<<<<
179.494	-408.12
179.716	-565.65
179.937	1079.6
180.158	-1322.29
180.38	233.21
180.601	64.66
180.823	87.17
181.044	93
181.265	191.89
181.486	155.4
181.708	12.11
181.929	-7745.45
182.15	86.32
182.372	-401.97
182.593	23.4
182.814	-40.75
183.035	-24.01
183.257	-16.52
183.478	-30.23
183.699	-39.11
183.92	-84.22
184.141	-71.71
184.363	-37.3
184.584	-42.52
184.805	-18.06
185.026	25.15
185.247	10.37
185.468	-12.7
185.689	2.95
185.91	-19.38
186.132	-12.39
186.353	-7.44
186.574	-0.73
186.795	-14.82
187.016	-5.26
187.237	-19.49
187.458	-25.48
187.679	-62.64
187.9	-18.9
188.121	-25.5
188.342	5.7
188.563	23.26
188.784	58.96
189.005	28.85
189.226	40.51
189.447	28.12
189.667	13.12
189.888	-7.55
190.109	-13.24
190.33	-9.65
190.551	-17.51
190.772	-4.66
190.993	-3.71
191.214	1.07
191.434	-11.73
191.655	14.01
191.876	47.42
192.097	54.89
192.318	46.24
192.538	18
192.759	4.65
192.98	3.03
193.201	0.17
193.421	1.08
193.642	12.84
193.863	23.04
194.083	20.91
194.304	42.15
194.525	24.05
194.745	22.5
194.966	16.15
195.187	14.71
195.407	-24.26
195.628	-7.51
195.848	-15.2
196.069	-36.67
196.29	-50.24
196.51	-24.99
196.731	-31.23
196.951	-51.5
197.172	-37.92
197.392	-42
197.613	-18.15
197.833	-30.33
198.054	-18.94
198.274	-16.34
198.495	-8.28
198.715	-3.02
198.936	24.08
199.156	13.26
199.377	17.39
199.597	9.74
199.817	-15.42
200.038	-55.13
200.258	-13.13
200.479	-30.39
200.699	-46.67
200.919	-38.53
201.14	-23.87
201.36	-34.11
201.58	-41.74
201.801	-35.1
202.021	-17.3
202.241	-29.07
202.461	-20.8
202.682	1.55
202.902	18.24
203.122	-9.4
203.342	5.57
203.563	-12.14
203.783	-19.73
204.003	-23.77
204.223	7.65
204.443	4.78
204.663	6.1
204.884	21.92
205.104	19.6
205.324	1.89
205.544	-11.49
205.764	18.71
205.984	12.34
206.204	-6.77
206.424	-14.56
206.644	-22.47
206.864	-74.98
207.084	-51.6
207.304	-59.77
207.525	-37.8
207.745	-12.04
207.964	19.38
208.184	42.92
208.404	36.02
208.624	35.21
208.844	28.42
209.064	26.16
209.284	3.22
209.504	-11.03
209.724	-0.42
209.944	-16.59
210.164	-17.62
210.384	-9.31
210.604	-29.29
210.823	-80.59
211.043	-42.09
211.263	-91.92
211.483	-60.56
211.703	-27.87
211.922	-21.66
212.142	-12.78
212.362	8.58
212.582	2.07
212.801	2.09
213.021	-3.5
213.241	-26.63
213.461	-26.4
213.68	-5.52
213.9	-10.32
214.12	-11.17
214.339	-1.74
214.559	-15.46
214.779	-30.93
214.998	-22.5
215.218	-0.85
215.438	-6.48
215.657	-16.59
215.877	-31.27
216.096	-2.18
216.316	-13.92
216.535	-18.07
216.755	-15.26
216.974	-10.82
217.194	-25.89
217.413	-23.42
217.633	-21.3
217.852	-4.65
218.072	-2.3
218.291	-8.44
218.511	-2.12
218.73	-2.99
218.95	-25.42
219.169	-6.86
219.389	-27.74
219.608	-33.24
219.827	-23.85
220.047	-11.7
220.266	-42.81
220.485	-25.76
220.705	-33.32
220.924	-34.13
221.143	-22.79
221.363	-1.97
221.582	-8.45
221.801	-5.35
222.021	0.38
222.24	7.55
222.459	17.29
222.678	29.4
222.897	26.9
223.117	27.78
223.336	29.89
223.555	28.16
223.774	29.04
223.993	64.09
224.213	65.89
224.432	59.19
224.651	26.39
224.87	16.23
225.089	5.68
225.308	6.32
225.527	-7.23
225.746	4.95
225.965	-6.75
226.184	-30.59
226.404	-40.28
226.623	-17.82
226.842	-16.79
227.061	-1.41
227.28	20.56
227.499	22.59
227.718	13.41
227.936	14.63
228.155	5.56
228.374	-0.16
228.593	2.61
228.812	3.04
229.031	11.42
229.25	12.15
229.469	5.51
229.688	4.01
229.907	9.47
230.125	8.35
230.344	12.8
230.563	18.04
230.782	26.95
231.001	33.63
231.22	34.24
231.438	27.47
231.657	22.63
231.876	15.24
232.095	17.88
232.313	-14.55
232.532	-15.23
232.751	-25
232.969	-23.39
233.188	-59.1
233.407	-22.61
233.625	-6.48
233.844	6.89
234.063	13.78
234.281	39.44
234.5	37.07
234.719	27.13
234.937	3.11
235.156	-12.8
235.374	-27.99
235.593	-29.36
235.811	-16.93
236.03	1.84
236.249	5.09
236.467	5.46
236.686	5.62
236.904	9
237.123	2.88
237.341	-6.92
237.559	-17.48
237.778	1.21
237.996	-46.05
238.215	-48.05
238.433	-68.84
238.652	-13.97
238.87	-33.13
239.088	-6
239.307	-5.86
239.525	1.35
239.743	-3.87
239.962	-20.99
240.18	-12.79
240.398	-13.7
240.617	-16.39
240.835	-50.85
241.053	-30.24
241.271	-44.03
241.49	-24.65
241.708	-26.51
241.926	-12.68
242.144	8.19
242.363	10.68
242.581	-21.95
242.799	-22.31
243.017	-7.3
243.235	-20.12
243.453	-21.89
243.672	-2.89
243.89	-8.87
244.108	2.03
244.326	31.68
244.544	32.84
244.762	19.87
244.98	27.2
245.198	13.99
245.416	0.31
245.634	-3.93
245.852	-17.92
246.07	7.92
246.288	13.48
246.506	0
246.724	12.41
246.942	24.95
247.16	8.55
247.378	-5.15
247.596	26.98
247.814	-15.65
248.032	-10.47
248.25	1.28
248.468	21.92
248.685	11.92
248.903	31.53
249.121	38.96
249.339	37.41
249.557	34.83
249.775	36.89
249.992	18.11
250.21	7.25
250.428	15.18
250.646	15.6
250.863	7.66
251.081	22.32
251.299	14.03
251.517	20.46
251.734	13.61
251.952	0.47
252.17	-8.42
252.387	-18.09
252.605	-31.1
252.823	-47.91
253.04	10.42
253.258	7.32
253.475	35.61
253.693	41.3
253.911	44.32
254.128	17.32
254.346	23.84
254.563	30.56
254.781	28.28
254.998	25.8
255.216	18.49
255.433	2.09
255.651	-11.78
255.868	-17.53
256.086	-15.85
256.303	-5.65
256.521	-5.88
256.738	-16.54
256.956	-14.41
257.173	-19.65
257.39	-13.24
257.608	-11.09
257.825	-3.65
258.043	12.05
258.26	11.52
258.477	11.98
258.695	11.36
258.912	-3.18
259.129	-30.68
259.346	-24.29
259.564	-16.81
259.781	-10.63
259.998	17.14
260.216	49.64
260.433	30.01
260.65	26.09
260.867	29.29
261.084	30.96
261.302	-2.09
261.519	21.97
261.736	22.38
261.953	19.74
262.17	33.22
262.387	24.67
262.604	20.47
262.822	22.68
263.039	32.03
263.256	26.02
263.473	23.41
263.69	24.15
263.907	30.04
264.124	39.78
264.341	23.46
264.558	37.52
264.775	34.76
264.992	27.76
265.209	14.15
265.426	23.14
265.643	4.96
265.86	-20.77
266.077	-29.76
266.294	-36.93
266.51	-9.06
266.727	-5.45
266.944	20.79
267.161	22.8
267.378	39.86
267.595	28.5
267.812	14.91
268.028	-8.54
268.245	5.98
268.462	-15.91
268.679	-12.47
268.896	1.23
269.112	-8.27
269.329	-27.53
269.546	-13.4
269.763	3.28
269.979	4.32
270.196	23.59
270.413	13.55
270.629	-10.11
270.846	-31.85
271.063	-38.99
271.279	-45.89
271.496	-39.67
271.712	-30.33
271.929	-11.24
272.146	-3.18
272.362	4.52
272.579	-2.59
272.795	12.96
273.012	7.47
273.228	9.13
273.445	5.17
273.661	9.2
273.878	-15.38
274.094	-6.54
274.311	-19.09
274.527	-52.11
274.744	-32.02
274.96	-17.77
275.177	-13.97
275.393	15.01
275.609	31.93
275.826	24.68
276.042	19.01
276.259	11.81
276.475	-20.9
276.691	-30.82
276.908	-36.44
277.124	-35.11
277.34	-41.17
277.557	-41.05
277.773	-43.86
277.989	-32.96
278.205	-14.96
278.422	-15.47
278.638	2.08
278.854	-3.16
279.07	13.11
279.286	4.11
279.503	9.26
279.719	19.8
279.935	30.44
280.151	21.58
280.367	31.68
280.583	33.59
280.799	10.15
281.016	-21.68
281.232	-11.68
281.448	-5.32
281.664	-13.43
281.88	9.04
282.096	19.97
282.312	18.11
282.528	15.6
282.744	12.08
282.96	-20.46
283.176	-28.53
283.392	-70.63
283.608	-72.65
283.824	-63.96
284.04	-71.35
284.256	-27.14
284.471	-4.39
284.687	-1.14
284.903	8.76
285.119	28.89
285.335	25.95
285.551	20.59
285.767	18.43
285.982	-4.19
286.198	-60.83
286.414	-72.77
286.63	-76.24
286.846	-58.97
287.061	-25.93
287.277	8.29
287.493	11.11
287.709	20.85
287.924	30.7
288.14	34.45
288.356	41.61
288.571	39.1
288.787	27.27
289.003	22.79
289.218	6.69
289.434	-10.66
289.65	17.28
289.865	19.3
290.081	26.75
290.296	34.76
290.512	43.95
290.727	28.99
290.943	29.93
291.159	21.16
291.374	1.7
291.59	1.05
291.805	-16.28
292.021	-13.38
292.236	-25.55
292.451	-3.99
292.667	-4.22
292.882	12.75
293.098	13.02
293.313	12.86
293.529	6.28
293.744	-3.06
293.959	-18.87
294.175	-21.93
294.39	-27.22
294.605	0.46
294.821	5.71
295.036	17.18
295.251	25.1
295.467	28.8
295.682	16.69
295.897	0.49
296.112	-1.62
296.328	1.97
296.543	-12.79
296.758	-2.95
296.973	7.64
297.188	2.41
297.404	-40.16
297.619	-30.86
297.834	-86.44
298.049	-59.34
298.264	-48.4
298.479	-24.33
298.694	9.57
298.909	16.41
299.125	5.27
299.34	-2.99
299.555	-9.23
299.77	-0.72
299.985	9.01
300.2	20.7
300.415	34.47
300.63	36.04
300.845	34.73
301.06	27.82
301.275	19.66
301.49	5.26
301.704	2.79
301.919	-14.74
302.134	-15.49
302.349	-2.3
302.564	-4.66
302.779	-18.11
302.994	1.29
303.209	13.92
303.423	5.94
303.638	27.67
303.853	22.56
304.068	15.68
304.283	8.09
304.497	-1
304.712	-11.29
304.927	11.67
305.142	26.3
305.356	27.36
305.571	24.1
305.786	19.09
306	9.98
306.215	-1.37
306.43	-13.48
306.644	-22.83
306.859	-34.36
307.074	-8.24
307.288	-12.29
307.503	5.43
307.717	6.71
307.932	25.54
308.147	19.35
308.361	26.36
308.576	13.65
308.79	28.04
309.005	0.6
309.219	2.19
309.434	-4.75
309.648	6.35
309.863	10.73
310.077	20.62
310.292	27.33
310.506	19.08
310.72	16.76
310.935	20.75
311.149	17.44
311.364	16.42
311.578	30.08
311.792	27.57
312.007	17.39
312.221	8.2
312.435	-3.47
312.649	-12.48
312.864	-7.13
313.078	-18.85
313.292	-12.43
313.507	-18.8
313.721	-19.21
313.935	-16.32
314.149	-9.4
314.363	-3.76
314.578	4.16
314.792	-19.11
315.006	-19.38
315.22	-0.19
315.434	12.74
315.648	2.16
315.862	16.61
316.077	-8.21
316.291	-7.22
316.505	-52.51
316.719	-19.62
316.933	-20.29
317.147	4.91
317.361	13.59
317.575	27.18
317.789	15.24
318.003	9.83
318.217	9.96
318.431	-8.01
318.645	-15.15
318.859	-6.63
319.073	9.53
319.287	8.33
319.5	16.94
319.714	19.67
319.928	25
320.142	15.49
320.356	31.2
320.57	2.35
320.784	3.33
320.997	-29.53
321.211	-3.66
321.425	-34.45
321.639	12.18
321.853	21.32
322.066	23.96
322.28	10.46
322.494	7.15
322.707	-3.05
322.921	-21.11
323.135	-19.05
323.349	-15.62
323.562	-8.85
323.776	-13.86
323.989	1.74
324.203	-5.06
324.417	5.97
324.63	-2.29
324.844	-14.53
325.057	-29.54
325.271	-24.85
325.485	-31.5
325.698	-7.15
325.912	17.5
326.125	17.75
326.339	34.73
326.552	35.99
326.766	24.31
326.979	28.91
327.193	26.77
327.406	-1.7
327.619	-4.78
327.833	-0.33
328.046	1.6
328.26	3.66
328.473	17.69
328.686	17.23
328.9	18.77
329.113	7.54
329.326	1.52
329.54	-1.68
329.753	13.98
329.966	13.87
330.179	1.49
330.393	11.12
330.606	15.51
330.819	-15.82
331.032	-6.27
331.246	10.91
331.459	20.17
331.672	8.75
331.885	28.17
332.098	26.72
332.311	11.24
332.525	1.58
332.738	7.37
332.951	-6.4
333.164	-7.62
333.377	1.84
333.59	-1.54
333.803	-4.24
334.016	-4.81
334.229	-22.43
334.442	-27.96
334.655	-27.11
334.868	-15.85
335.081	-10.63
335.294	-18.96
335.507	-0.17
335.72	7.89
335.933	4.03
336.146	7.13
336.359	30.35
336.572	21.15
336.785	6.8
336.997	3.72
337.21	16.81
337.423	-30.82
337.636	-39.99
337.849	-29.88
338.062	-14.16
338.274	-20.75
338.487	-15.25
338.7	-19.45
338.913	-1.34
339.125	-22.94
339.338	-18.12
339.551	2.62
339.763	12.14
339.976	5.4
340.189	4.23
340.402	13.08
340.614	21.15
340.827	28.47
341.039	24.05
341.252	28.66
341.465	17.93
341.677	5.77
341.89	-12.48
342.102	9.22
342.315	13.66
342.527	24.36
342.74	3.95
342.952	3.1
343.165	-12.41
343.377	-4.01
343.59	-8.2
343.802	18.26
344.015	34.55
344.227	35.54
344.44	30.95
344.652	31.57
344.864	33.91
345.077	36.73
345.289	43.93
345.502	53.99
345.714	50.07
345.926	38.99
346.139	10.09
346.351	0.19
346.563	-9.51
346.775	-10.63
346.988	3.53
347.2	6.57
347.412	7.37
347.624	12.64
347.837	15.67
348.049	3.47
348.261	9.51
348.473	-3.45
348.685	-13.28
348.897	-23.91
349.11	-0.8
349.322	3.09
349.534	14.1
349.746	21.39
349.958	11.01
350.17	-19.02
350.382	-16.23
350.594	-9
350.806	18.62
351.018	30.57
351.23	43.32
351.442	42.3
351.654	41.77
351.866	34.94
352.078	28.41
352.29	31.21
352.502	31.26
352.714	31.68
352.926	-0.49
353.138	9.2
353.35	-10.6
353.561	-11.24
353.773	-15.63
353.985	-6.79
354.197	-5.85
354.409	4.14
354.621	-5.79
354.832	0.15
355.044	-18.3
355.256	-30.09
355.468	-31.27
355.679	5.14
355.891	7.07
356.103	19.07
356.314	19.89
356.526	8.16
356.738	-18.81
356.949	-24.96
357.161	-13.76
357.373	-15.02
357.584	-3.01
357.796	6.72
358.008	7.03
358.219	-0.36
358.431	14.38
358.642	13.71
358.854	15.77
359.065	14.09
359.277	7.35
359.488	-4.37
359.7	-5.85
359.911	-22.98
360.123	-10.5
360.334	-7.95
360.546	-10.96
360.757	-10.63
360.969	5.3
361.18	2.13
361.391	11.71
361.603	19.51
361.814	30.72
362.025	23.51
362.237	34.38
362.448	34.51
362.659	33.02
362.871	24.35
363.082	23.54
363.293	2.71
363.504	-19.38
363.716	-25.1
363.927	-3.12
364.138	-23.82
364.349	-21.15
364.56	-10.85
364.772	4.81
364.983	3.91
365.194	22.33
365.405	26.38
365.616	36.44
365.827	23.82
366.038	31.57
366.25	21.77
366.461	22.42
366.672	10.7
366.883	10.11
367.094	5.64
367.305	-7.62
367.516	-4.54
367.727	-10.95
367.938	-5.01
368.149	-21.57
368.36	-17.85
368.571	-42.03
368.781	-47.44
368.992	-50.08
369.203	-43.46
369.414	-46.55
369.625	-40.32
369.836	-10.47
370.047	-10.84
370.258	-1.03
370.468	6.49
370.679	7.66
370.89	-15.37
371.101	9.79
371.312	7.76
371.522	6.52
371.733	14.07
371.944	16.06
372.155	11.55
372.365	13.33
372.576	19.91
372.787	16.52
372.997	15.04
373.208	2.29
373.419	2.32
373.629	-9.35
373.84	-19.94
374.05	-14.68
374.261	-24.03
374.472	-26.33
374.682	-11.97
374.893	-24.44
375.103	-22.46
375.314	-14.07
375.524	-10.81
375.735	-8.45
375.945	9.17
376.156	11.84
376.366	9.01
376.577	12.5
376.787	5.44
376.997	9.64
377.208	5.63
377.418	3.62
377.629	-6.92
377.839	-1.91
378.049	-1.98
378.26	-10.24
378.47	-16.17
378.68	0.33
378.89	-1.33
379.101	-8.61
379.311	4.26
379.521	10.38
379.732	7.79
379.942	10.41
380.152	5.35
380.362	4.58
380.572	15.17
380.783	22.86
380.993	12.75
381.203	9.78
381.413	10.68
381.623	5.38
381.833	-2.17
382.043	-4.09
382.253	8.72
382.463	14.55
382.674	20.27
382.884	22.3
383.094	21.85
383.304	23.48
383.514	13.71
383.724	8.74
383.934	2.14
384.144	8.5
384.353	5.38
384.563	12.68
384.773	17.63
384.983	16.57
385.193	9.48
385.403	7.45
385.613	9.15
385.823	3.47
386.033	3.06
386.242	7.87
386.452	7.1
386.662	1.85
386.872	4.55
387.082	3.38
387.291	-2.07
387.501	-0.72
387.711	-0.84
387.921	-1.58
388.13	2.49
388.34	4.84
388.55	1.53
388.759	-2.36
388.969	-3.79
389.179	-4.13
389.388	-4.86
389.598	-5.62
389.807	-4.02
390.017	-2.5
390.227	-5.87
390.436	-3.44
390.646	0.19
390.855	1.62
391.065	-0.21
391.274	3.27
391.484	3.06
391.693	1.35
391.903	0.47
392.112	0.31
392.322	0.38
392.531	0.74
392.74	1.64
392.95	2.87
393.159	2.21
393.369	1.69
393.578	1.12
393.787	0.07
393.997	0.83
394.206	1.38
394.415	2.05
394.625	3.05
394.834	2.94
395.043	2.11
395.252	4.87
395.462	5.06
395.671	4.16
395.88	6.5
396.089	6.28
396.298	5.99
396.508	6.59
396.717	7.15
396.926	6.17
397.135	7.13
397.344	5.98
397.553	5.76
397.762	6.61
397.971	6.59
398.181	6.14
398.39	5.78
398.599	5.42
398.808	4.79
399.017	5.7
399.226	5.86
399.435	6.45
399.644	6.62
399.853	6.77
400.062	6.23
400.27	5.46
400.479	5.43
400.688	5.6
400.897	5.28
401.106	5.07
401.315	5.5
401.524	5.75
401.733	5.48
401.941	6.03
402.15	6.11
402.359	5.92
402.568	5.77
402.777	6.04
402.985	5.69
403.194	5.76
403.403	6.13
403.612	5.93
403.82	5.56
404.029	5.67
404.238	5.7
404.446	5.84
404.655	5.87
404.864	6.09
405.072	5.99
405.281	6.06
405.489	5.81
405.698	6.08
405.906	6.14
406.115	6.11
406.324	6.11
406.532	6.1
406.741	5.84
406.949	5.8
407.158	5.98
407.366	5.79
407.574	5.91
407.783	6.05
407.991	6.04
408.2	5.96
408.408	6.05
408.617	5.98
408.825	5.91
409.033	5.86
409.242	5.82
409.45	5.68
409.658	5.62
409.867	5.6
410.075	5.68
410.283	5.7
410.491	5.71
410.7	5.66
410.908	5.83
411.116	5.87
411.324	5.78
411.533	5.76
411.741	5.75
411.949	5.65
412.157	5.47
412.365	5.57
412.573	5.63
412.781	5.62
412.99	5.45
413.198	5.57
413.406	5.61
413.614	5.6
413.822	5.63
414.03	5.69
414.238	5.61
414.446	5.59
414.654	5.5
414.862	5.49
415.07	5.42
415.278	5.49
415.486	5.23
415.694	5.22
415.902	5.13
416.109	5.18
416.317	5.12
416.525	5.25
416.733	5.24
416.941	5.28
417.149	5.19
417.357	5.19
417.564	5.19
417.772	5.29
417.98	5.25
418.188	5.3
418.395	4.99
418.603	4.9
418.811	4.82
419.019	4.88
419.226	4.91
419.434	5.11
419.642	5.05
419.849	4.98
420.057	4.95
420.265	4.92
420.472	4.91
420.68	5.01
420.887	5.09
421.095	5.18
421.302	5.14
421.51	5.06
421.717	4.99
421.925	4.96
422.132	4.84
422.34	4.7
422.547	4.7
422.755	4.84
422.962	4.85
423.17	4.74
423.377	4.85
423.585	4.88
423.792	4.7
423.999	4.73
424.207	4.79
424.414	4.65
424.621	4.71
424.829	4.82
425.036	4.93
425.243	4.93
425.451	4.94
425.658	4.85
425.865	4.92
426.072	4.65
426.28	4.68
426.487	4.82
426.694	4.78
426.901	4.81
427.108	4.89
427.315	4.8
427.523	4.8
427.73	4.82
427.937	4.61
428.144	4.69
428.351	4.66
428.558	4.73
428.765	4.66
428.972	4.67
429.179	4.58
429.386	4.72
429.593	4.49
429.8	4.65
430.007	4.88
430.214	5
430.421	4.97
430.628	5.2
430.835	5.18
431.042	4.99
431.249	5.04
431.456	5.1
431.662	5.18
431.869	5.28
432.076	5.46
432.283	5.47
432.49	5.32
432.697	5.27
432.903	5.23
433.11	5.16
433.317	5.17
433.524	5.4
433.73	5.33
433.937	5.42
434.144	5.37
434.35	5.27
434.557	5.15
434.764	5.24
434.97	5.06
435.177	5.2
435.384	5.3
435.59	5.45
435.797	5.47
436.003	5.62
436.21	5.42
436.416	5.51
436.623	5.43
436.829	5.34
437.036	5.25
437.242	5.48
437.449	5.24
437.655	5.43
437.862	5.48
438.068	5.53
438.275	5.61
438.481	5.82
438.687	5.67
438.894	5.79
439.1	5.74
439.307	5.7
439.513	5.77
439.719	5.83
439.926	5.85
440.132	5.99
440.338	5.96
440.544	5.82
440.751	5.82
440.957	5.81
441.163	5.64
441.369	5.63
441.575	5.64
441.782	5.7
441.988	5.71
442.194	5.81
442.4	5.78
442.606	5.95
442.812	5.9
443.018	5.86
443.224	6.07
443.431	6.08
443.637	5.96
443.843	6.08
444.049	6.17
444.255	6.08
444.461	6.02
444.667	6.1
444.873	5.97
445.079	5.95
445.284	5.97
445.49	6.06
445.696	6
445.902	6.1
446.108	6.11
446.314	6.05
446.52	6.21
446.726	6.33
446.931	6.24
447.137	6.21
447.343	6.24
447.549	6.23
447.755	6.16
447.96	6.25
448.166	6.31
448.372	6.26
448.578	6.14
448.783	6.31
448.989	6.34
449.195	6.32
449.4	6.43
449.606	6.48
449.812	6.33
450.017	6.27
450.223	6.25
450.428	6.24
450.634	6.22
450.84	6.22
451.045	6.29
451.251	6.35
451.456	6.32
451.662	6.34
451.867	6.33
452.073	6.34
452.278	6.33
452.483	6.39
452.689	6.45
452.894	6.57
453.1	6.46
453.305	6.51
453.51	6.58
453.716	6.52
453.921	6.48
454.127	6.56
454.332	6.55
454.537	6.45
454.742	6.47
454.948	6.46
455.153	6.48
455.358	6.5
455.563	6.58
455.769	6.56
455.974	6.57
456.179	6.52
456.384	6.45
456.589	6.39
456.795	6.36
457	6.29
457.205	6.29
457.41	6.3
457.615	6.3
457.82	6.44
458.025	6.48
458.23	6.56
458.435	6.52
458.64	6.56
458.845	6.52
459.05	6.53
459.255	6.52
459.46	6.57
459.665	6.57
459.87	6.5
460.075	6.6
460.28	6.64
460.485	6.71
460.69	6.69
460.895	6.82
461.099	6.71
461.304	6.57
461.509	6.57
461.714	6.63
461.919	6.57
462.123	6.66
462.328	6.65
462.533	6.59
462.738	6.54
462.942	6.44
463.147	6.39
463.352	6.58
463.556	6.67
463.761	6.72
463.966	6.84
464.17	6.95
464.375	6.99
464.58	6.94
464.784	6.95
464.989	7.04
465.193	7.01
465.398	7
465.602	7.14
465.807	7.17
466.011	7.11
466.216	7.11
466.42	7.11
466.625	7.18
466.829	7.16
467.034	7.22
467.238	7.29
467.443	7.25
467.647	7.09
467.851	7.19
468.056	7.27
468.26	7.28
468.464	7.33
468.669	7.48
468.873	7.47
469.077	7.47
469.282	7.49
469.486	7.47
469.69	7.44
469.894	7.44
470.099	7.38
470.303	7.34
470.507	7.43
470.711	7.36
470.915	7.44
471.119	7.44
471.324	7.49
471.528	7.52
471.732	7.69
471.936	7.69
472.14	7.75
472.344	7.83
472.548	7.87
472.752	7.87
472.956	7.87
473.16	7.81
473.364	7.76
473.568	7.67
473.772	7.63
473.976	7.71
474.18	7.79
474.384	7.83
474.588	7.9
474.792	7.93
474.995	7.96
475.199	7.99
475.403	8
475.607	8
475.811	8.01
476.015	7.9
476.218	7.8
476.422	7.82
476.626	7.88
476.83	7.95
477.033	8.04
477.237	8.24
477.441	8.26
477.644	8.29
477.848	8.33
478.052	8.38
478.255	8.3
478.459	8.27
478.663	8.4
478.866	8.4
479.07	8.28
479.273	8.38
479.477	8.5
479.681	8.41
479.884	8.39
480.088	8.51
480.291	8.51
480.495	8.46
480.698	8.51
480.901	8.5
481.105	8.56
481.308	8.63
481.512	8.67
481.715	8.67
481.919	8.72
482.122	8.72
482.325	8.71
482.529	8.73
482.732	8.68
482.935	8.66
483.138	8.58
483.342	8.51
483.545	8.6
483.748	8.63
483.952	8.68
484.155	8.78
484.358	8.74
484.561	8.65
484.764	8.72
484.967	8.72
485.171	8.76
485.374	8.77
485.577	8.79
485.78	8.83
485.983	8.82
486.186	8.75
486.389	8.83
486.592	8.79
486.795	8.77
486.998	8.78
487.201	8.81
487.404	8.88
487.607	8.92
487.81	8.86
488.013	8.87
488.216	8.89
488.419	8.82
488.622	8.79
488.825	8.82
489.028	8.83
489.231	8.76
489.433	8.73
489.636	8.75
489.839	8.79
490.042	8.8
490.245	8.79
490.447	8.8
490.65	8.87
490.853	8.84
491.056	8.83
491.258	8.93
491.461	8.98
491.664	8.91
491.866	8.92
492.069	8.96
492.272	8.81
492.474	8.79
492.677	8.84
492.879	8.79
493.082	8.79
493.285	8.94
493.487	8.94
493.69	8.91
493.892	8.87
494.095	8.87
494.297	8.83
494.5	8.86
494.702	8.93
494.905	9.05
495.107	9.08
495.309	9.09
495.512	9.08
495.714	9.07
495.917	9.1
496.119	9.12
496.321	9.15
496.524	9.16
496.726	9.17
496.928	9.11
497.13	9.07
497.333	9.05
497.535	9.1
497.737	9.13
497.939	9.19
498.142	9.11
498.344	9.16
498.546	9.18
498.748	9.18
498.95	9.18
499.152	9.34
499.355	9.37
499.557	9.4
499.759	9.5
499.961	9.52
500.163	9.49
500.365	9.54
500.567	9.5
500.769	9.46
500.971	9.53
501.173	9.55
501.375	9.6
501.577	9.6
501.779	9.6
501.981	9.61
502.183	9.58
502.385	9.58
502.587	9.66
502.788	9.78
502.99	9.74
503.192	9.79
503.394	9.8
503.596	9.81
503.798	9.72
503.999	9.78
504.201	9.79
504.403	9.79
504.605	9.83
504.806	9.94
505.008	10.02
505.21	10.02
505.411	10.12
505.613	10.19
505.815	10.18
506.016	10.18
506.218	10.3
506.42	10.28
506.621	10.27
506.823	10.3
507.024	10.31
507.226	10.37
507.427	10.43
507.629	10.45
507.83	10.48
508.032	10.47
508.233	10.48
508.435	10.44
508.636	10.52
508.838	10.51
509.039	10.57
509.24	10.53
509.442	10.54
509.643	10.5
509.845	10.57
510.046	10.65
510.247	10.74
510.448	10.84
510.65	10.87
510.851	10.88
511.052	10.88
511.254	11
511.455	10.98
511.656	10.95
511.857	10.97
512.058	10.95
512.26	10.87
512.461	10.88
512.662	11
512.863	10.97
513.064	11.02
513.265	11.05
513.466	11.11
513.667	11.1
513.868	11.14
514.069	11.15
514.27	11.1
514.471	11.04
514.672	11.05
514.873	11.07
515.074	11.11
515.275	11.22
515.476	11.3
515.677	11.37
515.878	11.51
516.079	11.53
516.28	11.54
516.481	11.53
516.682	11.5
516.882	11.41
517.083	11.39
517.284	11.44
517.485	11.48
517.686	11.55
517.886	11.56
518.087	11.5
518.288	11.46
518.488	11.46
518.689	11.46
518.89	11.45
519.091	11.64
519.291	11.6
519.492	11.67
519.692	11.66
519.893	11.79
520.094	11.75
520.294	11.87
520.495	11.87
520.695	11.88
520.896	11.79
521.096	11.82
521.297	11.81
521.497	11.84
521.698	11.86
521.898	11.89
522.099	11.94
522.299	11.89
522.499	11.88
522.7	11.92
522.9	11.94
523.101	11.84
523.301	11.89
523.501	11.91
523.702	11.96
523.902	12.02
524.102	12.18
524.302	12.24
524.503	12.24
524.703	12.24
524.903	12.2
525.103	12.08
525.304	12.05
525.504	12.09
525.704	12.07
525.904	12.06
526.104	12.15
526.304	12.19
526.504	12.19
526.705	12.21
526.905	12.27
527.105	12.3
527.305	12.26
527.505	12.24
527.705	12.28
527.905	12.3
528.105	12.28
528.305	12.32
528.505	12.39
528.705	12.43
528.905	12.48
529.105	12.52
529.304	12.5
529.504	12.54
529.704	12.52
529.904	12.51
530.104	12.52
530.304	12.59
530.503	12.6
530.703	12.67
530.903	12.67
531.103	12.71
531.303	12.75
531.502	12.84
531.702	12.89
531.902	12.94
532.101	12.95
532.301	12.99
532.501	13.04
532.7	13.02
532.9	13.06
533.1	13.09
533.299	13.06
533.499	13
533.698	12.97
533.898	13
534.097	13.01
534.297	13.1
534.496	13.1
534.696	13.25
534.895	13.31
535.095	13.41
535.294	13.44
535.494	13.5
535.693	13.44
535.892	13.42
536.092	13.4
536.291	13.45
536.491	13.46
536.69	13.54
536.889	13.57
537.088	13.55
537.288	13.52
537.487	13.61
537.686	13.57
537.886	13.66
538.085	13.75
538.284	13.79
538.483	13.75
538.682	13.78
538.882	13.78
539.081	13.79
539.28	13.84
539.479	13.89
539.678	13.97
539.877	14.02
540.076	14.1
540.275	14.18
540.474	14.22
540.673	14.3
540.872	14.32
541.071	14.34
541.27	14.36
541.469	14.42
541.668	14.44
541.867	14.52
542.066	14.53
542.265	14.65
542.464	14.71
542.663	14.8
542.862	14.88
543.06	15.03
543.259	15.09
543.458	15.18
543.657	15.23
543.856	15.28
544.054	15.27
544.253	15.27
544.452	15.29
544.651	15.34
544.849	15.32
545.048	15.36
545.247	15.41
545.445	15.38
545.644	15.4
545.843	15.5
546.041	15.56
546.24	15.58
546.438	15.76
546.637	15.8
546.836	15.89
547.034	16
547.233	16.08
547.431	16.1
547.63	16.09
547.828	16.11
548.027	16.1
548.225	16.18
548.423	16.28
548.622	16.46
548.82	16.6
549.019	16.71
549.217	16.84
549.415	16.89
549.614	16.99
549.812	16.96
550.01	17.02
550.209	17.09
550.407	17.25
550.605	17.2
550.803	17.39
551.002	17.52
551.2	17.52
551.398	17.59
551.596	17.78
551.794	17.79
551.993	17.83
552.191	17.99
552.389	18.05
552.587	18.07
552.785	18.22
552.983	18.31
553.181	18.37
553.379	18.43
553.577	18.58
553.775	18.66
553.973	18.8
554.171	18.93
554.369	19.15
554.567	19.31
554.765	19.33
554.963	19.36
555.161	19.45
555.359	19.48
555.557	19.52
555.755	19.7
555.952	19.82
556.15	19.85
556.348	19.91
556.546	20
556.744	20.05
556.941	20.19
557.139	20.33
557.337	20.48
557.535	20.56
557.732	20.66
557.93	20.7
558.128	20.79
558.325	20.91
558.523	21.12
558.721	21.28
558.918	21.53
559.116	21.72
559.313	21.91
559.511	21.99
559.708	22.09
559.906	22.13
560.104	22.18
560.301	22.19
560.498	22.35
560.696	22.47
560.893	22.58
561.091	22.8
561.288	22.98
561.486	22.99
561.683	23.11
561.88	23.28
562.078	23.38
562.275	23.48
562.473	23.66
562.67	23.83
562.867	23.93
563.064	24.01
563.262	24.12
563.459	24.27
563.656	24.33
563.853	24.38
564.051	24.55
564.248	24.69
564.445	24.79
564.642	24.89
564.839	25.19
565.036	25.32
565.234	25.45
565.431	25.55
565.628	25.73
565.825	25.71
566.022	25.82
566.219	25.9
566.416	26.01
566.613	26.1
566.81	26.17
567.007	26.22
567.204	26.23
567.401	26.46
567.598	26.5
567.795	26.68
567.991	26.73
568.188	26.9
568.385	26.86
568.582	27.01
568.779	27.03
568.976	27.12
569.172	27.21
569.369	27.29
569.566	27.34
569.763	27.36
569.96	27.53
570.156	27.59
570.353	27.67
570.55	27.69
570.746	27.85
570.943	27.84
571.14	27.84
571.336	27.87
571.533	27.99
571.729	28.03
571.926	28.16
572.123	28.28
572.319	28.31
572.516	28.32
572.712	28.36
572.909	28.31
573.105	28.32
573.302	28.43
573.498	28.44
573.695	28.44
573.891	28.46
574.087	28.43
574.284	28.46
574.48	28.56
574.677	28.68
574.873	28.72
575.069	28.84
575.266	28.84
575.462	28.8
575.658	28.77
575.854	28.78
576.051	28.81
576.247	28.73
576.443	28.72
576.639	28.72
576.835	28.69
577.032	28.68
577.228	28.75
577.424	28.8
577.62	28.74
577.816	28.84
578.012	28.86
578.208	28.86
578.404	28.84
578.6	28.95
578.796	28.98
578.993	28.95
579.189	29.07
579.384	29.13
579.58	28.98
579.776	28.88
579.972	28.87
580.168	28.75
580.364	28.7
580.56	28.7
580.756	28.73
580.952	28.68
581.148	28.74
581.343	28.76
581.539	28.86
581.735	28.84
581.931	28.86
582.127	28.73
582.322	28.75
582.518	28.67
582.714	28.59
582.909	28.58
583.105	28.6
583.301	28.62
583.496	28.51
583.692	28.53
583.888	28.51
584.083	28.49
584.279	28.34
584.474	28.37
584.67	28.41
584.866	28.43
585.061	28.4
585.257	28.47
585.452	28.52
585.648	28.39
585.843	28.33
586.039	28.39
586.234	28.38
586.429	28.38
586.625	28.56
586.82	28.6
587.015	28.53
587.211	28.47
587.406	28.44
587.601	28.39
587.797	28.38
587.992	28.43
588.187	28.37
588.383	28.49
588.578	28.5
588.773	28.46
588.968	28.49
589.163	28.58
589.359	28.51
589.554	28.42
589.749	28.54
589.944	28.58
590.139	28.57
590.334	28.67
590.529	28.84
590.724	28.95
590.919	28.94
591.114	29
591.309	28.97
591.504	28.91
591.699	28.81
591.894	28.87
592.089	28.93
592.284	28.96
592.479	29.06
592.674	29.21
592.869	29.22
593.064	29.34
593.259	29.51
593.454	29.53
593.648	29.59
593.843	29.62
594.038	29.69
594.233	29.68
594.428	29.85
594.622	29.86
594.817	30
595.012	29.96
595.206	30.1
595.401	30.19
595.596	30.27
595.79	30.33
595.985	30.35
596.18	30.4
596.374	30.38
596.569	30.5
596.763	30.66
596.958	30.87
597.153	31.01
597.347	31.01
597.542	31.04
597.736	31.14
597.931	31.24
598.125	31.23
598.319	31.41
598.514	31.58
598.708	31.56
598.903	31.62
599.097	31.78
599.291	31.82
599.486	31.81
599.68	31.99
599.874	32.06
600.069	32.15
600.263	32.26
600.457	32.4
600.651	32.36
600.846	32.35
601.04	32.36
601.234	32.38
601.428	32.37
601.622	32.55
601.817	32.62
602.011	32.62
602.205	32.65
602.399	32.61
602.593	32.51
602.787	32.52
602.981	32.49
603.175	32.53
603.369	32.54
603.563	32.55
603.757	32.63
603.951	32.66
604.145	32.6
604.339	32.68
604.533	32.71
604.727	32.66
604.921	32.74
605.115	32.79
605.309	32.75
605.502	32.74
605.696	32.78
605.89	32.8
606.084	32.7
606.278	32.69
606.471	32.55
606.665	32.42
606.859	32.26
607.053	32.17
607.246	31.99
607.44	32.02
607.634	31.98
607.827	31.91
608.021	31.84
608.214	31.81
608.408	31.69
608.602	31.62
608.795	31.62
608.989	31.55
609.182	31.57
609.376	31.53
609.569	31.49
609.763	31.36
609.956	31.32
610.15	31.17
610.343	31.09
610.537	30.93
610.73	30.72
610.923	30.61
611.117	30.57
611.31	30.46
611.504	30.42
611.697	30.45
611.89	30.36
612.083	30.24
612.277	30.1
612.47	29.95
612.663	29.89
612.856	29.85
613.05	29.7
613.243	29.64
613.436	29.59
613.629	29.41
613.822	29.37
614.015	29.28
614.209	29.32
614.402	29.32
614.595	29.32
614.788	29.14
614.981	29.12
615.174	28.87
615.367	28.66
615.56	28.53
615.753	28.54
615.946	28.55
616.139	28.56
616.332	28.56
616.525	28.49
616.718	28.43
616.911	28.31
617.103	28.25
617.296	28.13
617.489	28.08
617.682	28.03
617.875	27.92
618.067	27.89
618.26	27.85
618.453	27.84
618.646	27.77
618.838	27.66
619.031	27.59
619.224	27.55
619.417	27.59
619.609	27.53
619.802	27.55
619.994	27.5
620.187	27.46
620.38	27.36
620.572	27.33
620.765	27.41
620.957	27.36
621.15	27.26
621.342	27.17
621.535	27.12
621.727	27
621.92	26.98
622.112	27.06
622.305	27.06
622.497	27.05
622.69	27.02
622.882	26.99
623.074	26.92
623.267	26.85
623.459	26.76
623.651	26.72
623.844	26.78
624.036	26.74
624.228	26.82
624.42	26.81
624.613	26.79
624.805	26.67
624.997	26.58
625.189	26.46
625.381	26.43
625.574	26.31
625.766	26.28
625.958	26.24
626.15	26.25
626.342	26.19
626.534	26.25
626.726	26.16
626.918	26.2
627.11	26.19
627.302	26.17
627.494	26.13
627.686	26.16
627.878	26.08
628.07	25.96
628.262	25.96
628.454	25.93
628.646	25.85
628.838	25.95
629.029	25.87
629.221	25.76
629.413	25.65
629.605	25.63
629.797	25.53
629.989	25.49
630.18	25.5
630.372	25.54
630.564	25.48
630.755	25.35
630.947	25.42
631.139	25.28
631.33	25.2
631.522	25.24
631.714	25.25
631.905	25.15
632.097	25.21
632.289	25.17
632.48	25.13
632.672	25.14
632.863	25.05
633.055	24.97
633.246	25.02
633.438	24.99
633.629	24.92
633.821	25.01
634.012	25
634.203	24.95
634.395	24.9
634.586	24.95
634.777	24.87
634.969	24.85
635.16	24.72
635.351	24.67
635.543	24.56
635.734	24.58
635.925	24.59
636.117	24.71
636.308	24.79
636.499	24.72
636.69	24.7
636.881	24.64
637.073	24.58
637.264	24.47
637.455	24.51
637.646	24.5
637.837	24.48
638.028	24.5
638.219	24.67
638.41	24.76
638.601	24.73
638.792	24.76
638.983	24.61
639.174	24.37
639.365	24.22
639.556	24.13
639.747	24.03
639.938	24.19
640.129	24.22
640.32	24.25
640.511	24.25
640.701	24.3
640.892	24.06
641.083	24.03
641.274	23.92
641.465	23.95
641.655	23.9
641.846	23.98
642.037	23.87
642.228	23.84
642.418	23.71
642.609	23.72
642.8	23.73
642.99	23.84
643.181	23.89
643.372	23.89
643.562	23.78
643.753	23.68
643.943	23.54
644.134	23.44
644.324	23.46
644.515	23.44
644.705	23.58
644.896	23.64
645.086	23.71
645.277	23.6
645.467	23.62
645.658	23.37
645.848	23.29
646.038	23.26
646.229	23.41
646.419	23.32
646.61	23.37
646.8	23.33
646.99	23.25
647.18	23.2
647.371	23.24
647.561	23.19
647.751	23.21
647.941	23.22
648.132	23.2
648.322	23.16
648.512	23.23
648.702	23.3
648.892	23.34
649.082	23.32
649.272	23.35
649.462	23.32
649.653	23.17
649.843	22.94
650.033	22.85
650.223	22.78
650.413	22.69
650.603	22.7
650.793	22.8
650.983	22.77
651.172	22.69
651.362	22.57
651.552	22.46
651.742	22.34
651.932	22.24
652.122	22.12
652.312	22.07
652.502	21.94
652.691	21.94
652.881	21.89
653.071	21.94
653.261	21.91
653.45	21.94
653.64	21.81
653.83	21.66
654.019	21.37
654.209	21.25
654.399	21.06
654.588	20.89
654.778	20.74
654.968	20.66
655.157	20.43
655.347	20.19
655.536	20.05
655.726	19.85
655.915	19.61
656.105	19.5
656.294	19.3
656.484	19.08
656.673	19.07
656.863	19
657.052	18.87
657.241	18.79
657.431	18.58
657.62	18.27
657.809	18.02
657.999	17.75
658.188	17.6
658.377	17.51
658.567	17.44
658.756	17.3
658.945	17.16
659.134	16.88
659.324	16.58
659.513	16.25
659.702	16.01
659.891	15.75
660.08	15.63
660.269	15.43
660.458	15.32
660.648	15.11
660.837	15.03
661.026	14.78
661.215	14.72
661.404	14.48
661.593	14.34
661.782	14.04
661.971	13.81
662.16	13.52
662.349	13.37
662.538	13.17
662.726	13.06
662.915	13.02
663.104	12.91
663.293	12.85
663.482	12.65
663.671	12.46
663.86	12.29
664.048	12.21
664.237	11.96
664.426	11.95
664.615	11.9
664.803	11.71
664.992	11.54
665.181	11.51
665.369	11.32
665.558	11.2
665.747	11.28
665.935	11.12
666.124	10.99
666.312	10.94
666.501	10.83
666.69	10.71
666.878	10.72
667.067	10.54
667.255	10.46
667.444	10.54
667.632	10.47
667.82	10.52
668.009	10.61
668.197	10.53
668.386	10.42
668.574	10.33
668.762	10.15
668.951	10.1
669.139	10.11
669.327	10.03
669.516	10.11
669.704	10.13
669.892	10.07
670.08	10.05
670.269	10.04
670.457	9.93
670.645	9.89
670.833	9.96
671.021	10.03
671.21	10.05
671.398	10.09
671.586	10.08
671.774	10.09
671.962	10.07
672.15	10.11
672.338	10.09
672.526	10.21
672.714	10.26
672.902	10.26
673.09	10.33
673.278	10.39
673.466	10.44
673.654	10.45
673.842	10.58
674.03	10.57
674.218	10.73
674.405	10.7
674.593	10.71
674.781	10.68
674.969	10.85
675.157	10.92
675.344	11.08
675.532	11.17
675.72	11.25
675.908	11.17
676.095	11.15
676.283	11.31
676.471	11.36
676.658	11.56
676.846	11.66
677.033	11.66
677.221	11.59
677.409	11.66
677.596	11.62
677.784	11.73
677.971	11.81
678.159	11.97
678.346	12.04
678.534	12.19
678.721	12.37
678.909	12.59
679.096	12.71
679.283	12.96
679.471	13.14
679.658	13.17
679.846	13.22
680.033	13.43
680.22	13.6
680.408	13.6
680.595	13.82
680.782	14.06
680.969	14.34
681.157	14.53
681.344	14.65
681.531	14.85
681.718	14.98
681.905	14.97
682.093	15.09
682.28	15.45
682.467	15.62
682.654	15.82
682.841	16.11
683.028	16.2
683.215	16.44
683.402	16.67
683.589	16.85
683.776	16.92
683.963	17.28
684.15	17.55
684.337	17.82
684.524	18.27
684.711	18.59
684.898	18.71
685.085	18.91
685.271	19.29
685.458	19.46
685.645	19.83
685.832	20.23
686.019	20.52
686.205	20.82
686.392	21.35
686.579	21.79
686.766	22.31
686.952	22.89
687.139	23.37
687.326	23.79
687.512	24.08
687.699	24.61
687.886	24.97
688.072	25.5
688.259	25.99
688.445	26.67
688.632	27.17
688.818	27.81
689.005	28.22
689.191	28.95
689.378	29.5
689.564	30.07
689.751	30.75
689.937	31.67
690.124	32.26
690.31	32.81
690.496	33.59
690.683	34.27
690.869	34.65
691.055	35.35
691.242	36.09
691.428	36.77
691.614	37.42
691.8	38.25
691.987	39.18
692.173	40.11
692.359	40.81
692.545	41.78
692.731	42.57
692.918	42.97
693.104	43.77
693.29	44.56
693.476	45.23
693.662	45.92
693.848	46.78
694.034	47.38
694.22	48.28
694.406	48.82
694.592	49.91
694.778	50.47
694.964	51.28
695.15	51.93
695.336	52.82
695.522	53.23
695.708	54.2
695.894	54.9
696.08	55.65
696.265	56.55
696.451	57.15
696.637	58.07
696.823	58.86
697.009	59.41
697.194	59.78
697.38	60.65
697.566	60.97
697.751	61.58
697.937	62.51
698.123	63.37
698.308	64.03
698.494	64.9
698.68	65.67
698.865	66.08
699.051	66.38
699.236	66.71
699.422	67.13
699.607	67.8
699.793	68.83
699.978	69.42
700.164	70.05
700.349	70.95
700.535	71.13
700.72	71.24
700.906	72.1
701.091	72.73
701.276	73.07
701.462	73.68
701.647	74.25
701.832	74.7
702.018	75.35
702.203	75.7
702.388	76.18
702.573	76.62
702.759	77.13
702.944	77.28
703.129	77.54
703.314	77.88
703.499	77.95
703.684	78.39
703.87	78.91
704.055	79.32
704.24	79.83
704.425	80.46
704.61	80.67
704.795	81.41
704.98	81.57
705.165	81.85
705.35	82.24
705.535	82.39
705.72	82.23
705.905	82.87
706.09	83.04
706.275	83.3
706.459	83.68
706.644	83.95
706.829	84.27
707.014	84.75
707.199	85.03
707.384	85.12
707.568	85.3
707.753	85.81
707.938	86.08
708.123	86.44
708.307	87.04
708.492	87.77
708.677	87.65
708.861	87.6
709.046	87.28
709.231	87.04
709.415	86.77
709.6	86.82
709.784	87.14
709.969	87.76
710.153	87.66
710.338	87.94
710.522	88.35
710.707	88.24
710.891	88.19
711.076	88.55
711.26	88.81
711.445	88.55
711.629	88.88
711.813	89.33
711.998	89.99
712.182	89.92
712.366	90.79
712.551	91.13
712.735	91.08
712.919	91.12
713.103	91.73
713.288	91.46
713.472	91.77
713.656	91.55
713.84	91.66
714.024	91.33
714.208	91.28
714.393	91.15
714.577	91.8
714.761	91.86
714.945	91.94
715.129	92.42
715.313	92.62
715.497	92.2
715.681	92.14
715.865	92.15
716.049	91.89
716.233	91.35
716.417	91.67
716.601	92.13
716.785	92.42
716.968	92.87
717.152	94.02
717.336	94.26
717.52	94.41
717.704	94.73
717.888	94.51
718.071	94.11
718.255	94.26
718.439	93.61
718.622	93.45
718.806	93.69
718.99	93.5
719.174	93.51
719.357	94
719.541	94.5
719.724	94.83
719.908	94.68
720.092	95.12
720.275	95.63
720.459	95.43
720.642	95.68
720.826	96.43
721.009	96.12
721.193	95.31
721.376	95.33
721.559	94.66
721.743	94.61
721.926	94.71
722.11	95.42
722.293	95.65
722.476	95.66
722.66	95.87
722.843	95.91
723.026	96.25
723.21	96.25
723.393	97.27
723.576	97.28
723.759	97.8
723.942	97.48
724.126	96.94
724.309	96.31
724.492	96.35
724.675	96.01
724.858	96.34
725.041	97.16
725.224	97.61
725.407	97.69
725.59	97.46
725.774	97.34
725.957	97.46
726.14	97.61
726.322	97.45
726.505	97.49
726.688	97.39
726.871	97.47
727.054	97.25
727.237	97.54
727.42	97.9
727.603	98.18
727.786	98.2
727.968	97.93
728.151	97.66
728.334	98.09
728.517	98.26
728.699	98.19
728.882	98.59
729.065	98.65
729.248	98.2
729.43	97.85
729.613	98.3
729.796	98.65
729.978	99.33
730.161	99.27
730.343	99.56
730.526	99.8
730.708	99.67
730.891	99.45
731.073	99.6
731.256	99.83
731.438	99.93
731.621	99.87
731.803	99.57
731.986	99.56
732.168	100.04
732.35	100.15
732.533	100.28
732.715	101.18
732.898	101.52
733.08	101.11
733.262	100.16
733.444	100.67
733.627	100.78
733.809	101.06
733.991	100.98
734.173	101.43
734.355	100.19
734.538	99.41
734.72	98.99
734.902	99.38
735.084	99.15
735.266	100.47
735.448	100.89
735.63	101.56
735.812	101.75
735.994	101.88
736.176	102.05
736.358	101.96
736.54	102.43
736.722	101.76
736.904	102.26
737.086	101.25
737.268	101.9
737.45	102.38
737.632	102.91
737.814	102.96
737.995	103.97
738.177	104.19
738.359	103.22
738.541	103.65
738.723	103.54
738.904	103
739.086	102.79
739.268	102.85
739.449	102.26
739.631	102.12
739.813	101.33
739.994	100.36
740.176	100.86
740.358	101.62
740.539	101.23
740.721	102.58
740.902	103.12
741.084	102.67
741.265	102.33
741.447	103.54
741.628	103.6
741.81	104.19
741.991	104.14
742.172	103.48
742.354	103.38
742.535	102.98
742.717	101.91
742.898	102.47
743.079	103.92
743.261	103.09
743.442	102.06
743.623	102.78
743.804	101.88
743.986	101.3
744.167	100.81
744.348	101.11
744.529	100.66
744.71	100.73
744.891	99.6
745.073	100.51
745.254	101.31
745.435	101.73
745.616	101.96
745.797	101.96
745.978	102.26
746.159	101.23
746.34	100.93
746.521	100.64
746.702	101.88
746.883	101.31
747.064	102.85
747.245	103.14
747.426	104.48
747.606	103.63
747.787	104.48
747.968	103.31
748.149	102.84
748.33	101.37
748.51	101.12
748.691	99.99
748.872	101.37
749.053	101.52
749.233	101.37
749.414	102.53
749.595	103.31
749.775	102.62
749.956	103.22
750.137	103.52
750.317	101.06
750.498	100.08
750.678	98.95
750.859	98.35
751.04	97.72
751.22	99.06
751.4	100.08
751.581	100.73
751.761	101.8
751.942	102.81
752.122	101.53
752.303	101.08
752.483	100.62
752.663	100.11
752.844	99.99
753.024	102.42
753.204	102.42
753.385	102.79
753.565	102.1
753.745	101.02
753.925	99.15
754.106	99.92
754.286	99.61
754.466	99.49
754.646	99.87
754.826	102.02
755.006	99.79
755.187	101.38
755.367	100.91
755.547	101.24
755.727	100.67
755.907	101.03
756.087	98.54
756.267	98.35
756.447	97.75
756.627	96.24
756.807	98.24
756.987	99.04
757.167	99.21
757.346	99.28
757.526	100.83
757.706	99.76
757.886	99.28
758.066	99.94
758.246	99.13
758.425	97.36
758.605	96.45
758.785	97.65
758.965	98.59
759.144	97.91
759.324	99.77
759.504	100.55
759.683	99.49
759.863	98.48
760.043	99.44
760.222	97.61
760.402	97.11
760.581	97.75
760.761	97.92
760.94	98.67
761.12	98.55
761.299	99.58
761.479	99.48
761.658	98.52
761.838	98.29
762.017	99.11
762.197	97.63
762.376	97.51
762.555	98.01
762.735	99.08
762.914	99.39
763.093	99.86
763.273	99.61
763.452	98.34
763.631	96.61
763.81	95.96
763.99	96.27
764.169	96.4
764.348	97.59
764.527	97.85
764.706	95.76
764.885	96.04
765.064	97.19
765.243	97.55
765.423	98.31
765.602	101.19
765.781	99.29
765.96	96.97
766.139	95.34
766.318	97.38
766.497	96.69
766.676	95.94
766.854	97.88
767.033	99.87
767.212	99.43
767.391	99.77
767.57	104.52
767.749	102.97
767.928	102.17
768.106	98.49
768.285	97.72
768.464	94.82
768.643	94.85
768.821	94.65
769	96.67
769.179	97.3
769.357	98.8
769.536	97.14
769.715	95.78
769.893	95.62
770.072	94.7
770.25	90.78
770.429	91.48
770.607	93.26
770.786	92.55
770.964	94.22
771.143	96.62
771.321	95.74
771.5	96.88
771.678	95.96
771.857	94.15
772.035	94.45
772.213	96.43
772.392	93.39
772.57	92.7
772.748	92.04
772.927	91.8
773.105	92.8
773.283	93.65
773.461	96.85
773.64	97.85
773.818	97.28
773.996	96.72
774.174	97.95
774.352	94.56
774.531	93.91
774.709	95.54
774.887	93.11
775.065	93.33
775.243	95.53
775.421	94.81
775.599	93.69
775.777	94.87
775.955	91.79
776.133	91.96
776.311	92.39
776.489	92.35
776.667	91.07
776.844	92.18
777.022	90.98
777.2	90.51
777.378	89.98
777.556	91.77
777.734	92.04
777.911	93.53
778.089	96.17
778.267	95.95
778.445	95.37
778.622	96.58
778.8	93.18
778.978	91.71
779.155	92.79
779.333	93.49
779.511	90.69
779.688	92.64
779.866	93.76
780.043	93.24
780.221	93.2
780.398	93.54
780.576	93.43
780.753	91.13
780.931	91.32
781.108	92.32
781.286	93.27
781.463	93.33
781.64	95.03
781.818	94.97
781.995	93.79
782.172	94.19
782.35	95.26
782.527	94.24
782.704	92.3
782.882	90.27
783.059	89.57
783.236	88.02
783.413	86.55
783.59	87.45
783.768	86.37
783.945	88.21
784.122	89.51
784.299	90.87
784.476	87.96
784.653	89.08
784.83	86.98
785.007	84.18
785.184	84.34
785.361	84.39
785.538	84.56
785.715	84.99
785.892	87.01
786.069	87.64
786.246	89.13
786.423	89.49
786.6	91.4
786.776	89.5
786.953	84.74
787.13	85.8
787.307	87.37
787.484	83.76
787.66	82.99
787.837	84.01
788.014	85.94
788.191	82.91
788.367	81.66
788.544	81.28
788.721	80.96
788.897	80.27
789.074	81.18
789.25	82.56
789.427	84.35
789.603	83.5
789.78	77.71
789.956	73.69
790.133	72.31
790.309	71.69
790.486	73.1
790.662	76.42
790.839	81.66
791.015	86.7
791.192	85.98
791.368	87.91
791.544	90.54
791.721	88.47
791.897	80.16
792.073	80.28
792.249	78
792.426	81.18
792.602	84.43
792.778	87.6
792.954	90.73
793.13	91.18
793.307	85.45
793.483	82.24
793.659	84.1
793.835	82.2
794.011	86.42
794.187	85.09
794.363	86.28
794.539	89.15
794.715	88.35
794.891	87.26
795.067	86.97
795.243	82.77
795.419	76.17
795.595	80.27
795.771	76.48
795.947	78.02
796.122	82.62
796.298	84.33
796.474	84.61
796.65	84.26
796.826	83.16
797.001	80.45
797.177	74.32
797.353	71.73
797.529	73.47
797.704	76.33
797.88	76.17
798.056	85.29
798.231	84.18
798.407	84.97
798.582	85.78
798.758	89.28
798.934	87.1
799.109	86.56
799.285	87.81
799.46	85.66
799.636	86.75
799.811	85.8
799.986	84.42
800.162	80.7
800.337	80.67
800.513	78.66
800.688	74.93
800.863	82.07
801.039	87.94
801.214	83.78
801.389	81.65
801.565	86.85
801.74	79.06
801.915	70.11
802.09	70.42
802.265	70.36
802.441	71.31
802.616	72.69
802.791	76.23
802.966	81.98
803.141	81.66
803.316	79.03
803.491	80.09
803.666	82.97
803.841	79.95
804.016	79.46
804.191	80.13
804.366	77.89
804.541	73.56
804.716	72.38
804.891	75.48
805.066	72.85
805.241	70.43
805.416	76.74
805.591	81.47
805.765	85.51
805.94	90.15
806.115	89.35
806.29	84.21
806.464	82.45
806.639	75.85
806.814	73.16
806.989	72.69
807.163	77.07
807.338	76.37
807.512	80.13
807.687	83.58
807.862	85.04
808.036	85.65
808.211	84.1
808.385	78.08
808.56	75.05
808.734	70.62
808.909	64.72
809.083	74.36
809.258	74.72
809.432	79.67
809.606	93.62
809.781	91.49
809.955	84.97
810.13	75.91
810.304	73.47
810.478	70.39
810.652	68.98
810.827	65.81
811.001	75.31
811.175	76.58
811.349	77.56
811.524	84.3
811.698	79.53
811.872	77.53
812.046	76.33
812.22	75.52
812.394	70.39
812.568	75.95
812.742	69.23
812.916	69.56
813.09	65.63
813.264	63.47
813.438	62.86
813.612	64.97
813.786	56.12
813.96	64.17
814.134	68.36
814.308	68.14
814.482	72.06
814.656	70.21
814.83	60.51
815.003	64.86
815.177	65.76
815.351	70.98
815.525	82.5
815.698	80.42
815.872	66.34
816.046	64.09
816.219	63.46
816.393	55.77
816.567	58.87
816.74	66.78
816.914	65.82
817.088	69
817.261	78.63
817.435	86.97
817.608	81.21
817.782	72.87
817.955	62.49
818.129	57.27
818.302	64.65
818.475	71.92
818.649	80.95
818.822	72.83
818.996	90.81
819.169	82.82
819.342	81.75
819.516	87.43
819.689	97.1
819.862	79.18
820.035	70.19
820.209	67.28
820.382	53.27
820.555	41.98
820.728	41.42
820.901	49.4
821.075	41.56
821.248	51.57
821.421	57.51
821.594	58.1
821.767	62.71
821.94	52.34
822.113	52.94
822.286	66.52
822.459	79.84
822.632	80.03
822.805	94.16
822.978	92.39
823.151	80.06
823.324	50.26
823.496	43.06
823.669	50.51
823.842	54.28
824.015	59.14
824.188	74.3
824.361	70.92
824.533	62.89
824.706	58.09
824.879	62.28
825.051	72.55
825.224	76.05
825.397	68.47
825.569	64.9
825.742	57.7
825.915	55.21
826.087	43.51
826.26	52.28
826.432	45.23
826.605	33.6
826.777	31.24
826.95	35.43
827.122	23.7
827.295	30.26
827.467	43.44
827.64	22.55
827.812	27.62
827.984	45.94
828.157	40.58
828.329	50.71
828.501	55.38
828.674	44.13
828.846	31.1
829.018	36.84
829.19	28.96
829.363	36.16
829.535	48.88
829.707	54.88
829.879	45.2
830.051	50.16
830.223	57.14
830.395	44.69
830.568	50.87
830.74	62.45
830.912	61.08
831.084	47.57
831.256	50.91
831.428	50.35
831.6	49.76
831.772	34.81
831.943	33.68
832.115	43.79
832.287	48.89
832.459	47.17
832.631	64.89
832.803	73.29
832.975	73.21
833.146	65.86
833.318	65.87
833.49	64.06
833.662	69.9
833.833	60.26
834.005	58.53
834.177	60.88
834.348	57.85
834.52	50.19
834.692	52.73
834.863	52.58
835.035	61.02
835.206	51.82
835.378	60.56
835.549	54.92
835.721	52.67
835.892	50.82
836.064	56.15
836.235	60.32
836.407	61.46
836.578	67.39
836.749	53.84
836.921	60.43
837.092	39.85
837.264	43.93
837.435	24.56
837.606	34.5
837.777	23.07
837.949	31.95
838.12	33.64
838.291	43
838.462	33.99
838.633	38.6
838.805	34.76
838.976	32.41
839.147	25.47
839.318	45.51
839.489	53.43
839.66	64.79
839.831	59.45
840.002	66.93
840.173	64.26
840.344	63.1
840.515	48.2
840.686	56.27
840.857	48.8
841.028	48.22
841.199	49.44
841.369	45.63
841.54	28.92
841.711	103.03
841.882	95.08
842.053	65.69
842.223	62.63
842.394	54.08
842.565	19.17
842.736	12.22
842.906	5.82
843.077	11.98
843.248	34.67
843.418	43.98
843.589	46.2
843.759	53.75
843.93	59.44
844.101	44.03
844.271	50.4
844.442	58.96
844.612	62.84
844.783	46.92
844.953	46.85
845.123	35.07
845.294	29.46
845.464	8
845.635	-2.97
845.805	-19.75
845.975	1.17
846.146	-0.98
846.316	31.39
846.486	64.45
846.656	81.13
846.827	63.93
846.997	67.84
847.167	44.85
847.337	37.72
847.507	29.62
847.677	42.29
847.848	42.21
848.018	53.38
848.188	51.51
848.358	33.33
848.528	12.83
848.698	-0.61
848.868	12.31
849.038	6.01
849.208	16.89
849.378	27.21
849.548	23.26
849.718	-9.67
849.887	-10.86
850.057	-11.74
850.227	9.4
850.397	35.64
850.567	5.7
850.737	15.61
850.906	4.9
851.076	0
851.246	13.48
851.415	68.73
851.585	96.59
851.755	86.34
851.924	80.04
852.094	58.29
852.264	33.77
852.433	-2.73
852.603	-25.77
852.772	8.39
852.942	54.9
853.111	55.14
853.281	70.8
853.45	59.23
853.62	51.43
853.789	13.14
853.959	23.85
854.128	17.31
854.297	28.59
854.467	25.49
854.636	32.48
854.805	18.71
854.975	18.52
855.144	1.49
855.313	-18.53
855.482	-5.68
855.652	31.1
855.821	9.52
855.99	32.92
856.159	43.49
856.328	51.99
856.497	34.48
856.667	53.19
856.836	39.75
857.005	20.7
857.174	18.79
857.343	-15.86
857.512	-5.76
857.681	-3.28
857.85	-7.22
858.019	-46.27
858.188	-21.92
858.356	-26.78
858.525	-3.11
858.694	20.85
858.863	29.85
859.032	33.92
859.201	3.38
859.369	-2.57
859.538	-4.12
859.707	-32.24
859.876	-9.81
860.044	40.44
860.213	39.62
860.382	44.13
860.55	37.93
860.719	36.89
860.888	3.7
861.056	-18.64
861.225	-25.08
861.393	32.34
861.562	34.94
861.73	48.47
861.899	72.32
862.067	63.12
862.236	46.4
862.404	63.22
862.572	67.74
862.741	55.45
862.909	74.07
863.078	72.77
863.246	38.8
863.414	43.25
863.582	40.31
863.751	25.21
863.919	14.73
864.087	3.86
864.255	-7.42
864.424	-15.23
864.592	30.82
864.76	24.33
864.928	34.16
865.096	25.22
865.264	45.05
865.432	42.7
865.6	42.62
865.768	28.36
865.936	13.99
866.104	-14.52
866.272	-73.38
866.44	-33.32
866.608	-14.67
866.776	18.74
866.944	34.35
867.112	22.44
867.28	13.51
867.448	15.23
867.615	14.25
867.783	-15.1
867.951	-3.03
868.119	5.26
868.286	29.34
868.454	19.5
868.622	30.53
868.789	22.18
868.957	39.14
869.125	33.18
869.292	8.6
869.46	35.8
869.627	32.99
869.795	-35.82
869.963	-31.74
870.13	-8.88
870.298	-31.68
870.465	-16.48
870.632	-8.55
870.8	6.53
870.967	-20.48
871.135	7.78
871.302	39.38
871.469	43.36
871.637	41.16
871.804	65.02
871.971	9.59
872.139	-20.99
872.306	-27.66
872.473	-28.14
872.64	-155.37
872.807	-100.67
872.975	-245.96
873.142	-67.14
873.309	-48.21
873.476	39.2
873.643	80.33
873.81	60.78
873.977	70.11
874.144	61.86
874.311	-48.8
874.478	-114.7
874.645	-119.48
874.812	-14.92
874.979	-17.49
875.146	26.98
875.313	56.74
875.48	92.25
875.647	38.51
875.813	37.65
875.98	27.79
876.147	-41.28
876.314	-78.54
876.481	-61.4
876.647	-39.23
876.814	-16.57
876.981	-3.06
877.147	7.16
877.314	8.31
877.481	32.4
877.647	36.67
877.814	47.57
877.98	35.52
878.147	36.66
878.314	23.34
878.48	14.7
878.647	43.98
878.813	55.54
878.979	72.28
879.146	102.98
879.312	115.15
879.479	34.21
879.645	23.51
879.811	-9.65
879.978	-8.94
880.144	-30.31
880.31	-18.26
880.477	2.07
880.643	11.97
880.809	-33.87
880.975	11.8
881.142	-19.99
881.308	376.31
881.474	647.54
881.64	-88.83
881.806	-121.01
881.972	-31.56
882.138	15.17
882.304	21.18
882.47	-2.23
882.636	-29.62
882.802	-29.33
882.968	-4.79
883.134	15.65
883.3	19.1
883.466	104.04
883.632	97.42
883.798	39.61
883.964	48.38
884.129	141.48
884.295	17.38
884.461	-29.39
884.627	33.04
884.793	42.91
884.958	42.39
885.124	31.24
885.29	14.34
885.455	-72.68
885.621	-60.56
885.787	-44.84
885.952	-71.14
886.118	-5.47
886.283	-5.8
886.449	-2.72
886.614	-21.32
886.78	2.73
886.945	-46.21
887.111	-16.98
887.276	-42.84
887.442	-113.86
887.607	-84.79
887.773	-30.03
887.938	-29.3
888.103	-28.34
888.269	12.8
888.434	11.34
888.599	-0.68
888.764	9.58
888.93	20.12
889.095	-7.58
889.26	-21.21
889.425	-33.32
889.59	-57.93
889.756	-27.68
889.921	26.74
890.086	-4.38
890.251	56.84
890.416	-8.29
890.581	-38.67
890.746	-8.37
890.911	28.68
891.076	29.29
891.241	50.47
891.406	64.41
891.571	98.7
891.736	84.71
891.901	56.72
892.065	74.12
892.23	74.45
892.395	28.95
892.56	36.85
892.725	64.47
892.889	62.24
893.054	85.54
893.219	44.75
893.384	-16.27
893.548	-89.49
893.713	-181.87
893.878	-370.26
