Data from Ofra_PS_T2_2A_2GT03_Reflection_1.txt Node
Date: Wed Jul 21 17:28:53 EDT 2021
User: Adam
Spectrometer: FLMT01687
Trigger mode: 0
Integration Time (sec): 1.100000E0
Scans to average: 2
Electric dark correction enabled: true
Nonlinearity correction enabled: false
Boxcar width: 2
XAxis mode: Wavelengths
Number of Pixels in Spectrum: 3648
>>>>>Begin Spectral Data<<<<<
179.494	672.4
179.716	726.82
179.937	634.37
180.158	585.62
180.38	807.81
180.601	110.77
180.823	6.78
181.044	-94.08
181.265	1.84
181.486	36.86
181.708	143.3
181.929	1003.06
182.15	-620.42
182.372	19.43
182.593	-12.37
182.814	32.62
183.035	88.78
183.257	79.75
183.478	19.89
183.699	38.49
183.92	20.54
184.141	6.66
184.363	-50.69
184.584	4.67
184.805	21.92
185.026	48.58
185.247	64.67
185.468	50.6
185.689	54.03
185.91	49.46
186.132	58.5
186.353	35.36
186.574	97.11
186.795	87.2
187.016	32.88
187.237	3.41
187.458	-8.07
187.679	-20.53
187.9	-43.76
188.121	-13.02
188.342	-29.93
188.563	19.45
188.784	28.56
189.005	21.65
189.226	60.75
189.447	39.86
189.667	-110.44
189.888	-277.59
190.109	-957.79
190.33	-609.35
190.551	-942.04
190.772	-233.05
190.993	-210.38
191.214	-202.29
191.434	-111.51
191.655	-26.07
191.876	-56.39
192.097	-91.7
192.318	-86.58
192.538	-187.24
192.759	-151.61
192.98	-88
193.201	-52.69
193.421	-27.23
193.642	-2.53
193.863	9.53
194.083	-7.57
194.304	-12.21
194.525	-17.46
194.745	-27.57
194.966	-78.41
195.187	-51.78
195.407	-64.15
195.628	-119.13
195.848	-134.81
196.069	-80.04
196.29	-50.2
196.51	-58.34
196.731	-27.91
196.951	-37.58
197.172	-48.35
197.392	-73.39
197.613	-93.64
197.833	-148.11
198.054	-124.41
198.274	-72.75
198.495	-92.72
198.715	-34.77
198.936	-50.14
199.156	-34.65
199.377	-152.4
199.597	-140.44
199.817	-161.51
200.038	-67.54
200.258	-119.14
200.479	-3.95
200.699	18.11
200.919	31.38
201.14	-1.33
201.36	-15.82
201.58	-4.95
201.801	24.76
202.021	-5.09
202.241	-16.01
202.461	-20.21
202.682	-124.2
202.902	-212.97
203.122	-115.43
203.342	-88.93
203.563	-29.13
203.783	-2.02
204.003	-23.54
204.223	-38.97
204.443	16.25
204.663	-12.99
204.884	15.3
205.104	33.32
205.324	65.74
205.544	52.32
205.764	46.41
205.984	48.17
206.204	56.65
206.424	20.53
206.644	-32.6
206.864	-25.04
207.084	-91.17
207.304	-36.48
207.525	-139.53
207.745	-50.56
207.964	5.62
208.184	-28.64
208.404	-107.05
208.624	-92.17
208.844	-79.65
209.064	-324.08
209.284	-346.5
209.504	-146.25
209.724	-18.47
209.944	-16.76
210.164	4.45
210.384	26.15
210.604	28.29
210.823	-25.57
211.043	-28.08
211.263	-27.47
211.483	-42.15
211.703	-102.35
211.922	-67.32
212.142	-11.37
212.362	13.32
212.582	-0.72
212.801	-3.81
213.021	-11.3
213.241	-36.52
213.461	-66.93
213.68	-78.66
213.9	-23.47
214.12	-19
214.339	-78.64
214.559	-60.4
214.779	0.93
214.998	-14.32
215.218	-58.47
215.438	-29.81
215.657	-45.98
215.877	-74.04
216.096	-38.32
216.316	-26.77
216.535	-16.84
216.755	-7.24
216.974	-92.67
217.194	-141.01
217.413	-88.08
217.633	-99.66
217.852	-189.35
218.072	-73.24
218.291	-25.66
218.511	-0.59
218.73	-21.42
218.95	-9.36
219.169	-3.16
219.389	-43.17
219.608	-33.27
219.827	-20.63
220.047	-19.41
220.266	-10.65
220.485	-13.78
220.705	-13.54
220.924	-23
221.143	21.48
221.363	5.21
221.582	34.74
221.801	55.4
222.021	56.65
222.24	27.72
222.459	52.75
222.678	-5.24
222.897	-111
223.117	-145.06
223.336	-131.88
223.555	-67.05
223.774	-17.04
223.993	30.66
224.213	78.24
224.432	70.73
224.651	75.96
224.87	56.58
225.089	55.56
225.308	48.04
225.527	49.53
225.746	36.58
225.965	10.62
226.184	-5.6
226.404	1.55
226.623	-25.8
226.842	-20.25
227.061	21.79
227.28	16.8
227.499	5.75
227.718	21.86
227.936	18.66
228.155	12.11
228.374	5.5
228.593	16.62
228.812	23.36
229.031	30.12
229.25	-11.48
229.469	6.25
229.688	35.52
229.907	49.85
230.125	55.38
230.344	43.92
230.563	38.62
230.782	28.62
231.001	-55.36
231.22	-37.05
231.438	-7.3
231.657	-5.8
231.876	-21.67
232.095	28.08
232.313	18
232.532	-4.44
232.751	-22.57
232.969	-12.76
233.188	-74.54
233.407	-1.34
233.625	17.02
233.844	10.34
234.063	30.3
234.281	32.14
234.5	9.72
234.719	6.65
234.937	18.17
235.156	-2.71
235.374	-7.19
235.593	-18.83
235.811	-26
236.03	-29.56
236.249	-59.69
236.467	-35.06
236.686	-9.73
236.904	4.93
237.123	-14.06
237.341	0.76
237.559	5.23
237.778	-8.56
237.996	-53.35
238.215	-3.21
238.433	5.22
238.652	-7.49
238.87	-11.87
239.088	10.36
239.307	-1.27
239.525	-14.75
239.743	-32.31
239.962	-38.23
240.18	-41.84
240.398	-73.94
240.617	-68.06
240.835	-59.19
241.053	-27.69
241.271	2.76
241.49	28.32
241.708	-6.17
241.926	-11.1
242.144	-12.31
242.363	-79.68
242.581	-106.27
242.799	-52.98
243.017	1.24
243.235	-24.05
243.453	-7.77
243.672	-10.52
243.89	-6.53
244.108	-35.71
244.326	-7.56
244.544	7.96
244.762	11.13
244.98	19.71
245.198	15.4
245.416	-12.11
245.634	-24.36
245.852	-42.68
246.07	-65.79
246.288	-46.79
246.506	-72.21
246.724	-57.33
246.942	-22.89
247.16	-2.17
247.378	6.04
247.596	26.93
247.814	24.28
248.032	-14.29
248.25	-15.51
248.468	-8.22
248.685	2.33
248.903	47.61
249.121	41.89
249.339	23.79
249.557	31.93
249.775	27.71
249.992	-55.3
250.21	-38.94
250.428	-22.6
250.646	-42.29
250.863	-57.3
251.081	-30.79
251.299	-15.37
251.517	-3.05
251.734	-14.62
251.952	-24.08
252.17	-6.81
252.387	2.57
252.605	-20.23
252.823	-8.28
253.04	14.4
253.258	28.52
253.475	12.27
253.693	56.55
253.911	46.42
254.128	45.65
254.346	40.62
254.563	17.66
254.781	-12.68
254.998	-48.16
255.216	-70.7
255.433	-60.67
255.651	-8.9
255.868	23.85
256.086	62.99
256.303	72.28
256.521	51.33
256.738	25.29
256.956	-9.03
257.173	-28.05
257.39	-46.33
257.608	-73.41
257.825	-31.8
258.043	-1.4
258.26	11.18
258.477	30.31
258.695	37.29
258.912	-6.19
259.129	6.66
259.346	-40.67
259.564	-61.72
259.781	-92.55
259.998	-29.57
260.216	-1.11
260.433	60.95
260.65	46.52
260.867	56.73
261.084	38.28
261.302	6.08
261.519	-40.47
261.736	-39.17
261.953	-51.04
262.17	-19.68
262.387	-54.4
262.604	-81.68
262.822	-88.83
263.039	-66.51
263.256	-136.25
263.473	-81.87
263.69	-41.02
263.907	10.52
264.124	26.69
264.341	47.03
264.558	35.66
264.775	53.25
264.992	22
265.209	16.93
265.426	33.13
265.643	31.35
265.86	23.65
266.077	34.32
266.294	15.84
266.51	-23.94
266.727	-32.59
266.944	-18.07
267.161	-34.7
267.378	-42.59
267.595	-15.21
267.812	-39.15
268.028	-68.75
268.245	-17.54
268.462	-29.76
268.679	-44.23
268.896	4
269.112	11.79
269.329	-13.89
269.546	1.11
269.763	-4.34
269.979	-18.44
270.196	-16.34
270.413	-40.54
270.629	-63.51
270.846	-63.74
271.063	-42.21
271.279	-55.18
271.496	-36.1
271.712	11.88
271.929	55.97
272.146	28.53
272.362	30.05
272.579	57.45
272.795	15.17
273.012	-1.26
273.228	0.26
273.445	-13.62
273.661	-34
273.878	-39.77
274.094	-50.35
274.311	-57.44
274.527	4.85
274.744	-1.11
274.96	0.63
275.177	17.86
275.393	21.94
275.609	11.02
275.826	36.55
276.042	29.15
276.259	16.12
276.475	25.92
276.691	22.17
276.908	-4.98
277.124	11.6
277.34	6.86
277.557	-9.12
277.773	-12.62
277.989	-15.33
278.205	-17.91
278.422	-4.9
278.638	12.97
278.854	40.63
279.07	47.43
279.286	48.23
279.503	31.95
279.719	-11.11
279.935	-47.23
280.151	-70.68
280.367	-49.79
280.583	-62.87
280.799	-38.4
281.016	-65.32
281.232	-13.59
281.448	-5.3
281.664	28.57
281.88	16.11
282.096	41.58
282.312	56.06
282.528	45.4
282.744	30.22
282.96	53.09
283.176	33.72
283.392	17.36
283.608	13.11
283.824	11.09
284.04	5.64
284.256	14.25
284.471	1.36
284.687	3.26
284.903	15.19
285.119	42.48
285.335	19.2
285.551	39.98
285.767	27.89
285.982	7.33
286.198	-44.28
286.414	6.7
286.63	13.01
286.846	31.68
287.061	16.19
287.277	62.09
287.493	37.56
287.709	55.76
287.924	38.28
288.14	69.3
288.356	58.79
288.571	79.63
288.787	55.48
289.003	56.67
289.218	31.99
289.434	-15.49
289.65	-28.56
289.865	-38.49
290.081	-13.93
290.296	-5.12
290.512	6.53
290.727	-21.62
290.943	-26.24
291.159	-40.58
291.374	-35.87
291.59	-55.31
291.805	-45.11
292.021	-31.85
292.236	-34.36
292.451	-18.49
292.667	-8.9
292.882	15.16
293.098	6.41
293.313	-6.93
293.529	-35.19
293.744	-52.82
293.959	-57.55
294.175	-51.52
294.39	-12.52
294.605	3.46
294.821	33.4
295.036	38.7
295.251	49.46
295.467	33.47
295.682	33.08
295.897	-18.4
296.112	-34.57
296.328	-27.01
296.543	-47.86
296.758	-45.43
296.973	5.11
297.188	32.86
297.404	1.53
297.619	-14.68
297.834	-22.55
298.049	-43.21
298.264	-67.24
298.479	-8.25
298.694	5.42
298.909	19.95
299.125	27.09
299.34	37.49
299.555	9.67
299.77	24.81
299.985	-10.32
300.2	-63.45
300.415	-76.1
300.63	-37.61
300.845	-48.03
301.06	-46.3
301.275	-1.95
301.49	18.02
301.704	-1.27
301.919	-16.96
302.134	-18.5
302.349	-28.53
302.564	-108.08
302.779	-137.1
302.994	-106.66
303.209	-86.39
303.423	-57.94
303.638	11.39
303.853	-18.09
304.068	-28.32
304.283	-22.79
304.497	-23.42
304.712	-38.3
304.927	-12.21
305.142	-26.4
305.356	-14.38
305.571	-20.7
305.786	-19.92
306	-39.53
306.215	-10.61
306.43	-25.74
306.644	-12.98
306.859	24.62
307.074	43.78
307.288	3.12
307.503	-14.51
307.717	-29.59
307.932	-37.76
308.147	-56.4
308.361	-26.7
308.576	-19.46
308.79	-42.7
309.005	-32.52
309.219	-17.94
309.434	-27.38
309.648	-35.29
309.863	-5.48
310.077	-11.42
310.292	-5.02
310.506	-3.08
310.72	16.01
310.935	26.69
311.149	22.16
311.364	39.4
311.578	49.62
311.792	40.69
312.007	33.99
312.221	14
312.435	-3.44
312.649	-19.14
312.864	-45.53
313.078	-16.23
313.292	66.87
313.507	55.1
313.721	89.21
313.935	71.9
314.149	41.44
314.363	12.42
314.578	16.96
314.792	17.53
315.006	8.09
315.22	29.95
315.434	36.4
315.648	38.44
315.862	36.27
316.077	39.83
316.291	8.61
316.505	16.76
316.719	2.65
316.933	-20.19
317.147	-18.45
317.361	-49.48
317.575	-82.99
317.789	-88.27
318.003	-130.64
318.217	-102.04
318.431	-9.79
318.645	24.85
318.859	11.93
319.073	43.74
319.287	28.13
319.5	-6.75
319.714	-40.98
319.928	-63.11
320.142	-104.95
320.356	-52.8
320.57	-15.29
320.784	-22.64
320.997	-9.48
321.211	-2.69
321.425	-66.77
321.639	-114.23
321.853	-32.35
322.066	-12.04
322.28	-17.52
322.494	12.88
322.707	35.92
322.921	-2.42
323.135	-6.9
323.349	-6.23
323.562	-33.43
323.776	-48.79
323.989	-42.41
324.203	-74.27
324.417	-67.15
324.63	-70.58
324.844	-66.01
325.057	-65.91
325.271	-4.62
325.485	12.21
325.698	38.96
325.912	48.19
326.125	31.57
326.339	7.44
326.552	-6.32
326.766	-14.82
326.979	13.58
327.193	51.72
327.406	43.65
327.619	45.61
327.833	68.42
328.046	31.68
328.26	-12.79
328.473	29.87
328.686	-4.92
328.9	-18.35
329.113	2.84
329.326	-3.19
329.54	-36.37
329.753	-21.88
329.966	-61.46
330.179	-44.83
330.393	-5.62
330.606	19.07
330.819	23.23
331.032	45.2
331.246	47.26
331.459	64.26
331.672	38.73
331.885	39.82
332.098	2.46
332.311	-16.14
332.525	-67.52
332.738	-44.62
332.951	-24.38
333.164	13.02
333.377	33.38
333.59	54.94
333.803	57
334.016	39.99
334.229	38.52
334.442	28.79
334.655	28.05
334.868	29.62
335.081	20.01
335.294	2.94
335.507	-3.09
335.72	-10.35
335.933	-21.49
336.146	-16.52
336.359	10.84
336.572	-26.41
336.785	-48.12
336.997	-34.38
337.21	-3.5
337.423	-30.83
337.636	-15.27
337.849	8.55
338.062	14.57
338.274	16.68
338.487	11.11
338.7	26.61
338.913	-17.43
339.125	-53.67
339.338	-112.23
339.551	-64.14
339.763	-49.88
339.976	-10.42
340.189	11.22
340.402	26.8
340.614	14.89
340.827	8.5
341.039	-12.78
341.252	-24.33
341.465	-8.91
341.677	-9.98
341.89	-49.69
342.102	-21.69
342.315	-32.33
342.527	-59.44
342.74	-58.37
342.952	9.13
343.165	18.28
343.377	45.17
343.59	30.49
343.802	53
344.015	35.8
344.227	55.88
344.44	45.58
344.652	59.39
344.864	35.42
345.077	43.25
345.289	27.31
345.502	20.99
345.714	3.29
345.926	6.64
346.139	-11.27
346.351	2.51
346.563	16.11
346.775	25.42
346.988	20.09
347.2	12.2
347.412	-47.2
347.624	-68.52
347.837	-87.87
348.049	-61.53
348.261	-21.09
348.473	4.5
348.685	-4.6
348.897	-4.16
349.11	-26.36
349.322	-42.62
349.534	-32.56
349.746	0.91
349.958	4.71
350.17	9.63
350.382	13.01
350.594	11.65
350.806	7.24
351.018	20.38
351.23	13.55
351.442	-31.54
351.654	-40.04
351.866	-35.85
352.078	-27.36
352.29	2.25
352.502	24.17
352.714	34.61
352.926	23.43
353.138	10.21
353.35	-12.27
353.561	-15.18
353.773	-42.91
353.985	-21.12
354.197	-25.84
354.409	-25.16
354.621	-29.96
354.832	-12.3
355.044	-35.53
355.256	-33.37
355.468	-5.99
355.679	-13.13
355.891	-3.45
356.103	-1.39
356.314	10.62
356.526	-8.49
356.738	13.94
356.949	-7.71
357.161	-8.68
357.373	-22.37
357.584	-33.17
357.796	-42.12
358.008	-37.31
358.219	-11.2
358.431	-16.16
358.642	-1.89
358.854	13.69
359.065	4.46
359.277	-36.28
359.488	-34.5
359.7	-51.72
359.911	-70.07
360.123	-43.7
360.334	-35.45
360.546	-54.25
360.757	-49.62
360.969	-39.6
361.18	-34.6
361.391	-26.19
361.603	-18.11
361.814	-12.82
362.025	-17.48
362.237	-30.14
362.448	-13.31
362.659	12.96
362.871	16.08
363.082	20.4
363.293	26.73
363.504	11.04
363.716	-16.81
363.927	-25.34
364.138	-42.65
364.349	-48.34
364.56	-32.53
364.772	-25.41
364.983	-5.92
365.194	-6.89
365.405	7.09
365.616	19.29
365.827	22.73
366.038	-9.06
366.25	-1.44
366.461	-44.28
366.672	-30.71
366.883	-12.56
367.094	-2.05
367.305	-13.53
367.516	1.87
367.727	-25.84
367.938	-40.97
368.149	-34.01
368.36	-19.08
368.571	-12.71
368.781	-26
368.992	-40.92
369.203	-56.23
369.414	-62.35
369.625	-76.54
369.836	-55.52
370.047	-62.06
370.258	-43.54
370.468	-51.94
370.679	-64.06
370.89	-65.56
371.101	-41.2
371.312	-52.05
371.522	-49.92
371.733	-32.46
371.944	-14.44
372.155	-11.45
372.365	-10.46
372.576	-5.37
372.787	-6.59
372.997	-24.1
373.208	-21
373.419	16.65
373.629	-4.22
373.84	-2.54
374.05	-12.69
374.261	-13.49
374.472	-48.35
374.682	0.29
374.893	2.92
375.103	43.75
375.314	34.72
375.524	26.11
375.735	10.97
375.945	10.51
376.156	-27.73
376.366	-13.62
376.577	3.44
376.787	-7.3
376.997	3.8
377.208	7.07
377.418	-18.98
377.629	-9.32
377.839	7.24
378.049	0.74
378.26	13.67
378.47	27.93
378.68	11.55
378.89	-3.25
379.101	-15.44
379.311	-55.33
379.521	-83.97
379.732	-80.93
379.942	-72.16
380.152	-70.63
380.362	-22.06
380.572	-16.43
380.783	-11.57
380.993	5.11
381.203	13.88
381.413	18.8
381.623	24.52
381.833	25.49
382.043	9.62
382.253	0.75
382.463	-5.62
382.674	-19.27
382.884	-39.29
383.094	-31.29
383.304	-18.67
383.514	-13.79
383.724	2.24
383.934	-1.63
384.144	-14.02
384.353	-29.66
384.563	-33.3
384.773	-27.28
384.983	-28.9
385.193	-1.21
385.403	5.62
385.613	5.86
385.823	-3.99
386.033	6.68
386.242	-9.78
386.452	-11.22
386.662	-14.68
386.872	-9.14
387.082	-15.15
387.291	-24.36
387.501	-23.99
387.711	-19.58
387.921	-27.06
388.13	-24.96
388.34	-6.63
388.55	-9.79
388.759	-10.14
388.969	-3.33
389.179	-0.49
389.388	-4.49
389.598	1.73
389.807	-2.74
390.017	-4.8
390.227	-5.64
390.436	-8.22
390.646	-7.86
390.855	-3.41
391.065	-6
391.274	-8.89
391.484	-8.32
391.693	-7.96
391.903	-8.95
392.112	-4.39
392.322	0.46
392.531	3.75
392.74	4.22
392.95	0.63
393.159	-1.01
393.369	-2.09
393.578	-2.94
393.787	-3.68
393.997	-0.91
394.206	-1.89
394.415	-1.27
394.625	-1.29
394.834	-4.4
395.043	-2.28
395.252	1.48
395.462	2.11
395.671	3.47
395.88	5.88
396.089	5.51
396.298	2.3
396.508	2.33
396.717	0.37
396.926	0.91
397.135	0.55
397.344	1.38
397.553	1.21
397.762	2.62
397.971	1.91
398.181	1.84
398.39	1.37
398.599	1.36
398.808	1.56
399.017	3.03
399.226	4.41
399.435	5.78
399.644	5.9
399.853	5.09
400.062	4.27
400.27	3.01
400.479	2.86
400.688	2.24
400.897	2.43
401.106	2.45
401.315	2.56
401.524	2.33
401.733	2.98
401.941	3.58
402.15	3.67
402.359	3.69
402.568	4.04
402.777	3.94
402.985	3.59
403.194	3.67
403.403	3.59
403.612	3.02
403.82	2.91
404.029	3.08
404.238	2.85
404.446	3.07
404.655	2.91
404.864	2.95
405.072	2.55
405.281	2.77
405.489	2.46
405.698	2.59
405.906	2.55
406.115	2.65
406.324	2.5
406.532	2.63
406.741	2.86
406.949	2.79
407.158	2.79
407.366	2.86
407.574	2.82
407.783	2.7
407.991	2.54
408.2	2.74
408.408	2.72
408.617	2.7
408.825	2.64
409.033	2.79
409.242	2.8
409.45	2.91
409.658	2.85
409.867	2.99
410.075	2.89
410.283	2.73
410.491	2.57
410.7	2.55
410.908	2.51
411.116	2.83
411.324	2.73
411.533	2.65
411.741	2.87
411.949	2.95
412.157	2.62
412.365	2.73
412.573	2.77
412.781	2.78
412.99	2.51
413.198	2.66
413.406	2.56
413.614	2.65
413.822	2.51
414.03	2.5
414.238	2.36
414.446	2.63
414.654	2.4
414.862	2.54
415.07	2.75
415.278	2.95
415.486	2.64
415.694	2.84
415.902	2.56
416.109	2.37
416.317	2.21
416.525	2.16
416.733	2.11
416.941	2.2
417.149	2.25
417.357	2.33
417.564	2.5
417.772	2.74
417.98	2.77
418.188	2.79
418.395	2.88
418.603	2.92
418.811	2.48
419.019	2.31
419.226	2.44
419.434	2.36
419.642	2.25
419.849	2.54
420.057	2.73
420.265	2.58
420.472	2.38
420.68	2.35
420.887	2.13
421.095	2.08
421.302	2.13
421.51	2.34
421.717	2.47
421.925	2.67
422.132	2.58
422.34	2.28
422.547	2.3
422.755	2.12
422.962	1.9
423.17	1.95
423.377	2.12
423.585	2.2
423.792	2.16
423.999	2.35
424.207	2.24
424.414	2.39
424.621	2.3
424.829	2.36
425.036	2.38
425.243	2.51
425.451	2.3
425.658	2.03
425.865	2.3
426.072	2.11
426.28	2.37
426.487	2.29
426.694	2.31
426.901	1.89
427.108	1.89
427.315	1.66
427.523	2.03
427.73	2.28
427.937	2.41
428.144	2.38
428.351	2.38
428.558	2.48
428.765	2.28
428.972	2.25
429.179	2.41
429.386	2.56
429.593	2.23
429.8	2.08
430.007	2.22
430.214	2.21
430.421	1.98
430.628	1.84
430.835	1.92
431.042	2.04
431.249	2.06
431.456	2.08
431.662	2.26
431.869	2.44
432.076	2.36
432.283	2.46
432.49	2.45
432.697	2.46
432.903	2.27
433.11	2.13
433.317	2.18
433.524	2.37
433.73	2.29
433.937	2.57
434.144	2.59
434.35	2.44
434.557	2.26
434.764	2.31
434.97	2.12
435.177	2.24
435.384	2.19
435.59	2.31
435.797	2.5
436.003	2.6
436.21	2.54
436.416	2.67
436.623	2.65
436.829	2.58
437.036	2.63
437.242	2.64
437.449	2.49
437.655	2.48
437.862	2.5
438.068	2.32
438.275	2.5
438.481	2.73
438.687	2.72
438.894	2.61
439.1	2.76
439.307	2.91
439.513	2.8
439.719	2.81
439.926	3
440.132	2.91
440.338	2.63
440.544	2.74
440.751	2.63
440.957	2.62
441.163	2.62
441.369	2.69
441.575	2.49
441.782	2.59
441.988	2.36
442.194	2.35
442.4	2.3
442.606	2.56
442.812	2.62
443.018	2.78
443.224	2.91
443.431	3.08
443.637	2.83
443.843	2.75
444.049	2.71
444.255	2.6
444.461	2.56
444.667	2.57
444.873	2.7
445.079	2.66
445.284	2.79
445.49	2.57
445.696	2.43
445.902	2.38
446.108	2.42
446.314	2.32
446.52	2.43
446.726	2.72
446.931	2.62
447.137	2.6
447.343	2.67
447.549	2.64
447.755	2.47
447.96	2.62
448.166	2.63
448.372	2.54
448.578	2.56
448.783	2.65
448.989	2.69
449.195	2.89
449.4	2.95
449.606	2.9
449.812	2.77
450.017	2.75
450.223	2.56
450.428	2.56
450.634	2.73
450.84	2.92
451.045	2.85
451.251	2.81
451.456	3.04
451.662	3.04
451.867	3.05
452.073	2.99
452.278	3.17
452.483	3.25
452.689	3.2
452.894	3.18
453.1	3.27
453.305	3.11
453.51	2.93
453.716	2.88
453.921	2.85
454.127	2.81
454.332	2.8
454.537	2.73
454.742	2.76
454.948	2.69
455.153	2.76
455.358	2.86
455.563	2.94
455.769	3.09
455.974	3.14
456.179	2.98
456.384	2.91
456.589	2.82
456.795	2.55
457	2.57
457.205	2.87
457.41	2.93
457.615	2.94
457.82	3.06
458.025	3.1
458.23	2.81
458.435	2.77
458.64	2.73
458.845	2.88
459.05	2.77
459.255	2.9
459.46	2.85
459.665	2.9
459.87	2.84
460.075	2.84
460.28	2.86
460.485	3.05
460.69	3.05
460.895	2.88
461.099	2.82
461.304	2.99
461.509	2.87
461.714	2.8
461.919	2.98
462.123	3.03
462.328	2.96
462.533	2.86
462.738	3.05
462.942	2.93
463.147	3.09
463.352	3.13
463.556	3.22
463.761	3.27
463.966	3.34
464.17	3.23
464.375	3.08
464.58	3.03
464.784	2.89
464.989	2.8
465.193	2.84
465.398	2.9
465.602	3.02
465.807	3
466.011	3.15
466.216	3.17
466.42	3.24
466.625	3.2
466.829	3.31
467.034	3.29
467.238	3.45
467.443	3.44
467.647	3.36
467.851	3.38
468.056	3.49
468.26	3.33
468.464	3.28
468.669	3.46
468.873	3.62
469.077	3.52
469.282	3.62
469.486	3.74
469.69	3.68
469.894	3.47
470.099	3.6
470.303	3.73
470.507	3.63
470.711	3.53
470.915	3.61
471.119	3.41
471.324	3.29
471.528	3.38
471.732	3.53
471.936	3.51
472.14	3.72
472.344	3.76
472.548	3.79
472.752	3.89
472.956	4.19
473.16	4.12
473.364	4.02
473.568	4.01
473.772	4.04
473.976	3.8
474.18	3.75
474.384	3.84
474.588	3.73
474.792	3.52
474.995	3.58
475.199	3.71
475.403	3.78
475.607	3.91
475.811	3.97
476.015	4.02
476.218	4.01
476.422	3.91
476.626	3.95
476.83	4.13
477.033	4.14
477.237	4.07
477.441	4.19
477.644	4.15
477.848	4.04
478.052	3.96
478.255	4.05
478.459	4.05
478.663	4.22
478.866	4.31
479.07	4.34
479.273	4.47
479.477	4.52
479.681	4.45
479.884	4.4
480.088	4.35
480.291	4.25
480.495	4.24
480.698	4.25
480.901	4.29
481.105	4.47
481.308	4.44
481.512	4.41
481.715	4.4
481.919	4.45
482.122	4.35
482.325	4.41
482.529	4.42
482.732	4.4
482.935	4.31
483.138	4.32
483.342	4.49
483.545	4.57
483.748	4.68
483.952	4.84
484.155	4.97
484.358	4.86
484.561	4.84
484.764	4.74
484.967	4.8
485.171	4.85
485.374	4.79
485.577	4.82
485.78	4.9
485.983	4.89
486.186	4.71
486.389	4.76
486.592	4.72
486.795	4.79
486.998	4.69
487.201	4.79
487.404	4.9
487.607	4.99
487.81	4.95
488.013	5.02
488.216	4.98
488.419	4.87
488.622	4.8
488.825	4.73
489.028	4.69
489.231	4.68
489.433	4.62
489.636	4.53
489.839	4.56
490.042	4.47
490.245	4.45
490.447	4.6
490.65	4.65
490.853	4.62
491.056	4.7
491.258	4.76
491.461	4.72
491.664	4.84
491.866	4.82
492.069	4.92
492.272	4.84
492.474	4.89
492.677	4.87
492.879	4.96
493.082	5.02
493.285	5.23
493.487	5.21
493.69	5.11
493.892	5.02
494.095	4.92
494.297	4.84
494.5	4.87
494.702	4.97
494.905	5.05
495.107	5.07
495.309	4.99
495.512	5.04
495.714	5.09
495.917	5.15
496.119	5.16
496.321	5.25
496.524	5.28
496.726	5.23
496.928	5.29
497.13	5.37
497.333	5.41
497.535	5.43
497.737	5.45
497.939	5.38
498.142	5.35
498.344	5.32
498.546	5.25
498.748	5.29
498.95	5.41
499.152	5.36
499.355	5.45
499.557	5.54
499.759	5.61
499.961	5.54
500.163	5.63
500.365	5.61
500.567	5.69
500.769	5.59
500.971	5.68
501.173	5.61
501.375	5.61
501.577	5.48
501.779	5.52
501.981	5.52
502.183	5.61
502.385	5.58
502.587	5.58
502.788	5.68
502.99	5.63
503.192	5.68
503.394	5.72
503.596	5.76
503.798	5.83
503.999	5.96
504.201	5.95
504.403	6.02
504.605	6.07
504.806	5.97
505.008	5.93
505.21	6.06
505.411	6.05
505.613	6.05
505.815	6.09
506.016	6.17
506.218	6.18
506.42	6.2
506.621	6.22
506.823	6.28
507.024	6.23
507.226	6.16
507.427	6.14
507.629	6.27
507.83	6.29
508.032	6.34
508.233	6.43
508.435	6.52
508.636	6.54
508.838	6.52
509.039	6.52
509.24	6.48
509.442	6.48
509.643	6.39
509.845	6.44
510.046	6.53
510.247	6.55
510.448	6.6
510.65	6.71
510.851	6.89
511.052	6.85
511.254	6.88
511.455	6.94
511.656	7.01
511.857	6.95
512.058	6.97
512.26	6.97
512.461	6.97
512.662	6.99
512.863	6.89
513.064	6.93
513.265	7.03
513.466	7.08
513.667	7.06
513.868	7.1
514.069	7.15
514.27	7.21
514.471	7.17
514.672	7.19
514.873	7.23
515.074	7.29
515.275	7.18
515.476	7.2
515.677	7.2
515.878	7.34
516.079	7.33
516.28	7.36
516.481	7.52
516.682	7.63
516.882	7.49
517.083	7.52
517.284	7.5
517.485	7.37
517.686	7.3
517.886	7.36
518.087	7.46
518.288	7.55
518.488	7.57
518.689	7.63
518.89	7.61
519.091	7.56
519.291	7.57
519.492	7.63
519.692	7.68
519.893	7.79
520.094	7.85
520.294	7.86
520.495	7.87
520.695	7.92
520.896	7.9
521.096	7.94
521.297	7.99
521.497	8.02
521.698	7.93
521.898	7.94
522.099	7.92
522.299	7.96
522.499	7.98
522.7	8.08
522.9	8.07
523.101	8.14
523.301	8.14
523.501	8.13
523.702	8.13
523.902	8.22
524.102	8.27
524.302	8.27
524.503	8.32
524.703	8.31
524.903	8.33
525.103	8.24
525.304	8.34
525.504	8.4
525.704	8.49
525.904	8.47
526.104	8.5
526.304	8.48
526.504	8.47
526.705	8.47
526.905	8.6
527.105	8.61
527.305	8.62
527.505	8.54
527.705	8.53
527.905	8.52
528.105	8.53
528.305	8.51
528.505	8.61
528.705	8.74
528.905	8.65
529.105	8.65
529.304	8.69
529.504	8.79
529.704	8.69
529.904	8.77
530.104	8.85
530.304	8.96
530.503	8.91
530.703	8.9
530.903	8.87
531.103	8.89
531.303	8.81
531.502	8.82
531.702	8.95
531.902	9.06
532.101	8.99
532.301	9.01
532.501	9.06
532.7	9.03
532.9	9.05
533.1	9.13
533.299	9.19
533.499	9.2
533.698	9.18
533.898	9.18
534.097	9.22
534.297	9.3
534.496	9.35
534.696	9.42
534.895	9.55
535.095	9.64
535.294	9.59
535.494	9.54
535.693	9.57
535.892	9.54
536.092	9.47
536.291	9.48
536.491	9.56
536.69	9.61
536.889	9.59
537.088	9.63
537.288	9.78
537.487	9.88
537.686	9.91
537.886	9.98
538.085	10.09
538.284	10.18
538.483	10.15
538.682	10.25
538.882	10.3
539.081	10.33
539.28	10.26
539.479	10.27
539.678	10.26
539.877	10.32
540.076	10.35
540.275	10.43
540.474	10.53
540.673	10.57
540.872	10.59
541.071	10.63
541.27	10.69
541.469	10.77
541.668	10.76
541.867	10.84
542.066	10.91
542.265	10.95
542.464	10.93
542.663	11.04
542.862	11.15
543.06	11.2
543.259	11.21
543.458	11.33
543.657	11.39
543.856	11.43
544.054	11.45
544.253	11.45
544.452	11.48
544.651	11.57
544.849	11.57
545.048	11.69
545.247	11.8
545.445	11.87
545.644	11.87
545.843	11.9
546.041	11.95
546.24	12.12
546.438	12.27
546.637	12.3
546.836	12.44
547.034	12.5
547.233	12.5
547.431	12.47
547.63	12.63
547.828	12.64
548.027	12.71
548.225	12.78
548.423	12.84
548.622	12.96
548.82	13.06
549.019	13.11
549.217	13.25
549.415	13.37
549.614	13.45
549.812	13.54
550.01	13.6
550.209	13.64
550.407	13.7
550.605	13.73
550.803	13.88
551.002	13.93
551.2	14
551.398	14.18
551.596	14.32
551.794	14.34
551.993	14.48
552.191	14.56
552.389	14.68
552.587	14.73
552.785	14.81
552.983	14.95
553.181	15.19
553.379	15.31
553.577	15.41
553.775	15.66
553.973	15.81
554.171	15.87
554.369	15.9
554.567	16.02
554.765	16
554.963	16.08
555.161	16.08
555.359	16.2
555.557	16.37
555.755	16.51
555.952	16.71
556.15	16.9
556.348	17.07
556.546	17.24
556.744	17.31
556.941	17.28
557.139	17.47
557.337	17.53
557.535	17.55
557.732	17.75
557.93	18
558.128	18.06
558.325	18.28
558.523	18.42
558.721	18.51
558.918	18.5
559.116	18.62
559.313	18.68
559.511	18.95
559.708	19.13
559.906	19.4
560.104	19.55
560.301	19.7
560.498	19.71
560.696	19.75
560.893	19.8
561.091	19.96
561.288	20.11
561.486	20.29
561.683	20.49
561.88	20.74
562.078	20.85
562.275	20.96
562.473	21.09
562.67	21.27
562.867	21.35
563.064	21.57
563.262	21.75
563.459	21.89
563.656	22.05
563.853	22.16
564.051	22.27
564.248	22.44
564.445	22.61
564.642	22.7
564.839	22.86
565.036	23.04
565.234	23.3
565.431	23.44
565.628	23.63
565.825	23.81
566.022	23.96
566.219	24.01
566.416	24.04
566.613	24.12
566.81	24.22
567.007	24.28
567.204	24.31
567.401	24.49
567.598	24.56
567.795	24.68
567.991	24.81
568.188	24.94
568.385	25.08
568.582	25.22
568.779	25.33
568.976	25.45
569.172	25.6
569.369	25.57
569.566	25.69
569.763	25.76
569.96	25.75
570.156	25.71
570.353	25.77
570.55	25.81
570.746	25.88
570.943	26
571.14	26.03
571.336	26.23
571.533	26.3
571.729	26.31
571.926	26.43
572.123	26.55
572.319	26.63
572.516	26.61
572.712	26.68
572.909	26.65
573.105	26.77
573.302	26.77
573.498	26.92
573.695	26.95
573.891	27.06
574.087	27.09
574.284	27.11
574.48	27.02
574.677	27.08
574.873	27.02
575.069	27.15
575.266	27.18
575.462	27.21
575.658	27.26
575.854	27.42
576.051	27.31
576.247	27.33
576.443	27.44
576.639	27.42
576.835	27.35
577.032	27.29
577.228	27.34
577.424	27.35
577.62	27.33
577.816	27.4
578.012	27.54
578.208	27.53
578.404	27.58
578.6	27.53
578.796	27.43
578.993	27.34
579.189	27.34
579.384	27.19
579.58	27.28
579.776	27.34
579.972	27.32
580.168	27.17
580.364	27.13
580.56	27.04
580.756	26.97
580.952	26.96
581.148	26.99
581.343	27.11
581.539	27.16
581.735	27.23
581.931	27.27
582.127	27.32
582.322	27.29
582.518	27.33
582.714	27.24
582.909	27.29
583.105	27.23
583.301	27.11
583.496	27.09
583.692	27.05
583.888	26.97
584.083	27.07
584.279	27.1
584.474	27.09
584.67	27.15
584.866	27.14
585.061	26.98
585.257	27.18
585.452	27.15
585.648	27.07
585.843	27.07
586.039	27.16
586.234	26.96
586.429	26.88
586.625	26.93
586.82	26.89
587.015	26.87
587.211	26.8
587.406	26.92
587.601	26.94
587.797	27.04
587.992	27.01
588.187	27.12
588.383	27.06
588.578	27.05
588.773	26.99
588.968	26.98
589.163	27.04
589.359	26.96
589.554	26.94
589.749	26.9
589.944	27.07
590.139	27.01
590.334	27.13
590.529	27.19
590.724	27.36
590.919	27.39
591.114	27.39
591.309	27.46
591.504	27.45
591.699	27.49
591.894	27.51
592.089	27.54
592.284	27.57
592.479	27.76
592.674	27.71
592.869	27.77
593.064	27.94
593.259	28.05
593.454	28.13
593.648	28.2
593.843	28.29
594.038	28.32
594.233	28.4
594.428	28.41
594.622	28.51
594.817	28.6
595.012	28.72
595.206	28.74
595.401	28.77
595.596	28.81
595.79	28.9
595.985	29.06
596.18	29.15
596.374	29.39
596.569	29.58
596.763	29.62
596.958	29.59
597.153	29.67
597.347	29.64
597.542	29.74
597.736	29.76
597.931	29.89
598.125	30
598.319	30.15
598.514	30.15
598.708	30.34
598.903	30.38
599.097	30.43
599.291	30.49
599.486	30.44
599.68	30.48
599.874	30.68
600.069	30.68
600.263	30.6
600.457	30.79
600.651	30.79
600.846	30.76
601.04	30.89
601.234	31.1
601.428	31.21
601.622	31.31
601.817	31.26
602.011	31.44
602.205	31.45
602.399	31.37
602.593	31.41
602.787	31.52
602.981	31.35
603.175	31.43
603.369	31.36
603.563	31.41
603.757	31.53
603.951	31.61
604.145	31.47
604.339	31.6
604.533	31.42
604.727	31.27
604.921	31.15
605.115	31.16
605.309	31.14
605.502	31.17
605.696	31.14
605.89	31.14
606.084	31.15
606.278	31.14
606.471	31.04
606.665	30.92
606.859	30.85
607.053	30.73
607.246	30.61
607.44	30.66
607.634	30.66
607.827	30.57
608.021	30.42
608.214	30.39
608.408	30.24
608.602	30.12
608.795	30.04
608.989	30.03
609.182	29.9
609.376	29.85
609.569	29.71
609.763	29.67
609.956	29.59
610.15	29.4
610.343	29.32
610.537	29.27
610.73	29.19
610.923	29.07
611.117	29.13
611.31	28.98
611.504	28.87
611.697	28.64
611.89	28.53
612.083	28.39
612.277	28.37
612.47	28.28
612.663	28.29
612.856	28.28
613.05	28.08
613.243	28.03
613.436	27.93
613.629	27.8
613.822	27.6
614.015	27.53
614.209	27.33
614.402	27.2
614.595	27.12
614.788	27.12
614.981	27.06
615.174	26.9
615.367	26.88
615.56	26.78
615.753	26.61
615.946	26.5
616.139	26.52
616.332	26.61
616.525	26.57
616.718	26.63
616.911	26.55
617.103	26.48
617.296	26.36
617.489	26.23
617.682	26.08
617.875	26.05
618.067	25.94
618.26	25.72
618.453	25.68
618.646	25.62
618.838	25.66
619.031	25.79
619.224	25.79
619.417	25.85
619.609	25.79
619.802	25.67
619.994	25.61
620.187	25.58
620.38	25.48
620.572	25.43
620.765	25.42
620.957	25.2
621.15	25.06
621.342	24.97
621.535	25.05
621.727	24.99
621.92	24.99
622.112	24.97
622.305	25.06
622.497	24.88
622.69	24.91
622.882	24.95
623.074	25.04
623.267	24.89
623.459	24.83
623.651	24.65
623.844	24.63
624.036	24.55
624.228	24.49
624.42	24.6
624.613	24.75
624.805	24.68
624.997	24.64
625.189	24.66
625.381	24.66
625.574	24.48
625.766	24.37
625.958	24.33
626.15	24.31
626.342	24.19
626.534	24.21
626.726	24.25
626.918	24.22
627.11	24.16
627.302	24.04
627.494	24.01
627.686	23.96
627.878	23.89
628.07	23.93
628.262	23.85
628.454	23.79
628.646	23.82
628.838	23.83
629.029	23.73
629.221	23.89
629.413	23.79
629.605	23.6
629.797	23.49
629.989	23.4
630.18	23.23
630.372	23.21
630.564	23.19
630.755	23.24
630.947	23.35
631.139	23.2
631.33	23.02
631.522	23.13
631.714	23.09
631.905	22.94
632.097	23
632.289	23.11
632.48	23
632.672	22.86
632.863	22.69
633.055	22.73
633.246	22.68
633.438	22.62
633.629	22.63
633.821	22.68
634.012	22.59
634.203	22.49
634.395	22.46
634.586	22.46
634.777	22.45
634.969	22.47
635.16	22.48
635.351	22.38
635.543	22.4
635.734	22.4
635.925	22.25
636.117	22.27
636.308	22.32
636.499	22.17
636.69	22.08
636.881	22.1
637.073	22.1
637.264	22
637.455	22.08
637.646	22.23
637.837	22.27
638.028	22.15
638.219	22.19
638.41	22.06
638.601	21.87
638.792	21.85
638.983	21.83
639.174	21.76
639.365	21.89
639.556	21.85
639.747	21.78
639.938	21.85
640.129	21.89
640.32	21.63
640.511	21.72
640.701	21.83
640.892	21.68
641.083	21.7
641.274	21.86
641.465	21.79
641.655	21.59
641.846	21.54
642.037	21.44
642.228	21.26
642.418	21.21
642.609	21.29
642.8	21.4
642.99	21.3
643.181	21.38
643.372	21.38
643.562	21.28
643.753	21.2
643.943	21.21
644.134	21.18
644.324	21.1
644.515	21.09
644.705	21.16
644.896	21.18
645.086	21.14
645.277	21.13
645.467	21.1
645.658	20.97
645.848	20.95
646.038	20.99
646.229	20.96
646.419	20.8
646.61	20.82
646.8	20.69
646.99	20.54
647.18	20.48
647.371	20.53
647.561	20.45
647.751	20.42
647.941	20.32
648.132	20.42
648.322	20.43
648.512	20.52
648.702	20.53
648.892	20.58
649.082	20.39
649.272	20.24
649.462	19.98
649.653	19.85
649.843	19.75
650.033	19.79
650.223	19.76
650.413	19.75
650.603	19.79
650.793	19.86
650.983	19.81
651.172	19.68
651.362	19.67
651.552	19.5
651.742	19.32
651.932	19.23
652.122	19.26
652.312	19.25
652.502	19.26
652.691	19.33
652.881	19.26
653.071	19.17
653.261	18.92
653.45	18.69
653.64	18.63
653.83	18.46
654.019	18.34
654.209	18.27
654.399	18.22
654.588	17.98
654.778	17.86
654.968	17.69
655.157	17.55
655.347	17.5
655.536	17.3
655.726	17.13
655.915	16.99
656.105	16.8
656.294	16.58
656.484	16.35
656.673	16.24
656.863	16.14
657.052	15.97
657.241	15.69
657.431	15.4
657.62	15.11
657.809	14.71
657.999	14.57
658.188	14.29
658.377	14.16
658.567	13.93
658.756	13.72
658.945	13.41
659.134	13.3
659.324	13.13
659.513	12.98
659.702	12.85
659.891	12.71
660.08	12.47
660.269	12.27
660.458	12.01
660.648	11.83
660.837	11.61
661.026	11.5
661.215	11.34
661.404	11.11
661.593	10.94
661.782	10.64
661.971	10.49
662.16	10.27
662.349	10.2
662.538	9.99
662.726	9.93
662.915	9.67
663.104	9.55
663.293	9.39
663.482	9.35
663.671	9.25
663.86	9.1
664.048	8.93
664.237	8.88
664.426	8.6
664.615	8.46
664.803	8.37
664.992	8.25
665.181	8.03
665.369	7.94
665.558	7.82
665.747	7.67
665.935	7.68
666.124	7.66
666.312	7.65
666.501	7.57
666.69	7.51
666.878	7.44
667.067	7.31
667.255	7.38
667.444	7.61
667.632	7.72
667.82	7.76
668.009	7.69
668.197	7.56
668.386	7.3
668.574	7.27
668.762	7.12
668.951	7.12
669.139	7.11
669.327	7.03
669.516	6.94
669.704	6.97
669.892	7.15
670.08	7.15
670.269	7.09
670.457	7.14
670.645	7
670.833	7.04
671.021	7.03
671.21	7.19
671.398	7.47
671.586	7.52
671.774	7.26
671.962	7.35
672.15	7.36
672.338	7.06
672.526	7.2
672.714	7.2
672.902	7.15
673.09	7.2
673.278	7.52
673.466	7.53
673.654	7.84
673.842	7.9
674.03	7.93
674.218	7.76
674.405	7.86
674.593	7.76
674.781	7.9
674.969	8.01
675.157	8.1
675.344	8.19
675.532	8.3
675.72	8.35
675.908	8.41
676.095	8.38
676.283	8.42
676.471	8.71
676.658	8.76
676.846	8.83
677.033	9.05
677.221	9.12
677.409	8.93
677.596	9.04
677.784	9.06
677.971	9.1
678.159	9.17
678.346	9.36
678.534	9.54
678.721	9.89
678.909	9.99
679.096	9.99
679.283	10.17
679.471	10.2
679.658	10.18
679.846	10.45
680.033	10.82
680.22	10.84
680.408	10.89
680.595	11
680.782	11.01
680.969	11.06
681.157	11.23
681.344	11.37
681.531	11.5
681.718	11.59
681.905	11.74
682.093	12.03
682.28	12.41
682.467	12.72
682.654	13
682.841	13.18
683.028	13.38
683.215	13.5
683.402	13.49
683.589	13.63
683.776	13.94
683.963	13.9
684.15	14.19
684.337	14.56
684.524	14.98
684.711	15.29
684.898	15.57
685.085	15.84
685.271	16.29
685.458	16.48
685.645	16.72
685.832	17.32
686.019	17.82
686.205	18.13
686.392	18.53
686.579	19.08
686.766	19.58
686.952	19.81
687.139	20.37
687.326	20.86
687.512	21.34
687.699	21.68
687.886	22.17
688.072	22.5
688.259	23.04
688.445	23.56
688.632	24.01
688.818	24.78
689.005	25.33
689.191	25.78
689.378	26.5
689.564	27.38
689.751	28.05
689.937	28.79
690.124	29.75
690.31	30.15
690.496	30.71
690.683	31.35
690.869	32.16
691.055	32.85
691.242	33.8
691.428	34.58
691.614	35.51
691.8	36.39
691.987	37.17
692.173	38.01
692.359	38.94
692.545	39.66
692.731	40.32
692.918	41.14
693.104	41.76
693.29	42.52
693.476	43.38
693.662	44.06
693.848	44.62
694.034	45.44
694.22	46.13
694.406	46.94
694.592	47.92
694.778	48.88
694.964	49.7
695.15	50.54
695.336	51.34
695.522	52.25
695.708	52.93
695.894	53.64
696.08	54.43
696.265	55.15
696.451	55.93
696.637	56.98
696.823	57.75
697.009	58.28
697.194	58.83
697.38	59.19
697.566	59.76
697.751	60.58
697.937	61.64
698.123	62.38
698.308	63.2
698.494	63.84
698.68	64.35
698.865	64.95
699.051	65.8
699.236	66.4
699.422	67.06
699.607	67.57
699.793	68.04
699.978	68.32
700.164	68.82
700.349	69.75
700.535	70.54
700.72	71.11
700.906	72.07
701.091	72.48
701.276	72.58
701.462	73.56
701.647	74.35
701.832	74.65
702.018	75.31
702.203	75.89
702.388	75.59
702.573	75.79
702.759	76.55
702.944	77.06
703.129	77.29
703.314	77.86
703.499	78.11
703.684	78.17
703.87	79.14
704.055	80.21
704.24	80.66
704.425	81.37
704.61	81.82
704.795	81.78
704.98	81.52
705.165	81.75
705.35	82.01
705.535	82.43
705.72	82.75
705.905	83.63
706.09	84.35
706.275	84.64
706.459	84.42
706.644	84.43
706.829	84.51
707.014	84.45
707.199	85.01
707.384	85.72
707.568	86.12
707.753	86.61
707.938	86.87
708.123	86.66
708.307	86.76
708.492	87.03
708.677	87.44
708.861	87.5
709.046	87.44
709.231	88.05
709.415	88.41
709.6	87.94
709.784	88.09
709.969	88.72
710.153	88.35
710.338	88.27
710.522	88.76
710.707	89.37
710.891	89.56
711.076	90.08
711.26	90.18
711.445	90.26
711.629	90.27
711.813	90.46
711.998	90.9
712.182	91.01
712.366	91.35
712.551	92.41
712.735	92.6
712.919	92.28
713.103	92.98
713.288	92.61
713.472	91.88
713.656	92.54
713.84	92.63
714.024	92.79
714.208	92.77
714.393	93.12
714.577	92.47
714.761	92.57
714.945	92.58
715.129	93.11
715.313	93.26
715.497	93.94
715.681	94.83
715.865	94.58
716.049	94.74
716.233	94.25
716.417	93.84
716.601	93.05
716.785	93.06
716.968	93.1
717.152	93.89
717.336	94.04
717.52	94.76
717.704	95.07
717.888	95.5
718.071	95.24
718.255	95.69
718.439	95.29
718.622	95.41
718.806	95.5
718.99	95.52
719.174	95.23
719.357	95.29
719.541	95.51
719.724	95.24
719.908	96.64
720.092	97.44
720.275	98.09
720.459	97.46
720.642	97.23
720.826	96.08
721.009	95.23
721.193	94.01
721.376	94.81
721.559	95.41
721.743	95.59
721.926	96.33
722.11	97.36
722.293	96.96
722.476	97
722.66	96.88
722.843	96.59
723.026	95.87
723.21	96.14
723.393	96.6
723.576	96.8
723.759	96.87
723.942	97.58
724.126	97.4
724.309	97.34
724.492	97.4
724.675	97.59
724.858	98.11
725.041	98.55
725.224	98.25
725.407	98.47
725.59	98.83
725.774	98.45
725.957	98.21
726.14	98.09
726.322	98.39
726.505	97.87
726.688	98.71
726.871	99.05
727.054	99.15
727.237	98.82
727.42	99.39
727.603	98.53
727.786	98.54
727.968	98.48
728.151	98.54
728.334	98.54
728.517	99.41
728.699	99.77
728.882	100.25
729.065	100.57
729.248	100.98
729.43	100.55
729.613	101.3
729.796	102.11
729.978	101.6
730.161	101.15
730.343	101.16
730.526	100.99
730.708	99.98
730.891	101
731.073	100.63
731.256	100.49
731.438	100.51
731.621	101.42
731.803	100.6
731.986	101
732.168	100.66
732.35	100.51
732.533	100.53
732.715	100.97
732.898	101.27
733.08	101.69
733.262	102.7
733.444	102.09
733.627	102.11
733.809	103.13
733.991	103.85
734.173	102.66
734.355	102.82
734.538	103.3
734.72	102.46
734.902	102.31
735.084	102.48
735.266	102.83
735.448	102.99
735.63	103.5
735.812	103.18
735.994	104.4
736.176	104.05
736.358	103.66
736.54	103.85
736.722	103.69
736.904	102.74
737.086	103.16
737.268	104.15
737.45	104.03
737.632	103.81
737.814	102.93
737.995	102.7
738.177	102.46
738.359	101.02
738.541	102.03
738.723	103.45
738.904	104.38
739.086	104.56
739.268	105.66
739.449	105.98
739.631	105.31
739.813	105.41
739.994	105.37
740.176	105.42
740.358	105.3
740.539	105.56
740.721	105.56
740.902	106.12
741.084	106.7
741.265	106.19
741.447	106.31
741.628	106.61
741.81	105.19
741.991	105.22
742.172	105.85
742.354	106.82
742.535	106.37
742.717	106.38
742.898	106.11
743.079	106.7
743.261	106.57
743.442	105.58
743.623	107.06
743.804	107.36
743.986	107.53
744.167	105.69
744.348	105.45
744.529	104.49
744.71	103.09
744.891	102.76
745.073	102.64
745.254	103.25
745.435	103.25
745.616	103.38
745.797	103.57
745.978	103.81
746.159	103.88
746.34	102.69
746.521	105
746.702	103.37
746.883	102.86
747.064	102.58
747.245	103.61
747.426	102.26
747.606	102.76
747.787	104.5
747.968	103.69
748.149	103.29
748.33	102.87
748.51	103.83
748.691	103.61
748.872	104.49
749.053	104.89
749.233	105.24
749.414	103.64
749.595	101.81
749.775	101.19
749.956	100.81
750.137	100.91
750.317	103.07
750.498	106.72
750.678	106.53
750.859	108.18
751.04	108.51
751.22	105.76
751.4	103.41
751.581	102.55
751.761	102.36
751.942	102.22
752.122	102.91
752.303	102.17
752.483	103.02
752.663	100.84
752.844	98.76
753.024	100.3
753.204	101.39
753.385	101.65
753.565	103.31
753.745	104.48
753.925	102.73
754.106	100.86
754.286	100.88
754.466	101.15
754.646	101.29
754.826	100.55
755.006	100.53
755.187	100.92
755.367	100.97
755.547	101.48
755.727	103.06
755.907	104.25
756.087	105.09
756.267	104.38
756.447	103.49
756.627	102.15
756.807	103.36
756.987	102.99
757.167	103.5
757.346	104.2
757.526	103.65
757.706	103.5
757.886	104.59
758.066	105.06
758.246	106.15
758.425	106.92
758.605	105.16
758.785	104.64
758.965	104.66
759.144	101.77
759.324	102.83
759.504	102.94
759.683	101.37
759.863	98.13
760.043	98.08
760.222	96.55
760.402	97.59
760.581	97.74
760.761	100.59
760.94	100.75
761.12	102.96
761.299	103.31
761.479	103.44
761.658	100.94
761.838	101.56
762.017	100.38
762.197	99.37
762.376	99.43
762.555	100.54
762.735	100.52
762.914	98.69
763.093	99.37
763.273	98.13
763.452	97.73
763.631	98.14
763.81	98.95
763.99	98.12
764.169	98.91
764.348	99.09
764.527	97.08
764.706	98.96
764.885	100.62
765.064	98.28
765.243	99.63
765.423	102.09
765.602	100.32
765.781	97.46
765.96	97.6
766.139	94.88
766.318	93.92
766.497	94.09
766.676	95.9
766.854	96.88
767.033	98.36
767.212	98.14
767.391	97.79
767.57	97.08
767.749	98.51
767.928	99.22
768.106	100.29
768.285	97.14
768.464	97.05
768.643	96.18
768.821	94.86
769	95.36
769.179	98.07
769.357	97.8
769.536	97.64
769.715	97.15
769.893	98.17
770.072	99.04
770.25	99.26
770.429	99.88
770.607	99.87
770.786	97.11
770.964	97.53
771.143	95.99
771.321	96.32
771.5	98.1
771.678	97.38
771.857	95.35
772.035	96.08
772.213	94.62
772.392	91.25
772.57	94.96
772.748	96.3
772.927	95.91
773.105	96.24
773.283	98.81
773.461	96.34
773.64	96.22
773.818	96.3
773.996	97.54
774.174	95.78
774.352	93.04
774.531	89.51
774.709	91.96
774.887	89.76
775.065	89.17
775.243	89.64
775.421	92.47
775.599	91.22
775.777	89.59
775.955	88.79
776.133	88.42
776.311	87.83
776.489	84.99
776.667	87.65
776.844	89.32
777.022	88.5
777.2	88.39
777.378	90.23
777.556	91
777.734	92.53
777.911	94.98
778.089	94.57
778.267	95.19
778.445	92.57
778.622	90.22
778.8	90.69
778.978	92.5
779.155	91.45
779.333	93.35
779.511	95.71
779.688	98.04
779.866	93.65
780.043	88.84
780.221	88.25
780.398	84.42
780.576	84.39
780.753	87.71
780.931	89.75
781.108	88.63
781.286	91.13
781.463	85.95
781.64	82.35
781.818	87.14
781.995	89.51
782.172	89.55
782.35	92.49
782.527	98.48
782.704	94.8
782.882	95.31
783.059	93.52
783.236	93.94
783.413	92.37
783.59	91.22
783.768	86.49
783.945	89.77
784.122	90.41
784.299	89.24
784.476	89.19
784.653	87.87
784.83	84.58
785.007	80.33
785.184	81.63
785.361	82.49
785.538	88.38
785.715	90.77
785.892	91.67
786.069	94.28
786.246	94.78
786.423	90.78
786.6	89.63
786.776	89.14
786.953	82.37
787.13	87.34
787.307	88.05
787.484	87.55
787.66	86.71
787.837	89.39
788.014	81.48
788.191	80.87
788.367	78.56
788.544	83.22
788.721	81.34
788.897	87.75
789.074	90.92
789.25	87.05
789.427	87.63
789.603	89.36
789.78	88.47
789.956	87.46
790.133	89.32
790.309	84.09
790.486	84.53
790.662	80.77
790.839	79.53
791.015	82.9
791.192	82.06
791.368	85.84
791.544	83.47
791.721	81.13
791.897	78.14
792.073	78.29
792.249	70.25
792.426	75.9
792.602	81.72
792.778	85.17
792.954	85.62
793.13	85.48
793.307	77.77
793.483	67.98
793.659	65.62
793.835	65.5
794.011	63.82
794.187	66.47
794.363	66.85
794.539	75.22
794.715	76.2
794.891	81.44
795.067	82.79
795.243	89.49
795.419	82.06
795.595	78.38
795.771	76.56
795.947	74.8
796.122	69.09
796.298	74.52
796.474	78.21
796.65	76.76
796.826	77.6
797.001	79.47
797.177	73.66
797.353	71.07
797.529	74.84
797.704	69.82
797.88	65.34
798.056	62.52
798.231	63.22
798.407	64.23
798.582	69.6
798.758	82.86
798.934	95.13
799.109	96.06
799.285	92.83
799.46	95.35
799.636	88.47
799.811	83.03
799.986	86.56
800.162	86.5
800.337	82.13
800.513	76
800.688	76.81
800.863	87.19
801.039	82.91
801.214	80.83
801.389	87.64
801.565	87.91
801.74	68.24
801.915	76.67
802.09	78.59
802.265	87.88
802.441	84.23
802.616	85.03
802.791	84.68
802.966	83.01
803.141	76.01
803.316	74.64
803.491	83.59
803.666	85.93
803.841	87.11
804.016	83.05
804.191	84.13
804.366	76.74
804.541	68.35
804.716	67.5
804.891	70.87
805.066	76.5
805.241	74.99
805.416	76.62
805.591	74.51
805.765	81.02
805.94	76.75
806.115	75.07
806.29	68.05
806.464	71.5
806.639	56.23
806.814	49.13
806.989	44.1
807.163	57.37
807.338	58.3
807.512	61.1
807.687	56.61
807.862	72.93
808.036	77.66
808.211	77.59
808.385	84.67
808.56	97.93
808.734	106.02
808.909	95.96
809.083	93.7
809.258	102.88
809.432	101.99
809.606	76.37
809.781	70.66
809.955	74.48
810.13	66.44
810.304	60.57
810.478	58.06
810.652	68.94
810.827	68.67
811.001	65.81
811.175	60.58
811.349	69.78
811.524	63.38
811.698	50.48
811.872	43.78
812.046	54.7
812.22	65.62
812.394	66.67
812.568	82.73
812.742	97.11
812.916	92.95
813.09	75.99
813.264	74.22
813.438	69.86
813.612	55.96
813.786	53.69
813.96	68.76
814.134	70.3
814.308	87.5
814.482	100.68
814.656	93.27
814.83	84.36
815.003	89.13
815.177	69.05
815.351	58
815.525	61.23
815.698	60.17
815.872	46.5
816.046	39.59
816.219	55.97
816.393	74.8
816.567	78.68
816.74	86.89
816.914	98.15
817.088	107.69
817.261	96.19
817.435	84.49
817.608	84.06
817.782	69.7
817.955	57.19
818.129	52.73
818.302	70.39
818.475	75.2
818.649	84.21
818.822	73.25
818.996	88.69
819.169	82.2
819.342	61.35
819.516	61.18
819.689	63.55
819.862	52.48
820.035	42.04
820.209	54.6
820.382	58.66
820.555	60.38
820.728	50.87
820.901	57.51
821.075	46.4
821.248	50.04
821.421	40.57
821.594	51.77
821.767	69.41
821.94	88.93
822.113	61.18
822.286	63.98
822.459	70.72
822.632	61.22
822.805	45.81
822.978	59.38
823.151	52.06
823.324	32.8
823.496	9.47
823.669	9.4
823.842	-2.93
824.015	-11.42
824.188	15.41
824.361	27.6
824.533	26.94
824.706	43.95
824.879	50.11
825.051	35.7
825.224	30.48
825.397	20.99
825.569	-3.93
825.742	20.63
825.915	31.28
826.087	59.06
826.26	46.98
826.432	54.03
826.605	48.85
826.777	38.83
826.95	26.42
827.122	25.73
827.295	31.95
827.467	32.72
827.64	7.36
827.812	3.78
827.984	15.95
828.157	1.85
828.329	-31.37
828.501	4.12
828.674	40.23
828.846	26.4
829.018	47.9
829.19	38.97
829.363	55.4
829.535	50.65
829.707	52.49
829.879	37.66
830.051	24.11
830.223	-4.91
830.395	-48.81
830.568	-50.41
830.74	-52.35
830.912	2.99
831.084	-17.85
831.256	0.87
831.428	0.03
831.6	-18.63
831.772	-56.08
831.943	-45.91
832.115	-12.28
832.287	15.15
832.459	30.72
832.631	52
832.803	78.39
832.975	96.01
833.146	82.57
833.318	75.48
833.49	85.47
833.662	63.37
833.833	19.75
834.005	22.36
834.177	46.27
834.348	28.54
834.52	27.23
834.692	30.17
834.863	4.14
835.035	-48.84
835.206	-114.26
835.378	-87.53
835.549	-64.79
835.721	-34.65
835.892	-9.88
836.064	9.54
836.235	23.9
836.407	49.68
836.578	18.31
836.749	6.74
836.921	12.8
837.092	-15.52
837.264	-56.96
837.435	-74.08
837.606	-19.38
837.777	1.8
837.949	17.53
838.12	33.42
838.291	54.88
838.462	47.42
838.633	19.66
838.805	-3.34
838.976	-6.78
839.147	-78.18
839.318	-80.31
839.489	-112.4
839.66	-75.2
839.831	-39.32
840.002	-22.57
840.173	-30.08
840.344	20.97
840.515	18.99
840.686	-101.63
840.857	-52.61
841.028	-45.35
841.199	-21.08
841.369	-51.76
841.54	-16.4
841.711	3.69
841.882	25.41
842.053	7.53
842.223	-4.92
842.394	-4.07
842.565	-2.12
842.736	16
842.906	20.26
843.077	25.47
843.248	29.31
843.418	17.84
843.589	-43.89
843.759	11.59
843.93	18.97
844.101	20.21
844.271	31.37
844.442	57.16
844.612	58.26
844.783	42.61
844.953	10.93
845.123	9.69
845.294	-19.95
845.464	-280.15
845.635	-107.67
845.805	-7.18
845.975	5.19
846.146	-35.31
846.316	-30.14
846.486	-9.96
846.656	33.16
846.827	20.65
846.997	25.63
847.167	66.58
847.337	31.65
847.507	-19.91
847.677	-9.99
847.848	44.82
848.018	43.85
848.188	45.74
848.358	28.19
848.528	21.41
848.698	-33.48
848.868	-154.69
849.038	-234.35
849.208	-68.73
849.378	-21.5
849.548	-12.86
849.718	10.61
849.887	33.32
850.057	6.41
850.227	-30.3
850.397	-25.92
850.567	-74.75
850.737	-251.52
850.906	-918.13
851.076	-773.05
851.246	-343.72
851.415	-18.73
851.585	-14.71
851.755	-19.82
851.924	34.94
852.094	19.93
852.264	-51.66
852.433	-732.21
852.603	-107.55
852.772	-33.62
852.942	-47.29
853.111	-46.61
853.281	34.84
853.45	73.97
853.62	-4.9
853.789	-2.48
853.959	56.2
854.128	-28.4
854.297	-88.9
854.467	-86.82
854.636	-85.78
854.805	-56.28
854.975	-83.75
855.144	-204.52
855.313	-268.18
855.482	-461.68
855.652	-253.35
855.821	-121.95
855.99	20.16
856.159	19.52
856.328	27.77
856.497	19.54
856.667	3.69
856.836	6
857.005	-24.9
857.174	-88.02
857.343	-118.08
857.512	-99.57
857.681	-163.02
857.85	-233.66
858.019	-106.87
858.188	-73.03
858.356	-88.13
858.525	-131.54
858.694	-96.77
858.863	-194.68
859.032	-155.1
859.201	-204.15
859.369	-135.33
859.538	-80.32
859.707	-72.38
859.876	-155.14
860.044	-81.73
860.213	27.54
860.382	7.19
860.55	10.49
860.719	72.34
860.888	52.22
861.056	8.18
861.225	37.44
861.393	94.95
861.562	90.96
861.73	58.69
861.899	12.83
862.067	-1808.62
862.236	-82.35
862.404	-245.39
862.572	-148.1
862.741	-36.31
862.909	-33.21
863.078	-176.63
863.246	-105.98
863.414	-88.35
863.582	-78.69
863.751	-70.96
863.919	-24.28
864.087	21.75
864.255	49.23
864.424	-176.69
864.592	-20.49
864.76	-82.42
864.928	-477.2
865.096	-360.99
865.264	-187.47
865.432	-2030.68
865.6	-256.25
865.768	-100.09
865.936	-61.18
866.104	-43.99
866.272	-22.34
866.44	-154.53
866.608	397.55
866.776	190.33
866.944	2440.7
867.112	-508.26
867.28	-231.04
867.448	-79.74
867.615	-29.13
867.783	-3.37
867.951	0.04
868.119	70.9
868.286	17.23
868.454	-104.58
868.622	-132.34
868.789	-180.26
868.957	-4925
869.125	-2880.26
869.292	-173.1
869.46	-225.78
869.627	-26.81
869.795	-30.58
869.963	9.17
870.13	14.05
870.298	46.2
870.465	-40.24
870.632	-58.43
870.8	-41.99
870.967	-92.66
871.135	-190.82
871.302	-131.07
871.469	-135.95
871.637	-221.89
871.804	-87.71
871.971	-136.86
872.139	-450.47
872.306	-47.78
872.473	-48.23
872.64	-268.88
872.807	25.49
872.975	74.62
873.142	-86
873.309	866.22
873.476	120.99
873.643	218.28
873.81	129.45
873.977	123.5
874.144	103.85
874.311	-8.35
874.478	-160.59
874.645	-166.52
874.812	-91.74
874.979	-39.64
875.146	-49.41
875.313	-53.07
875.48	30.41
875.647	3.49
875.813	-42.96
875.98	-22.72
876.147	-44.62
876.314	-117.96
876.481	978.93
876.647	-1003.93
876.814	375.91
876.981	61.35
877.147	-0.43
877.314	7.09
877.481	8.17
877.647	11.99
877.814	-30.59
877.98	-91.1
878.147	-25.49
878.314	39.07
878.48	32.98
878.647	62.19
878.813	124.71
878.979	110.07
879.146	66.58
879.312	48.14
879.479	9.55
879.645	-132.02
879.811	-295.11
879.978	-931.68
880.144	-267.84
880.31	-154.37
880.477	-379.18
880.643	-485.74
880.809	-119.77
880.975	-80.41
881.142	-635
881.308	-49.12
881.474	8.31
881.64	-63.4
881.806	-143.27
881.972	-50
882.138	-60.02
882.304	-11.1
882.47	-190.05
882.636	-761.89
882.802	-238.69
882.968	-42.31
883.134	-41.2
883.3	-26.57
883.466	38.04
883.632	77.4
883.798	19.14
883.964	0.7
884.129	26.79
884.295	2.76
884.461	-83.12
884.627	-96.51
884.793	-103.18
884.958	-62.98
885.124	-155.71
885.29	-242.11
885.455	-218.2
885.621	-76.99
885.787	-128.66
885.952	-65.11
886.118	-85.34
886.283	-98.4
886.449	-169.24
886.614	-198.13
886.78	-403.65
886.945	1312.3
887.111	-728.03
887.276	-688.35
887.442	-1003.18
887.607	-386.08
887.773	-275.96
887.938	-219.97
888.103	-195.82
888.269	-95.63
888.434	-153.78
888.599	-42.54
888.764	60.45
888.93	38.04
889.095	-4.92
889.26	-55.37
889.425	-42.28
889.59	-73.81
889.756	-127.41
889.921	-64.16
890.086	15.86
890.251	2.35
890.416	-163.27
890.581	-1586.29
890.746	271.96
890.911	672.29
891.076	227.16
891.241	-489.93
891.406	79.68
891.571	22.16
891.736	-164.91
891.901	-437.61
892.065	421.43
892.23	127.84
892.395	211.84
892.56	273.84
892.725	16.8
892.889	-20.73
893.054	-187.22
893.219	-64.58
893.384	-28.83
893.548	-121.06
893.713	-145.04
893.878	-87.15
