Data from Ofra_1a_PS_8CX24_Reflection_3.txt Node
Date: Tue Jul 20 11:01:27 EDT 2021
User: Adam
Spectrometer: FLMT01687
Trigger mode: 0
Integration Time (sec): 1.004000E0
Scans to average: 2
Electric dark correction enabled: true
Nonlinearity correction enabled: false
Boxcar width: 2
XAxis mode: Wavelengths
Number of Pixels in Spectrum: 3648
>>>>>Begin Spectral Data<<<<<
179.494	-494.42
179.716	-656.49
179.937	1175.25
180.158	-1519.75
180.38	215.61
180.601	-14.75
180.823	-44.3
181.044	-121.91
181.265	-301.19
181.486	272.76
181.708	43.57
181.929	-6563.64
182.15	-9.87
182.372	590.15
182.593	390.53
182.814	-260.44
183.035	-81.43
183.257	-15.18
183.478	2.44
183.699	-4.07
183.92	-33.15
184.141	-32.44
184.363	-36.96
184.584	-33.51
184.805	-8.31
185.026	25.6
185.247	38.26
185.468	3.29
185.689	-3.15
185.91	-30.4
186.132	-23.61
186.353	-24.14
186.574	7.06
186.795	17.37
187.016	34.46
187.237	47.21
187.458	50.18
187.679	59.53
187.9	70.18
188.121	77.93
188.342	54.17
188.563	51.4
188.784	49.81
189.005	31.7
189.226	30.45
189.447	34.4
189.667	22.65
189.888	1.05
190.109	-9.57
190.33	9.21
190.551	-16.55
190.772	-10.32
190.993	-19.14
191.214	-17.37
191.434	-41.73
191.655	-10.72
191.876	46.64
192.097	72.77
192.318	58.62
192.538	20.9
192.759	17.48
192.98	-5.62
193.201	1.06
193.421	-22.31
193.642	0.64
193.863	18.99
194.083	29.84
194.304	33.01
194.525	43.83
194.745	35.07
194.966	12.37
195.187	9.94
195.407	-9.38
195.628	15.23
195.848	19.03
196.069	1.26
196.29	10.38
196.51	-2.14
196.731	-21.47
196.951	-26.39
197.172	-0.7
197.392	4.17
197.613	37.59
197.833	32.67
198.054	40.56
198.274	13.76
198.495	2.21
198.715	-13.05
198.936	11.65
199.156	-10.58
199.377	9.88
199.597	16.13
199.817	11.83
200.038	-9.95
200.258	20.16
200.479	31.16
200.699	22.59
200.919	32.78
201.14	14.44
201.36	19.66
201.58	-8.98
201.801	-9.35
202.021	-42.88
202.241	-22.94
202.461	-30.87
202.682	-24.04
202.902	-9.4
203.122	18.41
203.342	23.59
203.563	20.88
203.783	9.23
204.003	-1.36
204.223	2.97
204.443	6.98
204.663	-14.18
204.884	40.58
205.104	44.81
205.324	39.67
205.544	-0.7
205.764	37.47
205.984	33.45
206.204	23.08
206.424	-7.51
206.644	-10.34
206.864	-49.22
207.084	-28.56
207.304	-34
207.525	-4.1
207.745	12.89
207.964	25.95
208.184	29.1
208.404	30.05
208.624	28.31
208.844	30.32
209.064	15.64
209.284	-5.27
209.504	-17.8
209.724	-17.09
209.944	-31.37
210.164	-13.28
210.384	-7.93
210.604	-17.51
210.823	-49.14
211.043	-23.29
211.263	-77.77
211.483	-20.36
211.703	-7.88
211.922	27.38
212.142	21.77
212.362	33.61
212.582	41.38
212.801	29.3
213.021	7.05
213.241	16.49
213.461	15.92
213.68	6.32
213.9	16.95
214.12	19.99
214.339	9.72
214.559	1.07
214.779	-0.45
214.998	-2.21
215.218	-14.67
215.438	7.99
215.657	13.4
215.877	-1.82
216.096	2.04
216.316	17.34
216.535	2
216.755	4.88
216.974	14.1
217.194	20.94
217.413	6.98
217.633	-6.05
217.852	-7.23
218.072	9.69
218.291	8.29
218.511	16.38
218.73	26.74
218.95	14.62
219.169	-25.91
219.389	-22.7
219.608	-32.67
219.827	-28.2
220.047	-22.61
220.266	-48.62
220.485	-62.2
220.705	-46.18
220.924	-47.71
221.143	0.05
221.363	16.88
221.582	6.66
221.801	12.24
222.021	27.57
222.24	29.14
222.459	46.48
222.678	43.04
222.897	24.78
223.117	21.95
223.336	39.6
223.555	41.35
223.774	79.85
223.993	120.82
224.213	120.47
224.432	86.81
224.651	59.82
224.87	47.81
225.089	32.63
225.308	25.3
225.527	14.86
225.746	22.4
225.965	7.19
226.184	-13.25
226.404	-11.82
226.623	-0.15
226.842	-7.62
227.061	-1.03
227.28	18.46
227.499	24.4
227.718	15.51
227.936	19.29
228.155	22.99
228.374	12.82
228.593	9.67
228.812	23.95
229.031	27.51
229.25	17.37
229.469	20.62
229.688	26.33
229.907	16.06
230.125	17.39
230.344	8.6
230.563	20.1
230.782	13.42
231.001	7.16
231.22	13.58
231.438	28.72
231.657	16
231.876	20.86
232.095	27.5
232.313	15.5
232.532	12.89
232.751	24.07
232.969	22.64
233.188	14.95
233.407	26.49
233.625	31.02
233.844	38.85
234.063	34.65
234.281	46.5
234.5	41.71
234.719	38.63
234.937	17.42
235.156	32.57
235.374	16.51
235.593	26.63
235.811	46.4
236.03	52.63
236.249	42.24
236.467	47.5
236.686	32.75
236.904	22.59
237.123	4.51
237.341	0.82
237.559	0.97
237.778	31.61
237.996	3.25
238.215	-17.52
238.433	-98.47
238.652	-32.82
238.87	-77.65
239.088	-44.08
239.307	-22.59
239.525	17.42
239.743	-4.89
239.962	-13.89
240.18	-4.46
240.398	1.79
240.617	-15.88
240.835	-20.06
241.053	-0.38
241.271	-5.11
241.49	11.83
241.708	-1.31
241.926	-0.9
242.144	19.31
242.363	5.8
242.581	-13
242.799	-6.36
243.017	4.82
243.235	-11.79
243.453	-33.04
243.672	-37.6
243.89	-37.04
244.108	-20.26
244.326	4.01
244.544	22.67
244.762	24.96
244.98	33.62
245.198	33.12
245.416	21.18
245.634	21.56
245.852	15.67
246.07	42.01
246.288	45.42
246.506	61.62
246.724	53.36
246.942	56.13
247.16	40.54
247.378	48.23
247.596	46.91
247.814	63.39
248.032	28.76
248.25	38.4
248.468	27.42
248.685	18.39
248.903	15.25
249.121	21.46
249.339	6.28
249.557	0.53
249.775	-2.72
249.992	-3.57
250.21	-8.49
250.428	4.64
250.646	0.59
250.863	1.86
251.081	7.42
251.299	24
251.517	10.93
251.734	18.18
251.952	14.53
252.17	12.13
252.387	-7.72
252.605	8.62
252.823	-7.77
253.04	22.86
253.258	32.36
253.475	20.15
253.693	8.83
253.911	20.95
254.128	9.67
254.346	17.11
254.563	31.4
254.781	30.53
254.998	23.62
255.216	-6.21
255.433	-37.55
255.651	-20
255.868	-18.14
256.086	-7.08
256.303	9.16
256.521	22.04
256.738	10.21
256.956	12.64
257.173	-10.83
257.39	-12.73
257.608	-13.57
257.825	-1.73
258.043	18.17
258.26	29.65
258.477	39.85
258.695	38.94
258.912	30.51
259.129	-1.01
259.346	-8.4
259.564	-15.05
259.781	-28.39
259.998	-13.37
260.216	7.65
260.433	3.44
260.65	8.15
260.867	7.13
261.084	-1.97
261.302	-8.54
261.519	16.85
261.736	2.29
261.953	-1.09
262.17	17.39
262.387	12.21
262.604	-3.63
262.822	18.4
263.039	27.71
263.256	15.68
263.473	15.02
263.69	21.52
263.907	20.2
264.124	2.74
264.341	10.87
264.558	6.64
264.775	15.8
264.992	5.65
265.209	-2.64
265.426	-6.84
265.643	3.51
265.86	-19.65
266.077	-10.98
266.294	27.48
266.51	47.49
266.727	44.58
266.944	47.02
267.161	33.96
267.378	31.29
267.595	9.42
267.812	-1.02
268.028	-24.34
268.245	-25.24
268.462	-28.45
268.679	-19.96
268.896	2.15
269.112	-6.35
269.329	-11.1
269.546	15.5
269.763	10.05
269.979	5.67
270.196	21.37
270.413	20.27
270.629	5.57
270.846	8.55
271.063	10.1
271.279	8.98
271.496	7.8
271.712	7.93
271.929	16.96
272.146	16.73
272.362	20.56
272.579	24.3
272.795	25.17
273.012	24.43
273.228	34.31
273.445	37.46
273.661	37.63
273.878	25.97
274.094	21.3
274.311	14.4
274.527	4.03
274.744	10.41
274.96	21.62
275.177	13.17
275.393	14.89
275.609	20.07
275.826	23.31
276.042	14.83
276.259	21.36
276.475	21.93
276.691	18.86
276.908	4.43
277.124	17.59
277.34	4.66
277.557	-10.53
277.773	-7.07
277.989	2.89
278.205	-3.76
278.422	7.51
278.638	21.73
278.854	3.82
279.07	14.81
279.286	22.18
279.503	14.35
279.719	10.41
279.935	9.1
280.151	-13.04
280.367	-15.39
280.583	-15.34
280.799	-24.52
281.016	-46.34
281.232	-21.89
281.448	-20.41
281.664	-10.58
281.88	6.39
282.096	17.55
282.312	21.36
282.528	19.27
282.744	19.19
282.96	3.89
283.176	12.38
283.392	-29.29
283.608	-6.78
283.824	-8.7
284.04	-32.37
284.256	-31.74
284.471	-0.99
284.687	-1.76
284.903	-8.17
285.119	23.59
285.335	43.76
285.551	44.91
285.767	37.64
285.982	54.57
286.198	19.76
286.414	-1.58
286.63	-21.33
286.846	-20.95
287.061	-14.36
287.277	-5.99
287.493	-21.93
287.709	-41.16
287.924	0.03
288.14	20.34
288.356	15.53
288.571	15.73
288.787	17.38
289.003	16.78
289.218	-14.16
289.434	-10.04
289.65	10.43
289.865	15.41
290.081	8.12
290.296	18.99
290.512	16.99
290.727	9.06
290.943	18.66
291.159	16.27
291.374	-2.3
291.59	9.33
291.805	-8.36
292.021	-29.98
292.236	-35.7
292.451	-13.95
292.667	-10.18
292.882	12.94
293.098	33.23
293.313	15.9
293.529	6.48
293.744	-15.42
293.959	-24.29
294.175	-29.16
294.39	-26.22
294.605	4.96
294.821	8.66
295.036	3.93
295.251	13.1
295.467	15.23
295.682	9.68
295.897	15.12
296.112	21.87
296.328	13.08
296.543	6.91
296.758	2.98
296.973	6.17
297.188	5.87
297.404	3.18
297.619	26.09
297.834	-29.64
298.049	-28.97
298.264	-15.3
298.479	-16.26
298.694	2.42
298.909	25.77
299.125	16.57
299.34	10.19
299.555	18.15
299.77	22.28
299.985	19.04
300.2	20.96
300.415	21.7
300.63	26.28
300.845	22.58
301.06	24.47
301.275	49.52
301.49	57.28
301.704	35.02
301.919	29.97
302.134	31.54
302.349	10.16
302.564	-2.38
302.779	-4.01
302.994	1.15
303.209	11.54
303.423	9.2
303.638	32.66
303.853	30.11
304.068	28.67
304.283	16.42
304.497	17.24
304.712	13.73
304.927	23.63
305.142	32.33
305.356	36.55
305.571	42.2
305.786	32.6
306	33.42
306.215	26.4
306.43	8.59
306.644	9.24
306.859	-7.6
307.074	2.99
307.288	0.03
307.503	24.52
307.717	12.68
307.932	20.6
308.147	2.84
308.361	8.44
308.576	-27.46
308.79	-10.34
309.005	-12.82
309.219	10.41
309.434	16.76
309.648	26.28
309.863	14.78
310.077	17.36
310.292	13.27
310.506	0.63
310.72	6.94
310.935	30.17
311.149	27.54
311.364	20.1
311.578	27.89
311.792	25.21
312.007	9.7
312.221	-26.62
312.435	-6.71
312.649	-0.66
312.864	-38.35
313.078	-49.61
313.292	-28.33
313.507	-27.24
313.721	-22.1
313.935	24.15
314.149	30.79
314.363	32.92
314.578	21.37
314.792	-22.2
315.006	-44.16
315.22	-17.44
315.434	-19.17
315.648	-16.33
315.862	7.99
316.077	11.36
316.291	-4.2
316.505	-23.37
316.719	-17.26
316.933	-33.3
317.147	-22.98
317.361	-10.34
317.575	4.95
317.789	13.04
318.003	16.4
318.217	28.4
318.431	26.17
318.645	11.72
318.859	11.62
319.073	28.34
319.287	16.45
319.5	8.43
319.714	13.21
319.928	10.99
320.142	-1.96
320.356	0.89
320.57	0.2
320.784	1.53
320.997	-13.68
321.211	10.85
321.425	-2.42
321.639	3.63
321.853	0.78
322.066	-1.4
322.28	-11.93
322.494	5.9
322.707	15.95
322.921	12.5
323.135	23.64
323.349	16.5
323.562	9.91
323.776	-2.18
323.989	16.8
324.203	6.09
324.417	10.72
324.63	6.24
324.844	-6.04
325.057	-46.65
325.271	-37.44
325.485	-38.03
325.698	-15.13
325.912	6.12
326.125	18.54
326.339	31.57
326.552	21.36
326.766	5.03
326.979	23.78
327.193	37
327.406	24.04
327.619	33.47
327.833	45.15
328.046	27.78
328.26	10.43
328.473	18.39
328.686	13.54
328.9	23.14
329.113	20.69
329.326	32.04
329.54	25.83
329.753	26.04
329.966	15.58
330.179	4.73
330.393	1.66
330.606	-10.67
330.819	-36.39
331.032	-34.37
331.246	-14.1
331.459	-9.99
331.672	-9.57
331.885	-1
332.098	5.64
332.311	7.41
332.525	2.4
332.738	11.71
332.951	9.49
333.164	12.77
333.377	13.16
333.59	13.41
333.803	11.21
334.016	29.53
334.229	20.74
334.442	22.46
334.655	34.96
334.868	33.35
335.081	20.77
335.294	14.91
335.507	9.87
335.72	0.94
335.933	5.51
336.146	8.05
336.359	26.58
336.572	24.84
336.785	21.9
336.997	8.64
337.21	20.99
337.423	0.04
337.636	8.7
337.849	-2.65
338.062	1.72
338.274	8.52
338.487	1.54
338.7	1.32
338.913	11.6
339.125	11.88
339.338	-10.33
339.551	-7.02
339.763	-7.86
339.976	-3.18
340.189	-15.54
340.402	15.8
340.614	15.24
340.827	17.82
341.039	10.52
341.252	21.6
341.465	-0.9
341.677	6.13
341.89	-16.06
342.102	2.37
342.315	7.1
342.527	13.32
342.74	-6.22
342.952	6.04
343.165	-7.63
343.377	-14.1
343.59	-15.41
343.802	-2.71
344.015	9.3
344.227	14.74
344.44	24
344.652	18.45
344.864	25.52
345.077	35.69
345.289	34.99
345.502	36.07
345.714	40.02
345.926	26.68
346.139	4.79
346.351	9.26
346.563	11.97
346.775	-0.17
346.988	20.29
347.2	15.79
347.412	5.96
347.624	-0.39
347.837	15.28
348.049	-0.78
348.261	-3.1
348.473	-7.77
348.685	-2.6
348.897	-25.51
349.11	-6.66
349.322	-6.31
349.534	0.68
349.746	0.34
349.958	-7.16
350.17	-21.14
350.382	-25.61
350.594	-33.41
350.806	-16.79
351.018	-0.38
351.23	8.56
351.442	18.45
351.654	24.33
351.866	17.3
352.078	22.8
352.29	18.81
352.502	23.04
352.714	13.12
352.926	1
353.138	5.76
353.35	-9.46
353.561	-8.25
353.773	-10.09
353.985	4.91
354.197	1.93
354.409	11.14
354.621	-5.19
354.832	-1.49
355.044	-29.05
355.256	-33.73
355.468	-36.58
355.679	3.58
355.891	16.94
356.103	24.42
356.314	15.23
356.526	6.87
356.738	-25.46
356.949	-32.11
357.161	-21.17
357.373	-11.81
357.584	-3.45
357.796	8.04
358.008	7.39
358.219	6.54
358.431	8.31
358.642	16.28
358.854	12.24
359.065	4.9
359.277	-2.77
359.488	-1.31
359.7	-2.22
359.911	-8.61
360.123	-2.8
360.334	-14.85
360.546	-19
360.757	-14.66
360.969	-4.87
361.18	-2.43
361.391	17.59
361.603	31.88
361.814	36.92
362.025	43.53
362.237	45.11
362.448	40.44
362.659	34.19
362.871	24.09
363.082	23.41
363.293	10.14
363.504	-8.01
363.716	-28.41
363.927	-6.8
364.138	-41.99
364.349	-43.27
364.56	-52.48
364.772	-30.09
364.983	-38.89
365.194	-14.86
365.405	5.4
365.616	22.83
365.827	14.14
366.038	18.06
366.25	18.97
366.461	10.6
366.672	11.2
366.883	7.23
367.094	4.33
367.305	-3.55
367.516	-15.1
367.727	-28.54
367.938	-11.18
368.149	-15.51
368.36	-21.07
368.571	-14.04
368.781	-10
368.992	-17.4
369.203	-8.94
369.414	-4.52
369.625	-6.12
369.836	13.43
370.047	11.43
370.258	12.43
370.468	10.93
370.679	11.72
370.89	-5.59
371.101	8.27
371.312	11
371.522	8.22
371.733	-0.95
371.944	-3.16
372.155	-5.83
372.365	-0.77
372.576	-1.05
372.787	18.11
372.997	9.46
373.208	4.61
373.419	-21.1
373.629	-21.71
373.84	-39.4
374.05	-32.38
374.261	-47.22
374.472	-25.85
374.682	-14.22
374.893	-24.42
375.103	-13.63
375.314	-1.99
375.524	0.8
375.735	5.24
375.945	12.36
376.156	6.69
376.366	1.97
376.577	4.77
376.787	0.8
376.997	18
377.208	17.78
377.418	16.13
377.629	11.04
377.839	13.91
378.049	10.48
378.26	7.46
378.47	8.54
378.68	13.59
378.89	7.64
379.101	-1.17
379.311	3
379.521	-4.82
379.732	-8.44
379.942	-14.52
380.152	-20.61
380.362	-23.43
380.572	-6.36
380.783	6.24
380.993	16.71
381.203	19.75
381.413	25.13
381.623	23.49
381.833	16.65
382.043	10.15
382.253	22.02
382.463	31.21
382.674	36.84
382.884	38.28
383.094	40.14
383.304	30.98
383.514	26.26
383.724	17.33
383.934	7.76
384.144	14.25
384.353	14.49
384.563	12.3
384.773	20.47
384.983	16.58
385.193	6.79
385.403	3.92
385.613	2.42
385.823	-6.92
386.033	-4.32
386.242	-4.73
386.452	-4.33
386.662	-3.98
386.872	3.67
387.082	-0.12
387.291	-3.25
387.501	-0.83
387.711	0.49
387.921	-4.6
388.13	3.14
388.34	8.25
388.55	3.93
388.759	-0.62
388.969	2.17
389.179	1.49
389.388	0.92
389.598	0.65
389.807	-2.24
390.017	-5.44
390.227	-8.92
390.436	-7.93
390.646	-5.04
390.855	-1.65
391.065	1.06
391.274	0.76
391.484	0.8
391.693	0.31
391.903	0.47
392.112	-1.14
392.322	1.15
392.531	-1.1
392.74	-1.86
392.95	-1.42
393.159	1.12
393.369	1.45
393.578	1.5
393.787	2.6
393.997	2.16
394.206	1.3
394.415	1.21
394.625	1.4
394.834	-0.56
395.043	0.37
395.252	2.62
395.462	3.43
395.671	3.44
395.88	5.24
396.089	3.97
396.298	2.2
396.508	2.21
396.717	2.48
396.926	1.97
397.135	2.75
397.344	1.95
397.553	1.36
397.762	2.26
397.971	1.72
398.181	1.97
398.39	1.94
398.599	2.89
398.808	2.48
399.017	3.81
399.226	3.39
399.435	3.73
399.644	3.53
399.853	3.65
400.062	2.75
400.27	2.74
400.479	3.17
400.688	2.98
400.897	2.88
401.106	3.28
401.315	3.37
401.524	3.03
401.733	2.84
401.941	3.07
402.15	2.93
402.359	3.26
402.568	3.57
402.777	3.95
402.985	3.6
403.194	3.56
403.403	3.4
403.612	3.21
403.82	2.69
404.029	2.84
404.238	2.76
404.446	2.83
404.655	2.92
404.864	3.05
405.072	2.96
405.281	3.01
405.489	2.85
405.698	2.81
405.906	2.91
406.115	2.91
406.324	3.08
406.532	3.22
406.741	3.21
406.949	3.26
407.158	3.33
407.366	3.06
407.574	2.98
407.783	2.89
407.991	2.77
408.2	2.88
408.408	3.08
408.617	3.01
408.825	2.94
409.033	2.94
409.242	2.9
409.45	2.81
409.658	2.85
409.867	2.96
410.075	2.97
410.283	2.93
410.491	2.82
410.7	2.67
410.908	2.71
411.116	2.77
411.324	2.73
411.533	2.73
411.741	2.75
411.949	2.76
412.157	2.52
412.365	2.65
412.573	2.74
412.781	2.76
412.99	2.65
413.198	2.84
413.406	2.8
413.614	2.86
413.822	3.05
414.03	3.11
414.238	3.1
414.446	3.1
414.654	2.88
414.862	2.84
415.07	2.73
415.278	2.89
415.486	2.66
415.694	2.89
415.902	2.67
416.109	2.65
416.317	2.52
416.525	2.56
416.733	2.51
416.941	2.6
417.149	2.61
417.357	2.45
417.564	2.47
417.772	2.54
417.98	2.52
418.188	2.54
418.395	2.49
418.603	2.41
418.811	2.28
419.019	2.24
419.226	2.36
419.434	2.52
419.642	2.36
419.849	2.37
420.057	2.43
420.265	2.3
420.472	2.26
420.68	2.43
420.887	2.36
421.095	2.47
421.302	2.58
421.51	2.5
421.717	2.57
421.925	2.75
422.132	2.62
422.34	2.26
422.547	2.21
422.755	2.26
422.962	2.14
423.17	2.06
423.377	2.34
423.585	2.56
423.792	2.4
423.999	2.42
424.207	2.37
424.414	2.28
424.621	2.15
424.829	2.27
425.036	2.14
425.243	2.19
425.451	2.25
425.658	2.29
425.865	2.19
426.072	2.26
426.28	2.38
426.487	2.38
426.694	2.22
426.901	2.41
427.108	2.51
427.315	2.42
427.523	2.31
427.73	2.51
427.937	2.19
428.144	2.12
428.351	1.99
428.558	2.15
428.765	1.99
428.972	2.13
429.179	1.87
429.386	2.02
429.593	1.87
429.8	1.86
430.007	1.85
430.214	2.05
430.421	2.12
430.628	2.19
430.835	2.26
431.042	2.38
431.249	2.34
431.456	2.25
431.662	2.34
431.869	2.39
432.076	2.23
432.283	2.31
432.49	2.33
432.697	2.25
432.903	2.12
433.11	2.37
433.317	2.35
433.524	2.46
433.73	2.3
433.937	2.41
434.144	2.14
434.35	2.01
434.557	2.04
434.764	2.08
434.97	2.02
435.177	2.2
435.384	2.3
435.59	2.24
435.797	2.3
436.003	2.38
436.21	2.19
436.416	2.28
436.623	2.13
436.829	2.23
437.036	2.17
437.242	2.4
437.449	2.28
437.655	2.4
437.862	2.45
438.068	2.4
438.275	2.4
438.481	2.53
438.687	2.45
438.894	2.43
439.1	2.47
439.307	2.58
439.513	2.57
439.719	2.68
439.926	2.6
440.132	2.69
440.338	2.62
440.544	2.49
440.751	2.43
440.957	2.52
441.163	2.42
441.369	2.34
441.575	2.32
441.782	2.37
441.988	2.4
442.194	2.39
442.4	2.37
442.606	2.59
442.812	2.57
443.018	2.45
443.224	2.54
443.431	2.52
443.637	2.38
443.843	2.42
444.049	2.6
444.255	2.59
444.461	2.58
444.667	2.62
444.873	2.59
445.079	2.43
445.284	2.44
445.49	2.5
445.696	2.48
445.902	2.46
446.108	2.54
446.314	2.53
446.52	2.62
446.726	2.7
446.931	2.65
447.137	2.64
447.343	2.62
447.549	2.53
447.755	2.5
447.96	2.58
448.166	2.59
448.372	2.63
448.578	2.55
448.783	2.57
448.989	2.69
449.195	2.66
449.4	2.7
449.606	2.8
449.812	2.78
450.017	2.73
450.223	2.71
450.428	2.64
450.634	2.55
450.84	2.57
451.045	2.5
451.251	2.59
451.456	2.59
451.662	2.7
451.867	2.66
452.073	2.66
452.278	2.62
452.483	2.62
452.689	2.57
452.894	2.69
453.1	2.69
453.305	2.73
453.51	2.83
453.716	2.78
453.921	2.73
454.127	2.71
454.332	2.72
454.537	2.61
454.742	2.62
454.948	2.54
455.153	2.52
455.358	2.54
455.563	2.7
455.769	2.77
455.974	2.84
456.179	2.72
456.384	2.6
456.589	2.38
456.795	2.32
457	2.25
457.205	2.34
457.41	2.36
457.615	2.43
457.82	2.52
458.025	2.51
458.23	2.51
458.435	2.58
458.64	2.59
458.845	2.61
459.05	2.66
459.255	2.69
459.46	2.62
459.665	2.56
459.87	2.46
460.075	2.48
460.28	2.56
460.485	2.63
460.69	2.61
460.895	2.68
461.099	2.56
461.304	2.44
461.509	2.43
461.714	2.51
461.919	2.46
462.123	2.62
462.328	2.56
462.533	2.48
462.738	2.45
462.942	2.45
463.147	2.41
463.352	2.52
463.556	2.54
463.761	2.49
463.966	2.48
464.17	2.5
464.375	2.56
464.58	2.54
464.784	2.56
464.989	2.59
465.193	2.58
465.398	2.53
465.602	2.72
465.807	2.74
466.011	2.72
466.216	2.66
466.42	2.73
466.625	2.73
466.829	2.79
467.034	2.88
467.238	2.94
467.443	2.87
467.647	2.8
467.851	2.79
468.056	2.83
468.26	2.82
468.464	2.86
468.669	2.9
468.873	2.88
469.077	2.77
469.282	2.83
469.486	2.84
469.69	2.86
469.894	2.87
470.099	2.95
470.303	2.93
470.507	2.9
470.711	2.86
470.915	2.95
471.119	2.96
471.324	2.99
471.528	3.01
471.732	3.12
471.936	3.05
472.14	3.06
472.344	3.17
472.548	3.18
472.752	3.11
472.956	3.17
473.16	3.11
473.364	3.01
473.568	3.02
473.772	2.99
473.976	3.01
474.18	3.08
474.384	3.04
474.588	3.02
474.792	3.04
474.995	3
475.199	2.91
475.403	2.97
475.607	3.06
475.811	3.1
476.015	3.07
476.218	3.11
476.422	3.11
476.626	3.06
476.83	3.09
477.033	3.19
477.237	3.21
477.441	3.19
477.644	3.2
477.848	3.17
478.052	3.15
478.255	3.17
478.459	3.21
478.663	3.39
478.866	3.43
479.07	3.41
479.273	3.48
479.477	3.46
479.681	3.3
479.884	3.33
480.088	3.38
480.291	3.32
480.495	3.34
480.698	3.34
480.901	3.33
481.105	3.32
481.308	3.37
481.512	3.38
481.715	3.45
481.919	3.5
482.122	3.5
482.325	3.5
482.529	3.5
482.732	3.44
482.935	3.38
483.138	3.42
483.342	3.43
483.545	3.53
483.748	3.62
483.952	3.64
484.155	3.65
484.358	3.68
484.561	3.58
484.764	3.53
484.967	3.53
485.171	3.53
485.374	3.5
485.577	3.58
485.78	3.63
485.983	3.63
486.186	3.63
486.389	3.67
486.592	3.61
486.795	3.64
486.998	3.58
487.201	3.6
487.404	3.62
487.607	3.63
487.81	3.59
488.013	3.67
488.216	3.66
488.419	3.62
488.622	3.6
488.825	3.62
489.028	3.66
489.231	3.65
489.433	3.63
489.636	3.66
489.839	3.68
490.042	3.65
490.245	3.65
490.447	3.68
490.65	3.73
490.853	3.67
491.056	3.68
491.258	3.7
491.461	3.66
491.664	3.64
491.866	3.61
492.069	3.65
492.272	3.62
492.474	3.73
492.677	3.78
492.879	3.85
493.082	3.84
493.285	3.94
493.487	3.92
493.69	3.86
493.892	3.84
494.095	3.89
494.297	3.87
494.5	3.88
494.702	3.95
494.905	3.97
495.107	3.95
495.309	3.97
495.512	3.97
495.714	4.05
495.917	4.11
496.119	4.16
496.321	4.1
496.524	4.05
496.726	3.96
496.928	3.94
497.13	3.91
497.333	3.93
497.535	4.02
497.737	4.11
497.939	4.15
498.142	4.15
498.344	4.21
498.546	4.27
498.748	4.27
498.95	4.34
499.152	4.39
499.355	4.36
499.557	4.33
499.759	4.4
499.961	4.34
500.163	4.38
500.365	4.47
500.567	4.49
500.769	4.47
500.971	4.53
501.173	4.47
501.375	4.56
501.577	4.6
501.779	4.57
501.981	4.56
502.183	4.55
502.385	4.53
502.587	4.5
502.788	4.6
502.99	4.63
503.192	4.73
503.394	4.69
503.596	4.68
503.798	4.62
503.999	4.62
504.201	4.6
504.403	4.71
504.605	4.8
504.806	4.83
505.008	4.8
505.21	4.81
505.411	4.75
505.613	4.74
505.815	4.79
506.016	4.92
506.218	5.03
506.42	5.01
506.621	5.05
506.823	5
507.024	4.89
507.226	4.83
507.427	4.9
507.629	4.91
507.83	4.94
508.032	5
508.233	5.07
508.435	5.05
508.636	5.09
508.838	5.15
509.039	5.13
509.24	5.12
509.442	5.13
509.643	5.09
509.845	5.03
510.046	5.08
510.247	5.09
510.448	5.15
510.65	5.14
510.851	5.23
511.052	5.24
511.254	5.32
511.455	5.24
511.656	5.26
511.857	5.25
512.058	5.28
512.26	5.17
512.461	5.24
512.662	5.26
512.863	5.14
513.064	5.17
513.265	5.18
513.466	5.19
513.667	5.24
513.868	5.29
514.069	5.24
514.27	5.3
514.471	5.25
514.672	5.27
514.873	5.3
515.074	5.34
515.275	5.27
515.476	5.35
515.677	5.34
515.878	5.36
516.079	5.39
516.28	5.48
516.481	5.45
516.682	5.41
516.882	5.42
517.083	5.38
517.284	5.37
517.485	5.35
517.686	5.42
517.886	5.43
518.087	5.47
518.288	5.49
518.488	5.53
518.689	5.53
518.89	5.56
519.091	5.59
519.291	5.56
519.492	5.55
519.692	5.57
519.893	5.63
520.094	5.61
520.294	5.63
520.495	5.63
520.695	5.62
520.896	5.59
521.096	5.66
521.297	5.67
521.497	5.67
521.698	5.68
521.898	5.68
522.099	5.62
522.299	5.59
522.499	5.63
522.7	5.66
522.9	5.69
523.101	5.69
523.301	5.77
523.501	5.79
523.702	5.82
523.902	5.87
524.102	5.98
524.302	5.99
524.503	6.03
524.703	6.06
524.903	5.97
525.103	5.9
525.304	5.86
525.504	5.91
525.704	5.89
525.904	5.89
526.104	5.91
526.304	5.96
526.504	5.9
526.705	5.83
526.905	5.9
527.105	5.91
527.305	5.9
527.505	5.89
527.705	5.92
527.905	5.98
528.105	6.02
528.305	6.04
528.505	6.07
528.705	6.19
528.905	6.15
529.105	6.14
529.304	6.14
529.504	6.19
529.704	6.14
529.904	6.17
530.104	6.15
530.304	6.14
530.503	6.17
530.703	6.19
530.903	6.18
531.103	6.29
531.303	6.35
531.502	6.4
531.702	6.43
531.902	6.54
532.101	6.52
532.301	6.51
532.501	6.54
532.7	6.54
532.9	6.51
533.1	6.53
533.299	6.57
533.499	6.52
533.698	6.54
533.898	6.57
534.097	6.59
534.297	6.61
534.496	6.61
534.696	6.64
534.895	6.7
535.095	6.75
535.294	6.78
535.494	6.79
535.693	6.8
535.892	6.77
536.092	6.79
536.291	6.82
536.491	6.85
536.69	6.88
536.889	6.85
537.088	6.87
537.288	6.86
537.487	6.92
537.686	6.92
537.886	6.99
538.085	6.97
538.284	7.05
538.483	7.06
538.682	7.1
538.882	7.18
539.081	7.25
539.28	7.22
539.479	7.19
539.678	7.23
539.877	7.25
540.076	7.26
540.275	7.28
540.474	7.31
540.673	7.36
540.872	7.3
541.071	7.32
541.27	7.39
541.469	7.44
541.668	7.41
541.867	7.49
542.066	7.48
542.265	7.49
542.464	7.57
542.663	7.66
542.862	7.75
543.06	7.85
543.259	7.93
543.458	7.99
543.657	8.04
543.856	8.08
544.054	8.09
544.253	8.1
544.452	8.09
544.651	8.12
544.849	8.11
545.048	8.16
545.247	8.24
545.445	8.25
545.644	8.27
545.843	8.3
546.041	8.33
546.24	8.28
546.438	8.39
546.637	8.42
546.836	8.49
547.034	8.52
547.233	8.65
547.431	8.69
547.63	8.7
547.828	8.77
548.027	8.78
548.225	8.77
548.423	8.81
548.622	8.89
548.82	8.87
549.019	8.94
549.217	9.03
549.415	9.03
549.614	9.17
549.812	9.25
550.01	9.29
550.209	9.38
550.407	9.45
550.605	9.39
550.803	9.43
551.002	9.54
551.2	9.51
551.398	9.63
551.596	9.68
551.794	9.75
551.993	9.8
552.191	9.86
552.389	9.88
552.587	10.04
552.785	10.04
552.983	10.11
553.181	10.23
553.379	10.22
553.577	10.19
553.775	10.35
553.973	10.42
554.171	10.46
554.369	10.58
554.567	10.67
554.765	10.7
554.963	10.71
555.161	10.7
555.359	10.76
555.557	10.82
555.755	10.94
555.952	11.1
556.15	11.24
556.348	11.3
556.546	11.41
556.744	11.37
556.941	11.35
557.139	11.47
557.337	11.65
557.535	11.68
557.732	11.82
557.93	11.95
558.128	11.96
558.325	12.02
558.523	12.14
558.721	12.2
558.918	12.28
559.116	12.39
559.313	12.43
559.511	12.53
559.708	12.64
559.906	12.72
560.104	12.79
560.301	12.85
560.498	12.93
560.696	13.04
560.893	13.12
561.091	13.21
561.288	13.3
561.486	13.29
561.683	13.35
561.88	13.48
562.078	13.49
562.275	13.63
562.473	13.71
562.67	13.82
562.867	13.85
563.064	14.03
563.262	14.06
563.459	14.22
563.656	14.3
563.853	14.32
564.051	14.4
564.248	14.55
564.445	14.64
564.642	14.69
564.839	14.81
565.036	14.98
565.234	15.01
565.431	15.08
565.628	15.09
565.825	15.19
566.022	15.21
566.219	15.26
566.416	15.33
566.613	15.55
566.81	15.63
567.007	15.64
567.204	15.73
567.401	15.76
567.598	15.8
567.795	15.85
567.991	15.92
568.188	15.99
568.385	16.06
568.582	16.09
568.779	16.14
568.976	16.2
569.172	16.37
569.369	16.45
569.566	16.5
569.763	16.49
569.96	16.56
570.156	16.56
570.353	16.56
570.55	16.66
570.746	16.82
570.943	16.93
571.14	16.9
571.336	17
571.533	17.04
571.729	17.08
571.926	17.15
572.123	17.21
572.319	17.3
572.516	17.28
572.712	17.31
572.909	17.23
573.105	17.29
573.302	17.26
573.498	17.28
573.695	17.32
573.891	17.43
574.087	17.37
574.284	17.44
574.48	17.5
574.677	17.4
574.873	17.46
575.069	17.61
575.266	17.6
575.462	17.66
575.658	17.81
575.854	17.81
576.051	17.84
576.247	17.86
576.443	17.89
576.639	17.91
576.835	17.9
577.032	17.8
577.228	17.82
577.424	17.85
577.62	17.81
577.816	17.78
578.012	17.95
578.208	17.96
578.404	17.85
578.6	17.92
578.796	17.99
578.993	17.93
579.189	18.03
579.384	18.16
579.58	18.17
579.776	18.17
579.972	18.14
580.168	18.05
580.364	18.07
580.56	17.95
580.756	17.97
580.952	17.96
581.148	18
581.343	18.01
581.539	18.16
581.735	18.22
581.931	18.23
582.127	18.23
582.322	18.16
582.518	18.14
582.714	18.02
582.909	18.05
583.105	18.02
583.301	18.05
583.496	17.98
583.692	17.98
583.888	17.97
584.083	18.01
584.279	17.96
584.474	17.98
584.67	18.02
584.866	18.04
585.061	18
585.257	18.13
585.452	18.11
585.648	18.07
585.843	18.12
586.039	18.15
586.234	18.11
586.429	18.19
586.625	18.27
586.82	18.25
587.015	18.26
587.211	18.29
587.406	18.18
587.601	18.19
587.797	18.13
587.992	18.07
588.187	17.99
588.383	18.11
588.578	18.11
588.773	18.19
588.968	18.27
589.163	18.42
589.359	18.39
589.554	18.36
589.749	18.43
589.944	18.39
590.139	18.38
590.334	18.49
590.529	18.57
590.724	18.67
590.919	18.79
591.114	18.82
591.309	18.78
591.504	18.8
591.699	18.74
591.894	18.7
592.089	18.72
592.284	18.75
592.479	18.76
592.674	18.84
592.869	18.86
593.064	18.86
593.259	18.98
593.454	19.03
593.648	19
593.843	19.04
594.038	19.16
594.233	19.15
594.428	19.24
594.622	19.33
594.817	19.5
595.012	19.56
595.206	19.67
595.401	19.79
595.596	19.86
595.79	19.86
595.985	19.92
596.18	19.94
596.374	20.06
596.569	20.14
596.763	20.18
596.958	20.2
597.153	20.32
597.347	20.23
597.542	20.27
597.736	20.34
597.931	20.44
598.125	20.51
598.319	20.58
598.514	20.7
598.708	20.76
598.903	20.87
599.097	20.86
599.291	20.99
599.486	20.97
599.68	21.05
599.874	21.14
600.069	21.22
600.263	21.23
600.457	21.26
600.651	21.28
600.846	21.24
601.04	21.32
601.234	21.31
601.428	21.37
601.622	21.43
601.817	21.43
602.011	21.36
602.205	21.4
602.399	21.35
602.593	21.38
602.787	21.29
602.981	21.32
603.175	21.4
603.369	21.43
603.563	21.43
603.757	21.54
603.951	21.48
604.145	21.42
604.339	21.42
604.533	21.36
604.727	21.38
604.921	21.36
605.115	21.29
605.309	21.29
605.502	21.32
605.696	21.23
605.89	21.32
606.084	21.29
606.278	21.28
606.471	21.25
606.665	21.22
606.859	21.11
607.053	21.05
607.246	21.11
607.44	21.01
607.634	20.92
607.827	20.87
608.021	20.77
608.214	20.54
608.408	20.52
608.602	20.44
608.795	20.42
608.989	20.43
609.182	20.47
609.376	20.4
609.569	20.45
609.763	20.41
609.956	20.35
610.15	20.23
610.343	20.18
610.537	20.05
610.73	19.87
610.923	19.84
611.117	19.88
611.31	19.74
611.504	19.7
611.697	19.63
611.89	19.49
612.083	19.29
612.277	19.37
612.47	19.26
612.663	19.24
612.856	19.23
613.05	19.15
613.243	18.9
613.436	18.85
613.629	18.73
613.822	18.62
614.015	18.57
614.209	18.55
614.402	18.5
614.595	18.53
614.788	18.46
614.981	18.41
615.174	18.29
615.367	18.16
615.56	18.02
615.753	18.03
615.946	18.02
616.139	17.96
616.332	17.97
616.525	17.9
616.718	17.83
616.911	17.72
617.103	17.74
617.296	17.64
617.489	17.56
617.682	17.47
617.875	17.48
618.067	17.42
618.26	17.32
618.453	17.32
618.646	17.33
618.838	17.28
619.031	17.33
619.224	17.39
619.417	17.46
619.609	17.46
619.802	17.36
619.994	17.26
620.187	17.15
620.38	17.02
620.572	16.89
620.765	16.96
620.957	16.94
621.15	16.89
621.342	16.88
621.535	16.92
621.727	16.8
621.92	16.76
622.112	16.79
622.305	16.73
622.497	16.68
622.69	16.69
622.882	16.72
623.074	16.72
623.267	16.77
623.459	16.74
623.651	16.65
623.844	16.63
624.036	16.67
624.228	16.58
624.42	16.5
624.613	16.56
624.805	16.52
624.997	16.43
625.189	16.5
625.381	16.42
625.574	16.33
625.766	16.2
625.958	16.23
626.15	16.14
626.342	16.17
626.534	16.18
626.726	16.24
626.918	16.17
627.11	16.15
627.302	16.16
627.494	16.14
627.686	16.09
627.878	16.09
628.07	16.1
628.262	16.11
628.454	16.16
628.646	16.14
628.838	16.11
629.029	16.08
629.221	16.02
629.413	15.92
629.605	15.91
629.797	15.95
629.989	15.87
630.18	15.93
630.372	15.89
630.564	15.88
630.755	15.81
630.947	15.76
631.139	15.58
631.33	15.57
631.522	15.52
631.714	15.52
631.905	15.51
632.097	15.47
632.289	15.5
632.48	15.46
632.672	15.37
632.863	15.32
633.055	15.4
633.246	15.42
633.438	15.48
633.629	15.55
633.821	15.62
634.012	15.6
634.203	15.51
634.395	15.45
634.586	15.41
634.777	15.36
634.969	15.26
635.16	15.25
635.351	15.13
635.543	15.04
635.734	15.04
635.925	15.16
636.117	15.23
636.308	15.36
636.499	15.43
636.69	15.41
636.881	15.37
637.073	15.36
637.264	15.32
637.455	15.27
637.646	15.3
637.837	15.26
638.028	15.15
638.219	15.21
638.41	15.31
638.601	15.28
638.792	15.26
638.983	15.31
639.174	15.15
639.365	15.1
639.556	15.05
639.747	15.07
639.938	15.12
640.129	15.22
640.32	15.23
640.511	15.29
640.701	15.32
640.892	15.27
641.083	15.23
641.274	15.12
641.465	15.14
641.655	15.06
641.846	15.04
642.037	14.94
642.228	14.9
642.418	14.81
642.609	14.81
642.8	14.74
642.99	14.74
643.181	14.75
643.372	14.78
643.562	14.77
643.753	14.8
643.943	14.78
644.134	14.7
644.324	14.6
644.515	14.58
644.705	14.56
644.896	14.6
645.086	14.71
645.277	14.76
645.467	14.7
645.658	14.7
645.848	14.66
646.038	14.61
646.229	14.62
646.419	14.46
646.61	14.43
646.8	14.42
646.99	14.36
647.18	14.26
647.371	14.41
647.561	14.34
647.751	14.31
647.941	14.31
648.132	14.38
648.322	14.31
648.512	14.3
648.702	14.34
648.892	14.35
649.082	14.29
649.272	14.24
649.462	14.19
649.653	14.18
649.843	14.13
650.033	14.15
650.223	14.12
650.413	14.19
650.603	14.11
650.793	14.09
650.983	14.04
651.172	14.06
651.362	13.87
651.552	13.85
651.742	13.73
651.932	13.64
652.122	13.63
652.312	13.7
652.502	13.71
652.691	13.76
652.881	13.77
653.071	13.66
653.261	13.51
653.45	13.27
653.64	13.15
653.83	12.94
654.019	12.8
654.209	12.74
654.399	12.65
654.588	12.54
654.778	12.49
654.968	12.43
655.157	12.29
655.347	12.19
655.536	12.01
655.726	11.82
655.915	11.68
656.105	11.61
656.294	11.47
656.484	11.37
656.673	11.26
656.863	11.19
657.052	11.02
657.241	10.93
657.431	10.81
657.62	10.76
657.809	10.55
657.999	10.45
658.188	10.34
658.377	10.16
658.567	9.96
658.756	9.87
658.945	9.73
659.134	9.55
659.324	9.39
659.513	9.2
659.702	9.02
659.891	8.9
660.08	8.78
660.269	8.69
660.458	8.6
660.648	8.47
660.837	8.34
661.026	8.25
661.215	8.12
661.404	8.01
661.593	7.93
661.782	7.76
661.971	7.48
662.16	7.43
662.349	7.26
662.538	7.11
662.726	7.03
662.915	7.14
663.104	6.95
663.293	6.95
663.482	6.86
663.671	6.77
663.86	6.71
664.048	6.72
664.237	6.59
664.426	6.53
664.615	6.45
664.803	6.22
664.992	6.11
665.181	6.19
665.369	6.05
665.558	5.98
665.747	6.05
665.935	6.05
666.124	5.99
666.312	6
666.501	6.03
666.69	5.95
666.878	5.87
667.067	5.68
667.255	5.67
667.444	5.64
667.632	5.73
667.82	5.76
668.009	5.84
668.197	5.81
668.386	5.73
668.574	5.65
668.762	5.6
668.951	5.62
669.139	5.55
669.327	5.56
669.516	5.61
669.704	5.63
669.892	5.56
670.08	5.63
670.269	5.68
670.457	5.52
670.645	5.5
670.833	5.65
671.021	5.69
671.21	5.63
671.398	5.73
671.586	5.86
671.774	5.86
671.962	5.81
672.15	5.9
672.338	5.99
672.526	5.96
672.714	6.01
672.902	6.08
673.09	6.23
673.278	6.3
673.466	6.35
673.654	6.36
673.842	6.46
674.03	6.39
674.218	6.36
674.405	6.43
674.593	6.55
674.781	6.66
674.969	6.82
675.157	6.91
675.344	6.96
675.532	6.93
675.72	7.01
675.908	6.96
676.095	6.97
676.283	7.1
676.471	7.14
676.658	7.13
676.846	7.22
677.033	7.27
677.221	7.22
677.409	7.3
677.596	7.42
677.784	7.58
677.971	7.65
678.159	7.78
678.346	7.83
678.534	7.87
678.721	7.88
678.909	7.95
679.096	8.04
679.283	8.15
679.471	8.22
679.658	8.28
679.846	8.42
680.033	8.64
680.22	8.83
680.408	8.76
680.595	8.88
680.782	9.06
680.969	9.12
681.157	9.17
681.344	9.38
681.531	9.59
681.718	9.74
681.905	9.86
682.093	9.99
682.28	10.3
682.467	10.39
682.654	10.4
682.841	10.51
683.028	10.5
683.215	10.66
683.402	10.74
683.589	11.06
683.776	11.09
683.963	11.42
684.15	11.56
684.337	11.84
684.524	12.11
684.711	12.5
684.898	12.47
685.085	12.56
685.271	12.79
685.458	12.82
685.645	12.85
685.832	13.2
686.019	13.5
686.205	13.72
686.392	14
686.579	14.37
686.766	14.75
686.952	15.06
687.139	15.43
687.326	15.81
687.512	16.13
687.699	16.43
687.886	16.7
688.072	16.9
688.259	17.32
688.445	17.87
688.632	18.28
688.818	18.95
689.005	19.46
689.191	19.81
689.378	20.13
689.564	20.65
689.751	20.87
689.937	21.46
690.124	22.02
690.31	22.53
690.496	23.19
690.683	23.89
690.869	24.4
691.055	24.93
691.242	25.48
691.428	25.94
691.614	26.53
691.8	27.14
691.987	27.88
692.173	28.67
692.359	29.46
692.545	30.07
692.731	30.55
692.918	30.96
693.104	31.57
693.29	31.96
693.476	32.64
693.662	33.45
693.848	34.3
694.034	34.87
694.22	35.6
694.406	36.13
694.592	36.82
694.778	37.26
694.964	37.98
695.15	38.63
695.336	39.4
695.522	40.15
695.708	40.91
695.894	41.48
696.08	42.04
696.265	42.79
696.451	43.26
696.637	44.12
696.823	45.04
697.009	45.78
697.194	46.54
697.38	47.21
697.566	47.54
697.751	47.95
697.937	48.73
698.123	48.98
698.308	49.41
698.494	50.23
698.68	50.84
698.865	51.4
699.051	52.19
699.236	52.78
699.422	53.3
699.607	53.93
699.793	54.57
699.978	54.98
700.164	55.52
700.349	55.94
700.535	56.21
700.72	56.36
700.906	56.92
701.091	57.49
701.276	57.74
701.462	58.51
701.647	59.21
701.832	59.66
702.018	60.02
702.203	60.87
702.388	61.05
702.573	61.4
702.759	61.88
702.944	62.09
703.129	62.23
703.314	62.43
703.499	62.62
703.684	62.75
703.87	63.38
704.055	63.77
704.24	64.4
704.425	64.74
704.61	65.27
704.795	65.8
704.98	65.89
705.165	65.98
705.35	66.47
705.535	66.9
705.72	66.79
705.905	67.48
706.09	68.3
706.275	68.46
706.459	68.63
706.644	69.06
706.829	69.23
707.014	69.26
707.199	69.84
707.384	69.93
707.568	70.06
707.753	70.59
707.938	70.59
708.123	70.51
708.307	70.92
708.492	71.57
708.677	71.62
708.861	71.71
709.046	71.64
709.231	71.65
709.415	71.56
709.6	71.58
709.784	72.09
709.969	72.82
710.153	73.21
710.338	73.98
710.522	74.22
710.707	74.11
710.891	74.14
711.076	73.93
711.26	73.64
711.445	73.73
711.629	73.85
711.813	73.9
711.998	74.37
712.182	74.19
712.366	74.93
712.551	75.39
712.735	75.29
712.919	75.4
713.103	75.78
713.288	75.4
713.472	75.49
713.656	75.46
713.84	75.27
714.024	75.7
714.208	75.51
714.393	75.56
714.577	76.1
714.761	76.4
714.945	76.05
715.129	76.8
715.313	76.93
715.497	76.99
715.681	76.93
715.865	77.24
716.049	77.08
716.233	77.19
716.417	77.33
716.601	77.72
716.785	77.85
716.968	77.94
717.152	78.13
717.336	78.37
717.52	78.76
717.704	79.31
717.888	79.61
718.071	79.42
718.255	79.37
718.439	79.08
718.622	78.61
718.806	78.47
718.99	78.36
719.174	78.69
719.357	79.14
719.541	79.58
719.724	79.66
719.908	79.92
720.092	79.72
720.275	79.48
720.459	79.2
720.642	79.26
720.826	79.32
721.009	79.23
721.193	78.8
721.376	79.2
721.559	79.54
721.743	79.84
721.926	80.2
722.11	81.11
722.293	81.32
722.476	81.22
722.66	81.78
722.843	81.9
723.026	82.04
723.21	81.85
723.393	82.38
723.576	82.69
723.759	83.25
723.942	83.12
724.126	82.98
724.309	82.21
724.492	81.57
724.675	81.18
724.858	81.23
725.041	81.28
725.224	81.89
725.407	82.14
725.59	82.15
725.774	82.19
725.957	82.6
726.14	82.54
726.322	82.44
726.505	82.53
726.688	82.94
726.871	82.81
727.054	83.09
727.237	83.17
727.42	82.61
727.603	82.39
727.786	82.47
727.968	81.82
728.151	81.98
728.334	83.19
728.517	83.14
728.699	83.05
728.882	83.67
729.065	83.57
729.248	82.76
729.43	82.6
729.613	82.99
729.796	83.27
729.978	83.11
730.161	83.1
730.343	83.7
730.526	82.94
730.708	82.6
730.891	83.35
731.073	83.61
731.256	83.4
731.438	85.06
731.621	85.44
731.803	84.81
731.986	85.61
732.168	86.03
732.35	85.59
732.533	85.5
732.715	85.34
732.898	84.7
733.08	84.68
733.262	84.68
733.444	84.99
733.627	85.76
733.809	86.2
733.991	86.18
734.173	85.53
734.355	85.29
734.538	85.82
734.72	85.6
734.902	85.68
735.084	85.85
735.266	86.18
735.448	85.99
735.63	86.44
735.812	86.24
735.994	86.92
736.176	87.08
736.358	87.38
736.54	87.96
736.722	87.7
736.904	87.24
737.086	86.93
737.268	86.71
737.45	86.33
737.632	87.01
737.814	87.8
737.995	88.21
738.177	88.22
738.359	88.58
738.541	89.18
738.723	88.4
738.904	88.68
739.086	88.59
739.268	88.01
739.449	86.8
739.631	87.28
739.813	85.6
739.994	85.04
740.176	85.98
740.358	87.01
740.539	86.5
740.721	87.63
740.902	88.51
741.084	88.08
741.265	87.35
741.447	88.21
741.628	88.37
741.81	88.03
741.991	88.08
742.172	87.54
742.354	87.07
742.535	86.83
742.717	86.43
742.898	85.83
743.079	87.96
743.261	87.45
743.442	87.02
743.623	87.23
743.804	86.89
743.986	85.47
744.167	85.36
744.348	85.59
744.529	85.59
744.71	85.96
744.891	85.59
745.073	86.01
745.254	86.76
745.435	86.72
745.616	87.07
745.797	87.67
745.978	88.09
746.159	87.7
746.34	88.44
746.521	88.86
746.702	89.18
746.883	89.23
747.064	89.73
747.245	89.71
747.426	88.81
747.606	88.27
747.787	88.26
747.968	87.16
748.149	85.97
748.33	85.54
748.51	84.61
748.691	84.18
748.872	85.24
749.053	85.8
749.233	86.27
749.414	87.79
749.595	88.52
749.775	87.52
749.956	87.92
750.137	87.47
750.317	85.92
750.498	84.94
750.678	84.71
750.859	84.87
751.04	85.58
751.22	85.27
751.4	85.78
751.581	86.92
751.761	87.68
751.942	88.84
752.122	89.75
752.303	89.72
752.483	88.9
752.663	87.76
752.844	85.75
753.024	86.75
753.204	86.82
753.385	86.49
753.565	86.83
753.745	85.59
753.925	84.11
754.106	84.74
754.286	84.93
754.466	84.39
754.646	86.23
754.826	88.6
755.006	86.72
755.187	87.08
755.367	85.84
755.547	85.41
755.727	83.85
755.907	84.51
756.087	84.03
756.267	83.46
756.447	84.54
756.627	84.23
756.807	84.94
756.987	84.99
757.167	86.43
757.346	85.01
757.526	85.53
757.706	85.12
757.886	85.47
758.066	85.34
758.246	84.4
758.425	83.98
758.605	83.51
758.785	83.15
758.965	83.29
759.144	84.26
759.324	85.36
759.504	85.33
759.683	84.16
759.863	84.96
760.043	84.63
760.222	82.88
760.402	82.19
760.581	83.64
760.761	82.27
760.94	82.77
761.12	82.55
761.299	83.57
761.479	82.69
761.658	84.19
761.838	85.09
762.017	86.67
762.197	86.34
762.376	85.99
762.555	85.62
762.735	85.03
762.914	83.96
763.093	84.38
763.273	85.81
763.452	84.47
763.631	84.29
763.81	83.96
763.99	83.05
764.169	81.97
764.348	82.27
764.527	81.32
764.706	81.72
764.885	82.54
765.064	82.83
765.243	83.76
765.423	83.94
765.602	85.14
765.781	82.18
765.96	82.67
766.139	81.67
766.318	82.7
766.497	80.9
766.676	82.24
766.854	82.69
767.033	83.41
767.212	84.35
767.391	85.54
767.57	88.18
767.749	86.64
767.928	86.86
768.106	84.23
768.285	82.69
768.464	81.4
768.643	79.35
768.821	78.76
769	79.32
769.179	81.2
769.357	81.25
769.536	83.92
769.715	82.21
769.893	82.97
770.072	80.15
770.25	79.72
770.429	79.31
770.607	80.48
770.786	79.88
770.964	82.22
771.143	82.46
771.321	80.85
771.5	81.41
771.678	81.42
771.857	79.55
772.035	79.72
772.213	80.3
772.392	78.49
772.57	78.21
772.748	78.84
772.927	77.58
773.105	79.21
773.283	78.93
773.461	80.27
773.64	80.1
773.818	80.84
773.996	80.15
774.174	80.8
774.352	79.07
774.531	78.4
774.709	78.75
774.887	76.9
775.065	78.48
775.243	78.82
775.421	79.83
775.599	79.65
775.777	80.89
775.955	78.81
776.133	78.66
776.311	75.94
776.489	76.23
776.667	75.3
776.844	75.31
777.022	74.92
777.2	76.54
777.378	75.21
777.556	78.33
777.734	81.22
777.911	81.39
778.089	81.65
778.267	81.99
778.445	80.73
778.622	78.33
778.8	78.27
778.978	80.9
779.155	82.92
779.333	82.95
779.511	84.09
779.688	83.84
779.866	81.86
780.043	78.78
780.221	78.09
780.398	76.26
780.576	76.29
780.753	73.89
780.931	75.97
781.108	78.4
781.286	80.03
781.463	80.4
781.64	80.51
781.818	82.95
781.995	82.39
782.172	80.63
782.35	82.06
782.527	83.43
782.704	79.74
782.882	74.56
783.059	75.6
783.236	76.71
783.413	77.02
783.59	76.88
783.768	77.6
783.945	76.07
784.122	74.32
784.299	73.29
784.476	72.96
784.653	74.19
784.83	74.33
785.007	74.81
785.184	76.96
785.361	78.49
785.538	79.76
785.715	84.72
785.892	83.58
786.069	84.75
786.246	82.87
786.423	82
786.6	79
786.776	80.94
786.953	79.94
787.13	81.8
787.307	81.06
787.484	78.81
787.66	77.62
787.837	76.65
788.014	76.16
788.191	75.25
788.367	73.42
788.544	71.98
788.721	68.94
788.897	70.18
789.074	70.44
789.25	72.85
789.427	72.5
789.603	73.78
789.78	70.71
789.956	72.05
790.133	70.56
790.309	73.24
790.486	75.73
790.662	75.25
790.839	75.85
791.015	80.4
791.192	76.9
791.368	73.98
791.544	75.6
791.721	75.64
791.897	72.08
792.073	72.36
792.249	74.63
792.426	73.15
792.602	75.64
792.778	74.86
792.954	74.05
793.13	72.17
793.307	70.96
793.483	62.21
793.659	58.79
793.835	61.62
794.011	67.12
794.187	67.59
794.363	71.54
794.539	77.38
794.715	76.82
794.891	71.04
795.067	70.23
795.243	70.05
795.419	67.72
795.595	69.83
795.771	72.13
795.947	74.96
796.122	73.51
796.298	76.52
796.474	79.07
796.65	78.15
796.826	76.4
797.001	78.28
797.177	71.17
797.353	65.29
797.529	63.27
797.704	63.94
797.88	62.7
798.056	65.34
798.231	63.15
798.407	65.3
798.582	67.8
798.758	69.05
798.934	71.86
799.109	75.53
799.285	72.71
799.46	68.92
799.636	69.8
799.811	69.65
799.986	67.85
800.162	69.78
800.337	72.23
800.513	70.89
800.688	64.59
800.863	70.55
801.039	69.77
801.214	62.96
801.389	61.87
801.565	67.37
801.74	57.29
801.915	60.56
802.09	66.59
802.265	68.57
802.441	69.63
802.616	76.2
802.791	72.2
802.966	71.59
803.141	72.32
803.316	66.55
803.491	69.99
803.666	71.92
803.841	72.91
804.016	64.62
804.191	70.71
804.366	66.88
804.541	65.41
804.716	62.59
804.891	69.58
805.066	68.61
805.241	62.88
805.416	71.17
805.591	77.25
805.765	85.91
805.94	86.6
806.115	85.5
806.29	78.72
806.464	74.03
806.639	68.7
806.814	66.56
806.989	74.99
807.163	75.34
807.338	74.07
807.512	74.5
807.687	71.58
807.862	73.13
808.036	74.49
808.211	77.84
808.385	76.33
808.56	80.79
808.734	68.6
808.909	69.84
809.083	67.71
809.258	66.21
809.432	64.77
809.606	67.67
809.781	68.55
809.955	70.96
810.13	64.03
810.304	62.63
810.478	63.36
810.652	63.35
810.827	65.48
811.001	71.61
811.175	74.48
811.349	77.99
811.524	76.14
811.698	69.24
811.872	71.06
812.046	62.45
812.22	59.95
812.394	56.68
812.568	62.85
812.742	59.43
812.916	71.55
813.09	68.96
813.264	67.15
813.438	59.79
813.612	55
813.786	50.39
813.96	55.11
814.134	56.49
814.308	64.46
814.482	74.99
814.656	71.08
814.83	73.8
815.003	73.33
815.177	68.4
815.351	66.2
815.525	77.53
815.698	69.77
815.872	67.33
816.046	59.25
816.219	62.46
816.393	49.88
816.567	58.13
816.74	61.72
816.914	70.97
817.088	64.47
817.261	67.11
817.435	57.58
817.608	47.76
817.782	39.11
817.955	42.58
818.129	49.55
818.302	54.01
818.475	71.44
818.649	78.7
818.822	72.55
818.996	76.67
819.169	82.84
819.342	75.23
819.516	75.95
819.689	76.32
819.862	71.74
820.035	60.65
820.209	52.17
820.382	45.05
820.555	41.89
820.728	29.18
820.901	32.28
821.075	52.46
821.248	68.55
821.421	69.06
821.594	78.78
821.767	83.39
821.94	69.16
822.113	64.94
822.286	73.91
822.459	71.02
822.632	64.9
822.805	61.07
822.978	53.11
823.151	37.96
823.324	33.06
823.496	27.89
823.669	39.4
823.842	47.94
824.015	57.18
824.188	60.11
824.361	70.26
824.533	51.73
824.706	51.32
824.879	52.12
825.051	62.56
825.224	59.68
825.397	63.97
825.569	57.55
825.742	56.67
825.915	52.56
826.087	48.45
826.26	37.2
826.432	39.03
826.605	40.95
826.777	59.77
826.95	59.08
827.122	70.39
827.295	90.45
827.467	95.52
827.64	62.7
827.812	79.47
827.984	85.02
828.157	53.75
828.329	65.97
828.501	58.27
828.674	46.55
828.846	39.78
829.018	59.52
829.19	39.11
829.363	44.14
829.535	49.7
829.707	63.12
829.879	42.83
830.051	45.29
830.223	50.27
830.395	45.37
830.568	46.16
830.74	40.29
830.912	51.47
831.084	60.13
831.256	56.4
831.428	57.02
831.6	67.73
831.772	64.7
831.943	44
832.115	67.22
832.287	61.09
832.459	55.82
832.631	60.42
832.803	68.51
832.975	61.12
833.146	52.8
833.318	54.02
833.49	55.17
833.662	61.15
833.833	52.38
834.005	58.87
834.177	66.59
834.348	51.27
834.52	44.36
834.692	43.03
834.863	41.47
835.035	38
835.206	41.99
835.378	48.27
835.549	47.98
835.721	49.23
835.892	47.33
836.064	46.55
836.235	33.53
836.407	44.25
836.578	56.13
836.749	43.1
836.921	45.41
837.092	44.6
837.264	37.63
837.435	19.22
837.606	41.1
837.777	37.15
837.949	50.67
838.12	48.91
838.291	43.7
838.462	45.18
838.633	43.8
838.805	16.25
838.976	17.45
839.147	33.72
839.318	20.46
839.489	23.66
839.66	50.15
839.831	48.59
840.002	42.47
840.173	43.48
840.344	47.06
840.515	30.99
840.686	31.84
840.857	35.6
841.028	32.44
841.199	29.18
841.369	34.57
841.54	23.73
841.711	23.86
841.882	37.21
842.053	25.87
842.223	31.01
842.394	36.69
842.565	19.02
842.736	29.77
842.906	25.3
843.077	20.56
843.248	46.45
843.418	60.3
843.589	57.51
843.759	90.24
843.93	92.46
844.101	80.5
844.271	110.86
844.442	98.3
844.612	62.87
844.783	64.82
844.953	58.41
845.123	40.13
845.294	43.25
845.464	68.83
845.635	76.29
845.805	106.48
845.975	91.86
846.146	70.95
846.316	43.94
846.486	31.72
846.656	18.2
846.827	30.22
846.997	28.41
847.167	39.74
847.337	46.04
847.507	56.29
847.677	48.21
847.848	66.78
848.018	77.87
848.188	85.53
848.358	59.24
848.528	66.42
848.698	22.25
848.868	22.09
849.038	2.76
849.208	32.28
849.378	29.22
849.548	35.5
849.718	6.5
849.887	-5.35
850.057	-31.75
850.227	-8.9
850.397	-4.99
850.567	-16.76
850.737	23.05
850.906	14.02
851.076	-14.62
851.246	14.85
851.415	35.6
851.585	24.11
851.755	52.31
851.924	63.47
852.094	61.26
852.264	42.85
852.433	33.37
852.603	6.93
852.772	39.98
852.942	53.3
853.111	60.76
853.281	52.9
853.45	35.67
853.62	23.96
853.789	-19.91
853.959	-0.17
854.128	15.18
854.297	43.02
854.467	35.78
854.636	69.92
854.805	63.38
854.975	64.17
855.144	60.57
855.313	66.49
855.482	25.33
855.652	14.02
855.821	-13.94
855.99	-33.17
856.159	-21.44
856.328	-5.28
856.497	17.16
856.667	25.16
856.836	57.45
857.005	68.71
857.174	70.27
857.343	72.55
857.512	68.95
857.681	39.72
857.85	35.04
858.019	5.85
858.188	-3
858.356	-0.25
858.525	28.25
858.694	41.21
858.863	39.09
859.032	25.62
859.201	17.96
859.369	12.56
859.538	1.25
859.707	-11.19
859.876	52.9
860.044	49.01
860.213	57.24
860.382	62.92
860.55	48.27
860.719	39.35
860.888	52.46
861.056	19.71
861.225	34.28
861.393	80.1
861.562	57.48
861.73	57.61
861.899	69.2
862.067	53.56
862.236	29.08
862.404	38.57
862.572	49.86
862.741	34.43
862.909	42.75
863.078	39.72
863.246	22.14
863.414	19.34
863.582	16.93
863.751	-6.91
863.919	9.25
864.087	36.24
864.255	27.01
864.424	3.58
864.592	43.48
864.76	29.37
864.928	24.81
865.096	20.41
865.264	45.39
865.432	29.22
865.6	45.07
865.768	7.05
865.936	18.17
866.104	8.78
866.272	-28.54
866.44	-30
866.608	-17.91
866.776	-12.09
866.944	-0.63
867.112	17.9
867.28	34.89
867.448	45.09
867.615	40.99
867.783	30.01
867.951	20.31
868.119	21.86
868.286	35.39
868.454	18.93
868.622	31.41
868.789	34.62
868.957	47.46
869.125	38.49
869.292	23.61
869.46	24.97
869.627	54.59
869.795	18.96
869.963	29.25
870.13	50.63
870.298	67.12
870.465	35.17
870.632	-1.05
870.8	6.59
870.967	0.36
871.135	-39.61
871.302	-16.91
871.469	17.82
871.637	22.24
871.804	57.38
871.971	54.11
872.139	46.71
872.306	22.19
872.473	-1.19
872.64	-102.15
872.807	-69.69
872.975	-172.67
873.142	-19.6
873.309	-21.57
873.476	36.88
873.643	55.13
873.81	44.64
873.977	3.24
874.144	65.52
874.311	28.32
874.478	21.39
874.645	2.97
874.812	70.56
874.979	30.07
875.146	-10.94
875.313	-3.08
875.48	6.68
875.647	-11.81
875.813	-24.59
875.98	-12.37
876.147	-61.44
876.314	-7.05
876.481	-4.46
876.647	10.62
876.814	9.83
876.981	5.65
877.147	-12.41
877.314	-23.33
877.481	8.69
877.647	23.56
877.814	23.15
877.98	57.6
878.147	92.25
878.314	82.74
878.48	76.88
878.647	66.6
878.813	49.25
878.979	7.25
879.146	-18.89
879.312	29.17
879.479	32.75
879.645	14.21
879.811	-8.91
879.978	29.85
880.144	-3.41
880.31	-5.75
880.477	5.67
880.643	18.71
880.809	-41.55
880.975	-38.39
881.142	-136.43
881.308	398.65
881.474	557.17
881.64	-105.35
881.806	-110.77
881.972	8.28
882.138	29.21
882.304	41.31
882.47	27.74
882.636	17.46
882.802	-5.73
882.968	-35
883.134	-24.13
883.3	-3.68
883.466	8.87
883.632	62.1
883.798	55.06
883.964	27.52
884.129	-67.25
884.295	67.92
884.461	-4.06
884.627	36.46
884.793	26.9
884.958	40.97
885.124	-0.29
885.29	-19.49
885.455	-2.68
885.621	65.36
885.787	23.9
885.952	34.3
886.118	41.38
886.283	9.41
886.449	-18.31
886.614	4.95
886.78	41.68
886.945	58.07
887.111	22.84
887.276	25.17
887.442	-63.78
887.607	-111.65
887.773	-47.91
887.938	-23.04
888.103	-0.76
888.269	32.4
888.434	42.39
888.599	22.94
888.764	42.34
888.93	51.6
889.095	45.92
889.26	26.8
889.425	34.69
889.59	21.75
889.756	-11.7
889.921	-40.26
890.086	-8.62
890.251	27.65
890.416	6.53
890.581	-25.48
890.746	42.39
890.911	40.2
891.076	38.21
891.241	65.85
891.406	79.56
891.571	115.04
891.736	8.87
891.901	42.39
892.065	21.43
892.23	55.28
892.395	-6.26
892.56	5.95
892.725	-28.07
892.889	-92.4
893.054	-89.41
893.219	-22.25
893.384	28.79
893.548	-2.5
893.713	6.88
893.878	-23.05
