Data from Ofra_2a_PS_2GT3_Reflection_1.txt Node
Date: Tue Jul 20 09:40:32 EDT 2021
User: Adam
Spectrometer: FLMT01687
Trigger mode: 0
Integration Time (sec): 9.450000E-1
Scans to average: 3
Electric dark correction enabled: true
Nonlinearity correction enabled: false
Boxcar width: 3
XAxis mode: Wavelengths
Number of Pixels in Spectrum: 3648
>>>>>Begin Spectral Data<<<<<
179.494	1555.62
179.716	1015.85
179.937	1064.84
180.158	4201.56
180.38	-2087.21
180.601	-326.02
180.823	-120.27
181.044	-1.59
181.265	78.47
181.486	56.54
181.708	-643.48
181.929	-100.93
182.15	-990.91
182.372	137.91
182.593	85.62
182.814	64.07
183.035	-26.45
183.257	43.57
183.478	14.43
183.699	37.65
183.92	32.24
184.141	20.74
184.363	13.58
184.584	20.7
184.805	14.14
185.026	6.6
185.247	-20.07
185.468	-3.45
185.689	10.22
185.91	18.41
186.132	20.42
186.353	11.87
186.574	10.48
186.795	-3.85
187.016	-6.5
187.237	-8.89
187.458	-35.85
187.679	-61.8
187.9	-36.63
188.121	-23.35
188.342	2.54
188.563	-0.65
188.784	1.39
189.005	22.02
189.226	33.52
189.447	23.01
189.667	15.32
189.888	19.1
190.109	1.54
190.33	-8.47
190.551	-27.38
190.772	-43.08
190.993	-19.96
191.214	-22.09
191.434	-38.45
191.655	-11.91
191.876	5.55
192.097	3.11
192.318	9.95
192.538	1.4
192.759	3.53
192.98	0.56
193.201	6.54
193.421	3.67
193.642	6.38
193.863	1.47
194.083	-4.1
194.304	-10.97
194.525	2.57
194.745	-26.47
194.966	-28.66
195.187	-24.04
195.407	-23.86
195.628	-16.74
195.848	-27.11
196.069	-31.18
196.29	-28.04
196.51	-49.36
196.731	-30.68
196.951	-24.2
197.172	-58.27
197.392	-16.74
197.613	-25.62
197.833	-30.61
198.054	-28.71
198.274	-68.9
198.495	-91.23
198.715	-84.69
198.936	-111.28
199.156	-69.3
199.377	-55.55
199.597	-52.96
199.817	-19.47
200.038	2.78
200.258	15.95
200.479	5.34
200.699	0.22
200.919	-15.56
201.14	-12.68
201.36	-20.09
201.58	-31.65
201.801	-26.42
202.021	-13.4
202.241	-17.19
202.461	-3.95
202.682	4.53
202.902	15.29
203.122	16.75
203.342	25.75
203.563	26.62
203.783	29.2
204.003	27.33
204.223	32.83
204.443	23.68
204.663	27.42
204.884	11.06
205.104	-2.75
205.324	8.28
205.544	0.43
205.764	-31.1
205.984	-20.86
206.204	-24.39
206.424	-10.51
206.644	0.82
206.864	-8.41
207.084	7.69
207.304	4.65
207.525	-5.94
207.745	-3.71
207.964	-2.27
208.184	-12.18
208.404	-22.04
208.624	-51.9
208.844	-48.86
209.064	-31.2
209.284	-27.81
209.504	-33.7
209.724	-63.1
209.944	-52.63
210.164	-31.94
210.384	-18.73
210.604	-35.66
210.823	-46.99
211.043	-49.45
211.263	-24.47
211.483	-16.64
211.703	-13.16
211.922	-4.16
212.142	-0.29
212.362	14.8
212.582	13.76
212.801	11.61
213.021	-3.41
213.241	-11.72
213.461	-17.47
213.68	-16.15
213.9	-20.91
214.12	-17.5
214.339	-12.46
214.559	4.67
214.779	0.45
214.998	-7.32
215.218	-2.41
215.438	2.99
215.657	8.08
215.877	5.5
216.096	-2.45
216.316	-1.16
216.535	4.12
216.755	-20.88
216.974	-20.61
217.194	-23.25
217.413	-13.93
217.633	-8.82
217.852	5.6
218.072	-8.18
218.291	35.96
218.511	21.56
218.73	8.24
218.95	1.53
219.169	-3.97
219.389	-13.09
219.608	1.36
219.827	-37.25
220.047	-29.9
220.266	-17.92
220.485	0.39
220.705	5.85
220.924	10.67
221.143	4.83
221.363	4.73
221.582	-4.56
221.801	-0.95
222.021	-15.06
222.24	-32.3
222.459	-35.45
222.678	-48.48
222.897	-36.9
223.117	-33.15
223.336	-23.33
223.555	-18.31
223.774	-1.32
223.993	14.13
224.213	11.67
224.432	7.78
224.651	8.12
224.87	5.56
225.089	13.95
225.308	13.94
225.527	0.42
225.746	2.56
225.965	3.3
226.184	-1.25
226.404	-7.04
226.623	-11.44
226.842	-18.97
227.061	-26.56
227.28	-18.28
227.499	6.26
227.718	4.48
227.936	-5.1
228.155	-6.76
228.374	-0.03
228.593	0.78
228.812	-6.08
229.031	-20.69
229.25	-18.64
229.469	-2.63
229.688	-0.3
229.907	-12.84
230.125	-1.11
230.344	3.75
230.563	12.94
230.782	1.88
231.001	-5.39
231.22	-14.14
231.438	-3.7
231.657	-4.73
231.876	-13.13
232.095	-21.55
232.313	-7.07
232.532	-2.2
232.751	-0.76
232.969	4.73
233.188	7.08
233.407	13.48
233.625	6.2
233.844	6.86
234.063	-5.46
234.281	-0.36
234.5	-1.63
234.719	-14.1
234.937	-14.28
235.156	-11.97
235.374	-20.94
235.593	-9.42
235.811	-22.22
236.03	-41.35
236.249	-28.57
236.467	-21.61
236.686	-13.58
236.904	-19.48
237.123	-11.18
237.341	-3.07
237.559	-3.88
237.778	7.14
237.996	3.64
238.215	-0.28
238.433	16.15
238.652	12.56
238.87	9.68
239.088	3.56
239.307	4.96
239.525	-4.54
239.743	-10.38
239.962	-20.73
240.18	-12.86
240.398	0.78
240.617	16.53
240.835	5.06
241.053	24.27
241.271	38.63
241.49	26.95
241.708	20.54
241.926	-6.39
242.144	-19.43
242.363	-16.19
242.581	-27.41
242.799	-39.49
243.017	-11.64
243.235	-24.64
243.453	-14.53
243.672	-14.87
243.89	-4.97
244.108	9.89
244.326	7.95
244.544	-2.95
244.762	10.4
244.98	13.75
245.198	15.47
245.416	4.89
245.634	12.82
245.852	16.2
246.07	22.06
246.288	18.11
246.506	24.23
246.724	30.42
246.942	43.34
247.16	15.02
247.378	0.65
247.596	0.36
247.814	-10.66
248.032	-19.86
248.25	-32.56
248.468	-38.97
248.685	-31.72
248.903	-34.65
249.121	-44.09
249.339	-28.56
249.557	-27.7
249.775	-38.2
249.992	-39.08
250.21	-44.04
250.428	-29.33
250.646	-16.81
250.863	-15.95
251.081	-22.66
251.299	-8.38
251.517	10.54
251.734	0.45
251.952	-8
252.17	-49.61
252.387	-41.47
252.605	-31.79
252.823	-32.22
253.04	-41.97
253.258	-36.83
253.475	-21.95
253.693	2.64
253.911	1.81
254.128	-2.92
254.346	-7.17
254.563	-15.34
254.781	-13.83
254.998	-16.96
255.216	-18.07
255.433	-18.09
255.651	-12.56
255.868	-5.07
256.086	-6.08
256.303	-4.61
256.521	-25.76
256.738	-26.81
256.956	-39.76
257.173	-36.32
257.39	-29.67
257.608	-15.66
257.825	-25.05
258.043	-7.14
258.26	-15.42
258.477	-7.65
258.695	-2.83
258.912	2.67
259.129	-8.28
259.346	3.31
259.564	-1.15
259.781	18.03
259.998	24.41
260.216	24.48
260.433	6.26
260.65	0.53
260.867	-10.5
261.084	-10.79
261.302	-29.93
261.519	-42.45
261.736	-52.07
261.953	-46.54
262.17	-24.12
262.387	-32.36
262.604	-42.15
262.822	-23.07
263.039	-21.24
263.256	-19.79
263.473	-17.89
263.69	-25.74
263.907	-7.12
264.124	2.58
264.341	-4.69
264.558	5.01
264.775	15.63
264.992	15.48
265.209	18.47
265.426	16.32
265.643	16.83
265.86	10.58
266.077	5.1
266.294	-0.98
266.51	-0.36
266.727	-8.1
266.944	-21.83
267.161	-26.84
267.378	-22.75
267.595	-33
267.812	-33.46
268.028	-23.25
268.245	-18.08
268.462	-14.87
268.679	-20.9
268.896	-18.6
269.112	-8.62
269.329	1.16
269.546	-3.66
269.763	0.05
269.979	6.33
270.196	16.15
270.413	17.11
270.629	14.59
270.846	8.77
271.063	8.5
271.279	1.66
271.496	-12.24
271.712	-15.83
271.929	-18.32
272.146	-17.88
272.362	-43.47
272.579	-46.14
272.795	-50
273.012	-32.4
273.228	-30.48
273.445	-26.77
273.661	-22.09
273.878	-9.2
274.094	-7.21
274.311	-8.7
274.527	-12.66
274.744	-20.44
274.96	-22.74
275.177	-21.25
275.393	-22.21
275.609	-19.59
275.826	-9.21
276.042	0.59
276.259	8.21
276.475	15.5
276.691	14.72
276.908	14.48
277.124	10.57
277.34	6.49
277.557	3.8
277.773	-0.78
277.989	-5.02
278.205	-13.24
278.422	-2.24
278.638	10.56
278.854	13.83
279.07	5.75
279.286	-4.82
279.503	-3.41
279.719	9.36
279.935	-5.42
280.151	-6.27
280.367	-9.93
280.583	1.92
280.799	20.37
281.016	18.86
281.232	8.68
281.448	10.41
281.664	13.06
281.88	22.35
282.096	20.13
282.312	1.24
282.528	-10.29
282.744	-6.12
282.96	-5.58
283.176	-7.54
283.392	-12.06
283.608	-8.03
283.824	-9.96
284.04	-0.03
284.256	-0.34
284.471	5.55
284.687	3.11
284.903	0.21
285.119	-17.84
285.335	-6.69
285.551	1.4
285.767	3.58
285.982	9.74
286.198	5.48
286.414	14.4
286.63	20.58
286.846	18.83
287.061	10.24
287.277	9.58
287.493	3.78
287.709	0.38
287.924	-3.59
288.14	8.6
288.356	9.41
288.571	12.58
288.787	17.5
289.003	22.95
289.218	18.47
289.434	12.55
289.65	10.2
289.865	13.62
290.081	9.54
290.296	2.31
290.512	1.5
290.727	15.69
290.943	0.05
291.159	-11.53
291.374	-6.18
291.59	-7.12
291.805	-8.07
292.021	-27.4
292.236	-27.6
292.451	-5.68
292.667	1.9
292.882	-15.26
293.098	-12.93
293.313	-10.67
293.529	-1.65
293.744	-0.54
293.959	-2.21
294.175	-15.67
294.39	-5.87
294.605	-15.73
294.821	-15.54
295.036	-7.75
295.251	-1.9
295.467	-3.97
295.682	3.48
295.897	0.05
296.112	2.88
296.328	-1.96
296.543	-20.86
296.758	-29.17
296.973	-28.89
297.188	-29.71
297.404	-22.11
297.619	-13.23
297.834	5.87
298.049	10.99
298.264	12.24
298.479	-3.8
298.694	-0.41
298.909	-9.29
299.125	-9.78
299.34	-22.89
299.555	-12.64
299.77	-17.48
299.985	-10.34
300.2	-9.79
300.415	-4.21
300.63	-11.19
300.845	-8.5
301.06	-6.07
301.275	-4.03
301.49	8.53
301.704	5.6
301.919	0.26
302.134	-1.53
302.349	-8.88
302.564	-27.85
302.779	-38.96
302.994	-60.18
303.209	-77.66
303.423	-59.81
303.638	-47.7
303.853	-37
304.068	-14.83
304.283	-11
304.497	-2.95
304.712	10.43
304.927	2.01
305.142	-3.31
305.356	7.04
305.571	8.8
305.786	12.22
306	19.17
306.215	20.61
306.43	26.2
306.644	27.44
306.859	22.08
307.074	16.07
307.288	18.63
307.503	13.38
307.717	12.27
307.932	9.68
308.147	9.02
308.361	-0.1
308.576	-2.96
308.79	-3.76
309.005	0.56
309.219	-1.11
309.434	-1.91
309.648	-14.93
309.863	-9
310.077	-10.89
310.292	-13.78
310.506	-9.32
310.72	-11.57
310.935	-7.83
311.149	5.89
311.364	5.89
311.578	8.63
311.792	6.25
312.007	-0.89
312.221	1.48
312.435	3.73
312.649	3.75
312.864	-11.12
313.078	-18.36
313.292	-9.93
313.507	-9.61
313.721	-12.43
313.935	-8.05
314.149	-2.32
314.363	8.3
314.578	38.77
314.792	32.27
315.006	26.56
315.22	26.25
315.434	15.43
315.648	8.47
315.862	10.21
316.077	-10.14
316.291	-5.59
316.505	4.48
316.719	-8.37
316.933	3.44
317.147	14
317.361	16.26
317.575	18.04
317.789	15.31
318.003	12.8
318.217	16.96
318.431	20.2
318.645	16.23
318.859	5.91
319.073	7.42
319.287	9.16
319.5	7.33
319.714	8.25
319.928	4.04
320.142	1.95
320.356	15.9
320.57	9.42
320.784	12.46
320.997	14.9
321.211	8.03
321.425	-0.76
321.639	7.86
321.853	-7.81
322.066	-11.79
322.28	-19.81
322.494	-24.24
322.707	-13
322.921	-0.36
323.135	-1.23
323.349	8.01
323.562	12.49
323.776	21.07
323.989	20.66
324.203	25.12
324.417	8.45
324.63	-2.48
324.844	-16.08
325.057	-6.6
325.271	-36.22
325.485	-31.51
325.698	-40.46
325.912	-21.52
326.125	-17.65
326.339	-4.96
326.552	-10.93
326.766	11.8
326.979	11.51
327.193	6.53
327.406	-2.03
327.619	-11.81
327.833	-17.02
328.046	-18.89
328.26	-32.02
328.473	-37.04
328.686	-24.89
328.9	-24.18
329.113	-19.13
329.326	-7.98
329.54	-10.23
329.753	-5.93
329.966	-4.95
330.179	-2.03
330.393	1.47
330.606	5.95
330.819	4.3
331.032	9.96
331.246	10.86
331.459	12.06
331.672	12.93
331.885	5.44
332.098	-2.36
332.311	-18.6
332.525	-13.37
332.738	-13.98
332.951	-13.11
333.164	-22.19
333.377	-26.02
333.59	-13.92
333.803	-0.93
334.016	-1.19
334.229	1.18
334.442	20.51
334.655	22.91
334.868	33.29
335.081	30.96
335.294	29.17
335.507	25.07
335.72	14.87
335.933	5.2
336.146	7.83
336.359	0.05
336.572	-4.69
336.785	4.68
336.997	-1.59
337.21	6.32
337.423	8.13
337.636	11.83
337.849	9.85
338.062	21.1
338.274	17.51
338.487	17.57
338.7	15.98
338.913	13.43
339.125	7.59
339.338	16.66
339.551	12
339.763	9.33
339.976	9.98
340.189	4.95
340.402	4.66
340.614	8.08
340.827	-7.27
341.039	-11.05
341.252	-13.39
341.465	-17.6
341.677	-13.22
341.89	-20.74
342.102	-17.49
342.315	-4.16
342.527	-6.07
342.74	-5.55
342.952	2.63
343.165	14.7
343.377	17.9
343.59	11.07
343.802	5.61
344.015	11.17
344.227	2.39
344.44	-1.29
344.652	-8.64
344.864	-4.81
345.077	-10.95
345.289	-7.86
345.502	-7.87
345.714	-4.27
345.926	-14.44
346.139	-13.91
346.351	-33.89
346.563	-24.18
346.775	-30.31
346.988	-26.15
347.2	-14.39
347.412	-9.11
347.624	-5.35
347.837	6.49
348.049	8.99
348.261	10.1
348.473	2.86
348.685	10.43
348.897	5.38
349.11	-0.94
349.322	-11.39
349.534	-20.73
349.746	-11.99
349.958	-5.73
350.17	-16.38
350.382	-12.9
350.594	-12.45
350.806	0.05
351.018	2.89
351.23	2.55
351.442	-1.58
351.654	2.84
351.866	5.18
352.078	-1.3
352.29	-2.09
352.502	-2.08
352.714	-6.53
352.926	-4.23
353.138	-8.06
353.35	-13.11
353.561	-1.01
353.773	-3.69
353.985	-3.51
354.197	-5.52
354.409	0.37
354.621	0.86
354.832	0.11
355.044	4.18
355.256	5.46
355.468	5.24
355.679	5.26
355.891	-1.15
356.103	-8.52
356.314	-7.39
356.526	-16.25
356.738	-20.03
356.949	-15.58
357.161	-13.16
357.373	-10.27
357.584	1.53
357.796	6.19
358.008	10.84
358.219	18.72
358.431	16.97
358.642	9.45
358.854	11
359.065	6.99
359.277	4.79
359.488	-1.02
359.7	-2.11
359.911	-2.92
360.123	6.87
360.334	4.24
360.546	-2.67
360.757	9.06
360.969	13.98
361.18	7.62
361.391	9.6
361.603	5.57
361.814	5.96
362.025	9.43
362.237	-0.33
362.448	0.04
362.659	-5.4
362.871	-2.24
363.082	-1.52
363.293	1.16
363.504	3.34
363.716	8.33
363.927	6.86
364.138	14.59
364.349	19.23
364.56	20.45
364.772	15.18
364.983	8.7
365.194	0.44
365.405	-2.1
365.616	-14.42
365.827	-26.35
366.038	-11.34
366.25	-3.01
366.461	9.47
366.672	9.83
366.883	11.69
367.094	12.35
367.305	8.11
367.516	-3.56
367.727	-8.2
367.938	-11.6
368.149	-0.7
368.36	2.26
368.571	2.13
368.781	2.26
368.992	2.27
369.203	5.1
369.414	-2.68
369.625	-7.89
369.836	-11.26
370.047	-6.95
370.258	-4.64
370.468	-5.55
370.679	-6.54
370.89	6.18
371.101	2.22
371.312	2.85
371.522	8.14
371.733	2.43
371.944	3.28
372.155	-10
372.365	-20.96
372.576	-21.68
372.787	-22.65
372.997	-30.72
373.208	-20.44
373.419	-21.21
373.629	-4.81
373.84	-8.16
374.05	-6.24
374.261	-6.89
374.472	-4.82
374.682	-16.18
374.893	-19.5
375.103	-14.52
375.314	-7.69
375.524	-7.39
375.735	-3.32
375.945	-3.9
376.156	6.37
376.366	10.85
376.577	7.15
376.787	5.9
376.997	10.9
377.208	4.36
377.418	10.08
377.629	3.51
377.839	8.61
378.049	9.51
378.26	12.66
378.47	11.14
378.68	15.67
378.89	4.5
379.101	1.04
379.311	-12.24
379.521	-7.24
379.732	-17.6
379.942	-19.62
380.152	-15.15
380.362	1.1
380.572	6.47
380.783	15.3
380.993	9.89
381.203	13.59
381.413	18.28
381.623	15.01
381.833	6.21
382.043	2.35
382.253	0.85
382.463	1.38
382.674	4.53
382.884	-0.43
383.094	0.95
383.304	2.14
383.514	5.93
383.724	4.26
383.934	1.45
384.144	2.91
384.353	4.68
384.563	1.66
384.773	2.5
384.983	2.88
385.193	6.66
385.403	12.13
385.613	8.13
385.823	7.26
386.033	6.84
386.242	7.92
386.452	5.1
386.662	4.16
386.872	-0.65
387.082	-1.24
387.291	-0.96
387.501	0.53
387.711	-0.59
387.921	1.57
388.13	-2.25
388.34	-0.46
388.55	2.37
388.759	2.24
388.969	-0.1
389.179	2.66
389.388	3.85
389.598	1.94
389.807	1.76
390.017	1.14
390.227	2.03
390.436	2.44
390.646	1.83
390.855	0.19
391.065	0.98
391.274	-1.18
391.484	-0.21
391.693	-0.37
391.903	-0.84
392.112	-1.33
392.322	1.13
392.531	2.87
392.74	3.07
392.95	3.32
393.159	3.61
393.369	4.58
393.578	4.43
393.787	3.74
393.997	5.17
394.206	5.22
394.415	5.52
394.625	4.61
394.834	3.23
395.043	3.61
395.252	3.41
395.462	2.31
395.671	3.5
395.88	3.12
396.089	3.74
396.298	4.27
396.508	4.23
396.717	3.48
396.926	3.28
397.135	2.64
397.344	2.5
397.553	2.76
397.762	3.07
397.971	2.91
398.181	2.93
398.39	3.47
398.599	4.1
398.808	4.59
399.017	4.66
399.226	4.85
399.435	4.8
399.644	5.11
399.853	5.07
400.062	4.61
400.27	4.36
400.479	4.23
400.688	4.09
400.897	4.32
401.106	4.42
401.315	4.16
401.524	4.47
401.733	4.59
401.941	4.36
402.15	4.28
402.359	4.2
402.568	4.13
402.777	4.23
402.985	4.01
403.194	3.9
403.403	3.81
403.612	3.79
403.82	3.81
404.029	3.78
404.238	3.72
404.446	3.74
404.655	3.68
404.864	3.74
405.072	3.79
405.281	3.63
405.489	3.68
405.698	3.63
405.906	3.5
406.115	3.53
406.324	3.46
406.532	3.38
406.741	3.51
406.949	3.44
407.158	3.56
407.366	3.66
407.574	3.67
407.783	3.67
407.991	3.66
408.2	3.55
408.408	3.5
408.617	3.38
408.825	3.32
409.033	3.28
409.242	3.25
409.45	3.28
409.658	3.33
409.867	3.37
410.075	3.36
410.283	3.32
410.491	3.29
410.7	3.32
410.908	3.3
411.116	3.22
411.324	3.22
411.533	3.15
411.741	3.16
411.949	3.21
412.157	3.3
412.365	3.3
412.573	3.29
412.781	3.23
412.99	3.4
413.198	3.43
413.406	3.32
413.614	3.24
413.822	3.26
414.03	3.2
414.238	3.24
414.446	3.13
414.654	3.11
414.862	3.15
415.07	3.19
415.278	3.13
415.486	3.25
415.694	3.17
415.902	3.16
416.109	3.17
416.317	3.19
416.525	3.14
416.733	3.2
416.941	3.06
417.149	3.15
417.357	3.17
417.564	3.17
417.772	3.13
417.98	3.09
418.188	2.98
418.395	3.07
418.603	2.91
418.811	2.82
419.019	2.8
419.226	2.86
419.434	2.84
419.642	2.9
419.849	2.88
420.057	2.9
420.265	2.94
420.472	2.89
420.68	2.8
420.887	2.87
421.095	2.94
421.302	2.95
421.51	3.1
421.717	3.16
421.925	3.13
422.132	3.14
422.34	3.04
422.547	2.91
422.755	2.84
422.962	2.67
423.17	2.48
423.377	2.53
423.585	2.52
423.792	2.53
423.999	2.57
424.207	2.58
424.414	2.62
424.621	2.66
424.829	2.59
425.036	2.55
425.243	2.57
425.451	2.55
425.658	2.6
425.865	2.57
426.072	2.62
426.28	2.69
426.487	2.68
426.694	2.59
426.901	2.47
427.108	2.48
427.315	2.55
427.523	2.53
427.73	2.52
427.937	2.54
428.144	2.62
428.351	2.75
428.558	2.64
428.765	2.57
428.972	2.64
429.179	2.6
429.386	2.73
429.593	2.71
429.8	2.72
430.007	2.79
430.214	2.86
430.421	2.82
430.628	2.71
430.835	2.62
431.042	2.63
431.249	2.63
431.456	2.68
431.662	2.59
431.869	2.63
432.076	2.72
432.283	2.72
432.49	2.67
432.697	2.65
432.903	2.6
433.11	2.68
433.317	2.71
433.524	2.64
433.73	2.66
433.937	2.68
434.144	2.76
434.35	2.76
434.557	2.71
434.764	2.66
434.97	2.79
435.177	2.75
435.384	2.79
435.59	2.74
435.797	2.72
436.003	2.75
436.21	2.72
436.416	2.64
436.623	2.68
436.829	2.74
437.036	2.69
437.242	2.77
437.449	2.81
437.655	2.86
437.862	2.93
438.068	3
438.275	2.92
438.481	3.09
438.687	3.13
438.894	3.05
439.1	3.09
439.307	3.09
439.513	3.01
439.719	3.07
439.926	3.03
440.132	2.97
440.338	3.09
440.544	3.05
440.751	3.03
440.957	3.03
441.163	3.07
441.369	3.03
441.575	3.06
441.782	2.97
441.988	2.95
442.194	2.99
442.4	3.01
442.606	2.97
442.812	2.95
443.018	2.96
443.224	3.06
443.431	3.16
443.637	3.09
443.843	3.18
444.049	3.18
444.255	3.17
444.461	3.17
444.667	3.15
444.873	3.06
445.079	3.17
445.284	3.13
445.49	3.17
445.696	3.21
445.902	3.25
446.108	3.23
446.314	3.31
446.52	3.3
446.726	3.28
446.931	3.26
447.137	3.29
447.343	3.3
447.549	3.28
447.755	3.22
447.96	3.22
448.166	3.31
448.372	3.32
448.578	3.36
448.783	3.31
448.989	3.35
449.195	3.36
449.4	3.36
449.606	3.31
449.812	3.31
450.017	3.27
450.223	3.28
450.428	3.31
450.634	3.34
450.84	3.37
451.045	3.39
451.251	3.39
451.456	3.39
451.662	3.39
451.867	3.36
452.073	3.34
452.278	3.28
452.483	3.26
452.689	3.31
452.894	3.29
453.1	3.26
453.305	3.27
453.51	3.29
453.716	3.32
453.921	3.34
454.127	3.32
454.332	3.35
454.537	3.41
454.742	3.4
454.948	3.41
455.153	3.4
455.358	3.46
455.563	3.46
455.769	3.45
455.974	3.44
456.179	3.39
456.384	3.41
456.589	3.48
456.795	3.36
457	3.42
457.205	3.4
457.41	3.39
457.615	3.47
457.82	3.5
458.025	3.44
458.23	3.51
458.435	3.44
458.64	3.52
458.845	3.52
459.05	3.51
459.255	3.44
459.46	3.46
459.665	3.5
459.87	3.55
460.075	3.5
460.28	3.54
460.485	3.6
460.69	3.63
460.895	3.66
461.099	3.62
461.304	3.61
461.509	3.58
461.714	3.57
461.919	3.52
462.123	3.54
462.328	3.5
462.533	3.51
462.738	3.54
462.942	3.62
463.147	3.61
463.352	3.66
463.556	3.69
463.761	3.74
463.966	3.75
464.17	3.72
464.375	3.66
464.58	3.63
464.784	3.65
464.989	3.58
465.193	3.59
465.398	3.65
465.602	3.69
465.807	3.76
466.011	3.83
466.216	3.81
466.42	3.86
466.625	3.88
466.829	3.89
467.034	3.93
467.238	3.96
467.443	3.97
467.647	3.99
467.851	4.05
468.056	4.02
468.26	3.98
468.464	3.97
468.669	3.99
468.873	3.95
469.077	4
469.282	3.97
469.486	4.01
469.69	4.03
469.894	4.1
470.099	4.14
470.303	4.19
470.507	4.18
470.711	4.23
470.915	4.3
471.119	4.32
471.324	4.27
471.528	4.26
471.732	4.3
471.936	4.4
472.14	4.4
472.344	4.41
472.548	4.5
472.752	4.61
472.956	4.65
473.16	4.64
473.364	4.59
473.568	4.59
473.772	4.62
473.976	4.6
474.18	4.57
474.384	4.55
474.588	4.6
474.792	4.61
474.995	4.64
475.199	4.66
475.403	4.71
475.607	4.73
475.811	4.76
476.015	4.83
476.218	4.86
476.422	4.9
476.626	4.87
476.83	4.86
477.033	4.92
477.237	4.93
477.441	4.93
477.644	4.94
477.848	4.94
478.052	5.04
478.255	5.07
478.459	5.09
478.663	5.15
478.866	5.12
479.07	5.15
479.273	5.15
479.477	5.16
479.681	5.16
479.884	5.15
480.088	5.16
480.291	5.25
480.495	5.27
480.698	5.3
480.901	5.29
481.105	5.38
481.308	5.43
481.512	5.41
481.715	5.43
481.919	5.47
482.122	5.5
482.325	5.55
482.529	5.57
482.732	5.59
482.935	5.6
483.138	5.6
483.342	5.63
483.545	5.66
483.748	5.67
483.952	5.65
484.155	5.69
484.358	5.72
484.561	5.78
484.764	5.79
484.967	5.86
485.171	5.84
485.374	5.89
485.577	5.92
485.78	5.97
485.983	5.96
486.186	5.93
486.389	5.87
486.592	5.9
486.795	5.86
486.998	5.78
487.201	5.77
487.404	5.81
487.607	5.84
487.81	5.87
488.013	5.86
488.216	5.88
488.419	5.91
488.622	5.9
488.825	5.86
489.028	5.86
489.231	5.87
489.433	5.85
489.636	5.82
489.839	5.84
490.042	5.86
490.245	5.87
490.447	5.87
490.65	5.9
490.853	5.94
491.056	5.98
491.258	6
491.461	5.98
491.664	5.96
491.866	6.01
492.069	5.99
492.272	5.99
492.474	5.97
492.677	5.99
492.879	6.01
493.082	6.1
493.285	6.11
493.487	6.11
493.69	6.12
493.892	6.18
494.095	6.14
494.297	6.19
494.5	6.17
494.702	6.13
494.905	6.17
495.107	6.22
495.309	6.15
495.512	6.2
495.714	6.21
495.917	6.23
496.119	6.28
496.321	6.31
496.524	6.31
496.726	6.36
496.928	6.36
497.13	6.42
497.333	6.45
497.535	6.45
497.737	6.46
497.939	6.49
498.142	6.5
498.344	6.53
498.546	6.52
498.748	6.5
498.95	6.5
499.152	6.53
499.355	6.57
499.557	6.64
499.759	6.69
499.961	6.72
500.163	6.82
500.365	6.87
500.567	6.89
500.769	6.9
500.971	6.91
501.173	6.9
501.375	6.89
501.577	6.89
501.779	6.95
501.981	7.02
502.183	6.99
502.385	7.03
502.587	7.07
502.788	7.09
502.99	7.11
503.192	7.1
503.394	7.12
503.596	7.17
503.798	7.22
503.999	7.26
504.201	7.31
504.403	7.35
504.605	7.4
504.806	7.41
505.008	7.48
505.21	7.48
505.411	7.51
505.613	7.56
505.815	7.59
506.016	7.65
506.218	7.66
506.42	7.69
506.621	7.72
506.823	7.77
507.024	7.76
507.226	7.78
507.427	7.73
507.629	7.77
507.83	7.79
508.032	7.86
508.233	7.88
508.435	7.89
508.636	7.9
508.838	7.96
509.039	7.97
509.24	8
509.442	7.94
509.643	7.98
509.845	8.04
510.046	8.07
510.247	8.14
510.448	8.22
510.65	8.28
510.851	8.37
511.052	8.43
511.254	8.47
511.455	8.51
511.656	8.51
511.857	8.54
512.058	8.57
512.26	8.57
512.461	8.59
512.662	8.56
512.863	8.61
513.064	8.62
513.265	8.61
513.466	8.65
513.667	8.71
513.868	8.7
514.069	8.79
514.27	8.8
514.471	8.86
514.672	8.92
514.873	8.94
515.074	8.95
515.275	8.96
515.476	8.96
515.677	9.03
515.878	9.1
516.079	9.1
516.28	9.1
516.481	9.12
516.682	9.16
516.882	9.17
517.083	9.2
517.284	9.19
517.485	9.23
517.686	9.24
517.886	9.29
518.087	9.31
518.288	9.35
518.488	9.36
518.689	9.37
518.89	9.45
519.091	9.48
519.291	9.49
519.492	9.51
519.692	9.53
519.893	9.55
520.094	9.58
520.294	9.54
520.495	9.56
520.695	9.61
520.896	9.64
521.096	9.69
521.297	9.7
521.497	9.73
521.698	9.82
521.898	9.86
522.099	9.83
522.299	9.83
522.499	9.85
522.7	9.89
522.9	9.89
523.101	9.86
523.301	9.89
523.501	9.97
523.702	10.01
523.902	10.03
524.102	10.03
524.302	10.09
524.503	10.14
524.703	10.16
524.903	10.18
525.103	10.21
525.304	10.22
525.504	10.25
525.704	10.26
525.904	10.28
526.104	10.31
526.304	10.31
526.504	10.34
526.705	10.38
526.905	10.42
527.105	10.43
527.305	10.41
527.505	10.42
527.705	10.42
527.905	10.4
528.105	10.44
528.305	10.5
528.505	10.52
528.705	10.55
528.905	10.56
529.105	10.65
529.304	10.71
529.504	10.73
529.704	10.73
529.904	10.79
530.104	10.81
530.304	10.84
530.503	10.88
530.703	10.92
530.903	10.93
531.103	10.92
531.303	10.98
531.502	10.97
531.702	10.98
531.902	10.94
532.101	10.95
532.301	10.96
532.501	11.04
532.7	11.03
532.9	11.1
533.1	11.11
533.299	11.2
533.499	11.23
533.698	11.3
533.898	11.28
534.097	11.32
534.297	11.36
534.496	11.4
534.696	11.4
534.895	11.43
535.095	11.41
535.294	11.44
535.494	11.47
535.693	11.5
535.892	11.55
536.092	11.6
536.291	11.65
536.491	11.72
536.69	11.78
536.889	11.78
537.088	11.84
537.288	11.88
537.487	11.92
537.686	11.98
537.886	12
538.085	12.08
538.284	12.16
538.483	12.19
538.682	12.26
538.882	12.29
539.081	12.29
539.28	12.34
539.479	12.37
539.678	12.43
539.877	12.48
540.076	12.49
540.275	12.57
540.474	12.59
540.673	12.63
540.872	12.68
541.071	12.71
541.27	12.72
541.469	12.76
541.668	12.79
541.867	12.9
542.066	12.96
542.265	12.98
542.464	13.05
542.663	13.17
542.862	13.23
543.06	13.25
543.259	13.28
543.458	13.3
543.657	13.36
543.856	13.4
544.054	13.44
544.253	13.51
544.452	13.55
544.651	13.62
544.849	13.65
545.048	13.71
545.247	13.74
545.445	13.76
545.644	13.81
545.843	13.91
546.041	13.96
546.24	14.08
546.438	14.17
546.637	14.29
546.836	14.4
547.034	14.46
547.233	14.56
547.431	14.66
547.63	14.75
547.828	14.87
548.027	14.92
548.225	14.99
548.423	15.11
548.622	15.19
548.82	15.25
549.019	15.31
549.217	15.38
549.415	15.47
549.614	15.53
549.812	15.61
550.01	15.68
550.209	15.84
550.407	15.94
550.605	16.01
550.803	16.14
551.002	16.23
551.2	16.33
551.398	16.43
551.596	16.46
551.794	16.59
551.993	16.68
552.191	16.78
552.389	16.88
552.587	16.97
552.785	17.06
552.983	17.17
553.181	17.24
553.379	17.34
553.577	17.44
553.775	17.56
553.973	17.72
554.171	17.85
554.369	17.97
554.567	18.1
554.765	18.2
554.963	18.31
555.161	18.45
555.359	18.52
555.557	18.57
555.755	18.72
555.952	18.84
556.15	18.97
556.348	19.07
556.546	19.18
556.744	19.33
556.941	19.52
557.139	19.66
557.337	19.8
557.535	19.94
557.732	20.1
557.93	20.23
558.128	20.34
558.325	20.48
558.523	20.62
558.721	20.74
558.918	20.9
559.116	21.08
559.313	21.24
559.511	21.33
559.708	21.46
559.906	21.58
560.104	21.74
560.301	21.88
560.498	21.96
560.696	22.08
560.893	22.23
561.091	22.36
561.288	22.52
561.486	22.63
561.683	22.78
561.88	22.91
562.078	23.01
562.275	23.16
562.473	23.32
562.67	23.44
562.867	23.58
563.064	23.78
563.262	23.96
563.459	24.12
563.656	24.3
563.853	24.44
564.051	24.55
564.248	24.67
564.445	24.73
564.642	24.81
564.839	25.02
565.036	25.18
565.234	25.32
565.431	25.51
565.628	25.67
565.825	25.82
566.022	25.96
566.219	26.04
566.416	26.17
566.613	26.35
566.81	26.44
567.007	26.53
567.204	26.66
567.401	26.78
567.598	26.91
567.795	26.94
567.991	26.99
568.188	27.11
568.385	27.24
568.582	27.34
568.779	27.47
568.976	27.54
569.172	27.71
569.369	27.8
569.566	27.87
569.763	27.95
569.96	28.02
570.156	28.08
570.353	28.17
570.55	28.28
570.746	28.35
570.943	28.47
571.14	28.57
571.336	28.59
571.533	28.68
571.729	28.77
571.926	28.79
572.123	28.84
572.319	28.88
572.516	28.89
572.712	28.98
572.909	29.06
573.105	29.14
573.302	29.2
573.498	29.28
573.695	29.34
573.891	29.41
574.087	29.48
574.284	29.47
574.48	29.45
574.677	29.47
574.873	29.53
575.069	29.58
575.266	29.62
575.462	29.66
575.658	29.75
575.854	29.82
576.051	29.81
576.247	29.78
576.443	29.84
576.639	29.82
576.835	29.81
577.032	29.76
577.228	29.77
577.424	29.88
577.62	29.97
577.816	29.96
578.012	29.97
578.208	30.02
578.404	30.09
578.6	30.13
578.796	30.09
578.993	30.06
579.189	30.06
579.384	30.06
579.58	30.07
579.776	30.05
579.972	30.01
580.168	29.97
580.364	29.99
580.56	29.99
580.756	30.01
580.952	29.97
581.148	29.98
581.343	30.02
581.539	30.03
581.735	29.97
581.931	29.94
582.127	29.96
582.322	29.99
582.518	30.02
582.714	29.9
582.909	29.94
583.105	29.96
583.301	29.94
583.496	29.88
583.692	29.85
583.888	29.81
584.083	29.87
584.279	29.86
584.474	29.84
584.67	29.87
584.866	29.92
585.061	29.96
585.257	29.99
585.452	29.95
585.648	29.9
585.843	29.92
586.039	29.86
586.234	29.82
586.429	29.81
586.625	29.76
586.82	29.77
587.015	29.78
587.211	29.79
587.406	29.88
587.601	29.92
587.797	29.88
587.992	29.91
588.187	29.94
588.383	29.99
588.578	30.01
588.773	30.05
588.968	30.06
589.163	30.12
589.359	30.08
589.554	30.09
589.749	30.09
589.944	30.13
590.139	30.12
590.334	30.14
590.529	30.3
590.724	30.36
590.919	30.53
591.114	30.59
591.309	30.65
591.504	30.71
591.699	30.76
591.894	30.7
592.089	30.8
592.284	30.74
592.479	30.76
592.674	30.79
592.869	30.85
593.064	30.86
593.259	30.92
593.454	30.95
593.648	30.98
593.843	31.09
594.038	31.17
594.233	31.27
594.428	31.45
594.622	31.52
594.817	31.67
595.012	31.83
595.206	31.88
595.401	31.9
595.596	32
595.79	32.1
595.985	32.21
596.18	32.31
596.374	32.36
596.569	32.51
596.763	32.7
596.958	32.73
597.153	32.72
597.347	32.84
597.542	32.9
597.736	33.07
597.931	33.1
598.125	33.21
598.319	33.35
598.514	33.48
598.708	33.54
598.903	33.63
599.097	33.64
599.291	33.74
599.486	33.79
599.68	33.81
599.874	33.93
600.069	33.97
600.263	33.98
600.457	34.06
600.651	34.14
600.846	34.12
601.04	34.18
601.234	34.15
601.428	34.19
601.622	34.28
601.817	34.26
602.011	34.29
602.205	34.41
602.399	34.48
602.593	34.54
602.787	34.55
602.981	34.61
603.175	34.64
603.369	34.66
603.563	34.59
603.757	34.56
603.951	34.54
604.145	34.51
604.339	34.53
604.533	34.51
604.727	34.5
604.921	34.47
605.115	34.44
605.309	34.44
605.502	34.53
605.696	34.41
605.89	34.41
606.084	34.35
606.278	34.32
606.471	34.32
606.665	34.29
606.859	34.2
607.053	34.17
607.246	34.14
607.44	34.03
607.634	33.97
607.827	33.85
608.021	33.75
608.214	33.61
608.408	33.58
608.602	33.47
608.795	33.42
608.989	33.35
609.182	33.39
609.376	33.28
609.569	33.21
609.763	33.11
609.956	33.03
610.15	32.99
610.343	32.92
610.537	32.82
610.73	32.76
610.923	32.68
611.117	32.52
611.31	32.46
611.504	32.39
611.697	32.32
611.89	32.19
612.083	32.08
612.277	32.02
612.47	31.91
612.663	31.8
612.856	31.63
613.05	31.47
613.243	31.34
613.436	31.24
613.629	31.22
613.822	31.15
614.015	31.05
614.209	31.04
614.402	31
614.595	30.91
614.788	30.85
614.981	30.69
615.174	30.71
615.367	30.62
615.56	30.47
615.753	30.35
615.946	30.29
616.139	30.25
616.332	30.15
616.525	30.05
616.718	29.95
616.911	29.96
617.103	29.93
617.296	29.91
617.489	29.85
617.682	29.84
617.875	29.7
618.067	29.63
618.26	29.56
618.453	29.46
618.646	29.36
618.838	29.26
619.031	29.17
619.224	29.18
619.417	29.2
619.609	29.15
619.802	29.12
619.994	29.11
620.187	29.11
620.38	29.12
620.572	29.05
620.765	28.99
620.957	28.9
621.15	28.86
621.342	28.8
621.535	28.73
621.727	28.62
621.92	28.64
622.112	28.63
622.305	28.59
622.497	28.56
622.69	28.57
622.882	28.51
623.074	28.5
623.267	28.46
623.459	28.44
623.651	28.51
623.844	28.49
624.036	28.49
624.228	28.47
624.42	28.42
624.613	28.34
624.805	28.31
624.997	28.21
625.189	28.2
625.381	28.08
625.574	28.06
625.766	28.1
625.958	28.13
626.15	28.12
626.342	28.12
626.534	28.07
626.726	28.12
626.918	28.13
627.11	28.06
627.302	27.99
627.494	27.9
627.686	27.78
627.878	27.72
628.07	27.64
628.262	27.55
628.454	27.53
628.646	27.49
628.838	27.44
629.029	27.4
629.221	27.38
629.413	27.29
629.605	27.23
629.797	27.18
629.989	27.13
630.18	27.08
630.372	27.03
630.564	27.02
630.755	27.02
630.947	26.94
631.139	26.82
631.33	26.78
631.522	26.73
631.714	26.76
631.905	26.67
632.097	26.66
632.289	26.64
632.48	26.69
632.672	26.62
632.863	26.59
633.055	26.52
633.246	26.53
633.438	26.49
633.629	26.47
633.821	26.39
634.012	26.4
634.203	26.44
634.395	26.43
634.586	26.38
634.777	26.35
634.969	26.34
635.16	26.35
635.351	26.33
635.543	26.3
635.734	26.25
635.925	26.28
636.117	26.25
636.308	26.24
636.499	26.2
636.69	26.29
636.881	26.29
637.073	26.32
637.264	26.26
637.455	26.27
637.646	26.26
637.837	26.29
638.028	26.19
638.219	26.17
638.41	26.14
638.601	26.13
638.792	26.08
638.983	26.02
639.174	25.98
639.365	25.96
639.556	25.87
639.747	25.87
639.938	25.91
640.129	25.93
640.32	25.91
640.511	25.85
640.701	25.82
640.892	25.86
641.083	25.85
641.274	25.79
641.465	25.72
641.655	25.74
641.846	25.71
642.037	25.68
642.228	25.63
642.418	25.55
642.609	25.42
642.8	25.39
642.99	25.39
643.181	25.45
643.372	25.38
643.562	25.38
643.753	25.38
643.943	25.41
644.134	25.4
644.324	25.33
644.515	25.23
644.705	25.25
644.896	25.17
645.086	25.04
645.277	25.06
645.467	25.04
645.658	25.03
645.848	25.05
646.038	24.99
646.229	24.96
646.419	25
646.61	24.91
646.8	24.83
646.99	24.81
647.18	24.74
647.371	24.69
647.561	24.65
647.751	24.53
647.941	24.51
648.132	24.46
648.322	24.44
648.512	24.43
648.702	24.43
648.892	24.43
649.082	24.44
649.272	24.38
649.462	24.35
649.653	24.3
649.843	24.24
650.033	24.22
650.223	24.15
650.413	24.18
650.603	24.14
650.793	24.07
650.983	24.01
651.172	23.95
651.362	23.85
651.552	23.84
651.742	23.71
651.932	23.63
652.122	23.61
652.312	23.47
652.502	23.36
652.691	23.29
652.881	23.2
653.071	23.11
653.261	23.04
653.45	22.95
653.64	22.93
653.83	22.83
654.019	22.68
654.209	22.5
654.399	22.35
654.588	22.11
654.778	21.87
654.968	21.67
655.157	21.46
655.347	21.3
655.536	21.04
655.726	20.88
655.915	20.73
656.105	20.66
656.294	20.52
656.484	20.38
656.673	20.23
656.863	20.11
657.052	19.83
657.241	19.67
657.431	19.37
657.62	19.1
657.809	18.84
657.999	18.59
658.188	18.32
658.377	18.2
658.567	17.93
658.756	17.71
658.945	17.44
659.134	17.15
659.324	16.93
659.513	16.66
659.702	16.35
659.891	16.17
660.08	15.98
660.269	15.78
660.458	15.61
660.648	15.37
660.837	15.21
661.026	15.04
661.215	14.76
661.404	14.52
661.593	14.31
661.782	14.12
661.971	13.88
662.16	13.64
662.349	13.43
662.538	13.24
662.726	13.03
662.915	12.86
663.104	12.58
663.293	12.35
663.482	12.17
663.671	11.99
663.86	11.82
664.048	11.67
664.237	11.47
664.426	11.42
664.615	11.31
664.803	11.15
664.992	11
665.181	10.88
665.369	10.73
665.558	10.63
665.747	10.57
665.935	10.52
666.124	10.46
666.312	10.33
666.501	10.22
666.69	10.11
666.878	9.95
667.067	9.84
667.255	9.71
667.444	9.64
667.632	9.6
667.82	9.5
668.009	9.45
668.197	9.41
668.386	9.33
668.574	9.28
668.762	9.21
668.951	9.2
669.139	9.2
669.327	9.21
669.516	9.23
669.704	9.21
669.892	9.2
670.08	9.15
670.269	9.15
670.457	9.1
670.645	9.1
670.833	9.12
671.021	9.08
671.21	9.13
671.398	9.14
671.586	9.15
671.774	9.17
671.962	9.14
672.15	9.13
672.338	9.17
672.526	9.2
672.714	9.27
672.902	9.25
673.09	9.31
673.278	9.41
673.466	9.5
673.654	9.57
673.842	9.62
674.03	9.68
674.218	9.74
674.405	9.82
674.593	9.83
674.781	9.84
674.969	9.88
675.157	9.89
675.344	10.02
675.532	10.1
675.72	10.18
675.908	10.27
676.095	10.47
676.283	10.44
676.471	10.53
676.658	10.59
676.846	10.73
677.033	10.79
677.221	10.94
677.409	10.99
677.596	11.29
677.784	11.48
677.971	11.59
678.159	11.67
678.346	11.82
678.534	11.98
678.721	12.1
678.909	12.18
679.096	12.26
679.283	12.38
679.471	12.58
679.658	12.76
679.846	12.8
680.033	12.99
680.22	13.11
680.408	13.31
680.595	13.46
680.782	13.58
680.969	13.68
681.157	13.86
681.344	13.99
681.531	14.18
681.718	14.32
681.905	14.51
682.093	14.77
682.28	15.13
682.467	15.37
682.654	15.54
682.841	15.81
683.028	16.12
683.215	16.41
683.402	16.59
683.589	16.75
683.776	17.06
683.963	17.4
684.15	17.71
684.337	18
684.524	18.34
684.711	18.7
684.898	19.12
685.085	19.46
685.271	19.89
685.458	20.27
685.645	20.67
685.832	21.09
686.019	21.54
686.205	21.89
686.392	22.38
686.579	22.76
686.766	23.25
686.952	23.81
687.139	24.23
687.326	24.78
687.512	25.34
687.699	25.82
687.886	26.35
688.072	26.98
688.259	27.44
688.445	28.05
688.632	28.68
688.818	29.24
689.005	29.9
689.191	30.62
689.378	31.1
689.564	31.7
689.751	32.52
689.937	33.17
690.124	33.92
690.31	34.61
690.496	35.32
690.683	36.14
690.869	36.97
691.055	37.66
691.242	38.29
691.428	39.11
691.614	39.91
691.8	40.65
691.987	41.41
692.173	42.18
692.359	42.85
692.545	43.67
692.731	44.42
692.918	45.13
693.104	45.81
693.29	46.62
693.476	47.27
693.662	48.05
693.848	48.74
694.034	49.42
694.22	50.11
694.406	50.97
694.592	51.5
694.778	52.23
694.964	52.93
695.15	53.6
695.336	54.4
695.522	55.2
695.708	55.84
695.894	56.74
696.08	57.47
696.265	58.17
696.451	58.92
696.637	59.36
696.823	59.91
697.009	60.55
697.194	61.11
697.38	61.62
697.566	62.19
697.751	62.75
697.937	63.37
698.123	64.06
698.308	64.6
698.494	65.14
698.68	65.88
698.865	66.52
699.051	67.1
699.236	67.9
699.422	68.33
699.607	68.77
699.793	69.35
699.978	69.65
700.164	70.19
700.349	70.65
700.535	70.83
700.72	71.26
700.906	71.62
701.091	71.98
701.276	72.53
701.462	72.92
701.647	73.27
701.832	73.92
702.018	74.24
702.203	74.78
702.388	75.03
702.573	75.51
702.759	75.76
702.944	76.23
703.129	76.44
703.314	77.07
703.499	77.46
703.684	78.07
703.87	78.46
704.055	78.88
704.24	79.22
704.425	79.66
704.61	79.82
704.795	80.29
704.98	80.51
705.165	80.7
705.35	80.94
705.535	81.38
705.72	81.5
705.905	81.54
706.09	81.65
706.275	81.95
706.459	82.35
706.644	82.64
706.829	82.77
707.014	83
707.199	83.38
707.384	83.66
707.568	83.84
707.753	84.02
707.938	84.26
708.123	84.31
708.307	84.74
708.492	84.9
708.677	85.17
708.861	85.4
709.046	85.34
709.231	85.49
709.415	85.78
709.6	85.59
709.784	85.79
709.969	85.9
710.153	86.28
710.338	86.39
710.522	86.28
710.707	86.15
710.891	86.66
711.076	86.75
711.26	86.95
711.445	86.57
711.629	86.86
711.813	87.03
711.998	87.22
712.182	87.35
712.366	87.78
712.551	87.88
712.735	87.95
712.919	88.06
713.103	88.49
713.288	88.93
713.472	88.85
713.656	88.47
713.84	88.38
714.024	88.75
714.208	88.72
714.393	88.86
714.577	88.71
714.761	89.13
714.945	89.45
715.129	89.73
715.313	89.93
715.497	90.23
715.681	90.3
715.865	90.45
716.049	90.34
716.233	90.78
716.417	90.85
716.601	91.03
716.785	91.03
716.968	90.87
717.152	90.97
717.336	90.79
717.52	90.59
717.704	90.69
717.888	90.66
718.071	90.65
718.255	90.8
718.439	90.67
718.622	91.01
718.806	90.95
718.99	91.05
719.174	91.08
719.357	91.41
719.541	91.66
719.724	92.1
719.908	91.81
720.092	91.86
720.275	91.89
720.459	92.08
720.642	92.07
720.826	92.01
721.009	92.16
721.193	92.61
721.376	92.82
721.559	92.68
721.743	92.72
721.926	92.32
722.11	92.56
722.293	92.04
722.476	91.91
722.66	92.04
722.843	92.44
723.026	92.64
723.21	93.17
723.393	93.2
723.576	93.31
723.759	93.58
723.942	93.75
724.126	93.65
724.309	93.5
724.492	93.7
724.675	93.63
724.858	94.25
725.041	94.47
725.224	94.55
725.407	94.2
725.59	94.32
725.774	94.13
725.957	94.22
726.14	93.83
726.322	93.42
726.505	93.53
726.688	94.04
726.871	94.22
727.054	94.34
727.237	94.5
727.42	95.09
727.603	95.52
727.786	95.74
727.968	95.74
728.151	95.96
728.334	96
728.517	96.03
728.699	95.93
728.882	96.21
729.065	95.93
729.248	95.8
729.43	95.59
729.613	95.85
729.796	95.73
729.978	96.02
730.161	96.08
730.343	96.27
730.526	96.61
730.708	96.72
730.891	96.67
731.073	96.93
731.256	96.93
731.438	97.29
731.621	97.63
731.803	98.03
731.986	98.05
732.168	97.92
732.35	98.34
732.533	98.4
732.715	98.26
732.898	98.01
733.08	97.93
733.262	97.89
733.444	98.36
733.627	98.21
733.809	98.14
733.991	98.02
734.173	97.97
734.355	98.13
734.538	98.26
734.72	98.69
734.902	98.45
735.084	98.63
735.266	98.36
735.448	98.59
735.63	98.29
735.812	98.56
735.994	97.93
736.176	98.37
736.358	98.61
736.54	98.92
736.722	99.05
736.904	99.74
737.086	99.74
737.268	100.03
737.45	100.17
737.632	99.49
737.814	99.44
737.995	99.45
738.177	99.13
738.359	99.19
738.541	99.01
738.723	99.31
738.904	99.56
739.086	99.74
739.268	100.17
739.449	100.12
739.631	100.5
739.813	100.38
739.994	100.29
740.176	100.85
740.358	100.58
740.539	100.35
740.721	100.38
740.902	99.69
741.084	100.05
741.265	99.74
741.447	99.26
741.628	99.35
741.81	99.47
741.991	99.6
742.172	99.76
742.354	100.26
742.535	100.44
742.717	100.92
742.898	101.65
743.079	101.43
743.261	101.42
743.442	101.55
743.623	101.55
743.804	101.79
743.986	101.28
744.167	100.82
744.348	100.65
744.529	100.24
744.71	100.03
744.891	99.74
745.073	99.31
745.254	99.63
745.435	99.27
745.616	100
745.797	99.74
745.978	100.41
746.159	100.04
746.34	99.93
746.521	100.08
746.702	100.08
746.883	99.57
747.064	99.77
747.245	100.47
747.426	100.87
747.606	100.61
747.787	100.71
747.968	100.94
748.149	100.38
748.33	101.11
748.51	100.05
748.691	100.12
748.872	100.19
749.053	99.62
749.233	99.05
749.414	99.76
749.595	99.25
749.775	99.55
749.956	98.44
750.137	98.44
750.317	98.62
750.498	99.28
750.678	99.27
750.859	99.43
751.04	98.23
751.22	98.16
751.4	98.52
751.581	98.49
751.761	98.89
751.942	98.67
752.122	98.41
752.303	98.83
752.483	100.08
752.663	100.51
752.844	100.31
753.024	99.72
753.204	99.42
753.385	99.33
753.565	98.64
753.745	98.41
753.925	97.76
754.106	97.55
754.286	97.77
754.466	97.86
754.646	98.18
754.826	99.26
755.006	98.36
755.187	98.41
755.367	98.78
755.547	98.23
755.727	97.99
755.907	98.06
756.087	98.13
756.267	98.55
756.447	98.23
756.627	98.52
756.807	98.55
756.987	99.61
757.167	99.24
757.346	98.44
757.526	99.17
757.706	99.43
757.886	98.8
758.066	98.66
758.246	97.79
758.425	97.77
758.605	98.26
758.785	97.4
758.965	96.25
759.144	96.52
759.324	97.23
759.504	97.09
759.683	96.32
759.863	96.46
760.043	96.69
760.222	97.65
760.402	98.2
760.581	96.68
760.761	96.42
760.94	96.46
761.12	96.43
761.299	95.51
761.479	95.84
761.658	94.8
761.838	95.93
762.017	96.22
762.197	97.22
762.376	96.95
762.555	97.94
762.735	97.06
762.914	97.02
763.093	96.48
763.273	96.24
763.452	96.14
763.631	95.24
763.81	95.04
763.99	95.4
764.169	95.36
764.348	95.94
764.527	96
764.706	95.14
764.885	95.68
765.064	95.78
765.243	95.18
765.423	95.72
765.602	94.87
765.781	94.71
765.96	95.45
766.139	95.47
766.318	95.18
766.497	95.9
766.676	96.11
766.854	96.44
767.033	96.24
767.212	95.99
767.391	95.76
767.57	95.63
767.749	95.78
767.928	94.9
768.106	94.8
768.285	95.28
768.464	95.6
768.643	95.88
768.821	95.85
769	95.01
769.179	94.02
769.357	94.36
769.536	93.42
769.715	92.92
769.893	92.1
770.072	91.94
770.25	92.61
770.429	94.66
770.607	94.11
770.786	94.63
770.964	93.29
771.143	93.78
771.321	93.45
771.5	92.98
771.678	92
771.857	91.75
772.035	91.14
772.213	92.48
772.392	93.21
772.57	93.67
772.748	92.95
772.927	92.57
773.105	93.33
773.283	93
773.461	92.23
773.64	90.87
773.818	90.21
773.996	90.82
774.174	91.17
774.352	91.18
774.531	90.92
774.709	91.86
774.887	92.74
775.065	92.28
775.243	93.46
775.421	93.72
775.599	92.42
775.777	93.49
775.955	93.11
776.133	92.91
776.311	92.76
776.489	90.71
776.667	89.51
776.844	90.81
777.022	90.65
777.2	89.41
777.378	89.08
777.556	90.16
777.734	90.65
777.911	92.61
778.089	91
778.267	90.41
778.445	90.85
778.622	90.34
778.8	89.73
778.978	90.25
779.155	87.78
779.333	87.23
779.511	88.47
779.688	86.97
779.866	86.79
780.043	86.51
780.221	85.83
780.398	86.9
780.576	87.22
780.753	84.92
780.931	86.45
781.108	87.48
781.286	87.87
781.463	88.99
781.64	88.69
781.818	88.76
781.995	89.92
782.172	89.91
782.35	88.14
782.527	88.43
782.704	86.59
782.882	87.31
783.059	86.5
783.236	85.85
783.413	86.22
783.59	86.65
783.768	85.69
783.945	86.63
784.122	86.56
784.299	86.58
784.476	86.53
784.653	85.82
784.83	85.58
785.007	86.01
785.184	84.99
785.361	84.13
785.538	85.9
785.715	85.87
785.892	85.17
786.069	85.41
786.246	84.28
786.423	86.34
786.6	86.26
786.776	85.79
786.953	87.49
787.13	89.25
787.307	90.2
787.484	91.27
787.66	88.21
787.837	87.96
788.014	87.64
788.191	86.27
788.367	83.36
788.544	82.23
788.721	81.8
788.897	84.85
789.074	84.31
789.25	85.43
789.427	84.3
789.603	88.12
789.78	89.52
789.956	88.06
790.133	85.85
790.309	84.72
790.486	84.79
790.662	85.27
790.839	84.96
791.015	83.45
791.192	84.47
791.368	85.99
791.544	88.11
791.721	84.43
791.897	83.75
792.073	82.05
792.249	84.02
792.426	84.57
792.602	82.88
792.778	81.01
792.954	82.88
793.13	85.76
793.307	84.32
793.483	82.41
793.659	83.58
793.835	82.47
794.011	83.09
794.187	79.99
794.363	77.25
794.539	78.2
794.715	76.5
794.891	72.74
795.067	73.35
795.243	73.11
795.419	75.85
795.595	74.21
795.771	76.5
795.947	76.35
796.122	78.47
796.298	78.77
796.474	79.93
796.65	78.34
796.826	82.15
797.001	79.29
797.177	78.29
797.353	78.01
797.529	79.43
797.704	79.07
797.88	77.64
798.056	76.69
798.231	74.89
798.407	78.86
798.582	79.18
798.758	77.24
798.934	75.36
799.109	76.09
799.285	76.88
799.46	80.22
799.636	78.06
799.811	76.4
799.986	76.12
800.162	75.56
800.337	77.69
800.513	76.3
800.688	78.3
800.863	79.53
801.039	79.42
801.214	78.3
801.389	77.1
801.565	77.84
801.74	76.37
801.915	72.2
802.09	69.88
802.265	72.31
802.441	73.85
802.616	78.17
802.791	79.04
802.966	81.02
803.141	80.69
803.316	81.45
803.491	77.68
803.666	77.34
803.841	75.79
804.016	75.36
804.191	73.65
804.366	73.13
804.541	74.33
804.716	70.97
804.891	71.9
805.066	73.87
805.241	70.96
805.416	68.78
805.591	73.28
805.765	73.86
805.94	77.44
806.115	75.12
806.29	75.71
806.464	75.82
806.639	78.72
806.814	71.85
806.989	71.6
807.163	71.24
807.338	69.32
807.512	64.41
807.687	63.69
807.862	63.22
808.036	63.78
808.211	62.67
808.385	61.32
808.56	61.68
808.734	60.5
808.909	62.35
809.083	58.25
809.258	64.06
809.432	59.86
809.606	62.01
809.781	62.3
809.955	63.72
810.13	61.96
810.304	65.3
810.478	63.22
810.652	68.94
810.827	68.41
811.001	69.06
811.175	65.08
811.349	65.58
811.524	65.9
811.698	61.35
811.872	58.41
812.046	57.25
812.22	55.12
812.394	61.87
812.568	61
812.742	60.81
812.916	67.28
813.09	66.66
813.264	66.39
813.438	71.51
813.612	66.09
813.786	68.95
813.96	71
814.134	69.03
814.308	65.61
814.482	67.89
814.656	68.94
814.83	71.43
815.003	74.61
815.177	72.86
815.351	69.38
815.525	66.89
815.698	66.77
815.872	64.62
816.046	62.08
816.219	55.2
816.393	57.85
816.567	59.4
816.74	65.8
816.914	63.79
817.088	61.54
817.261	63.57
817.435	61.79
817.608	55.74
817.782	55.12
817.955	54.73
818.129	54.09
818.302	58.83
818.475	65.76
818.649	64.05
818.822	66.04
818.996	67.11
819.169	66.65
819.342	65.52
819.516	66.76
819.689	58.87
819.862	59.3
820.035	60.94
820.209	57.06
820.382	57.05
820.555	57.69
820.728	48.08
820.901	53.74
821.075	58.69
821.248	54.43
821.421	52.2
821.594	46.43
821.767	49.34
821.94	45.52
822.113	46.41
822.286	47.62
822.459	57.12
822.632	61.75
822.805	69.56
822.978	65.71
823.151	71.12
823.324	60.05
823.496	44.12
823.669	35.9
823.842	34.67
824.015	30.85
824.188	31.93
824.361	35.42
824.533	42.26
824.706	62.21
824.879	64.42
825.051	69.41
825.224	65.06
825.397	61.14
825.569	62.54
825.742	57.12
825.915	54.11
826.087	46.82
826.26	46.01
826.432	46.33
826.605	45.1
826.777	41.13
826.95	41.35
827.122	37.73
827.295	43.24
827.467	35.63
827.64	33.75
827.812	34.49
827.984	37.65
828.157	42.54
828.329	46.18
828.501	47.54
828.674	49.2
828.846	55.73
829.018	48.09
829.19	41.71
829.363	40.7
829.535	33.89
829.707	29.42
829.879	29.03
830.051	18.28
830.223	16.33
830.395	14.47
830.568	15.7
830.74	25.21
830.912	28.09
831.084	26.95
831.256	23.53
831.428	27.76
831.6	30.59
831.772	22.17
831.943	16.48
832.115	22.07
832.287	22.82
832.459	34.76
832.631	44.25
832.803	48.85
832.975	58.95
833.146	57.57
833.318	54.73
833.49	58.97
833.662	58.11
833.833	54.71
834.005	52.23
834.177	54.08
834.348	53.27
834.52	54.84
834.692	53.42
834.863	51.36
835.035	45.01
835.206	42.2
835.378	38.46
835.549	38.89
835.721	42.84
835.892	38.16
836.064	45.48
836.235	56.64
836.407	53.05
836.578	51.61
836.749	53.87
836.921	50.26
837.092	56.26
837.264	45.77
837.435	24.14
837.606	35.02
837.777	38.05
837.949	32.35
838.12	21.16
838.291	26.49
838.462	32.61
838.633	38.9
838.805	38.11
838.976	34.58
839.147	34.76
839.318	32.98
839.489	26.59
839.66	23.51
839.831	17.97
840.002	16.57
840.173	16.95
840.344	19.26
840.515	38.63
840.686	39.26
840.857	32.99
841.028	45.74
841.199	40.24
841.369	38.8
841.54	41.79
841.711	34.6
841.882	27.33
842.053	15.03
842.223	6.28
842.394	8.53
842.565	25.94
842.736	24.19
842.906	23.19
843.077	34.73
843.248	52.22
843.418	43.84
843.589	54.92
843.759	38.68
843.93	41.95
844.101	39.18
844.271	45.08
844.442	35.6
844.612	35.51
844.783	15.85
844.953	23.78
845.123	24.22
845.294	34.59
845.464	30.11
845.635	43.8
845.805	51.34
845.975	53.82
846.146	38.92
846.316	36.52
846.486	38.46
846.656	39.13
846.827	28.49
846.997	34.71
847.167	49.15
847.337	73.51
847.507	71.32
847.677	67.23
847.848	78
848.018	76.06
848.188	64.11
848.358	80.47
848.528	59.28
848.698	40.64
848.868	21.64
849.038	17.2
849.208	25.4
849.378	20.76
849.548	1.28
849.718	-22.57
849.887	-24.88
850.057	-4.79
850.227	-9.47
850.397	-21.01
850.567	-12.5
850.737	-8.17
850.906	12.3
851.076	21.08
851.246	27.71
851.415	29.47
851.585	36.94
851.755	42.09
851.924	41.17
852.094	40.2
852.264	43.49
852.433	49.28
852.603	61.27
852.772	56.32
852.942	36.41
853.111	37.99
853.281	36.58
853.45	29.61
853.62	16.08
853.789	12.8
853.959	4.88
854.128	-0.94
854.297	3.42
854.467	0.37
854.636	8.11
854.805	22.64
854.975	20.29
855.144	26.08
855.313	30.85
855.482	18.42
855.652	18.37
855.821	12.22
855.99	1.39
856.159	-6.09
856.328	-0.74
856.497	6.66
856.667	22.11
856.836	24.7
857.005	19.18
857.174	32.27
857.343	21
857.512	10.3
857.681	10.44
857.85	2.24
858.019	5.31
858.188	17.21
858.356	-15.77
858.525	1.7
858.694	23.3
858.863	18.89
859.032	14.48
859.201	-8.92
859.369	-7.51
859.538	-16.17
859.707	-5.38
859.876	-0.84
860.044	-8.56
860.213	-26.38
860.382	4.26
860.55	38.07
860.719	73.48
860.888	62.74
861.056	65.8
861.225	86.59
861.393	96.35
861.562	72.64
861.73	32.19
861.899	-1.11
862.067	9.15
862.236	7.16
862.404	4.91
862.572	-0.24
862.741	1.48
862.909	5.33
863.078	-2.73
863.246	-23.27
863.414	-26.85
863.582	-45.71
863.751	-23.88
863.919	-5.57
864.087	-7.54
864.255	4.07
864.424	17.69
864.592	25.88
864.76	55.37
864.928	50.6
865.096	44.38
865.264	63.25
865.432	53.81
865.6	41.34
865.768	26.98
865.936	3.18
866.104	-16.75
866.272	-22.85
866.44	-81.46
866.608	-69.24
866.776	0.96
866.944	5.24
867.112	-13.08
867.28	-19.67
867.448	13.97
867.615	-0.47
867.783	-21.66
867.951	-60.68
868.119	-23.95
868.286	-18.81
868.454	-5.6
868.622	-11.27
868.789	27.75
868.957	49.54
869.125	25.42
869.292	15.88
869.46	9.38
869.627	5.37
869.795	-34.11
869.963	-55.26
870.13	-54.56
870.298	-35.21
870.465	-64.43
870.632	-68.73
870.8	-36.4
870.967	-6.56
871.135	2.14
871.302	-8.02
871.469	-26.12
871.637	-21.18
871.804	-13.11
871.971	-23.1
872.139	-23.81
872.306	-42.16
872.473	-52.82
872.64	-29.59
872.807	-27.45
872.975	0.63
873.142	-12.6
873.309	-21.47
873.476	34.99
873.643	68.8
873.81	24.6
873.977	-7.97
874.144	-68.19
874.311	-81.68
874.478	-78.4
874.645	-63.55
874.812	-37.93
874.979	-64.37
875.146	-91.1
875.313	-138.09
875.48	-54.16
875.647	-91.78
875.813	-142.64
875.98	-143.4
876.147	-20
876.314	-33.86
876.481	-30.08
876.647	-6.3
876.814	18.13
876.981	17.25
877.147	2.97
877.314	-11.56
877.481	16.85
877.647	28.7
877.814	15.48
877.98	12.3
878.147	44.96
878.314	57.69
878.48	54.75
878.647	56.28
878.813	68.38
878.979	54.74
879.146	27.92
879.312	26.39
879.479	23.92
879.645	-7.2
879.811	-18.48
879.978	-42.3
880.144	-30.23
880.31	-42.67
880.477	-77.01
880.643	-159.3
880.809	-19.25
880.975	-64.64
881.142	-22.91
881.308	-45.79
881.474	-26.35
881.64	-63.67
881.806	-28.12
881.972	-38.09
882.138	-27.26
882.304	-104.93
882.47	-65.13
882.636	-119.54
882.802	-174.47
882.968	-273.16
883.134	-491.72
883.3	-209.72
883.466	-136.47
883.632	-137.91
883.798	-104.88
883.964	-71.6
884.129	-59.05
884.295	-32.88
884.461	-87.68
884.627	-108.16
884.793	-53.78
884.958	-43.21
885.124	-116.43
885.29	-72.23
885.455	-65.77
885.621	-46
885.787	-29.59
885.952	-30.05
886.118	-23.86
886.283	26.51
886.449	0.73
886.614	16.41
886.78	45.89
886.945	22.94
887.111	34.11
887.276	13.11
887.442	-2.02
887.607	16.45
887.773	-3.26
887.938	-34.24
888.103	8.25
888.269	-6.78
888.434	-0.66
888.599	4.51
888.764	12.67
888.93	28.44
889.095	1.56
889.26	11.61
889.425	48.78
889.59	31.69
889.756	29.29
889.921	30.16
890.086	21.04
890.251	24.6
890.416	-57.34
890.581	-101.52
890.746	-100.97
890.911	-150.27
891.076	-240.14
891.241	-291.74
891.406	-107.65
891.571	-52.65
891.736	-25.89
891.901	24.17
892.065	37.81
892.23	21.39
892.395	3.09
892.56	-7.16
892.725	-10.7
892.889	-50.54
893.054	-159.74
893.219	-241.84
893.384	-310.4
893.548	-715
893.713	1276.24
893.878	660.87
