Data from Ofra_PS_T2_1A_2GT10_Reflection_3.txt Node
Date: Wed Jul 21 17:54:49 EDT 2021
User: Adam
Spectrometer: FLMT01687
Trigger mode: 0
Integration Time (sec): 1.100000E0
Scans to average: 2
Electric dark correction enabled: true
Nonlinearity correction enabled: false
Boxcar width: 2
XAxis mode: Wavelengths
Number of Pixels in Spectrum: 3648
>>>>>Begin Spectral Data<<<<<
179.494	545.6
179.716	647.53
179.937	608.27
180.158	639.5
180.38	1145
180.601	246.41
180.823	33.5
181.044	-124.17
181.265	67.65
181.486	3.75
181.708	174.36
181.929	1406.12
182.15	-569.01
182.372	113.85
182.593	67.25
182.814	46.64
183.035	68.52
183.257	24.96
183.478	-26.6
183.699	15.74
183.92	-6.82
184.141	0.13
184.363	-25
184.584	9.34
184.805	5.65
185.026	42.6
185.247	40.11
185.468	23.24
185.689	13.58
185.91	30.38
186.132	11.67
186.353	22.06
186.574	66.52
186.795	66.03
187.016	-14.84
187.237	-27.94
187.458	-62.55
187.679	-92.54
187.9	-98.72
188.121	-78.04
188.342	-69.59
188.563	-12.38
188.784	30.45
189.005	65.63
189.226	154.17
189.447	124.76
189.667	67.48
189.888	-191.63
190.109	-1120.78
190.33	-754.19
190.551	-1363.72
190.772	-272.88
190.993	-217.42
191.214	-170.09
191.434	-81.71
191.655	38.04
191.876	33.75
192.097	-46.5
192.318	-80.33
192.538	-202.93
192.759	-202.57
192.98	-90.13
193.201	-36.48
193.421	-8.93
193.642	28.06
193.863	38.77
194.083	9.04
194.304	6.09
194.525	6.98
194.745	-34.67
194.966	-82.26
195.187	-101.92
195.407	-156.59
195.628	-270.16
195.848	-260.65
196.069	-241.05
196.29	-193.3
196.51	-174.42
196.731	-154.71
196.951	-154.08
197.172	-178.85
197.392	-165.77
197.613	-157.05
197.833	-157.58
198.054	-130.59
198.274	-63.37
198.495	-92.43
198.715	-55.57
198.936	-68.29
199.156	-57.83
199.377	-177.37
199.597	-157.01
199.817	-190.1
200.038	-109.41
200.258	-176.69
200.479	-85.92
200.699	-87.81
200.919	16.37
201.14	-7.85
201.36	-15.42
201.58	34.15
201.801	58.56
202.021	29.87
202.241	24.33
202.461	12.02
202.682	-82.96
202.902	-142.69
203.122	-87.45
203.342	-71.74
203.563	-18.18
203.783	-0.14
204.003	-48.89
204.223	-63.54
204.443	21.16
204.663	-9.67
204.884	3.97
205.104	53.67
205.324	100.21
205.544	54.59
205.764	70.41
205.984	94.02
206.204	76.2
206.424	48.51
206.644	22.57
206.864	23.86
207.084	-43.47
207.304	-7.35
207.525	-75.63
207.745	-1.5
207.964	-3.21
208.184	-65.07
208.404	-123.93
208.624	-130.37
208.844	-131.56
209.064	-449.08
209.284	-455.18
209.504	-152.91
209.724	-8.02
209.944	-21.28
210.164	20.57
210.384	40.01
210.604	14.95
210.823	-32.32
211.043	-24.49
211.263	-29.82
211.483	-23.04
211.703	-68.43
211.922	-38.68
212.142	14.27
212.362	49.85
212.582	-6.76
212.801	5.85
213.021	-20.46
213.241	-27.67
213.461	-64.4
213.68	-57.51
213.9	-42.84
214.12	-18.44
214.339	-93.92
214.559	-77.26
214.779	-18.38
214.998	-8.23
215.218	-51.29
215.438	-26
215.657	-47.87
215.877	-63.37
216.096	-39.82
216.316	-26.95
216.535	-32.73
216.755	-23.81
216.974	-113.06
217.194	-150.08
217.413	-139.82
217.633	-152.51
217.852	-244.53
218.072	-86
218.291	-47.01
218.511	0.48
218.73	-8.64
218.95	-7.74
219.169	-29.47
219.389	-78.19
219.608	-61.21
219.827	-48.16
220.047	-41.88
220.266	-12.56
220.485	-1.91
220.705	-0.36
220.924	-29.94
221.143	22.06
221.363	-8.13
221.582	4.48
221.801	12.4
222.021	38.93
222.24	-58.1
222.459	8.95
222.678	-10.04
222.897	-70.57
223.117	-106.13
223.336	-65.82
223.555	-32.18
223.774	17.22
223.993	25.17
224.213	78.95
224.432	64.41
224.651	52.76
224.87	9.03
225.089	19.66
225.308	0.41
225.527	20.86
225.746	21.85
225.965	17.84
226.184	-14.88
226.404	-5.19
226.623	-22.7
226.842	-18.03
227.061	7.36
227.28	15.95
227.499	11.68
227.718	13.03
227.936	-2.19
228.155	-5.97
228.374	-8.01
228.593	-0.28
228.812	-16.93
229.031	-17.69
229.25	-67.7
229.469	-78.15
229.688	-74.75
229.907	-14.55
230.125	10.45
230.344	30.01
230.563	37.69
230.782	49.18
231.001	-32.58
231.22	-31.42
231.438	-4.6
231.657	3.07
231.876	-23.69
232.095	35.04
232.313	26.92
232.532	11.03
232.751	-33.68
232.969	-17.48
233.188	-106.51
233.407	-23.95
233.625	-27.09
233.844	-42.17
234.063	-38.05
234.281	-20.1
234.5	-26.56
234.719	-16.58
234.937	15.44
235.156	21.78
235.374	28.24
235.593	8.89
235.811	9
236.03	-15.22
236.249	-66.74
236.467	-69.83
236.686	-30.04
236.904	-15.93
237.123	-26.8
237.341	-27.64
237.559	-11.44
237.778	-31.98
237.996	-62.5
238.215	-12.92
238.433	10.29
238.652	-5.15
238.87	-14.95
239.088	5.14
239.307	-21.55
239.525	-27.2
239.743	-53.98
239.962	-40.52
240.18	-63.23
240.398	-83.46
240.617	-95.87
240.835	-44.55
241.053	4.67
241.271	57.99
241.49	35.32
241.708	6.01
241.926	-27.21
242.144	-48.14
242.363	-123.23
242.581	-133.49
242.799	-47.79
243.017	-4.75
243.235	-34.28
243.453	-6.59
243.672	-4.69
243.89	-13.83
244.108	-39.34
244.326	-17.86
244.544	-16.35
244.762	-17.95
244.98	-17.03
245.198	-9.69
245.416	-31.18
245.634	-23.91
245.852	-28.24
246.07	-34.46
246.288	-35.71
246.506	-59.02
246.724	-45.48
246.942	-11.22
247.16	24.59
247.378	31.65
247.596	66.16
247.814	63.12
248.032	13.73
248.25	19.46
248.468	20.86
248.685	21.59
248.903	49.27
249.121	55.01
249.339	11.5
249.557	6.84
249.775	17.42
249.992	-69.96
250.21	-48.89
250.428	-27.68
250.646	-54.79
250.863	-77.15
251.081	-31.58
251.299	-28.92
251.517	-20.99
251.734	1.22
251.952	-14.86
252.17	-3.78
252.387	9.51
252.605	-4.2
252.823	1.07
253.04	16.08
253.258	18.11
253.475	-11.93
253.693	21.54
253.911	26.54
254.128	41.45
254.346	42.51
254.563	20.07
254.781	-9.52
254.998	-57.67
255.216	-58.6
255.433	-49.49
255.651	-7.46
255.868	8.41
256.086	66.49
256.303	28.14
256.521	12.98
256.738	-1.12
256.956	-26.37
257.173	-72.14
257.39	-81.67
257.608	-100.78
257.825	-40.86
258.043	6.8
258.26	12.65
258.477	56.68
258.695	65.21
258.912	7.69
259.129	-1.02
259.346	-30.11
259.564	-69
259.781	-89.33
259.998	-21.8
260.216	-15.76
260.433	21.04
260.65	14.41
260.867	29.72
261.084	-9.49
261.302	-17.39
261.519	-27.18
261.736	-56.91
261.953	-89.78
262.17	-46.71
262.387	-78.91
262.604	-111.12
262.822	-114.02
263.039	-92.52
263.256	-154.46
263.473	-106.15
263.69	-58.12
263.907	-1.03
264.124	6.1
264.341	8.25
264.558	-7.56
264.775	1.86
264.992	-36.95
265.209	-10.93
265.426	16.67
265.643	21.79
265.86	16.06
266.077	27.38
266.294	2.47
266.51	-36.14
266.727	-60.6
266.944	-52.1
267.161	-45.42
267.378	-56.22
267.595	-27.01
267.812	-39.33
268.028	-67.22
268.245	-36.9
268.462	-46.99
268.679	-49.54
268.896	12.15
269.112	25.19
269.329	1.75
269.546	6.4
269.763	-0.57
269.979	-23.87
270.196	-22.61
270.413	-48
270.629	-56.3
270.846	-64.11
271.063	-57.76
271.279	-87.15
271.496	-74.34
271.712	-39.35
271.929	-29.11
272.146	-47.83
272.362	-42.45
272.579	14.31
272.795	23.57
273.012	26.06
273.228	26.79
273.445	6.44
273.661	-45
273.878	-97.51
274.094	-92.97
274.311	-117.14
274.527	-27.7
274.744	-10.97
274.96	-18.24
275.177	-1.6
275.393	20.89
275.609	5.28
275.826	15.62
276.042	28.16
276.259	16.74
276.475	28.34
276.691	35.74
276.908	12.56
277.124	17.56
277.34	11.12
277.557	-8.32
277.773	-22.39
277.989	-20.36
278.205	-31.71
278.422	-12.94
278.638	5.14
278.854	25.07
279.07	19.96
279.286	26.58
279.503	15.05
279.719	-0.61
279.935	-27
280.151	-33.2
280.367	-17.52
280.583	-46.62
280.799	-53.4
281.016	-84.57
281.232	-32.4
281.448	-44.45
281.664	-15.24
281.88	-43.75
282.096	-19.17
282.312	-11.67
282.528	13.64
282.744	33.88
282.96	39.39
283.176	30.06
283.392	15.18
283.608	6.88
283.824	-11.72
284.04	-11.48
284.256	2.31
284.471	-7.08
284.687	-25.58
284.903	-1.64
285.119	30.18
285.335	5.33
285.551	6.96
285.767	-2.61
285.982	-11.07
286.198	-65.67
286.414	-16.11
286.63	0.89
286.846	39.84
287.061	15.77
287.277	47.41
287.493	16.65
287.709	31.7
287.924	11.75
288.14	50
288.356	44.53
288.571	70.52
288.787	44.94
289.003	50.71
289.218	21.95
289.434	-15.31
289.65	-24.19
289.865	-34.17
290.081	-27.63
290.296	-16.03
290.512	-11.71
290.727	-41.87
290.943	-43.15
291.159	-58.97
291.374	-60.51
291.59	-82.04
291.805	-60.08
292.021	-39.72
292.236	-40.34
292.451	-22.04
292.667	-10.01
292.882	6.11
293.098	-3.13
293.313	-18.5
293.529	-38.41
293.744	-48.79
293.959	-65.64
294.175	-56.46
294.39	-13.26
294.605	3.84
294.821	34.94
295.036	42.61
295.251	49.63
295.467	8.63
295.682	-20.54
295.897	-96.4
296.112	-115.65
296.328	-116.02
296.543	-110.48
296.758	-98.83
296.973	-34.92
297.188	11.32
297.404	-16.45
297.619	-43.69
297.834	-43.83
298.049	-69.08
298.264	-98.73
298.479	-28.69
298.694	-18.77
298.909	6.56
299.125	15.76
299.34	21.9
299.555	-16.94
299.77	4.52
299.985	-48.1
300.2	-111.07
300.415	-128.65
300.63	-76.17
300.845	-75.89
301.06	-69.82
301.275	-21.68
301.49	-6.5
301.704	-20.22
301.919	-36.84
302.134	-48.47
302.349	-48.91
302.564	-101.18
302.779	-101.1
302.994	-84.48
303.209	-24.26
303.423	23.94
303.638	55.14
303.853	0.26
304.068	-3.27
304.283	-6.39
304.497	-19.32
304.712	-15.88
304.927	0.78
305.142	2.39
305.356	10.74
305.571	5.4
305.786	-21.72
306	-33.68
306.215	-42.97
306.43	-61.33
306.644	-41.95
306.859	13
307.074	14.66
307.288	-2.79
307.503	-35.91
307.717	-43.61
307.932	-54.58
308.147	-63.2
308.361	-48.89
308.576	-38.75
308.79	-98.54
309.005	-89.21
309.219	-58.12
309.434	-61.57
309.648	-42.24
309.863	-0.58
310.077	19.26
310.292	7.99
310.506	5.59
310.72	2.25
310.935	0.54
311.149	-13.5
311.364	3.77
311.578	18.01
311.792	6.99
312.007	9.27
312.221	1.22
312.435	2.12
312.649	-23.74
312.864	-17.37
313.078	-0.15
313.292	59.76
313.507	24.57
313.721	108.82
313.935	59.24
314.149	43.19
314.363	20.75
314.578	20.13
314.792	4.63
315.006	-9.17
315.22	17.32
315.434	16.25
315.648	30.08
315.862	28.32
316.077	35.65
316.291	-2.59
316.505	-2.83
316.719	-15.82
316.933	-17.93
317.147	-15.14
317.361	-56.51
317.575	-92.59
317.789	-142.34
318.003	-218.47
318.217	-182.21
318.431	-71.51
318.645	-10.02
318.859	9.79
319.073	38.38
319.287	24.33
319.5	-3.5
319.714	-51.7
319.928	-83.36
320.142	-111.53
320.356	-53.02
320.57	-15.77
320.784	-4.56
320.997	-26.45
321.211	-12.37
321.425	-80.52
321.639	-128.63
321.853	-66.78
322.066	-45.6
322.28	-55.06
322.494	-34.68
322.707	-3.83
322.921	-22.82
323.135	-19.77
323.349	-6.86
323.562	-24.85
323.776	-42.64
323.989	-43.04
324.203	-54.43
324.417	-52.1
324.63	-70.75
324.844	-63.78
325.057	-63.36
325.271	-33.1
325.485	-7.98
325.698	13.48
325.912	28.27
326.125	15.51
326.339	1.56
326.552	-34.68
326.766	-45.08
326.979	-27.81
327.193	11.91
327.406	9.58
327.619	9.81
327.833	35.19
328.046	-3.96
328.26	-40.32
328.473	-18.94
328.686	-35.08
328.9	-39.96
329.113	-13.94
329.326	-44.62
329.54	-53.97
329.753	-72
329.966	-119.44
330.179	-95.38
330.393	-38.95
330.606	-25.39
330.819	-4.13
331.032	23.42
331.246	24.01
331.459	48.68
331.672	33.22
331.885	25.53
332.098	-6.03
332.311	-27.14
332.525	-107.1
332.738	-85.74
332.951	-43.75
333.164	-17.67
333.377	-6.46
333.59	34.14
333.803	36.09
334.016	26.14
334.229	30.48
334.442	50.19
334.655	61.23
334.868	60.27
335.081	44.96
335.294	27.85
335.507	21.17
335.72	-2.63
335.933	-14.63
336.146	-23.34
336.359	-8.54
336.572	-54.44
336.785	-80.74
336.997	-58.67
337.21	-25
337.423	-44.74
337.636	-23.15
337.849	1.22
338.062	-7.11
338.274	-21.85
338.487	-22.09
338.7	-24.5
338.913	-65.75
339.125	-84.69
339.338	-148.74
339.551	-122.34
339.763	-95.98
339.976	-56.9
340.189	-42.88
340.402	-10.38
340.614	-28.46
340.827	-29.2
341.039	-48.18
341.252	-43.04
341.465	-20.18
341.677	-13.74
341.89	-61.82
342.102	-30.69
342.315	-45.01
342.527	-83.95
342.74	-80.19
342.952	-18.31
343.165	-36.62
343.377	-1.19
343.59	-4.35
343.802	23.51
344.015	21.87
344.227	61.64
344.44	46.07
344.652	36.82
344.864	9.86
345.077	29.57
345.289	18.9
345.502	16.06
345.714	10.29
345.926	20.44
346.139	-2.06
346.351	2.54
346.563	20.31
346.775	30.31
346.988	15.68
347.2	6.22
347.412	-45.49
347.624	-92.43
347.837	-105.63
348.049	-74.33
348.261	-35.2
348.473	-14.47
348.685	-7.84
348.897	-16.36
349.11	-28.38
349.322	-73.94
349.534	-77.74
349.746	-68.25
349.958	-55.08
350.17	-67.1
350.382	-25.22
350.594	-19.19
350.806	-11.55
351.018	-6.61
351.23	-14.86
351.442	-61.13
351.654	-59.91
351.866	-59.56
352.078	-60.92
352.29	-24.49
352.502	-4.92
352.714	6.83
352.926	-6.76
353.138	-0.83
353.35	-17.73
353.561	-16.34
353.773	-34.67
353.985	-14.37
354.197	-22.96
354.409	-9.75
354.621	-8.17
354.832	0.16
355.044	-10.26
355.256	-14.72
355.468	-14.2
355.679	-23.86
355.891	-22.1
356.103	-47.85
356.314	-30.83
356.526	-37.64
356.738	-25.59
356.949	-44.73
357.161	-6.34
357.373	-17.19
357.584	-22.65
357.796	-8.38
358.008	-7.26
358.219	4.1
358.431	14.2
358.642	21.67
358.854	13.72
359.065	10.82
359.277	-19.2
359.488	-43.18
359.7	-55.7
359.911	-78.33
360.123	-66.08
360.334	-72.7
360.546	-79.74
360.757	-78.18
360.969	-42.51
361.18	-35.84
361.391	-1.09
361.603	-11.44
361.814	-0.31
362.025	-14.19
362.237	-10.34
362.448	-11.06
362.659	13.27
362.871	19.12
363.082	20.57
363.293	14.32
363.504	-2.71
363.716	-30.16
363.927	-57.95
364.138	-79.66
364.349	-72.04
364.56	-72.53
364.772	-62.62
364.983	-34.3
365.194	-35.49
365.405	-21.41
365.616	3.82
365.827	10.64
366.038	-19.68
366.25	-13.12
366.461	-43.02
366.672	-28.12
366.883	-7.59
367.094	10.28
367.305	-0.81
367.516	0.96
367.727	-34.31
367.938	-56.93
368.149	-60.07
368.36	-34.17
368.571	-32.18
368.781	-37.88
368.992	-50.64
369.203	-68.68
369.414	-104.73
369.625	-105.2
369.836	-87.73
370.047	-108.79
370.258	-86.58
370.468	-84.67
370.679	-95.71
370.89	-88
371.101	-48
371.312	-47.64
371.522	-28.58
371.733	-22.7
371.944	-13.62
372.155	-14.76
372.365	-17.82
372.576	-29.93
372.787	-33.44
372.997	-62.73
373.208	-57.81
373.419	-31.8
373.629	-53.31
373.84	-48.05
374.05	-48.11
374.261	-52.68
374.472	-78.5
374.682	-15.28
374.893	-6.91
375.103	19.87
375.314	21.62
375.524	20.07
375.735	16.78
375.945	11.35
376.156	-11.99
376.366	-13.03
376.577	-12.41
376.787	-28.2
376.997	-16.32
377.208	-13.13
377.418	-25.5
377.629	-6.58
377.839	-4.27
378.049	-12.71
378.26	4.58
378.47	17.38
378.68	0.38
378.89	-7.65
379.101	-14.45
379.311	-45.26
379.521	-74.77
379.732	-80.27
379.942	-66.51
380.152	-77.95
380.362	-44.49
380.572	-40.98
380.783	-17.78
380.993	-6.27
381.203	12.76
381.413	25.33
381.623	33.39
381.833	28.84
382.043	9.64
382.253	-8.94
382.463	-16.5
382.674	-32.81
382.884	-56.39
383.094	-50.33
383.304	-41.04
383.514	-27.59
383.724	-14.37
383.934	-11.62
384.144	-16.47
384.353	-26.18
384.563	-31.93
384.773	-24.48
384.983	-35.35
385.193	-19.6
385.403	-9.12
385.613	-16.52
385.823	-31.25
386.033	-14.4
386.242	-24.84
386.452	-27.7
386.662	-29.66
386.872	-10.49
387.082	-21.28
387.291	-21.45
387.501	-20.91
387.711	-15.84
387.921	-25.99
388.13	-23.76
388.34	-12.57
388.55	-18.46
388.759	-15.77
388.969	-8.99
389.179	-5.48
389.388	-8.68
389.598	0.49
389.807	-10.15
390.017	-14.19
390.227	-14.77
390.436	-14.33
390.646	-13.59
390.855	-8.41
391.065	-6.1
391.274	-7.17
391.484	-10.58
391.693	-6.37
391.903	-4.94
392.112	-0.51
392.322	3.02
392.531	8.19
392.74	6.81
392.95	2.75
393.159	-1.42
393.369	-2.52
393.578	-3.27
393.787	-4.79
393.997	-2.72
394.206	-3.45
394.415	-2.54
394.625	-3.3
394.834	-4
395.043	-3.16
395.252	0.02
395.462	1.35
395.671	3.11
395.88	3.28
396.089	4.37
396.298	1.8
396.508	0.96
396.717	-0.55
396.926	0.27
397.135	-0.95
397.344	-0.86
397.553	0.05
397.762	2.28
397.971	2.18
398.181	3
398.39	2.72
398.599	1.54
398.808	0.58
399.017	1.56
399.226	2.98
399.435	3.96
399.644	4.31
399.853	3.54
400.062	2.67
400.27	1.85
400.479	1.3
400.688	0.86
400.897	1.56
401.106	2.13
401.315	2.03
401.524	2.38
401.733	2.8
401.941	2.76
402.15	2.7
402.359	2.42
402.568	2.58
402.777	2.83
402.985	2.76
403.194	2.54
403.403	2.66
403.612	2.28
403.82	2.02
404.029	2.25
404.238	2.16
404.446	2.57
404.655	2.36
404.864	2.22
405.072	1.75
405.281	2.07
405.489	1.65
405.698	1.79
405.906	1.97
406.115	2.13
406.324	1.8
406.532	1.98
406.741	2.33
406.949	2.3
407.158	2.28
407.366	2.46
407.574	2.41
407.783	2.35
407.991	2.11
408.2	2.44
408.408	2.41
408.617	2.3
408.825	2.17
409.033	2.35
409.242	2.35
409.45	2.43
409.658	2.32
409.867	2.37
410.075	2.23
410.283	1.91
410.491	1.76
410.7	1.85
410.908	1.88
411.116	2.34
411.324	2.36
411.533	2.31
411.741	2.42
411.949	2.43
412.157	2.02
412.365	2.22
412.573	2.38
412.781	2.4
412.99	2.37
413.198	2.53
413.406	2.46
413.614	2.41
413.822	2.25
414.03	2.18
414.238	2.03
414.446	2.15
414.654	1.87
414.862	2.02
415.07	2.04
415.278	2.25
415.486	1.91
415.694	2.09
415.902	1.87
416.109	1.72
416.317	1.61
416.525	1.46
416.733	1.49
416.941	1.74
417.149	1.81
417.357	1.89
417.564	2.23
417.772	2.46
417.98	2.34
418.188	2.3
418.395	2.34
418.603	2.43
418.811	2.03
419.019	1.98
419.226	2.28
419.434	2.24
419.642	2.04
419.849	2.27
420.057	2.2
420.265	2.05
420.472	1.77
420.68	1.8
420.887	1.66
421.095	1.88
421.302	1.79
421.51	2.02
421.717	2.01
421.925	2.13
422.132	1.83
422.34	1.75
422.547	1.86
422.755	1.68
422.962	1.6
423.17	1.65
423.377	1.72
423.585	1.58
423.792	1.61
423.999	1.56
424.207	1.65
424.414	1.77
424.621	1.69
424.829	1.84
425.036	1.83
425.243	1.93
425.451	1.7
425.658	1.6
425.865	1.85
426.072	1.74
426.28	1.89
426.487	1.8
426.694	1.94
426.901	1.57
427.108	1.7
427.315	1.51
427.523	2.04
427.73	1.96
427.937	1.89
428.144	1.88
428.351	1.9
428.558	1.76
428.765	1.79
428.972	1.78
429.179	1.76
429.386	1.96
429.593	1.66
429.8	1.52
430.007	1.75
430.214	2.01
430.421	1.77
430.628	1.65
430.835	1.6
431.042	1.72
431.249	1.57
431.456	1.57
431.662	1.71
431.869	1.99
432.076	1.95
432.283	2.13
432.49	2.13
432.697	2.19
432.903	1.88
433.11	1.78
433.317	1.76
433.524	1.9
433.73	1.8
433.937	2.2
434.144	2.05
434.35	1.98
434.557	1.85
434.764	1.89
434.97	1.71
435.177	1.85
435.384	1.79
435.59	1.86
435.797	2.05
436.003	2.1
436.21	2.1
436.416	2.22
436.623	2.17
436.829	2.26
437.036	2.33
437.242	2.39
437.449	2.33
437.655	2.39
437.862	2.3
438.068	2.22
438.275	2.37
438.481	2.56
438.687	2.51
438.894	2.44
439.1	2.47
439.307	2.63
439.513	2.4
439.719	2.4
439.926	2.5
440.132	2.48
440.338	2.12
440.544	2.3
440.751	2.25
440.957	2.31
441.163	2.21
441.369	2.3
441.575	2.08
441.782	2.17
441.988	1.97
442.194	1.99
442.4	1.93
442.606	2.17
442.812	2.24
443.018	2.38
443.224	2.46
443.431	2.61
443.637	2.44
443.843	2.32
444.049	2.33
444.255	2.27
444.461	2.26
444.667	2.27
444.873	2.44
445.079	2.36
445.284	2.42
445.49	2.28
445.696	2.13
445.902	1.94
446.108	1.92
446.314	1.88
446.52	1.91
446.726	2.24
446.931	2.33
447.137	2.31
447.343	2.43
447.549	2.39
447.755	2.17
447.96	2.23
448.166	2.17
448.372	2.04
448.578	2.07
448.783	2.1
448.989	2.16
449.195	2.43
449.4	2.47
449.606	2.39
449.812	2.32
450.017	2.34
450.223	2.23
450.428	2.12
450.634	2.37
450.84	2.59
451.045	2.47
451.251	2.31
451.456	2.64
451.662	2.69
451.867	2.66
452.073	2.66
452.278	2.9
452.483	2.86
452.689	2.64
452.894	2.64
453.1	2.64
453.305	2.49
453.51	2.45
453.716	2.45
453.921	2.4
454.127	2.35
454.332	2.37
454.537	2.22
454.742	2.27
454.948	2.25
455.153	2.29
455.358	2.36
455.563	2.63
455.769	2.68
455.974	2.68
456.179	2.59
456.384	2.58
456.589	2.45
456.795	2.3
457	2.27
457.205	2.48
457.41	2.42
457.615	2.41
457.82	2.5
458.025	2.5
458.23	2.39
458.435	2.47
458.64	2.37
458.845	2.49
459.05	2.46
459.255	2.43
459.46	2.43
459.665	2.48
459.87	2.49
460.075	2.55
460.28	2.68
460.485	2.79
460.69	2.75
460.895	2.57
461.099	2.47
461.304	2.45
461.509	2.43
461.714	2.35
461.919	2.53
462.123	2.51
462.328	2.61
462.533	2.52
462.738	2.72
462.942	2.61
463.147	2.69
463.352	2.71
463.556	2.67
463.761	2.61
463.966	2.59
464.17	2.64
464.375	2.46
464.58	2.54
464.784	2.48
464.989	2.51
465.193	2.46
465.398	2.41
465.602	2.47
465.807	2.46
466.011	2.52
466.216	2.53
466.42	2.66
466.625	2.73
466.829	2.82
467.034	2.79
467.238	2.98
467.443	2.93
467.647	2.75
467.851	2.77
468.056	2.89
468.26	2.72
468.464	2.78
468.669	2.91
468.873	3.07
469.077	2.97
469.282	3.05
469.486	3.08
469.69	3.1
469.894	2.89
470.099	3.02
470.303	3.09
470.507	2.99
470.711	2.83
470.915	2.88
471.119	2.77
471.324	2.68
471.528	2.72
471.732	2.82
471.936	2.82
472.14	2.94
472.344	3.03
472.548	3.09
472.752	3.25
472.956	3.45
473.16	3.36
473.364	3.24
473.568	3.25
473.772	3.21
473.976	3.02
474.18	3
474.384	3.05
474.588	2.99
474.792	2.85
474.995	2.94
475.199	3.07
475.403	3.19
475.607	3.24
475.811	3.25
476.015	3.38
476.218	3.38
476.422	3.25
476.626	3.39
476.83	3.51
477.033	3.38
477.237	3.28
477.441	3.37
477.644	3.26
477.848	3.26
478.052	3.2
478.255	3.23
478.459	3.21
478.663	3.4
478.866	3.41
479.07	3.51
479.273	3.67
479.477	3.8
479.681	3.68
479.884	3.57
480.088	3.53
480.291	3.45
480.495	3.42
480.698	3.48
480.901	3.58
481.105	3.7
481.308	3.72
481.512	3.66
481.715	3.69
481.919	3.79
482.122	3.77
482.325	3.79
482.529	3.82
482.732	3.77
482.935	3.61
483.138	3.59
483.342	3.67
483.545	3.73
483.748	3.75
483.952	3.84
484.155	3.92
484.358	3.89
484.561	3.86
484.764	3.86
484.967	3.98
485.171	4.06
485.374	4
485.577	4.09
485.78	4.13
485.983	4.08
486.186	3.93
486.389	3.9
486.592	3.79
486.795	3.81
486.998	3.73
487.201	3.74
487.404	3.87
487.607	3.97
487.81	3.97
488.013	4.1
488.216	4.14
488.419	4.12
488.622	4.03
488.825	3.95
489.028	3.79
489.231	3.68
489.433	3.55
489.636	3.51
489.839	3.51
490.042	3.46
490.245	3.5
490.447	3.59
490.65	3.66
490.853	3.69
491.056	3.79
491.258	3.83
491.461	3.82
491.664	3.87
491.866	3.79
492.069	3.93
492.272	3.87
492.474	3.89
492.677	3.93
492.879	4.07
493.082	4.09
493.285	4.27
493.487	4.23
493.69	4.14
493.892	4.04
494.095	3.93
494.297	3.89
494.5	3.94
494.702	3.94
494.905	3.99
495.107	3.97
495.309	3.94
495.512	4.01
495.714	4.1
495.917	4.16
496.119	4.17
496.321	4.22
496.524	4.22
496.726	4.2
496.928	4.18
497.13	4.2
497.333	4.16
497.535	4.15
497.737	4.13
497.939	4.1
498.142	4.15
498.344	4.15
498.546	4.03
498.748	4.06
498.95	4.2
499.152	4.15
499.355	4.22
499.557	4.32
499.759	4.41
499.961	4.29
500.163	4.36
500.365	4.34
500.567	4.42
500.769	4.3
500.971	4.41
501.173	4.37
501.375	4.41
501.577	4.26
501.779	4.29
501.981	4.29
502.183	4.32
502.385	4.29
502.587	4.33
502.788	4.42
502.99	4.45
503.192	4.49
503.394	4.46
503.596	4.46
503.798	4.48
503.999	4.49
504.201	4.49
504.403	4.56
504.605	4.64
504.806	4.54
505.008	4.53
505.21	4.63
505.411	4.63
505.613	4.61
505.815	4.65
506.016	4.72
506.218	4.77
506.42	4.78
506.621	4.83
506.823	4.91
507.024	4.8
507.226	4.65
507.427	4.62
507.629	4.64
507.83	4.64
508.032	4.66
508.233	4.76
508.435	4.84
508.636	4.87
508.838	4.84
509.039	4.86
509.24	4.92
509.442	4.92
509.643	4.82
509.845	4.86
510.046	4.92
510.247	4.91
510.448	4.9
510.65	5.04
510.851	5.1
511.052	5.11
511.254	5.03
511.455	5.12
511.656	5.13
511.857	5.18
512.058	5.19
512.26	5.21
512.461	5.17
512.662	5.23
512.863	5.09
513.064	5.11
513.265	5.14
513.466	5.18
513.667	5.11
513.868	5.19
514.069	5.23
514.27	5.33
514.471	5.26
514.672	5.26
514.873	5.31
515.074	5.34
515.275	5.22
515.476	5.3
515.677	5.33
515.878	5.43
516.079	5.38
516.28	5.43
516.481	5.54
516.682	5.54
516.882	5.4
517.083	5.42
517.284	5.4
517.485	5.34
517.686	5.35
517.886	5.39
518.087	5.47
518.288	5.49
518.488	5.47
518.689	5.47
518.89	5.44
519.091	5.4
519.291	5.39
519.492	5.42
519.692	5.44
519.893	5.55
520.094	5.54
520.294	5.55
520.495	5.53
520.695	5.6
520.896	5.57
521.096	5.66
521.297	5.69
521.497	5.7
521.698	5.61
521.898	5.6
522.099	5.61
522.299	5.71
522.499	5.77
522.7	5.79
522.9	5.82
523.101	5.87
523.301	5.82
523.501	5.79
523.702	5.83
523.902	5.92
524.102	5.92
524.302	5.88
524.503	5.92
524.703	5.93
524.903	5.89
525.103	5.81
525.304	5.92
525.504	6
525.704	6.09
525.904	6.1
526.104	6.1
526.304	6.07
526.504	6.08
526.705	6.05
526.905	6.09
527.105	6.13
527.305	6.12
527.505	6.01
527.705	5.98
527.905	5.97
528.105	5.93
528.305	5.93
528.505	6
528.705	6.1
528.905	6.06
529.105	6.13
529.304	6.16
529.504	6.24
529.704	6.17
529.904	6.24
530.104	6.28
530.304	6.4
530.503	6.36
530.703	6.33
530.903	6.29
531.103	6.27
531.303	6.19
531.502	6.21
531.702	6.33
531.902	6.36
532.101	6.33
532.301	6.36
532.501	6.35
532.7	6.31
532.9	6.36
533.1	6.4
533.299	6.4
533.499	6.41
533.698	6.37
533.898	6.33
534.097	6.33
534.297	6.45
534.496	6.48
534.696	6.59
534.895	6.73
535.095	6.83
535.294	6.74
535.494	6.7
535.693	6.67
535.892	6.67
536.092	6.58
536.291	6.55
536.491	6.66
536.69	6.75
536.889	6.65
537.088	6.65
537.288	6.71
537.487	6.73
537.686	6.72
537.886	6.82
538.085	6.9
538.284	7.07
538.483	7.05
538.682	7.1
538.882	7.15
539.081	7.21
539.28	7.07
539.479	7.04
539.678	6.98
539.877	7.07
540.076	7.07
540.275	7.15
540.474	7.27
540.673	7.37
540.872	7.28
541.071	7.34
541.27	7.34
541.469	7.33
541.668	7.4
541.867	7.45
542.066	7.46
542.265	7.54
542.464	7.55
542.663	7.49
542.862	7.59
543.06	7.62
543.259	7.63
543.458	7.73
543.657	7.83
543.856	7.84
544.054	7.83
544.253	7.82
544.452	7.78
544.651	7.8
544.849	7.8
545.048	7.88
545.247	7.87
545.445	7.97
545.644	8
545.843	7.96
546.041	7.98
546.24	8.16
546.438	8.27
546.637	8.33
546.836	8.49
547.034	8.58
547.233	8.54
547.431	8.5
547.63	8.49
547.828	8.53
548.027	8.54
548.225	8.6
548.423	8.67
548.622	8.81
548.82	8.74
549.019	8.84
549.217	8.94
549.415	8.98
549.614	9.01
549.812	9.1
550.01	9.05
550.209	9.12
550.407	9.21
550.605	9.18
550.803	9.27
551.002	9.4
551.2	9.37
551.398	9.46
551.596	9.63
551.794	9.71
551.993	9.8
552.191	9.89
552.389	9.97
552.587	10.05
552.785	10.05
552.983	10.11
553.181	10.23
553.379	10.23
553.577	10.27
553.775	10.38
553.973	10.43
554.171	10.53
554.369	10.56
554.567	10.56
554.765	10.61
554.963	10.73
555.161	10.65
555.359	10.75
555.557	10.91
555.755	11.02
555.952	11.07
556.15	11.19
556.348	11.24
556.546	11.35
556.744	11.4
556.941	11.48
557.139	11.6
557.337	11.7
557.535	11.72
557.732	11.84
557.93	11.97
558.128	12.06
558.325	12.22
558.523	12.28
558.721	12.41
558.918	12.42
559.116	12.55
559.313	12.61
559.511	12.73
559.708	12.71
559.906	12.75
560.104	12.8
560.301	12.9
560.498	12.92
560.696	13.05
560.893	13.18
561.091	13.21
561.288	13.33
561.486	13.46
561.683	13.52
561.88	13.64
562.078	13.78
562.275	13.73
562.473	13.9
562.67	14.12
562.867	14.19
563.064	14.36
563.262	14.43
563.459	14.47
563.656	14.52
563.853	14.55
564.051	14.58
564.248	14.79
564.445	14.87
564.642	14.9
564.839	15.13
565.036	15.26
565.234	15.4
565.431	15.48
565.628	15.57
565.825	15.66
566.022	15.74
566.219	15.77
566.416	15.89
566.613	15.97
566.81	16.06
567.007	16.04
567.204	16.05
567.401	16.08
567.598	16.21
567.795	16.24
567.991	16.35
568.188	16.44
568.385	16.57
568.582	16.55
568.779	16.66
568.976	16.77
569.172	16.96
569.369	16.98
569.566	17.06
569.763	17.09
569.96	17.06
570.156	16.97
570.353	17.06
570.55	17.19
570.746	17.23
570.943	17.33
571.14	17.46
571.336	17.44
571.533	17.44
571.729	17.47
571.926	17.56
572.123	17.62
572.319	17.74
572.516	17.79
572.712	17.85
572.909	17.86
573.105	17.9
573.302	17.89
573.498	18.05
573.695	18.03
573.891	18.12
574.087	18.11
574.284	18.17
574.48	18.02
574.677	18.11
574.873	18.1
575.069	18.24
575.266	18.36
575.462	18.35
575.658	18.43
575.854	18.59
576.051	18.53
576.247	18.47
576.443	18.56
576.639	18.52
576.835	18.38
577.032	18.32
577.228	18.41
577.424	18.47
577.62	18.42
577.816	18.48
578.012	18.53
578.208	18.5
578.404	18.47
578.6	18.5
578.796	18.5
578.993	18.6
579.189	18.63
579.384	18.53
579.58	18.44
579.776	18.39
579.972	18.34
580.168	18.15
580.364	18.32
580.56	18.39
580.756	18.33
580.952	18.25
581.148	18.36
581.343	18.24
581.539	18.32
581.735	18.42
581.931	18.49
582.127	18.54
582.322	18.55
582.518	18.57
582.714	18.53
582.909	18.49
583.105	18.42
583.301	18.44
583.496	18.41
583.692	18.43
583.888	18.43
584.083	18.58
584.279	18.56
584.474	18.46
584.67	18.49
584.866	18.52
585.061	18.27
585.257	18.36
585.452	18.43
585.648	18.39
585.843	18.35
586.039	18.54
586.234	18.44
586.429	18.4
586.625	18.39
586.82	18.35
587.015	18.32
587.211	18.29
587.406	18.29
587.601	18.28
587.797	18.4
587.992	18.38
588.187	18.45
588.383	18.5
588.578	18.49
588.773	18.45
588.968	18.48
589.163	18.55
589.359	18.53
589.554	18.6
589.749	18.66
589.944	18.68
590.139	18.63
590.334	18.71
590.529	18.7
590.724	18.73
590.919	18.88
591.114	18.92
591.309	19
591.504	19.14
591.699	19.08
591.894	19.07
592.089	19.03
592.284	19.08
592.479	19.1
592.674	19.15
592.869	19.16
593.064	19.29
593.259	19.36
593.454	19.48
593.648	19.6
593.843	19.61
594.038	19.69
594.233	19.62
594.428	19.62
594.622	19.67
594.817	19.78
595.012	19.8
595.206	19.88
595.401	19.89
595.596	19.95
595.79	20.07
595.985	20.17
596.18	20.29
596.374	20.41
596.569	20.46
596.763	20.49
596.958	20.57
597.153	20.62
597.347	20.68
597.542	20.9
597.736	20.94
597.931	20.94
598.125	20.97
598.319	21.14
598.514	20.99
598.708	21.08
598.903	21.19
599.097	21.35
599.291	21.33
599.486	21.43
599.68	21.41
599.874	21.49
600.069	21.46
600.263	21.49
600.457	21.57
600.651	21.71
600.846	21.77
601.04	21.87
601.234	21.9
601.428	21.91
601.622	21.91
601.817	21.91
602.011	21.94
602.205	21.97
602.399	21.97
602.593	22.01
602.787	22.01
602.981	21.98
603.175	22.03
603.369	22.01
603.563	22.05
603.757	22.13
603.951	22.11
604.145	22.09
604.339	22.2
604.533	22.13
604.727	22.14
604.921	22.06
605.115	22.03
605.309	22.06
605.502	21.99
605.696	21.93
605.89	22.02
606.084	22.01
606.278	21.87
606.471	21.8
606.665	21.69
606.859	21.56
607.053	21.46
607.246	21.53
607.44	21.59
607.634	21.51
607.827	21.6
608.021	21.56
608.214	21.44
608.408	21.32
608.602	21.45
608.795	21.37
608.989	21.31
609.182	21.16
609.376	21.16
609.569	20.98
609.763	20.88
609.956	20.84
610.15	20.78
610.343	20.67
610.537	20.61
610.73	20.56
610.923	20.47
611.117	20.46
611.31	20.44
611.504	20.42
611.697	20.31
611.89	20.31
612.083	20.21
612.277	20.2
612.47	20.05
612.663	19.97
612.856	19.89
613.05	19.81
613.243	19.67
613.436	19.62
613.629	19.53
613.822	19.41
614.015	19.36
614.209	19.23
614.402	19.3
614.595	19.31
614.788	19.28
614.981	19.16
615.174	19.09
615.367	18.87
615.56	18.76
615.753	18.72
615.946	18.67
616.139	18.63
616.332	18.7
616.525	18.66
616.718	18.67
616.911	18.68
617.103	18.68
617.296	18.61
617.489	18.52
617.682	18.39
617.875	18.43
618.067	18.32
618.26	18.16
618.453	18.24
618.646	18.21
618.838	18.09
619.031	18.21
619.224	18.31
619.417	18.32
619.609	18.35
619.802	18.34
619.994	18.26
620.187	18.19
620.38	18.04
620.572	17.97
620.765	18
620.957	17.87
621.15	17.73
621.342	17.73
621.535	17.74
621.727	17.67
621.92	17.64
622.112	17.64
622.305	17.63
622.497	17.49
622.69	17.51
622.882	17.52
623.074	17.63
623.267	17.51
623.459	17.5
623.651	17.36
623.844	17.39
624.036	17.35
624.228	17.42
624.42	17.41
624.613	17.56
624.805	17.53
624.997	17.44
625.189	17.4
625.381	17.41
625.574	17.27
625.766	17.17
625.958	17.17
626.15	17.17
626.342	17.16
626.534	17.2
626.726	17.22
626.918	17.22
627.11	17.15
627.302	17.17
627.494	17.12
627.686	17.09
627.878	16.96
628.07	16.98
628.262	16.85
628.454	16.82
628.646	16.82
628.838	16.92
629.029	16.85
629.221	16.96
629.413	16.88
629.605	16.8
629.797	16.72
629.989	16.74
630.18	16.65
630.372	16.71
630.564	16.68
630.755	16.74
630.947	16.87
631.139	16.74
631.33	16.6
631.522	16.71
631.714	16.62
631.905	16.48
632.097	16.48
632.289	16.47
632.48	16.33
632.672	16.23
632.863	16.04
633.055	16.04
633.246	16.02
633.438	15.88
633.629	15.96
633.821	16.11
634.012	16.01
634.203	15.95
634.395	16.05
634.586	16.02
634.777	15.91
634.969	15.96
635.16	16.05
635.351	15.98
635.543	15.94
635.734	15.94
635.925	16
636.117	15.96
636.308	15.97
636.499	15.88
636.69	15.74
636.881	15.63
637.073	15.66
637.264	15.69
637.455	15.75
637.646	15.91
637.837	15.99
638.028	15.85
638.219	15.92
638.41	15.81
638.601	15.75
638.792	15.73
638.983	15.73
639.174	15.57
639.365	15.68
639.556	15.6
639.747	15.55
639.938	15.62
640.129	15.64
640.32	15.51
640.511	15.55
640.701	15.58
640.892	15.49
641.083	15.49
641.274	15.54
641.465	15.56
641.655	15.47
641.846	15.48
642.037	15.47
642.228	15.45
642.418	15.45
642.609	15.44
642.8	15.49
642.99	15.38
643.181	15.47
643.372	15.5
643.562	15.52
643.753	15.37
643.943	15.35
644.134	15.16
644.324	15.06
644.515	15.02
644.705	15.09
644.896	15.16
645.086	15.24
645.277	15.14
645.467	15.13
645.658	15.11
645.848	15.04
646.038	15.04
646.229	15.09
646.419	15.01
646.61	14.97
646.8	14.97
646.99	14.92
647.18	14.83
647.371	14.8
647.561	14.79
647.751	14.76
647.941	14.63
648.132	14.7
648.322	14.69
648.512	14.74
648.702	14.75
648.892	14.86
649.082	14.84
649.272	14.8
649.462	14.62
649.653	14.48
649.843	14.42
650.033	14.4
650.223	14.35
650.413	14.4
650.603	14.46
650.793	14.45
650.983	14.42
651.172	14.45
651.362	14.38
651.552	14.39
651.742	14.25
651.932	14.19
652.122	14.04
652.312	14.17
652.502	14.08
652.691	14.05
652.881	14.01
653.071	14
653.261	13.79
653.45	13.6
653.64	13.57
653.83	13.32
654.019	13.23
654.209	13.24
654.399	13.21
654.588	13.12
654.778	13.02
654.968	12.89
655.157	12.7
655.347	12.64
655.536	12.46
655.726	12.46
655.915	12.27
656.105	12.2
656.294	12.09
656.484	11.87
656.673	11.77
656.863	11.79
657.052	11.59
657.241	11.32
657.431	11.18
657.62	10.99
657.809	10.67
657.999	10.55
658.188	10.43
658.377	10.31
658.567	10.21
658.756	10.18
658.945	9.99
659.134	9.88
659.324	9.78
659.513	9.57
659.702	9.36
659.891	9.24
660.08	9.05
660.269	8.97
660.458	8.81
660.648	8.73
660.837	8.6
661.026	8.58
661.215	8.41
661.404	8.24
661.593	8.1
661.782	7.84
661.971	7.68
662.16	7.52
662.349	7.5
662.538	7.36
662.726	7.44
662.915	7.31
663.104	7.23
663.293	7.16
663.482	7.15
663.671	7.02
663.86	6.91
664.048	6.81
664.237	6.77
664.426	6.52
664.615	6.41
664.803	6.36
664.992	6.21
665.181	6.02
665.369	5.93
665.558	5.9
665.747	5.73
665.935	5.82
666.124	5.88
666.312	5.91
666.501	5.74
666.69	5.74
666.878	5.66
667.067	5.44
667.255	5.46
667.444	5.78
667.632	5.83
667.82	5.91
668.009	5.88
668.197	5.83
668.386	5.57
668.574	5.55
668.762	5.38
668.951	5.41
669.139	5.3
669.327	5.17
669.516	5.17
669.704	5.09
669.892	5.28
670.08	5.33
670.269	5.34
670.457	5.15
670.645	5.09
670.833	5.04
671.021	5.02
671.21	5.06
671.398	5.46
671.586	5.51
671.774	5.37
671.962	5.33
672.15	5.37
672.338	4.99
672.526	5.02
672.714	5.01
672.902	5.07
673.09	5.28
673.278	5.75
673.466	5.82
673.654	6.11
673.842	6.12
674.03	6.06
674.218	5.67
674.405	5.73
674.593	5.53
674.781	5.66
674.969	5.57
675.157	5.85
675.344	5.92
675.532	6.05
675.72	6.21
675.908	6.31
676.095	6.18
676.283	6.17
676.471	6.32
676.658	6.22
676.846	6.19
677.033	6.36
677.221	6.41
677.409	6.35
677.596	6.48
677.784	6.53
677.971	6.56
678.159	6.63
678.346	6.63
678.534	6.63
678.721	6.94
678.909	6.89
679.096	6.95
679.283	7.19
679.471	7.36
679.658	7.37
679.846	7.67
680.033	7.9
680.22	7.95
680.408	7.98
680.595	7.95
680.782	7.9
680.969	7.95
681.157	7.9
681.344	8.02
681.531	8.12
681.718	8.13
681.905	8.23
682.093	8.5
682.28	8.68
682.467	9.07
682.654	9.3
682.841	9.5
683.028	9.6
683.215	9.74
683.402	9.56
683.589	9.9
683.776	10.17
683.963	10.26
684.15	10.33
684.337	10.71
684.524	10.75
684.711	10.85
684.898	10.89
685.085	11.31
685.271	11.66
685.458	11.94
685.645	12.14
685.832	12.68
686.019	12.87
686.205	13.04
686.392	13.31
686.579	13.57
686.766	14.03
686.952	14.22
687.139	14.71
687.326	14.89
687.512	15.24
687.699	15.51
687.886	15.93
688.072	16.08
688.259	16.65
688.445	17.22
688.632	17.39
688.818	17.96
689.005	18.35
689.191	18.78
689.378	19.26
689.564	19.83
689.751	20.21
689.937	20.74
690.124	21.19
690.31	21.4
690.496	21.96
690.683	22.47
690.869	22.98
691.055	23.47
691.242	24.26
691.428	24.93
691.614	25.71
691.8	26.54
691.987	27.34
692.173	28.03
692.359	28.62
692.545	29.08
692.731	29.59
692.918	30.35
693.104	30.77
693.29	31.44
693.476	32.17
693.662	32.86
693.848	33.25
694.034	34.05
694.22	34.55
694.406	35.24
694.592	35.8
694.778	36.55
694.964	37.09
695.15	37.76
695.336	38.36
695.522	39.23
695.708	39.76
695.894	40.6
696.08	41.43
696.265	42.22
696.451	42.78
696.637	43.79
696.823	44.52
697.009	44.95
697.194	45.56
697.38	45.75
697.566	46.01
697.751	46.35
697.937	47.2
698.123	47.61
698.308	48.77
698.494	49.71
698.68	50.57
698.865	51.04
699.051	51.88
699.236	52.36
699.422	52.69
699.607	52.92
699.793	53.41
699.978	53.69
700.164	54.11
700.349	54.99
700.535	55.64
700.72	56.04
700.906	56.98
701.091	57.33
701.276	57.33
701.462	58.1
701.647	58.99
701.832	59.36
702.018	59.98
702.203	60.54
702.388	60.71
702.573	60.9
702.759	61.75
702.944	62.03
703.129	62.42
703.314	62.84
703.499	63.14
703.684	62.57
703.87	63.8
704.055	64.72
704.24	65.12
704.425	65.69
704.61	66.65
704.795	66.22
704.98	66.04
705.165	66.28
705.35	66.7
705.535	66.83
705.72	67.12
705.905	67.77
706.09	68.19
706.275	68.34
706.459	68.34
706.644	68.77
706.829	68.72
707.014	68.69
707.199	68.96
707.384	69.6
707.568	69.91
707.753	70.7
707.938	70.99
708.123	71.09
708.307	71.19
708.492	71.35
708.677	71.2
708.861	71.49
709.046	71.65
709.231	72.04
709.415	72.49
709.6	72.53
709.784	72.73
709.969	72.9
710.153	72.8
710.338	72.7
710.522	72.94
710.707	73.49
710.891	73.68
711.076	73.77
711.26	73.53
711.445	73.76
711.629	73.7
711.813	74.06
711.998	74.71
712.182	74.93
712.366	75.7
712.551	76.24
712.735	76.56
712.919	76.31
713.103	76.82
713.288	76.24
713.472	75.74
713.656	75.97
713.84	76.05
714.024	76.14
714.208	75.93
714.393	76.43
714.577	76.49
714.761	76.7
714.945	76.82
715.129	77.29
715.313	77.32
715.497	76.69
715.681	77.4
715.865	77.24
716.049	77.42
716.233	77.28
716.417	78.13
716.601	77.53
716.785	77.4
716.968	77.6
717.152	78.01
717.336	77.73
717.52	77.87
717.704	78.6
717.888	79.01
718.071	79.22
718.255	79.38
718.439	79.35
718.622	79.35
718.806	79.43
718.99	78.89
719.174	78.84
719.357	79.5
719.541	79.6
719.724	79.07
719.908	80.13
720.092	81.02
720.275	80.87
720.459	80.35
720.642	79.95
720.826	79.41
721.009	78.4
721.193	78.03
721.376	78.54
721.559	79.62
721.743	79.79
721.926	80.49
722.11	80.78
722.293	80.46
722.476	79.54
722.66	79.36
722.843	78.89
723.026	78.28
723.21	78.78
723.393	80.02
723.576	79.99
723.759	79.9
723.942	80.62
724.126	80.5
724.309	80.34
724.492	80.45
724.675	80.55
724.858	80.74
725.041	81.25
725.224	81.28
725.407	81.94
725.59	82.93
725.774	82.42
725.957	81.78
726.14	81.14
726.322	80.87
726.505	80.47
726.688	81.53
726.871	81.51
727.054	81.82
727.237	81.36
727.42	81.36
727.603	80.85
727.786	81.03
727.968	81.31
728.151	81.42
728.334	80.96
728.517	80.85
728.699	82.21
728.882	81.65
729.065	82.53
729.248	83.22
729.43	83.57
729.613	82.92
729.796	84.27
729.978	83.69
730.161	83.6
730.343	83.39
730.526	84.3
730.708	83.06
730.891	83.45
731.073	83.17
731.256	82.88
731.438	81.96
731.621	82.97
731.803	82.34
731.986	82.83
732.168	82.96
732.35	82.91
732.533	82.01
732.715	82.02
732.898	82.76
733.08	82.76
733.262	83.14
733.444	83.31
733.627	84.13
733.809	83.67
733.991	84.8
734.173	84.44
734.355	85.36
734.538	85.02
734.72	84.82
734.902	84.26
735.084	84.44
735.266	84.1
735.448	84.49
735.63	84.36
735.812	84.31
735.994	85.36
736.176	85.8
736.358	85.76
736.54	86.87
736.722	86.45
736.904	85.75
737.086	85.93
737.268	87.27
737.45	86.31
737.632	86.67
737.814	85.48
737.995	84.57
738.177	83.81
738.359	83.43
738.541	84.02
738.723	84.79
738.904	85.57
739.086	85.3
739.268	85.43
739.449	85.31
739.631	85.93
739.813	85.45
739.994	85.46
740.176	86.27
740.358	85.99
740.539	87.02
740.721	87.47
740.902	88.11
741.084	87.88
741.265	87.36
741.447	87.18
741.628	87.83
741.81	87.43
741.991	87.56
742.172	89.18
742.354	89.25
742.535	88.56
742.717	88.67
742.898	88.4
743.079	87.84
743.261	86.87
743.442	85.94
743.623	85.86
743.804	86.67
743.986	87.95
744.167	86.57
744.348	86.71
744.529	87.2
744.71	86.4
744.891	84.72
745.073	84.98
745.254	85.77
745.435	84.69
745.616	84.3
745.797	84.65
745.978	84.49
746.159	84.68
746.34	84.48
746.521	86.4
746.702	85.51
746.883	86.94
747.064	85.91
747.245	86
747.426	84.15
747.606	84.95
747.787	84.88
747.968	85.45
748.149	86.57
748.33	87.65
748.51	87.48
748.691	86.9
748.872	87.48
749.053	86.49
749.233	85.7
749.414	84.99
749.595	84.04
749.775	81.86
749.956	81.26
750.137	81.35
750.317	82.62
750.498	85.06
750.678	86.71
750.859	88.19
751.04	87.49
751.22	85.74
751.4	84
751.581	82.58
751.761	82.33
751.942	84.11
752.122	84.4
752.303	83.74
752.483	83.95
752.663	83.4
752.844	80.75
753.024	82.78
753.204	84.41
753.385	84.29
753.565	83.9
753.745	85.25
753.925	82.95
754.106	81.82
754.286	82.95
754.466	82.24
754.646	83.27
754.826	82.95
755.006	81.63
755.187	82.29
755.367	84.1
755.547	84.7
755.727	86.15
755.907	87.66
756.087	87.57
756.267	86.95
756.447	85.7
756.627	84.02
756.807	84.59
756.987	82.99
757.167	82.46
757.346	82.17
757.526	81.37
757.706	82.08
757.886	83.2
758.066	84.39
758.246	86.79
758.425	88.01
758.605	86.77
758.785	87.31
758.965	87.16
759.144	83.52
759.324	84.08
759.504	83.08
759.683	81.77
759.863	78.91
760.043	78.16
760.222	77.69
760.402	77.76
760.581	78.02
760.761	80.15
760.94	80.59
761.12	82.05
761.299	83.18
761.479	83.6
761.658	82.77
761.838	83.69
762.017	83.52
762.197	83.11
762.376	83.42
762.555	84.37
762.735	85.68
762.914	84.68
763.093	84.65
763.273	82.81
763.452	81.93
763.631	80.36
763.81	79.36
763.99	79.12
764.169	80.11
764.348	79.41
764.527	78.04
764.706	80.63
764.885	82.05
765.064	79.95
765.243	80.88
765.423	82.43
765.602	80.05
765.781	77.79
765.96	77.01
766.139	75.87
766.318	76.77
766.497	76.5
766.676	76.79
766.854	81.39
767.033	82.18
767.212	81.05
767.391	82.56
767.57	83.4
767.749	81.76
767.928	83.12
768.106	83.52
768.285	80.95
768.464	80.74
768.643	79.77
768.821	79.51
769	81.54
769.179	82.33
769.357	80.87
769.536	80.68
769.715	80.14
769.893	80.61
770.072	80.71
770.25	82.45
770.429	83.23
770.607	82.1
770.786	80.45
770.964	81.61
771.143	79.61
771.321	80.81
771.5	83.08
771.678	79.89
771.857	78.48
772.035	78.32
772.213	76.02
772.392	73.16
772.57	75.47
772.748	77.84
772.927	78.25
773.105	78.73
773.283	80.83
773.461	82.62
773.64	81.5
773.818	83.25
773.996	83.21
774.174	80.43
774.352	76.67
774.531	72.65
774.709	73.39
774.887	73.31
775.065	74.14
775.243	74.25
775.421	76.92
775.599	77.35
775.777	74.98
775.955	74.39
776.133	74.08
776.311	74.29
776.489	70.44
776.667	71.74
776.844	72.21
777.022	71.76
777.2	71.86
777.378	72.98
777.556	75.63
777.734	78.05
777.911	80.29
778.089	79.46
778.267	80.53
778.445	77.62
778.622	74.44
778.8	73.28
778.978	75.92
779.155	74.79
779.333	74.95
779.511	76.54
779.688	78.41
779.866	73.38
780.043	70.47
780.221	72.01
780.398	69.36
780.576	69.74
780.753	74.05
780.931	75.48
781.108	75.53
781.286	79.35
781.463	77.08
781.64	73.13
781.818	74.68
781.995	74.37
782.172	71.05
782.35	70.05
782.527	75.33
782.704	70.16
782.882	69.21
783.059	71.36
783.236	71.31
783.413	69.66
783.59	74.42
783.768	70.66
783.945	73.66
784.122	76.48
784.299	74.36
784.476	71.53
784.653	74.11
784.83	68.21
785.007	64.09
785.184	64.38
785.361	67.05
785.538	71.99
785.715	75.31
785.892	77.58
786.069	81.4
786.246	83.31
786.423	79.68
786.6	80.24
786.776	78.68
786.953	73.18
787.13	74.55
787.307	72.99
787.484	70.74
787.66	69.78
787.837	71.6
788.014	66.27
788.191	64.61
788.367	61.31
788.544	65.89
788.721	64.29
788.897	66.04
789.074	71.07
789.25	72.46
789.427	71.67
789.603	72.05
789.78	75.17
789.956	72.68
790.133	71.79
790.309	73.41
790.486	79.11
790.662	75.02
790.839	74.74
791.015	77.3
791.192	72.37
791.368	68.9
791.544	68.66
791.721	67.72
791.897	68.34
792.073	66.57
792.249	61.3
792.426	62.75
792.602	65.85
792.778	62.81
792.954	65.04
793.13	67.03
793.307	57.92
793.483	50.52
793.659	52.42
793.835	53.23
794.011	53.77
794.187	64.58
794.363	66.03
794.539	66.52
794.715	64.29
794.891	64.46
795.067	57.39
795.243	60.35
795.419	59.38
795.595	59.78
795.771	61.17
795.947	65.95
796.122	64.27
796.298	68.68
796.474	71.01
796.65	70.41
796.826	67.33
797.001	67.89
797.177	59.72
797.353	62.53
797.529	62.83
797.704	61.2
797.88	56.48
798.056	53.55
798.231	46.51
798.407	51.38
798.582	56.26
798.758	68.85
798.934	73.88
799.109	70.3
799.285	61.15
799.46	61.87
799.636	52.93
799.811	54.19
799.986	58.28
800.162	66.75
800.337	64.19
800.513	59.83
800.688	57.86
800.863	67.4
801.039	55.02
801.214	54.7
801.389	64
801.565	65.12
801.74	52.77
801.915	62.68
802.09	62.57
802.265	64.76
802.441	65.25
802.616	59.9
802.791	61.72
802.966	64.86
803.141	63.42
803.316	58.23
803.491	70.05
803.666	71.78
803.841	69.3
804.016	63.07
804.191	63.18
804.366	56.38
804.541	50.98
804.716	50.35
804.891	47.01
805.066	54.61
805.241	51.61
805.416	46.18
805.591	40.17
805.765	48.76
805.94	45.45
806.115	46.96
806.29	42.49
806.464	49.43
806.639	40.26
806.814	35.49
806.989	29.06
807.163	41.74
807.338	40.67
807.512	43.65
807.687	36.46
807.862	57.48
808.036	60.18
808.211	66.15
808.385	73.64
808.56	84.81
808.734	87.93
808.909	85.46
809.083	77.09
809.258	80.82
809.432	85.25
809.606	64.25
809.781	61.12
809.955	69.32
810.13	67.91
810.304	57.01
810.478	59.96
810.652	66.77
810.827	63.14
811.001	56.48
811.175	59.29
811.349	59.37
811.524	51.32
811.698	40.52
811.872	36.94
812.046	42.55
812.22	50.17
812.394	48.28
812.568	53.27
812.742	58.75
812.916	54.01
813.09	43.96
813.264	44.59
813.438	45.26
813.612	39.04
813.786	36.21
813.96	44.93
814.134	50.55
814.308	57.4
814.482	61.59
814.656	57.27
814.83	61.8
815.003	58.71
815.177	50.04
815.351	48.93
815.525	52.26
815.698	38.11
815.872	32.83
816.046	22.27
816.219	29.27
816.393	42.36
816.567	52.34
816.74	53.83
816.914	65.24
817.088	65.18
817.261	48.55
817.435	37.66
817.608	45.63
817.782	29.37
817.955	31.46
818.129	33.9
818.302	41.43
818.475	51.2
818.649	66.62
818.822	54.5
818.996	75.12
819.169	74.05
819.342	51.01
819.516	48.58
819.689	50.88
819.862	37.9
820.035	26.87
820.209	25.61
820.382	29.84
820.555	34.27
820.728	27.18
820.901	35.6
821.075	37.45
821.248	44.01
821.421	37.25
821.594	34.14
821.767	50
821.94	65.97
822.113	32.52
822.286	31.52
822.459	40.7
822.632	29.53
822.805	16.3
822.978	26.01
823.151	26.35
823.324	9.2
823.496	-8.23
823.669	-8.44
823.842	-3.79
824.015	-24.38
824.188	-26.46
824.361	-9.48
824.533	-5.73
824.706	4.58
824.879	17.34
825.051	33.97
825.224	32.08
825.397	19.32
825.569	4.02
825.742	9.84
825.915	19.19
826.087	17.11
826.26	29.02
826.432	37.99
826.605	56.19
826.777	31.94
826.95	24.47
827.122	6.16
827.295	13.67
827.467	9.03
827.64	-7.27
827.812	-14.43
827.984	4.73
828.157	-10.6
828.329	-48.62
828.501	-27.42
828.674	8.48
828.846	-18.41
829.018	-1.02
829.19	-13.56
829.363	16.18
829.535	27.73
829.707	42.62
829.879	15.45
830.051	15.56
830.223	-1.84
830.395	-46.61
830.568	-57.41
830.74	-40.65
830.912	6.17
831.084	-14.97
831.256	-7.67
831.428	-8.81
831.6	-17.36
831.772	-54.77
831.943	-45.88
832.115	-8.73
832.287	14.81
832.459	24.28
832.631	30.39
832.803	43.11
832.975	58.8
833.146	41.13
833.318	42.23
833.49	63.76
833.662	47.86
833.833	21.25
834.005	30.73
834.177	27.87
834.348	15
834.52	-4.16
834.692	-17.53
834.863	-77.87
835.035	-54.48
835.206	-128.08
835.378	-63.86
835.549	-63.98
835.721	-22.19
835.892	-15.7
836.064	17.11
836.235	13.05
836.407	32.81
836.578	-1.47
836.749	-14.34
836.921	-58.42
837.092	-74.26
837.264	-64.1
837.435	-64.37
837.606	-7.24
837.777	25.92
837.949	47.75
838.12	40.48
838.291	58.88
838.462	35.77
838.633	3.53
838.805	-3.84
838.976	-4.06
839.147	-75.15
839.318	-106.86
839.489	-131.89
839.66	-130.81
839.831	-78.91
840.002	-52.17
840.173	-35.53
840.344	17.73
840.515	23.17
840.686	-87.19
840.857	-109.27
841.028	-83.99
841.199	-111.17
841.369	-113.43
841.54	-75.19
841.711	-40.73
841.882	-9.45
842.053	-2.82
842.223	-5.82
842.394	-0.79
842.565	14.96
842.736	9.91
842.906	7.83
843.077	31.26
843.248	51.31
843.418	32.62
843.589	-40.76
843.759	41.79
843.93	-27.1
844.101	-19.08
844.271	1.74
844.442	37.25
844.612	35.48
844.783	4.77
844.953	-21.95
845.123	-63.03
845.294	-77.64
845.464	-331.04
845.635	-110.98
845.805	-48.62
845.975	-22.88
846.146	-71.53
846.316	-41.64
846.486	-22.74
846.656	13.15
846.827	12.33
846.997	19.46
847.167	24.24
847.337	0.3
847.507	-37.44
847.677	-13.01
847.848	21.98
848.018	22.31
848.188	29.68
848.358	7.52
848.528	-13.23
848.698	-44.04
848.868	-111.59
849.038	-227.31
849.208	-87.39
849.378	-33.76
849.548	-25.99
849.718	-23.2
849.887	-0.15
850.057	-19.03
850.227	-75.78
850.397	-114.2
850.567	-239.1
850.737	-572.17
850.906	-1667.5
851.076	-1173.44
851.246	-612.04
851.415	-115.99
851.585	-69
851.755	-97.87
851.924	-20.21
852.094	-72.81
852.264	-171.02
852.433	-1398.08
852.603	-316.09
852.772	-322.18
852.942	-139.7
853.111	-122.58
853.281	-44.15
853.45	22.33
853.62	-68.28
853.789	-61.19
853.959	-10.69
854.128	-15.51
854.297	-94.61
854.467	-96.49
854.636	-118.17
854.805	-85.19
854.975	-136.18
855.144	-252.88
855.313	-370.63
855.482	-533.58
855.652	-236.27
855.821	-162.79
855.99	-1.36
856.159	4.95
856.328	-3.7
856.497	-10.57
856.667	-19.94
856.836	-25.43
857.005	-51.84
857.174	-67.66
857.343	-93.41
857.512	-68.15
857.681	-140.43
857.85	-178.98
858.019	-96.25
858.188	-99.15
858.356	-117.48
858.525	-192.69
858.694	-156.64
858.863	-299.79
859.032	-209.52
859.201	-277.89
859.369	-139.03
859.538	-149.15
859.707	-149.38
859.876	-182.57
860.044	-160.11
860.213	-30.88
860.382	-34.6
860.55	-7.33
860.719	20.73
860.888	36.58
861.056	-0.18
861.225	-9.26
861.393	35.65
861.562	25.29
861.73	-77.15
861.899	-261.78
862.067	-2127.59
862.236	-134.83
862.404	-323.05
862.572	-158.8
862.741	-54.98
862.909	-45.95
863.078	-207.88
863.246	-144.94
863.414	-145.56
863.582	-99.6
863.751	-139.26
863.919	-92.15
864.087	-37.32
864.255	-59.11
864.424	-481.27
864.592	-104.92
864.76	-146.51
864.928	-301.6
865.096	-163.06
865.264	-124.26
865.432	-1265.91
865.6	-26.5
865.768	-137.91
865.936	-185.58
866.104	-191.54
866.272	-221.88
866.44	-440.16
866.608	632.07
866.776	181.2
866.944	1706.98
867.112	-422.88
867.28	-212.17
867.448	-50.12
867.615	-20.33
867.783	-0.19
867.951	-22.3
868.119	22.53
868.286	-41.58
868.454	-189.11
868.622	-210.98
868.789	-243.23
868.957	-4750
869.125	-2634.21
869.292	-171.5
869.46	-229.38
869.627	-30.2
869.795	-70.32
869.963	-36.96
870.13	-3.74
870.298	-2.86
870.465	-108.31
870.632	-105.38
870.8	-112.35
870.967	-213.6
871.135	-274.13
871.302	-215.15
871.469	-240.04
871.637	-297.51
871.804	-165.29
871.971	-226.88
872.139	-630.23
872.306	-74.34
872.473	-101.18
872.64	-366.52
872.807	-154.55
872.975	-44.21
873.142	-373.82
873.309	2413.51
873.476	-24.44
873.643	44.66
873.81	11.74
873.977	43.19
874.144	50
874.311	-65.41
874.478	-128.98
874.645	-151.38
874.812	-93.88
874.979	-37.84
875.146	-46.97
875.313	-66.89
875.48	26.91
875.647	-13.08
875.813	-79.93
875.98	-75.26
876.147	-104.04
876.314	-220.27
876.481	1392.56
876.647	-1728.09
876.814	621.24
876.981	-28.46
877.147	-35.46
877.314	-21.33
877.481	13.98
877.647	36.19
877.814	-9.42
877.98	-72.6
878.147	-7.4
878.314	62.6
878.48	9
878.647	32.83
878.813	89.82
878.979	74.79
879.146	-22.98
879.312	-27.12
879.479	-138.87
879.645	-262.77
879.811	-453.94
879.978	-933.59
880.144	-261.8
880.31	-114.04
880.477	-374.47
880.643	-503.52
880.809	-277.59
880.975	-217.57
881.142	-1450
881.308	-165.63
881.474	-37.58
881.64	-1.55
881.806	-87.47
881.972	7.06
882.138	15.52
882.304	14.12
882.47	-130.24
882.636	-621.31
882.802	-216.56
882.968	-75.78
883.134	-73.91
883.3	-78.43
883.466	9.97
883.632	50.22
883.798	11.44
883.964	0.11
884.129	10.29
884.295	18.93
884.461	-81.93
884.627	-81.31
884.793	-100.44
884.958	-49.44
885.124	-163.34
885.29	-241.39
885.455	-484.47
885.621	-122.43
885.787	-227.25
885.952	-131.08
886.118	-130.55
886.283	-110.57
886.449	-248.47
886.614	-258.57
886.78	-430
886.945	1670.49
887.111	-798.84
887.276	-693.18
887.442	-1264.55
887.607	-690.09
887.773	-481.21
887.938	-476.76
888.103	-421.36
888.269	-191.27
888.434	-260.54
888.599	-70.14
888.764	66.41
888.93	-4.48
889.095	-65.52
889.26	-132.56
889.425	-103.56
889.59	-108.76
889.756	-125.18
889.921	-47.74
890.086	64.54
890.251	45.81
890.416	-116.48
890.581	-970.97
890.746	83.21
890.911	511.46
891.076	241.17
891.241	-538.81
891.406	-23.75
891.571	-115.64
891.736	-373.85
891.901	-567.26
892.065	724.18
892.23	166.89
892.395	286.89
892.56	380.35
892.725	-550
892.889	-1285.37
893.054	-283.6
893.219	-126.5
893.384	-79.65
893.548	-158.14
893.713	-190.23
893.878	-129.44
