Data from Ofra_PS_T2_1A_1GT43_Reflection_1.txt Node
Date: Wed Jul 21 17:49:32 EDT 2021
User: Adam
Spectrometer: FLMT01687
Trigger mode: 0
Integration Time (sec): 1.100000E0
Scans to average: 2
Electric dark correction enabled: true
Nonlinearity correction enabled: false
Boxcar width: 2
XAxis mode: Wavelengths
Number of Pixels in Spectrum: 3648
>>>>>Begin Spectral Data<<<<<
179.494	654.6
179.716	756
179.937	671.82
180.158	675.56
180.38	1087.03
180.601	337.71
180.823	35.87
181.044	-138.27
181.265	-108.64
181.486	-50.07
181.708	61.49
181.929	929.08
182.15	-413.03
182.372	91.47
182.593	-49.91
182.814	19.75
183.035	105.52
183.257	56.28
183.478	-27.29
183.699	55.67
183.92	22.75
184.141	12.9
184.363	-47.9
184.584	3.55
184.805	13.94
185.026	53.27
185.247	48.05
185.468	42.4
185.689	55.84
185.91	39.3
186.132	17.72
186.353	11.75
186.574	27.67
186.795	13.51
187.016	-35.35
187.237	-49.28
187.458	-98
187.679	-66.3
187.9	-46.3
188.121	-31.07
188.342	-27.47
188.563	46.65
188.784	62.94
189.005	59.27
189.226	93.03
189.447	68.17
189.667	-152.55
189.888	-339.53
190.109	-1335.39
190.33	-647.9
190.551	-1162.17
190.772	-213.38
190.993	-196
191.214	-209.44
191.434	-151.71
191.655	-42.98
191.876	-137.34
192.097	-163.51
192.318	-148.62
192.538	-254.03
192.759	-194.42
192.98	-71.53
193.201	-36.22
193.421	-22.23
193.642	6.7
193.863	25.97
194.083	-10.09
194.304	-8.31
194.525	0.25
194.745	-5.77
194.966	-46.22
195.187	-32.02
195.407	-50.33
195.628	-121.31
195.848	-129.17
196.069	-112.82
196.29	-51.78
196.51	-62.65
196.731	-44.11
196.951	-58.74
197.172	-60.79
197.392	-105.15
197.613	-104.57
197.833	-158.71
198.054	-122.9
198.274	-63.39
198.495	-80
198.715	-40.48
198.936	-36.05
199.156	-39.7
199.377	-178.16
199.597	-159.08
199.817	-162.17
200.038	-63.52
200.258	-111.95
200.479	-22.02
200.699	26.63
200.919	56.15
201.14	-0.61
201.36	14.24
201.58	44.5
201.801	65.53
202.021	43.15
202.241	42.56
202.461	31.47
202.682	-56.01
202.902	-161.47
203.122	-101.28
203.342	-61.85
203.563	-11.8
203.783	22.45
204.003	-0.53
204.223	-17.19
204.443	41.06
204.663	12.47
204.884	9.5
205.104	73.94
205.324	105.55
205.544	62.8
205.764	81.27
205.984	93.79
206.204	88.32
206.424	75.95
206.644	53.59
206.864	45.75
207.084	-3.45
207.304	-39.44
207.525	-202.27
207.745	-102.3
207.964	-46.26
208.184	-96.28
208.404	-133.58
208.624	-130.67
208.844	-104.81
209.064	-372.41
209.284	-308.35
209.504	-111.87
209.724	13.41
209.944	15.9
210.164	42.16
210.384	48.64
210.604	36.93
210.823	-0.2
211.043	-47.83
211.263	-54.96
211.483	-47.74
211.703	-105.67
211.922	-104.97
212.142	-16.7
212.362	16.36
212.582	-2.22
212.801	7.04
213.021	-8.93
213.241	-11.41
213.461	-66.41
213.68	-99.45
213.9	-61.74
214.12	-26.44
214.339	-111.31
214.559	-79.51
214.779	-19.51
214.998	-6.45
215.218	-53.69
215.438	3.07
215.657	4.23
215.877	6.5
216.096	1.82
216.316	3.3
216.535	-23.38
216.755	-32.92
216.974	-127.9
217.194	-182.38
217.413	-166.14
217.633	-173.3
217.852	-288.34
218.072	-121.77
218.291	-49.75
218.511	1.71
218.73	-14.39
218.95	-14.12
219.169	-17.99
219.389	-65.57
219.608	-57.5
219.827	-42.92
220.047	-22.01
220.266	-20.74
220.485	-8.44
220.705	6.84
220.924	-25.31
221.143	16.34
221.363	-9.31
221.582	-1.32
221.801	7.99
222.021	24.29
222.24	-72.8
222.459	38.86
222.678	0.55
222.897	-115.7
223.117	-151.15
223.336	-102.41
223.555	-98.24
223.774	-35.18
223.993	29.5
224.213	102.48
224.432	72.88
224.651	69.31
224.87	21.39
225.089	27.55
225.308	6.88
225.527	20.11
225.746	2.82
225.965	-9.98
226.184	-36.73
226.404	-7.75
226.623	-20.62
226.842	-2.49
227.061	32.69
227.28	28.61
227.499	12.18
227.718	23.5
227.936	9.36
228.155	4.08
228.374	-12.84
228.593	-0.63
228.812	-10.63
229.031	-8.72
229.25	-51.9
229.469	-50.65
229.688	-52.83
229.907	-17.54
230.125	2.59
230.344	14.41
230.563	27.59
230.782	41.28
231.001	-48.02
231.22	-49.86
231.438	-5.28
231.657	-5.6
231.876	-15.94
232.095	47.87
232.313	57.93
232.532	14.37
232.751	-10.77
232.969	-30.61
233.188	-91.53
233.407	-54.68
233.625	-15.34
233.844	-37.96
234.063	-21.62
234.281	-3.69
234.5	-0.15
234.719	-1.09
234.937	36.33
235.156	36.47
235.374	29.99
235.593	5.59
235.811	0.3
236.03	-11.22
236.249	-59.98
236.467	-35.61
236.686	-1.47
236.904	3.68
237.123	-23.7
237.341	-10.8
237.559	0.43
237.778	-22.51
237.996	-29.99
238.215	9.02
238.433	32.85
238.652	9.66
238.87	-0.93
239.088	16.18
239.307	9.74
239.525	-10.57
239.743	-32.29
239.962	-12.09
240.18	-62.03
240.398	-111.34
240.617	-111.63
240.835	-93.31
241.053	-67.42
241.271	22.09
241.49	38.13
241.708	-3.34
241.926	-17.23
242.144	-13.19
242.363	-99.16
242.581	-129.72
242.799	-57.28
243.017	-14.59
243.235	-47.12
243.453	-17.83
243.672	-20.18
243.89	-5.15
244.108	-31.04
244.326	7.79
244.544	17.89
244.762	23.7
244.98	18.44
245.198	39.91
245.416	2.53
245.634	-4.53
245.852	-28.5
246.07	-44.31
246.288	-37.88
246.506	-61.86
246.724	-48.06
246.942	-12.44
247.16	28.77
247.378	14.29
247.596	36.12
247.814	16.37
248.032	-7.56
248.25	-7.83
248.468	9.5
248.685	23.87
248.903	56.75
249.121	49.18
249.339	0.74
249.557	-8.72
249.775	-9.41
249.992	-85.97
250.21	-75.93
250.428	-42.67
250.646	-74.33
250.863	-90.71
251.081	-53.58
251.299	-41.22
251.517	-28.33
251.734	-17.58
251.952	-12.96
252.17	-18.97
252.387	-7.88
252.605	-19.81
252.823	-3.02
253.04	7.68
253.258	28.53
253.475	20.29
253.693	25.98
253.911	15.68
254.128	10.9
254.346	1.21
254.563	-12.81
254.781	-45.6
254.998	-85.34
255.216	-101.33
255.433	-78.44
255.651	-21.74
255.868	39.36
256.086	72.69
256.303	85.41
256.521	52.62
256.738	17.56
256.956	-16.19
257.173	-11.53
257.39	-29.92
257.608	-45.45
257.825	-2.22
258.043	46.62
258.26	31.21
258.477	65.13
258.695	66.17
258.912	4.9
259.129	-8.56
259.346	-54.95
259.564	-116.38
259.781	-135.22
259.998	-30.43
260.216	-3.84
260.433	54.38
260.65	67.97
260.867	65.17
261.084	31.07
261.302	-0.62
261.519	-34.89
261.736	-54.2
261.953	-51.03
262.17	-12.94
262.387	-20.48
262.604	-63.81
262.822	-92.45
263.039	-79.39
263.256	-134.34
263.473	-93.31
263.69	-40.59
263.907	13.16
264.124	23.68
264.341	24.79
264.558	12.83
264.775	24.28
264.992	-0.97
265.209	-0.97
265.426	23.19
265.643	20.98
265.86	21.81
266.077	30.15
266.294	31.66
266.51	-19.48
266.727	-22.66
266.944	-17.81
267.161	-40.06
267.378	-57.86
267.595	-14.99
267.812	-26.49
268.028	-38.43
268.245	7.56
268.462	-20.09
268.679	-26.67
268.896	15.6
269.112	18.89
269.329	10.24
269.546	27.92
269.763	10.48
269.979	-14.84
270.196	-17.17
270.413	-58.85
270.629	-87.77
270.846	-79.92
271.063	-70.08
271.279	-96.19
271.496	-74.36
271.712	-22.82
271.929	-6.81
272.146	-31.08
272.362	-12.75
272.579	38.25
272.795	32.59
273.012	30.6
273.228	44.66
273.445	16.78
273.661	-44.16
273.878	-78.46
274.094	-69.79
274.311	-109.1
274.527	-24.44
274.744	-6.8
274.96	-11.09
275.177	-9.7
275.393	19.65
275.609	0.79
275.826	26.09
276.042	18.89
276.259	33.6
276.475	50.39
276.691	58.35
276.908	24.11
277.124	47.25
277.34	32.25
277.557	9.2
277.773	-9.6
277.989	-0.13
278.205	-9.83
278.422	-1.46
278.638	7.02
278.854	39.11
279.07	49.98
279.286	34.89
279.503	12.86
279.719	-9.5
279.935	-86.26
280.151	-102.47
280.367	-59.61
280.583	-75.24
280.799	-59.92
281.016	-53.95
281.232	-35.11
281.448	-43.55
281.664	-9.58
281.88	-31.59
282.096	-7.52
282.312	17
282.528	23.73
282.744	12.96
282.96	20.65
283.176	26.86
283.392	20.84
283.608	10.65
283.824	11.8
284.04	21.47
284.256	17.73
284.471	3.86
284.687	5.42
284.903	8.58
285.119	23.65
285.335	7.78
285.551	21.86
285.767	-4.07
285.982	-2.18
286.198	-46.94
286.414	-1.77
286.63	-3.12
286.846	45.49
287.061	23.84
287.277	60.34
287.493	36.99
287.709	54.54
287.924	20.25
288.14	47.37
288.356	38.34
288.571	51.66
288.787	20.28
289.003	21.67
289.218	1.67
289.434	-53.01
289.65	-48.45
289.865	-44.79
290.081	-18.95
290.296	-8.32
290.512	21.36
290.727	-8.92
290.943	-23.98
291.159	-53.03
291.374	-43.2
291.59	-62.08
291.805	-48.85
292.021	-25.68
292.236	-21.62
292.451	-15.83
292.667	-10.03
292.882	-1.87
293.098	-5.77
293.313	-0.41
293.529	-13.47
293.744	-23.43
293.959	-32.05
294.175	-27.65
294.39	5.28
294.605	21.87
294.821	46.79
295.036	49.72
295.251	62.82
295.467	24.9
295.682	14.34
295.897	-41.32
296.112	-57.7
296.328	-62.57
296.543	-74.52
296.758	-71.89
296.973	-18.32
297.188	19.38
297.404	-21.47
297.619	-13.1
297.834	-20.18
298.049	-26.27
298.264	-53.05
298.479	7.86
298.694	2.66
298.909	18.79
299.125	17.74
299.34	35.47
299.555	12.66
299.77	38.76
299.985	-4.41
300.2	-54.33
300.415	-79.22
300.63	-35.7
300.845	-52.94
301.06	-53.1
301.275	-10.37
301.49	6.43
301.704	-30.12
301.919	-40.98
302.134	-45.66
302.349	-56.02
302.564	-126.75
302.779	-119.47
302.994	-82.17
303.209	-48.31
303.423	17.35
303.638	66.05
303.853	11.04
304.068	-3.47
304.283	-1.12
304.497	-20.21
304.712	-44.9
304.927	-17.73
305.142	-25.97
305.356	-15.6
305.571	-18.58
305.786	-24.56
306	-38.35
306.215	-19.91
306.43	-52.44
306.644	-29.54
306.859	40.61
307.074	29.96
307.288	-5.68
307.503	11.3
307.717	-13.62
307.932	-25.15
308.147	-30.62
308.361	-11.51
308.576	-16.96
308.79	-59.57
309.005	-53.15
309.219	-29.05
309.434	-26.17
309.648	-34.53
309.863	1.14
310.077	0.57
310.292	9.42
310.506	3.85
310.72	9.43
310.935	-4.78
311.149	-7.1
311.364	12.67
311.578	32.02
311.792	22.99
312.007	33.34
312.221	20.02
312.435	13.34
312.649	-5.27
312.864	46.71
313.078	76.64
313.292	140.31
313.507	121.75
313.721	142.98
313.935	38.32
314.149	10.4
314.363	-6.39
314.578	-1.37
314.792	6.29
315.006	-6.15
315.22	8.55
315.434	14.25
315.648	14.86
315.862	7.58
316.077	5.45
316.291	-6.08
316.505	10.24
316.719	18.61
316.933	-16.84
317.147	11.22
317.361	-17.49
317.575	-57.27
317.789	-90.77
318.003	-113.03
318.217	-93.73
318.431	-10.27
318.645	37.67
318.859	24.63
319.073	52.53
319.287	34.61
319.5	-14.16
319.714	-69.76
319.928	-93.86
320.142	-116.7
320.356	-43.97
320.57	1.88
320.784	-7.07
320.997	3.49
321.211	-16.05
321.425	-106.51
321.639	-138.11
321.853	-60.11
322.066	-46.31
322.28	-38.01
322.494	-11.53
322.707	12.42
322.921	-5.54
323.135	-7.2
323.349	14.03
323.562	-9.28
323.776	-23.32
323.989	-15.15
324.203	-27.69
324.417	-47.65
324.63	-54.27
324.844	-42.98
325.057	-53.33
325.271	-28.65
325.485	-8.56
325.698	13.02
325.912	13.57
326.125	-4.74
326.339	-4.65
326.552	-21.79
326.766	-22.23
326.979	-3.63
327.193	39.42
327.406	21.86
327.619	6.88
327.833	11.22
328.046	-9.53
328.26	-53.67
328.473	-19.75
328.686	-31.87
328.9	-17.51
329.113	-2.55
329.326	-21.54
329.54	-18.26
329.753	-18.69
329.966	-61.73
330.179	-71.74
330.393	-35.84
330.606	-32.85
330.819	-15.1
331.032	8.99
331.246	19.48
331.459	47.41
331.672	37.71
331.885	18.3
332.098	-8.02
332.311	-21.07
332.525	-88.11
332.738	-60.97
332.951	-1.69
333.164	28.83
333.377	41.49
333.59	65.01
333.803	53.28
334.016	42.68
334.229	21.64
334.442	30.55
334.655	38.76
334.868	51.63
335.081	27.44
335.294	26.92
335.507	6.69
335.72	-6.58
335.933	-6.96
336.146	-8.13
336.359	6.85
336.572	-23.34
336.785	-50.82
336.997	-65.41
337.21	-26.69
337.423	-47.89
337.636	-40.75
337.849	-14.66
338.062	-7.69
338.274	-7.32
338.487	-2.77
338.7	0.86
338.913	-43.15
339.125	-68.96
339.338	-114.82
339.551	-104.83
339.763	-64.77
339.976	-30.25
340.189	-14.73
340.402	-11.34
340.614	-6.87
340.827	-18.18
341.039	-25.96
341.252	-9.51
341.465	21.52
341.677	13.84
341.89	-10.86
342.102	5.43
342.315	-11.92
342.527	-56.83
342.74	-46.72
342.952	-14.83
343.165	-30.04
343.377	1.28
343.59	-7.9
343.802	16.78
344.015	25.12
344.227	64.67
344.44	39.15
344.652	43.58
344.864	19.04
345.077	30.47
345.289	18.19
345.502	28.38
345.714	20.19
345.926	34.88
346.139	25.77
346.351	29.51
346.563	37.7
346.775	45.82
346.988	34.49
347.2	11.42
347.412	-33
347.624	-69.53
347.837	-86.95
348.049	-85.99
348.261	-27.02
348.473	-4.24
348.685	-13.45
348.897	-24.4
349.11	-31.14
349.322	-59.67
349.534	-51.36
349.746	-34.76
349.958	-14.4
350.17	5.08
350.382	8.87
350.594	3.86
350.806	16.57
351.018	21.08
351.23	5.09
351.442	-28.12
351.654	-14.73
351.866	-10.3
352.078	-17.34
352.29	4.11
352.502	24.46
352.714	20.78
352.926	2.08
353.138	13.2
353.35	-4.96
353.561	-6.97
353.773	-15.6
353.985	-0.92
354.197	-19.98
354.409	-15.64
354.621	-32.4
354.832	-23.5
355.044	-33.14
355.256	-27.01
355.468	-14.33
355.679	-10.47
355.891	-7.78
356.103	-21.55
356.314	-18.88
356.526	-19.71
356.738	-5.73
356.949	-22.14
357.161	7.69
357.373	6.16
357.584	-5.6
357.796	-3.28
358.008	-2.89
358.219	3.95
358.431	-7.92
358.642	7.15
358.854	6.38
359.065	-0.12
359.277	-38.82
359.488	-34.32
359.7	-70.99
359.911	-85.13
360.123	-47.73
360.334	-46.88
360.546	-53.22
360.757	-48.67
360.969	-25.65
361.18	-34.37
361.391	-8.44
361.603	-24.03
361.814	-10.05
362.025	-24.5
362.237	-17.86
362.448	-0.98
362.659	32.67
362.871	27.21
363.082	30.53
363.293	20.24
363.504	-6.2
363.716	-30.5
363.927	-39.52
364.138	-65.15
364.349	-83.46
364.56	-64.28
364.772	-59.02
364.983	-22.54
365.194	-10.08
365.405	15.19
365.616	32.31
365.827	41.59
366.038	8.18
366.25	-3.54
366.461	-38.75
366.672	-21.81
366.883	-1.76
367.094	11.7
367.305	0.15
367.516	1.88
367.727	-31.03
367.938	-54.28
368.149	-59.2
368.36	-28
368.571	-13.35
368.781	-24.16
368.992	-33.67
369.203	-44.21
369.414	-71.63
369.625	-80.83
369.836	-66.19
370.047	-93.66
370.258	-82.45
370.468	-80.51
370.679	-86.4
370.89	-89.55
371.101	-56.88
371.312	-62.37
371.522	-47.42
371.733	-41.77
371.944	-27.82
372.155	-17.44
372.365	-24.04
372.576	-28.23
372.787	-28.45
372.997	-41.4
373.208	-43.61
373.419	2.01
373.629	-26.79
373.84	-26.1
374.05	-32.35
374.261	-25.65
374.472	-51.98
374.682	0.17
374.893	-5.47
375.103	28
375.314	18.15
375.524	14.99
375.735	9.97
375.945	17.7
376.156	-3.78
376.366	4.96
376.577	-1.8
376.787	-7.06
376.997	3.55
377.208	-6.67
377.418	-25.51
377.629	-7.66
377.839	-18.72
378.049	-19.71
378.26	3.44
378.47	17.54
378.68	4.95
378.89	8.28
379.101	4.3
379.311	-29.4
379.521	-59.16
379.732	-50.3
379.942	-48.09
380.152	-69.56
380.362	-28.16
380.572	-32.1
380.783	-14.84
380.993	-5.17
381.203	3.12
381.413	2.54
381.623	21.84
381.833	13.86
382.043	5.77
382.253	4.41
382.463	2.06
382.674	-10.02
382.884	-32.28
383.094	-25.35
383.304	-19.46
383.514	-11.28
383.724	0.36
383.934	2.48
384.144	-8.93
384.353	-16.91
384.563	-20.15
384.773	-19.08
384.983	-25.12
385.193	-10.94
385.403	-4.67
385.613	-3.17
385.823	-14.52
386.033	-1.79
386.242	-8.44
386.452	-13.13
386.662	-26.9
386.872	-7.97
387.082	-16.57
387.291	-22.42
387.501	-20.68
387.711	-7.88
387.921	-19.86
388.13	-16.97
388.34	0.59
388.55	-2.44
388.759	-0.09
388.969	6.34
389.179	7.68
389.388	3.5
389.598	7.9
389.807	-5.43
390.017	-11.34
390.227	-9.46
390.436	-14.88
390.646	-13.55
390.855	-5.23
391.065	-0.1
391.274	-3.77
391.484	-3.9
391.693	-0.52
391.903	1.93
392.112	4.83
392.322	9.08
392.531	11.64
392.74	8.7
392.95	3
393.159	-0.89
393.369	-1.6
393.578	-1.57
393.787	-2.06
393.997	0.38
394.206	-1.2
394.415	-1.7
394.625	-2.44
394.834	-2.5
395.043	-2.04
395.252	0.99
395.462	3.63
395.671	5.77
395.88	5.92
396.089	5.43
396.298	3.85
396.508	3.3
396.717	1.64
396.926	2.17
397.135	2.89
397.344	3.13
397.553	3.17
397.762	5.13
397.971	4.87
398.181	4.64
398.39	4.24
398.599	3.27
398.808	2.38
399.017	3.46
399.226	4.49
399.435	5.49
399.644	5.77
399.853	5.33
400.062	4.43
400.27	3.53
400.479	3.03
400.688	2.77
400.897	2.9
401.106	3.02
401.315	3.03
401.524	3.14
401.733	3.48
401.941	3.94
402.15	4.15
402.359	3.97
402.568	4.14
402.777	4.22
402.985	3.98
403.194	3.82
403.403	3.89
403.612	3.57
403.82	3.25
404.029	3.17
404.238	3.13
404.446	3.39
404.655	3.01
404.864	3.04
405.072	3.01
405.281	3.1
405.489	2.83
405.698	3.01
405.906	2.99
406.115	2.91
406.324	2.7
406.532	2.86
406.741	3.1
406.949	3.09
407.158	3.01
407.366	3.04
407.574	2.84
407.783	2.8
407.991	2.53
408.2	2.82
408.408	2.84
408.617	2.87
408.825	2.62
409.033	2.78
409.242	2.73
409.45	2.69
409.658	2.64
409.867	2.91
410.075	2.76
410.283	2.59
410.491	2.6
410.7	2.51
410.908	2.47
411.116	2.86
411.324	2.9
411.533	2.79
411.741	3.12
411.949	3.15
412.157	2.81
412.365	2.83
412.573	2.89
412.781	2.92
412.99	2.8
413.198	3.09
413.406	3.13
413.614	3.23
413.822	2.91
414.03	2.83
414.238	2.56
414.446	2.51
414.654	2.11
414.862	2.24
415.07	2.37
415.278	2.62
415.486	2.43
415.694	2.74
415.902	2.61
416.109	2.53
416.317	2.36
416.525	2.31
416.733	2.3
416.941	2.44
417.149	2.19
417.357	2.29
417.564	2.59
417.772	2.73
417.98	2.67
418.188	2.79
418.395	2.82
418.603	2.84
418.811	2.41
419.019	2.45
419.226	2.73
419.434	2.73
419.642	2.52
419.849	2.79
420.057	2.73
420.265	2.62
420.472	2.37
420.68	2.34
420.887	2.11
421.095	2.15
421.302	2.08
421.51	2.34
421.717	2.5
421.925	2.87
422.132	2.73
422.34	2.64
422.547	2.68
422.755	2.58
422.962	2.46
423.17	2.47
423.377	2.46
423.585	2.35
423.792	2.27
423.999	2.25
424.207	2.31
424.414	2.5
424.621	2.57
424.829	2.53
425.036	2.39
425.243	2.54
425.451	2.28
425.658	2.08
425.865	2.47
426.072	2.48
426.28	2.61
426.487	2.6
426.694	2.8
426.901	2.46
427.108	2.46
427.315	2.22
427.523	2.54
427.73	2.38
427.937	2.3
428.144	2.21
428.351	2.27
428.558	2.38
428.765	2.33
428.972	2.36
429.179	2.65
429.386	2.82
429.593	2.53
429.8	2.55
430.007	2.59
430.214	2.6
430.421	2.33
430.628	2.21
430.835	2.09
431.042	2.29
431.249	2.3
431.456	2.32
431.662	2.44
431.869	2.54
432.076	2.58
432.283	2.63
432.49	2.56
432.697	2.67
432.903	2.47
433.11	2.33
433.317	2.32
433.524	2.52
433.73	2.33
433.937	2.62
434.144	2.58
434.35	2.47
434.557	2.36
434.764	2.34
434.97	2.15
435.177	2.32
435.384	2.22
435.59	2.24
435.797	2.58
436.003	2.75
436.21	2.76
436.416	2.93
436.623	3.02
436.829	2.88
437.036	3.04
437.242	3.03
437.449	2.95
437.655	2.87
437.862	2.93
438.068	2.83
438.275	2.9
438.481	3.15
438.687	3.14
438.894	3.07
439.1	3.11
439.307	3.2
439.513	2.96
439.719	3.09
439.926	3.2
440.132	3.13
440.338	2.94
440.544	3.21
440.751	3.11
440.957	3.16
441.163	3.05
441.369	3.08
441.575	2.77
441.782	2.7
441.988	2.48
442.194	2.6
442.4	2.62
442.606	2.99
442.812	3.13
443.018	3.33
443.224	3.32
443.431	3.51
443.637	3.23
443.843	3.07
444.049	3.03
444.255	3.03
444.461	2.87
444.667	2.8
444.873	3.09
445.079	3.01
445.284	3.07
445.49	2.94
445.696	2.89
445.902	2.69
446.108	2.67
446.314	2.59
446.52	2.75
446.726	3.03
446.931	3.03
447.137	3.12
447.343	3.28
447.549	3.11
447.755	2.98
447.96	3.14
448.166	3.03
448.372	2.87
448.578	3.02
448.783	3.06
448.989	3.11
449.195	3.38
449.4	3.46
449.606	3.37
449.812	3.27
450.017	3.2
450.223	3.02
450.428	2.91
450.634	3.02
450.84	3.18
451.045	3.12
451.251	3.05
451.456	3.39
451.662	3.5
451.867	3.54
452.073	3.56
452.278	3.73
452.483	3.69
452.689	3.53
452.894	3.51
453.1	3.57
453.305	3.53
453.51	3.49
453.716	3.45
453.921	3.51
454.127	3.41
454.332	3.3
454.537	3.12
454.742	3.2
454.948	3.15
455.153	3.17
455.358	3.26
455.563	3.56
455.769	3.62
455.974	3.61
456.179	3.52
456.384	3.5
456.589	3.33
456.795	3.16
457	3.13
457.205	3.43
457.41	3.33
457.615	3.25
457.82	3.29
458.025	3.27
458.23	3.08
458.435	3.17
458.64	3.13
458.845	3.26
459.05	3.19
459.255	3.21
459.46	3.23
459.665	3.27
459.87	3.23
460.075	3.31
460.28	3.38
460.485	3.42
460.69	3.47
460.895	3.34
461.099	3.34
461.304	3.36
461.509	3.38
461.714	3.27
461.919	3.47
462.123	3.4
462.328	3.51
462.533	3.46
462.738	3.64
462.942	3.56
463.147	3.67
463.352	3.65
463.556	3.6
463.761	3.62
463.966	3.63
464.17	3.65
464.375	3.5
464.58	3.55
464.784	3.45
464.989	3.31
465.193	3.34
465.398	3.39
465.602	3.52
465.807	3.52
466.011	3.7
466.216	3.7
466.42	3.72
466.625	3.69
466.829	3.81
467.034	3.76
467.238	3.95
467.443	3.9
467.647	3.77
467.851	3.87
468.056	4.02
468.26	3.86
468.464	3.93
468.669	4.15
468.873	4.3
469.077	4.27
469.282	4.4
469.486	4.48
469.69	4.44
469.894	4.19
470.099	4.2
470.303	4.22
470.507	4.06
470.711	3.96
470.915	3.98
471.119	3.83
471.324	3.79
471.528	3.83
471.732	3.97
471.936	3.99
472.14	4.18
472.344	4.2
472.548	4.31
472.752	4.51
472.956	4.78
473.16	4.74
473.364	4.67
473.568	4.62
473.772	4.5
473.976	4.31
474.18	4.3
474.384	4.34
474.588	4.37
474.792	4.28
474.995	4.43
475.199	4.57
475.403	4.68
475.607	4.69
475.811	4.75
476.015	4.69
476.218	4.68
476.422	4.6
476.626	4.73
476.83	4.83
477.033	4.82
477.237	4.7
477.441	4.81
477.644	4.76
477.848	4.75
478.052	4.71
478.255	4.71
478.459	4.71
478.663	4.9
478.866	4.93
479.07	4.98
479.273	5.21
479.477	5.22
479.681	5.11
479.884	5.01
480.088	4.94
480.291	4.88
480.495	4.92
480.698	4.9
480.901	5.04
481.105	5.22
481.308	5.17
481.512	5.08
481.715	5.1
481.919	5.12
482.122	5.08
482.325	5.1
482.529	5.27
482.732	5.32
482.935	5.2
483.138	5.14
483.342	5.26
483.545	5.27
483.748	5.3
483.952	5.41
484.155	5.58
484.358	5.5
484.561	5.44
484.764	5.38
484.967	5.46
485.171	5.51
485.374	5.52
485.577	5.65
485.78	5.71
485.983	5.64
486.186	5.48
486.389	5.4
486.592	5.34
486.795	5.38
486.998	5.33
487.201	5.41
487.404	5.57
487.607	5.61
487.81	5.61
488.013	5.71
488.216	5.7
488.419	5.67
488.622	5.64
488.825	5.57
489.028	5.52
489.231	5.5
489.433	5.46
489.636	5.38
489.839	5.43
490.042	5.38
490.245	5.36
490.447	5.44
490.65	5.51
490.853	5.47
491.056	5.54
491.258	5.53
491.461	5.53
491.664	5.6
491.866	5.62
492.069	5.67
492.272	5.63
492.474	5.58
492.677	5.59
492.879	5.62
493.082	5.64
493.285	5.8
493.487	5.81
493.69	5.74
493.892	5.68
494.095	5.68
494.297	5.65
494.5	5.69
494.702	5.74
494.905	5.79
495.107	5.75
495.309	5.78
495.512	5.83
495.714	5.81
495.917	5.89
496.119	5.94
496.321	5.97
496.524	5.98
496.726	5.99
496.928	6
497.13	5.95
497.333	5.93
497.535	5.93
497.737	5.97
497.939	5.92
498.142	6.05
498.344	6.03
498.546	5.93
498.748	5.98
498.95	6.12
499.152	6.04
499.355	6.13
499.557	6.3
499.759	6.46
499.961	6.39
500.163	6.49
500.365	6.47
500.567	6.55
500.769	6.36
500.971	6.42
501.173	6.34
501.375	6.43
501.577	6.3
501.779	6.34
501.981	6.4
502.183	6.46
502.385	6.4
502.587	6.38
502.788	6.47
502.99	6.47
503.192	6.54
503.394	6.57
503.596	6.62
503.798	6.66
503.999	6.75
504.201	6.75
504.403	6.81
504.605	6.87
504.806	6.84
505.008	6.78
505.21	6.84
505.411	6.84
505.613	6.86
505.815	6.89
506.016	7.03
506.218	7.03
506.42	7.07
506.621	7.12
506.823	7.15
507.024	7.09
507.226	7.2
507.427	7.2
507.629	7.28
507.83	7.33
508.032	7.33
508.233	7.32
508.435	7.44
508.636	7.51
508.838	7.48
509.039	7.53
509.24	7.57
509.442	7.55
509.643	7.51
509.845	7.56
510.046	7.68
510.247	7.73
510.448	7.75
510.65	7.79
510.851	7.95
511.052	7.88
511.254	7.81
511.455	7.96
511.656	8.03
511.857	8.04
512.058	8.12
512.26	8.21
512.461	8.16
512.662	8.21
512.863	8.12
513.064	8.11
513.265	8.12
513.466	8.17
513.667	8.09
513.868	8.15
514.069	8.26
514.27	8.37
514.471	8.33
514.672	8.43
514.873	8.45
515.074	8.45
515.275	8.32
515.476	8.35
515.677	8.38
515.878	8.49
516.079	8.48
516.28	8.58
516.481	8.7
516.682	8.7
516.882	8.63
517.083	8.62
517.284	8.6
517.485	8.55
517.686	8.55
517.886	8.56
518.087	8.54
518.288	8.6
518.488	8.55
518.689	8.55
518.89	8.58
519.091	8.7
519.291	8.66
519.492	8.77
519.692	8.84
519.893	8.96
520.094	8.94
520.294	8.96
520.495	8.96
520.695	8.98
520.896	8.93
521.096	8.99
521.297	9.1
521.497	9.1
521.698	9.07
521.898	8.98
522.099	8.98
522.299	9.01
522.499	9.04
522.7	9.1
522.9	9.2
523.101	9.2
523.301	9.2
523.501	9.26
523.702	9.26
523.902	9.35
524.102	9.47
524.302	9.42
524.503	9.47
524.703	9.5
524.903	9.55
525.103	9.44
525.304	9.56
525.504	9.6
525.704	9.62
525.904	9.53
526.104	9.54
526.304	9.56
526.504	9.57
526.705	9.55
526.905	9.69
527.105	9.79
527.305	9.76
527.505	9.68
527.705	9.67
527.905	9.69
528.105	9.67
528.305	9.62
528.505	9.75
528.705	9.93
528.905	9.84
529.105	9.88
529.304	10.03
529.504	10.07
529.704	9.96
529.904	10.03
530.104	10.05
530.304	10.06
530.503	10.03
530.703	10.01
530.903	10.03
531.103	10.05
531.303	10.06
531.502	10.13
531.702	10.21
531.902	10.31
532.101	10.32
532.301	10.32
532.501	10.33
532.7	10.37
532.9	10.37
533.1	10.39
533.299	10.41
533.499	10.44
533.698	10.4
533.898	10.43
534.097	10.46
534.297	10.58
534.496	10.55
534.696	10.63
534.895	10.74
535.095	10.9
535.294	10.84
535.494	10.87
535.693	10.94
535.892	10.95
536.092	10.82
536.291	10.81
536.491	10.93
536.69	11.01
536.889	10.96
537.088	11
537.288	11.12
537.487	11.16
537.686	11.15
537.886	11.23
538.085	11.3
538.284	11.41
538.483	11.42
538.682	11.51
538.882	11.5
539.081	11.56
539.28	11.47
539.479	11.47
539.678	11.45
539.877	11.63
540.076	11.72
540.275	11.8
540.474	11.95
540.673	12.02
540.872	11.93
541.071	11.96
541.27	12.02
541.469	12.04
541.668	12.04
541.867	12.12
542.066	12.21
542.265	12.32
542.464	12.3
542.663	12.37
542.862	12.51
543.06	12.59
543.259	12.62
543.458	12.72
543.657	12.79
543.856	12.79
544.054	12.74
544.253	12.77
544.452	12.82
544.651	12.92
544.849	12.94
545.048	13.08
545.247	13.12
545.445	13.14
545.644	13.17
545.843	13.18
546.041	13.21
546.24	13.36
546.438	13.53
546.637	13.61
546.836	13.9
547.034	14
547.233	14.05
547.431	13.98
547.63	14.05
547.828	14.03
548.027	14.08
548.225	14.14
548.423	14.33
548.622	14.48
548.82	14.49
549.019	14.59
549.217	14.7
549.415	14.79
549.614	14.83
549.812	14.9
550.01	14.96
550.209	15.06
550.407	15.03
550.605	15.1
550.803	15.28
551.002	15.39
551.2	15.44
551.398	15.62
551.596	15.79
551.794	15.85
551.993	15.99
552.191	16.13
552.389	16.31
552.587	16.32
552.785	16.43
552.983	16.51
553.181	16.6
553.379	16.67
553.577	16.77
553.775	16.94
553.973	17.01
554.171	17.13
554.369	17.17
554.567	17.28
554.765	17.33
554.963	17.48
555.161	17.53
555.359	17.66
555.557	17.84
555.755	17.95
555.952	18.08
556.15	18.2
556.348	18.33
556.546	18.39
556.744	18.44
556.941	18.51
557.139	18.64
557.337	18.76
557.535	18.85
557.732	19.01
557.93	19.23
558.128	19.35
558.325	19.5
558.523	19.63
558.721	19.77
558.918	19.81
559.116	19.99
559.313	20.02
559.511	20.19
559.708	20.26
559.906	20.36
560.104	20.45
560.301	20.63
560.498	20.74
560.696	20.93
560.893	21.15
561.091	21.24
561.288	21.36
561.486	21.52
561.683	21.57
561.88	21.69
562.078	21.86
562.275	21.93
562.473	22.03
562.67	22.27
562.867	22.45
563.064	22.63
563.262	22.78
563.459	22.9
563.656	23.07
563.853	23.08
564.051	23.14
564.248	23.25
564.445	23.39
564.642	23.36
564.839	23.59
565.036	23.81
565.234	24.1
565.431	24.21
565.628	24.37
565.825	24.44
566.022	24.52
566.219	24.54
566.416	24.67
566.613	24.77
566.81	24.95
567.007	24.93
567.204	25.05
567.401	25.12
567.598	25.24
567.795	25.12
567.991	25.32
568.188	25.48
568.385	25.64
568.582	25.71
568.779	25.99
568.976	26.05
569.172	26.12
569.369	26.13
569.566	26.22
569.763	26.24
569.96	26.29
570.156	26.34
570.353	26.38
570.55	26.45
570.746	26.45
570.943	26.46
571.14	26.44
571.336	26.5
571.533	26.58
571.729	26.65
571.926	26.75
572.123	26.94
572.319	27.05
572.516	27.01
572.712	27.07
572.909	27.14
573.105	27.05
573.302	27.05
573.498	27.1
573.695	27.1
573.891	27.09
574.087	27.15
574.284	27.1
574.48	27.12
574.677	27.19
574.873	27.26
575.069	27.35
575.266	27.37
575.462	27.29
575.658	27.36
575.854	27.45
576.051	27.4
576.247	27.44
576.443	27.58
576.639	27.49
576.835	27.34
577.032	27.28
577.228	27.45
577.424	27.47
577.62	27.41
577.816	27.49
578.012	27.52
578.208	27.41
578.404	27.41
578.6	27.52
578.796	27.5
578.993	27.49
579.189	27.36
579.384	27.25
579.58	27.23
579.776	27.17
579.972	27.17
580.168	27.22
580.364	27.34
580.56	27.18
580.756	27.21
580.952	27.13
581.148	27.07
581.343	27.06
581.539	27.17
581.735	27.15
581.931	27.21
582.127	27.29
582.322	27.13
582.518	27.11
582.714	27.13
582.909	27.16
583.105	27.14
583.301	27.12
583.496	27.09
583.692	26.98
583.888	26.86
584.083	26.86
584.279	26.9
584.474	26.94
584.67	27.03
584.866	27.12
585.061	26.92
585.257	26.94
585.452	26.93
585.648	26.84
585.843	26.83
586.039	26.99
586.234	26.95
586.429	26.88
586.625	27.02
586.82	26.95
587.015	26.95
587.211	26.89
587.406	26.95
587.601	26.86
587.797	26.89
587.992	26.85
588.187	26.96
588.383	26.87
588.578	26.83
588.773	26.8
588.968	26.83
589.163	26.96
589.359	26.98
589.554	27.01
589.749	27.06
589.944	27.14
590.139	27.07
590.334	27.15
590.529	27.19
590.724	27.31
590.919	27.33
591.114	27.29
591.309	27.37
591.504	27.42
591.699	27.43
591.894	27.51
592.089	27.45
592.284	27.49
592.479	27.62
592.674	27.63
592.869	27.67
593.064	27.87
593.259	27.98
593.454	28.08
593.648	28.16
593.843	28.16
594.038	28.21
594.233	28.16
594.428	28.19
594.622	28.24
594.817	28.48
595.012	28.64
595.206	28.67
595.401	28.69
595.596	28.69
595.79	28.74
595.985	28.85
596.18	29.06
596.374	29.12
596.569	29.28
596.763	29.28
596.958	29.34
597.153	29.44
597.347	29.51
597.542	29.63
597.736	29.66
597.931	29.72
598.125	29.77
598.319	30.02
598.514	30.04
598.708	30.14
598.903	30.22
599.097	30.32
599.291	30.36
599.486	30.34
599.68	30.4
599.874	30.43
600.069	30.49
600.263	30.5
600.457	30.67
600.651	30.74
600.846	30.74
601.04	30.75
601.234	30.76
601.428	30.99
601.622	31.04
601.817	31.12
602.011	31.21
602.205	31.32
602.399	31.19
602.593	31.19
602.787	31.32
602.981	31.24
603.175	31.29
603.369	31.19
603.563	31.32
603.757	31.41
603.951	31.52
604.145	31.34
604.339	31.54
604.533	31.45
604.727	31.27
604.921	31.2
605.115	31.32
605.309	31.33
605.502	31.34
605.696	31.32
605.89	31.21
606.084	31.13
606.278	30.95
606.471	30.86
606.665	30.81
606.859	30.76
607.053	30.58
607.246	30.63
607.44	30.59
607.634	30.41
607.827	30.46
608.021	30.52
608.214	30.35
608.408	30.21
608.602	30.23
608.795	30.01
608.989	29.85
609.182	29.77
609.376	29.77
609.569	29.64
609.763	29.64
609.956	29.55
610.15	29.49
610.343	29.45
610.537	29.34
610.73	29.25
610.923	29.21
611.117	29.09
611.31	28.88
611.504	28.87
611.697	28.78
611.89	28.73
612.083	28.61
612.277	28.68
612.47	28.55
612.663	28.49
612.856	28.4
613.05	28.39
613.243	28.24
613.436	28.15
613.629	28.11
613.822	27.96
614.015	27.71
614.209	27.5
614.402	27.4
614.595	27.29
614.788	27.24
614.981	27.32
615.174	27.23
615.367	27.19
615.56	27.14
615.753	27.09
615.946	26.95
616.139	27
616.332	27.1
616.525	27.05
616.718	27.1
616.911	27.09
617.103	27.06
617.296	26.89
617.489	26.82
617.682	26.64
617.875	26.58
618.067	26.43
618.26	26.31
618.453	26.28
618.646	26.28
618.838	26.33
619.031	26.43
619.224	26.37
619.417	26.34
619.609	26.29
619.802	26.11
619.994	26.01
620.187	26.02
620.38	25.89
620.572	25.74
620.765	25.79
620.957	25.59
621.15	25.53
621.342	25.51
621.535	25.55
621.727	25.46
621.92	25.52
622.112	25.41
622.305	25.43
622.497	25.32
622.69	25.28
622.882	25.23
623.074	25.3
623.267	25.1
623.459	25.12
623.651	25.1
623.844	25.09
624.036	24.97
624.228	25
624.42	24.94
624.613	25.03
624.805	24.96
624.997	25.04
625.189	25.06
625.381	25.06
625.574	24.9
625.766	24.88
625.958	24.79
626.15	24.85
626.342	24.75
626.534	24.67
626.726	24.67
626.918	24.7
627.11	24.51
627.302	24.49
627.494	24.47
627.686	24.4
627.878	24.24
628.07	24.23
628.262	24.28
628.454	24.32
628.646	24.34
628.838	24.47
629.029	24.35
629.221	24.3
629.413	24.1
629.605	23.96
629.797	23.89
629.989	23.97
630.18	23.93
630.372	24
630.564	24.01
630.755	23.95
630.947	23.9
631.139	23.75
631.33	23.56
631.522	23.63
631.714	23.56
631.905	23.53
632.097	23.51
632.289	23.56
632.48	23.42
632.672	23.35
632.863	23.17
633.055	23.17
633.246	23.19
633.438	23.13
633.629	23.09
633.821	23.24
634.012	23.24
634.203	23.13
634.395	23.15
634.586	23.18
634.777	23.03
634.969	22.98
635.16	23.09
635.351	23.08
635.543	23.07
635.734	23.16
635.925	23.16
636.117	23.12
636.308	23.06
636.499	22.99
636.69	22.91
636.881	22.92
637.073	22.94
637.264	22.97
637.455	23.01
637.646	23.08
637.837	23.06
638.028	22.98
638.219	23.08
638.41	22.96
638.601	22.86
638.792	22.91
638.983	22.85
639.174	22.65
639.365	22.79
639.556	22.71
639.747	22.62
639.938	22.69
640.129	22.66
640.32	22.58
640.511	22.61
640.701	22.7
640.892	22.64
641.083	22.71
641.274	22.72
641.465	22.69
641.655	22.5
641.846	22.46
642.037	22.42
642.228	22.28
642.418	22.32
642.609	22.38
642.8	22.42
642.99	22.3
643.181	22.42
643.372	22.42
643.562	22.34
643.753	22.23
643.943	22.21
644.134	21.99
644.324	21.91
644.515	21.94
644.705	22
644.896	21.98
645.086	22.08
645.277	22.1
645.467	22.09
645.658	21.96
645.848	22.06
646.038	22.01
646.229	21.86
646.419	21.73
646.61	21.76
646.8	21.59
646.99	21.55
647.18	21.61
647.371	21.66
647.561	21.6
647.751	21.58
647.941	21.49
648.132	21.36
648.322	21.34
648.512	21.31
648.702	21.24
648.892	21.33
649.082	21.43
649.272	21.26
649.462	21.19
649.653	21.2
649.843	21.15
650.033	21.13
650.223	21.12
650.413	21.09
650.603	21.16
650.793	21.07
650.983	20.93
651.172	20.98
651.362	20.89
651.552	20.69
651.742	20.68
651.932	20.62
652.122	20.57
652.312	20.63
652.502	20.64
652.691	20.55
652.881	20.36
653.071	20.26
653.261	20.03
653.45	19.84
653.64	19.8
653.83	19.73
654.019	19.62
654.209	19.51
654.399	19.5
654.588	19.29
654.778	19.2
654.968	19.04
655.157	19.01
655.347	18.76
655.536	18.6
655.726	18.39
655.915	18.09
656.105	17.87
656.294	17.82
656.484	17.51
656.673	17.39
656.863	17.35
657.052	17.03
657.241	16.67
657.431	16.45
657.62	16.36
657.809	15.95
657.999	15.84
658.188	15.64
658.377	15.45
658.567	15.21
658.756	15.07
658.945	14.88
659.134	14.65
659.324	14.51
659.513	14.34
659.702	14.14
659.891	14.02
660.08	13.88
660.269	13.76
660.458	13.42
660.648	13.24
660.837	12.98
661.026	12.88
661.215	12.62
661.404	12.39
661.593	12.33
661.782	12.01
661.971	11.83
662.16	11.69
662.349	11.69
662.538	11.4
662.726	11.37
662.915	11.18
663.104	11.04
663.293	10.88
663.482	10.85
663.671	10.73
663.86	10.52
664.048	10.38
664.237	10.32
664.426	10.06
664.615	9.92
664.803	9.94
664.992	9.78
665.181	9.54
665.369	9.47
665.558	9.33
665.747	9.15
665.935	9.12
666.124	9.12
666.312	9.15
666.501	9.13
666.69	9.02
666.878	8.98
667.067	8.8
667.255	8.81
667.444	9.04
667.632	9.08
667.82	9.05
668.009	8.95
668.197	8.81
668.386	8.52
668.574	8.59
668.762	8.46
668.951	8.47
669.139	8.43
669.327	8.32
669.516	8.21
669.704	8.15
669.892	8.33
670.08	8.4
670.269	8.42
670.457	8.38
670.645	8.27
670.833	8.29
671.021	8.24
671.21	8.3
671.398	8.55
671.586	8.68
671.774	8.58
671.962	8.6
672.15	8.58
672.338	8.31
672.526	8.43
672.714	8.33
672.902	8.36
673.09	8.56
673.278	8.86
673.466	8.95
673.654	9.26
673.842	9.3
674.03	9.29
674.218	9.07
674.405	9.1
674.593	9.1
674.781	9.24
674.969	9.24
675.157	9.59
675.344	9.75
675.532	9.84
675.72	9.93
675.908	10.08
676.095	10.02
676.283	9.99
676.471	10.17
676.658	10.18
676.846	10.29
677.033	10.52
677.221	10.64
677.409	10.52
677.596	10.76
677.784	10.78
677.971	10.76
678.159	10.9
678.346	11.1
678.534	11.05
678.721	11.35
678.909	11.46
679.096	11.59
679.283	11.88
679.471	12.15
679.658	12.14
679.846	12.35
680.033	12.72
680.22	12.64
680.408	12.77
680.595	12.98
680.782	13.04
680.969	13.11
681.157	13.35
681.344	13.46
681.531	13.54
681.718	13.63
681.905	13.68
682.093	13.9
682.28	14.12
682.467	14.42
682.654	14.81
682.841	15.07
683.028	15.41
683.215	15.6
683.402	15.67
683.589	15.9
683.776	16.3
683.963	16.29
684.15	16.67
684.337	17.08
684.524	17.36
684.711	17.69
684.898	18.04
685.085	18.39
685.271	18.81
685.458	19.11
685.645	19.32
685.832	19.73
686.019	20.07
686.205	20.24
686.392	20.64
686.579	20.87
686.766	21.4
686.952	21.8
687.139	22.62
687.326	23.13
687.512	23.69
687.699	24.19
687.886	24.47
688.072	24.62
688.259	25.14
688.445	25.79
688.632	26.11
688.818	26.95
689.005	27.65
689.191	28.22
689.378	29.09
689.564	29.89
689.751	30.47
689.937	30.94
690.124	31.56
690.31	31.96
690.496	32.57
690.683	33.31
690.869	34.2
691.055	34.82
691.242	35.76
691.428	36.56
691.614	37.31
691.8	37.96
691.987	38.77
692.173	39.29
692.359	40.02
692.545	40.87
692.731	41.65
692.918	42.49
693.104	43.09
693.29	43.78
693.476	44.26
693.662	44.97
693.848	45.57
694.034	46.35
694.22	47
694.406	48
694.592	48.9
694.778	49.82
694.964	50.57
695.15	51.27
695.336	51.77
695.522	52.71
695.708	53.34
695.894	54.05
696.08	54.89
696.265	55.67
696.451	56.25
696.637	56.99
696.823	57.56
697.009	57.99
697.194	58.78
697.38	59.14
697.566	59.65
697.751	60.42
697.937	61.53
698.123	61.97
698.308	63.01
698.494	63.5
698.68	64.03
698.865	64.6
699.051	65.38
699.236	65.59
699.422	66.45
699.607	67.04
699.793	67.43
699.978	67.8
700.164	68.27
700.349	68.88
700.535	69.43
700.72	69.55
700.906	69.98
701.091	70.48
701.276	70.82
701.462	71.66
701.647	72.6
701.832	73.22
702.018	73.6
702.203	73.94
702.388	73.75
702.573	74.02
702.759	74.67
702.944	75.23
703.129	75.28
703.314	75.91
703.499	76.23
703.684	76.42
703.87	77.34
704.055	78.53
704.24	78.79
704.425	79.48
704.61	79.81
704.795	79.6
704.98	79.47
705.165	79.99
705.35	80.03
705.535	80.3
705.72	80.55
705.905	81.06
706.09	81.28
706.275	81.7
706.459	81.74
706.644	81.91
706.829	82.09
707.014	82.18
707.199	82.53
707.384	83.14
707.568	83.36
707.753	83.85
707.938	84.3
708.123	84.08
708.307	84.08
708.492	84.17
708.677	83.98
708.861	83.87
709.046	84.28
709.231	84.81
709.415	85.62
709.6	85.7
709.784	85.75
709.969	86.06
710.153	85.84
710.338	85.59
710.522	85.9
710.707	86.72
710.891	87.02
711.076	87.21
711.26	87.15
711.445	87.48
711.629	87.49
711.813	87.11
711.998	87.47
712.182	87.75
712.366	88.14
712.551	88.55
712.735	89.17
712.919	88.95
713.103	89.5
713.288	89.31
713.472	88.83
713.656	89.32
713.84	89.6
714.024	89.87
714.208	89.72
714.393	90.62
714.577	90.68
714.761	91.05
714.945	90.91
715.129	91.22
715.313	91.26
715.497	91.05
715.681	91.86
715.865	91.88
716.049	92.13
716.233	91.38
716.417	91.5
716.601	90.81
716.785	90.72
716.968	90.87
717.152	91.64
717.336	91.71
717.52	91.45
717.704	91.92
717.888	92.49
718.071	92.52
718.255	92.67
718.439	92.64
718.622	92.76
718.806	92.62
718.99	92.17
719.174	92.03
719.357	92.29
719.541	92.26
719.724	91.89
719.908	92.95
720.092	93.79
720.275	94.72
720.459	94.79
720.642	94.46
720.826	93.53
721.009	93.19
721.193	92.36
721.376	92.33
721.559	93
721.743	93.65
721.926	93.59
722.11	94.09
722.293	93.6
722.476	93.49
722.66	93.33
722.843	93.63
723.026	93.53
723.21	94.58
723.393	95.85
723.576	96.19
723.759	95.79
723.942	95.83
724.126	95.41
724.309	94.66
724.492	94.83
724.675	94.69
724.858	95.25
725.041	95.82
725.224	95.92
725.407	96.29
725.59	96.42
725.774	96.03
725.957	95.59
726.14	95.09
726.322	94.53
726.505	94.61
726.688	95
726.871	95.31
727.054	95.72
727.237	95.63
727.42	96.08
727.603	95.93
727.786	95.63
727.968	95.63
728.151	96.14
728.334	96.67
728.517	97.07
728.699	97.63
728.882	97.63
729.065	98.33
729.248	98.2
729.43	98.19
729.613	98.78
729.796	99.75
729.978	98.47
730.161	98.33
730.343	98.24
730.526	98.33
730.708	97.16
730.891	97.65
731.073	97.62
731.256	97.13
731.438	96.13
731.621	97.75
731.803	97.96
731.986	98.04
732.168	98.61
732.35	99.38
732.533	99.2
732.715	99.28
732.898	100.16
733.08	100.11
733.262	100.82
733.444	99.79
733.627	99.9
733.809	99.32
733.991	100.43
734.173	99.32
734.355	99.29
734.538	99.85
734.72	99.63
734.902	99.06
735.084	99.81
735.266	100.18
735.448	100.51
735.63	100.7
735.812	100.44
735.994	101.49
736.176	101.65
736.358	101.39
736.54	102.32
736.722	102.38
736.904	101.09
737.086	101.25
737.268	101.77
737.45	100.86
737.632	100.48
737.814	100.11
737.995	101.13
738.177	100.58
738.359	99.78
738.541	100.37
738.723	101.08
738.904	100.74
739.086	100.54
739.268	100.91
739.449	101.54
739.631	100.98
739.813	100.94
739.994	101.34
740.176	102.17
740.358	101.43
740.539	102.82
740.721	102.38
740.902	103.31
741.084	102.89
741.265	102.92
741.447	102.12
741.628	103.19
741.81	102
741.991	103.27
742.172	103.84
742.354	104.42
742.535	103.03
742.717	103.33
742.898	102.79
743.079	103.88
743.261	103.1
743.442	103.1
743.623	104.07
743.804	104.65
743.986	103.71
744.167	102.33
744.348	101.75
744.529	100.44
744.71	99.11
744.891	99.22
745.073	100.04
745.254	100.26
745.435	100.72
745.616	100.29
745.797	99.81
745.978	100.03
746.159	100.43
746.34	98.82
746.521	100.75
746.702	100.38
746.883	100.61
747.064	100.43
747.245	101.07
747.426	99.74
747.606	99.79
747.787	100.55
747.968	100.66
748.149	101.66
748.33	102.59
748.51	101.89
748.691	100.4
748.872	100.81
749.053	100.4
749.233	99.34
749.414	98.74
749.595	99.12
749.775	97.75
749.956	96.64
750.137	97.88
750.317	100.47
750.498	102.69
750.678	103.79
750.859	104.94
751.04	103.35
751.22	101.63
751.4	99.26
751.581	97.76
751.761	98.07
751.942	98.39
752.122	97.32
752.303	96.7
752.483	97.76
752.663	96.59
752.844	96.3
753.024	99.28
753.204	100.91
753.385	99.9
753.565	100.84
753.745	101.99
753.925	99.48
754.106	97.96
754.286	98.26
754.466	97.65
754.646	97.58
754.826	96.45
755.006	95.08
755.187	96.72
755.367	97.61
755.547	96.99
755.727	100.19
755.907	101.64
756.087	102.18
756.267	101.8
756.447	102.51
756.627	99.96
756.807	100.65
756.987	100.18
757.167	100.06
757.346	98.39
757.526	97.28
757.706	98.44
757.886	97.42
758.066	98.52
758.246	100.33
758.425	101.37
758.605	99.25
758.785	99.12
758.965	97.53
759.144	95.16
759.324	95.38
759.504	96.14
759.683	96.28
759.863	94.03
760.043	93.48
760.222	93.22
760.402	92.89
760.581	92.79
760.761	96.77
760.94	96.27
761.12	98.94
761.299	98.67
761.479	98.08
761.658	95.29
761.838	96.75
762.017	94.78
762.197	96.32
762.376	95.9
762.555	97.34
762.735	98.25
762.914	96.89
763.093	96.03
763.273	94.93
763.452	94.38
763.631	93.93
763.81	94.97
763.99	94.02
764.169	95.64
764.348	93.61
764.527	91.78
764.706	93.69
764.885	95.76
765.064	93.86
765.243	96.01
765.423	97.45
765.602	94.72
765.781	91.63
765.96	91.62
766.139	89.56
766.318	89.67
766.497	89.46
766.676	91.14
766.854	93.69
767.033	94.63
767.212	94.76
767.391	95.89
767.57	96.23
767.749	96.3
767.928	97.1
768.106	95.96
768.285	93.79
768.464	92.47
768.643	90.88
768.821	89.54
769	92.15
769.179	93.6
769.357	91.74
769.536	92.15
769.715	93.13
769.893	93.74
770.072	92.3
770.25	93.91
770.429	93.7
770.607	93.57
770.786	90.34
770.964	93.26
771.143	92
771.321	92.94
771.5	92.99
771.678	92.93
771.857	90.48
772.035	91.78
772.213	90.29
772.392	87.76
772.57	89.3
772.748	89.55
772.927	89.19
773.105	89.44
773.283	92.22
773.461	91.69
773.64	92.77
773.818	93.51
773.996	93.63
774.174	92.07
774.352	90.13
774.531	86.61
774.709	87.55
774.887	86.44
775.065	86.25
775.243	86.87
775.421	88.49
775.599	90.08
775.777	88.37
775.955	86.83
776.133	84.78
776.311	84.55
776.489	81.19
776.667	82.46
776.844	84.36
777.022	83.67
777.2	83.01
777.378	83.72
777.556	84.34
777.734	86.73
777.911	90.28
778.089	90.28
778.267	89.18
778.445	88.34
778.622	84.95
778.8	82.97
778.978	85.93
779.155	84.48
779.333	86.04
779.511	86.41
779.688	89.48
779.866	84.68
780.043	82.22
780.221	80.84
780.398	78.42
780.576	80.25
780.753	83.56
780.931	84.34
781.108	81.87
781.286	85.7
781.463	78.03
781.64	74.56
781.818	78.2
781.995	82.33
782.172	80.89
782.35	84.85
782.527	87.41
782.704	82.71
782.882	83.77
783.059	83.02
783.236	82.18
783.413	84.54
783.59	85.46
783.768	80.55
783.945	82.41
784.122	81.91
784.299	80.08
784.476	81.48
784.653	81.41
784.83	76.38
785.007	72.35
785.184	72.1
785.361	71.2
785.538	75.27
785.715	80.12
785.892	85.04
786.069	88.57
786.246	90.3
786.423	90.48
786.6	91.36
786.776	93.06
786.953	86.32
787.13	89.39
787.307	88.27
787.484	86.23
787.66	82.54
787.837	85.08
788.014	81.7
788.191	79.07
788.367	75.21
788.544	79.65
788.721	78.51
788.897	77.42
789.074	80.27
789.25	81.05
789.427	78.84
789.603	81.18
789.78	85.41
789.956	79.32
790.133	79.36
790.309	79.92
790.486	82.64
790.662	81.1
790.839	83.68
791.015	86.96
791.192	83.94
791.368	80.39
791.544	77.31
791.721	80.13
791.897	75.34
792.073	72.92
792.249	68.39
792.426	70.46
792.602	67.01
792.778	72.4
792.954	73.62
793.13	72.24
793.307	66.77
793.483	65.76
793.659	63.84
793.835	65.77
794.011	66.31
794.187	68.47
794.363	64.63
794.539	68.44
794.715	64.84
794.891	63.95
795.067	65.42
795.243	72.49
795.419	63.75
795.595	63.33
795.771	68.46
795.947	69.67
796.122	67.09
796.298	74
796.474	77.2
796.65	78.31
796.826	74.27
797.001	73.59
797.177	68.54
797.353	72.18
797.529	76.04
797.704	76.45
797.88	75.99
798.056	70.66
798.231	63.58
798.407	58.07
798.582	60.11
798.758	63.13
798.934	73.72
799.109	72.74
799.285	69.66
799.46	74.33
799.636	69.56
799.811	71.13
799.986	75.09
800.162	76.73
800.337	75.98
800.513	73.94
800.688	67.61
800.863	77.5
801.039	70.58
801.214	62.75
801.389	66.13
801.565	58.47
801.74	41.06
801.915	52.07
802.09	52.13
802.265	59.53
802.441	63.25
802.616	66.54
802.791	70.27
802.966	74.09
803.141	69.52
803.316	69.87
803.491	78.51
803.666	77.58
803.841	74.44
804.016	70.69
804.191	67.67
804.366	62.94
804.541	58.09
804.716	56.24
804.891	55.79
805.066	63.31
805.241	60.78
805.416	55.95
805.591	54.54
805.765	57.04
805.94	57.56
806.115	55.19
806.29	50.13
806.464	58.67
806.639	57.35
806.814	52.57
806.989	45.93
807.163	64.17
807.338	59.17
807.512	55.53
807.687	39.62
807.862	54.89
808.036	51.38
808.211	58.76
808.385	64.76
808.56	84.49
808.734	88.27
808.909	83.82
809.083	67.36
809.258	79.62
809.432	80.53
809.606	61.46
809.781	58.78
809.955	70.05
810.13	61
810.304	45.36
810.478	46.65
810.652	56.61
810.827	57.43
811.001	50.19
811.175	60.89
811.349	66.51
811.524	54.48
811.698	41.95
811.872	48.59
812.046	56.28
812.22	68.04
812.394	65.07
812.568	67.06
812.742	71.89
812.916	61.78
813.09	41.92
813.264	46.36
813.438	54.37
813.612	49.92
813.786	43
813.96	57.36
814.134	60.26
814.308	72.97
814.482	75.95
814.656	71.34
814.83	70.76
815.003	73.16
815.177	57.98
815.351	48.92
815.525	60.59
815.698	51.91
815.872	37.98
816.046	21.4
816.219	30.16
816.393	37.42
816.567	37.11
816.74	42.83
816.914	53.2
817.088	53.6
817.261	34.39
817.435	28.41
817.608	42.74
817.782	37.53
817.955	39.43
818.129	37.82
818.302	46.43
818.475	54.51
818.649	57.81
818.822	48.56
818.996	57.27
819.169	53.14
819.342	35.4
819.516	51.04
819.689	60.25
819.862	58.62
820.035	57.14
820.209	49.28
820.382	40.87
820.555	39.31
820.728	24.46
820.901	18.96
821.075	23.52
821.248	29.05
821.421	13.55
821.594	23.12
821.767	50.38
821.94	58.7
822.113	32.27
822.286	23.97
822.459	39.54
822.632	15.96
822.805	9.36
822.978	24.45
823.151	41.36
823.324	35.59
823.496	16.31
823.669	19.09
823.842	7.71
824.015	-5.68
824.188	-31.78
824.361	-8.97
824.533	-11.82
824.706	14.77
824.879	15.13
825.051	30.34
825.224	22.09
825.397	11.54
825.569	-9.94
825.742	16.98
825.915	23.74
826.087	34.15
826.26	24.01
826.432	24.91
826.605	28.74
826.777	14.51
826.95	18.53
827.122	12.68
827.295	21.18
827.467	20.52
827.64	4.51
827.812	-7.46
827.984	15.8
828.157	3.47
828.329	-28.67
828.501	-10.04
828.674	8.05
828.846	-5.14
829.018	19.3
829.19	0.57
829.363	31.06
829.535	35.81
829.707	41.39
829.879	18.17
830.051	23.57
830.223	-0.52
830.395	-29.99
830.568	-26.83
830.74	-22.87
830.912	14.1
831.084	-16.5
831.256	-11.54
831.428	-31.86
831.6	-56.54
831.772	-100.66
831.943	-85.44
832.115	-46.27
832.287	-22.54
832.459	1.2
832.631	30.85
832.803	77.77
832.975	86.61
833.146	71.44
833.318	62.63
833.49	54.2
833.662	-10.54
833.833	-31.46
834.005	-25.45
834.177	-11.88
834.348	-19.15
834.52	-33.38
834.692	-13.21
834.863	4.85
835.035	-21.66
835.206	-89.79
835.378	-54.43
835.549	-59.63
835.721	-53.14
835.892	-36.46
836.064	-9.07
836.235	-8.05
836.407	16.71
836.578	-15.98
836.749	-22.53
836.921	-75.85
837.092	-87.63
837.264	-87.45
837.435	-98.04
837.606	-45.89
837.777	8.93
837.949	24.51
838.12	25.09
838.291	37.8
838.462	17.65
838.633	-25.32
838.805	-29.58
838.976	-63.98
839.147	-121.91
839.318	-102.6
839.489	-158.31
839.66	-121.38
839.831	-19.89
840.002	-10.07
840.173	-37.18
840.344	34.14
840.515	32.33
840.686	-143.03
840.857	-156.23
841.028	-128.96
841.199	-97.24
841.369	-98.11
841.54	-72.42
841.711	-27.07
841.882	-9.75
842.053	-16.62
842.223	-46.68
842.394	-11.62
842.565	-0.18
842.736	22.98
842.906	22.44
843.077	59.57
843.248	86.3
843.418	81.53
843.589	47.1
843.759	95.39
843.93	35.27
844.101	14.18
844.271	11.96
844.442	23.43
844.612	46.13
844.783	19.28
844.953	-2.27
845.123	-0.67
845.294	1.51
845.464	-155.6
845.635	20.77
845.805	57.22
845.975	61.16
846.146	-6.82
846.316	-41.88
846.486	-22.19
846.656	1.82
846.827	-13.76
846.997	7.42
847.167	50.71
847.337	22.57
847.507	-33.59
847.677	-19.17
847.848	25.97
848.018	29.91
848.188	38.13
848.358	27.74
848.528	12.62
848.698	-28.04
848.868	-94.24
849.038	-222.95
849.208	-74.82
849.378	-25.71
849.548	-0.46
849.718	-3.97
849.887	30.95
850.057	2.33
850.227	-47.05
850.397	-86.86
850.567	-230.3
850.737	-640.11
850.906	-1889.06
851.076	-1234.57
851.246	-612.17
851.415	-61.95
851.585	-30.63
851.755	-51.75
851.924	-7.36
852.094	-46.94
852.264	-185.01
852.433	-1300.24
852.603	-245.61
852.772	-160.49
852.942	-84.25
853.111	-60.88
853.281	-24.85
853.45	-8.65
853.62	-100.8
853.789	-106.2
853.959	-102.34
854.128	-102.41
854.297	-132.38
854.467	-154.58
854.636	-125.37
854.805	-42.09
854.975	-82.83
855.144	-146.92
855.313	38.29
855.482	-479.01
855.652	-317.69
855.821	-156.76
855.99	20.94
856.159	33.18
856.328	51.31
856.497	47.64
856.667	39.01
856.836	40.34
857.005	-11.82
857.174	-34.32
857.343	-62.7
857.512	-57.92
857.681	-118.42
857.85	-182.73
858.019	-83.68
858.188	-59.36
858.356	-54.41
858.525	-110.29
858.694	-46.68
858.863	-160.18
859.032	-146.24
859.201	-259.11
859.369	-101.59
859.538	-107.71
859.707	-100.5
859.876	-122.06
860.044	-122.31
860.213	-25.7
860.382	-47.07
860.55	-41.73
860.719	-10.27
860.888	5.21
861.056	-55.81
861.225	-87.1
861.393	-54.38
861.562	-62.98
861.73	-153.37
861.899	-436.26
862.067	-2118.1
862.236	-135.6
862.404	-331.77
862.572	-205.05
862.741	-85.98
862.909	-84.04
863.078	-215.63
863.246	-154.43
863.414	-132.07
863.582	-72.72
863.751	-94.3
863.919	-79.61
864.087	-37.35
864.255	-76.61
864.424	-530.38
864.592	-87.07
864.76	-97.43
864.928	-150.6
865.096	-30.33
865.264	24.46
865.432	-1007.39
865.6	-2.62
865.768	-103.29
865.936	-160.33
866.104	-156.85
866.272	-170.39
866.44	-397.74
866.608	609.37
866.776	252.38
866.944	2830.81
867.112	-557.73
867.28	-258.13
867.448	-112.59
867.615	-36.99
867.783	-3.92
867.951	-19.9
868.119	8.77
868.286	-30.02
868.454	-206.99
868.622	-201.73
868.789	-281.67
868.957	-3808.93
869.125	-2019.08
869.292	-142.08
869.46	-224.77
869.627	-9.86
869.795	-63.71
869.963	-40.3
870.13	1.08
870.298	10.26
870.465	-63.89
870.632	-64.5
870.8	-49.97
870.967	-115.34
871.135	-175.04
871.302	-155.29
871.469	-187
871.637	-371.26
871.804	-194.61
871.971	-274.95
872.139	-789.42
872.306	-132.61
872.473	-134.98
872.64	-553.33
872.807	-216.96
872.975	14.75
873.142	-247.36
873.309	1749.32
873.476	65.07
873.643	121.69
873.81	49.68
873.977	103.33
874.144	91.49
874.311	-75.35
874.478	-138.69
874.645	-228.24
874.812	-182.98
874.979	-88.81
875.146	-96.47
875.313	-136.82
875.48	-10.25
875.647	-38.12
875.813	-94.03
875.98	-41.03
876.147	-51.32
876.314	-145.19
876.481	998.55
876.647	-1141.85
876.814	537.44
876.981	-29.71
877.147	-20.01
877.314	-6.96
877.481	1.1
877.647	2.72
877.814	-73.81
877.98	-133.11
878.147	-74.06
878.314	29.09
878.48	10.43
878.647	31.98
878.813	74.69
878.979	71.05
879.146	-18.21
879.312	-13.84
879.479	-73.13
879.645	-225.16
879.811	-496.61
879.978	-1064.31
880.144	-306.53
880.31	-118.29
880.477	-307.98
880.643	-380.02
880.809	-93.08
880.975	-80.94
881.142	-801.14
881.308	-78.37
881.474	6.41
881.64	-75.58
881.806	-190.55
881.972	-52
882.138	-96.51
882.304	-124.28
882.47	-219.43
882.636	-685.45
882.802	-185.11
882.968	-1.75
883.134	-2.05
883.3	6.49
883.466	43.68
883.632	52.46
883.798	-3.32
883.964	-25.27
884.129	-15.72
884.295	-21.8
884.461	-91.37
884.627	-94.7
884.793	-127.95
884.958	-65.31
885.124	-150.53
885.29	-240.22
885.455	-382.65
885.621	-96.55
885.787	-230.4
885.952	-128.96
886.118	-128.37
886.283	-124.81
886.449	-251.57
886.614	-260.76
886.78	-469.33
886.945	1513.52
887.111	-743.5
887.276	-475.14
887.442	-653.86
887.607	-291.16
887.773	-177.47
887.938	-168.99
888.103	-212.46
888.269	-166.04
888.434	-293.11
888.599	-153.38
888.764	4.83
888.93	4.32
889.095	-5.22
889.26	-73.01
889.425	-52.54
889.59	-77.05
889.756	-129.51
889.921	-119.58
890.086	-33.55
890.251	-26.17
890.416	-216.76
890.581	-1489.11
890.746	172.23
890.911	368.31
891.076	202.3
891.241	-303.92
891.406	15.72
891.571	-4.8
891.736	-233.6
891.901	-246.24
892.065	460.71
892.23	143.35
892.395	281.07
892.56	423.77
892.725	-733.01
892.889	-2193.29
893.054	-358.44
893.219	-147.22
893.384	-77.65
893.548	-141.62
893.713	-166.26
893.878	-101.99
