Data from Ofra_PS_T2_1A_4CX12_Reflection_1.txt Node
Date: Wed Jul 21 18:04:45 EDT 2021
User: Adam
Spectrometer: FLMT01687
Trigger mode: 0
Integration Time (sec): 1.100000E0
Scans to average: 2
Electric dark correction enabled: true
Nonlinearity correction enabled: false
Boxcar width: 2
XAxis mode: Wavelengths
Number of Pixels in Spectrum: 3648
>>>>>Begin Spectral Data<<<<<
179.494	541.4
179.716	634.12
179.937	619.91
180.158	554.19
180.38	882.97
180.601	313.12
180.823	55.95
181.044	-207.7
181.265	-24.45
181.486	-29.83
181.708	65.07
181.929	513.78
182.15	-743.31
182.372	-13.09
182.593	-146.25
182.814	-40.23
183.035	27.7
183.257	75.8
183.478	4.52
183.699	82.57
183.92	52.72
184.141	39.23
184.363	-14.14
184.584	-9.94
184.805	-1.82
185.026	24.98
185.247	21.72
185.468	7.18
185.689	30.58
185.91	19.64
186.132	29.8
186.353	50.63
186.574	109
186.795	83.56
187.016	37.41
187.237	9.84
187.458	-39.86
187.679	-58.91
187.9	-60.74
188.121	-48.35
188.342	-24.7
188.563	37.73
188.784	92.48
189.005	108.72
189.226	167.22
189.447	130.87
189.667	48.18
189.888	-339.78
190.109	-1098.38
190.33	-650.16
190.551	-1138.72
190.772	-214.23
190.993	-115.93
191.214	-102.13
191.434	-59.87
191.655	15.12
191.876	-13.28
192.097	-60.27
192.318	-109.99
192.538	-148.61
192.759	-150.68
192.98	-90.59
193.201	-48.46
193.421	-23.7
193.642	3.6
193.863	25.03
194.083	14.45
194.304	10.9
194.525	18.53
194.745	25.38
194.966	-28.53
195.187	-32.06
195.407	-69.98
195.628	-127.14
195.848	-147.91
196.069	-141.02
196.29	-88.44
196.51	-104.42
196.731	-107.29
196.951	-116.9
197.172	-118.06
197.392	-160.75
197.613	-121.63
197.833	-131.63
198.054	-111.06
198.274	-53.85
198.495	-55.88
198.715	-19.22
198.936	-18.18
199.156	-19.46
199.377	-103.89
199.597	-103.82
199.817	-101.12
200.038	-32.49
200.258	-70.3
200.479	-0.77
200.699	14.36
200.919	29.41
201.14	-24.57
201.36	-9.98
201.58	16.36
201.801	49.17
202.021	22.23
202.241	40.32
202.461	28.55
202.682	-21.63
202.902	-86.93
203.122	-15.98
203.342	-21.62
203.563	32.75
203.783	45.02
204.003	44.18
204.223	28.81
204.443	67.66
204.663	30.03
204.884	59.91
205.104	75.87
205.324	72.34
205.544	42.79
205.764	62.37
205.984	47.1
206.204	51.71
206.424	48.64
206.644	27.59
206.864	15.34
207.084	-20.88
207.304	-34.02
207.525	-151.8
207.745	-52.3
207.964	26.36
208.184	2.83
208.404	-18.07
208.624	-30.34
208.844	-18.46
209.064	-308.24
209.284	-342.68
209.504	-178.94
209.724	-42.23
209.944	-29.02
210.164	16.55
210.384	12.5
210.604	2.61
210.823	-46.49
211.043	-71.18
211.263	-40.92
211.483	-21.07
211.703	-64.65
211.922	-17.85
212.142	51.92
212.362	52.49
212.582	28.91
212.801	39.23
213.021	13.06
213.241	-3.45
213.461	-61.47
213.68	-74.98
213.9	-22.95
214.12	-6.93
214.339	-46.84
214.559	-7.74
214.779	22.7
214.998	-12.77
215.218	-53.14
215.438	-42.37
215.657	-34.08
215.877	-35.76
216.096	-2.41
216.316	13.42
216.535	12.44
216.755	19.12
216.974	-27.39
217.194	-62.56
217.413	-63.76
217.633	-47.18
217.852	-162.91
218.072	-58.66
218.291	-14.08
218.511	7.06
218.73	-18.47
218.95	-13.35
219.169	-28.87
219.389	-72.94
219.608	-53.49
219.827	-42.22
220.047	-18.12
220.266	10.31
220.485	14.23
220.705	27.83
220.924	20.92
221.143	34.43
221.363	3.19
221.582	11.07
221.801	3.99
222.021	12.34
222.24	-34.74
222.459	75.95
222.678	51
222.897	14.28
223.117	-33.69
223.336	-25.12
223.555	-30.83
223.774	2.88
223.993	4.4
224.213	46.81
224.432	34.3
224.651	52.93
224.87	20.71
225.089	27.18
225.308	15.96
225.527	32.72
225.746	9.8
225.965	11.93
226.184	14.25
226.404	19.15
226.623	-16.82
226.842	-2.35
227.061	12.24
227.28	17.16
227.499	18.05
227.718	37.64
227.936	37.79
228.155	68.47
228.374	63.38
228.593	51.82
228.812	71.53
229.031	53.29
229.25	2.05
229.469	-2.95
229.688	13.85
229.907	7.1
230.125	32.07
230.344	26.06
230.563	49.47
230.782	61.22
231.001	20.93
231.22	5.62
231.438	41.16
231.657	28.61
231.876	2.99
232.095	47
232.313	60.17
232.532	61.99
232.751	38.15
232.969	23.26
233.188	-29.51
233.407	24.1
233.625	8.17
233.844	-7.11
234.063	3.12
234.281	24.84
234.5	3.04
234.719	6.83
234.937	30.08
235.156	34.39
235.374	24.32
235.593	-1.42
235.811	-14.21
236.03	-38.86
236.249	-81.03
236.467	-81.21
236.686	-32.44
236.904	-7.13
237.123	-16.36
237.341	-7.02
237.559	5.75
237.778	8.61
237.996	-5.94
238.215	9.95
238.433	22.43
238.652	22.16
238.87	4.7
239.088	7.45
239.307	13.43
239.525	9.96
239.743	-21.91
239.962	7.26
240.18	-4.85
240.398	-47.27
240.617	-63.95
240.835	-24.78
241.053	-24.57
241.271	15.4
241.49	37.44
241.708	22.41
241.926	13.13
242.144	12.39
242.363	-48.73
242.581	-60.04
242.799	-25.95
243.017	5.03
243.235	-26.83
243.453	-9.88
243.672	-14.05
243.89	-11.43
244.108	-29.9
244.326	6.95
244.544	15.52
244.762	16.75
244.98	37.01
245.198	46.52
245.416	13.06
245.634	-5.19
245.852	-11.74
246.07	-25.89
246.288	-42.53
246.506	-42.52
246.724	-4.76
246.942	-11
247.16	7.53
247.378	13.81
247.596	28.58
247.814	31.98
248.032	21.51
248.25	18.95
248.468	23.57
248.685	35.74
248.903	43.03
249.121	39.29
249.339	18.92
249.557	12.38
249.775	18.24
249.992	-41.05
250.21	-9.38
250.428	0.35
250.646	-28.96
250.863	-69.16
251.081	-25.87
251.299	-46.76
251.517	-63.52
251.734	-30.21
251.952	-10.65
252.17	-11.83
252.387	0.86
252.605	2.34
252.823	17.78
253.04	32.51
253.258	53.69
253.475	66.51
253.693	84.28
253.911	69.68
254.128	48.94
254.346	43.37
254.563	15.62
254.781	-16.45
254.998	-50.39
255.216	-36.14
255.433	-7.81
255.651	10.93
255.868	46.49
256.086	76.11
256.303	70.19
256.521	28.76
256.738	20.4
256.956	-21.32
257.173	-45.45
257.39	-72.23
257.608	-90.24
257.825	-29.32
258.043	18.98
258.26	27.46
258.477	71.3
258.695	69.85
258.912	18.7
259.129	13.64
259.346	-17.65
259.564	-62.23
259.781	-66.32
259.998	-0.2
260.216	44.09
260.433	76.12
260.65	81.9
260.867	83.75
261.084	52.71
261.302	9.87
261.519	3.99
261.736	-32.81
261.953	-44.1
262.17	-15.14
262.387	-37.34
262.604	-71.1
262.822	-57.17
263.039	-51.05
263.256	-92.52
263.473	-17.59
263.69	-2.46
263.907	22.71
264.124	42.14
264.341	47.73
264.558	13.72
264.775	17.04
264.992	17.31
265.209	-8.61
265.426	15
265.643	27.98
265.86	38.14
266.077	37.09
266.294	30.19
266.51	-7.28
266.727	-25.12
266.944	-26.43
267.161	-22.31
267.378	4.42
267.595	16.46
267.812	5.5
268.028	-24.07
268.245	-13.69
268.462	-37.38
268.679	-32.7
268.896	7.27
269.112	21.28
269.329	12.54
269.546	25.26
269.763	19.18
269.979	-2.43
270.196	3.93
270.413	-16.92
270.629	-40.52
270.846	-51.45
271.063	-31.36
271.279	-48.89
271.496	-44.03
271.712	9.21
271.929	51.04
272.146	35.43
272.362	49.93
272.579	72.9
272.795	49.72
273.012	45.72
273.228	55.72
273.445	23.1
273.661	8.46
273.878	-25.41
274.094	-19.2
274.311	-51.16
274.527	15.63
274.744	0.78
274.96	-2.37
275.177	-5.76
275.393	12.12
275.609	1.88
275.826	39.24
276.042	40.62
276.259	18.26
276.475	30.06
276.691	34.27
276.908	6.11
277.124	25.9
277.34	30.92
277.557	15.07
277.773	-0.62
277.989	-3.36
278.205	-17.1
278.422	-2.08
278.638	-7.84
278.854	2.76
279.07	-1.15
279.286	0.21
279.503	-35.15
279.719	-23.86
279.935	-49.69
280.151	-63.36
280.367	-41.02
280.583	-36.2
280.799	-30.06
281.016	-58.91
281.232	-20.41
281.448	-37.88
281.664	-9.27
281.88	-42.84
282.096	-10.01
282.312	20.35
282.528	48.34
282.744	69.15
282.96	65.14
283.176	53.65
283.392	35.31
283.608	13.97
283.824	-12.72
284.04	-3.98
284.256	4.18
284.471	-6.46
284.687	16.69
284.903	57.82
285.119	79.11
285.335	54.18
285.551	73.24
285.767	48.09
285.982	25.74
286.198	-15.08
286.414	36.2
286.63	39.8
286.846	56.5
287.061	29.69
287.277	55.5
287.493	25.28
287.709	40
287.924	20.06
288.14	53.73
288.356	42.9
288.571	58.59
288.787	34.49
289.003	33.6
289.218	21.47
289.434	-14.26
289.65	-24.41
289.865	-19.55
290.081	-3.87
290.296	-1.7
290.512	5.7
290.727	-20.86
290.943	-40.6
291.159	-37.98
291.374	-46.81
291.59	-55.88
291.805	-33.72
292.021	-13.09
292.236	-25.43
292.451	0.79
292.667	13.9
292.882	36.5
293.098	39.82
293.313	41.82
293.529	-5.35
293.744	-29.82
293.959	-42.46
294.175	-35.37
294.39	6.02
294.605	33.59
294.821	65.5
295.036	68.9
295.251	70.72
295.467	29.91
295.682	13.94
295.897	-52.6
296.112	-74.27
296.328	-73.63
296.543	-85.05
296.758	-77.56
296.973	-23.24
297.188	13.65
297.404	-9.82
297.619	-18.62
297.834	-12.09
298.049	-22.96
298.264	-35.95
298.479	3.17
298.694	13.71
298.909	11.21
299.125	9.74
299.34	11.88
299.555	-18.21
299.77	-15.47
299.985	-46.89
300.2	-89.17
300.415	-105.54
300.63	-49.54
300.845	-56.25
301.06	-44.57
301.275	-13.1
301.49	12.79
301.704	-10.2
301.919	-16.29
302.134	-26.46
302.349	-30.5
302.564	-77.82
302.779	-105.23
302.994	-72.84
303.209	-35.44
303.423	-4.46
303.638	28.3
303.853	4.84
304.068	5.76
304.283	6.63
304.497	-2.9
304.712	-15.08
304.927	-1.88
305.142	-9.9
305.356	-0.45
305.571	4.87
305.786	3.5
306	6.8
306.215	23.76
306.43	-5.14
306.644	3.58
306.859	46.7
307.074	45.24
307.288	-0.42
307.503	19.17
307.717	13.5
307.932	9.42
308.147	-2.09
308.361	29.09
308.576	10.09
308.79	-25.42
309.005	-45.37
309.219	-32.78
309.434	-36.81
309.648	-25.18
309.863	-11.94
310.077	-8.09
310.292	-9.9
310.506	-8.45
310.72	0.6
310.935	7.56
311.149	9.77
311.364	28.35
311.578	36.55
311.792	29.63
312.007	36.66
312.221	17.38
312.435	20.24
312.649	4.5
312.864	29.02
313.078	30.74
313.292	103.41
313.507	63.76
313.721	89.18
313.935	41.83
314.149	24.94
314.363	2.99
314.578	15.22
314.792	13.07
315.006	5.19
315.22	24.68
315.434	40.37
315.648	35.34
315.862	37.42
316.077	39.82
316.291	27.79
316.505	36.85
316.719	29.6
316.933	10
317.147	0.84
317.361	-44.78
317.575	-75.1
317.789	-89.14
318.003	-163.92
318.217	-121.63
318.431	-10.32
318.645	14.37
318.859	8.67
319.073	44.34
319.287	38.12
319.5	2.27
319.714	-20.58
319.928	-48.77
320.142	-80.93
320.356	-38.41
320.57	2.88
320.784	-7.75
320.997	25.23
321.211	33.49
321.425	-34.06
321.639	-66.18
321.853	-15.23
322.066	-1.03
322.28	-11.47
322.494	19.38
322.707	42.44
322.921	27.08
323.135	15.59
323.349	34.08
323.562	5.05
323.776	-14.33
323.989	-7.42
324.203	-19.01
324.417	-40.78
324.63	-62.03
324.844	-72.83
325.057	-73.05
325.271	-45.56
325.485	-6.44
325.698	8.16
325.912	31.79
326.125	3.36
326.339	-0.9
326.552	-29.17
326.766	-17.57
326.979	-9.27
327.193	31.64
327.406	32.91
327.619	32.78
327.833	48.8
328.046	15.61
328.26	-17.89
328.473	-2.22
328.686	-23.71
328.9	-42.67
329.113	-7.59
329.326	-19.35
329.54	-21.05
329.753	-34.07
329.966	-38.85
330.179	-50.84
330.393	-25.93
330.606	-4.83
330.819	21.64
331.032	36.34
331.246	37.29
331.459	51.06
331.672	32.67
331.885	25.5
332.098	-7.59
332.311	-13.49
332.525	-51.28
332.738	-16.58
332.951	-1.94
333.164	30.21
333.377	46.23
333.59	64.99
333.803	64.92
334.016	67.41
334.229	58.03
334.442	56.36
334.655	71.86
334.868	55.7
335.081	35.97
335.294	25.08
335.507	5.68
335.72	-15.92
335.933	-29.7
336.146	-41.65
336.359	-35.21
336.572	-47.78
336.785	-64.25
336.997	-42.9
337.21	-6.11
337.423	-2.25
337.636	14.79
337.849	30.75
338.062	23.43
338.274	5.62
338.487	3.02
338.7	-10.65
338.913	-43.41
339.125	-61.23
339.338	-78.89
339.551	-44.09
339.763	-6.84
339.976	25.2
340.189	63.93
340.402	62.29
340.614	34.58
340.827	16.96
341.039	10
341.252	-2.8
341.465	3.15
341.677	9.16
341.89	-12.99
342.102	10.09
342.315	0.2
342.527	-21.93
342.74	-26.33
342.952	-1.03
343.165	-20.27
343.377	1.1
343.59	8.51
343.802	20.05
344.015	22.72
344.227	36.12
344.44	17.76
344.652	25.93
344.864	25.75
345.077	38.82
345.289	42.21
345.502	44.49
345.714	29.64
345.926	36.3
346.139	28.11
346.351	40.69
346.563	56.9
346.775	60.55
346.988	42.35
347.2	30.2
347.412	-31.53
347.624	-73.04
347.837	-84.95
348.049	-68.92
348.261	-37.71
348.473	-16.01
348.685	-16.95
348.897	-22.69
349.11	-33.4
349.322	-46.79
349.534	-33.95
349.746	-16.19
349.958	6.69
350.17	19.67
350.382	14.56
350.594	8.86
350.806	2.12
351.018	1.21
351.23	-14.51
351.442	-41.28
351.654	-32.26
351.866	-12.11
352.078	-19.28
352.29	0.94
352.502	20.99
352.714	27.55
352.926	20.56
353.138	23.25
353.35	14.37
353.561	7.94
353.773	-15.49
353.985	-1.53
354.197	-7.07
354.409	0.43
354.621	-0.13
354.832	9.62
355.044	-0.52
355.256	10.91
355.468	19.16
355.679	20.12
355.891	34.04
356.103	23.96
356.314	12.27
356.526	0.38
356.738	20.42
356.949	23.67
357.161	34.14
357.373	36.43
357.584	26.94
357.796	15.35
358.008	3.33
358.219	21.78
358.431	17.54
358.642	22.32
358.854	32.42
359.065	27.24
359.277	-8.17
359.488	-22.11
359.7	-33.02
359.911	-70.84
360.123	-41.69
360.334	-51.81
360.546	-53.87
360.757	-55.66
360.969	-21.57
361.18	-12.94
361.391	17.18
361.603	12.95
361.814	24.98
362.025	8.42
362.237	-11.07
362.448	-9.73
362.659	4.18
362.871	2.89
363.082	3.57
363.293	9.34
363.504	-1.87
363.716	-22.44
363.927	-31.74
364.138	-59.19
364.349	-64.55
364.56	-60.34
364.772	-45.01
364.983	-21.85
365.194	-9.86
365.405	8.54
365.616	27.8
365.827	33.45
366.038	18.65
366.25	14
366.461	-16.93
366.672	-3.4
366.883	4.96
367.094	11.29
367.305	4.85
367.516	16.45
367.727	-5.19
367.938	-25.3
368.149	-26.51
368.36	2.62
368.571	3.26
368.781	-15.03
368.992	-11.44
369.203	-22.03
369.414	-56.06
369.625	-69.02
369.836	-57.11
370.047	-78.91
370.258	-53.49
370.468	-50.46
370.679	-69.1
370.89	-56.5
371.101	-27.56
371.312	-39.19
371.522	-32.2
371.733	-18.35
371.944	-7.76
372.155	-7.86
372.365	-6.33
372.576	-6.96
372.787	-3.5
372.997	-17.15
373.208	-15.65
373.419	12.83
373.629	-13.33
373.84	-26.92
374.05	-31.02
374.261	-28.72
374.472	-60.16
374.682	1.09
374.893	10.16
375.103	38.27
375.314	37.57
375.524	41.56
375.735	22.28
375.945	30.17
376.156	1.44
376.366	-2.05
376.577	-1.48
376.787	0.94
376.997	6.43
377.208	7.06
377.418	-9.43
377.629	3.32
377.839	-1.5
378.049	-5.23
378.26	10.91
378.47	26.25
378.68	10.75
378.89	10.18
379.101	3.41
379.311	-24.82
379.521	-54.46
379.732	-53.01
379.942	-51.07
380.152	-72.29
380.362	-37.41
380.572	-27.45
380.783	-12.89
380.993	-1.65
381.203	16.63
381.413	20.29
381.623	20.66
381.833	12.28
382.043	-5.73
382.253	-9.9
382.463	-7.2
382.674	-10.64
382.884	-21.85
383.094	-15.1
383.304	-3.61
383.514	-3.7
383.724	7.81
383.934	5.01
384.144	-4.91
384.353	-20.84
384.563	-25.38
384.773	-23.87
384.983	-31.24
385.193	-6.05
385.403	-1.68
385.613	1.75
385.823	-12.57
386.033	-2.89
386.242	-15.63
386.452	-17.41
386.662	-27.56
386.872	-13.38
387.082	-18.73
387.291	-22.81
387.501	-18.84
387.711	-10.01
387.921	-15.85
388.13	-8.3
388.34	6.13
388.55	1.74
388.759	2.31
388.969	9.62
389.179	4.51
389.388	0.21
389.598	6.75
389.807	-0.19
390.017	-6.62
390.227	-4.29
390.436	-7.21
390.646	-9.48
390.855	-2.86
391.065	-3.45
391.274	-5.64
391.484	-7.12
391.693	-5.69
391.903	-7.5
392.112	-0.23
392.322	5.3
392.531	8.51
392.74	7.06
392.95	3.2
393.159	-0.75
393.369	-1.46
393.578	-2.22
393.787	-2.04
393.997	0.66
394.206	-0.65
394.415	-0.48
394.625	-1.31
394.834	-2.16
395.043	0.06
395.252	2.7
395.462	3.96
395.671	5.6
395.88	6.51
396.089	6.67
396.298	4.82
396.508	4.37
396.717	4.26
396.926	4.24
397.135	3.39
397.344	3.27
397.553	3.59
397.762	4.81
397.971	5.43
398.181	5.09
398.39	5.1
398.599	4.81
398.808	4.32
399.017	4.4
399.226	5.55
399.435	6.31
399.644	6.08
399.853	4.7
400.062	4.14
400.27	3.73
400.479	3.37
400.688	2.69
400.897	3.33
401.106	3.28
401.315	3.01
401.524	3.11
401.733	3.71
401.941	4.04
402.15	4.4
402.359	4.14
402.568	4.26
402.777	4.37
402.985	4.21
403.194	4.04
403.403	4.19
403.612	3.95
403.82	3.82
404.029	3.94
404.238	3.91
404.446	4.27
404.655	4.06
404.864	4
405.072	3.68
405.281	3.59
405.489	3.27
405.698	3.56
405.906	3.37
406.115	3.45
406.324	3.51
406.532	3.54
406.741	3.62
406.949	3.73
407.158	3.76
407.366	3.74
407.574	3.76
407.783	3.71
407.991	3.59
408.2	3.7
408.408	3.74
408.617	3.62
408.825	3.53
409.033	3.62
409.242	3.59
409.45	3.59
409.658	3.48
409.867	3.57
410.075	3.39
410.283	3.17
410.491	3.12
410.7	3.16
410.908	3.05
411.116	3.36
411.324	3.46
411.533	3.46
411.741	3.61
411.949	3.63
412.157	3.37
412.365	3.47
412.573	3.45
412.781	3.45
412.99	3.35
413.198	3.57
413.406	3.51
413.614	3.55
413.822	3.48
414.03	3.42
414.238	3.18
414.446	3.2
414.654	2.99
414.862	2.98
415.07	3.12
415.278	3.35
415.486	3.13
415.694	3.38
415.902	3.21
416.109	3.13
416.317	3.01
416.525	2.96
416.733	2.79
416.941	2.98
417.149	2.96
417.357	2.99
417.564	3.23
417.772	3.55
417.98	3.53
418.188	3.53
418.395	3.43
418.603	3.61
418.811	3.13
419.019	3.07
419.226	3.28
419.434	3.47
419.642	3.02
419.849	3.17
420.057	3.25
420.265	3
420.472	2.71
420.68	2.89
420.887	2.91
421.095	2.82
421.302	2.83
421.51	3.07
421.717	3.19
421.925	3.25
422.132	3.22
422.34	3.06
422.547	3.18
422.755	3.04
422.962	2.77
423.17	2.75
423.377	2.95
423.585	2.96
423.792	2.81
423.999	2.83
424.207	2.81
424.414	2.88
424.621	2.71
424.829	2.96
425.036	3.18
425.243	3.36
425.451	3.23
425.658	2.98
425.865	2.98
426.072	3.06
426.28	3.27
426.487	3.24
426.694	3.3
426.901	3.06
427.108	2.92
427.315	2.64
427.523	2.95
427.73	3.06
427.937	3.08
428.144	2.96
428.351	2.89
428.558	2.85
428.765	2.8
428.972	2.81
429.179	2.96
429.386	3.32
429.593	3.04
429.8	2.91
430.007	2.98
430.214	3.06
430.421	2.71
430.628	2.65
430.835	2.74
431.042	2.9
431.249	2.95
431.456	3.01
431.662	3.26
431.869	3.39
432.076	3.39
432.283	3.34
432.49	3.37
432.697	3.37
432.903	3.14
433.11	3.02
433.317	3.13
433.524	3.28
433.73	3.12
433.937	3.44
434.144	3.43
434.35	3.42
434.557	3.28
434.764	3.32
434.97	3.09
435.177	3.31
435.384	3.18
435.59	3.19
435.797	3.41
436.003	3.56
436.21	3.49
436.416	3.58
436.623	3.58
436.829	3.62
437.036	3.66
437.242	3.78
437.449	3.85
437.655	3.83
437.862	3.71
438.068	3.61
438.275	3.66
438.481	3.77
438.687	3.84
438.894	3.95
439.1	4.05
439.307	4.07
439.513	3.89
439.719	3.94
439.926	3.92
440.132	3.87
440.338	3.69
440.544	3.82
440.751	3.73
440.957	3.74
441.163	3.71
441.369	3.83
441.575	3.58
441.782	3.57
441.988	3.52
442.194	3.56
442.4	3.48
442.606	3.82
442.812	3.96
443.018	3.99
443.224	3.97
443.431	4.19
443.637	3.91
443.843	3.76
444.049	3.81
444.255	3.82
444.461	3.69
444.667	3.76
444.873	3.93
445.079	3.93
445.284	4.06
445.49	3.83
445.696	3.78
445.902	3.66
446.108	3.61
446.314	3.4
446.52	3.53
446.726	3.8
446.931	3.87
447.137	3.91
447.343	4.03
447.549	4.01
447.755	3.81
447.96	3.9
448.166	3.79
448.372	3.76
448.578	3.81
448.783	3.85
448.989	3.84
449.195	4.03
449.4	4.08
449.606	4.05
449.812	3.99
450.017	3.95
450.223	3.89
450.428	3.81
450.634	3.93
450.84	4.08
451.045	4.09
451.251	4.04
451.456	4.31
451.662	4.38
451.867	4.34
452.073	4.29
452.278	4.43
452.483	4.48
452.689	4.37
452.894	4.37
453.1	4.45
453.305	4.27
453.51	4.14
453.716	4.03
453.921	4.12
454.127	4.09
454.332	4.14
454.537	4.12
454.742	4.17
454.948	4.11
455.153	4.12
455.358	4.27
455.563	4.35
455.769	4.46
455.974	4.34
456.179	4.22
456.384	4.14
456.589	4.09
456.795	3.92
457	4.04
457.205	4.32
457.41	4.32
457.615	4.24
457.82	4.36
458.025	4.35
458.23	4.14
458.435	4.12
458.64	4.1
458.845	4.22
459.05	4.14
459.255	4.24
459.46	4.29
459.665	4.29
459.87	4.3
460.075	4.31
460.28	4.24
460.485	4.3
460.69	4.36
460.895	4.22
461.099	4.22
461.304	4.4
461.509	4.36
461.714	4.32
461.919	4.48
462.123	4.41
462.328	4.42
462.533	4.3
462.738	4.45
462.942	4.28
463.147	4.53
463.352	4.49
463.556	4.62
463.761	4.56
463.966	4.68
464.17	4.64
464.375	4.54
464.58	4.47
464.784	4.42
464.989	4.34
465.193	4.31
465.398	4.38
465.602	4.58
465.807	4.61
466.011	4.72
466.216	4.66
466.42	4.69
466.625	4.61
466.829	4.67
467.034	4.66
467.238	4.93
467.443	4.94
467.647	4.83
467.851	4.89
468.056	4.93
468.26	4.74
468.464	4.74
468.669	4.9
468.873	4.95
469.077	4.93
469.282	5.05
469.486	5.11
469.69	5.17
469.894	5.03
470.099	5.09
470.303	5.16
470.507	5.01
470.711	4.81
470.915	4.91
471.119	4.78
471.324	4.66
471.528	4.73
471.732	4.79
471.936	4.72
472.14	4.83
472.344	4.87
472.548	4.85
472.752	5.05
472.956	5.27
473.16	5.22
473.364	5.15
473.568	5.18
473.772	5.14
473.976	5
474.18	5.03
474.384	5.16
474.588	5.08
474.792	4.92
474.995	4.92
475.199	4.98
475.403	4.95
475.607	5.04
475.811	5.05
476.015	5.05
476.218	5.1
476.422	5.02
476.626	5.14
476.83	5.28
477.033	5.31
477.237	5.14
477.441	5.2
477.644	5.13
477.848	5.1
478.052	5.05
478.255	5.09
478.459	5.08
478.663	5.15
478.866	5.14
479.07	5.16
479.273	5.33
479.477	5.38
479.681	5.3
479.884	5.28
480.088	5.27
480.291	5.19
480.495	5.19
480.698	5.21
480.901	5.28
481.105	5.38
481.308	5.34
481.512	5.35
481.715	5.44
481.919	5.37
482.122	5.34
482.325	5.36
482.529	5.31
482.732	5.25
482.935	5.2
483.138	5.18
483.342	5.3
483.545	5.43
483.748	5.48
483.952	5.58
484.155	5.68
484.358	5.65
484.561	5.61
484.764	5.52
484.967	5.57
485.171	5.57
485.374	5.48
485.577	5.51
485.78	5.59
485.983	5.58
486.186	5.51
486.389	5.51
486.592	5.41
486.795	5.39
486.998	5.34
487.201	5.37
487.404	5.41
487.607	5.52
487.81	5.56
488.013	5.63
488.216	5.66
488.419	5.64
488.622	5.54
488.825	5.42
489.028	5.36
489.231	5.29
489.433	5.21
489.636	5.26
489.839	5.29
490.042	5.19
490.245	5.16
490.447	5.31
490.65	5.26
490.853	5.3
491.056	5.38
491.258	5.43
491.461	5.39
491.664	5.45
491.866	5.37
492.069	5.42
492.272	5.35
492.474	5.34
492.677	5.33
492.879	5.45
493.082	5.53
493.285	5.71
493.487	5.73
493.69	5.75
493.892	5.66
494.095	5.56
494.297	5.46
494.5	5.46
494.702	5.44
494.905	5.44
495.107	5.43
495.309	5.43
495.512	5.44
495.714	5.5
495.917	5.57
496.119	5.61
496.321	5.66
496.524	5.69
496.726	5.65
496.928	5.63
497.13	5.63
497.333	5.62
497.535	5.61
497.737	5.63
497.939	5.65
498.142	5.7
498.344	5.66
498.546	5.56
498.748	5.59
498.95	5.69
499.152	5.61
499.355	5.62
499.557	5.78
499.759	5.84
499.961	5.73
500.163	5.77
500.365	5.75
500.567	5.75
500.769	5.66
500.971	5.72
501.173	5.72
501.375	5.75
501.577	5.68
501.779	5.63
501.981	5.56
502.183	5.57
502.385	5.5
502.587	5.43
502.788	5.54
502.99	5.6
503.192	5.57
503.394	5.65
503.596	5.7
503.798	5.65
503.999	5.71
504.201	5.72
504.403	5.72
504.605	5.75
504.806	5.71
505.008	5.64
505.21	5.67
505.411	5.7
505.613	5.69
505.815	5.73
506.016	5.81
506.218	5.9
506.42	5.88
506.621	5.89
506.823	5.92
507.024	5.85
507.226	5.8
507.427	5.78
507.629	5.76
507.83	5.82
508.032	5.85
508.233	5.88
508.435	5.98
508.636	6.06
508.838	5.94
509.039	5.95
509.24	5.96
509.442	5.95
509.643	5.9
509.845	5.95
510.046	5.97
510.247	5.91
510.448	5.86
510.65	5.87
510.851	6
511.052	5.97
511.254	5.97
511.455	6.09
511.656	6.17
511.857	6.15
512.058	6.16
512.26	6.21
512.461	6.17
512.662	6.19
512.863	6.07
513.064	6.08
513.265	6.09
513.466	6.09
513.667	6.02
513.868	6.13
514.069	6.21
514.27	6.27
514.471	6.32
514.672	6.33
514.873	6.27
515.074	6.3
515.275	6.24
515.476	6.15
515.677	6.2
515.878	6.32
516.079	6.24
516.28	6.31
516.481	6.46
516.682	6.47
516.882	6.36
517.083	6.37
517.284	6.25
517.485	6.17
517.686	6.13
517.886	6.15
518.087	6.2
518.288	6.3
518.488	6.28
518.689	6.26
518.89	6.23
519.091	6.27
519.291	6.24
519.492	6.29
519.692	6.33
519.893	6.42
520.094	6.32
520.294	6.31
520.495	6.32
520.695	6.36
520.896	6.27
521.096	6.36
521.297	6.39
521.497	6.35
521.698	6.28
521.898	6.33
522.099	6.35
522.299	6.36
522.499	6.43
522.7	6.48
522.9	6.48
523.101	6.46
523.301	6.47
523.501	6.43
523.702	6.4
523.902	6.49
524.102	6.54
524.302	6.53
524.503	6.56
524.703	6.62
524.903	6.6
525.103	6.53
525.304	6.65
525.504	6.68
525.704	6.67
525.904	6.63
526.104	6.62
526.304	6.55
526.504	6.57
526.705	6.55
526.905	6.62
527.105	6.68
527.305	6.67
527.505	6.59
527.705	6.59
527.905	6.61
528.105	6.64
528.305	6.6
528.505	6.68
528.705	6.78
528.905	6.73
529.105	6.71
529.304	6.79
529.504	6.86
529.704	6.82
529.904	6.85
530.104	6.87
530.304	6.88
530.503	6.81
530.703	6.74
530.903	6.7
531.103	6.7
531.303	6.68
531.502	6.7
531.702	6.81
531.902	6.87
532.101	6.86
532.301	6.88
532.501	6.88
532.7	6.86
532.9	6.9
533.1	6.88
533.299	6.91
533.499	6.96
533.698	6.92
533.898	6.89
534.097	6.93
534.297	6.98
534.496	6.92
534.696	6.98
534.895	7.1
535.095	7.25
535.294	7.15
535.494	7.16
535.693	7.19
535.892	7.13
536.092	6.95
536.291	6.99
536.491	7.05
536.69	7.08
536.889	7.02
537.088	7.09
537.288	7.17
537.487	7.2
537.686	7.2
537.886	7.27
538.085	7.25
538.284	7.32
538.483	7.3
538.682	7.34
538.882	7.34
539.081	7.47
539.28	7.37
539.479	7.34
539.678	7.31
539.877	7.38
540.076	7.37
540.275	7.37
540.474	7.49
540.673	7.52
540.872	7.48
541.071	7.49
541.27	7.57
541.469	7.58
541.668	7.64
541.867	7.72
542.066	7.74
542.265	7.81
542.464	7.75
542.663	7.72
542.862	7.81
543.06	7.86
543.259	7.88
543.458	8
543.657	8.07
543.856	8.05
544.054	8.03
544.253	7.97
544.452	7.99
544.651	8.04
544.849	7.99
545.048	8.09
545.247	8.09
545.445	8.11
545.644	8.16
545.843	8.2
546.041	8.16
546.24	8.39
546.438	8.47
546.637	8.48
546.836	8.62
547.034	8.69
547.233	8.55
547.431	8.57
547.63	8.58
547.828	8.54
548.027	8.63
548.225	8.73
548.423	8.73
548.622	8.84
548.82	8.88
549.019	8.86
549.217	8.94
549.415	8.99
549.614	9.07
549.812	9.12
550.01	9.15
550.209	9.19
550.407	9.25
550.605	9.22
550.803	9.29
551.002	9.37
551.2	9.44
551.398	9.53
551.596	9.59
551.794	9.73
551.993	9.79
552.191	9.83
552.389	9.92
552.587	10.04
552.785	10.04
552.983	10.13
553.181	10.21
553.379	10.24
553.577	10.25
553.775	10.34
553.973	10.42
554.171	10.52
554.369	10.53
554.567	10.62
554.765	10.62
554.963	10.68
555.161	10.66
555.359	10.75
555.557	10.9
555.755	10.96
555.952	11.08
556.15	11.17
556.348	11.28
556.546	11.34
556.744	11.49
556.941	11.46
557.139	11.59
557.337	11.64
557.535	11.64
557.732	11.65
557.93	11.82
558.128	11.84
558.325	11.93
558.523	12.01
558.721	12.19
558.918	12.25
559.116	12.37
559.313	12.4
559.511	12.59
559.708	12.6
559.906	12.63
560.104	12.72
560.301	12.88
560.498	12.86
560.696	12.97
560.893	13.06
561.091	13.12
561.288	13.24
561.486	13.37
561.683	13.48
561.88	13.63
562.078	13.75
562.275	13.76
562.473	13.92
562.67	14.07
562.867	14.2
563.064	14.29
563.262	14.39
563.459	14.48
563.656	14.58
563.853	14.65
564.051	14.74
564.248	14.91
564.445	14.99
564.642	15.04
564.839	15.11
565.036	15.29
565.234	15.48
565.431	15.61
565.628	15.67
565.825	15.84
566.022	15.93
566.219	15.94
566.416	16.07
566.613	16.22
566.81	16.32
567.007	16.28
567.204	16.33
567.401	16.28
567.598	16.35
567.795	16.4
567.991	16.6
568.188	16.69
568.385	16.9
568.582	17.03
568.779	17.06
568.976	17.09
569.172	17.25
569.369	17.15
569.566	17.13
569.763	17.26
569.96	17.36
570.156	17.32
570.353	17.49
570.55	17.61
570.746	17.68
570.943	17.71
571.14	17.76
571.336	17.82
571.533	17.84
571.729	17.86
571.926	18.01
572.123	18.14
572.319	18.18
572.516	18.21
572.712	18.3
572.909	18.26
573.105	18.32
573.302	18.36
573.498	18.48
573.695	18.47
573.891	18.54
574.087	18.56
574.284	18.58
574.48	18.59
574.677	18.69
574.873	18.6
575.069	18.69
575.266	18.83
575.462	18.75
575.658	18.75
575.854	18.94
576.051	18.95
576.247	18.85
576.443	18.94
576.639	18.92
576.835	18.82
577.032	18.79
577.228	18.96
577.424	18.99
577.62	18.94
577.816	18.98
578.012	19.01
578.208	18.93
578.404	18.97
578.6	19.05
578.796	19.06
578.993	19.05
579.189	19.01
579.384	18.89
579.58	18.82
579.776	18.74
579.972	18.67
580.168	18.62
580.364	18.73
580.56	18.8
580.756	18.84
580.952	18.77
581.148	18.89
581.343	18.93
581.539	18.93
581.735	18.96
581.931	19.14
582.127	19.01
582.322	18.92
582.518	18.93
582.714	18.91
582.909	18.8
583.105	18.84
583.301	18.79
583.496	18.78
583.692	18.73
583.888	18.73
584.083	18.76
584.279	18.74
584.474	18.69
584.67	18.67
584.866	18.64
585.061	18.51
585.257	18.62
585.452	18.62
585.648	18.65
585.843	18.7
586.039	18.78
586.234	18.74
586.429	18.64
586.625	18.69
586.82	18.67
587.015	18.75
587.211	18.63
587.406	18.74
587.601	18.7
587.797	18.66
587.992	18.54
588.187	18.76
588.383	18.66
588.578	18.66
588.773	18.66
588.968	18.65
589.163	18.62
589.359	18.66
589.554	18.68
589.749	18.76
589.944	18.94
590.139	18.9
590.334	18.96
590.529	18.91
590.724	18.99
590.919	18.94
591.114	18.96
591.309	19.09
591.504	19.19
591.699	19.13
591.894	19.21
592.089	19.2
592.284	19.2
592.479	19.33
592.674	19.4
592.869	19.44
593.064	19.53
593.259	19.61
593.454	19.62
593.648	19.69
593.843	19.69
594.038	19.9
594.233	19.87
594.428	19.87
594.622	19.89
594.817	20.05
595.012	19.96
595.206	20.03
595.401	20.12
595.596	20.19
595.79	20.23
595.985	20.36
596.18	20.48
596.374	20.62
596.569	20.73
596.763	20.8
596.958	20.85
597.153	20.98
597.347	20.99
597.542	21.05
597.736	21.08
597.931	21.13
598.125	21.15
598.319	21.29
598.514	21.35
598.708	21.46
598.903	21.62
599.097	21.66
599.291	21.69
599.486	21.69
599.68	21.65
599.874	21.66
600.069	21.72
600.263	21.77
600.457	21.84
600.651	21.96
600.846	21.98
601.04	22.04
601.234	22.05
601.428	22.25
601.622	22.22
601.817	22.2
602.011	22.29
602.205	22.34
602.399	22.28
602.593	22.43
602.787	22.56
602.981	22.45
603.175	22.45
603.369	22.35
603.563	22.25
603.757	22.25
603.951	22.31
604.145	22.31
604.339	22.42
604.533	22.42
604.727	22.33
604.921	22.34
605.115	22.31
605.309	22.37
605.502	22.37
605.696	22.33
605.89	22.23
606.084	22.14
606.278	22.04
606.471	21.94
606.665	21.86
606.859	21.78
607.053	21.81
607.246	21.72
607.44	21.71
607.634	21.73
607.827	21.75
608.021	21.63
608.214	21.56
608.408	21.45
608.602	21.33
608.795	21.25
608.989	21.17
609.182	21.11
609.376	21.04
609.569	20.98
609.763	20.95
609.956	20.85
610.15	20.75
610.343	20.8
610.537	20.72
610.73	20.6
610.923	20.54
611.117	20.45
611.31	20.34
611.504	20.34
611.697	20.22
611.89	20.22
612.083	20.25
612.277	20.14
612.47	20.06
612.663	19.97
612.856	19.83
613.05	19.67
613.243	19.59
613.436	19.42
613.629	19.42
613.822	19.32
614.015	19.23
614.209	19.05
614.402	19.1
614.595	19.04
614.788	19.02
614.981	18.92
615.174	18.89
615.367	18.72
615.56	18.56
615.753	18.5
615.946	18.49
616.139	18.55
616.332	18.62
616.525	18.66
616.718	18.69
616.911	18.6
617.103	18.46
617.296	18.29
617.489	18.24
617.682	18.14
617.875	18.15
618.067	18.07
618.26	17.95
618.453	17.96
618.646	17.93
618.838	17.93
619.031	18.1
619.224	18.13
619.417	18.08
619.609	18.06
619.802	17.9
619.994	17.73
620.187	17.76
620.38	17.71
620.572	17.67
620.765	17.73
620.957	17.65
621.15	17.49
621.342	17.4
621.535	17.36
621.727	17.34
621.92	17.3
622.112	17.31
622.305	17.37
622.497	17.25
622.69	17.17
622.882	17.22
623.074	17.33
623.267	17.21
623.459	17.13
623.651	17.06
623.844	17.01
624.036	16.94
624.228	16.95
624.42	16.98
624.613	17.12
624.805	17.03
624.997	17.01
625.189	16.98
625.381	16.99
625.574	16.82
625.766	16.78
625.958	16.72
626.15	16.66
626.342	16.65
626.534	16.56
626.726	16.53
626.918	16.51
627.11	16.48
627.302	16.51
627.494	16.56
627.686	16.57
627.878	16.48
628.07	16.53
628.262	16.4
628.454	16.43
628.646	16.46
628.838	16.46
629.029	16.34
629.221	16.45
629.413	16.34
629.605	16.21
629.797	16.24
629.989	16.26
630.18	16.17
630.372	16.11
630.564	16.17
630.755	16.15
630.947	16.19
631.139	16.01
631.33	15.96
631.522	15.91
631.714	15.86
631.905	15.74
632.097	15.77
632.289	15.79
632.48	15.76
632.672	15.65
632.863	15.51
633.055	15.48
633.246	15.45
633.438	15.34
633.629	15.33
633.821	15.39
634.012	15.41
634.203	15.32
634.395	15.44
634.586	15.45
634.777	15.39
634.969	15.41
635.16	15.5
635.351	15.39
635.543	15.37
635.734	15.42
635.925	15.37
636.117	15.39
636.308	15.33
636.499	15.2
636.69	15.06
636.881	15.1
637.073	15.12
637.264	15.07
637.455	15.19
637.646	15.38
637.837	15.34
638.028	15.23
638.219	15.37
638.41	15.28
638.601	15.14
638.792	15.11
638.983	15.05
639.174	14.98
639.365	15.1
639.556	15.09
639.747	15.01
639.938	15.09
640.129	15.01
640.32	14.95
640.511	14.96
640.701	15.12
640.892	15.01
641.083	15.09
641.274	15.04
641.465	15.11
641.655	14.92
641.846	14.95
642.037	14.92
642.228	14.84
642.418	14.82
642.609	14.89
642.8	14.9
642.99	14.84
643.181	14.99
643.372	14.93
643.562	14.92
643.753	14.83
643.943	14.8
644.134	14.61
644.324	14.56
644.515	14.51
644.705	14.63
644.896	14.67
645.086	14.8
645.277	14.69
645.467	14.65
645.658	14.47
645.848	14.42
646.038	14.37
646.229	14.45
646.419	14.39
646.61	14.47
646.8	14.42
646.99	14.35
647.18	14.32
647.371	14.34
647.561	14.16
647.751	14.19
647.941	14.15
648.132	14.24
648.322	14.21
648.512	14.32
648.702	14.24
648.892	14.15
649.082	14.05
649.272	13.93
649.462	13.78
649.653	13.74
649.843	13.72
650.033	13.64
650.223	13.69
650.413	13.66
650.603	13.67
650.793	13.72
650.983	13.7
651.172	13.68
651.362	13.67
651.552	13.6
651.742	13.53
651.932	13.52
652.122	13.5
652.312	13.53
652.502	13.54
652.691	13.47
652.881	13.32
653.071	13.21
653.261	13.06
653.45	12.88
653.64	12.88
653.83	12.76
654.019	12.68
654.209	12.65
654.399	12.63
654.588	12.49
654.778	12.48
654.968	12.33
655.157	12.22
655.347	12.09
655.536	11.96
655.726	11.86
655.915	11.74
656.105	11.64
656.294	11.51
656.484	11.28
656.673	11.18
656.863	11.17
657.052	10.91
657.241	10.75
657.431	10.71
657.62	10.54
657.809	10.28
657.999	10.25
658.188	10.14
658.377	9.98
658.567	9.88
658.756	9.83
658.945	9.68
659.134	9.58
659.324	9.53
659.513	9.44
659.702	9.3
659.891	9.13
660.08	8.96
660.269	8.8
660.458	8.59
660.648	8.51
660.837	8.46
661.026	8.44
661.215	8.34
661.404	8.19
661.593	8.1
661.782	7.85
661.971	7.8
662.16	7.65
662.349	7.64
662.538	7.39
662.726	7.42
662.915	7.26
663.104	7.25
663.293	7.27
663.482	7.39
663.671	7.36
663.86	7.23
664.048	7.12
664.237	7.08
664.426	6.88
664.615	6.85
664.803	6.86
664.992	6.82
665.181	6.66
665.369	6.56
665.558	6.42
665.747	6.36
665.935	6.49
666.124	6.52
666.312	6.61
666.501	6.65
666.69	6.59
666.878	6.4
667.067	6.29
667.255	6.38
667.444	6.62
667.632	6.76
667.82	6.9
668.009	6.94
668.197	6.86
668.386	6.76
668.574	6.78
668.762	6.63
668.951	6.62
669.139	6.62
669.327	6.46
669.516	6.53
669.704	6.55
669.892	6.72
670.08	6.79
670.269	6.81
670.457	6.69
670.645	6.67
670.833	6.76
671.021	6.76
671.21	6.89
671.398	7.18
671.586	7.24
671.774	7.13
671.962	7.12
672.15	7.19
672.338	7
672.526	7.11
672.714	7.03
672.902	7.12
673.09	7.21
673.278	7.45
673.466	7.58
673.654	7.86
673.842	8.01
674.03	8.01
674.218	7.8
674.405	7.82
674.593	7.7
674.781	7.65
674.969	7.68
675.157	7.89
675.344	7.99
675.532	8.14
675.72	8.39
675.908	8.42
676.095	8.43
676.283	8.49
676.471	8.68
676.658	8.64
676.846	8.75
677.033	8.86
677.221	8.91
677.409	8.72
677.596	8.84
677.784	8.85
677.971	8.86
678.159	8.94
678.346	9.15
678.534	9.1
678.721	9.39
678.909	9.58
679.096	9.64
679.283	9.81
679.471	10
679.658	9.94
679.846	10.06
680.033	10.36
680.22	10.44
680.408	10.44
680.595	10.52
680.782	10.4
680.969	10.38
681.157	10.36
681.344	10.46
681.531	10.53
681.718	10.61
681.905	10.76
682.093	10.87
682.28	11.14
682.467	11.38
682.654	11.64
682.841	11.76
683.028	12.09
683.215	12.24
683.402	12.23
683.589	12.37
683.776	12.47
683.963	12.41
684.15	12.57
684.337	12.84
684.524	13.02
684.711	13.21
684.898	13.23
685.085	13.32
685.271	13.72
685.458	13.91
685.645	14.12
685.832	14.57
686.019	15
686.205	15.07
686.392	15.35
686.579	15.63
686.766	15.98
686.952	16.09
687.139	16.62
687.326	16.95
687.512	17.27
687.699	17.66
687.886	18.07
688.072	18.23
688.259	18.69
688.445	19.12
688.632	19.23
688.818	19.87
689.005	20.36
689.191	20.67
689.378	21.37
689.564	22.08
689.751	22.49
689.937	22.87
690.124	23.5
690.31	23.76
690.496	24.38
690.683	24.94
690.869	25.6
691.055	26.21
691.242	27.04
691.428	27.73
691.614	28.45
691.8	29.38
691.987	30.07
692.173	30.7
692.359	31.41
692.545	32.2
692.731	32.56
692.918	33.3
693.104	33.72
693.29	34.24
693.476	34.97
693.662	35.86
693.848	36.51
694.034	37.44
694.22	38.18
694.406	38.75
694.592	39.51
694.778	40.18
694.964	40.94
695.15	41.82
695.336	42.43
695.522	43.58
695.708	44.3
695.894	44.84
696.08	45.81
696.265	46.59
696.451	47.1
696.637	48.15
696.823	49.14
697.009	49.35
697.194	50.21
697.38	50.54
697.566	51.09
697.751	51.96
697.937	53.08
698.123	53.83
698.308	54.75
698.494	55.52
698.68	56.25
698.865	56.69
699.051	57.34
699.236	58.12
699.422	58.63
699.607	58.88
699.793	59.65
699.978	59.97
700.164	60.48
700.349	61.41
700.535	62.09
700.72	62.69
700.906	63.41
701.091	63.81
701.276	64.27
701.462	65.27
701.647	65.95
701.832	66.6
702.018	67.28
702.203	67.66
702.388	67.76
702.573	68.12
702.759	69.13
702.944	69.75
703.129	70.08
703.314	70.69
703.499	71.13
703.684	71.15
703.87	72.09
704.055	72.96
704.24	73.43
704.425	74.07
704.61	74.59
704.795	74.45
704.98	74.63
705.165	74.78
705.35	75.38
705.535	75.83
705.72	76.29
705.905	76.89
706.09	77.81
706.275	77.78
706.459	77.65
706.644	77.6
706.829	77.92
707.014	77.94
707.199	78.68
707.384	79.32
707.568	79.92
707.753	80.44
707.938	80.79
708.123	80.56
708.307	80.76
708.492	81.28
708.677	81.13
708.861	81.19
709.046	81.37
709.231	81.85
709.415	82.14
709.6	82.33
709.784	82.7
709.969	82.79
710.153	82.82
710.338	83.02
710.522	83.51
710.707	83.97
710.891	84.37
711.076	84.59
711.26	84.62
711.445	84.9
711.629	85.21
711.813	85.66
711.998	85.62
712.182	85.46
712.366	86.11
712.551	86.16
712.735	86.39
712.919	86.37
713.103	86.65
713.288	86.2
713.472	86.15
713.656	86.75
713.84	87.31
714.024	87.83
714.208	87.77
714.393	88.2
714.577	88
714.761	88.17
714.945	88.2
715.129	88.38
715.313	88.16
715.497	87.9
715.681	88.68
715.865	88.51
716.049	89.12
716.233	89.09
716.417	89.54
716.601	89.29
716.785	89.42
716.968	89.32
717.152	89.7
717.336	89.85
717.52	89.92
717.704	90.6
717.888	90.94
718.071	90.88
718.255	90.75
718.439	90.48
718.622	90.54
718.806	90.72
718.99	90.76
719.174	90.94
719.357	91.24
719.541	91.23
719.724	91.06
719.908	92.25
720.092	92.69
720.275	92.9
720.459	92.77
720.642	92.87
720.826	92.04
721.009	92.15
721.193	91.8
721.376	92.16
721.559	92.26
721.743	92.53
721.926	92.4
722.11	92.46
722.293	91.76
722.476	91.38
722.66	91.44
722.843	91.29
723.026	91.23
723.21	92.21
723.393	93.1
723.576	93.03
723.759	92.81
723.942	93.4
724.126	92.96
724.309	93.19
724.492	93.77
724.675	94.14
724.858	95.03
725.041	95.62
725.224	95.45
725.407	95.97
725.59	97
725.774	96.25
725.957	95.79
726.14	95.41
726.322	94.68
726.505	94.62
726.688	95.36
726.871	95.34
727.054	95.81
727.237	96.44
727.42	96.2
727.603	95.78
727.786	96.66
727.968	96.8
728.151	96.22
728.334	95.87
728.517	96.24
728.699	96.59
728.882	96.13
729.065	96.7
729.248	97.78
729.43	97.86
729.613	97.98
729.796	99.4
729.978	99.07
730.161	98.91
730.343	99.01
730.526	99.11
730.708	98.01
730.891	98.37
731.073	97.84
731.256	97.41
731.438	97.46
731.621	98.44
731.803	98.45
731.986	98.74
732.168	98.9
732.35	99.15
732.533	98.95
732.715	99
732.898	99.24
733.08	99.28
733.262	99.35
733.444	99.21
733.627	99.81
733.809	100.14
733.991	101.13
734.173	100.04
734.355	100.18
734.538	100.44
734.72	100.2
734.902	100.45
735.084	101.04
735.266	101.24
735.448	101.1
735.63	101.42
735.812	101.07
735.994	102.78
736.176	102.98
736.358	103.04
736.54	103.34
736.722	102.93
736.904	101.64
737.086	101.1
737.268	101.55
737.45	101.83
737.632	102.4
737.814	101.91
737.995	102.32
738.177	101.83
738.359	100.98
738.541	101.36
738.723	102.36
738.904	103.33
739.086	103.18
739.268	103.49
739.449	103.43
739.631	103.11
739.813	102.62
739.994	103.45
740.176	104.33
740.358	103.37
740.539	103.53
740.721	104.3
740.902	104.84
741.084	104.37
741.265	105.22
741.447	106.41
741.628	105.72
741.81	104.54
741.991	105.15
742.172	106.2
742.354	106.09
742.535	105.99
742.717	106.4
742.898	106.76
743.079	107.26
743.261	106.28
743.442	105.61
743.623	106.65
743.804	106.03
743.986	105.86
744.167	104.56
744.348	104.41
744.529	103.82
744.71	102.58
744.891	101.51
745.073	102.32
745.254	102.3
745.435	101.59
745.616	101.73
745.797	101.47
745.978	101.72
746.159	102.98
746.34	101.83
746.521	103.96
746.702	102.76
746.883	102.26
747.064	101.27
747.245	102.95
747.426	102.19
747.606	102.68
747.787	103.28
747.968	103.75
748.149	104.21
748.33	103.47
748.51	103.89
748.691	104.31
748.872	104.85
749.053	103.91
749.233	104.39
749.414	103.99
749.595	102.3
749.775	100.48
749.956	100.44
750.137	100.41
750.317	101.97
750.498	104.68
750.678	106.59
750.859	107.33
751.04	106.83
751.22	103.42
751.4	101.3
751.581	100.33
751.761	100.89
751.942	101.3
752.122	102.66
752.303	102.89
752.483	102.01
752.663	99.94
752.844	99.12
753.024	100.05
753.204	99.9
753.385	99.8
753.565	101.15
753.745	101.14
753.925	99.35
754.106	99.16
754.286	100.48
754.466	100.22
754.646	100.86
754.826	102.47
755.006	101.54
755.187	102.16
755.367	102.24
755.547	102.4
755.727	103.51
755.907	104.83
756.087	104.57
756.267	103.49
756.447	102.71
756.627	100.5
756.807	101.64
756.987	100.41
757.167	100.7
757.346	100.46
757.526	99.8
757.706	99.11
757.886	99.66
758.066	101.03
758.246	104.48
758.425	104.8
758.605	104.1
758.785	103.54
758.965	102.38
759.144	97.6
759.324	98.82
759.504	99.08
759.683	99.98
759.863	98.58
760.043	99.32
760.222	98.53
760.402	97.75
760.581	96.09
760.761	98.56
760.94	97.31
761.12	99.25
761.299	99.91
761.479	100.84
761.658	98.86
761.838	99.98
762.017	98.06
762.197	99.63
762.376	98.97
762.555	98.71
762.735	99.14
762.914	98.13
763.093	96.9
763.273	96.59
763.452	97.52
763.631	97.28
763.81	98.11
763.99	96.49
764.169	97.84
764.348	95.85
764.527	95.68
764.706	97.3
764.885	98.62
765.064	95.01
765.243	96.72
765.423	98.63
765.602	96.49
765.781	93.5
765.96	95.2
766.139	94.3
766.318	93.07
766.497	93.16
766.676	95.58
766.854	97.53
767.033	97.67
767.212	96.64
767.391	96.85
767.57	98.42
767.749	97.29
767.928	98.76
768.106	98.14
768.285	96.01
768.464	94.32
768.643	93.51
768.821	93.08
769	95.15
769.179	96.8
769.357	95.73
769.536	96.55
769.715	96.26
769.893	96.88
770.072	95.97
770.25	97.7
770.429	97.7
770.607	95.96
770.786	94.47
770.964	96.84
771.143	94.98
771.321	96.6
771.5	99.2
771.678	97.89
771.857	95.38
772.035	96.01
772.213	92.67
772.392	89.17
772.57	91.4
772.748	91.69
772.927	91.07
773.105	91.9
773.283	93.61
773.461	92.9
773.64	94.24
773.818	93.66
773.996	93.67
774.174	91.1
774.352	88.71
774.531	86.41
774.709	89.57
774.887	89.36
775.065	89.79
775.243	91.38
775.421	92.13
775.599	91.33
775.777	89.38
775.955	88.66
776.133	87.2
776.311	86.97
776.489	82.81
776.667	83.28
776.844	85.85
777.022	85.73
777.2	85.36
777.378	88.59
777.556	90.73
777.734	92.44
777.911	95.59
778.089	97.11
778.267	95.56
778.445	93.86
778.622	89.93
778.8	85.73
778.978	85.27
779.155	85.56
779.333	87.98
779.511	88.86
779.688	92.23
779.866	90.51
780.043	90.02
780.221	87.54
780.398	86.88
780.576	87.6
780.753	89.42
780.931	86.95
781.108	87.23
781.286	88.58
781.463	84.43
781.64	82.15
781.818	85.08
781.995	86.17
782.172	86.25
782.35	89.96
782.527	94.78
782.704	92.35
782.882	92.8
783.059	91.67
783.236	90
783.413	89.2
783.59	90.72
783.768	85.9
783.945	88.95
784.122	89.86
784.299	89.04
784.476	88.33
784.653	88.73
784.83	84.14
785.007	80.07
785.184	77.82
785.361	78.05
785.538	83.42
785.715	85.63
785.892	89.41
786.069	92.26
786.246	93.51
786.423	87.63
786.6	88.06
786.776	87.39
786.953	86
787.13	86.68
787.307	89.43
787.484	89.14
787.66	86.52
787.837	84.47
788.014	80.11
788.191	77.13
788.367	73.78
788.544	79.77
788.721	78.56
788.897	83.88
789.074	86.22
789.25	87.31
789.427	83.8
789.603	84.95
789.78	84.68
789.956	84.71
790.133	81.56
790.309	83.8
790.486	89.74
790.662	83.59
790.839	84.22
791.015	86.12
791.192	81.55
791.368	76.78
791.544	76.19
791.721	76.5
791.897	76.86
792.073	78.29
792.249	74.76
792.426	78.02
792.602	81.83
792.778	85.29
792.954	83.97
793.13	85.35
793.307	79.5
793.483	71.32
793.659	68.15
793.835	71.28
794.011	74.15
794.187	79.27
794.363	77.71
794.539	81.1
794.715	74.62
794.891	71.47
795.067	72.65
795.243	79.59
795.419	78.04
795.595	82.85
795.771	81.83
795.947	83.23
796.122	76.1
796.298	81.4
796.474	78.92
796.65	80.29
796.826	76.81
797.001	81.03
797.177	70.48
797.353	72.75
797.529	71.83
797.704	70.31
797.88	67.11
798.056	67.28
798.231	68.26
798.407	74.63
798.582	80.77
798.758	86.33
798.934	96.2
799.109	91.15
799.285	85.63
799.46	81.37
799.636	77.22
799.811	70.69
799.986	76.18
800.162	78.1
800.337	81.9
800.513	77.03
800.688	78.69
800.863	86.2
801.039	81.81
801.214	76.86
801.389	88.83
801.565	86.28
801.74	65.41
801.915	70.33
802.09	71.61
802.265	74.2
802.441	69.86
802.616	77.24
802.791	78.7
802.966	76.84
803.141	65.62
803.316	64.71
803.491	72.93
803.666	77.24
803.841	76.56
804.016	72.67
804.191	79.19
804.366	74.58
804.541	66.08
804.716	69.32
804.891	75.45
805.066	74.07
805.241	72.07
805.416	72.23
805.591	69.84
805.765	71.07
805.94	78.38
806.115	72.41
806.29	69.73
806.464	75.55
806.639	71.85
806.814	63.57
806.989	60.36
807.163	70.15
807.338	64.67
807.512	71.5
807.687	59.13
807.862	66.08
808.036	65.41
808.211	66.74
808.385	69.45
808.56	88.15
808.734	93.09
808.909	81.9
809.083	76.6
809.258	79
809.432	73.36
809.606	66.2
809.781	68.72
809.955	77.94
810.13	79.09
810.304	72.85
810.478	70.89
810.652	75.35
810.827	73.52
811.001	67.26
811.175	66.79
811.349	73.2
811.524	65.29
811.698	52.89
811.872	55.8
812.046	63.47
812.22	64.53
812.394	72.16
812.568	79.29
812.742	82.27
812.916	84.06
813.09	83
813.264	79.34
813.438	80.21
813.612	67.45
813.786	58.69
813.96	62.97
814.134	58.72
814.308	66.38
814.482	79.58
814.656	76.84
814.83	78.19
815.003	87.94
815.177	82.85
815.351	70.55
815.525	72.62
815.698	60.08
815.872	55.27
816.046	43.14
816.219	53.26
816.393	59.23
816.567	68.13
816.74	66.07
816.914	65.13
817.088	64.32
817.261	56.14
817.435	43.96
817.608	46.06
817.782	48.15
817.955	42.89
818.129	41.02
818.302	50.46
818.475	53.87
818.649	52.2
818.822	45.48
818.996	70.2
819.169	72.5
819.342	70.51
819.516	85.57
819.689	97.51
819.862	72.89
820.035	62.65
820.209	59.15
820.382	51.45
820.555	48.16
820.728	40.15
820.901	34.18
821.075	24.51
821.248	32.66
821.421	20.22
821.594	30.66
821.767	61.84
821.94	88.32
822.113	63.42
822.286	56.75
822.459	70.48
822.632	54.65
822.805	34.63
822.978	50.11
823.151	58.87
823.324	38.75
823.496	27.19
823.669	29.49
823.842	29.23
824.015	16.71
824.188	19.11
824.361	21.17
824.533	15.22
824.706	15.17
824.879	21.42
825.051	36.35
825.224	41.76
825.397	47.68
825.569	53.34
825.742	75.97
825.915	87.08
826.087	87.9
826.26	58.53
826.432	54.01
826.605	45.6
826.777	19.35
826.95	23.94
827.122	34.33
827.295	32.37
827.467	41.12
827.64	33.25
827.812	30.53
827.984	36.37
828.157	36.66
828.329	-7.77
828.501	0.23
828.674	21.34
828.846	1.06
829.018	23.59
829.19	27.6
829.363	52.75
829.535	55.53
829.707	56.99
829.879	35.59
830.051	30.44
830.223	10.29
830.395	-12.3
830.568	-7.22
830.74	-0.8
830.912	24.61
831.084	23.03
831.256	24.36
831.428	19.46
831.6	10.89
831.772	-26.23
831.943	-49.47
832.115	-34.58
832.287	0.95
832.459	4.99
832.631	26.93
832.803	61.12
832.975	78.6
833.146	51.39
833.318	64.37
833.49	60.37
833.662	44.65
833.833	11.81
834.005	21.72
834.177	32.34
834.348	29.49
834.52	28.99
834.692	27.6
834.863	32.72
835.035	2.35
835.206	-61.43
835.378	-61.7
835.549	-46.29
835.721	-43.81
835.892	-51.82
836.064	-22.97
836.235	-21.76
836.407	-2.2
836.578	-24.84
836.749	5.96
836.921	-7.6
837.092	-40.65
837.264	-56.53
837.435	-66.18
837.606	-27.4
837.777	17.79
837.949	37.34
838.12	43.66
838.291	52.75
838.462	48.56
838.633	16
838.805	4.45
838.976	15.6
839.147	-37.05
839.318	-34.01
839.489	-80.54
839.66	-28.68
839.831	-14.03
840.002	8.6
840.173	-31.07
840.344	51.72
840.515	47.06
840.686	-61.75
840.857	-67.71
841.028	-30.94
841.199	-64.2
841.369	-101.68
841.54	-56.85
841.711	-21.87
841.882	-8.16
842.053	-9.17
842.223	-18.86
842.394	0.02
842.565	15.14
842.736	22.27
842.906	15.91
843.077	49.87
843.248	65.09
843.418	60.08
843.589	23.34
843.759	86.54
843.93	55.64
844.101	19.94
844.271	13.18
844.442	31.84
844.612	34.46
844.783	-5.87
844.953	-38.09
845.123	-55.04
845.294	-88.47
845.464	-351.87
845.635	-170.19
845.805	-77.81
845.975	-30.22
846.146	-76.1
846.316	-38.37
846.486	-0.17
846.656	27.82
846.827	24.39
846.997	41.13
847.167	87.17
847.337	49.37
847.507	16.41
847.677	31.81
847.848	69.39
848.018	48.06
848.188	59.84
848.358	55.25
848.528	38.64
848.698	-4.17
848.868	-53.34
849.038	-166.33
849.208	-53.27
849.378	2.73
849.548	4.76
849.718	12.08
849.887	37.87
850.057	7.98
850.227	-21.01
850.397	-52.63
850.567	-154.37
850.737	-436.85
850.906	-1319.69
851.076	-988.87
851.246	-478.93
851.415	-62.03
851.585	-33.93
851.755	-56.78
851.924	-25.71
852.094	-37.52
852.264	-116.76
852.433	-908.41
852.603	-139.54
852.772	-54.18
852.942	-53.65
853.111	-26.32
853.281	40.08
853.45	68.84
853.62	12.64
853.789	-8.31
853.959	-22.85
854.128	-36.99
854.297	-84.31
854.467	-121.53
854.636	-79.22
854.805	5.18
854.975	-16.73
855.144	18.15
855.313	371.5
855.482	-63.32
855.652	-145.69
855.821	-191.79
855.99	-20.07
856.159	15.85
856.328	37.52
856.497	27.84
856.667	34.45
856.836	45.96
857.005	-7.23
857.174	-22.68
857.343	-53.11
857.512	-28.21
857.681	-108.84
857.85	-147.84
858.019	-56.5
858.188	-33.53
858.356	-42.04
858.525	-63.3
858.694	-15.32
858.863	-133.98
859.032	-79.37
859.201	-92.65
859.369	-22.9
859.538	0.69
859.707	-4.12
859.876	6.1
860.044	-2.74
860.213	32.47
860.382	13
860.55	16.25
860.719	33.99
860.888	49.84
861.056	7.89
861.225	7.17
861.393	79.27
861.562	92.68
861.73	-7.57
861.899	-120.81
862.067	-1850.86
862.236	-152.78
862.404	-366.5
862.572	-183.55
862.741	-47.51
862.909	-54.66
863.078	-192.08
863.246	-111.93
863.414	-118.16
863.582	-108.01
863.751	-104.08
863.919	-77.72
864.087	-18.1
864.255	-17.42
864.424	-242.53
864.592	2.27
864.76	-9.12
864.928	-196.6
865.096	-115.53
865.264	-50.88
865.432	-1192.61
865.6	63.13
865.768	-24.32
865.936	-64.14
866.104	-106.18
866.272	-195.86
866.44	-464.07
866.608	761.28
866.776	364.51
866.944	2985.47
867.112	-512.18
867.28	-217.52
867.448	-74.6
867.615	-20.99
867.783	-6.54
867.951	-13.47
868.119	40.87
868.286	31.11
868.454	-4.39
868.622	3.64
868.789	22.65
868.957	-576.79
869.125	-1112.5
869.292	-46.38
869.46	-110.55
869.627	43.82
869.795	0.97
869.963	-2.74
870.13	13.01
870.298	44.57
870.465	-66.86
870.632	-64.2
870.8	-47.36
870.967	-118.2
871.135	-244.36
871.302	-149.18
871.469	-143.31
871.637	-115.21
871.804	-75.94
871.971	-62.8
872.139	-295.7
872.306	-36.47
872.473	-74.97
872.64	-256.12
872.807	-38.88
872.975	30.68
873.142	-140.64
873.309	1345.27
873.476	28.03
873.643	73.57
873.81	-21.97
873.977	31.22
874.144	37.86
874.311	-71.94
874.478	-137.25
874.645	-117.26
874.812	-78.43
874.979	-39.24
875.146	-39.94
875.313	-43.29
875.48	36.84
875.647	9.51
875.813	-26.04
875.98	-15.22
876.147	-56.21
876.314	-127.38
876.481	1110.54
876.647	-1240.17
876.814	413.34
876.981	90.1
877.147	36.7
877.314	38.9
877.481	50.08
877.647	42.77
877.814	-20.06
877.98	-72.72
878.147	-45.64
878.314	14.87
878.48	-79.01
878.647	-19.18
878.813	24.9
878.979	38.15
879.146	-1.47
879.312	25.13
879.479	-38.83
879.645	-119.31
879.811	-239.35
879.978	-638.74
880.144	-194.59
880.31	-64.08
880.477	-303.57
880.643	-378.08
880.809	-193.39
880.975	-167.33
881.142	-1079.77
881.308	-154.64
881.474	-80.28
881.64	-39.56
881.806	-100.17
881.972	-52.07
882.138	-64.19
882.304	-108.86
882.47	-316.64
882.636	-1012.91
882.802	-288.46
882.968	-25.12
883.134	-22.72
883.3	8.12
883.466	36
883.632	71.31
883.798	26.13
883.964	19.28
884.129	3.04
884.295	38.04
884.461	-55.68
884.627	-82.75
884.793	-95.68
884.958	-47.5
885.124	-151.03
885.29	-213.88
885.455	-273.67
885.621	-12.56
885.787	-46.98
885.952	-33.63
886.118	-36.78
886.283	-57.13
886.449	-173.86
886.614	-163.88
886.78	-314.9
886.945	1376.64
887.111	-638.01
887.276	-405.54
887.442	-796.14
887.607	-217.81
887.773	-142.28
887.938	-121.34
888.103	-144.81
888.269	-45.11
888.434	-179.86
888.599	-40.46
888.764	13.53
888.93	35.33
889.095	8.31
889.26	-28.72
889.425	14.68
889.59	39.46
889.756	-52.46
889.921	-23.11
890.086	-3.29
890.251	-23.57
890.416	-152.35
890.581	-1470.56
890.746	201.34
890.911	162.26
891.076	145.44
891.241	-366.98
891.406	26.21
891.571	-68.9
891.736	-360.44
891.901	-644.91
892.065	626.1
892.23	138.92
892.395	238.89
892.56	363.22
892.725	-468.55
892.889	-1287.2
893.054	-190.14
893.219	-48.19
893.384	-10.55
893.548	-69.82
893.713	-100
893.878	-79.32
