Data from Ofra_1a_PS_2GT3_Reflection_4.txt Node
Date: Tue Jul 20 10:49:20 EDT 2021
User: Adam
Spectrometer: FLMT01687
Trigger mode: 0
Integration Time (sec): 1.004000E0
Scans to average: 2
Electric dark correction enabled: true
Nonlinearity correction enabled: false
Boxcar width: 2
XAxis mode: Wavelengths
Number of Pixels in Spectrum: 3648
>>>>>Begin Spectral Data<<<<<
179.494	-309.64
179.716	-442.75
179.937	1192.64
180.158	-1751.59
180.38	259.07
180.601	199.49
180.823	186.37
181.044	148.73
181.265	175.18
181.486	95.99
181.708	98.74
181.929	-4018.18
182.15	62.34
182.372	-253.2
182.593	-29.53
182.814	66.89
183.035	41.23
183.257	58.81
183.478	30.18
183.699	2.3
183.92	-42.85
184.141	-70.71
184.363	-66.9
184.584	-94.06
184.805	-36.16
185.026	8.7
185.247	15.51
185.468	-18.42
185.689	13.22
185.91	-36.66
186.132	-20.89
186.353	-12.36
186.574	3.11
186.795	-36.22
187.016	-2.45
187.237	-6.54
187.458	-9.57
187.679	-7.65
187.9	22.59
188.121	22.39
188.342	14.76
188.563	36.8
188.784	40.56
189.005	38.79
189.226	43.73
189.447	36.91
189.667	13.65
189.888	8.94
190.109	-17.7
190.33	-7.57
190.551	-18.47
190.772	-3.41
190.993	-12.43
191.214	-2.55
191.434	-83.72
191.655	-77.77
191.876	-55.61
192.097	-26.23
192.318	6.74
192.538	-1.48
192.759	1.36
192.98	17.34
193.201	12.75
193.421	0.51
193.642	25.66
193.863	31.38
194.083	19.19
194.304	18.6
194.525	12.36
194.745	-10.25
194.966	2.33
195.187	-2.34
195.407	-20.12
195.628	1.22
195.848	5.57
196.069	-19.35
196.29	-8.66
196.51	3.84
196.731	-21.82
196.951	-24.83
197.172	-25.16
197.392	-34.31
197.613	-18.9
197.833	-16.35
198.054	-8.43
198.274	-1.13
198.495	12.16
198.715	3.23
198.936	20.82
199.156	4.25
199.377	5.91
199.597	0.76
199.817	21.73
200.038	-14.62
200.258	15.28
200.479	13.68
200.699	13.22
200.919	-6.84
201.14	5.12
201.36	-1.91
201.58	-9.32
201.801	-7.89
202.021	-1.34
202.241	-16.66
202.461	-17.96
202.682	19.64
202.902	18.83
203.122	22.82
203.342	28.65
203.563	13.73
203.783	-19.76
204.003	-14.72
204.223	4.87
204.443	27.47
204.663	42.3
204.884	78
205.104	44.38
205.324	17.29
205.544	-18.07
205.764	20
205.984	-3.64
206.204	8.62
206.424	7.51
206.644	-0.33
206.864	-37.37
207.084	-12.08
207.304	-23.9
207.525	-33.2
207.745	-9.83
207.964	-9.62
208.184	-0.58
208.404	17.23
208.624	34.45
208.844	34.61
209.064	41.94
209.284	24.4
209.504	9.35
209.724	-12.3
209.944	-23.71
210.164	-19.5
210.384	-20.25
210.604	-30.91
210.823	-20.99
211.043	-4.33
211.263	-84.47
211.483	-62.77
211.703	-39.93
211.922	-65.7
212.142	-54.99
212.362	-6.9
212.582	-10.38
212.801	-14.37
213.021	4.81
213.241	-8.4
213.461	3.7
213.68	19.2
213.9	10.29
214.12	-1.5
214.339	-7.2
214.559	-21.27
214.779	-53.5
214.998	-27.29
215.218	-0.46
215.438	21.08
215.657	7.94
215.877	-1.47
216.096	9.55
216.316	4.56
216.535	-3.37
216.755	13.43
216.974	30.91
217.194	15.63
217.413	-0.69
217.633	-10.47
217.852	-11.57
218.072	-2.79
218.291	-14.75
218.511	-6.38
218.73	-20.76
218.95	-62.89
219.169	-79.43
219.389	-51.53
219.608	-41.92
219.827	-1.71
220.047	46.94
220.266	64.3
220.485	56.99
220.705	32.67
220.924	22.01
221.143	-4.6
221.363	2.15
221.582	7.27
221.801	20.09
222.021	16
222.24	9.29
222.459	37.25
222.678	44.82
222.897	34.08
223.117	34.8
223.336	53.5
223.555	46.67
223.774	41.53
223.993	64.04
224.213	66.7
224.432	28.26
224.651	12.33
224.87	10.12
225.089	3.63
225.308	11.88
225.527	7.93
225.746	0.18
225.965	1.19
226.184	-17.96
226.404	-18.23
226.623	1.06
226.842	9.12
227.061	7.36
227.28	27.92
227.499	27.66
227.718	21.69
227.936	11.93
228.155	15.24
228.374	9.14
228.593	8.47
228.812	6.75
229.031	10.57
229.25	-4.56
229.469	9.34
229.688	25.4
229.907	24.75
230.125	29.02
230.344	34.99
230.563	31.86
230.782	24.71
231.001	27.57
231.22	34.03
231.438	47.64
231.657	50.21
231.876	45.22
232.095	33.3
232.313	13.23
232.532	-2.57
232.751	-36.95
232.969	-48.76
233.188	-48.67
233.407	-30.34
233.625	-30.32
233.844	-11.12
234.063	-7.76
234.281	5.02
234.5	2.44
234.719	3.69
234.937	-13.08
235.156	-4.16
235.374	-1.69
235.593	9.32
235.811	18.11
236.03	14.83
236.249	4.27
236.467	11.04
236.686	1.46
236.904	-2.24
237.123	-0.35
237.341	10.64
237.559	-1.67
237.778	14.13
237.996	-8.79
238.215	-46.84
238.433	-104.28
238.652	-55.1
238.87	-56.89
239.088	-39.68
239.307	-23.06
239.525	-3.07
239.743	-8.11
239.962	-28.51
240.18	-11.82
240.398	-2.18
240.617	-14.32
240.835	-2.35
241.053	13.54
241.271	21.16
241.49	26.01
241.708	20.27
241.926	1.27
242.144	12.73
242.363	-2.78
242.581	-52.39
242.799	-44.69
243.017	-3.98
243.235	-14.76
243.453	-39.09
243.672	-3.15
243.89	12
244.108	13.8
244.326	30.38
244.544	43.67
244.762	28.46
244.98	20.64
245.198	26.15
245.416	16.27
245.634	6.73
245.852	2.26
246.07	14.81
246.288	16.42
246.506	6.31
246.724	9.23
246.942	12.53
247.16	16.21
247.378	11.55
247.596	49.09
247.814	40.5
248.032	25.27
248.25	26.29
248.468	22.8
248.685	9.23
248.903	14.53
249.121	15.49
249.339	8.18
249.557	9.64
249.775	30.07
249.992	30.96
250.21	37.98
250.428	46.1
250.646	35.43
250.863	11
251.081	9.88
251.299	11.34
251.517	-9.59
251.734	-7.53
251.952	5.28
252.17	12.78
252.387	6.33
252.605	11.99
252.823	9.33
253.04	25.3
253.258	11.07
253.475	9.82
253.693	12.44
253.911	10.43
254.128	-8.78
254.346	-4.66
254.563	7.61
254.781	-7.79
254.998	-29.26
255.216	-50.55
255.433	-72.35
255.651	-58.93
255.868	-40.5
256.086	1.19
256.303	13.59
256.521	29.88
256.738	26.15
256.956	23.93
257.173	9.8
257.39	24.37
257.608	23.25
257.825	26
258.043	33.08
258.26	41.54
258.477	34.93
258.695	31.08
258.912	21.74
259.129	14.79
259.346	-12.32
259.564	-13.43
259.781	-6.08
259.998	7.21
260.216	14.33
260.433	17.51
260.65	9.82
260.867	3.61
261.084	2.34
261.302	-21.61
261.519	-2.28
261.736	-11.33
261.953	-1.33
262.17	6.48
262.387	23.47
262.604	20.59
262.822	35.97
263.039	34.91
263.256	26.36
263.473	14.37
263.69	4.69
263.907	-7.98
264.124	4.85
264.341	15.67
264.558	31.7
264.775	38.14
264.992	46.36
265.209	17.36
265.426	18.68
265.643	19.81
265.86	6.63
266.077	-5.41
266.294	5.5
266.51	13.37
266.727	0.36
266.944	25.59
267.161	27.83
267.378	21.72
267.595	17.01
267.812	11.2
268.028	-17.53
268.245	-19.8
268.462	4.49
268.679	2.54
268.896	19.54
269.112	24.45
269.329	13.73
269.546	19.34
269.763	20.55
269.979	12.76
270.196	26.78
270.413	33.3
270.629	14
270.846	3.67
271.063	1.27
271.279	-0.96
271.496	-16.39
271.712	-1.5
271.929	9.58
272.146	23.82
272.362	22.14
272.579	24.4
272.795	17.37
273.012	29.19
273.228	9.5
273.445	12.62
273.661	15.36
273.878	15.56
274.094	-4.33
274.311	0.95
274.527	-27.72
274.744	-6.72
274.96	6.45
275.177	15.78
275.393	30.97
275.609	41.15
275.826	33.27
276.042	25.66
276.259	33.83
276.475	20.87
276.691	8.87
276.908	-3.42
277.124	13.65
277.34	-4.24
277.557	-11.41
277.773	-2.74
277.989	19.74
278.205	15.31
278.422	11.62
278.638	13.51
278.854	0.61
279.07	5.16
279.286	4.72
279.503	6.05
279.719	17.98
279.935	18.97
280.151	5.26
280.367	-4.27
280.583	-7
280.799	-19.72
281.016	-32.76
281.232	-22.16
281.448	-10.46
281.664	-0.03
281.88	8.51
282.096	16.99
282.312	12.63
282.528	8.95
282.744	6.74
282.96	-2.16
283.176	-21.38
283.392	-42.37
283.608	-44.45
283.824	-44.49
284.04	-75.61
284.256	-17.2
284.471	7.4
284.687	4.84
284.903	13.25
285.119	39.26
285.335	40.29
285.551	27.23
285.767	33.3
285.982	28.86
286.198	-22.86
286.414	-44.96
286.63	1.1
286.846	-19.37
287.061	-17.91
287.277	-18.63
287.493	-33.12
287.709	-49.53
287.924	-9.16
288.14	11.28
288.356	37.31
288.571	47.56
288.787	37.32
289.003	30.19
289.218	3.62
289.434	-10.88
289.65	-1.95
289.865	5.2
290.081	15.34
290.296	25.68
290.512	25.81
290.727	22.32
290.943	21.47
291.159	14.34
291.374	-1.11
291.59	5.08
291.805	-0.85
292.021	0.14
292.236	-15.4
292.451	-4.85
292.667	-15.52
292.882	-3.18
293.098	-5.88
293.313	0.77
293.529	-0.37
293.744	-9.36
293.959	-19.45
294.175	-22.13
294.39	-24.93
294.605	-6.81
294.821	8.17
295.036	18.69
295.251	32.42
295.467	22.05
295.682	21.08
295.897	18.31
296.112	11.14
296.328	15
296.543	11.94
296.758	10.28
296.973	6.45
297.188	-1.24
297.404	-47.04
297.619	-42.16
297.834	-96.4
298.049	-92.61
298.264	-83.09
298.479	-63.29
298.694	-11.38
298.909	9.91
299.125	7.59
299.34	14.17
299.555	26.48
299.77	34.51
299.985	27.39
300.2	37.86
300.415	39.81
300.63	30.84
300.845	23.58
301.06	12.57
301.275	-0.69
301.49	4.6
301.704	-1.79
301.919	-9.69
302.134	-6.54
302.349	8.27
302.564	-2.6
302.779	-25.08
302.994	-7.92
303.209	4.44
303.423	-12.08
303.638	4.93
303.853	21.91
304.068	12.46
304.283	-0.86
304.497	-20.24
304.712	-22.25
304.927	-8.08
305.142	-4.83
305.356	0.67
305.571	17.33
305.786	15.88
306	20.66
306.215	11.29
306.43	11.99
306.644	-1.69
306.859	-11.02
307.074	-15.25
307.288	2.35
307.503	12.22
307.717	18.72
307.932	20.07
308.147	21.88
308.361	17.23
308.576	-6.95
308.79	-4.24
309.005	-24.13
309.219	-23.89
309.434	-25.69
309.648	-13.4
309.863	-14.78
310.077	-3.5
310.292	11.01
310.506	-5.4
310.72	-0.23
310.935	13.97
311.149	14.21
311.364	0.88
311.578	8.86
311.792	10.63
312.007	-12.12
312.221	-17.73
312.435	-0.61
312.649	8.35
312.864	10.25
313.078	10.91
313.292	24.55
313.507	30.63
313.721	30.98
313.935	29.09
314.149	27.49
314.363	24.78
314.578	9.01
314.792	-12.61
315.006	-15.4
315.22	-2.75
315.434	-0.38
315.648	-9.38
315.862	-8.84
316.077	-14.48
316.291	-22.74
316.505	-58.45
316.719	-44.96
316.933	-27.77
317.147	-20.5
317.361	-10.94
317.575	15.07
317.789	27.43
318.003	21.34
318.217	48.78
318.431	35.27
318.645	19.9
318.859	20.45
319.073	28.83
319.287	13.19
319.5	14.52
319.714	9.28
319.928	5.1
320.142	-3.47
320.356	-4.81
320.57	-9.1
320.784	-9.69
320.997	-34
321.211	-4.04
321.425	-24.42
321.639	1.34
321.853	18.89
322.066	21.09
322.28	4.96
322.494	16.32
322.707	2.75
322.921	-13.28
323.135	-1.66
323.349	7.65
323.562	9.27
323.776	11.94
323.989	20.11
324.203	5.92
324.417	-6.69
324.63	-14.89
324.844	-23.51
325.057	-50.03
325.271	-38.1
325.485	-27.6
325.698	-6.84
325.912	17.63
326.125	19.55
326.339	29.64
326.552	25.08
326.766	13.93
326.979	5.49
327.193	9.44
327.406	-9.48
327.619	3.27
327.833	9.23
328.046	13.06
328.26	11.09
328.473	21.74
328.686	11.56
328.9	7.39
329.113	2.69
329.326	2.86
329.54	5.59
329.753	14.3
329.966	18.19
330.179	10.02
330.393	7.82
330.606	-1.46
330.819	-8.23
331.032	-3.85
331.246	3.57
331.459	13.33
331.672	7.55
331.885	1.86
332.098	5.39
332.311	4.33
332.525	1.3
332.738	8.17
332.951	0.64
333.164	2.23
333.377	4.97
333.59	-1.72
333.803	12.51
334.016	29.63
334.229	8.7
334.442	4.53
334.655	12.32
334.868	2.01
335.081	-6.77
335.294	-11.62
335.507	2.69
335.72	3.77
335.933	14.65
336.146	23.67
336.359	41.17
336.572	39.32
336.785	45.73
336.997	35.07
337.21	13.28
337.423	-28.28
337.636	-32.25
337.849	-33.74
338.062	-18.72
338.274	0.3
338.487	-0.63
338.7	-1.81
338.913	9.02
339.125	4.94
339.338	-10.22
339.551	-3.8
339.763	-15.17
339.976	-8.47
340.189	-17.79
340.402	-9.53
340.614	-1.25
340.827	15.05
341.039	3.04
341.252	13.18
341.465	3.07
341.677	13.34
341.89	8.51
342.102	17.16
342.315	16.05
342.527	27.66
342.74	1.45
342.952	7.14
343.165	-3.31
343.377	5.59
343.59	2.71
343.802	8.19
344.015	11.7
344.227	19.87
344.44	23.34
344.652	25.83
344.864	40.56
345.077	38.23
345.289	38.84
345.502	46.73
345.714	41.17
345.926	42.36
346.139	43.58
346.351	34.99
346.563	26.46
346.775	31.86
346.988	22.46
347.2	23.42
347.412	28.98
347.624	19.07
347.837	15.1
348.049	17.07
348.261	9.22
348.473	-14.12
348.685	-22.48
348.897	-19.77
349.11	-21.04
349.322	-3.71
349.534	0.62
349.746	10.36
349.958	-6.14
350.17	-14.54
350.382	-27.88
350.594	-7.16
350.806	2.83
351.018	13.29
351.23	34.51
351.442	43.69
351.654	38.69
351.866	38.98
352.078	47.66
352.29	32.85
352.502	18.95
352.714	17.99
352.926	15.44
353.138	14
353.35	10.16
353.561	20.26
353.773	18.31
353.985	21.67
354.197	20.11
354.409	19.94
354.621	5.62
354.832	2.71
355.044	-21.27
355.256	-24.98
355.468	-21.64
355.679	3.27
355.891	10.96
356.103	14.2
356.314	0.63
356.526	-17.51
356.738	-33.1
356.949	-30.13
357.161	-4.61
357.373	6.09
357.584	21.62
357.796	33.82
358.008	34.67
358.219	33.31
358.431	42.85
358.642	40.97
358.854	44.13
359.065	28.02
359.277	22.59
359.488	12.48
359.7	8.57
359.911	-2.39
360.123	15.47
360.334	3.36
360.546	2.49
360.757	0.36
360.969	4.32
361.18	-6.09
361.391	4.95
361.603	6.99
361.814	12.77
362.025	17.67
362.237	21.4
362.448	18.69
362.659	19.93
362.871	15.02
363.082	2.44
363.293	3.76
363.504	-12.4
363.716	-16.77
363.927	6.21
364.138	-0.59
364.349	-18.87
364.56	-12.43
364.772	3.18
364.983	-4.59
365.194	6.11
365.405	11.66
365.616	18.48
365.827	-0.63
366.038	-2.98
366.25	3.47
366.461	11.82
366.672	11.76
366.883	10.6
367.094	8.73
367.305	-11.53
367.516	-23.47
367.727	-38.75
367.938	-45
368.149	-45.12
368.36	-46.45
368.571	-43.91
368.781	-39.62
368.992	-24.64
369.203	-22.82
369.414	-13.97
369.625	-9.92
369.836	10.45
370.047	12.93
370.258	16.07
370.468	12.13
370.679	6.52
370.89	-8.46
371.101	1.1
371.312	0.41
371.522	9.69
371.733	-0.44
371.944	-13.05
372.155	-8.09
372.365	-2.72
372.576	-11.82
372.787	-1.73
372.997	6.17
373.208	4.85
373.419	1.13
373.629	-3.87
373.84	-4.93
374.05	-5.29
374.261	-17.12
374.472	-24.68
374.682	-20.17
374.893	-25.42
375.103	-7.61
375.314	1.72
375.524	6.75
375.735	21.1
375.945	24.44
376.156	12.74
376.366	16.66
376.577	22.66
376.787	16.07
376.997	19.47
377.208	21.05
377.418	15.2
377.629	14.26
377.839	12.43
378.049	13.37
378.26	5.36
378.47	0.6
378.68	-8.69
378.89	-2.45
379.101	4.61
379.311	9.26
379.521	7.95
379.732	16.91
379.942	6.58
380.152	-5.59
380.362	0.2
380.572	13.8
380.783	13.7
380.993	19.89
381.203	15.05
381.413	17.52
381.623	16.14
381.833	20.6
382.043	7.15
382.253	14.48
382.463	20.67
382.674	17.81
382.884	18.5
383.094	24.68
383.304	21.05
383.514	16.03
383.724	11.42
383.934	-0.1
384.144	4.39
384.353	8.25
384.563	-0.25
384.773	3.11
384.983	3.69
385.193	1.66
385.403	3.67
385.613	8.43
385.823	12.52
386.033	16.55
386.242	14.2
386.452	9.18
386.662	9.25
386.872	8.13
387.082	3.3
387.291	0.18
387.501	5
387.711	5.14
387.921	0.27
388.13	4.69
388.34	6.38
388.55	0.25
388.759	-6.26
388.969	-4.8
389.179	-5.82
389.388	-1.38
389.598	-1.34
389.807	-1.88
390.017	-0.71
390.227	-3.54
390.436	-5.97
390.646	-6.16
390.855	-3.35
391.065	-5.53
391.274	-3.97
391.484	-4.28
391.693	-3.17
391.903	-2.07
392.112	-1.06
392.322	-0.06
392.531	0.47
392.74	0.95
392.95	1.2
393.159	2.14
393.369	1.61
393.578	1.53
393.787	0.97
393.997	1.37
394.206	0.84
394.415	2.81
394.625	1.82
394.834	1.15
395.043	3.12
395.252	5.22
395.462	5.89
395.671	6.16
395.88	7.68
396.089	5.28
396.298	4.64
396.508	3.77
396.717	4.09
396.926	3.64
397.135	4.06
397.344	3.02
397.553	3.48
397.762	5
397.971	4.91
398.181	5.21
398.39	5.07
398.599	4.85
398.808	4.22
399.017	5.21
399.226	4.79
399.435	4.63
399.644	5.14
399.853	4.99
400.062	4.24
400.27	4.1
400.479	4.3
400.688	3.92
400.897	3.59
401.106	3.75
401.315	3.98
401.524	4.34
401.733	3.98
401.941	4.1
402.15	4.05
402.359	4
402.568	4.16
402.777	4.35
402.985	3.98
403.194	3.98
403.403	4.41
403.612	4.11
403.82	3.86
404.029	4.09
404.238	4.22
404.446	3.99
404.655	4.08
404.864	4.33
405.072	4.52
405.281	4.55
405.489	4.57
405.698	4.53
405.906	4.47
406.115	4.35
406.324	4.13
406.532	4.25
406.741	4.17
406.949	4.25
407.158	4.29
407.366	4.24
407.574	4.12
407.783	4.17
407.991	4.05
408.2	4.12
408.408	4.17
408.617	4.07
408.825	3.94
409.033	3.93
409.242	3.9
409.45	3.84
409.658	3.9
409.867	3.93
410.075	3.98
410.283	3.85
410.491	3.83
410.7	3.69
410.908	3.68
411.116	3.7
411.324	3.64
411.533	3.58
411.741	3.58
411.949	3.58
412.157	3.49
412.365	3.6
412.573	3.72
412.781	3.66
412.99	3.74
413.198	3.8
413.406	3.96
413.614	3.96
413.822	4.15
414.03	4.1
414.238	4.13
414.446	3.93
414.654	3.94
414.862	3.84
415.07	3.7
415.278	3.72
415.486	3.65
415.694	3.57
415.902	3.62
416.109	3.73
416.317	3.62
416.525	3.7
416.733	3.73
416.941	3.72
417.149	3.71
417.357	3.69
417.564	3.75
417.772	3.76
417.98	3.71
418.188	3.59
418.395	3.46
418.603	3.32
418.811	3.16
419.019	3.1
419.226	3.25
419.434	3.42
419.642	3.25
419.849	3.41
420.057	3.31
420.265	3.23
420.472	3.21
420.68	3.47
420.887	3.36
421.095	3.41
421.302	3.45
421.51	3.29
421.717	3.14
421.925	3.19
422.132	3.25
422.34	3.09
422.547	3.1
422.755	3.19
422.962	3.17
423.17	3.13
423.377	3.21
423.585	3.28
423.792	3.16
423.999	3.17
424.207	3.09
424.414	3.07
424.621	2.96
424.829	3.1
425.036	3.02
425.243	2.99
425.451	3.09
425.658	3.14
425.865	3.08
426.072	3.16
426.28	3.38
426.487	3.29
426.694	3.27
426.901	3.33
427.108	3.3
427.315	3.11
427.523	3.01
427.73	3.04
427.937	2.8
428.144	2.71
428.351	2.71
428.558	2.98
428.765	2.97
428.972	3.24
429.179	3.23
429.386	3.35
429.593	3.09
429.8	3.11
430.007	2.96
430.214	3.07
430.421	3.07
430.628	3.27
430.835	3.15
431.042	3.11
431.249	3.09
431.456	3.07
431.662	3.06
431.869	3.33
432.076	3.48
432.283	3.73
432.49	3.72
432.697	3.7
432.903	3.58
433.11	3.59
433.317	3.51
433.524	3.49
433.73	3.41
433.937	3.59
434.144	3.5
434.35	3.36
434.557	3.36
434.764	3.48
434.97	3.25
435.177	3.34
435.384	3.49
435.59	3.64
435.797	3.62
436.003	3.68
436.21	3.7
436.416	3.62
436.623	3.58
436.829	3.65
437.036	3.73
437.242	3.83
437.449	3.79
437.655	3.89
437.862	3.89
438.068	3.91
438.275	3.92
438.481	4.05
438.687	3.92
438.894	3.93
439.1	3.9
439.307	3.95
439.513	3.97
439.719	4.13
439.926	4.17
440.132	4.28
440.338	4.14
440.544	4.12
440.751	4.1
440.957	4.07
441.163	3.94
441.369	3.95
441.575	3.87
441.782	3.89
441.988	3.98
442.194	4.01
442.4	4.06
442.606	4.26
442.812	4.22
443.018	4.17
443.224	4.27
443.431	4.34
443.637	4.18
443.843	4.25
444.049	4.3
444.255	4.28
444.461	4.23
444.667	4.19
444.873	4.14
445.079	4.12
445.284	4.21
445.49	4.14
445.696	4.2
445.902	4.26
446.108	4.26
446.314	4.14
446.52	4.24
446.726	4.29
446.931	4.22
447.137	4.27
447.343	4.41
447.549	4.47
447.755	4.53
447.96	4.55
448.166	4.46
448.372	4.34
448.578	4.23
448.783	4.24
448.989	4.32
449.195	4.34
449.4	4.49
449.606	4.53
449.812	4.44
450.017	4.47
450.223	4.5
450.428	4.43
450.634	4.37
450.84	4.38
451.045	4.31
451.251	4.36
451.456	4.4
451.662	4.55
451.867	4.6
452.073	4.63
452.278	4.6
452.483	4.67
452.689	4.65
452.894	4.64
453.1	4.64
453.305	4.67
453.51	4.67
453.716	4.69
453.921	4.84
454.127	4.86
454.332	4.83
454.537	4.71
454.742	4.64
454.948	4.52
455.153	4.52
455.358	4.5
455.563	4.66
455.769	4.67
455.974	4.66
456.179	4.69
456.384	4.7
456.589	4.68
456.795	4.69
457	4.7
457.205	4.64
457.41	4.74
457.615	4.64
457.82	4.77
458.025	4.73
458.23	4.86
458.435	4.76
458.64	4.8
458.845	4.8
459.05	4.89
459.255	4.87
459.46	4.95
459.665	4.98
459.87	4.84
460.075	4.9
460.28	4.95
460.485	4.98
460.69	4.98
460.895	5.18
461.099	5.05
461.304	4.95
461.509	4.92
461.714	4.93
461.919	4.84
462.123	4.98
462.328	4.92
462.533	4.94
462.738	4.92
462.942	4.93
463.147	4.9
463.352	5.07
463.556	5.1
463.761	5.13
463.966	5.13
464.17	5.24
464.375	5.25
464.58	5.15
464.784	5.16
464.989	5.25
465.193	5.18
465.398	5.14
465.602	5.42
465.807	5.45
466.011	5.37
466.216	5.24
466.42	5.35
466.625	5.28
466.829	5.29
467.034	5.38
467.238	5.51
467.443	5.45
467.647	5.33
467.851	5.36
468.056	5.32
468.26	5.35
468.464	5.36
468.669	5.44
468.873	5.47
469.077	5.44
469.282	5.39
469.486	5.43
469.69	5.41
469.894	5.45
470.099	5.57
470.303	5.58
470.507	5.64
470.711	5.71
470.915	5.76
471.119	5.78
471.324	5.85
471.528	5.86
471.732	5.9
471.936	5.89
472.14	5.83
472.344	5.91
472.548	5.91
472.752	5.88
472.956	5.84
473.16	5.96
473.364	5.91
473.568	5.88
473.772	5.84
473.976	5.96
474.18	5.91
474.384	5.95
474.588	6.01
474.792	6.07
474.995	6.01
475.199	6.02
475.403	6.09
475.607	6.17
475.811	6.19
476.015	6.2
476.218	6.22
476.422	6.25
476.626	6.22
476.83	6.33
477.033	6.41
477.237	6.48
477.441	6.39
477.644	6.36
477.848	6.35
478.052	6.29
478.255	6.28
478.459	6.3
478.663	6.43
478.866	6.42
479.07	6.41
479.273	6.43
479.477	6.48
479.681	6.39
479.884	6.41
480.088	6.46
480.291	6.41
480.495	6.46
480.698	6.51
480.901	6.56
481.105	6.6
481.308	6.62
481.512	6.6
481.715	6.64
481.919	6.64
482.122	6.56
482.325	6.64
482.529	6.67
482.732	6.62
482.935	6.53
483.138	6.61
483.342	6.56
483.545	6.64
483.748	6.73
483.952	6.85
484.155	6.91
484.358	6.95
484.561	6.8
484.764	6.73
484.967	6.69
485.171	6.64
485.374	6.63
485.577	6.7
485.78	6.72
485.983	6.66
486.186	6.66
486.389	6.7
486.592	6.68
486.795	6.71
486.998	6.73
487.201	6.71
487.404	6.79
487.607	6.86
487.81	6.86
488.013	6.9
488.216	6.9
488.419	6.81
488.622	6.74
488.825	6.72
489.028	6.73
489.231	6.81
489.433	6.83
489.636	6.91
489.839	6.98
490.042	6.95
490.245	6.93
490.447	6.93
490.65	6.95
490.853	6.96
491.056	7.01
491.258	7.04
491.461	7.09
491.664	7.03
491.866	6.95
492.069	7.03
492.272	7
492.474	7
492.677	7
492.879	7.02
493.082	7.04
493.285	7.12
493.487	7.15
493.69	7.15
493.892	7.16
494.095	7.13
494.297	7.16
494.5	7.14
494.702	7.22
494.905	7.3
495.107	7.25
495.309	7.27
495.512	7.31
495.714	7.31
495.917	7.39
496.119	7.44
496.321	7.42
496.524	7.35
496.726	7.35
496.928	7.31
497.13	7.31
497.333	7.33
497.535	7.47
497.737	7.48
497.939	7.55
498.142	7.54
498.344	7.52
498.546	7.44
498.748	7.55
498.95	7.54
499.152	7.61
499.355	7.62
499.557	7.69
499.759	7.75
499.961	7.79
500.163	7.81
500.365	7.93
500.567	7.91
500.769	7.88
500.971	7.93
501.173	7.92
501.375	8
501.577	8.05
501.779	8.01
501.981	7.99
502.183	8.03
502.385	7.97
502.587	8.02
502.788	8.08
502.99	8.11
503.192	8.13
503.394	8.12
503.596	8.1
503.798	8.07
503.999	8.13
504.201	8.12
504.403	8.2
504.605	8.29
504.806	8.41
505.008	8.42
505.21	8.48
505.411	8.48
505.613	8.48
505.815	8.46
506.016	8.47
506.218	8.52
506.42	8.57
506.621	8.64
506.823	8.67
507.024	8.72
507.226	8.7
507.427	8.69
507.629	8.69
507.83	8.69
508.032	8.65
508.233	8.69
508.435	8.75
508.636	8.74
508.838	8.76
509.039	8.77
509.24	8.78
509.442	8.75
509.643	8.82
509.845	8.82
510.046	8.9
510.247	8.98
510.448	8.99
510.65	8.98
510.851	9.02
511.052	9
511.254	9.02
511.455	9.04
511.656	9.04
511.857	9.05
512.058	9.04
512.26	8.94
512.461	9
512.662	9.01
512.863	9
513.064	9.02
513.265	9.1
513.466	9.13
513.667	9.17
513.868	9.18
514.069	9.2
514.27	9.23
514.471	9.21
514.672	9.28
514.873	9.39
515.074	9.43
515.275	9.4
515.476	9.48
515.677	9.45
515.878	9.39
516.079	9.43
516.28	9.46
516.481	9.44
516.682	9.44
516.882	9.5
517.083	9.46
517.284	9.48
517.485	9.45
517.686	9.5
517.886	9.48
518.087	9.44
518.288	9.48
518.488	9.42
518.689	9.38
518.89	9.4
519.091	9.52
519.291	9.44
519.492	9.6
519.692	9.58
519.893	9.65
520.094	9.58
520.294	9.66
520.495	9.62
520.695	9.67
520.896	9.67
521.096	9.71
521.297	9.74
521.497	9.81
521.698	9.78
521.898	9.83
522.099	9.9
522.299	9.86
522.499	9.83
522.7	9.91
522.9	9.84
523.101	9.73
523.301	9.77
523.501	9.84
523.702	9.86
523.902	9.97
524.102	10.14
524.302	10.16
524.503	10.13
524.703	10.1
524.903	10.07
525.103	10.01
525.304	10.04
525.504	10.11
525.704	10.13
525.904	10.1
526.104	10.08
526.304	10.12
526.504	10.07
526.705	10.12
526.905	10.18
527.105	10.26
527.305	10.24
527.505	10.22
527.705	10.19
527.905	10.19
528.105	10.15
528.305	10.19
528.505	10.23
528.705	10.33
528.905	10.37
529.105	10.47
529.304	10.44
529.504	10.53
529.704	10.5
529.904	10.49
530.104	10.48
530.304	10.53
530.503	10.52
530.703	10.5
530.903	10.55
531.103	10.58
531.303	10.57
531.502	10.63
531.702	10.69
531.902	10.76
532.101	10.75
532.301	10.79
532.501	10.83
532.7	10.89
532.9	10.92
533.1	10.97
533.299	11.02
533.499	10.97
533.698	10.94
533.898	10.95
534.097	10.94
534.297	10.98
534.496	11.05
534.696	11.09
534.895	11.17
535.095	11.22
535.294	11.22
535.494	11.25
535.693	11.3
535.892	11.3
536.092	11.37
536.291	11.44
536.491	11.43
536.69	11.48
536.889	11.48
537.088	11.47
537.288	11.41
537.487	11.49
537.686	11.47
537.886	11.55
538.085	11.57
538.284	11.65
538.483	11.66
538.682	11.7
538.882	11.72
539.081	11.8
539.28	11.84
539.479	11.83
539.678	11.92
539.877	11.98
540.076	11.92
540.275	11.91
540.474	11.93
540.673	11.95
540.872	11.93
541.071	12.02
541.27	12.09
541.469	12.17
541.668	12.19
541.867	12.27
542.066	12.33
542.265	12.38
542.464	12.44
542.663	12.51
542.862	12.57
543.06	12.64
543.259	12.71
543.458	12.82
543.657	12.92
543.856	13
544.054	13.04
544.253	13.11
544.452	13.14
544.651	13.14
544.849	13.15
545.048	13.21
545.247	13.25
545.445	13.3
545.644	13.33
545.843	13.35
546.041	13.4
546.24	13.45
546.438	13.52
546.637	13.6
546.836	13.64
547.034	13.74
547.233	13.86
547.431	13.89
547.63	13.92
547.828	13.99
548.027	14.01
548.225	14.02
548.423	14.08
548.622	14.19
548.82	14.26
549.019	14.37
549.217	14.46
549.415	14.51
549.614	14.62
549.812	14.71
550.01	14.75
550.209	14.85
550.407	14.95
550.605	14.89
550.803	14.96
551.002	15.09
551.2	15.08
551.398	15.23
551.596	15.43
551.794	15.52
551.993	15.53
552.191	15.7
552.389	15.79
552.587	15.84
552.785	15.93
552.983	16.08
553.181	16.13
553.379	16.18
553.577	16.27
553.775	16.46
553.973	16.59
554.171	16.75
554.369	16.88
554.567	17
554.765	17.07
554.963	17.13
555.161	17.2
555.359	17.27
555.557	17.35
555.755	17.42
555.952	17.57
556.15	17.69
556.348	17.8
556.546	17.93
556.744	17.97
556.941	18.01
557.139	18.1
557.337	18.26
557.535	18.32
557.732	18.44
557.93	18.61
558.128	18.8
558.325	18.91
558.523	19.07
558.721	19.22
558.918	19.38
559.116	19.43
559.313	19.49
559.511	19.62
559.708	19.78
559.906	19.84
560.104	19.95
560.301	20.06
560.498	20.14
560.696	20.23
560.893	20.4
561.091	20.53
561.288	20.72
561.486	20.85
561.683	20.96
561.88	21.03
562.078	21.2
562.275	21.32
562.473	21.45
562.67	21.58
562.867	21.74
563.064	21.76
563.262	21.88
563.459	21.95
563.656	22.05
563.853	22.07
564.051	22.35
564.248	22.47
564.445	22.7
564.642	22.87
564.839	23.07
565.036	23.1
565.234	23.25
565.431	23.26
565.628	23.28
565.825	23.35
566.022	23.42
566.219	23.45
566.416	23.64
566.613	23.83
566.81	23.91
567.007	23.95
567.204	24.1
567.401	24.17
567.598	24.24
567.795	24.35
567.991	24.48
568.188	24.49
568.385	24.52
568.582	24.59
568.779	24.67
568.976	24.85
569.172	25.09
569.369	25.26
569.566	25.37
569.763	25.41
569.96	25.44
570.156	25.47
570.353	25.53
570.55	25.63
570.746	25.8
570.943	25.89
571.14	25.9
571.336	25.95
571.533	25.97
571.729	25.98
571.926	26.1
572.123	26.22
572.319	26.24
572.516	26.32
572.712	26.31
572.909	26.19
573.105	26.17
573.302	26.25
573.498	26.25
573.695	26.32
573.891	26.38
574.087	26.33
574.284	26.36
574.48	26.43
574.677	26.46
574.873	26.58
575.069	26.69
575.266	26.71
575.462	26.79
575.658	26.89
575.854	26.91
576.051	26.97
576.247	26.93
576.443	26.87
576.639	26.82
576.835	26.75
577.032	26.82
577.228	26.94
577.424	26.95
577.62	26.98
577.816	27.06
578.012	26.98
578.208	26.98
578.404	26.97
578.6	27.06
578.796	27.08
578.993	27.13
579.189	27.2
579.384	27.31
579.58	27.29
579.776	27.28
579.972	27.25
580.168	27.17
580.364	27.13
580.56	27.08
580.756	27.04
580.952	27.05
581.148	27.08
581.343	27.1
581.539	27.13
581.735	27.12
581.931	27.21
582.127	27.08
582.322	26.96
582.518	26.89
582.714	26.91
582.909	26.84
583.105	26.88
583.301	26.97
583.496	27.05
583.692	26.94
583.888	26.98
584.083	27.02
584.279	27
584.474	26.85
584.67	26.88
584.866	26.82
585.061	26.86
585.257	26.83
585.452	26.87
585.648	26.85
585.843	26.81
586.039	26.74
586.234	26.73
586.429	26.84
586.625	27
586.82	26.96
587.015	26.98
587.211	26.96
587.406	26.89
587.601	26.83
587.797	26.95
587.992	26.97
588.187	26.96
588.383	26.93
588.578	26.96
588.773	26.96
588.968	27.02
589.163	27.14
589.359	27.17
589.554	27.15
589.749	27.19
589.944	27.11
590.139	27.07
590.334	27.19
590.529	27.27
590.724	27.3
590.919	27.37
591.114	27.47
591.309	27.54
591.504	27.51
591.699	27.53
591.894	27.47
592.089	27.43
592.284	27.37
592.479	27.48
592.674	27.51
592.869	27.63
593.064	27.68
593.259	27.8
593.454	27.75
593.648	27.83
593.843	27.89
594.038	28.08
594.233	28.12
594.428	28.25
594.622	28.28
594.817	28.49
595.012	28.51
595.206	28.62
595.401	28.77
595.596	28.93
595.79	28.92
595.985	29.02
596.18	29.12
596.374	29.24
596.569	29.3
596.763	29.27
596.958	29.35
597.153	29.41
597.347	29.37
597.542	29.47
597.736	29.73
597.931	29.73
598.125	29.8
598.319	29.87
598.514	29.91
598.708	30
598.903	30.13
599.097	30.2
599.291	30.27
599.486	30.33
599.68	30.32
599.874	30.44
600.069	30.59
600.263	30.73
600.457	30.83
600.651	30.88
600.846	30.83
601.04	30.9
601.234	30.83
601.428	30.81
601.622	30.91
601.817	30.94
602.011	30.89
602.205	31.05
602.399	31.04
602.593	31.1
602.787	31.15
602.981	31.12
603.175	31.2
603.369	31.29
603.563	31.28
603.757	31.34
603.951	31.35
604.145	31.34
604.339	31.35
604.533	31.19
604.727	31.01
604.921	30.96
605.115	30.83
605.309	30.69
605.502	30.83
605.696	30.96
605.89	31.08
606.084	31
606.278	31.08
606.471	30.93
606.665	30.84
606.859	30.67
607.053	30.72
607.246	30.67
607.44	30.63
607.634	30.67
607.827	30.58
608.021	30.47
608.214	30.39
608.408	30.36
608.602	30.23
608.795	30.23
608.989	30.21
609.182	30.12
609.376	30.06
609.569	29.94
609.763	29.88
609.956	29.77
610.15	29.68
610.343	29.64
610.537	29.57
610.73	29.33
610.923	29.3
611.117	29.29
611.31	29.07
611.504	29.03
611.697	29.05
611.89	28.93
612.083	28.71
612.277	28.72
612.47	28.56
612.663	28.52
612.856	28.33
613.05	28.41
613.243	28.29
613.436	28.28
613.629	28.09
613.822	28.09
614.015	27.98
614.209	27.91
614.402	27.8
614.595	27.83
614.788	27.8
614.981	27.64
615.174	27.5
615.367	27.3
615.56	27.1
615.753	26.96
615.946	26.9
616.139	26.87
616.332	26.88
616.525	26.87
616.718	26.75
616.911	26.7
617.103	26.66
617.296	26.69
617.489	26.56
617.682	26.61
617.875	26.64
618.067	26.48
618.26	26.31
618.453	26.29
618.646	26.2
618.838	25.97
619.031	25.98
619.224	26.01
619.417	26.08
619.609	26.02
619.802	26.03
619.994	26.05
620.187	25.97
620.38	25.87
620.572	25.82
620.765	25.83
620.957	25.67
621.15	25.62
621.342	25.63
621.535	25.58
621.727	25.47
621.92	25.47
622.112	25.4
622.305	25.28
622.497	25.24
622.69	25.22
622.882	25.29
623.074	25.32
623.267	25.29
623.459	25.27
623.651	25.31
623.844	25.28
624.036	25.34
624.228	25.35
624.42	25.38
624.613	25.31
624.805	25.19
624.997	25.13
625.189	25.11
625.381	25.05
625.574	25
625.766	25.02
625.958	25.01
626.15	24.98
626.342	24.92
626.534	24.96
626.726	24.82
626.918	24.7
627.11	24.6
627.302	24.6
627.494	24.48
627.686	24.5
627.878	24.46
628.07	24.49
628.262	24.47
628.454	24.47
628.646	24.41
628.838	24.48
629.029	24.36
629.221	24.26
629.413	24.24
629.605	24.26
629.797	24.21
629.989	24.19
630.18	24.2
630.372	24.08
630.564	24.01
630.755	23.94
630.947	24.01
631.139	23.92
631.33	23.9
631.522	23.9
631.714	23.76
631.905	23.66
632.097	23.58
632.289	23.62
632.48	23.52
632.672	23.52
632.863	23.46
633.055	23.47
633.246	23.42
633.438	23.48
633.629	23.55
633.821	23.5
634.012	23.65
634.203	23.58
634.395	23.49
634.586	23.42
634.777	23.38
634.969	23.23
635.16	23.27
635.351	23.24
635.543	23.23
635.734	23.19
635.925	23.18
636.117	23.09
636.308	23.04
636.499	23.03
636.69	23.08
636.881	23.06
637.073	23.11
637.264	23.17
637.455	23.19
637.646	23.25
637.837	23.27
638.028	23.2
638.219	23.18
638.41	23.13
638.601	23.04
638.792	22.96
638.983	22.97
639.174	22.87
639.365	22.84
639.556	22.82
639.747	22.77
639.938	22.83
640.129	22.84
640.32	22.82
640.511	22.85
640.701	22.88
640.892	22.79
641.083	22.76
641.274	22.71
641.465	22.73
641.655	22.67
641.846	22.62
642.037	22.58
642.228	22.47
642.418	22.26
642.609	22.27
642.8	22.23
642.99	22.27
643.181	22.42
643.372	22.5
643.562	22.46
643.753	22.47
643.943	22.25
644.134	22.1
644.324	21.93
644.515	21.93
644.705	21.91
644.896	22.05
645.086	22.09
645.277	22.05
645.467	22.05
645.658	21.93
645.848	21.94
646.038	21.92
646.229	21.97
646.419	21.89
646.61	21.97
646.8	21.89
646.99	21.82
647.18	21.83
647.371	21.77
647.561	21.7
647.751	21.67
647.941	21.59
648.132	21.57
648.322	21.53
648.512	21.53
648.702	21.61
648.892	21.6
649.082	21.57
649.272	21.53
649.462	21.44
649.653	21.33
649.843	21.32
650.033	21.38
650.223	21.32
650.413	21.37
650.603	21.4
650.793	21.34
650.983	21.25
651.172	21.29
651.362	21.05
651.552	20.89
651.742	20.79
651.932	20.67
652.122	20.62
652.312	20.64
652.502	20.49
652.691	20.47
652.881	20.43
653.071	20.34
653.261	20.21
653.45	20.12
653.64	19.96
653.83	19.8
654.019	19.58
654.209	19.54
654.399	19.52
654.588	19.45
654.778	19.24
654.968	19.18
655.157	18.94
655.347	18.67
655.536	18.51
655.726	18.34
655.915	18.11
656.105	17.99
656.294	17.78
656.484	17.54
656.673	17.42
656.863	17.27
657.052	17.07
657.241	17.01
657.431	16.89
657.62	16.72
657.809	16.49
657.999	16.3
658.188	16.13
658.377	15.92
658.567	15.65
658.756	15.44
658.945	15.22
659.134	14.93
659.324	14.74
659.513	14.57
659.702	14.38
659.891	14.26
660.08	14.1
660.269	13.92
660.458	13.76
660.648	13.6
660.837	13.34
661.026	13.1
661.215	12.81
661.404	12.57
661.593	12.44
661.782	12.26
661.971	11.96
662.16	11.8
662.349	11.67
662.538	11.4
662.726	11.3
662.915	11.36
663.104	11.24
663.293	11.13
663.482	11.03
663.671	10.91
663.86	10.79
664.048	10.74
664.237	10.53
664.426	10.45
664.615	10.3
664.803	10.11
664.992	9.92
665.181	9.9
665.369	9.66
665.558	9.52
665.747	9.46
665.935	9.46
666.124	9.33
666.312	9.36
666.501	9.31
666.69	9.26
666.878	9.07
667.067	8.98
667.255	8.88
667.444	8.83
667.632	8.7
667.82	8.67
668.009	8.67
668.197	8.64
668.386	8.51
668.574	8.47
668.762	8.4
668.951	8.36
669.139	8.25
669.327	8.35
669.516	8.36
669.704	8.34
669.892	8.28
670.08	8.33
670.269	8.33
670.457	8.22
670.645	8.19
670.833	8.24
671.021	8.38
671.21	8.25
671.398	8.3
671.586	8.35
671.774	8.37
671.962	8.25
672.15	8.35
672.338	8.45
672.526	8.43
672.714	8.43
672.902	8.46
673.09	8.54
673.278	8.57
673.466	8.72
673.654	8.71
673.842	8.85
674.03	8.85
674.218	8.87
674.405	8.78
674.593	8.92
674.781	8.86
674.969	8.96
675.157	9
675.344	9.19
675.532	9.21
675.72	9.26
675.908	9.21
676.095	9.27
676.283	9.27
676.471	9.38
676.658	9.55
676.846	9.58
677.033	9.64
677.221	9.75
677.409	9.74
677.596	9.76
677.784	9.92
677.971	9.92
678.159	9.98
678.346	10.1
678.534	10.16
678.721	10.26
678.909	10.53
679.096	10.64
679.283	10.71
679.471	10.85
679.658	11.01
679.846	11.01
680.033	11.26
680.22	11.4
680.408	11.44
680.595	11.61
680.782	11.82
680.969	12.01
681.157	12.21
681.344	12.45
681.531	12.51
681.718	12.73
681.905	12.8
682.093	12.95
682.28	13.05
682.467	13.35
682.654	13.39
682.841	13.64
683.028	13.75
683.215	14.05
683.402	14.15
683.589	14.34
683.776	14.41
683.963	14.8
684.15	15.11
684.337	15.42
684.524	15.82
684.711	16.18
684.898	16.45
685.085	16.68
685.271	17.16
685.458	17.39
685.645	17.77
685.832	18.07
686.019	18.45
686.205	18.73
686.392	19.28
686.579	19.7
686.766	20.08
686.952	20.56
687.139	21.18
687.326	21.68
687.512	22.1
687.699	22.75
687.886	23.16
688.072	23.52
688.259	24.01
688.445	24.69
688.632	25.08
688.818	25.8
689.005	26.36
689.191	26.98
689.378	27.54
689.564	28.22
689.751	28.81
689.937	29.58
690.124	30.32
690.31	30.94
690.496	31.69
690.683	32.52
690.869	33.16
691.055	33.75
691.242	34.39
691.428	35.08
691.614	35.72
691.8	36.35
691.987	37.17
692.173	38.1
692.359	39.1
692.545	40.11
692.731	41.18
692.918	41.74
693.104	42.43
693.29	42.92
693.476	43.35
693.662	43.88
693.848	44.86
694.034	45.8
694.22	46.76
694.406	47.62
694.592	48.34
694.778	48.93
694.964	49.49
695.15	50.04
695.336	50.9
695.522	51.59
695.708	52.46
695.894	53.42
696.08	54.41
696.265	55.1
696.451	55.71
696.637	56.55
696.823	57.08
697.009	57.6
697.194	58.3
697.38	59.31
697.566	59.77
697.751	60.7
697.937	61.68
698.123	62.35
698.308	62.68
698.494	63.54
698.68	63.97
698.865	64.43
699.051	64.9
699.236	65.65
699.422	66.2
699.607	66.79
699.793	67.39
699.978	67.91
700.164	68.3
700.349	68.76
700.535	69.09
700.72	69.37
700.906	70.01
701.091	70.83
701.276	71.33
701.462	71.97
701.647	72.4
701.832	72.79
702.018	73.34
702.203	73.84
702.388	73.9
702.573	74.64
702.759	75.28
702.944	75.3
703.129	75.4
703.314	76.03
703.499	76.22
703.684	76.44
703.87	76.98
704.055	77.36
704.24	77.56
704.425	77.85
704.61	78.13
704.795	78.51
704.98	78.84
705.165	79.21
705.35	79.27
705.535	79.52
705.72	79.49
705.905	80.05
706.09	80.42
706.275	80.72
706.459	80.79
706.644	81.28
706.829	81.32
707.014	81.64
707.199	82.14
707.384	82.55
707.568	82.68
707.753	82.86
707.938	82.77
708.123	83.26
708.307	83.43
708.492	83.93
708.677	84.1
708.861	84.61
709.046	84.35
709.231	84.43
709.415	84.25
709.6	84.31
709.784	84.55
709.969	84.61
710.153	84.47
710.338	85.12
710.522	85.58
710.707	85.48
710.891	85.52
711.076	85.99
711.26	85.86
711.445	85.99
711.629	85.93
711.813	86.76
711.998	87.11
712.182	87.24
712.366	87.67
712.551	87.9
712.735	87.45
712.919	87.73
713.103	87.98
713.288	87.97
713.472	88.36
713.656	88.31
713.84	88
714.024	87.6
714.208	87.13
714.393	87.25
714.577	87.64
714.761	87.93
714.945	88.36
715.129	88.7
715.313	88.67
715.497	88.7
715.681	88.58
715.865	88.23
716.049	88.46
716.233	88.41
716.417	88.46
716.601	88.51
716.785	88.71
716.968	88.88
717.152	89.19
717.336	89.39
717.52	89.57
717.704	90.05
717.888	90.28
718.071	90.34
718.255	90.46
718.439	90.69
718.622	90.59
718.806	90.04
718.99	89.93
719.174	90.04
719.357	90.31
719.541	90.65
719.724	90.85
719.908	90.74
720.092	90.7
720.275	90.51
720.459	90.51
720.642	90.51
720.826	90.54
721.009	90.7
721.193	90.4
721.376	90.46
721.559	91.02
721.743	91.71
721.926	91.42
722.11	92.24
722.293	92.62
722.476	91.99
722.66	92.29
722.843	92.37
723.026	91.88
723.21	91.3
723.393	92.16
723.576	91.46
723.759	91.74
723.942	91.93
724.126	92.05
724.309	91.58
724.492	91.72
724.675	91.75
724.858	92.02
725.041	92.42
725.224	93.09
725.407	93.12
725.59	93.31
725.774	93.34
725.957	92.92
726.14	92.7
726.322	93.32
726.505	93.05
726.688	92.77
726.871	92.9
727.054	93.04
727.237	92.25
727.42	92.12
727.603	92.14
727.786	92.35
727.968	92.42
728.151	92.79
728.334	93.64
728.517	93.69
728.699	93.47
728.882	93.37
729.065	93.05
729.248	92.79
729.43	92.6
729.613	92.73
729.796	93.41
729.978	93.6
730.161	93.78
730.343	93.88
730.526	94.21
730.708	93.34
730.891	94.12
731.073	93.96
731.256	94.11
731.438	94.49
731.621	94.57
731.803	94.3
731.986	94.45
732.168	95.11
732.35	94.97
732.533	95.22
732.715	95.57
732.898	94.9
733.08	94.62
733.262	94.39
733.444	94.87
733.627	94.11
733.809	95.21
733.991	95.19
734.173	95
734.355	94.65
734.538	95.12
734.72	94.84
734.902	94.99
735.084	95.37
735.266	96.11
735.448	96.37
735.63	96.54
735.812	96.39
735.994	96.1
736.176	95.95
736.358	96.25
736.54	96.48
736.722	95.74
736.904	96.14
737.086	95.27
737.268	95.31
737.45	94.65
737.632	96.01
737.814	95.92
737.995	96.22
738.177	96.08
738.359	96.36
738.541	95.15
738.723	95.11
738.904	95.17
739.086	95.24
739.268	94.82
739.449	95.07
739.631	95.04
739.813	94.73
739.994	94
740.176	95.3
740.358	96.17
740.539	95.58
740.721	96.64
740.902	97.41
741.084	96.51
741.265	95.61
741.447	97.54
741.628	95.79
741.81	95.86
741.991	96.48
742.172	96.89
742.354	96.19
742.535	97.27
742.717	96.16
742.898	95.95
743.079	97.27
743.261	96.3
743.442	95.43
743.623	96.35
743.804	96.28
743.986	95.21
744.167	95.19
744.348	95.57
744.529	95.61
744.71	95.76
744.891	95.42
745.073	95.6
745.254	96.23
745.435	95.89
745.616	95.15
745.797	95.31
745.978	95.14
746.159	94.03
746.34	94.21
746.521	95.16
746.702	95.77
746.883	96.18
747.064	96.38
747.245	96.96
747.426	96.93
747.606	96.09
747.787	96.42
747.968	97
748.149	95.74
748.33	94.35
748.51	93.3
748.691	92.77
748.872	92.66
749.053	92.06
749.233	91.78
749.414	93.35
749.595	93.44
749.775	92.86
749.956	93.7
750.137	94.2
750.317	92.78
750.498	93.05
750.678	92.54
750.859	93.42
751.04	94.1
751.22	94.26
751.4	93.57
751.581	95.08
751.761	95.34
751.942	95.59
752.122	96.1
752.303	96.88
752.483	95.81
752.663	94.65
752.844	94.19
753.024	95.68
753.204	95.81
753.385	95.87
753.565	95.73
753.745	95.72
753.925	93.42
754.106	93.37
754.286	92.2
754.466	91.24
754.646	90.66
754.826	92.8
755.006	90.99
755.187	93.61
755.367	94.58
755.547	94.8
755.727	92.84
755.907	94.03
756.087	92.68
756.267	91.82
756.447	92.23
756.627	93.58
756.807	93.54
756.987	93.21
757.167	93.48
757.346	92.26
757.526	92.53
757.706	92.24
757.886	92.6
758.066	94.61
758.246	95.47
758.425	93.69
758.605	93.59
758.785	93.14
758.965	91.92
759.144	90.34
759.324	92.68
759.504	93.09
759.683	92.43
759.863	91.5
760.043	92.71
760.222	92.25
760.402	91.52
760.581	92.83
760.761	92.6
760.94	92.93
761.12	92.29
761.299	93.65
761.479	93.57
761.658	94.35
761.838	94.58
762.017	94.78
762.197	92.44
762.376	92.51
762.555	92.46
762.735	92.53
762.914	91.77
763.093	92.78
763.273	92.2
763.452	91.19
763.631	89.92
763.81	89.8
763.99	89.21
764.169	88.36
764.348	88.97
764.527	90.57
764.706	90.94
764.885	92.5
765.064	94.51
765.243	94.9
765.423	93.73
765.602	93.28
765.781	91.92
765.96	91.25
766.139	90.4
766.318	90.61
766.497	88.46
766.676	87.37
766.854	87.05
767.033	88.24
767.212	88.56
767.391	90.87
767.57	93.48
767.749	92.06
767.928	91.71
768.106	90.85
768.285	90.66
768.464	89.1
768.643	89.31
768.821	89.3
769	89.21
769.179	88.2
769.357	89.66
769.536	89.81
769.715	88.74
769.893	88.06
770.072	87.9
770.25	85.58
770.429	86.1
770.607	86.14
770.786	86.45
770.964	88.6
771.143	90.11
771.321	88.34
771.5	89.91
771.678	90.38
771.857	88.33
772.035	90.79
772.213	91.56
772.392	88.13
772.57	89.11
772.748	89.29
772.927	87.25
773.105	88.83
773.283	91.94
773.461	90.85
773.64	90.55
773.818	90.03
773.996	88.77
774.174	87.95
774.352	86.75
774.531	86.42
774.709	85.44
774.887	84.5
775.065	84.05
775.243	83.34
775.421	84.19
775.599	84.72
775.777	85.82
775.955	85.8
776.133	87.66
776.311	87.07
776.489	87.72
776.667	87.38
776.844	87.46
777.022	86.63
777.2	85.8
777.378	83.9
777.556	84.99
777.734	85.21
777.911	87.64
778.089	89.49
778.267	90.06
778.445	92.74
778.622	91.76
778.8	87.45
778.978	86.71
779.155	88.73
779.333	86.2
779.511	85.96
779.688	88.84
779.866	89.02
780.043	88.28
780.221	87.41
780.398	88.3
780.576	89.64
780.753	90.11
780.931	89.36
781.108	91.13
781.286	93.24
781.463	90.17
781.64	88.47
781.818	92.08
781.995	92.31
782.172	90.57
782.35	92.18
782.527	90.79
782.704	88.02
782.882	84.53
783.059	84.01
783.236	83.16
783.413	84.61
783.59	84.01
783.768	85.08
783.945	85.74
784.122	88.94
784.299	90.06
784.476	87.64
784.653	87.94
784.83	85.36
785.007	82.15
785.184	80.63
785.361	84.49
785.538	81.26
785.715	83.86
785.892	84.2
786.069	86.56
786.246	84.38
786.423	86.73
786.6	86.89
786.776	83.44
786.953	81.53
787.13	79.99
787.307	79.96
787.484	75.36
787.66	78.54
787.837	75.87
788.014	75.94
788.191	76.96
788.367	78.75
788.544	78.43
788.721	80.96
788.897	80.62
789.074	81.07
789.25	82.22
789.427	81.78
789.603	80.31
789.78	79.23
789.956	75.91
790.133	74.93
790.309	73.42
790.486	74.66
790.662	75.57
790.839	77.94
791.015	79.57
791.192	80.57
791.368	81.02
791.544	83.96
791.721	81.98
791.897	83.07
792.073	80.8
792.249	79.11
792.426	76.16
792.602	77.64
792.778	72.42
792.954	75.15
793.13	76.49
793.307	77.01
793.483	75.9
793.659	75.72
793.835	75.59
794.011	78.6
794.187	76.8
794.363	76.97
794.539	79.96
794.715	79.75
794.891	78.05
795.067	79.91
795.243	77.93
795.419	73.2
795.595	76.81
795.771	74.49
795.947	73.15
796.122	74.9
796.298	73.71
796.474	73.47
796.65	76.2
796.826	74.4
797.001	74.64
797.177	74.73
797.353	71.72
797.529	69.79
797.704	72.87
797.88	71.39
798.056	74.86
798.231	73.43
798.407	75.61
798.582	72.25
798.758	74.93
798.934	76.32
799.109	76.63
799.285	77.05
799.46	77.86
799.636	74.51
799.811	74.25
799.986	75.91
800.162	71.47
800.337	77.4
800.513	76.34
800.688	73.73
800.863	79.44
801.039	81.98
801.214	75.89
801.389	76.53
801.565	78.79
801.74	69.73
801.915	66.57
802.09	70.56
802.265	72.06
802.441	72.53
802.616	74.59
802.791	78.36
802.966	76.14
803.141	73.89
803.316	73.93
803.491	73.89
803.666	71.58
803.841	70.86
804.016	68.59
804.191	68.76
804.366	70.35
804.541	72.3
804.716	71.07
804.891	75.72
805.066	78.35
805.241	75.97
805.416	76.26
805.591	84.62
805.765	91.94
805.94	88.69
806.115	87.01
806.29	84.69
806.464	76.66
806.639	72.29
806.814	66.35
806.989	67.17
807.163	73.08
807.338	69.4
807.512	66.46
807.687	68.16
807.862	65.97
808.036	67.14
808.211	73.39
808.385	86.71
808.56	83.2
808.734	80.87
808.909	76.99
809.083	75.66
809.258	67.72
809.432	72.67
809.606	75.07
809.781	75.44
809.955	78.24
810.13	79.1
810.304	79.57
810.478	78.65
810.652	76.41
810.827	72.63
811.001	69.87
811.175	70.06
811.349	73.71
811.524	76.25
811.698	75.24
811.872	75.73
812.046	70.03
812.22	62.33
812.394	59.49
812.568	58.48
812.742	51.84
812.916	59.02
813.09	61.16
813.264	56.04
813.438	57.37
813.612	58.12
813.786	58.42
813.96	59.34
814.134	59.59
814.308	59.92
814.482	67.65
814.656	57.84
814.83	58.91
815.003	69.73
815.177	73.4
815.351	72.74
815.525	87
815.698	79.94
815.872	65.25
816.046	59.91
816.219	61.33
816.393	53.34
816.567	59.95
816.74	69.13
816.914	69.77
817.088	66.05
817.261	67.55
817.435	67.2
817.608	65.14
817.782	57.04
817.955	62.02
818.129	64.98
818.302	67.3
818.475	69.91
818.649	84.29
818.822	80.71
818.996	81.81
819.169	78.16
819.342	74.13
819.516	65.29
819.689	60.83
819.862	56.16
820.035	59.87
820.209	57.64
820.382	54.31
820.555	57.88
820.728	58.18
820.901	51.4
821.075	47.81
821.248	63.03
821.421	69.14
821.594	74.63
821.767	82.21
821.94	74.23
822.113	66.09
822.286	67.46
822.459	58.49
822.632	62
822.805	66.42
822.978	62.3
823.151	51.65
823.324	44.47
823.496	22.35
823.669	26.79
823.842	43.22
824.015	42.41
824.188	44.62
824.361	60.84
824.533	59.97
824.706	54.3
824.879	58.53
825.051	73.71
825.224	70.73
825.397	67.88
825.569	67.3
825.742	79.41
825.915	66.41
826.087	69.55
826.26	60.51
826.432	54.99
826.605	50.24
826.777	58.77
826.95	66.41
827.122	64.42
827.295	103.09
827.467	112.31
827.64	107.93
827.812	93.32
827.984	118.75
828.157	65.64
828.329	61.61
828.501	65.96
828.674	63.17
828.846	57.63
829.018	53.19
829.19	45.48
829.363	44.1
829.535	47.59
829.707	47.72
829.879	48.47
830.051	47.43
830.223	50.87
830.395	60.16
830.568	59.24
830.74	59.54
830.912	65.8
831.084	73.19
831.256	52
831.428	50.47
831.6	43.43
831.772	36.31
831.943	24.4
832.115	33.36
832.287	37.05
832.459	55.47
832.631	56.3
832.803	51.26
832.975	60.02
833.146	60.73
833.318	52.72
833.49	66.68
833.662	97.14
833.833	86.66
834.005	76.98
834.177	81.38
834.348	58.85
834.52	40.55
834.692	35.46
834.863	37.06
835.035	28
835.206	37.22
835.378	40.96
835.549	48.07
835.721	50.09
835.892	55.95
836.064	50.54
836.235	54.55
836.407	57.64
836.578	56.86
836.749	55.69
836.921	61.8
837.092	44.72
837.264	48.82
837.435	41.04
837.606	43.98
837.777	43.87
837.949	53.82
838.12	45.61
838.291	55.72
838.462	58.66
838.633	61.76
838.805	54.44
838.976	57.29
839.147	47.44
839.318	38.85
839.489	37.18
839.66	47.84
839.831	51.4
840.002	59.02
840.173	61.3
840.344	58.97
840.515	49.72
840.686	40.72
840.857	41.64
841.028	37.85
841.199	38.95
841.369	37.6
841.54	45.4
841.711	56.05
841.882	75.15
842.053	49.17
842.223	58.72
842.394	44.79
842.565	14.99
842.736	11.71
842.906	6.7
843.077	6.81
843.248	22.9
843.418	37.47
843.589	34.16
843.759	50.15
843.93	59.83
844.101	61.77
844.271	70.13
844.442	57.2
844.612	66.22
844.783	54.29
844.953	55.03
845.123	55
845.294	63.41
845.464	47.68
845.635	53.94
845.805	63.62
845.975	61.78
846.146	60.71
846.316	55.42
846.486	59.17
846.656	37.2
846.827	47.97
846.997	41.2
847.167	45
847.337	34.6
847.507	48.77
847.677	36.83
847.848	49.07
848.018	56.16
848.188	43.26
848.358	25.43
848.528	24.4
848.698	-0.84
848.868	13.2
849.038	25.83
849.208	38.29
849.378	47.69
849.548	55.07
849.718	64.45
849.887	38.82
850.057	10.54
850.227	33.25
850.397	27.07
850.567	-21.37
850.737	33.02
850.906	17.29
851.076	-24.59
851.246	-7.95
851.415	1.5
851.585	4.57
851.755	45.96
851.924	75.28
852.094	91.77
852.264	71.22
852.433	53.49
852.603	21.59
852.772	46.24
852.942	36.4
853.111	36.16
853.281	26.99
853.45	22.68
853.62	-0.52
853.789	-13.42
853.959	16.15
854.128	10.35
854.297	32.51
854.467	45.16
854.636	55.07
854.805	36.02
854.975	45.58
855.144	59
855.313	62.87
855.482	44.26
855.652	31.05
855.821	20.78
855.99	4.83
856.159	-5.88
856.328	-1.39
856.497	29.59
856.667	37.39
856.836	52.77
857.005	46.67
857.174	41.12
857.343	33.94
857.512	28.52
857.681	18.3
857.85	8.84
858.019	20.59
858.188	-25.06
858.356	-4.81
858.525	0.41
858.694	11.18
858.863	-1.67
859.032	28.14
859.201	10.41
859.369	5.08
859.538	22.47
859.707	21.84
859.876	16.7
860.044	46.3
860.213	52.92
860.382	55.82
860.55	60.7
860.719	72.03
860.888	46.1
861.056	34.85
861.225	7.06
861.393	23.47
861.562	26.23
861.73	19.78
861.899	26.17
862.067	31.35
862.236	-4.84
862.404	4.36
862.572	-6.65
862.741	-27.4
862.909	6.87
863.078	42.56
863.246	14.4
863.414	37.4
863.582	45
863.751	34.44
863.919	19.95
864.087	13
864.255	4.23
864.424	1.11
864.592	26.17
864.76	33.96
864.928	69.52
865.096	54.65
865.264	64.76
865.432	38.47
865.6	32.19
865.768	-12.17
865.936	-0.89
866.104	-10.02
866.272	-44.85
866.44	-13.04
866.608	-8.43
866.776	-6.31
866.944	-6.58
867.112	20.36
867.28	28.28
867.448	48.88
867.615	39.12
867.783	34.97
867.951	33.52
868.119	7.83
868.286	-18.98
868.454	11.4
868.622	-2.01
868.789	-29.44
868.957	-2.95
869.125	4.14
869.292	-15.65
869.46	15.51
869.627	33.27
869.795	0.33
869.963	27.67
870.13	9.97
870.298	-6.65
870.465	-0.06
870.632	25.58
870.8	9.09
870.967	33.58
871.135	12.77
871.302	21.46
871.469	29.46
871.637	22.54
871.804	7.63
871.971	24.95
872.139	12.27
872.306	-31.68
872.473	-26.11
872.64	-114.12
872.807	-110.35
872.975	-129.94
873.142	19.1
873.309	19.79
873.476	62.57
873.643	113.24
873.81	78.06
873.977	94.46
874.144	110.2
874.311	86.33
874.478	30.5
874.645	-2.39
874.812	57.38
874.979	46.4
875.146	71.03
875.313	57.11
875.48	87.04
875.647	76.14
875.813	1.23
875.98	6.57
876.147	-11.71
876.314	-3.94
876.481	-53.67
876.647	65.31
876.814	26.04
876.981	39.23
877.147	24.55
877.314	35.94
877.481	26.79
877.647	54.17
877.814	47.17
877.98	76.24
878.147	86.32
878.314	86.39
878.48	56.91
878.647	43.05
878.813	34.86
878.979	13.25
879.146	-2.66
879.312	63.2
879.479	51.63
879.645	52.91
879.811	39.24
879.978	50.35
880.144	24.42
880.31	50.08
880.477	49.94
880.643	36.16
880.809	3.24
880.975	53.91
881.142	-50.94
881.308	248.99
881.474	283.08
881.64	-13.62
881.806	-89.99
881.972	-25.23
882.138	-19.39
882.304	-3.78
882.47	7.96
882.636	-12.65
882.802	-4.31
882.968	7.35
883.134	12.39
883.3	2.56
883.466	115.64
883.632	101.11
883.798	81.77
883.964	63.98
884.129	46.29
884.295	-50.54
884.461	-49.69
884.627	-5.93
884.793	-34.7
884.958	3.46
885.124	-10.82
885.29	-41.8
885.455	-32.27
885.621	-58.3
885.787	-43.05
885.952	-85.63
886.118	-33.78
886.283	-64.88
886.449	-35.08
886.614	-61.58
886.78	11.19
886.945	-0.08
887.111	41.62
887.276	31.52
887.442	6.22
887.607	-32.1
887.773	-6.29
887.938	-38.32
888.103	-3.79
888.269	39.81
888.434	48.33
888.599	37.37
888.764	56.05
888.93	58.03
889.095	44.17
889.26	16.62
889.425	-8.55
889.59	-45.94
889.756	-68.77
889.921	-54
890.086	-100.95
890.251	64.94
890.416	14.66
890.581	30.24
890.746	49.21
890.911	43.11
891.076	35.43
891.241	37.96
891.406	32.15
891.571	62.99
891.736	70.41
891.901	35.26
892.065	25.45
892.23	24.61
892.395	-24.5
892.56	-33
892.725	-58.97
892.889	-27.74
893.054	15.06
893.219	-41.89
893.384	-53.58
893.548	-126.18
893.713	-194.37
893.878	-356.13
