Data from Ofra_PS_T2_2A_2CX10_Reflection_3.txt Node
Date: Wed Jul 21 16:57:34 EDT 2021
User: Adam
Spectrometer: FLMT01687
Trigger mode: 0
Integration Time (sec): 1.100000E0
Scans to average: 2
Electric dark correction enabled: true
Nonlinearity correction enabled: false
Boxcar width: 2
XAxis mode: Wavelengths
Number of Pixels in Spectrum: 3648
>>>>>Begin Spectral Data<<<<<
179.494	530.2
179.716	599.76
179.937	584.63
180.158	580.19
180.38	996.72
180.601	484.94
180.823	206.07
181.044	241.11
181.265	495.4
181.486	148.46
181.708	107.1
181.929	21.94
182.15	394.72
182.372	246.71
182.593	200.09
182.814	52.37
183.035	69.61
183.257	51.56
183.478	-31.01
183.699	-12.76
183.92	16.73
184.141	8.7
184.363	-27.71
184.584	8.6
184.805	9.98
185.026	25.07
185.247	19.39
185.468	5.35
185.689	23.03
185.91	21.21
186.132	11.97
186.353	2.62
186.574	47.81
186.795	17.69
187.016	3.06
187.237	-13.62
187.458	-16.11
187.679	-42.81
187.9	-37.93
188.121	-62.16
188.342	-90.24
188.563	-32.32
188.784	-10.44
189.005	-34.83
189.226	37.09
189.447	46.69
189.667	-137.74
189.888	-299.38
190.109	-750.32
190.33	-626.29
190.551	-1119.25
190.772	-256.84
190.993	-230.97
191.214	-185.75
191.434	-111.39
191.655	-55.06
191.876	-75.98
192.097	-112.02
192.318	-119.62
192.538	-190.54
192.759	-120.67
192.98	-49.18
193.201	-14.91
193.421	-9.15
193.642	13.39
193.863	12.49
194.083	-11.43
194.304	-18.77
194.525	-28.8
194.745	-81.45
194.966	-95.77
195.187	-94.22
195.407	-141.32
195.628	-176.18
195.848	-154.51
196.069	-132.35
196.29	-88.71
196.51	-89.29
196.731	-90.06
196.951	-103.99
197.172	-113.54
197.392	-139.07
197.613	-117.73
197.833	-128.58
198.054	-117.8
198.274	-77.23
198.495	-91.19
198.715	-79.14
198.936	-98.87
199.156	-82.63
199.377	-171.65
199.597	-142.73
199.817	-130.7
200.038	-62.9
200.258	-119.04
200.479	-56.94
200.699	-74.51
200.919	-35.41
201.14	-71.22
201.36	-88.58
201.58	-21.05
201.801	22.11
202.021	-16.06
202.241	-16.76
202.461	2.01
202.682	-80.8
202.902	-188.53
203.122	-106.56
203.342	-84.64
203.563	-40.69
203.783	-12.04
204.003	-38.89
204.223	-45.28
204.443	-15.89
204.663	-65.08
204.884	-43.97
205.104	-24.13
205.324	-13.76
205.544	9.32
205.764	28.72
205.984	15.5
206.204	38.58
206.424	36.62
206.644	7.07
206.864	-2.27
207.084	-29.64
207.304	-53.88
207.525	-222.73
207.745	-128.1
207.964	-50.65
208.184	-77.52
208.404	-95.6
208.624	-94.35
208.844	-75.74
209.064	-326.67
209.284	-316
209.504	-183.26
209.724	-43.42
209.944	-42.14
210.164	5.6
210.384	12.18
210.604	17.77
210.823	-12.96
211.043	-28.02
211.263	-12.69
211.483	-21
211.703	-59.69
211.922	-43.06
212.142	15.69
212.362	4.35
212.582	2.13
212.801	9.24
213.021	-13.6
213.241	-29.52
213.461	-65.62
213.68	-99.12
213.9	-91.23
214.12	-68.85
214.339	-133.82
214.559	-85.84
214.779	-13.25
214.998	-12.47
215.218	-40.87
215.438	-5.66
215.657	-25.39
215.877	-34.83
216.096	-11.81
216.316	-0.99
216.535	-2.95
216.755	-3.32
216.974	-66
217.194	-123.07
217.413	-132.83
217.633	-165.09
217.852	-276.73
218.072	-100.57
218.291	-47.9
218.511	0.29
218.73	-6.71
218.95	2.13
219.169	-18.76
219.389	-52.29
219.608	-50.2
219.827	-50.32
220.047	-32.9
220.266	-25.18
220.485	-15.51
220.705	-11.73
220.924	-25.47
221.143	-9.97
221.363	-20.81
221.582	-8.78
221.801	4.27
222.021	31.84
222.24	-5.69
222.459	38.94
222.678	13.48
222.897	-40.15
223.117	-113.25
223.336	-59.14
223.555	-64.8
223.774	-30.85
223.993	-35.6
224.213	32.2
224.432	18.63
224.651	37.14
224.87	5
225.089	25.86
225.308	6.73
225.527	17.9
225.746	9.49
225.965	10.67
226.184	-24.43
226.404	1.93
226.623	-21.54
226.842	-17.85
227.061	1.4
227.28	18.94
227.499	15.85
227.718	35.18
227.936	41.13
228.155	55.65
228.374	32.21
228.593	35.28
228.812	14.04
229.031	0.92
229.25	-50.28
229.469	-61.4
229.688	-57.59
229.907	-9.96
230.125	3.79
230.344	25.92
230.563	36.54
230.782	36.55
231.001	-22.63
231.22	-23.93
231.438	-14.14
231.657	-6.13
231.876	-8.36
232.095	30.83
232.313	23.16
232.532	-15.02
232.751	-52.25
232.969	-73.16
233.188	-181.09
233.407	-44.85
233.625	-5.11
233.844	7.5
234.063	24.4
234.281	35.36
234.5	14.81
234.719	21.64
234.937	25.13
235.156	21.11
235.374	24.91
235.593	8.29
235.811	5.89
236.03	-1.9
236.249	-30.87
236.467	-11.19
236.686	5.28
236.904	-0.08
237.123	-17.94
237.341	-14.59
237.559	-15.97
237.778	-26.24
237.996	-37.4
238.215	10.2
238.433	12.41
238.652	-1.38
238.87	-24.5
239.088	-24.4
239.307	-34.95
239.525	-52.37
239.743	-74.37
239.962	-76.7
240.18	-74.41
240.398	-127.54
240.617	-108.23
240.835	-72.25
241.053	-49.36
241.271	-2.89
241.49	17.49
241.708	-9.82
241.926	-59.92
242.144	-34.25
242.363	-75.6
242.581	-92.38
242.799	-45.87
243.017	-6.73
243.235	-27.94
243.453	-31.69
243.672	-31.58
243.89	-22.81
244.108	-29.52
244.326	-9.62
244.544	-8.04
244.762	-4.65
244.98	-6.75
245.198	-20.26
245.416	-41.29
245.634	-33.48
245.852	-52.22
246.07	-59.76
246.288	-49.77
246.506	-71.82
246.724	-52.47
246.942	-35.92
247.16	-27.52
247.378	-31.71
247.596	-13.46
247.814	-21.73
248.032	-36.4
248.25	-22.9
248.468	-12.82
248.685	-21.01
248.903	13.43
249.121	29.32
249.339	-10.68
249.557	-20.85
249.775	-14.54
249.992	-77.72
250.21	-92.93
250.428	-69.7
250.646	-88.48
250.863	-90.04
251.081	-63
251.299	-45.1
251.517	-33.9
251.734	-31.28
251.952	-46
252.17	-43.45
252.387	-37.95
252.605	-40.04
252.823	-35.91
253.04	-2.03
253.258	19.45
253.475	4.32
253.693	25.81
253.911	34.37
254.128	7.8
254.346	-7.74
254.563	4.3
254.781	-22.64
254.998	-52.51
255.216	-51.77
255.433	-53.97
255.651	-38.47
255.868	-3.32
256.086	37.68
256.303	35.99
256.521	33
256.738	14.89
256.956	-18.99
257.173	-54.07
257.39	-82.73
257.608	-98.43
257.825	-54.49
258.043	-26.06
258.26	1.12
258.477	48.98
258.695	21.34
258.912	-30.34
259.129	-26.11
259.346	-65.64
259.564	-117.07
259.781	-127.38
259.998	-49.83
260.216	-28.83
260.433	-0.32
260.65	5.25
260.867	32.02
261.084	-7.35
261.302	-33.49
261.519	-33.78
261.736	-51.88
261.953	-85.58
262.17	-52.98
262.387	-78.63
262.604	-102.31
262.822	-96.33
263.039	-61.54
263.256	-92.73
263.473	-48.25
263.69	-20.55
263.907	7.94
264.124	9.49
264.341	0.25
264.558	5.39
264.775	10.88
264.992	-1.34
265.209	0.92
265.426	25.59
265.643	15.25
265.86	17.93
266.077	27.99
266.294	-3.49
266.51	-47.33
266.727	-50.18
266.944	-58.04
267.161	-65.25
267.378	-39.29
267.595	-14.76
267.812	-41.84
268.028	-54.53
268.245	-41.27
268.462	-50.05
268.679	-48.45
268.896	12.34
269.112	14.25
269.329	3
269.546	13.07
269.763	9.57
269.979	-8.78
270.196	-16.8
270.413	-33.6
270.629	-48.47
270.846	-40.72
271.063	-35.8
271.279	-45.21
271.496	-46.31
271.712	-32.59
271.929	-47.24
272.146	-75.22
272.362	-55.8
272.579	-14.37
272.795	4.39
273.012	16.34
273.228	29.53
273.445	9.52
273.661	-9.77
273.878	-42.74
274.094	-43.26
274.311	-69.47
274.527	3.17
274.744	2.17
274.96	-1.51
275.177	14.1
275.393	33.16
275.609	8.46
275.826	35.16
276.042	36.05
276.259	36.38
276.475	34.91
276.691	35.59
276.908	7.41
277.124	21.99
277.34	12.76
277.557	3.32
277.773	0.22
277.989	-2.8
278.205	-3.55
278.422	-7.7
278.638	-5.47
278.854	2.81
279.07	1.84
279.286	15.18
279.503	8.12
279.719	5.33
279.935	-18.1
280.151	-34.16
280.367	-50.16
280.583	-74.96
280.799	-63.23
281.016	-80.27
281.232	-24.31
281.448	-26.41
281.664	3.68
281.88	3.75
282.096	19.73
282.312	51.83
282.528	75.53
282.744	89.88
282.96	64.16
283.176	38.28
283.392	11.41
283.608	-5.9
283.824	-12.67
284.04	-12.5
284.256	-7.56
284.471	-19.68
284.687	-11.58
284.903	19.79
285.119	42.35
285.335	35.95
285.551	57.48
285.767	28.15
285.982	-8.83
286.198	-42.76
286.414	4.33
286.63	9.39
286.846	30.41
287.061	13.72
287.277	42.37
287.493	9.44
287.709	24.15
287.924	13.93
288.14	49.69
288.356	28.31
288.571	36.74
288.787	17.08
289.003	16.57
289.218	-11.19
289.434	-38.56
289.65	-19.29
289.865	-41.49
290.081	-20.06
290.296	-12.58
290.512	-0.93
290.727	-29.37
290.943	-14.27
291.159	-17.92
291.374	-12.89
291.59	-30.71
291.805	-22.91
292.021	-17.45
292.236	-32.42
292.451	-18.3
292.667	6.29
292.882	12.33
293.098	1.77
293.313	-12.67
293.529	-32.1
293.744	-60.28
293.959	-59.96
294.175	-47.64
294.39	-13.51
294.605	-2.21
294.821	18.43
295.036	25.71
295.251	24.41
295.467	13.09
295.682	16.23
295.897	-23.29
296.112	-38.04
296.328	-37.78
296.543	-57.09
296.758	-67.64
296.973	-5.78
297.188	22.32
297.404	8.07
297.619	3.02
297.834	-14.37
298.049	-42.95
298.264	-70.57
298.479	-20.85
298.694	-22.91
298.909	12.17
299.125	23.75
299.34	42.83
299.555	16.02
299.77	39.56
299.985	3.28
300.2	-54.3
300.415	-75.85
300.63	-17.89
300.845	-36.34
301.06	-39.63
301.275	9.96
301.49	14.7
301.704	-10.15
301.919	-6.62
302.134	-22.16
302.349	-40.02
302.564	-72.54
302.779	-100.7
302.994	-104.19
303.209	-49.35
303.423	-38.18
303.638	-5.48
303.853	-17.66
304.068	-28.64
304.283	-29.53
304.497	-23.97
304.712	-29.27
304.927	-15.81
305.142	-7.92
305.356	5.64
305.571	5.9
305.786	-13.23
306	-31.53
306.215	-42.95
306.43	-67.87
306.644	-100.27
306.859	-57.6
307.074	-36.96
307.288	-54.79
307.503	-65.77
307.717	-42.26
307.932	-33.28
308.147	-33.75
308.361	-4.44
308.576	-6.7
308.79	-39.73
309.005	-40.84
309.219	-24.38
309.434	-54.55
309.648	-55.66
309.863	-23.53
310.077	-23.88
310.292	-35.26
310.506	-17.04
310.72	0.94
310.935	8.26
311.149	-4.45
311.364	11.9
311.578	28.68
311.792	19.19
312.007	16.51
312.221	14.81
312.435	9.76
312.649	-4.84
312.864	-41.77
313.078	-32.66
313.292	-5.93
313.507	-20.14
313.721	-3.09
313.935	47.87
314.149	37.08
314.363	36.13
314.578	28.14
314.792	18.12
315.006	8.12
315.22	8.82
315.434	1.91
315.648	19.13
315.862	16.74
316.077	21.09
316.291	26.02
316.505	32.33
316.719	13.46
316.933	2.61
317.147	-6.41
317.361	-54.39
317.575	-80.46
317.789	-92.97
318.003	-158.44
318.217	-123.84
318.431	-37.71
318.645	9.58
318.859	-0.09
319.073	25.77
319.287	10.36
319.5	-25.11
319.714	-66.08
319.928	-78.32
320.142	-101.45
320.356	-65.28
320.57	-33.69
320.784	-34.07
320.997	-44.13
321.211	-43.38
321.425	-82.12
321.639	-94.72
321.853	-47.13
322.066	-38.06
322.28	-44.55
322.494	-27.61
322.707	-14.42
322.921	-28.74
323.135	-13.31
323.349	-14.25
323.562	-36.6
323.776	-37.96
323.989	-40.55
324.203	-67.29
324.417	-50.86
324.63	-49.01
324.844	-62.16
325.057	-55.81
325.271	-50.92
325.485	-21.3
325.698	-0.24
325.912	18.87
326.125	-5.83
326.339	0.97
326.552	-22.55
326.766	-23.18
326.979	-15.02
327.193	18.92
327.406	10.98
327.619	17.25
327.833	18.5
328.046	-8.27
328.26	-31.17
328.473	-6.95
328.686	-39.16
328.9	-49.13
329.113	-16.33
329.326	-34.66
329.54	-47.08
329.753	-61.02
329.966	-67.48
330.179	-83.93
330.393	-44.78
330.606	-38.01
330.819	-11.62
331.032	6.71
331.246	10.82
331.459	26.09
331.672	23.33
331.885	15.73
332.098	-16.51
332.311	-29.41
332.525	-79.6
332.738	-77.07
332.951	-59.87
333.164	-24.85
333.377	-17.24
333.59	8.44
333.803	24.44
334.016	22.88
334.229	13.97
334.442	41.66
334.655	38.15
334.868	29.67
335.081	24.43
335.294	21.87
335.507	-7.54
335.72	-10.67
335.933	-25.2
336.146	-16.09
336.359	-13.73
336.572	-27.78
336.785	-50.37
336.997	-34.53
337.21	-27.03
337.423	-29.91
337.636	-18.74
337.849	11.26
338.062	-12.76
338.274	-6.94
338.487	-11.56
338.7	-23.07
338.913	-58.79
339.125	-58.14
339.338	-122.32
339.551	-91.21
339.763	-49.35
339.976	-24.02
340.189	-13.9
340.402	4.07
340.614	-2.87
340.827	-24.71
341.039	-30.83
341.252	-25.03
341.465	-2.91
341.677	-5.28
341.89	-21.73
342.102	-6.88
342.315	-26.29
342.527	-66.46
342.74	-53.62
342.952	-21.97
343.165	-26.97
343.377	5.34
343.59	4.03
343.802	7.33
344.015	6
344.227	13.4
344.44	3.84
344.652	11.82
344.864	2.82
345.077	28.23
345.289	24.29
345.502	28.5
345.714	23.93
345.926	24.09
346.139	1.24
346.351	15.56
346.563	16.4
346.775	12.37
346.988	7.11
347.2	4.02
347.412	-52.94
347.624	-67.04
347.837	-75.41
348.049	-41.74
348.261	-12.42
348.473	5.3
348.685	8.37
348.897	12.65
349.11	-13.29
349.322	-78.54
349.534	-65.55
349.746	-69.11
349.958	-67.07
350.17	-71.88
350.382	-3.04
350.594	-27.67
350.806	-11.53
351.018	-10.36
351.23	-14.44
351.442	-62.09
351.654	-49.39
351.866	-62.32
352.078	-55.42
352.29	-27.98
352.502	-8.64
352.714	9.4
352.926	5.77
353.138	5.27
353.35	3.22
353.561	-4.97
353.773	-18.63
353.985	-8.57
354.197	-19.95
354.409	-26.39
354.621	-27.33
354.832	-17.69
355.044	-29.68
355.256	-20.78
355.468	-6.33
355.679	-2.98
355.891	-7.32
356.103	-11.75
356.314	-1.15
356.526	-8.63
356.738	4.05
356.949	-1.38
357.161	20.51
357.373	3.77
357.584	-3.22
357.796	5.31
358.008	5.1
358.219	-6.3
358.431	-3.45
358.642	2.25
358.854	-14.88
359.065	-23.84
359.277	-42.2
359.488	-43.84
359.7	-66.57
359.911	-71.53
360.123	-58.6
360.334	-63.37
360.546	-87.22
360.757	-72.52
360.969	-44.46
361.18	-22.43
361.391	2.39
361.603	5.82
361.814	18.44
362.025	5.56
362.237	13.54
362.448	12.73
362.659	18.46
362.871	11.72
363.082	10.18
363.293	-4.04
363.504	-16.47
363.716	-32.95
363.927	-49.78
364.138	-62.58
364.349	-72.58
364.56	-52.5
364.772	-38.57
364.983	-8.98
365.194	-5.38
365.405	5.44
365.616	15.19
365.827	20.42
366.038	-3.85
366.25	-17.83
366.461	-44.23
366.672	-32.88
366.883	-18.81
367.094	-13.29
367.305	-12.17
367.516	4.33
367.727	-13.08
367.938	-29.83
368.149	-17.03
368.36	-2.14
368.571	-0.6
368.781	-3.87
368.992	-12.58
369.203	-18.34
369.414	-20.25
369.625	-36.15
369.836	-33.57
370.047	-49.11
370.258	-40.85
370.468	-47.73
370.679	-57.96
370.89	-49.76
371.101	-25.6
371.312	-32.35
371.522	-35.57
371.733	-21.73
371.944	-12.13
372.155	-11.95
372.365	-16.51
372.576	-13.88
372.787	-15.88
372.997	-24.83
373.208	-22.56
373.419	-8.82
373.629	-27.98
373.84	-20.94
374.05	-46.91
374.261	-36.94
374.472	-40.16
374.682	3.01
374.893	-7.19
375.103	27.26
375.314	16.5
375.524	12.79
375.735	4.58
375.945	21.49
376.156	-0.31
376.366	-0.87
376.577	3.13
376.787	-2.51
376.997	-14.04
377.208	-9.89
377.418	-7.88
377.629	-0.66
377.839	1.56
378.049	0.45
378.26	6.77
378.47	5.32
378.68	1.36
378.89	-5.62
379.101	-2.49
379.311	-12.3
379.521	-32.33
379.732	-41.75
379.942	-40.33
380.152	-59.34
380.362	-31.76
380.572	-18.29
380.783	-2.03
380.993	17.2
381.203	25.95
381.413	21.59
381.623	32.76
381.833	30.62
382.043	17.59
382.253	16.84
382.463	12.6
382.674	0.04
382.884	-24.29
383.094	-19.31
383.304	-13.54
383.514	-11.79
383.724	-2.11
383.934	-8.16
384.144	-25.06
384.353	-35.82
384.563	-36.34
384.773	-32.51
384.983	-28.79
385.193	-1.36
385.403	12.63
385.613	15.13
385.823	7.89
386.033	10.47
386.242	0.24
386.452	-11.7
386.662	-19.83
386.872	-7.69
387.082	-9.91
387.291	-19.36
387.501	-15.91
387.711	-6.04
387.921	-12.31
388.13	-8.65
388.34	1.99
388.55	-4.42
388.759	-6.95
388.969	-4.33
389.179	-4.88
389.388	-6.35
389.598	3.18
389.807	-2
390.017	-6.06
390.227	-6.4
390.436	-7.51
390.646	-12.75
390.855	-7
391.065	-4.42
391.274	-4.47
391.484	-2.76
391.693	1.36
391.903	1.18
392.112	4.12
392.322	7.77
392.531	9.83
392.74	10.26
392.95	5.9
393.159	5.32
393.369	4.59
393.578	3.04
393.787	1.49
393.997	4.44
394.206	2.97
394.415	2.34
394.625	1.93
394.834	1.94
395.043	3.11
395.252	5.45
395.462	6.13
395.671	8.05
395.88	7.95
396.089	7.11
396.298	4.87
396.508	4.65
396.717	2.64
396.926	4.33
397.135	5.1
397.344	5.25
397.553	6
397.762	8.07
397.971	7.96
398.181	8.29
398.39	8.5
398.599	7.95
398.808	7.48
399.017	7.66
399.226	7.83
399.435	8.57
399.644	9.16
399.853	8.45
400.062	7.91
400.27	7.69
400.479	7.37
400.688	6.38
400.897	6.45
401.106	6.55
401.315	6.39
401.524	6.69
401.733	7.07
401.941	7.63
402.15	7.95
402.359	7.8
402.568	8
402.777	8.19
402.985	8.03
403.194	7.95
403.403	8.03
403.612	7.52
403.82	7.4
404.029	7.75
404.238	7.47
404.446	7.93
404.655	7.99
404.864	7.91
405.072	7.33
405.281	7.5
405.489	7.08
405.698	7
405.906	7.16
406.115	7.23
406.324	7.22
406.532	7.26
406.741	7.47
406.949	7.31
407.158	7.37
407.366	7.34
407.574	7.38
407.783	7.41
407.991	7.36
408.2	7.57
408.408	7.57
408.617	7.35
408.825	7.11
409.033	7.14
409.242	7.08
409.45	7.08
409.658	7.15
409.867	7.18
410.075	7.23
410.283	7.14
410.491	6.96
410.7	7.01
410.908	7.11
411.116	7.33
411.324	7.29
411.533	7.29
411.741	7.28
411.949	7.18
412.157	6.91
412.365	6.9
412.573	6.81
412.781	6.8
412.99	6.73
413.198	6.82
413.406	6.82
413.614	6.97
413.822	6.84
414.03	6.81
414.238	6.58
414.446	6.62
414.654	6.46
414.862	6.58
415.07	6.6
415.278	6.78
415.486	6.48
415.694	6.57
415.902	6.43
416.109	6.37
416.317	6.26
416.525	6.31
416.733	6.24
416.941	6.27
417.149	6.29
417.357	6.25
417.564	6.29
417.772	6.53
417.98	6.5
418.188	6.41
418.395	6.44
418.603	6.53
418.811	6.13
419.019	6.08
419.226	6.27
419.434	6.32
419.642	6.08
419.849	6.26
420.057	6.16
420.265	5.97
420.472	5.71
420.68	5.76
420.887	5.6
421.095	5.75
421.302	5.83
421.51	6.08
421.717	6.12
421.925	6.27
422.132	6.14
422.34	5.83
422.547	5.8
422.755	5.73
422.962	5.55
423.17	5.64
423.377	5.8
423.585	5.75
423.792	5.68
423.999	5.82
424.207	5.79
424.414	5.81
424.621	5.81
424.829	5.77
425.036	5.75
425.243	5.89
425.451	5.88
425.658	5.73
425.865	6.01
426.072	5.89
426.28	5.92
426.487	5.98
426.694	6.01
426.901	5.88
427.108	5.93
427.315	5.83
427.523	5.91
427.73	5.91
427.937	5.84
428.144	5.83
428.351	5.8
428.558	5.93
428.765	5.95
428.972	5.97
429.179	6.12
429.386	6.43
429.593	6.16
429.8	6.19
430.007	6.31
430.214	6.37
430.421	6.11
430.628	6.1
430.835	6.03
431.042	6.12
431.249	6.1
431.456	6.15
431.662	6.2
431.869	6.34
432.076	6.27
432.283	6.39
432.49	6.39
432.697	6.43
432.903	6.43
433.11	6.41
433.317	6.41
433.524	6.64
433.73	6.68
433.937	6.8
434.144	6.88
434.35	6.84
434.557	6.63
434.764	6.66
434.97	6.57
435.177	6.72
435.384	6.77
435.59	6.91
435.797	7.14
436.003	7.09
436.21	7.07
436.416	7.15
436.623	7.21
436.829	7.22
437.036	7.48
437.242	7.48
437.449	7.43
437.655	7.39
437.862	7.38
438.068	7.4
438.275	7.59
438.481	7.81
438.687	7.74
438.894	7.82
439.1	7.76
439.307	7.78
439.513	7.64
439.719	7.76
439.926	7.78
440.132	7.81
440.338	7.86
440.544	8
440.751	7.94
440.957	8.05
441.163	8.09
441.369	8.1
441.575	7.89
441.782	7.97
441.988	7.87
442.194	7.82
442.4	7.81
442.606	8.27
442.812	8.46
443.018	8.54
443.224	8.63
443.431	8.74
443.637	8.47
443.843	8.42
444.049	8.47
444.255	8.45
444.461	8.45
444.667	8.44
444.873	8.62
445.079	8.66
445.284	8.76
445.49	8.55
445.696	8.48
445.902	8.35
446.108	8.27
446.314	8.19
446.52	8.37
446.726	8.7
446.931	8.71
447.137	8.73
447.343	8.87
447.549	8.8
447.755	8.51
447.96	8.53
448.166	8.67
448.372	8.6
448.578	8.74
448.783	8.84
448.989	8.89
449.195	8.96
449.4	9.04
449.606	9.03
449.812	9.07
450.017	9.1
450.223	8.89
450.428	8.79
450.634	8.79
450.84	8.89
451.045	8.82
451.251	8.86
451.456	9.08
451.662	9.13
451.867	9.18
452.073	9.17
452.278	9.34
452.483	9.41
452.689	9.39
452.894	9.39
453.1	9.53
453.305	9.41
453.51	9.31
453.716	9.29
453.921	9.31
454.127	9.22
454.332	9.22
454.537	9.18
454.742	9.22
454.948	9.22
455.153	9.4
455.358	9.59
455.563	9.75
455.769	9.84
455.974	9.79
456.179	9.67
456.384	9.6
456.589	9.6
456.795	9.49
457	9.53
457.205	9.57
457.41	9.61
457.615	9.43
457.82	9.46
458.025	9.39
458.23	9.3
458.435	9.3
458.64	9.27
458.845	9.35
459.05	9.45
459.255	9.6
459.46	9.62
459.665	9.75
459.87	9.77
460.075	9.69
460.28	9.67
460.485	9.71
460.69	9.79
460.895	9.64
461.099	9.73
461.304	9.8
461.509	9.75
461.714	9.67
461.919	9.84
462.123	9.79
462.328	9.86
462.533	9.86
462.738	10
462.942	10
463.147	10.07
463.352	10.07
463.556	10.13
463.761	10.1
463.966	10.02
464.17	10.02
464.375	10.02
464.58	10.04
464.784	10.04
464.989	10.16
465.193	10.23
465.398	10.2
465.602	10.21
465.807	10.23
466.011	10.26
466.216	10.37
466.42	10.45
466.625	10.58
466.829	10.65
467.034	10.74
467.238	10.85
467.443	10.81
467.647	10.76
467.851	10.94
468.056	10.93
468.26	10.8
468.464	10.99
468.669	11.11
468.873	11.15
469.077	11.19
469.282	11.32
469.486	11.21
469.69	11.21
469.894	11
470.099	10.99
470.303	11.08
470.507	11.06
470.711	10.95
470.915	11.03
471.119	10.98
471.324	10.89
471.528	10.92
471.732	11.07
471.936	11.08
472.14	11.15
472.344	11.19
472.548	11.31
472.752	11.47
472.956	11.58
473.16	11.7
473.364	11.64
473.568	11.66
473.772	11.59
473.976	11.56
474.18	11.51
474.384	11.59
474.588	11.49
474.792	11.42
474.995	11.5
475.199	11.65
475.403	11.75
475.607	11.91
475.811	11.94
476.015	11.95
476.218	12.01
476.422	11.89
476.626	11.93
476.83	12.06
477.033	12.04
477.237	11.9
477.441	12.02
477.644	11.98
477.848	11.98
478.052	11.97
478.255	12.11
478.459	12.2
478.663	12.33
478.866	12.41
479.07	12.48
479.273	12.57
479.477	12.54
479.681	12.53
479.884	12.45
480.088	12.4
480.291	12.38
480.495	12.4
480.698	12.46
480.901	12.49
481.105	12.61
481.308	12.56
481.512	12.56
481.715	12.6
481.919	12.6
482.122	12.62
482.325	12.64
482.529	12.67
482.732	12.62
482.935	12.61
483.138	12.52
483.342	12.54
483.545	12.65
483.748	12.68
483.952	12.79
484.155	12.89
484.358	12.95
484.561	12.86
484.764	12.85
484.967	12.88
485.171	12.94
485.374	12.87
485.577	12.93
485.78	12.98
485.983	12.91
486.186	12.78
486.389	12.75
486.592	12.83
486.795	12.85
486.998	12.89
487.201	13.04
487.404	13.05
487.607	13.06
487.81	13.06
488.013	13.1
488.216	12.97
488.419	13.04
488.622	12.98
488.825	12.93
489.028	12.93
489.231	13.07
489.433	13.06
489.636	13.09
489.839	13.16
490.042	13.13
490.245	13.09
490.447	13.16
490.65	13.18
490.853	13.23
491.056	13.36
491.258	13.46
491.461	13.5
491.664	13.51
491.866	13.51
492.069	13.6
492.272	13.52
492.474	13.65
492.677	13.75
492.879	13.83
493.082	13.85
493.285	13.99
493.487	13.99
493.69	14.02
493.892	14.02
494.095	14.05
494.297	14.08
494.5	14.14
494.702	14.16
494.905	14.27
495.107	14.33
495.309	14.35
495.512	14.4
495.714	14.53
495.917	14.57
496.119	14.63
496.321	14.75
496.524	14.89
496.726	14.99
496.928	15.1
497.13	15.12
497.333	15.19
497.535	15.19
497.737	15.18
497.939	15.23
498.142	15.34
498.344	15.39
498.546	15.37
498.748	15.49
498.95	15.55
499.152	15.58
499.355	15.62
499.557	15.73
499.759	15.83
499.961	15.89
500.163	16.03
500.365	16.14
500.567	16.33
500.769	16.29
500.971	16.25
501.173	16.19
501.375	16.21
501.577	16.14
501.779	16.17
501.981	16.29
502.183	16.36
502.385	16.36
502.587	16.38
502.788	16.49
502.99	16.55
503.192	16.66
503.394	16.74
503.596	16.74
503.798	16.78
503.999	16.86
504.201	16.84
504.403	16.75
504.605	16.81
504.806	16.68
505.008	16.65
505.21	16.63
505.411	16.68
505.613	16.66
505.815	16.74
506.016	16.74
506.218	16.86
506.42	16.84
506.621	16.91
506.823	16.95
507.024	16.9
507.226	16.87
507.427	16.88
507.629	16.88
507.83	16.89
508.032	16.91
508.233	16.94
508.435	17.07
508.636	17.09
508.838	17.08
509.039	17.14
509.24	17.09
509.442	17.02
509.643	16.97
509.845	16.98
510.046	17.01
510.247	16.96
510.448	16.89
510.65	16.89
510.851	16.98
511.052	16.96
511.254	17.02
511.455	17.13
511.656	17.14
511.857	17.08
512.058	17.04
512.26	17.03
512.461	16.99
512.662	17.05
512.863	17.02
513.064	17
513.265	17.05
513.466	17.11
513.667	17.1
513.868	17.08
514.069	17.13
514.27	17.16
514.471	17.11
514.672	17.08
514.873	17.05
515.074	17.09
515.275	17
515.476	17.03
515.677	17.07
515.878	17.21
516.079	17.2
516.28	17.24
516.481	17.28
516.682	17.3
516.882	17.16
517.083	17.11
517.284	17.08
517.485	17.01
517.686	16.94
517.886	16.94
518.087	17.01
518.288	17.07
518.488	17.09
518.689	17.1
518.89	17.09
519.091	17.12
519.291	17.05
519.492	17.12
519.692	17.17
519.893	17.25
520.094	17.18
520.294	17.23
520.495	17.15
520.695	17.11
520.896	17.14
521.096	17.25
521.297	17.24
521.497	17.23
521.698	17.26
521.898	17.24
522.099	17.23
522.299	17.33
522.499	17.4
522.7	17.43
522.9	17.39
523.101	17.44
523.301	17.44
523.501	17.41
523.702	17.45
523.902	17.55
524.102	17.52
524.302	17.48
524.503	17.54
524.703	17.57
524.903	17.57
525.103	17.48
525.304	17.48
525.504	17.51
525.704	17.5
525.904	17.45
526.104	17.55
526.304	17.57
526.504	17.49
526.705	17.5
526.905	17.62
527.105	17.58
527.305	17.58
527.505	17.6
527.705	17.59
527.905	17.54
528.105	17.54
528.305	17.55
528.505	17.7
528.705	17.78
528.905	17.78
529.105	17.77
529.304	17.74
529.504	17.71
529.704	17.7
529.904	17.71
530.104	17.75
530.304	17.85
530.503	17.8
530.703	17.69
530.903	17.67
531.103	17.7
531.303	17.71
531.502	17.81
531.702	17.96
531.902	18.01
532.101	18.02
532.301	17.97
532.501	17.98
532.7	17.9
532.9	17.9
533.1	17.92
533.299	17.97
533.499	17.92
533.698	17.95
533.898	18.03
534.097	18.07
534.297	18.18
534.496	18.21
534.696	18.29
534.895	18.34
535.095	18.45
535.294	18.34
535.494	18.32
535.693	18.29
535.892	18.27
536.092	18.16
536.291	18.21
536.491	18.32
536.69	18.3
536.889	18.27
537.088	18.25
537.288	18.34
537.487	18.38
537.686	18.46
537.886	18.5
538.085	18.56
538.284	18.61
538.483	18.57
538.682	18.65
538.882	18.73
539.081	18.77
539.28	18.72
539.479	18.75
539.678	18.69
539.877	18.79
540.076	18.87
540.275	18.86
540.474	18.95
540.673	18.98
540.872	18.83
541.071	18.82
541.27	18.93
541.469	18.98
541.668	18.95
541.867	19.08
542.066	19.17
542.265	19.23
542.464	19.14
542.663	19.23
542.862	19.32
543.06	19.37
543.259	19.37
543.458	19.45
543.657	19.5
543.856	19.5
544.054	19.47
544.253	19.41
544.452	19.51
544.651	19.58
544.849	19.54
545.048	19.62
545.247	19.77
545.445	19.7
545.644	19.75
545.843	19.87
546.041	19.96
546.24	19.95
546.438	20.1
546.637	20.17
546.836	20.25
547.034	20.28
547.233	20.4
547.431	20.38
547.63	20.39
547.828	20.39
548.027	20.41
548.225	20.39
548.423	20.49
548.622	20.54
548.82	20.57
549.019	20.63
549.217	20.65
549.415	20.71
549.614	20.79
549.812	20.85
550.01	20.95
550.209	21.08
550.407	21.21
550.605	21.25
550.803	21.37
551.002	21.44
551.2	21.54
551.398	21.54
551.596	21.62
551.794	21.64
551.993	21.67
552.191	21.76
552.389	21.9
552.587	22.01
552.785	22.06
552.983	22.15
553.181	22.2
553.379	22.23
553.577	22.34
553.775	22.55
553.973	22.64
554.171	22.72
554.369	22.81
554.567	22.82
554.765	22.89
554.963	22.98
555.161	22.97
555.359	23.05
555.557	23.18
555.755	23.16
555.952	23.21
556.15	23.27
556.348	23.3
556.546	23.37
556.744	23.35
556.941	23.39
557.139	23.56
557.337	23.71
557.535	23.71
557.732	23.88
557.93	23.98
558.128	23.97
558.325	24.05
558.523	24.21
558.721	24.38
558.918	24.49
559.116	24.66
559.313	24.63
559.511	24.72
559.708	24.74
559.906	24.81
560.104	24.87
560.301	25.07
560.498	25.16
560.696	25.23
560.893	25.33
561.091	25.52
561.288	25.7
561.486	25.77
561.683	25.98
561.88	26.05
562.078	26.1
562.275	26.08
562.473	26.21
562.67	26.38
562.867	26.47
563.064	26.59
563.262	26.64
563.459	26.73
563.656	26.8
563.853	26.94
564.051	27.05
564.248	27.23
564.445	27.41
564.642	27.47
564.839	27.62
565.036	27.73
565.234	27.86
565.431	27.92
565.628	28
565.825	28.1
566.022	28.27
566.219	28.35
566.416	28.49
566.613	28.62
566.81	28.74
567.007	28.79
567.204	28.86
567.401	28.95
567.598	29.01
567.795	29.11
567.991	29.17
568.188	29.36
568.385	29.5
568.582	29.57
568.779	29.66
568.976	29.75
569.172	29.88
569.369	29.8
569.566	29.84
569.763	29.9
569.96	29.98
570.156	29.92
570.353	30.03
570.55	30.1
570.746	30.15
570.943	30.17
571.14	30.24
571.336	30.32
571.533	30.38
571.729	30.44
571.926	30.52
572.123	30.6
572.319	30.72
572.516	30.77
572.712	30.79
572.909	30.75
573.105	30.79
573.302	30.77
573.498	30.92
573.695	30.95
573.891	31.09
574.087	31.11
574.284	31.17
574.48	31.14
574.677	31.18
574.873	31.17
575.069	31.28
575.266	31.3
575.462	31.29
575.658	31.35
575.854	31.56
576.051	31.5
576.247	31.49
576.443	31.53
576.639	31.52
576.835	31.35
577.032	31.37
577.228	31.46
577.424	31.56
577.62	31.59
577.816	31.68
578.012	31.71
578.208	31.67
578.404	31.67
578.6	31.69
578.796	31.66
578.993	31.74
579.189	31.67
579.384	31.58
579.58	31.56
579.776	31.48
579.972	31.45
580.168	31.5
580.364	31.63
580.56	31.64
580.756	31.69
580.952	31.67
581.148	31.6
581.343	31.63
581.539	31.63
581.735	31.72
581.931	31.66
582.127	31.79
582.322	31.73
582.518	31.82
582.714	31.84
582.909	31.93
583.105	31.85
583.301	31.87
583.496	31.8
583.692	31.72
583.888	31.62
584.083	31.71
584.279	31.68
584.474	31.65
584.67	31.7
584.866	31.78
585.061	31.72
585.257	31.77
585.452	31.8
585.648	31.77
585.843	31.82
586.039	31.75
586.234	31.75
586.429	31.75
586.625	31.76
586.82	31.66
587.015	31.74
587.211	31.64
587.406	31.74
587.601	31.8
587.797	31.92
587.992	31.95
588.187	32.08
588.383	31.98
588.578	31.9
588.773	31.9
588.968	31.87
589.163	31.91
589.359	31.98
589.554	31.98
589.749	32.03
589.944	32.14
590.139	32.1
590.334	32.08
590.529	32.11
590.724	32.08
590.919	32.14
591.114	32.18
591.309	32.38
591.504	32.54
591.699	32.64
591.894	32.71
592.089	32.74
592.284	32.67
592.479	32.74
592.674	32.79
592.869	32.83
593.064	32.91
593.259	33.05
593.454	33.19
593.648	33.15
593.843	33.19
594.038	33.17
594.233	33.12
594.428	33.09
594.622	33.22
594.817	33.33
595.012	33.41
595.206	33.52
595.401	33.53
595.596	33.51
595.79	33.59
595.985	33.73
596.18	33.87
596.374	33.99
596.569	34.1
596.763	34.13
596.958	34.19
597.153	34.15
597.347	34.12
597.542	34.3
597.736	34.34
597.931	34.45
598.125	34.54
598.319	34.79
598.514	34.76
598.708	34.86
598.903	34.85
599.097	34.95
599.291	34.9
599.486	34.94
599.68	34.96
599.874	35.09
600.069	35.07
600.263	35.14
600.457	35.32
600.651	35.4
600.846	35.53
601.04	35.66
601.234	35.74
601.428	35.71
601.622	35.76
601.817	35.67
602.011	35.7
602.205	35.74
602.399	35.75
602.593	35.72
602.787	35.73
602.981	35.71
603.175	35.75
603.369	35.67
603.563	35.71
603.757	35.84
603.951	35.86
604.145	35.79
604.339	35.89
604.533	35.81
604.727	35.7
604.921	35.69
605.115	35.68
605.309	35.73
605.502	35.85
605.696	35.84
605.89	35.79
606.084	35.82
606.278	35.81
606.471	35.64
606.665	35.55
606.859	35.46
607.053	35.41
607.246	35.34
607.44	35.37
607.634	35.39
607.827	35.43
608.021	35.27
608.214	35.2
608.408	35.11
608.602	35.07
608.795	35
608.989	35.09
609.182	34.94
609.376	34.93
609.569	34.86
609.763	34.76
609.956	34.5
610.15	34.5
610.343	34.44
610.537	34.43
610.73	34.38
610.923	34.43
611.117	34.38
611.31	34.32
611.504	34.26
611.697	34.16
611.89	34.12
612.083	33.98
612.277	33.93
612.47	33.76
612.663	33.77
612.856	33.73
613.05	33.71
613.243	33.59
613.436	33.51
613.629	33.38
613.822	33.22
614.015	33.12
614.209	33.12
614.402	33.2
614.595	33.15
614.788	33.16
614.981	33.06
615.174	32.95
615.367	32.72
615.56	32.61
615.753	32.55
615.946	32.55
616.139	32.52
616.332	32.53
616.525	32.57
616.718	32.52
616.911	32.52
617.103	32.6
617.296	32.64
617.489	32.55
617.682	32.41
617.875	32.4
618.067	32.2
618.26	32.03
618.453	32
618.646	32.07
618.838	32.07
619.031	32.07
619.224	32.13
619.417	32.1
619.609	32.1
619.802	32
619.994	32.07
620.187	31.97
620.38	31.93
620.572	31.87
620.765	31.89
620.957	31.73
621.15	31.69
621.342	31.68
621.535	31.59
621.727	31.5
621.92	31.46
622.112	31.46
622.305	31.52
622.497	31.51
622.69	31.36
622.882	31.38
623.074	31.4
623.267	31.35
623.459	31.31
623.651	31.33
623.844	31.39
624.036	31.42
624.228	31.34
624.42	31.31
624.613	31.45
624.805	31.37
624.997	31.34
625.189	31.26
625.381	31.25
625.574	31.11
625.766	31.02
625.958	30.98
626.15	31.06
626.342	31.13
626.534	31.08
626.726	31.12
626.918	31
627.11	30.95
627.302	30.79
627.494	30.8
627.686	30.89
627.878	30.91
628.07	30.95
628.262	31.01
628.454	31.12
628.646	30.96
628.838	30.95
629.029	30.83
629.221	30.82
629.413	30.64
629.605	30.61
629.797	30.55
629.989	30.57
630.18	30.53
630.372	30.54
630.564	30.45
630.755	30.48
630.947	30.43
631.139	30.28
631.33	30.11
631.522	30.27
631.714	30.24
631.905	30.18
632.097	30.17
632.289	30.23
632.48	30.1
632.672	30.01
632.863	29.93
633.055	29.98
633.246	30.02
633.438	29.91
633.629	29.92
633.821	30
634.012	29.88
634.203	29.79
634.395	29.84
634.586	29.88
634.777	29.72
634.969	29.77
635.16	29.77
635.351	29.67
635.543	29.64
635.734	29.85
635.925	29.89
636.117	29.86
636.308	29.96
636.499	29.86
636.69	29.72
636.881	29.63
637.073	29.82
637.264	29.67
637.455	29.74
637.646	29.82
637.837	29.89
638.028	29.72
638.219	29.77
638.41	29.67
638.601	29.57
638.792	29.56
638.983	29.49
639.174	29.48
639.365	29.49
639.556	29.44
639.747	29.4
639.938	29.41
640.129	29.39
640.32	29.37
640.511	29.35
640.701	29.35
640.892	29.37
641.083	29.4
641.274	29.36
641.465	29.34
641.655	29.25
641.846	29.26
642.037	29.26
642.228	29.13
642.418	29.18
642.609	29.23
642.8	29.18
642.99	29.01
643.181	29.21
643.372	29.26
643.562	29.17
643.753	29.03
643.943	29.03
644.134	28.88
644.324	28.78
644.515	28.79
644.705	28.93
644.896	28.93
645.086	28.98
645.277	28.82
645.467	28.77
645.658	28.61
645.848	28.67
646.038	28.66
646.229	28.69
646.419	28.59
646.61	28.65
646.8	28.53
646.99	28.41
647.18	28.45
647.371	28.45
647.561	28.39
647.751	28.46
647.941	28.37
648.132	28.27
648.322	28.26
648.512	28.23
648.702	28.27
648.892	28.28
649.082	28.26
649.272	28.19
649.462	28
649.653	27.76
649.843	27.71
650.033	27.67
650.223	27.6
650.413	27.67
650.603	27.67
650.793	27.71
650.983	27.56
651.172	27.55
651.362	27.44
651.552	27.39
651.742	27.18
651.932	27.13
652.122	27.17
652.312	27.18
652.502	27.08
652.691	27.05
652.881	27.07
653.071	26.96
653.261	26.76
653.45	26.65
653.64	26.56
653.83	26.38
654.019	26.21
654.209	26.15
654.399	26.02
654.588	25.95
654.778	25.83
654.968	25.61
655.157	25.47
655.347	25.4
655.536	25.29
655.726	25.11
655.915	25.02
656.105	24.94
656.294	24.71
656.484	24.39
656.673	24.26
656.863	24.19
657.052	23.97
657.241	23.72
657.431	23.46
657.62	23.38
657.809	23.07
657.999	22.83
658.188	22.78
658.377	22.69
658.567	22.4
658.756	22.26
658.945	22.09
659.134	21.92
659.324	21.75
659.513	21.61
659.702	21.45
659.891	21.36
660.08	21.14
660.269	21.06
660.458	20.83
660.648	20.59
660.837	20.29
661.026	20.15
661.215	19.96
661.404	19.81
661.593	19.66
661.782	19.45
661.971	19.27
662.16	19.04
662.349	18.84
662.538	18.58
662.726	18.46
662.915	18.29
663.104	18.18
663.293	18.15
663.482	18.18
663.671	18.03
663.86	17.8
664.048	17.63
664.237	17.43
664.426	17.1
664.615	17.02
664.803	16.94
664.992	16.8
665.181	16.67
665.369	16.57
665.558	16.38
665.747	16.23
665.935	16.16
666.124	16.09
666.312	16.07
666.501	16.06
666.69	15.99
666.878	15.89
667.067	15.73
667.255	15.74
667.444	15.83
667.632	15.88
667.82	15.86
668.009	15.84
668.197	15.72
668.386	15.44
668.574	15.35
668.762	15.28
668.951	15.16
669.139	15.13
669.327	15.04
669.516	15.06
669.704	15.02
669.892	15.16
670.08	15.16
670.269	15.15
670.457	15.05
670.645	14.82
670.833	14.81
671.021	14.73
671.21	14.8
671.398	14.97
671.586	15.06
671.774	14.97
671.962	14.98
672.15	14.93
672.338	14.71
672.526	14.69
672.714	14.49
672.902	14.41
673.09	14.6
673.278	14.76
673.466	14.88
673.654	15.12
673.842	15.18
674.03	15.13
674.218	14.98
674.405	14.95
674.593	14.98
674.781	15.04
674.969	15.02
675.157	15.15
675.344	15.46
675.532	15.49
675.72	15.63
675.908	15.76
676.095	15.71
676.283	15.58
676.471	15.74
676.658	15.72
676.846	15.68
677.033	15.87
677.221	15.94
677.409	15.89
677.596	15.99
677.784	16.07
677.971	16.08
678.159	16.22
678.346	16.27
678.534	16.45
678.721	16.75
678.909	16.77
679.096	16.8
679.283	16.95
679.471	16.92
679.658	16.87
679.846	17.19
680.033	17.37
680.22	17.56
680.408	17.75
680.595	17.83
680.782	17.82
680.969	17.87
681.157	17.98
681.344	18
681.531	18.16
681.718	18.32
681.905	18.62
682.093	18.8
682.28	18.99
682.467	19.32
682.654	19.57
682.841	19.67
683.028	19.91
683.215	20.28
683.402	20.2
683.589	20.36
683.776	20.71
683.963	20.98
684.15	21.26
684.337	21.63
684.524	21.94
684.711	22.2
684.898	22.25
685.085	22.48
685.271	22.95
685.458	23.07
685.645	23.19
685.832	23.75
686.019	24.15
686.205	24.4
686.392	24.99
686.579	25.58
686.766	25.98
686.952	26.27
687.139	26.78
687.326	27.07
687.512	27.42
687.699	27.8
687.886	28.28
688.072	28.71
688.259	29.35
688.445	29.88
688.632	30.23
688.818	30.82
689.005	31.36
689.191	31.68
689.378	32.24
689.564	32.93
689.751	33.33
689.937	33.86
690.124	34.56
690.31	34.88
690.496	35.52
690.683	36.06
690.869	36.53
691.055	37
691.242	37.81
691.428	38.29
691.614	38.89
691.8	39.7
691.987	40.25
692.173	40.99
692.359	41.47
692.545	42.14
692.731	42.54
692.918	43.38
693.104	43.72
693.29	44.45
693.476	45.07
693.662	45.86
693.848	46.41
694.034	46.95
694.22	47.41
694.406	48.18
694.592	48.64
694.778	49.31
694.964	50.18
695.15	50.94
695.336	51.26
695.522	52.29
695.708	52.71
695.894	53.34
696.08	54.03
696.265	54.73
696.451	54.9
696.637	55.62
696.823	56.04
697.009	56.27
697.194	56.84
697.38	57.19
697.566	57.75
697.751	58.23
697.937	59.24
698.123	59.99
698.308	60.69
698.494	61.12
698.68	61.64
698.865	61.87
699.051	62.24
699.236	62.69
699.422	63.2
699.607	63.58
699.793	63.73
699.978	64.01
700.164	64.58
700.349	65.2
700.535	65.53
700.72	66.14
700.906	66.84
701.091	66.92
701.276	66.99
701.462	67.82
701.647	68.7
701.832	68.87
702.018	69.49
702.203	69.87
702.388	69.73
702.573	69.76
702.759	70.44
702.944	70.7
703.129	70.82
703.314	71.46
703.499	71.58
703.684	71.65
703.87	72.41
704.055	73.03
704.24	73.34
704.425	73.98
704.61	74.29
704.795	74.4
704.98	74.56
705.165	74.67
705.35	74.83
705.535	75.03
705.72	74.99
705.905	75.2
706.09	75.47
706.275	75.66
706.459	75.52
706.644	75.64
706.829	76.15
707.014	76.1
707.199	76.19
707.384	76.75
707.568	77.04
707.753	77.18
707.938	77.82
708.123	78.03
708.307	77.79
708.492	78.34
708.677	78.56
708.861	78.38
709.046	78.48
709.231	79.37
709.415	79.53
709.6	79.66
709.784	79.82
709.969	80.05
710.153	79.8
710.338	79.62
710.522	79.55
710.707	79.96
710.891	80.04
711.076	80.09
711.26	80.15
711.445	80.66
711.629	80.6
711.813	80.76
711.998	81.38
712.182	81.39
712.366	81.63
712.551	82.36
712.735	82.73
712.919	82.5
713.103	82.71
713.288	82.28
713.472	81.95
713.656	82.21
713.84	82.28
714.024	82.7
714.208	82.96
714.393	83.44
714.577	83.12
714.761	83.29
714.945	83.16
715.129	83.21
715.313	83.09
715.497	83.28
715.681	83.82
715.865	84.01
716.049	84.23
716.233	83.84
716.417	83.95
716.601	83.32
716.785	83.54
716.968	83.29
717.152	83.49
717.336	83.87
717.52	84.34
717.704	84.18
717.888	84.65
718.071	85.13
718.255	84.76
718.439	84.35
718.622	84.61
718.806	84.67
718.99	84.18
719.174	84.02
719.357	84.09
719.541	83.94
719.724	83.78
719.908	84.94
720.092	86.04
720.275	86.54
720.459	86.08
720.642	86.54
720.826	85.81
721.009	85.18
721.193	84.98
721.376	85.54
721.559	85.51
721.743	85.72
721.926	86.11
722.11	86.72
722.293	86.52
722.476	86.04
722.66	85.96
722.843	85.97
723.026	85.3
723.21	85.73
723.393	86.48
723.576	86.32
723.759	85.56
723.942	85.57
724.126	85.46
724.309	85.18
724.492	85.34
724.675	85.47
724.858	85.52
725.041	85.77
725.224	85.52
725.407	85.61
725.59	86.38
725.774	86.52
725.957	86.06
726.14	86.58
726.322	87.03
726.505	86.56
726.688	87.06
726.871	87.35
727.054	87.05
727.237	86.51
727.42	86.75
727.603	87.07
727.786	87.54
727.968	87.91
728.151	88.04
728.334	88.29
728.517	88.06
728.699	87.9
728.882	87.94
729.065	88.48
729.248	87.83
729.43	88.04
729.613	88.49
729.796	89.1
729.978	88.47
730.161	88.9
730.343	88.17
730.526	88.23
730.708	87.64
730.891	87.65
731.073	87.59
731.256	87.67
731.438	87.56
731.621	88.02
731.803	88.52
731.986	88.94
732.168	88.94
732.35	88.99
732.533	88.78
732.715	88.84
732.898	89.19
733.08	89.24
733.262	89.38
733.444	89.52
733.627	89.62
733.809	89.57
733.991	90
734.173	89.53
734.355	88.47
734.538	89.1
734.72	88.69
734.902	88.74
735.084	89.55
735.266	90.19
735.448	89.92
735.63	89.9
735.812	89.41
735.994	89.33
736.176	89.24
736.358	88.45
736.54	89.11
736.722	89.15
736.904	88.51
737.086	88.63
737.268	89.63
737.45	89.4
737.632	90.16
737.814	89.92
737.995	89.88
738.177	89.2
738.359	88.62
738.541	88.59
738.723	89.28
738.904	90.16
739.086	90.85
739.268	91.16
739.449	91.3
739.631	90.8
739.813	90.43
739.994	89.78
740.176	90.34
740.358	89.95
740.539	90.85
740.721	91.21
740.902	92.23
741.084	91.57
741.265	91.8
741.447	91.48
741.628	90.88
741.81	89.82
741.991	90.57
742.172	90.9
742.354	91.16
742.535	91.56
742.717	91.97
742.898	91.81
743.079	92.09
743.261	91.78
743.442	91.38
743.623	91.94
743.804	91.74
743.986	91.02
744.167	90.18
744.348	89.64
744.529	89.09
744.71	88.35
744.891	88.45
745.073	88.21
745.254	88.23
745.435	87.92
745.616	87.38
745.797	87.4
745.978	87.3
746.159	87.49
746.34	86.48
746.521	88.4
746.702	86.84
746.883	86.77
747.064	87.23
747.245	88.45
747.426	87.57
747.606	88.53
747.787	89.41
747.968	88.66
748.149	88.67
748.33	88.92
748.51	89.34
748.691	89.41
748.872	89.63
749.053	89.85
749.233	88.69
749.414	88.42
749.595	86.91
749.775	86.36
749.956	85.11
750.137	86.02
750.317	85.88
750.498	87.41
750.678	87.92
750.859	89.67
751.04	89.42
751.22	89.29
751.4	89.19
751.581	88.7
751.761	88.77
751.942	89.4
752.122	87.83
752.303	86.94
752.483	87.54
752.663	86.2
752.844	85.11
753.024	88.17
753.204	88.04
753.385	86.8
753.565	87.12
753.745	87.53
753.925	86.72
754.106	86.74
754.286	86.96
754.466	87.4
754.646	87.77
754.826	87.2
755.006	86.96
755.187	87.62
755.367	87.7
755.547	87.89
755.727	88.8
755.907	89.68
756.087	90.4
756.267	90.08
756.447	89.02
756.627	87.24
756.807	87.25
756.987	86.28
757.167	86.67
757.346	86.88
757.526	85.87
757.706	85.56
757.886	87.09
758.066	86.34
758.246	87.83
758.425	89.05
758.605	88.4
758.785	87.49
758.965	87.29
759.144	85.29
759.324	85.43
759.504	86.45
759.683	86.69
759.863	85.21
760.043	83.79
760.222	83.29
760.402	82.44
760.581	82.2
760.761	83.58
760.94	85.02
761.12	87.43
761.299	88.46
761.479	88.7
761.658	87.59
761.838	87.27
762.017	85.26
762.197	85.68
762.376	86.2
762.555	88.5
762.735	89.89
762.914	89.35
763.093	88.44
763.273	85.85
763.452	84.76
763.631	83.79
763.81	84.74
763.99	83.79
764.169	85.43
764.348	83.72
764.527	83.26
764.706	83.43
764.885	84.58
765.064	83.14
765.243	84.88
765.423	85.58
765.602	84.24
765.781	81.89
765.96	80.68
766.139	78.92
766.318	78.32
766.497	77.69
766.676	79.24
766.854	82.1
767.033	82.81
767.212	83.15
767.391	84.65
767.57	85.53
767.749	86.29
767.928	88.56
768.106	87.73
768.285	86.14
768.464	86.43
768.643	84.53
768.821	83.62
769	85.36
769.179	85.97
769.357	84.86
769.536	84.27
769.715	82.92
769.893	82.66
770.072	82.86
770.25	83.5
770.429	83.92
770.607	83.39
770.786	83.15
770.964	84.99
771.143	84.27
771.321	86.42
771.5	89.41
771.678	88.24
771.857	86.26
772.035	85.81
772.213	84.05
772.392	81.11
772.57	81.75
772.748	83.62
772.927	82.88
773.105	82.73
773.283	83.43
773.461	84.08
773.64	82.77
773.818	83.05
773.996	84.15
774.174	83.49
774.352	81.36
774.531	78.1
774.709	80.25
774.887	77.53
775.065	77.11
775.243	78.04
775.421	79.63
775.599	78.78
775.777	77.37
775.955	77.26
776.133	74.79
776.311	75.69
776.489	72.71
776.667	76.22
776.844	76.3
777.022	78.02
777.2	76.26
777.378	77.17
777.556	77.73
777.734	78.64
777.911	81.39
778.089	82.36
778.267	83.53
778.445	82.06
778.622	81.84
778.8	79.55
778.978	80.24
779.155	79.35
779.333	77.97
779.511	77.55
779.688	80.98
779.866	78.09
780.043	77.33
780.221	79.05
780.398	77.3
780.576	75.15
780.753	76.21
780.931	74.98
781.108	73.12
781.286	75.69
781.463	73.41
781.64	72.52
781.818	76.42
781.995	76.57
782.172	74.61
782.35	76.59
782.527	80.03
782.704	78.11
782.882	78.38
783.059	79.78
783.236	79.81
783.413	80.6
783.59	79.14
783.768	77.28
783.945	78.2
784.122	76.97
784.299	75.63
784.476	75.56
784.653	75.51
784.83	72.38
785.007	68.78
785.184	69.97
785.361	69.98
785.538	74.04
785.715	77.61
785.892	80.76
786.069	81.09
786.246	81.9
786.423	80.08
786.6	79.25
786.776	80.97
786.953	78.75
787.13	81.15
787.307	81.39
787.484	80.17
787.66	77.91
787.837	79.42
788.014	75.02
788.191	71.93
788.367	70.09
788.544	72.6
788.721	72.81
788.897	76.64
789.074	80.31
789.25	77.77
789.427	74.6
789.603	69.9
789.78	67.16
789.956	64.16
790.133	68.64
790.309	73.09
790.486	76.43
790.662	75.78
790.839	78.63
791.015	75.44
791.192	70.23
791.368	70.43
791.544	71.89
791.721	75.51
791.897	75.6
792.073	73.68
792.249	69.5
792.426	70.17
792.602	66.19
792.778	69.71
792.954	71.23
793.13	74.37
793.307	70.91
793.483	66.11
793.659	65.42
793.835	68.93
794.011	64.89
794.187	65.93
794.363	69.37
794.539	72.15
794.715	68.54
794.891	67.72
795.067	67.71
795.243	67.37
795.419	59.16
795.595	58.82
795.771	60.14
795.947	62.53
796.122	61.22
796.298	69.17
796.474	71.23
796.65	72.54
796.826	69.09
797.001	67.43
797.177	62.95
797.353	65.75
797.529	69.27
797.704	67.09
797.88	69.34
798.056	66.85
798.231	60.94
798.407	63.2
798.582	66.57
798.758	74.53
798.934	80.02
799.109	81.1
799.285	74.45
799.46	76.1
799.636	65.47
799.811	62.1
799.986	62.47
800.162	64.48
800.337	66.07
800.513	64.58
800.688	63.04
800.863	71.23
801.039	61.76
801.214	62.17
801.389	65.01
801.565	62.19
801.74	48.05
801.915	58.17
802.09	49.38
802.265	50.09
802.441	51.52
802.616	56.13
802.791	57.74
802.966	64.32
803.141	63.69
803.316	64.28
803.491	69.61
803.666	66.87
803.841	62.65
804.016	64.1
804.191	66.66
804.366	58.2
804.541	56.52
804.716	57.49
804.891	54.08
805.066	54.05
805.241	50.95
805.416	53.35
805.591	49.76
805.765	55.45
805.94	54.62
806.115	59.76
806.29	53.73
806.464	58.68
806.639	55.19
806.814	48.5
806.989	41.68
807.163	53.29
807.338	51.46
807.512	49.8
807.687	42.81
807.862	59.62
808.036	59.66
808.211	59.16
808.385	59.85
808.56	78.02
808.734	77.04
808.909	66.79
809.083	61.68
809.258	66.84
809.432	58.59
809.606	41.57
809.781	42.98
809.955	55.51
810.13	57.49
810.304	52.58
810.478	54.61
810.652	59.22
810.827	58.06
811.001	45.21
811.175	48.7
811.349	50.19
811.524	45.81
811.698	27.91
811.872	38.7
812.046	43.39
812.22	49.59
812.394	51.88
812.568	59.97
812.742	60.18
812.916	55.64
813.09	53.38
813.264	48.8
813.438	54.74
813.612	50.99
813.786	51.02
813.96	55.71
814.134	61.29
814.308	64.15
814.482	59.24
814.656	58.63
814.83	57.09
815.003	49.08
815.177	44.51
815.351	46.79
815.525	50.49
815.698	46.64
815.872	45.23
816.046	39.9
816.219	47.71
816.393	51.76
816.567	52.74
816.74	63.36
816.914	66.06
817.088	61.47
817.261	59.57
817.435	44.93
817.608	41.03
817.782	33.27
817.955	42.29
818.129	30.49
818.302	46.93
818.475	54.43
818.649	64.35
818.822	52.31
818.996	68.86
819.169	66.12
819.342	56.38
819.516	60.97
819.689	71.74
819.862	59.96
820.035	51.54
820.209	54.9
820.382	50.32
820.555	47.53
820.728	37.69
820.901	38.9
821.075	33.12
821.248	31.82
821.421	27.93
821.594	37.34
821.767	60.71
821.94	72.51
822.113	53.39
822.286	39.84
822.459	43.71
822.632	18.5
822.805	4.58
822.978	12.69
823.151	25.94
823.324	21.68
823.496	18.04
823.669	14.21
823.842	15.56
824.015	-10.76
824.188	-18.13
824.361	-18.83
824.533	-17.27
824.706	-8.44
824.879	13.92
825.051	15.88
825.224	19.62
825.397	6.49
825.569	3.66
825.742	21.38
825.915	34.13
826.087	52.17
826.26	50.3
826.432	57.05
826.605	53.11
826.777	49.37
826.95	44.34
827.122	38.96
827.295	31
827.467	24.19
827.64	7.76
827.812	-2.32
827.984	12.71
828.157	9.55
828.329	-14.75
828.501	-9.79
828.674	17.11
828.846	19.39
829.018	28.51
829.19	11.25
829.363	33.57
829.535	34.15
829.707	29.78
829.879	15.81
830.051	22.67
830.223	3.12
830.395	-29.74
830.568	-35.06
830.74	-37.36
830.912	-6.58
831.084	-16.28
831.256	-13.7
831.428	-15.03
831.6	-21.45
831.772	-53.68
831.943	-54.03
832.115	-29.63
832.287	-12.99
832.459	-1.42
832.631	13.91
832.803	34.1
832.975	46.74
833.146	38.05
833.318	41.59
833.49	44.47
833.662	15.65
833.833	-4.71
834.005	1.01
834.177	3.51
834.348	20.25
834.52	16.14
834.692	25.89
834.863	39.98
835.035	33.73
835.206	-33.89
835.378	-19.35
835.549	0.88
835.721	-0.84
835.892	-6.22
836.064	28.02
836.235	34.61
836.407	25.62
836.578	7.06
836.749	-16.16
836.921	-58.38
837.092	-66.29
837.264	-48.15
837.435	-43.46
837.606	5.42
837.777	18.01
837.949	31.5
838.12	24.82
838.291	37.29
838.462	23.6
838.633	9.11
838.805	8.06
838.976	13.49
839.147	-55.47
839.318	-67.37
839.489	-99.29
839.66	-94.02
839.831	-53.58
840.002	-25.89
840.173	-31.29
840.344	7.3
840.515	31.9
840.686	-38.13
840.857	-34.51
841.028	-14.24
841.199	8.54
841.369	-7.54
841.54	5.97
841.711	31.55
841.882	47.57
842.053	19.68
842.223	4.11
842.394	-5.53
842.565	-16.94
842.736	-14.03
842.906	-12.03
843.077	-4.68
843.248	17.88
843.418	-1.55
843.589	-8.25
843.759	36.91
843.93	29.06
844.101	3.63
844.271	29.54
844.442	24.42
844.612	38.29
844.783	21.08
844.953	-7.41
845.123	-29.49
845.294	-29.62
845.464	-287.99
845.635	-202.23
845.805	-82.31
845.975	-33.74
846.146	-42.13
846.316	-11.22
846.486	18.73
846.656	18.49
846.827	21.21
846.997	17.92
847.167	34.86
847.337	16.24
847.507	-0.47
847.677	-2.67
847.848	38.39
848.018	28.95
848.188	26.45
848.358	15.94
848.528	-14.48
848.698	-54.87
848.868	-134.31
849.038	-216.54
849.208	-79.8
849.378	-4.08
849.548	-14.11
849.718	-11.55
849.887	12.06
850.057	-2.41
850.227	-51
850.397	-77.45
850.567	-189.54
850.737	-406.41
850.906	-1067.19
851.076	-866.21
851.246	-472.12
851.415	-36.01
851.585	-63.36
851.755	-93.58
851.924	-54.22
852.094	-89.6
852.264	-272.51
852.433	-1374.76
852.603	-311.57
852.772	-323.12
852.942	-137.86
853.111	-104.86
853.281	-48.68
853.45	-10.77
853.62	-56.02
853.789	-38.3
853.959	-12.36
854.128	-51.07
854.297	-88.41
854.467	-97.63
854.636	-152.8
854.805	-78.08
854.975	-110.99
855.144	-238.84
855.313	-431.29
855.482	-555.29
855.652	-236.18
855.821	-111.26
855.99	14.3
856.159	36.14
856.328	43.36
856.497	33.9
856.667	14.29
856.836	13.16
857.005	-16.13
857.174	-41.49
857.343	-93.37
857.512	-93.28
857.681	-122.47
857.85	-169.39
858.019	-122.79
858.188	-92.01
858.356	-95.42
858.525	-158.34
858.694	-149.67
858.863	-272.81
859.032	-156.53
859.201	-161.75
859.369	-111.42
859.538	-28.46
859.707	-2.12
859.876	25
860.044	-23.14
860.213	31.07
860.382	-1.21
860.55	2.86
860.719	8.59
860.888	23.28
861.056	-24.3
861.225	-13.36
861.393	23.94
861.562	-20.99
861.73	-118.12
861.899	-473.69
862.067	-3326.72
862.236	-261.32
862.404	-394.74
862.572	-167.75
862.741	-0.93
862.909	-9.46
863.078	-52.7
863.246	-34.53
863.414	-48.08
863.582	-17.25
863.751	-40.4
863.919	-46.56
864.087	6.87
864.255	-25.08
864.424	-419.02
864.592	-83.87
864.76	-157.59
864.928	-788.6
865.096	-299.6
865.264	-220.42
865.432	-2056.25
865.6	-179.38
865.768	-81.54
865.936	-71.27
866.104	-45.16
866.272	-141.17
866.44	-394
866.608	644.97
866.776	342.98
866.944	3108.72
867.112	-457.1
867.28	-203.26
867.448	-95.54
867.615	-25.85
867.783	-11.86
867.951	-22.01
868.119	37.38
868.286	41
868.454	-40.53
868.622	-76.31
868.789	-66.07
868.957	-1769.64
869.125	-1465.13
869.292	-96.25
869.46	-210.55
869.627	-60.51
869.795	-54.5
869.963	-45.51
870.13	-34.02
870.298	2.53
870.465	-69.63
870.632	-79.16
870.8	-56.92
870.967	-118.97
871.135	-177.05
871.302	-149.53
871.469	-208.79
871.637	-330.52
871.804	-157.93
871.971	-209.04
872.139	-630.12
872.306	-115.75
872.473	-92.51
872.64	-438.52
872.807	-169.07
872.975	-52.4
873.142	-308.27
873.309	2518.24
873.476	-16
873.643	-19.32
873.81	-32.25
873.977	6.77
874.144	11.52
874.311	-194.53
874.478	-188.43
874.645	-221.93
874.812	-205.71
874.979	-128.45
875.146	-126.88
875.313	-131.85
875.48	-28.28
875.647	-23.85
875.813	-70.53
875.98	-31.06
876.147	-62.31
876.314	-141.1
876.481	1184.09
876.647	-1448.03
876.814	700.39
876.981	-299.52
877.147	-144.88
877.314	-33.85
877.481	-15.76
877.647	11.53
877.814	6.95
877.98	-21.54
878.147	-32.93
878.314	3.94
878.48	-52.33
878.647	-39.07
878.813	3.91
878.979	8.81
879.146	-23.55
879.312	-21.95
879.479	-84.01
879.645	-160.59
879.811	-317.59
879.978	-814.31
880.144	-223.81
880.31	-88.26
880.477	-264.06
880.643	-298.5
880.809	-153.22
880.975	-127.75
881.142	-855.23
881.308	-114.01
881.474	-41.41
881.64	-19.56
881.806	-75.58
881.972	-28.32
882.138	-12.72
882.304	-53.24
882.47	-126.99
882.636	-412.09
882.802	-110.43
882.968	-45.46
883.134	-35.67
883.3	-51.77
883.466	-20.15
883.632	2.34
883.798	-32.05
883.964	-64.04
884.129	-49.15
884.295	-25.75
884.461	-68.35
884.627	-62.13
884.793	-57.42
884.958	-59.86
885.124	-167.58
885.29	-306.51
885.455	-615.41
885.621	-276.58
885.787	-325.9
885.952	-141.4
886.118	-88.56
886.283	-69.58
886.449	-146.74
886.614	-127.81
886.78	-302.98
886.945	1625.82
887.111	-670.38
887.276	-437.36
887.442	-729.77
887.607	-286.67
887.773	-160.11
887.938	-184.53
888.103	-164.01
888.269	-55.65
888.434	-120.95
888.599	-57.29
888.764	-0.34
888.93	-9.81
889.095	-46.27
889.26	-94.08
889.425	-47.72
889.59	-26.05
889.756	-75.31
889.921	-25.76
890.086	19.29
890.251	-27.63
890.416	-178.89
890.581	-1618.95
890.746	324.2
890.911	570.54
891.076	197.13
891.241	-305.78
891.406	8.02
891.571	-33.12
891.736	-270.53
891.901	-373.23
892.065	849.18
892.23	133.74
892.395	232.24
892.56	318.71
892.725	-594.34
892.889	-1240.85
893.054	-255.13
893.219	-85.11
893.384	-19.78
893.548	-61.2
893.713	-92.37
893.878	-57.36
