Data from Ofra_2a_PS_8CX24_Reflection_3.txt Node
Date: Tue Jul 20 09:55:11 EDT 2021
User: Adam
Spectrometer: FLMT01687
Trigger mode: 0
Integration Time (sec): 9.450000E-1
Scans to average: 3
Electric dark correction enabled: true
Nonlinearity correction enabled: false
Boxcar width: 3
XAxis mode: Wavelengths
Number of Pixels in Spectrum: 3648
>>>>>Begin Spectral Data<<<<<
179.494	858.58
179.716	475.7
179.937	519.78
180.158	1910.94
180.38	-797.67
180.601	-144.61
180.823	-16.99
181.044	-7.97
181.265	-178.95
181.486	-48.83
181.708	-830.43
181.929	18.6
182.15	-25
182.372	27.8
182.593	-15.75
182.814	327.54
183.035	242.15
183.257	34.01
183.478	4.92
183.699	14.05
183.92	20.52
184.141	22.41
184.363	13.39
184.584	14.17
184.805	29.21
185.026	17.05
185.247	15.12
185.468	4.71
185.689	14.72
185.91	22.45
186.132	26.61
186.353	15.8
186.574	20.74
186.795	-0.2
187.016	16.48
187.237	12.71
187.458	-4.5
187.679	-15.66
187.9	-7.92
188.121	-0.13
188.342	31.77
188.563	25.89
188.784	18.42
189.005	35.38
189.226	28.5
189.447	21.7
189.667	25.48
189.888	30.8
190.109	26.11
190.33	15.98
190.551	10.23
190.772	8.65
190.993	23.61
191.214	13.94
191.434	17.6
191.655	25.89
191.876	32.88
192.097	36.56
192.318	42.58
192.538	34.54
192.759	40.5
192.98	26.6
193.201	30.93
193.421	35
193.642	19.4
193.863	4.02
194.083	-1.97
194.304	-11.17
194.525	10.69
194.745	-17.62
194.966	-5.21
195.187	14.23
195.407	20.29
195.628	25.81
195.848	32.9
196.069	26.4
196.29	33.15
196.51	22.28
196.731	36.38
196.951	25.4
197.172	9.67
197.392	13.94
197.613	12.23
197.833	10.58
198.054	12.55
198.274	-30.89
198.495	-31.07
198.715	-32.44
198.936	-62.65
199.156	-29.43
199.377	-20.12
199.597	-28.34
199.817	1.37
200.038	22.57
200.258	37.64
200.479	51.19
200.699	31.89
200.919	10.25
201.14	13.71
201.36	22.5
201.58	12.55
201.801	13.92
202.021	14.94
202.241	22.46
202.461	34
202.682	51.78
202.902	43.43
203.122	32.83
203.342	25.14
203.563	29.27
203.783	23.05
204.003	27.75
204.223	26.94
204.443	30.92
204.663	43.48
204.884	53.59
205.104	51.78
205.324	67.48
205.544	63.28
205.764	56.43
205.984	48.13
206.204	31.62
206.424	23.89
206.644	23.43
206.864	18.78
207.084	43.49
207.304	33.98
207.525	26.88
207.745	30.7
207.964	28.8
208.184	14.06
208.404	17.96
208.624	-31.43
208.844	-31.12
209.064	-10.94
209.284	-5.61
209.504	-5.29
209.724	-27.74
209.944	-41.85
210.164	-2.13
210.384	31.32
210.604	22.35
210.823	11.4
211.043	8.58
211.263	33.75
211.483	37.29
211.703	25.78
211.922	20.75
212.142	23.42
212.362	22.18
212.582	30.03
212.801	28.33
213.021	29.64
213.241	28.3
213.461	15.64
213.68	11.17
213.9	31.46
214.12	22.03
214.339	21.28
214.559	31.38
214.779	36.58
214.998	34.57
215.218	44.99
215.438	39.66
215.657	41.18
215.877	44.31
216.096	39.72
216.316	33.16
216.535	39.42
216.755	22.85
216.974	30.78
217.194	38.59
217.413	45.54
217.633	36.2
217.852	42.63
218.072	20.92
218.291	49.43
218.511	32.65
218.73	27.96
218.95	16.39
219.169	21.75
219.389	19.2
219.608	36.2
219.827	17.92
220.047	41.6
220.266	43.01
220.485	38.69
220.705	17.04
220.924	20.55
221.143	8.13
221.363	6.63
221.582	-8.18
221.801	-0.68
222.021	5.57
222.24	15.21
222.459	0.58
222.678	-2.41
222.897	-8.36
223.117	0.04
223.336	-7.04
223.555	-8.16
223.774	5.29
223.993	30.98
224.213	35.35
224.432	55.02
224.651	62.3
224.87	58.28
225.089	60.44
225.308	59.76
225.527	40.74
225.746	31.24
225.965	8.04
226.184	4.88
226.404	-13.67
226.623	-9.38
226.842	-22.2
227.061	-9.03
227.28	15.28
227.499	29.62
227.718	24.31
227.936	24.58
228.155	20.31
228.374	25.09
228.593	30.75
228.812	11.26
229.031	0.85
229.25	22.76
229.469	41.68
229.688	43.84
229.907	39.84
230.125	28.8
230.344	39.97
230.563	59.42
230.782	39.74
231.001	33.74
231.22	31.88
231.438	41.33
231.657	45.73
231.876	42.51
232.095	29.37
232.313	35.69
232.532	30.42
232.751	34.18
232.969	31.59
233.188	29.9
233.407	29.54
233.625	26.76
233.844	28.09
234.063	28.81
234.281	26.02
234.5	22.27
234.719	19.73
234.937	20.73
235.156	14.83
235.374	5.04
235.593	7.89
235.811	-0.44
236.03	-9.39
236.249	2.02
236.467	4.84
236.686	24.28
236.904	25.13
237.123	13.7
237.341	19.12
237.559	19.39
237.778	22.51
237.996	25.37
238.215	20.9
238.433	32.73
238.652	36.99
238.87	29.99
239.088	23.79
239.307	16.03
239.525	2.18
239.743	-10.7
239.962	-23.43
240.18	-13.44
240.398	-7.09
240.617	2.3
240.835	8.4
241.053	26.81
241.271	36.25
241.49	35.72
241.708	24.43
241.926	16.99
242.144	15.86
242.363	7.41
242.581	15.66
242.799	6.9
243.017	6.72
243.235	6.51
243.453	19
243.672	22.44
243.89	29.86
244.108	26.26
244.326	30.85
244.544	31.84
244.762	27.87
244.98	30.3
245.198	23.42
245.416	23.01
245.634	16.67
245.852	26.21
246.07	20.29
246.288	20.09
246.506	5.76
246.724	22.6
246.942	27.27
247.16	18.55
247.378	0.52
247.596	9.32
247.814	1.14
248.032	1.59
248.25	-7.68
248.468	-12.5
248.685	-5.37
248.903	-5.35
249.121	-2.97
249.339	7.12
249.557	18.12
249.775	2.01
249.992	-2.08
250.21	-7.19
250.428	-3.64
250.646	-3.63
250.863	-3.65
251.081	-17.14
251.299	9.92
251.517	14.6
251.734	19.73
251.952	31.33
252.17	13.8
252.387	21.4
252.605	31.03
252.823	13.14
253.04	11
253.258	8.61
253.475	2.12
253.693	16.53
253.911	12.64
254.128	11.11
254.346	12.01
254.563	7.72
254.781	11.17
254.998	14.95
255.216	18.87
255.433	14.27
255.651	7.8
255.868	14.4
256.086	21.01
256.303	18.09
256.521	3.32
256.738	-1.3
256.956	-0.89
257.173	6.98
257.39	16.09
257.608	12.37
257.825	1.55
258.043	9.39
258.26	3.66
258.477	6.27
258.695	8.26
258.912	11.7
259.129	4.71
259.346	21.47
259.564	24.08
259.781	38.34
259.998	42.06
260.216	38.02
260.433	25.17
260.65	38.22
260.867	24.5
261.084	20.49
261.302	3.18
261.519	-17.51
261.736	-22.62
261.953	-12.57
262.17	-0.44
262.387	-4.91
262.604	-15.33
262.822	3.67
263.039	5.41
263.256	10.98
263.473	-4.37
263.69	-13.84
263.907	-1.74
264.124	9.14
264.341	1.89
264.558	9.28
264.775	10.64
264.992	16.02
265.209	20.6
265.426	17.76
265.643	24.49
265.86	20
266.077	23.22
266.294	22.23
266.51	20.44
266.727	5.66
266.944	8.57
267.161	-9.95
267.378	-11.8
267.595	-23
267.812	-36.19
268.028	-12.87
268.245	1.24
268.462	5.31
268.679	-1.68
268.896	3.48
269.112	24.7
269.329	41.01
269.546	33.69
269.763	40.37
269.979	33.03
270.196	41.05
270.413	43.46
270.629	33.41
270.846	26.4
271.063	23.53
271.279	8.28
271.496	-0.13
271.712	-2.07
271.929	2.07
272.146	4.22
272.362	-14.07
272.579	-18.47
272.795	-15.64
273.012	5.11
273.228	0.45
273.445	4.12
273.661	6.96
273.878	20.37
274.094	27.39
274.311	26.26
274.527	22.75
274.744	25.19
274.96	15.46
275.177	15.92
275.393	15.37
275.609	15
275.826	15.14
276.042	13.39
276.259	19.9
276.475	12.5
276.691	14.78
276.908	15.89
277.124	15.84
277.34	14.99
277.557	16.45
277.773	16.53
277.989	21.29
278.205	14.58
278.422	15.36
278.638	17.99
278.854	27.26
279.07	13.89
279.286	15.76
279.503	21.14
279.719	35.74
279.935	30.31
280.151	30.46
280.367	23.28
280.583	36.06
280.799	34.58
281.016	38.05
281.232	30.04
281.448	32.19
281.664	30.73
281.88	44.19
282.096	41.12
282.312	40.52
282.528	27.98
282.744	23.65
282.96	18.14
283.176	19.71
283.392	18.17
283.608	22.71
283.824	18.03
284.04	23.2
284.256	27.62
284.471	41.17
284.687	34.63
284.903	23.93
285.119	3.52
285.335	-5.61
285.551	-3.98
285.767	-0.8
285.982	-15.3
286.198	-14.03
286.414	7.85
286.63	28.18
286.846	35.86
287.061	39.05
287.277	34.26
287.493	40.89
287.709	40.22
287.924	39.81
288.14	38.08
288.356	49.29
288.571	37.39
288.787	39.81
289.003	45.22
289.218	45.81
289.434	37.07
289.65	36.87
289.865	37.18
290.081	41.86
290.296	33.23
290.512	33.54
290.727	37.42
290.943	34.38
291.159	27.91
291.374	24.8
291.59	18.31
291.805	22.59
292.021	10.01
292.236	10.29
292.451	20.44
292.667	20.19
292.882	12.03
293.098	14.7
293.313	11.28
293.529	7.35
293.744	1.05
293.959	-2.88
294.175	-10.31
294.39	-7.16
294.605	-1.19
294.821	1.33
295.036	24.22
295.251	32.89
295.467	23.29
295.682	37.4
295.897	32.57
296.112	44.55
296.328	42.45
296.543	22.54
296.758	27.02
296.973	39.85
297.188	30.35
297.404	39.39
297.619	29.53
297.834	34.23
298.049	39.89
298.264	29.03
298.479	13.41
298.694	21.59
298.909	15.93
299.125	18.69
299.34	7.6
299.555	8.58
299.77	4.49
299.985	4.26
300.2	-0.24
300.415	2.3
300.63	-5.4
300.845	-2
301.06	1.63
301.275	12.16
301.49	22.09
301.704	17.51
301.919	12.46
302.134	8.59
302.349	9.1
302.564	2.63
302.779	-9.57
302.994	-12.95
303.209	-13.77
303.423	2.13
303.638	2.01
303.853	2.62
304.068	8.58
304.283	10.91
304.497	14.65
304.712	23.02
304.927	17.14
305.142	21.66
305.356	28.19
305.571	31.73
305.786	34.82
306	41.25
306.215	40.82
306.43	43.4
306.644	38.78
306.859	35.07
307.074	31.63
307.288	33.91
307.503	25.42
307.717	23.39
307.932	23.82
308.147	29
308.361	29.06
308.576	24.64
308.79	20.9
309.005	24.85
309.219	24.81
309.434	21.94
309.648	12.09
309.863	16.7
310.077	15.35
310.292	7.9
310.506	14.65
310.72	19.43
310.935	16.45
311.149	27.57
311.364	30.5
311.578	22.8
311.792	29.21
312.007	14.54
312.221	9.83
312.435	8.65
312.649	5.93
312.864	-11.15
313.078	12.99
313.292	18.66
313.507	30.74
313.721	41.99
313.935	51.05
314.149	37.02
314.363	43.83
314.578	62.61
314.792	55.5
315.006	53.05
315.22	53.74
315.434	47.29
315.648	52.56
315.862	46.43
316.077	33.15
316.291	37.43
316.505	43.95
316.719	20.46
316.933	19.71
317.147	13.89
317.361	12.31
317.575	10.36
317.789	3.78
318.003	2.27
318.217	21.01
318.431	33.36
318.645	35.15
318.859	29.16
319.073	19.49
319.287	32.73
319.5	34.68
319.714	28.75
319.928	29.45
320.142	33.34
320.356	45.54
320.57	49.49
320.784	41.62
320.997	44.05
321.211	49.24
321.425	31.84
321.639	24.98
321.853	18.38
322.066	15.83
322.28	7.67
322.494	-4.99
322.707	-9.64
322.921	-1.41
323.135	3.51
323.349	3.13
323.562	5.27
323.776	7.08
323.989	15.28
324.203	22.42
324.417	12.37
324.63	3
324.844	0.03
325.057	6.76
325.271	5.73
325.485	2.03
325.698	-3.19
325.912	15.55
326.125	27.16
326.339	33.19
326.552	33.91
326.766	43.39
326.979	46.8
327.193	41.01
327.406	37.3
327.619	20.71
327.833	8.72
328.046	1.29
328.26	-10.47
328.473	-12.55
328.686	-5.51
328.9	-12.88
329.113	-5.88
329.326	6.12
329.54	4.78
329.753	5.77
329.966	10.45
330.179	25.88
330.393	27.76
330.606	32.69
330.819	28.71
331.032	37.28
331.246	36.36
331.459	32.99
331.672	24.83
331.885	21.74
332.098	18.9
332.311	3.13
332.525	3.68
332.738	6.06
332.951	9.74
333.164	2.96
333.377	-6.25
333.59	-1.96
333.803	15.03
334.016	5.73
334.229	18.39
334.442	18.35
334.655	22.51
334.868	34.41
335.081	36.93
335.294	31.19
335.507	39.04
335.72	19.78
335.933	23.06
336.146	26
336.359	22.17
336.572	23.91
336.785	29.71
336.997	19.12
337.21	25.39
337.423	17.82
337.636	10.65
337.849	8.37
338.062	9.55
338.274	3.02
338.487	5.25
338.7	4.99
338.913	0.73
339.125	2.63
339.338	11.97
339.551	17.7
339.763	21.49
339.976	25.85
340.189	33.17
340.402	37.94
340.614	41.19
340.827	26.61
341.039	13.92
341.252	12.58
341.465	5.74
341.677	-0.9
341.89	-4.26
342.102	-0.19
342.315	16.57
342.527	13.14
342.74	10.4
342.952	20.89
343.165	30.57
343.377	27.54
343.59	26.32
343.802	25.8
344.015	30.37
344.227	28.7
344.44	20.48
344.652	17.39
344.864	16.47
345.077	15.7
345.289	13.35
345.502	10.37
345.714	10.01
345.926	13.4
346.139	9.28
346.351	12.48
346.563	21.19
346.775	7.73
346.988	4.72
347.2	9.9
347.412	6.81
347.624	8.15
347.837	7.07
348.049	-2.69
348.261	4.59
348.473	8.74
348.685	13.86
348.897	17.72
349.11	21.16
349.322	27.44
349.534	23.46
349.746	29.64
349.958	25.17
350.17	19.63
350.382	18.91
350.594	21.43
350.806	21.49
351.018	28.22
351.23	28.51
351.442	27.81
351.654	32.48
351.866	36.59
352.078	31.17
352.29	33.06
352.502	32.39
352.714	34.38
352.926	38.48
353.138	28.89
353.35	20.96
353.561	16.76
353.773	13.58
353.985	21.38
354.197	13.74
354.409	20.13
354.621	26.66
354.832	20.16
355.044	29.97
355.256	30.5
355.468	24.18
355.679	19.58
355.891	13.14
356.103	4.3
356.314	17.72
356.526	10.04
356.738	2.19
356.949	-2.58
357.161	4.97
357.373	12.73
357.584	22.58
357.796	13.28
358.008	17.85
358.219	36.87
358.431	38.8
358.642	34.29
358.854	21.61
359.065	13.65
359.277	14.06
359.488	9.16
359.7	-2
359.911	-0.53
360.123	9.07
360.334	7.42
360.546	9.16
360.757	15.61
360.969	24.12
361.18	24.68
361.391	22.56
361.603	20.34
361.814	26.74
362.025	26.5
362.237	25.1
362.448	18.94
362.659	13.3
362.871	18.31
363.082	21.56
363.293	21.28
363.504	20.59
363.716	21.05
363.927	17.83
364.138	19.17
364.349	19.32
364.56	13.35
364.772	15.28
364.983	10.7
365.194	9.89
365.405	9.46
365.616	6.91
365.827	1.08
366.038	15.88
366.25	11.62
366.461	17.43
366.672	10.47
366.883	14.48
367.094	8.34
367.305	10.31
367.516	-1.13
367.727	-0.04
367.938	0.72
368.149	4.99
368.36	11.19
368.571	16.96
368.781	16.69
368.992	14.53
369.203	16.02
369.414	12.77
369.625	11.52
369.836	9.6
370.047	10.86
370.258	4.05
370.468	0.35
370.679	3.56
370.89	8.71
371.101	7.05
371.312	-2.5
371.522	6.22
371.733	6.32
371.944	13.79
372.155	-0.04
372.365	-0.24
372.576	1.52
372.787	5.04
372.997	-3.82
373.208	6.28
373.419	-1.07
373.629	11.94
373.84	8.23
374.05	13.74
374.261	13.88
374.472	13.82
374.682	4.85
374.893	6.01
375.103	7.55
375.314	10.25
375.524	7.22
375.735	13.21
375.945	13.45
376.156	14.59
376.366	19.3
376.577	16.5
376.787	17.56
376.997	16.25
377.208	6.75
377.418	11.78
377.629	15.27
377.839	17.39
378.049	17.16
378.26	16.19
378.47	20.07
378.68	26.1
378.89	20.07
379.101	10.48
379.311	-2.28
379.521	-1.09
379.732	-13.09
379.942	-19.23
380.152	-24
380.362	-17.66
380.572	-8.83
380.783	1.13
380.993	1.88
381.203	15.18
381.413	23.94
381.623	27.68
381.833	20.73
382.043	19.55
382.253	18.11
382.463	15.9
382.674	9.68
382.884	-1.32
383.094	-2.31
383.304	2.18
383.514	5.34
383.724	4.32
383.934	3.72
384.144	7.38
384.353	10.58
384.563	6.5
384.773	4.99
384.983	5.26
385.193	9.06
385.403	10.78
385.613	6.55
385.823	7.14
386.033	9.21
386.242	10.09
386.452	7.08
386.662	4.49
386.872	1.9
387.082	1.79
387.291	0.77
387.501	5.66
387.711	5.36
387.921	5.25
388.13	3.89
388.34	3.26
388.55	6.37
388.759	5.2
388.969	0.81
389.179	3.56
389.388	4.74
389.598	4.17
389.807	3.47
390.017	2.08
390.227	3.32
390.436	3.62
390.646	2.63
390.855	1.27
391.065	1.32
391.274	1.21
391.484	2.39
391.693	2.15
391.903	2.58
392.112	2.17
392.322	4.04
392.531	4.41
392.74	4.03
392.95	4.5
393.159	4.48
393.369	4.56
393.578	5.11
393.787	4.45
393.997	4.43
394.206	5.16
394.415	3.87
394.625	2.3
394.834	1.16
395.043	0.86
395.252	1.16
395.462	1.03
395.671	1.15
395.88	1.52
396.089	2.94
396.298	3.28
396.508	3.01
396.717	2.28
396.926	2.25
397.135	1.72
397.344	1.82
397.553	1.89
397.762	2.05
397.971	2.29
398.181	2.14
398.39	2.02
398.599	2.46
398.808	2.54
399.017	2.55
399.226	2.63
399.435	2.32
399.644	2.47
399.853	2.58
400.062	2.51
400.27	2.33
400.479	2.24
400.688	2.25
400.897	2.31
401.106	2.48
401.315	2.21
401.524	2.29
401.733	2.69
401.941	2.48
402.15	2.3
402.359	2.52
402.568	2.41
402.777	2.6
402.985	2.49
403.194	2.2
403.403	2.13
403.612	2.14
403.82	2.06
404.029	2.03
404.238	2.06
404.446	1.92
404.655	1.84
404.864	1.8
405.072	1.85
405.281	1.71
405.489	1.78
405.698	1.73
405.906	1.85
406.115	1.9
406.324	1.89
406.532	1.93
406.741	1.99
406.949	1.94
407.158	1.95
407.366	1.94
407.574	2
407.783	1.98
407.991	1.86
408.2	1.83
408.408	1.79
408.617	1.77
408.825	1.71
409.033	1.6
409.242	1.62
409.45	1.68
409.658	1.61
409.867	1.6
410.075	1.53
410.283	1.51
410.491	1.43
410.7	1.47
410.908	1.49
411.116	1.48
411.324	1.44
411.533	1.38
411.741	1.38
411.949	1.45
412.157	1.48
412.365	1.44
412.573	1.52
412.781	1.6
412.99	1.74
413.198	1.78
413.406	1.72
413.614	1.71
413.822	1.67
414.03	1.63
414.238	1.61
414.446	1.53
414.654	1.51
414.862	1.5
415.07	1.55
415.278	1.51
415.486	1.6
415.694	1.5
415.902	1.54
416.109	1.58
416.317	1.6
416.525	1.57
416.733	1.68
416.941	1.58
417.149	1.72
417.357	1.65
417.564	1.64
417.772	1.72
417.98	1.66
418.188	1.46
418.395	1.43
418.603	1.31
418.811	1.3
419.019	1.29
419.226	1.28
419.434	1.21
419.642	1.28
419.849	1.32
420.057	1.38
420.265	1.39
420.472	1.33
420.68	1.23
420.887	1.3
421.095	1.39
421.302	1.44
421.51	1.47
421.717	1.54
421.925	1.5
422.132	1.54
422.34	1.56
422.547	1.51
422.755	1.42
422.962	1.26
423.17	1.21
423.377	1.34
423.585	1.3
423.792	1.21
423.999	1.2
424.207	1.13
424.414	1.22
424.621	1.22
424.829	1.08
425.036	1.05
425.243	1.12
425.451	1.06
425.658	1.16
425.865	1.16
426.072	1.24
426.28	1.29
426.487	1.35
426.694	1.33
426.901	1.34
427.108	1.34
427.315	1.28
427.523	1.27
427.73	1.32
427.937	1.38
428.144	1.44
428.351	1.5
428.558	1.46
428.765	1.46
428.972	1.37
429.179	1.27
429.386	1.19
429.593	1.13
429.8	1.18
430.007	1.22
430.214	1.32
430.421	1.37
430.628	1.3
430.835	1.26
431.042	1.28
431.249	1.2
431.456	1.26
431.662	1.28
431.869	1.32
432.076	1.43
432.283	1.46
432.49	1.43
432.697	1.42
432.903	1.38
433.11	1.34
433.317	1.37
433.524	1.28
433.73	1.32
433.937	1.31
434.144	1.44
434.35	1.38
434.557	1.38
434.764	1.33
434.97	1.51
435.177	1.5
435.384	1.55
435.59	1.53
435.797	1.57
436.003	1.55
436.21	1.5
436.416	1.41
436.623	1.41
436.829	1.42
437.036	1.38
437.242	1.4
437.449	1.41
437.655	1.47
437.862	1.46
438.068	1.55
438.275	1.53
438.481	1.6
438.687	1.64
438.894	1.66
439.1	1.6
439.307	1.55
439.513	1.49
439.719	1.55
439.926	1.51
440.132	1.48
440.338	1.51
440.544	1.56
440.751	1.63
440.957	1.58
441.163	1.54
441.369	1.54
441.575	1.53
441.782	1.46
441.988	1.49
442.194	1.47
442.4	1.51
442.606	1.52
442.812	1.53
443.018	1.57
443.224	1.62
443.431	1.61
443.637	1.59
443.843	1.59
444.049	1.55
444.255	1.49
444.461	1.47
444.667	1.49
444.873	1.46
445.079	1.48
445.284	1.45
445.49	1.46
445.696	1.53
445.902	1.56
446.108	1.55
446.314	1.59
446.52	1.62
446.726	1.68
446.931	1.71
447.137	1.67
447.343	1.62
447.549	1.63
447.755	1.56
447.96	1.53
448.166	1.57
448.372	1.56
448.578	1.59
448.783	1.59
448.989	1.56
449.195	1.61
449.4	1.61
449.606	1.55
449.812	1.6
450.017	1.56
450.223	1.58
450.428	1.64
450.634	1.66
450.84	1.69
451.045	1.69
451.251	1.67
451.456	1.66
451.662	1.66
451.867	1.61
452.073	1.57
452.278	1.57
452.483	1.55
452.689	1.54
452.894	1.59
453.1	1.58
453.305	1.6
453.51	1.64
453.716	1.62
453.921	1.63
454.127	1.62
454.332	1.56
454.537	1.62
454.742	1.58
454.948	1.54
455.153	1.59
455.358	1.69
455.563	1.7
455.769	1.7
455.974	1.62
456.179	1.59
456.384	1.6
456.589	1.61
456.795	1.51
457	1.51
457.205	1.54
457.41	1.62
457.615	1.7
457.82	1.75
458.025	1.68
458.23	1.7
458.435	1.68
458.64	1.75
458.845	1.68
459.05	1.67
459.255	1.65
459.46	1.61
459.665	1.67
459.87	1.66
460.075	1.63
460.28	1.68
460.485	1.73
460.69	1.65
460.895	1.73
461.099	1.68
461.304	1.71
461.509	1.61
461.714	1.58
461.919	1.51
462.123	1.63
462.328	1.6
462.533	1.61
462.738	1.59
462.942	1.72
463.147	1.71
463.352	1.78
463.556	1.74
463.761	1.77
463.966	1.79
464.17	1.81
464.375	1.75
464.58	1.73
464.784	1.69
464.989	1.68
465.193	1.68
465.398	1.69
465.602	1.68
465.807	1.71
466.011	1.77
466.216	1.78
466.42	1.83
466.625	1.83
466.829	1.87
467.034	1.9
467.238	1.91
467.443	1.9
467.647	1.9
467.851	1.86
468.056	1.8
468.26	1.72
468.464	1.71
468.669	1.75
468.873	1.72
469.077	1.75
469.282	1.8
469.486	1.89
469.69	1.94
469.894	2
470.099	1.99
470.303	1.99
470.507	1.98
470.711	1.98
470.915	1.97
471.119	1.99
471.324	1.92
471.528	1.95
471.732	1.94
471.936	1.98
472.14	1.95
472.344	1.96
472.548	1.96
472.752	2
472.956	2
473.16	2.04
473.364	1.98
473.568	2
473.772	2.01
473.976	1.99
474.18	1.99
474.384	1.96
474.588	1.97
474.792	1.99
474.995	2
475.199	2.03
475.403	2.08
475.607	2.06
475.811	2.08
476.015	2.13
476.218	2.13
476.422	2.13
476.626	2.1
476.83	2.1
477.033	2.13
477.237	2.14
477.441	2.09
477.644	2.13
477.848	2.13
478.052	2.12
478.255	2.14
478.459	2.21
478.663	2.24
478.866	2.27
479.07	2.3
479.273	2.32
479.477	2.35
479.681	2.33
479.884	2.21
480.088	2.22
480.291	2.25
480.495	2.27
480.698	2.23
480.901	2.24
481.105	2.28
481.308	2.31
481.512	2.3
481.715	2.3
481.919	2.3
482.122	2.32
482.325	2.34
482.529	2.37
482.732	2.42
482.935	2.44
483.138	2.49
483.342	2.5
483.545	2.51
483.748	2.54
483.952	2.53
484.155	2.52
484.358	2.5
484.561	2.46
484.764	2.45
484.967	2.48
485.171	2.45
485.374	2.45
485.577	2.48
485.78	2.48
485.983	2.47
486.186	2.46
486.389	2.42
486.592	2.44
486.795	2.45
486.998	2.44
487.201	2.44
487.404	2.52
487.607	2.54
487.81	2.57
488.013	2.6
488.216	2.59
488.419	2.59
488.622	2.61
488.825	2.55
489.028	2.52
489.231	2.52
489.433	2.51
489.636	2.46
489.839	2.48
490.042	2.48
490.245	2.48
490.447	2.52
490.65	2.53
490.853	2.53
491.056	2.56
491.258	2.57
491.461	2.56
491.664	2.52
491.866	2.53
492.069	2.53
492.272	2.51
492.474	2.53
492.677	2.52
492.879	2.51
493.082	2.56
493.285	2.58
493.487	2.57
493.69	2.58
493.892	2.62
494.095	2.59
494.297	2.63
494.5	2.66
494.702	2.66
494.905	2.68
495.107	2.71
495.309	2.69
495.512	2.7
495.714	2.72
495.917	2.7
496.119	2.7
496.321	2.73
496.524	2.72
496.726	2.72
496.928	2.74
497.13	2.75
497.333	2.76
497.535	2.71
497.737	2.71
497.939	2.71
498.142	2.72
498.344	2.71
498.546	2.71
498.748	2.72
498.95	2.74
499.152	2.73
499.355	2.73
499.557	2.75
499.759	2.82
499.961	2.86
500.163	2.91
500.365	2.91
500.567	2.95
500.769	3
500.971	2.97
501.173	2.94
501.375	2.94
501.577	2.92
501.779	2.95
501.981	2.95
502.183	2.94
502.385	2.98
502.587	2.98
502.788	2.99
502.99	2.98
503.192	2.98
503.394	3
503.596	3.03
503.798	3.12
503.999	3.14
504.201	3.13
504.403	3.15
504.605	3.18
504.806	3.2
505.008	3.18
505.21	3.15
505.411	3.2
505.613	3.22
505.815	3.23
506.016	3.25
506.218	3.26
506.42	3.32
506.621	3.35
506.823	3.36
507.024	3.34
507.226	3.35
507.427	3.32
507.629	3.33
507.83	3.3
508.032	3.31
508.233	3.32
508.435	3.36
508.636	3.39
508.838	3.45
509.039	3.46
509.24	3.5
509.442	3.46
509.643	3.47
509.845	3.48
510.046	3.5
510.247	3.54
510.448	3.55
510.65	3.56
510.851	3.61
511.052	3.62
511.254	3.63
511.455	3.6
511.656	3.57
511.857	3.6
512.058	3.62
512.26	3.61
512.461	3.63
512.662	3.66
512.863	3.68
513.064	3.68
513.265	3.71
513.466	3.72
513.667	3.73
513.868	3.76
514.069	3.77
514.27	3.79
514.471	3.85
514.672	3.9
514.873	3.93
515.074	3.96
515.275	3.94
515.476	3.94
515.677	3.97
515.878	3.99
516.079	3.99
516.28	3.95
516.481	3.94
516.682	3.99
516.882	3.99
517.083	3.97
517.284	3.94
517.485	3.94
517.686	3.97
517.886	3.97
518.087	3.97
518.288	3.96
518.488	3.97
518.689	3.97
518.89	4
519.091	4.02
519.291	4.05
519.492	4.08
519.692	4.16
519.893	4.17
520.094	4.19
520.294	4.16
520.495	4.19
520.695	4.2
520.896	4.18
521.096	4.18
521.297	4.21
521.497	4.23
521.698	4.24
521.898	4.25
522.099	4.27
522.299	4.28
522.499	4.28
522.7	4.28
522.9	4.3
523.101	4.34
523.301	4.33
523.501	4.36
523.702	4.39
523.902	4.43
524.102	4.44
524.302	4.44
524.503	4.43
524.703	4.46
524.903	4.48
525.103	4.48
525.304	4.48
525.504	4.49
525.704	4.5
525.904	4.51
526.104	4.53
526.304	4.53
526.504	4.52
526.705	4.53
526.905	4.57
527.105	4.59
527.305	4.59
527.505	4.59
527.705	4.58
527.905	4.62
528.105	4.61
528.305	4.58
528.505	4.59
528.705	4.61
528.905	4.6
529.105	4.62
529.304	4.61
529.504	4.61
529.704	4.66
529.904	4.68
530.104	4.67
530.304	4.7
530.503	4.7
530.703	4.72
530.903	4.77
531.103	4.79
531.303	4.84
531.502	4.85
531.702	4.84
531.902	4.86
532.101	4.87
532.301	4.86
532.501	4.88
532.7	4.83
532.9	4.9
533.1	4.91
533.299	4.95
533.499	4.98
533.698	5.02
533.898	5.04
534.097	5.08
534.297	5.08
534.496	5.12
534.696	5.14
534.895	5.16
535.095	5.17
535.294	5.15
535.494	5.2
535.693	5.21
535.892	5.2
536.092	5.18
536.291	5.22
536.491	5.27
536.69	5.29
536.889	5.29
537.088	5.31
537.288	5.39
537.487	5.45
537.686	5.44
537.886	5.44
538.085	5.51
538.284	5.51
538.483	5.54
538.682	5.52
538.882	5.56
539.081	5.56
539.28	5.58
539.479	5.57
539.678	5.63
539.877	5.65
540.076	5.72
540.275	5.74
540.474	5.75
540.673	5.8
540.872	5.86
541.071	5.87
541.27	5.86
541.469	5.87
541.668	5.91
541.867	5.98
542.066	5.98
542.265	5.98
542.464	5.99
542.663	6.09
542.862	6.08
543.06	6.11
543.259	6.11
543.458	6.17
543.657	6.22
543.856	6.27
544.054	6.27
544.253	6.32
544.452	6.33
544.651	6.35
544.849	6.36
545.048	6.37
545.247	6.41
545.445	6.42
545.644	6.47
545.843	6.53
546.041	6.61
546.24	6.68
546.438	6.76
546.637	6.78
546.836	6.84
547.034	6.89
547.233	6.95
547.431	6.98
547.63	7.04
547.828	7.1
548.027	7.15
548.225	7.21
548.423	7.27
548.622	7.31
548.82	7.38
549.019	7.39
549.217	7.45
549.415	7.54
549.614	7.54
549.812	7.57
550.01	7.63
550.209	7.67
550.407	7.75
550.605	7.76
550.803	7.81
551.002	7.91
551.2	8.03
551.398	8.06
551.596	8.13
551.794	8.21
551.993	8.26
552.191	8.3
552.389	8.39
552.587	8.36
552.785	8.47
552.983	8.53
553.181	8.55
553.379	8.65
553.577	8.73
553.775	8.79
553.973	8.92
554.171	8.96
554.369	9.04
554.567	9.14
554.765	9.18
554.963	9.2
555.161	9.3
555.359	9.33
555.557	9.42
555.755	9.47
555.952	9.56
556.15	9.66
556.348	9.81
556.546	9.89
556.744	9.98
556.941	10.1
557.139	10.25
557.337	10.32
557.535	10.43
557.732	10.52
557.93	10.62
558.128	10.71
558.325	10.74
558.523	10.77
558.721	10.9
558.918	10.99
559.116	11.03
559.313	11.11
559.511	11.17
559.708	11.26
559.906	11.37
560.104	11.46
560.301	11.53
560.498	11.63
560.696	11.68
560.893	11.78
561.091	11.88
561.288	11.95
561.486	12
561.683	12.1
561.88	12.2
562.078	12.32
562.275	12.43
562.473	12.54
562.67	12.66
562.867	12.77
563.064	12.87
563.262	13
563.459	13.08
563.656	13.21
563.853	13.31
564.051	13.36
564.248	13.47
564.445	13.55
564.642	13.6
564.839	13.77
565.036	13.83
565.234	13.88
565.431	14
565.628	14.08
565.825	14.19
566.022	14.22
566.219	14.25
566.416	14.34
566.613	14.44
566.81	14.48
567.007	14.51
567.204	14.61
567.401	14.75
567.598	14.79
567.795	14.82
567.991	14.92
568.188	15.04
568.385	15.16
568.582	15.21
568.779	15.26
568.976	15.35
569.172	15.45
569.369	15.48
569.566	15.51
569.763	15.58
569.96	15.6
570.156	15.68
570.353	15.73
570.55	15.83
570.746	15.84
570.943	15.93
571.14	15.98
571.336	16.06
571.533	16.1
571.729	16.15
571.926	16.14
572.123	16.2
572.319	16.23
572.516	16.24
572.712	16.3
572.909	16.33
573.105	16.39
573.302	16.46
573.498	16.52
573.695	16.53
573.891	16.55
574.087	16.57
574.284	16.55
574.48	16.56
574.677	16.59
574.873	16.63
575.069	16.69
575.266	16.75
575.462	16.74
575.658	16.84
575.854	16.82
576.051	16.81
576.247	16.8
576.443	16.83
576.639	16.83
576.835	16.85
577.032	16.84
577.228	16.94
577.424	16.95
577.62	16.97
577.816	16.95
578.012	16.94
578.208	16.97
578.404	17
578.6	17.01
578.796	17.08
578.993	17.1
579.189	17.11
579.384	17.11
579.58	17.09
579.776	17.08
579.972	17
580.168	16.98
580.364	16.99
580.56	17
580.756	17.03
580.952	17.07
581.148	17.05
581.343	17.05
581.539	17
581.735	16.92
581.931	16.93
582.127	16.92
582.322	16.87
582.518	16.82
582.714	16.78
582.909	16.77
583.105	16.83
583.301	16.81
583.496	16.76
583.692	16.76
583.888	16.77
584.083	16.83
584.279	16.88
584.474	16.85
584.67	16.82
584.866	16.86
585.061	16.91
585.257	16.94
585.452	16.9
585.648	16.88
585.843	16.9
586.039	16.88
586.234	16.85
586.429	16.83
586.625	16.78
586.82	16.75
587.015	16.72
587.211	16.71
587.406	16.79
587.601	16.78
587.797	16.76
587.992	16.8
588.187	16.86
588.383	16.89
588.578	16.9
588.773	16.87
588.968	16.94
589.163	16.98
589.359	16.96
589.554	16.94
589.749	16.98
589.944	17.01
590.139	17.03
590.334	17
590.529	17.04
590.724	17.11
590.919	17.22
591.114	17.23
591.309	17.25
591.504	17.33
591.699	17.4
591.894	17.43
592.089	17.52
592.284	17.48
592.479	17.52
592.674	17.61
592.869	17.65
593.064	17.73
593.259	17.78
593.454	17.76
593.648	17.81
593.843	17.86
594.038	17.88
594.233	17.93
594.428	17.98
594.622	18.04
594.817	18.14
595.012	18.21
595.206	18.27
595.401	18.31
595.596	18.39
595.79	18.44
595.985	18.57
596.18	18.68
596.374	18.79
596.569	18.88
596.763	19.06
596.958	19.18
597.153	19.29
597.347	19.33
597.542	19.35
597.736	19.43
597.931	19.48
598.125	19.51
598.319	19.49
598.514	19.54
598.708	19.61
598.903	19.73
599.097	19.8
599.291	19.9
599.486	19.94
599.68	20.01
599.874	20.07
600.069	20.09
600.263	20.1
600.457	20.15
600.651	20.19
600.846	20.21
601.04	20.26
601.234	20.34
601.428	20.35
601.622	20.37
601.817	20.38
602.011	20.37
602.205	20.39
602.399	20.41
602.593	20.43
602.787	20.51
602.981	20.57
603.175	20.51
603.369	20.56
603.563	20.63
603.757	20.68
603.951	20.63
604.145	20.6
604.339	20.58
604.533	20.63
604.727	20.61
604.921	20.57
605.115	20.49
605.309	20.5
605.502	20.51
605.696	20.44
605.89	20.45
606.084	20.41
606.278	20.32
606.471	20.35
606.665	20.29
606.859	20.22
607.053	20.22
607.246	20.16
607.44	20.1
607.634	20.04
607.827	19.94
608.021	19.85
608.214	19.82
608.408	19.76
608.602	19.71
608.795	19.64
608.989	19.6
609.182	19.57
609.376	19.53
609.569	19.44
609.763	19.43
609.956	19.35
610.15	19.3
610.343	19.21
610.537	19.13
610.73	19.07
610.923	19.01
611.117	18.89
611.31	18.8
611.504	18.78
611.697	18.76
611.89	18.7
612.083	18.66
612.277	18.53
612.47	18.49
612.663	18.42
612.856	18.32
613.05	18.22
613.243	18.13
613.436	18.02
613.629	18.02
613.822	17.91
614.015	17.83
614.209	17.8
614.402	17.77
614.595	17.68
614.788	17.59
614.981	17.49
615.174	17.4
615.367	17.33
615.56	17.19
615.753	17.08
615.946	17.09
616.139	17.09
616.332	17.04
616.525	17.07
616.718	17.03
616.911	17.08
617.103	17.05
617.296	16.94
617.489	16.89
617.682	16.87
617.875	16.72
618.067	16.69
618.26	16.58
618.453	16.48
618.646	16.46
618.838	16.43
619.031	16.37
619.224	16.41
619.417	16.36
619.609	16.32
619.802	16.36
619.994	16.28
620.187	16.2
620.38	16.19
620.572	16.17
620.765	16.13
620.957	16.06
621.15	16.03
621.342	16.05
621.535	16.05
621.727	16
621.92	15.98
622.112	15.96
622.305	15.99
622.497	15.92
622.69	15.87
622.882	15.84
623.074	15.8
623.267	15.74
623.459	15.71
623.651	15.65
623.844	15.63
624.036	15.65
624.228	15.65
624.42	15.65
624.613	15.63
624.805	15.64
624.997	15.66
625.189	15.64
625.381	15.61
625.574	15.56
625.766	15.54
625.958	15.52
626.15	15.52
626.342	15.49
626.534	15.46
626.726	15.43
626.918	15.39
627.11	15.38
627.302	15.35
627.494	15.27
627.686	15.23
627.878	15.2
628.07	15.1
628.262	15.06
628.454	15
628.646	14.95
628.838	14.91
629.029	14.84
629.221	14.78
629.413	14.78
629.605	14.75
629.797	14.72
629.989	14.67
630.18	14.61
630.372	14.6
630.564	14.61
630.755	14.6
630.947	14.56
631.139	14.51
631.33	14.52
631.522	14.52
631.714	14.53
631.905	14.51
632.097	14.48
632.289	14.48
632.48	14.46
632.672	14.38
632.863	14.34
633.055	14.3
633.246	14.3
633.438	14.25
633.629	14.25
633.821	14.22
634.012	14.24
634.203	14.26
634.395	14.33
634.586	14.28
634.777	14.3
634.969	14.26
635.16	14.26
635.351	14.25
635.543	14.23
635.734	14.11
635.925	14.15
636.117	14.15
636.308	14.14
636.499	14.14
636.69	14.17
636.881	14.14
637.073	14.14
637.264	14.08
637.455	14.08
637.646	14.1
637.837	14.06
638.028	14.01
638.219	14
638.41	14.03
638.601	13.99
638.792	13.95
638.983	13.93
639.174	13.98
639.365	13.96
639.556	13.94
639.747	13.94
639.938	13.96
640.129	13.96
640.32	13.91
640.511	13.87
640.701	13.84
640.892	13.82
641.083	13.79
641.274	13.81
641.465	13.76
641.655	13.73
641.846	13.67
642.037	13.64
642.228	13.62
642.418	13.58
642.609	13.53
642.8	13.51
642.99	13.53
643.181	13.51
643.372	13.53
643.562	13.53
643.753	13.49
643.943	13.39
644.134	13.43
644.324	13.41
644.515	13.42
644.705	13.41
644.896	13.39
645.086	13.38
645.277	13.44
645.467	13.37
645.658	13.34
645.848	13.32
646.038	13.28
646.229	13.28
646.419	13.32
646.61	13.26
646.8	13.27
646.99	13.23
647.18	13.2
647.371	13.18
647.561	13.12
647.751	13.05
647.941	13
648.132	13.03
648.322	13.09
648.512	13.1
648.702	13.07
648.892	13.1
649.082	13.05
649.272	13.04
649.462	12.99
649.653	12.93
649.843	12.89
650.033	12.86
650.223	12.79
650.413	12.81
650.603	12.82
650.793	12.73
650.983	12.69
651.172	12.64
651.362	12.61
651.552	12.56
651.742	12.48
651.932	12.43
652.122	12.42
652.312	12.29
652.502	12.25
652.691	12.19
652.881	12.15
653.071	12.11
653.261	12.05
653.45	11.95
653.64	11.93
653.83	11.85
654.019	11.73
654.209	11.65
654.399	11.53
654.588	11.39
654.778	11.32
654.968	11.2
655.157	11.01
655.347	10.9
655.536	10.69
655.726	10.64
655.915	10.49
656.105	10.39
656.294	10.27
656.484	10.2
656.673	10.16
656.863	10.11
657.052	9.91
657.241	9.78
657.431	9.59
657.62	9.4
657.809	9.24
657.999	9.07
658.188	8.89
658.377	8.82
658.567	8.69
658.756	8.56
658.945	8.44
659.134	8.27
659.324	8.11
659.513	7.96
659.702	7.8
659.891	7.64
660.08	7.5
660.269	7.42
660.458	7.32
660.648	7.19
660.837	7.11
661.026	6.94
661.215	6.83
661.404	6.75
661.593	6.61
661.782	6.52
661.971	6.37
662.16	6.24
662.349	6.11
662.538	6
662.726	5.83
662.915	5.75
663.104	5.6
663.293	5.53
663.482	5.43
663.671	5.38
663.86	5.3
664.048	5.28
664.237	5.2
664.426	5.19
664.615	5.1
664.803	4.98
664.992	4.96
665.181	4.91
665.369	4.83
665.558	4.79
665.747	4.82
665.935	4.81
666.124	4.87
666.312	4.77
666.501	4.75
666.69	4.72
666.878	4.64
667.067	4.55
667.255	4.55
667.444	4.49
667.632	4.47
667.82	4.44
668.009	4.43
668.197	4.42
668.386	4.37
668.574	4.32
668.762	4.28
668.951	4.34
669.139	4.34
669.327	4.34
669.516	4.36
669.704	4.39
669.892	4.4
670.08	4.4
670.269	4.4
670.457	4.38
670.645	4.4
670.833	4.43
671.021	4.39
671.21	4.43
671.398	4.47
671.586	4.47
671.774	4.45
671.962	4.51
672.15	4.46
672.338	4.56
672.526	4.55
672.714	4.57
672.902	4.6
673.09	4.7
673.278	4.7
673.466	4.81
673.654	4.79
673.842	4.84
674.03	4.94
674.218	4.98
674.405	5.01
674.593	5.05
674.781	5.07
674.969	5.12
675.157	5.12
675.344	5.1
675.532	5.15
675.72	5.17
675.908	5.21
676.095	5.25
676.283	5.28
676.471	5.36
676.658	5.42
676.846	5.5
677.033	5.64
677.221	5.73
677.409	5.76
677.596	5.91
677.784	5.98
677.971	6.06
678.159	6.13
678.346	6.13
678.534	6.28
678.721	6.32
678.909	6.35
679.096	6.43
679.283	6.48
679.471	6.56
679.658	6.67
679.846	6.73
680.033	6.86
680.22	6.9
680.408	7
680.595	7.12
680.782	7.17
680.969	7.24
681.157	7.25
681.344	7.4
681.531	7.55
681.718	7.64
681.905	7.76
682.093	7.9
682.28	8.11
682.467	8.22
682.654	8.32
682.841	8.45
683.028	8.65
683.215	8.73
683.402	8.85
683.589	8.94
683.776	9.15
683.963	9.29
684.15	9.49
684.337	9.65
684.524	9.94
684.711	10.11
684.898	10.29
685.085	10.51
685.271	10.78
685.458	11.02
685.645	11.28
685.832	11.53
686.019	11.84
686.205	12.11
686.392	12.4
686.579	12.66
686.766	13.01
686.952	13.4
687.139	13.67
687.326	14.03
687.512	14.43
687.699	14.75
687.886	15.08
688.072	15.45
688.259	15.82
688.445	16.23
688.632	16.77
688.818	17.19
689.005	17.79
689.191	18.27
689.378	18.69
689.564	19.09
689.751	19.67
689.937	20.09
690.124	20.68
690.31	21.15
690.496	21.79
690.683	22.43
690.869	23.03
691.055	23.69
691.242	24.26
691.428	24.87
691.614	25.51
691.8	26.11
691.987	26.76
692.173	27.47
692.359	28.13
692.545	28.86
692.731	29.59
692.918	30.36
693.104	31.04
693.29	31.78
693.476	32.51
693.662	33.22
693.848	33.88
694.034	34.38
694.22	34.99
694.406	35.76
694.592	36.34
694.778	37.07
694.964	37.71
695.15	38.62
695.336	39.76
695.522	40.6
695.708	41.49
695.894	42.38
696.08	43.09
696.265	43.99
696.451	44.64
696.637	45.19
696.823	45.89
697.009	46.53
697.194	47.21
697.38	47.83
697.566	48.47
697.751	49.14
697.937	49.8
698.123	50.5
698.308	51.2
698.494	51.99
698.68	52.84
698.865	53.59
699.051	54.32
699.236	55
699.422	55.53
699.607	56.14
699.793	56.64
699.978	57.17
700.164	57.7
700.349	58.22
700.535	58.84
700.72	59.59
700.906	60.06
701.091	60.57
701.276	61.14
701.462	61.66
701.647	62.16
701.832	62.55
702.018	62.91
702.203	63.3
702.388	63.77
702.573	64.35
702.759	64.9
702.944	65.55
703.129	66.09
703.314	66.64
703.499	67.12
703.684	67.61
703.87	67.94
704.055	68.26
704.24	68.58
704.425	69.09
704.61	69.39
704.795	70.05
704.98	70.33
705.165	70.69
705.35	71.02
705.535	71.44
705.72	71.59
705.905	71.87
706.09	71.97
706.275	72.32
706.459	72.75
706.644	73.04
706.829	73.45
707.014	73.73
707.199	74.17
707.384	74.43
707.568	74.88
707.753	75.37
707.938	75.43
708.123	75.27
708.307	75.85
708.492	75.8
708.677	76.04
708.861	76.19
709.046	75.88
709.231	76.52
709.415	76.97
709.6	76.91
709.784	77.37
709.969	77.74
710.153	78.12
710.338	78.45
710.522	78.44
710.707	78.39
710.891	78.75
711.076	78.79
711.26	79.07
711.445	79.05
711.629	79.4
711.813	79.46
711.998	79.81
712.182	80.09
712.366	80.49
712.551	80.54
712.735	80.75
712.919	80.91
713.103	81.1
713.288	81.52
713.472	81.53
713.656	81.42
713.84	81.45
714.024	81.71
714.208	81.73
714.393	82.02
714.577	81.78
714.761	82.04
714.945	82.43
715.129	82.84
715.313	83.05
715.497	83.51
715.681	83.94
715.865	84.23
716.049	84.28
716.233	84.47
716.417	84.62
716.601	84.54
716.785	84.45
716.968	84.07
717.152	84.18
717.336	84.33
717.52	84.49
717.704	84.74
717.888	85
718.071	85.19
718.255	85.38
718.439	85.29
718.622	85.45
718.806	85.36
718.99	85.4
719.174	85.33
719.357	85.57
719.541	85.95
719.724	86.58
719.908	86.56
720.092	86.85
720.275	86.87
720.459	87.1
720.642	86.82
720.826	87.02
721.009	86.62
721.193	86.71
721.376	86.6
721.559	86.51
721.743	86.57
721.926	86.76
722.11	86.6
722.293	86.43
722.476	86.5
722.66	86.49
722.843	86.94
723.026	87.03
723.21	86.94
723.393	87.32
723.576	87.74
723.759	88.04
723.942	88.33
724.126	88.11
724.309	88.25
724.492	88.65
724.675	88.46
724.858	88.96
725.041	89.13
725.224	89.31
725.407	89.39
725.59	89.3
725.774	89.3
725.957	89.64
726.14	89.36
726.322	88.94
726.505	89.07
726.688	89.49
726.871	89.72
727.054	90.13
727.237	90.05
727.42	90.14
727.603	90.37
727.786	90.41
727.968	90.07
728.151	90.32
728.334	90.07
728.517	90.08
728.699	90.44
728.882	90.79
729.065	90.97
729.248	91.2
729.43	90.75
729.613	91.07
729.796	91
729.978	91.04
730.161	91.23
730.343	91.4
730.526	91.34
730.708	92
730.891	91.95
731.073	91.91
731.256	91.85
731.438	91.76
731.621	91.56
731.803	91.96
731.986	91.71
732.168	91.48
732.35	91.75
732.533	91.89
732.715	91.86
732.898	91.93
733.08	91.95
733.262	91.93
733.444	92.1
733.627	92.25
733.809	92.21
733.991	92.49
734.173	92.37
734.355	92.57
734.538	92.34
734.72	92.62
734.902	92.38
735.084	92.92
735.266	92.59
735.448	92.51
735.63	92.31
735.812	92.89
735.994	92.4
736.176	92.89
736.358	92.37
736.54	92.25
736.722	92.29
736.904	92.61
737.086	92.51
737.268	92.9
737.45	92.89
737.632	92.68
737.814	93.03
737.995	93.61
738.177	93.44
738.359	93.7
738.541	93.36
738.723	93.21
738.904	93.43
739.086	93.53
739.268	93.58
739.449	93.78
739.631	93.7
739.813	94.32
739.994	94.77
740.176	95.15
740.358	95.3
740.539	95.04
740.721	94.66
740.902	94.33
741.084	94.23
741.265	94.17
741.447	93.66
741.628	93.25
741.81	93.81
741.991	94.61
742.172	94.77
742.354	94.9
742.535	94.8
742.717	94.96
742.898	95.79
743.079	95.35
743.261	94.83
743.442	95.08
743.623	94.8
743.804	95.15
743.986	95.17
744.167	94.56
744.348	94.45
744.529	94.01
744.71	93.62
744.891	93.85
745.073	93.18
745.254	93.39
745.435	93.19
745.616	92.87
745.797	93.23
745.978	94.4
746.159	93.77
746.34	94.05
746.521	94.08
746.702	93.98
746.883	94.57
747.064	94.66
747.245	94.56
747.426	95.03
747.606	95.07
747.787	95.32
747.968	96.28
748.149	96.06
748.33	96.06
748.51	95.09
748.691	95.49
748.872	95.34
749.053	94.77
749.233	93.92
749.414	94.23
749.595	93.55
749.775	93.72
749.956	93.07
750.137	93
750.317	93.29
750.498	93.49
750.678	93.49
750.859	94.2
751.04	94.13
751.22	93.67
751.4	93.71
751.581	93.6
751.761	94.23
751.942	93.26
752.122	92.45
752.303	92.67
752.483	93.68
752.663	93.87
752.844	93.26
753.024	93.06
753.204	93.26
753.385	92.95
753.565	92.94
753.745	92.33
753.925	92.21
754.106	92.59
754.286	91.71
754.466	92.26
754.646	92.43
754.826	91.83
755.006	91.36
755.187	91.89
755.367	92.15
755.547	93.09
755.727	91.97
755.907	93
756.087	93.75
756.267	94.39
756.447	93.47
756.627	93.54
756.807	93.6
756.987	95.46
757.167	94.9
757.346	93.85
757.526	94.01
757.706	94.54
757.886	93.97
758.066	92.84
758.246	91.22
758.425	91.41
758.605	91.76
758.785	91.66
758.965	90.49
759.144	91.24
759.324	91.93
759.504	92.99
759.683	92.3
759.863	92.07
760.043	92.03
760.222	91.98
760.402	91.93
760.581	91.38
760.761	89.88
760.94	89.86
761.12	90.07
761.299	89.12
761.479	90.66
761.658	89.77
761.838	89.75
762.017	90.79
762.197	91.55
762.376	90.76
762.555	91.98
762.735	90.65
762.914	90.92
763.093	90.43
763.273	90.56
763.452	89.2
763.631	88.83
763.81	88.98
763.99	89.76
764.169	89.97
764.348	90.45
764.527	89.52
764.706	90.38
764.885	91.65
765.064	91.25
765.243	90.74
765.423	91.19
765.602	90.67
765.781	91.3
765.96	91.24
766.139	90.45
766.318	90.45
766.497	90.9
766.676	90.34
766.854	90.29
767.033	89.96
767.212	89
767.391	89.44
767.57	89.21
767.749	88.12
767.928	87.74
768.106	88.68
768.285	89.23
768.464	91.33
768.643	92.11
768.821	92.63
769	93.67
769.179	92.99
769.357	91.72
769.536	91.11
769.715	89.57
769.893	87.95
770.072	87.22
770.25	86.29
770.429	87.45
770.607	88.11
770.786	88.43
770.964	88.04
771.143	88.97
771.321	88.61
771.5	88.69
771.678	88.2
771.857	87.67
772.035	86.48
772.213	86.74
772.392	87.14
772.57	88.14
772.748	88.63
772.927	88.36
773.105	89.32
773.283	90.1
773.461	90.06
773.64	89.47
773.818	87.72
773.996	87.32
774.174	87.2
774.352	86.49
774.531	84.95
774.709	85.75
774.887	85.58
775.065	86.83
775.243	87.53
775.421	87.73
775.599	85.85
775.777	86.44
775.955	85.75
776.133	85.12
776.311	84.4
776.489	83.96
776.667	83.94
776.844	85.56
777.022	86.02
777.2	85.5
777.378	87.72
777.556	88.43
777.734	88.55
777.911	89.04
778.089	88.07
778.267	88.77
778.445	87.94
778.622	86.44
778.8	85.81
778.978	85.38
779.155	83.99
779.333	84.2
779.511	84.14
779.688	84.97
779.866	83.88
780.043	84.35
780.221	84.08
780.398	85.08
780.576	85.3
780.753	83.3
780.931	83.93
781.108	84.7
781.286	82.68
781.463	83.13
781.64	84.2
781.818	84.07
781.995	85.87
782.172	85.39
782.35	84.37
782.527	87.24
782.704	85.97
782.882	84.39
783.059	83.91
783.236	83.97
783.413	84.44
783.59	84.65
783.768	81.07
783.945	82.62
784.122	82.35
784.299	82.91
784.476	83.23
784.653	81.4
784.83	79.94
785.007	82.7
785.184	81.78
785.361	82.11
785.538	83.26
785.715	83.21
785.892	84.1
786.069	86.37
786.246	84.41
786.423	85.27
786.6	86.06
786.776	84.46
786.953	83.76
787.13	84.85
787.307	83.57
787.484	85.34
787.66	83.79
787.837	82.87
788.014	82.32
788.191	82.03
788.367	80.19
788.544	82.03
788.721	82.33
788.897	85.66
789.074	85.99
789.25	87.26
789.427	88.17
789.603	91.7
789.78	91.51
789.956	89.19
790.133	87.25
790.309	85.65
790.486	88.34
790.662	88.31
790.839	87.1
791.015	86.15
791.192	88.26
791.368	87.04
791.544	89.4
791.721	85.4
791.897	85.19
792.073	81.19
792.249	84.59
792.426	85.21
792.602	84.69
792.778	82.23
792.954	82.86
793.13	83.38
793.307	85.38
793.483	81.77
793.659	82.03
793.835	82.27
794.011	81.34
794.187	79.27
794.363	78.55
794.539	77.25
794.715	77.21
794.891	74.53
795.067	73.43
795.243	77.23
795.419	80.43
795.595	77.59
795.771	80.21
795.947	79.37
796.122	80.72
796.298	81.35
796.474	79.28
796.65	77.67
796.826	82.08
797.001	82.06
797.177	83.43
797.353	84.27
797.529	84.11
797.704	81.69
797.88	82.61
798.056	83.37
798.231	81.56
798.407	81.73
798.582	80.62
798.758	84.11
798.934	84.39
799.109	83.21
799.285	82.11
799.46	81.92
799.636	80.81
799.811	81.35
799.986	77.23
800.162	77.15
800.337	76.68
800.513	76.61
800.688	80.62
800.863	82.3
801.039	79.16
801.214	78.99
801.389	80.04
801.565	85.51
801.74	82.34
801.915	77.99
802.09	75.08
802.265	76.85
802.441	79.62
802.616	81.04
802.791	77.08
802.966	79.63
803.141	75.92
803.316	78.49
803.491	78.61
803.666	76.92
803.841	77.01
804.016	76.79
804.191	74.37
804.366	78.41
804.541	75.38
804.716	73.82
804.891	79.16
805.066	77.88
805.241	76.63
805.416	73.04
805.591	79.63
805.765	82.02
805.94	82.77
806.115	74.16
806.29	75.82
806.464	74.04
806.639	76.94
806.814	69.14
806.989	67.15
807.163	68.97
807.338	74.39
807.512	69.05
807.687	71.1
807.862	69.04
808.036	71.2
808.211	75.05
808.385	73
808.56	73.61
808.734	79.25
808.909	78.44
809.083	81.43
809.258	85.64
809.432	83.62
809.606	85.86
809.781	83.72
809.955	85.43
810.13	88.47
810.304	87.12
810.478	83.25
810.652	86.93
810.827	83.67
811.001	82.74
811.175	73.69
811.349	73.12
811.524	73.32
811.698	75.38
811.872	73.83
812.046	74.69
812.22	73.21
812.394	79.77
812.568	83.17
812.742	84.64
812.916	82.4
813.09	75.96
813.264	77.53
813.438	86.59
813.612	80.8
813.786	77.57
813.96	77.57
814.134	78.41
814.308	80.24
814.482	78.62
814.656	74.95
814.83	82.46
815.003	80.65
815.177	79.98
815.351	79.84
815.525	82.52
815.698	79.54
815.872	75.6
816.046	71.46
816.219	74.18
816.393	70.85
816.567	67.94
816.74	67.24
816.914	73.47
817.088	70.68
817.261	71.11
817.435	62.62
817.608	65.46
817.782	70.24
817.955	64.83
818.129	63.58
818.302	69.73
818.475	70.14
818.649	76.88
818.822	78.31
818.996	72
819.169	71.59
819.342	68.1
819.516	66.54
819.689	66.72
819.862	65.58
820.035	62.3
820.209	65.36
820.382	70.45
820.555	74.09
820.728	75.88
820.901	73.49
821.075	78.37
821.248	77
821.421	72.18
821.594	70.19
821.767	66.63
821.94	64.34
822.113	66.21
822.286	68.43
822.459	79.74
822.632	90.58
822.805	92.07
822.978	88.24
823.151	87.86
823.324	80.2
823.496	68.57
823.669	63.22
823.842	58.56
824.015	51.85
824.188	57.95
824.361	61.51
824.533	70.77
824.706	80.74
824.879	82.11
825.051	75.79
825.224	80.16
825.397	68.37
825.569	71.78
825.742	68.42
825.915	65.97
826.087	53.76
826.26	54.8
826.432	61.89
826.605	69.32
826.777	68.35
826.95	63.14
827.122	68.2
827.295	78.52
827.467	74.35
827.64	61.61
827.812	57.93
827.984	54.59
828.157	56.08
828.329	52.71
828.501	52.42
828.674	56.15
828.846	64.87
829.018	65.11
829.19	63.42
829.363	68.49
829.535	64.29
829.707	55.08
829.879	49.49
830.051	46.78
830.223	42.59
830.395	43.64
830.568	48.03
830.74	52.79
830.912	53.94
831.084	54.88
831.256	50.62
831.428	59.89
831.6	60.08
831.772	58.13
831.943	56.21
832.115	61.38
832.287	63.41
832.459	67.48
832.631	57.62
832.803	59.93
832.975	54.79
833.146	47.54
833.318	47.36
833.49	56.14
833.662	59.98
833.833	63.4
834.005	61.51
834.177	64.79
834.348	68.1
834.52	69.34
834.692	68.46
834.863	66.89
835.035	66.24
835.206	70.16
835.378	66.24
835.549	64.58
835.721	62.82
835.892	57.03
836.064	55.32
836.235	61.58
836.407	57.97
836.578	64.56
836.749	70.5
836.921	69.33
837.092	73.93
837.264	74.1
837.435	67.59
837.606	81.7
837.777	70.69
837.949	58.17
838.12	61
838.291	70.32
838.462	60.98
838.633	55.98
838.805	52.94
838.976	55.23
839.147	58.85
839.318	46.49
839.489	40.76
839.66	51.26
839.831	47.96
840.002	37.82
840.173	32.92
840.344	45.46
840.515	53.74
840.686	57.91
840.857	59.3
841.028	63.13
841.199	63.63
841.369	60.4
841.54	57.13
841.711	60.52
841.882	49.79
842.053	44.12
842.223	47.14
842.394	36.38
842.565	45.63
842.736	36.27
842.906	42.76
843.077	47.41
843.248	50.19
843.418	54.9
843.589	70.07
843.759	67.77
843.93	74.33
844.101	62.18
844.271	68.41
844.442	75.6
844.612	66.84
844.783	52.08
844.953	56.56
845.123	59.71
845.294	74.21
845.464	72.39
845.635	70.89
845.805	72.57
845.975	73.3
846.146	74.98
846.316	83.69
846.486	75.07
846.656	79.56
846.827	74.23
846.997	87.37
847.167	83.98
847.337	88.91
847.507	81.63
847.677	82.08
847.848	78.91
848.018	76.67
848.188	62.25
848.358	61.59
848.528	42.88
848.698	27.44
848.868	8.45
849.038	20.71
849.208	33.97
849.378	22.05
849.548	26.05
849.718	29.12
849.887	18
850.057	35.31
850.227	21.51
850.397	-0.44
850.567	9.98
850.737	2.89
850.906	8.97
851.076	20.09
851.246	27.67
851.415	39.4
851.585	36.27
851.755	43.27
851.924	60.75
852.094	59.33
852.264	57.44
852.433	62.49
852.603	59.21
852.772	69.33
852.942	54.13
853.111	45.29
853.281	44.12
853.45	46.52
853.62	36.01
853.789	32.02
853.959	30.83
854.128	13.11
854.297	16.48
854.467	30.05
854.636	28.97
854.805	30.54
854.975	37.64
855.144	49.84
855.313	76.68
855.482	77.57
855.652	68.57
855.821	54.85
855.99	64.75
856.159	51.48
856.328	27.05
856.497	17.32
856.667	19.34
856.836	15.74
857.005	13.5
857.174	12.91
857.343	14.63
857.512	2.26
857.681	-0.54
857.85	-5.45
858.019	7.82
858.188	22.2
858.356	-10.53
858.525	-0.36
858.694	31.13
858.863	29.55
859.032	32.54
859.201	22.46
859.369	32.58
859.538	45.28
859.707	38.05
859.876	33.96
860.044	43.58
860.213	26.96
860.382	28.49
860.55	44.97
860.719	56
860.888	58.4
861.056	67.18
861.225	72.26
861.393	93.59
861.562	81.03
861.73	55.53
861.899	44.62
862.067	52.74
862.236	44.33
862.404	29.89
862.572	15.76
862.741	24.18
862.909	16.49
863.078	18.3
863.246	26.49
863.414	38.01
863.582	55.26
863.751	62.7
863.919	56.93
864.087	61.85
864.255	69.27
864.424	61.72
864.592	61.13
864.76	71.82
864.928	71.08
865.096	68.88
865.264	73.54
865.432	65.07
865.6	50.45
865.768	45.19
865.936	31.61
866.104	31.72
866.272	44.25
866.44	13.86
866.608	22.96
866.776	49.69
866.944	39.37
867.112	11.09
867.28	0.64
867.448	11.49
867.615	54.39
867.783	47.62
867.951	59.34
868.119	81.91
868.286	90.13
868.454	82.86
868.622	86.66
868.789	93.69
868.957	85.29
869.125	69.28
869.292	58.01
869.46	73.82
869.627	53.94
869.795	52.51
869.963	8.43
870.13	26.04
870.298	16.74
870.465	-5.42
870.632	-27.33
870.8	-4.31
870.967	6.41
871.135	29.25
871.302	31.73
871.469	23.23
871.637	24.78
871.804	33.28
871.971	43.35
872.139	46.19
872.306	39.59
872.473	22.35
872.64	35.79
872.807	53.02
872.975	68.75
873.142	30.97
873.309	56.44
873.476	112.92
873.643	180.84
873.81	216.34
873.977	125.65
874.144	106.46
874.311	116.15
874.478	34.12
874.645	23.06
874.812	22.08
874.979	-21.6
875.146	-37.12
875.313	-49.01
875.48	32.13
875.647	-3.36
875.813	10.17
875.98	14.38
876.147	65.51
876.314	82.07
876.481	48.82
876.647	41.87
876.814	59.36
876.981	43.98
877.147	37.54
877.314	15.83
877.481	28.24
877.647	47.28
877.814	33.93
877.98	16.79
878.147	46.63
878.314	61.69
878.48	70.32
878.647	70.73
878.813	68.31
878.979	62.41
879.146	56.39
879.312	70.03
879.479	41.74
879.645	13.87
879.811	-6.01
879.978	-3.47
880.144	12.93
880.31	1.82
880.477	-64.48
880.643	-165.58
880.809	2.48
880.975	-32.72
881.142	-21.29
881.308	-20.3
881.474	12.89
881.64	-7.27
881.806	14.93
881.972	18.24
882.138	5.12
882.304	-58.59
882.47	-62.66
882.636	-109.98
882.802	-104.79
882.968	-193.44
883.134	-436.81
883.3	-164.67
883.466	-46.07
883.632	-40.4
883.798	-23.01
883.964	-18.64
884.129	19.96
884.295	23.41
884.461	31.65
884.627	53.78
884.793	67.59
884.958	69.66
885.124	38.67
885.29	19.3
885.455	52.25
885.621	43.85
885.787	21.9
885.952	2.32
886.118	20.11
886.283	49.34
886.449	33.29
886.614	47.16
886.78	57.13
886.945	48.43
887.111	60.3
887.276	19.42
887.442	5.55
887.607	23.85
887.773	-19.85
887.938	-66.08
888.103	-7.9
888.269	0.05
888.434	10.9
888.599	25.56
888.764	29.62
888.93	53.48
889.095	52.65
889.26	46.14
889.425	75.61
889.59	45.85
889.756	41.64
889.921	20.3
890.086	19.28
890.251	24.75
890.416	-7.09
890.581	-25.13
890.746	-35.73
890.911	-92.15
891.076	-107.77
891.241	-106.85
891.406	-2.77
891.571	1.35
891.736	2.36
891.901	69.02
892.065	91.61
892.23	79.34
892.395	32.55
892.56	13.26
892.725	31.55
892.889	-4.74
893.054	-53.79
893.219	-75.52
893.384	-79.6
893.548	-53.33
893.713	113.86
893.878	173.91
