Data from Ofra_PS_T2_2A_9CX05_Reflection_3.txt Node
Date: Wed Jul 21 17:25:48 EDT 2021
User: Adam
Spectrometer: FLMT01687
Trigger mode: 0
Integration Time (sec): 1.100000E0
Scans to average: 2
Electric dark correction enabled: true
Nonlinearity correction enabled: false
Boxcar width: 2
XAxis mode: Wavelengths
Number of Pixels in Spectrum: 3648
>>>>>Begin Spectral Data<<<<<
179.494	719.2
179.716	791.06
179.937	764.11
180.158	742.75
180.38	1142.5
180.601	448.07
180.823	95.4
181.044	-69.19
181.265	102.21
181.486	104.83
181.708	158.2
181.929	1385.71
182.15	-795.77
182.372	39.19
182.593	79.09
182.814	75.22
183.035	103.65
183.257	83.45
183.478	5.53
183.699	48.1
183.92	20.32
184.141	25.1
184.363	-40.4
184.584	5.63
184.805	-9.34
185.026	35.83
185.247	23.55
185.468	22.89
185.689	27.93
185.91	32.45
186.132	23.9
186.353	35.22
186.574	106.13
186.795	51.9
187.016	0.87
187.237	-7.38
187.458	-49.39
187.679	-68.64
187.9	-24.09
188.121	-8.71
188.342	-12.3
188.563	47.32
188.784	97.08
189.005	99.26
189.226	139.89
189.447	133.55
189.667	130.58
189.888	-290.15
190.109	-928.57
190.33	-569.68
190.551	-1169.03
190.772	-271.91
190.993	-197.14
191.214	-212.45
191.434	-144.66
191.655	-68.96
191.876	-143.52
192.097	-176.92
192.318	-208.61
192.538	-317.89
192.759	-181.22
192.98	-83.8
193.201	-38.09
193.421	-15.49
193.642	13.94
193.863	3.23
194.083	-7.48
194.304	-9
194.525	-17.97
194.745	-34.89
194.966	-30.16
195.187	-47.53
195.407	-55.62
195.628	-86.56
195.848	-117.43
196.069	-120.74
196.29	-75.34
196.51	-89.88
196.731	-95.69
196.951	-101.71
197.172	-125.18
197.392	-164.19
197.613	-145.97
197.833	-136.92
198.054	-126.63
198.274	-71.43
198.495	-72.34
198.715	-41.98
198.936	-79.5
199.156	-76.69
199.377	-168.9
199.597	-151.47
199.817	-173.76
200.038	-74.81
200.258	-110.99
200.479	-11.39
200.699	-1.24
200.919	56.7
201.14	23.09
201.36	2.65
201.58	22.26
201.801	48.15
202.021	5.44
202.241	-12.1
202.461	-17.61
202.682	-133.25
202.902	-237.9
203.122	-148.54
203.342	-114.93
203.563	-73.12
203.783	-24.93
204.003	-50.91
204.223	-76.55
204.443	-9.58
204.663	-14.13
204.884	-10.07
205.104	30.36
205.324	79.47
205.544	77.51
205.764	97.78
205.984	90.71
206.204	90.15
206.424	64.77
206.644	27.74
206.864	-4.31
207.084	-57.57
207.304	-87.31
207.525	-190.63
207.745	-96.44
207.964	-24.23
208.184	-54.99
208.404	-110.12
208.624	-113.4
208.844	-104.36
209.064	-417.74
209.284	-440.93
209.504	-199.44
209.724	-49.51
209.944	-21.2
210.164	23.73
210.384	32.59
210.604	17.61
210.823	-59.41
211.043	-93.58
211.263	-76.32
211.483	-83.32
211.703	-130.97
211.922	-95.23
212.142	-11.95
212.362	-12.76
212.582	-35.3
212.801	-27.02
213.021	-41.98
213.241	-76.16
213.461	-111.87
213.68	-119.87
213.9	-73.38
214.12	-34.31
214.339	-97.88
214.559	-82.99
214.779	-19.64
214.998	-36.2
215.218	-97.82
215.438	-30.94
215.657	-35.58
215.877	-56.57
216.096	-16.61
216.316	9.22
216.535	-32.89
216.755	-35.33
216.974	-107.69
217.194	-133.55
217.413	-162.5
217.633	-145.05
217.852	-218.43
218.072	-105.26
218.291	-82.41
218.511	-30.11
218.73	-56.59
218.95	-39.34
219.169	-49.68
219.389	-74.25
219.608	-52.42
219.827	-21.09
220.047	-12.96
220.266	2.66
220.485	5.86
220.705	-12.34
220.924	-32.39
221.143	18.9
221.363	-4.57
221.582	9.64
221.801	42.76
222.021	59.26
222.24	32.54
222.459	150.6
222.678	67.65
222.897	-24.84
223.117	-88.59
223.336	-83.23
223.555	-88.4
223.774	-36.46
223.993	-5.3
224.213	50.6
224.432	28.41
224.651	56.52
224.87	22.97
225.089	31.06
225.308	22.9
225.527	34.74
225.746	16.55
225.965	17.91
226.184	-5.48
226.404	10.95
226.623	-32.97
226.842	-19.66
227.061	14.86
227.28	25.56
227.499	12.08
227.718	46.43
227.936	41
228.155	24.3
228.374	-0.29
228.593	0.96
228.812	2.33
229.031	-19.29
229.25	-54.97
229.469	-53.51
229.688	-12.12
229.907	0.84
230.125	28.98
230.344	39.1
230.563	48.42
230.782	36.04
231.001	-53.14
231.22	-52.33
231.438	-22.76
231.657	-28.46
231.876	-35.26
232.095	24.45
232.313	31.53
232.532	7.2
232.751	-15.91
232.969	-53.72
233.188	-140.9
233.407	-60.47
233.625	-41.96
233.844	-52.38
234.063	-21.53
234.281	5.54
234.5	5.78
234.719	9.02
234.937	33.29
235.156	34.49
235.374	30.42
235.593	11.41
235.811	4.98
236.03	-8.86
236.249	-46.61
236.467	-53.19
236.686	-12
236.904	4.44
237.123	-27.07
237.341	-17.19
237.559	-6.86
237.778	-28.34
237.996	-63.66
238.215	0.51
238.433	1.25
238.652	-21.38
238.87	-34.01
239.088	-12.02
239.307	-25.4
239.525	-39.6
239.743	-55.64
239.962	-33.71
240.18	-53.65
240.398	-100.48
240.617	-90.37
240.835	-44.16
241.053	-34.7
241.271	26.73
241.49	36.26
241.708	7.05
241.926	-47.5
242.144	-51.06
242.363	-113.67
242.581	-148.56
242.799	-81.24
243.017	-12.7
243.235	-44.08
243.453	-30.31
243.672	-22.22
243.89	-17.9
244.108	-43.77
244.326	-0.38
244.544	-3.49
244.762	-3.15
244.98	-1.78
245.198	15.09
245.416	-29.54
245.634	-15.91
245.852	-30.8
246.07	-19.17
246.288	-26.73
246.506	-39.21
246.724	-32.31
246.942	-14.7
247.16	11.41
247.378	23.05
247.596	45.8
247.814	43.13
248.032	23.21
248.25	11.19
248.468	3.04
248.685	20.19
248.903	35.31
249.121	35.02
249.339	4.97
249.557	-5.05
249.775	-10.54
249.992	-88.9
250.21	-90.73
250.428	-73.74
250.646	-114.32
250.863	-137.17
251.081	-83.9
251.299	-70.12
251.517	-60.82
251.734	-35.11
251.952	-36.34
252.17	-26.07
252.387	-12.2
252.605	-23.45
252.823	-11.55
253.04	7.89
253.258	19
253.475	17.27
253.693	46.93
253.911	42.95
254.128	51.62
254.346	43.5
254.563	13.71
254.781	-23.21
254.998	-56.61
255.216	-62.71
255.433	-48.93
255.651	-9.6
255.868	40.06
256.086	69.33
256.303	45.71
256.521	31.96
256.738	6.18
256.956	-33.86
257.173	-53.12
257.39	-75.99
257.608	-93.19
257.825	-39.2
258.043	0.64
258.26	4.47
258.477	51.47
258.695	37.39
258.912	-12.07
259.129	-1.85
259.346	-34.22
259.564	-74.04
259.781	-100.19
259.998	-12.67
260.216	6.35
260.433	48.27
260.65	50.06
260.867	80.34
261.084	38.6
261.302	1.49
261.519	-19.95
261.736	-54.56
261.953	-70.43
262.17	-21.73
262.387	-46.53
262.604	-100.17
262.822	-92.06
263.039	-75.67
263.256	-140.19
263.473	-96.27
263.69	-34.94
263.907	7.21
264.124	7.94
264.341	11.34
264.558	9.09
264.775	25.16
264.992	6.44
265.209	3.32
265.426	22.51
265.643	26
265.86	31.37
266.077	33.02
266.294	36.79
266.51	-18.33
266.727	-17.24
266.944	-27.24
267.161	-35.22
267.378	-31.81
267.595	3.74
267.812	-26.62
268.028	-53.97
268.245	-19.48
268.462	-47.95
268.679	-62.72
268.896	-1.79
269.112	5.42
269.329	-3.14
269.546	12.96
269.763	16.62
269.979	-8.54
270.196	-4.32
270.413	-22.13
270.629	-48.21
270.846	-57.28
271.063	-52.97
271.279	-106.91
271.496	-108.27
271.712	-49.69
271.929	-14.55
272.146	-35.49
272.362	19
272.579	59.07
272.795	41.27
273.012	30.9
273.228	57.43
273.445	25.59
273.661	-4.17
273.878	-47.65
274.094	-56.33
274.311	-91.6
274.527	-18.19
274.744	-10.72
274.96	-3.65
275.177	11.17
275.393	21.09
275.609	9.81
275.826	25.52
276.042	13.48
276.259	2.68
276.475	23.28
276.691	22.57
276.908	-5.37
277.124	5.43
277.34	-6.4
277.557	-20.84
277.773	-24.08
277.989	-17.6
278.205	-17
278.422	-4.23
278.638	2.71
278.854	18.79
279.07	12.81
279.286	-8.39
279.503	-43.27
279.719	-55.57
279.935	-89.05
280.151	-107.99
280.367	-67.48
280.583	-72.52
280.799	-59.47
281.016	-62.21
281.232	-23.48
281.448	-3.74
281.664	20.06
281.88	-10.06
282.096	2.39
282.312	26.13
282.528	20.87
282.744	23.13
282.96	33.01
283.176	17.88
283.392	8.77
283.608	-13.14
283.824	-14.3
284.04	-19.7
284.256	-7.34
284.471	-15.15
284.687	-6.34
284.903	4.3
285.119	38.52
285.335	3.11
285.551	11.86
285.767	9.63
285.982	11.07
286.198	-21.75
286.414	45.62
286.63	45.23
286.846	53.53
287.061	27.86
287.277	56.27
287.493	19.73
287.709	17.24
287.924	-0.89
288.14	31.88
288.356	22.53
288.571	52.59
288.787	30.17
289.003	28.27
289.218	0.1
289.434	-38.99
289.65	-41.68
289.865	-28.4
290.081	12.75
290.296	26.13
290.512	27.74
290.727	-7.09
290.943	-18.03
291.159	-38.04
291.374	-37.83
291.59	-49.36
291.805	-36.07
292.021	-20.88
292.236	-19.83
292.451	-10.48
292.667	1.23
292.882	22.09
293.098	8.39
293.313	-15.63
293.529	-9.41
293.744	-37.2
293.959	-53.49
294.175	-38.15
294.39	8.91
294.605	8.86
294.821	39.28
295.036	38.5
295.251	38.83
295.467	19.04
295.682	17.2
295.897	-37.86
296.112	-42.62
296.328	-33.77
296.543	-71.56
296.758	-52.34
296.973	-1.04
297.188	34.32
297.404	5.61
297.619	4.84
297.834	-15.05
298.049	-29.53
298.264	-73.7
298.479	-2.46
298.694	14.48
298.909	26.92
299.125	27.28
299.34	54.73
299.555	19.04
299.77	27.03
299.985	-20.93
300.2	-70.86
300.415	-97.58
300.63	-65.51
300.845	-72.06
301.06	-56.91
301.275	-21.08
301.49	5.49
301.704	1.24
301.919	-30.95
302.134	-48.76
302.349	-55.23
302.564	-139.91
302.779	-213.57
302.994	-158.15
303.209	-76.97
303.423	-27.39
303.638	22.64
303.853	4.18
304.068	-8.4
304.283	-13.45
304.497	-22.77
304.712	-27.02
304.927	-10.24
305.142	-13.81
305.356	-2.53
305.571	2.21
305.786	-8.7
306	-11.31
306.215	1.92
306.43	-36.87
306.644	-46.89
306.859	-9.93
307.074	-13.92
307.288	-54.3
307.503	-46.81
307.717	-40.7
307.932	-45.48
308.147	-49.47
308.361	-8.55
308.576	-12.77
308.79	-56.15
309.005	-58.09
309.219	-38.42
309.434	-59.91
309.648	-47.52
309.863	-7.13
310.077	-4.99
310.292	-13.58
310.506	-7.49
310.72	3.62
310.935	3.8
311.149	8.4
311.364	30.16
311.578	33.03
311.792	13.27
312.007	24.97
312.221	5.96
312.435	2.31
312.649	-6.16
312.864	-34.08
313.078	-53.84
313.292	-8.89
313.507	-61.91
313.721	-48.98
313.935	25.51
314.149	38.47
314.363	20.49
314.578	15.79
314.792	11.07
315.006	-3.79
315.22	8.85
315.434	17.86
315.648	27.8
315.862	15.03
316.077	26.84
316.291	-7.62
316.505	-21.65
316.719	-32.29
316.933	-30.31
317.147	-54.49
317.361	-76.86
317.575	-82.87
317.789	-105.51
318.003	-148.41
318.217	-97.24
318.431	-25.04
318.645	11.18
318.859	11.08
319.073	35.66
319.287	22.17
319.5	-12.64
319.714	-60.57
319.928	-107.45
320.142	-133.28
320.356	-94.84
320.57	-56.76
320.784	-54.82
320.997	-28.04
321.211	-42.09
321.425	-89.63
321.639	-103.33
321.853	-35.58
322.066	-14.93
322.28	-17.28
322.494	0.12
322.707	21.15
322.921	-0.58
323.135	-10.75
323.349	15.58
323.562	-8.91
323.776	-24.54
323.989	-32.75
324.203	-53.76
324.417	-61.57
324.63	-70.06
324.844	-70.11
325.057	-72.51
325.271	-46.99
325.485	-24.7
325.698	-0.35
325.912	28.88
326.125	11.42
326.339	19.02
326.552	-5.43
326.766	-12.38
326.979	-21.55
327.193	22.45
327.406	-4.9
327.619	0.1
327.833	19.7
328.046	-7.46
328.26	-45
328.473	-6.28
328.686	-37.6
328.9	-33.56
329.113	-10.87
329.326	-5.55
329.54	-5.57
329.753	5.76
329.966	-38.97
330.179	-40.07
330.393	-40.83
330.606	-34.68
330.819	-21.24
331.032	3.71
331.246	9.34
331.459	43.33
331.672	27.99
331.885	24.76
332.098	-1.57
332.311	-17.37
332.525	-80.46
332.738	-68.59
332.951	-36.26
333.164	-5.68
333.377	15.99
333.59	33.91
333.803	32.25
334.016	23.36
334.229	22.65
334.442	1.3
334.655	17.25
334.868	27.47
335.081	17.82
335.294	2.3
335.507	-5.73
335.72	-12.77
335.933	-13.72
336.146	-9.96
336.359	-2.87
336.572	-22.03
336.785	-51.78
336.997	-49.9
337.21	-13.06
337.423	-13.65
337.636	-5.33
337.849	13.98
338.062	6.17
338.274	-1.81
338.487	-8.51
338.7	10.6
338.913	-23.13
339.125	-55.72
339.338	-121.08
339.551	-90.57
339.763	-68.69
339.976	-31.44
340.189	-6.46
340.402	14.75
340.614	4.09
340.827	-4.53
341.039	-27.58
341.252	-11.49
341.465	-6.01
341.677	-8.51
341.89	-44.76
342.102	-8.74
342.315	-37.28
342.527	-70.18
342.74	-60.11
342.952	-19.13
343.165	-19.66
343.377	15.31
343.59	16.67
343.802	25.21
344.015	31.57
344.227	37.4
344.44	16.13
344.652	18.18
344.864	7.15
345.077	24.52
345.289	21.07
345.502	24.74
345.714	19.68
345.926	21.14
346.139	2.98
346.351	-0.05
346.563	5.32
346.775	12.65
346.988	-3.51
347.2	-35.62
347.412	-77.16
347.624	-94.82
347.837	-124.94
348.049	-98.02
348.261	-30.83
348.473	-4.35
348.685	-11.83
348.897	-9.66
349.11	-19.59
349.322	-59.8
349.534	-46.9
349.746	-37.52
349.958	-17.42
350.17	-23.15
350.382	15.7
350.594	5.32
350.806	8.56
351.018	-14.77
351.23	-21.45
351.442	-79.03
351.654	-91.03
351.866	-78.69
352.078	-36.06
352.29	-16.86
352.502	10.99
352.714	14.3
352.926	5.4
353.138	-7.5
353.35	-12.21
353.561	-16.17
353.773	-21.78
353.985	-7.24
354.197	-3.86
354.409	-5.36
354.621	-20.23
354.832	-12.11
355.044	-32.95
355.256	-35.92
355.468	-14.65
355.679	-13.45
355.891	-3.52
356.103	-11.24
356.314	-1.41
356.526	-12.39
356.738	4.82
356.949	-26.03
357.161	-13.57
357.373	-22.29
357.584	-26.36
357.796	-24.78
358.008	-21.43
358.219	2.25
358.431	-1.53
358.642	1.32
358.854	1.22
359.065	-3.06
359.277	-20.85
359.488	-26.37
359.7	-46.28
359.911	-66.58
360.123	-40.82
360.334	-64.47
360.546	-82.92
360.757	-71.35
360.969	-58.14
361.18	-57.65
361.391	-24.55
361.603	-22.69
361.814	-10.53
362.025	-15.5
362.237	-22.73
362.448	-10.66
362.659	23.81
362.871	16.15
363.082	16.63
363.293	14.93
363.504	-12.37
363.716	-45.13
363.927	-55.23
364.138	-73.61
364.349	-85.78
364.56	-59.13
364.772	-55.07
364.983	-22.73
365.194	-16.2
365.405	-2.51
365.616	18.53
365.827	22.66
366.038	-7.1
366.25	-4.12
366.461	-33.76
366.672	-29.77
366.883	-20.12
367.094	-6.52
367.305	-17.58
367.516	-3.28
367.727	-38.09
367.938	-49.33
368.149	-48.08
368.36	-27.67
368.571	-29.41
368.781	-38.88
368.992	-45.33
369.203	-57.53
369.414	-70.5
369.625	-69.99
369.836	-51.23
370.047	-77.31
370.258	-67.48
370.468	-68.39
370.679	-76.12
370.89	-63.81
371.101	-35.67
371.312	-33.44
371.522	-36.77
371.733	-29.65
371.944	-17.72
372.155	-4.98
372.365	-8.46
372.576	-4.91
372.787	6.57
372.997	-16.44
373.208	-25.28
373.419	1.36
373.629	-20.36
373.84	-38.38
374.05	-50.59
374.261	-25.92
374.472	-58.15
374.682	2.38
374.893	11.26
375.103	44.7
375.314	30.25
375.524	30.26
375.735	15.44
375.945	12.8
376.156	-16.47
376.366	-15.39
376.577	-5.41
376.787	-15.61
376.997	-11.62
377.208	-6.28
377.418	-18.04
377.629	-14.47
377.839	-12.85
378.049	-11.34
378.26	8.41
378.47	19.17
378.68	3.93
378.89	0.74
379.101	-6.55
379.311	-47.88
379.521	-81.18
379.732	-78.33
379.942	-72.23
380.152	-87.65
380.362	-40.46
380.572	-32.94
380.783	-19.06
380.993	-1.36
381.203	16.81
381.413	24.12
381.623	26.76
381.833	29.08
382.043	2.89
382.253	-9.11
382.463	-16.75
382.674	-28.16
382.884	-52.37
383.094	-43.58
383.304	-33.17
383.514	-29.2
383.724	-12.54
383.934	-15.2
384.144	-15.03
384.353	-21.33
384.563	-22.81
384.773	-20
384.983	-13.23
385.193	0.3
385.403	7.12
385.613	10.07
385.823	0.76
386.033	3.45
386.242	-11.15
386.452	-16.8
386.662	-28.98
386.872	-17.3
387.082	-23.33
387.291	-21.65
387.501	-21.77
387.711	-8.29
387.921	-15.74
388.13	-15.06
388.34	-2.1
388.55	-7.78
388.759	-9.96
388.969	-5.64
389.179	-7.49
389.388	-11.91
389.598	-4.51
389.807	-12.25
390.017	-16.4
390.227	-15.52
390.436	-20.12
390.646	-18.04
390.855	-13.82
391.065	-12.79
391.274	-14.69
391.484	-15.43
391.693	-14.65
391.903	-13.31
392.112	-6.37
392.322	-1.9
392.531	3.87
392.74	4.85
392.95	1.91
393.159	-0.35
393.369	-0.55
393.578	-2.89
393.787	-4.74
393.997	-3.41
394.206	-5.03
394.415	-4.91
394.625	-4.48
394.834	-6.01
395.043	-4.38
395.252	-2.34
395.462	0.1
395.671	1.19
395.88	2.48
396.089	3.8
396.298	1.85
396.508	1.28
396.717	-0.35
396.926	-0.2
397.135	-1.17
397.344	-0.62
397.553	0.02
397.762	1.99
397.971	1.82
398.181	1.98
398.39	1.07
398.599	0.23
398.808	0
399.017	0.68
399.226	2.1
399.435	3.6
399.644	3.61
399.853	2.77
400.062	2.03
400.27	1.03
400.479	0.45
400.688	-0.24
400.897	0.21
401.106	0.57
401.315	0.23
401.524	0.34
401.733	1.14
401.941	1.87
402.15	1.91
402.359	1.99
402.568	2.23
402.777	2.15
402.985	1.36
403.194	1.26
403.403	1.36
403.612	1.02
403.82	0.78
404.029	1.22
404.238	1.02
404.446	1.23
404.655	1.09
404.864	1.34
405.072	1.04
405.281	1.36
405.489	1.19
405.698	1.24
405.906	1.03
406.115	1.16
406.324	1.02
406.532	1.14
406.741	1.5
406.949	1.5
407.158	1.39
407.366	1.43
407.574	1.31
407.783	1.09
407.991	1.01
408.2	1.21
408.408	1.24
408.617	1.14
408.825	1.07
409.033	1.26
409.242	1.23
409.45	1.52
409.658	1.57
409.867	1.78
410.075	1.55
410.283	1.4
410.491	1.1
410.7	0.99
410.908	0.82
411.116	1.23
411.324	1.25
411.533	1.2
411.741	1.45
411.949	1.49
412.157	1.07
412.365	1.05
412.573	1.04
412.781	1
412.99	0.98
413.198	1.2
413.406	1.24
413.614	1.24
413.822	1.13
414.03	1.08
414.238	0.83
414.446	0.91
414.654	0.86
414.862	0.96
415.07	1.07
415.278	1.35
415.486	1.15
415.694	1.32
415.902	1.23
416.109	1.19
416.317	1.16
416.525	1.04
416.733	0.92
416.941	1.03
417.149	0.86
417.357	0.93
417.564	1.19
417.772	1.49
417.98	1.43
418.188	1.45
418.395	1.47
418.603	1.56
418.811	1.05
419.019	0.98
419.226	1.22
419.434	1.29
419.642	1.03
419.849	1.36
420.057	1.37
420.265	1.36
420.472	0.95
420.68	1.13
420.887	0.95
421.095	1.03
421.302	0.86
421.51	1.23
421.717	1.16
421.925	1.24
422.132	1.12
422.34	0.99
422.547	0.91
422.755	0.85
422.962	0.77
423.17	0.68
423.377	0.83
423.585	0.86
423.792	0.9
423.999	0.9
424.207	0.92
424.414	0.96
424.621	0.84
424.829	0.87
425.036	0.94
425.243	1.18
425.451	1.09
425.658	0.98
425.865	1.14
426.072	1.1
426.28	1.29
426.487	1.3
426.694	1.36
426.901	1.03
427.108	1.06
427.315	0.81
427.523	1.06
427.73	1.07
427.937	1.15
428.144	1.04
428.351	1
428.558	1.09
428.765	0.94
428.972	0.87
429.179	1.07
429.386	1.41
429.593	1.07
429.8	1.11
430.007	1.22
430.214	1.23
430.421	0.96
430.628	0.83
430.835	0.67
431.042	0.83
431.249	0.74
431.456	0.7
431.662	0.89
431.869	1.17
432.076	1.11
432.283	1.22
432.49	1.22
432.697	1.23
432.903	1.01
433.11	0.91
433.317	1
433.524	1.26
433.73	1.18
433.937	1.58
434.144	1.48
434.35	1.35
434.557	1.07
434.764	1.14
434.97	0.89
435.177	1.14
435.384	1.12
435.59	1.26
435.797	1.4
436.003	1.53
436.21	1.52
436.416	1.58
436.623	1.52
436.829	1.55
437.036	1.53
437.242	1.52
437.449	1.34
437.655	1.34
437.862	1.26
438.068	1.2
438.275	1.28
438.481	1.62
438.687	1.71
438.894	1.69
439.1	1.75
439.307	1.9
439.513	1.65
439.719	1.54
439.926	1.71
440.132	1.77
440.338	1.47
440.544	1.67
440.751	1.59
440.957	1.5
441.163	1.32
441.369	1.51
441.575	1.27
441.782	1.29
441.988	1.14
442.194	1.14
442.4	1.06
442.606	1.46
442.812	1.53
443.018	1.7
443.224	1.83
443.431	1.93
443.637	1.58
443.843	1.48
444.049	1.49
444.255	1.33
444.461	1.33
444.667	1.38
444.873	1.57
445.079	1.57
445.284	1.7
445.49	1.42
445.696	1.3
445.902	1.16
446.108	1.09
446.314	1.03
446.52	1.13
446.726	1.36
446.931	1.4
447.137	1.5
447.343	1.57
447.549	1.52
447.755	1.35
447.96	1.46
448.166	1.32
448.372	1.18
448.578	1.26
448.783	1.31
448.989	1.31
449.195	1.59
449.4	1.67
449.606	1.6
449.812	1.51
450.017	1.56
450.223	1.31
450.428	1.24
450.634	1.47
450.84	1.61
451.045	1.46
451.251	1.42
451.456	1.73
451.662	1.78
451.867	1.79
452.073	1.76
452.278	1.88
452.483	1.92
452.689	1.69
452.894	1.71
453.1	1.84
453.305	1.78
453.51	1.62
453.716	1.63
453.921	1.65
454.127	1.55
454.332	1.49
454.537	1.47
454.742	1.49
454.948	1.42
455.153	1.48
455.358	1.56
455.563	1.72
455.769	1.86
455.974	1.88
456.179	1.76
456.384	1.79
456.589	1.69
456.795	1.46
457	1.37
457.205	1.61
457.41	1.55
457.615	1.47
457.82	1.5
458.025	1.61
458.23	1.43
458.435	1.47
458.64	1.47
458.845	1.7
459.05	1.68
459.255	1.67
459.46	1.68
459.665	1.71
459.87	1.68
460.075	1.66
460.28	1.75
460.485	1.83
460.69	1.85
460.895	1.67
461.099	1.63
461.304	1.69
461.509	1.67
461.714	1.6
461.919	1.78
462.123	1.77
462.328	1.73
462.533	1.66
462.738	1.78
462.942	1.64
463.147	1.67
463.352	1.73
463.556	1.77
463.761	1.75
463.966	1.86
464.17	1.84
464.375	1.75
464.58	1.7
464.784	1.63
464.989	1.51
465.193	1.6
465.398	1.57
465.602	1.73
465.807	1.72
466.011	1.87
466.216	1.88
466.42	1.95
466.625	1.94
466.829	2.07
467.034	2.03
467.238	2.22
467.443	2.14
467.647	1.96
467.851	2.05
468.056	2.14
468.26	1.96
468.464	1.99
468.669	2.18
468.873	2.16
469.077	2.12
469.282	2.23
469.486	2.33
469.69	2.31
469.894	2.18
470.099	2.23
470.303	2.28
470.507	2.2
470.711	2.1
470.915	2.17
471.119	2.02
471.324	1.84
471.528	1.87
471.732	1.93
471.936	1.89
472.14	2.05
472.344	2.14
472.548	2.13
472.752	2.27
472.956	2.5
473.16	2.45
473.364	2.36
473.568	2.44
473.772	2.47
473.976	2.26
474.18	2.2
474.384	2.3
474.588	2.16
474.792	1.99
474.995	2.08
475.199	2.17
475.403	2.13
475.607	2.23
475.811	2.25
476.015	2.32
476.218	2.35
476.422	2.38
476.626	2.48
476.83	2.57
477.033	2.49
477.237	2.4
477.441	2.44
477.644	2.37
477.848	2.35
478.052	2.24
478.255	2.31
478.459	2.31
478.663	2.4
478.866	2.36
479.07	2.47
479.273	2.56
479.477	2.52
479.681	2.44
479.884	2.48
480.088	2.43
480.291	2.4
480.495	2.43
480.698	2.47
480.901	2.57
481.105	2.6
481.308	2.58
481.512	2.52
481.715	2.58
481.919	2.52
482.122	2.58
482.325	2.61
482.529	2.7
482.732	2.68
482.935	2.59
483.138	2.55
483.342	2.61
483.545	2.61
483.748	2.59
483.952	2.65
484.155	2.76
484.358	2.73
484.561	2.67
484.764	2.66
484.967	2.75
485.171	2.81
485.374	2.76
485.577	2.89
485.78	2.91
485.983	2.91
486.186	2.77
486.389	2.76
486.592	2.72
486.795	2.74
486.998	2.7
487.201	2.79
487.404	2.91
487.607	2.93
487.81	2.93
488.013	2.97
488.216	2.94
488.419	2.9
488.622	2.86
488.825	2.8
489.028	2.78
489.231	2.77
489.433	2.63
489.636	2.59
489.839	2.64
490.042	2.52
490.245	2.45
490.447	2.58
490.65	2.58
490.853	2.58
491.056	2.72
491.258	2.75
491.461	2.71
491.664	2.82
491.866	2.75
492.069	2.78
492.272	2.81
492.474	2.8
492.677	2.8
492.879	2.9
493.082	2.95
493.285	3.05
493.487	3.03
493.69	2.92
493.892	2.79
494.095	2.72
494.297	2.64
494.5	2.67
494.702	2.72
494.905	2.82
495.107	2.84
495.309	2.9
495.512	2.94
495.714	3.05
495.917	3.1
496.119	3.08
496.321	3.18
496.524	3.24
496.726	3.16
496.928	3.13
497.13	3.09
497.333	3.01
497.535	3.01
497.737	3.01
497.939	3.02
498.142	3.1
498.344	3.1
498.546	2.97
498.748	3.01
498.95	3.13
499.152	3.1
499.355	3.08
499.557	3.22
499.759	3.31
499.961	3.22
500.163	3.24
500.365	3.31
500.567	3.35
500.769	3.26
500.971	3.26
501.173	3.21
501.375	3.2
501.577	3.07
501.779	3.04
501.981	3.07
502.183	3.09
502.385	2.99
502.587	3.01
502.788	3.08
502.99	3.13
503.192	3.21
503.394	3.26
503.596	3.25
503.798	3.24
503.999	3.26
504.201	3.21
504.403	3.25
504.605	3.33
504.806	3.31
505.008	3.27
505.21	3.39
505.411	3.41
505.613	3.38
505.815	3.46
506.016	3.51
506.218	3.56
506.42	3.55
506.621	3.57
506.823	3.58
507.024	3.52
507.226	3.4
507.427	3.39
507.629	3.42
507.83	3.48
508.032	3.46
508.233	3.6
508.435	3.63
508.636	3.65
508.838	3.56
509.039	3.63
509.24	3.62
509.442	3.66
509.643	3.64
509.845	3.66
510.046	3.7
510.247	3.69
510.448	3.68
510.65	3.74
510.851	3.88
511.052	3.84
511.254	3.79
511.455	3.88
511.656	3.91
511.857	3.92
512.058	3.93
512.26	3.97
512.461	3.94
512.662	3.99
512.863	3.88
513.064	3.89
513.265	3.93
513.466	3.97
513.667	3.9
513.868	3.96
514.069	4.05
514.27	4.08
514.471	3.99
514.672	3.99
514.873	3.95
515.074	3.98
515.275	3.89
515.476	3.95
515.677	3.98
515.878	4.16
516.079	4.12
516.28	4.2
516.481	4.31
516.682	4.32
516.882	4.19
517.083	4.19
517.284	4.11
517.485	4.08
517.686	4.07
517.886	4.12
518.087	4.13
518.288	4.2
518.488	4.14
518.689	4.16
518.89	4.12
519.091	4.18
519.291	4.21
519.492	4.3
519.692	4.34
519.893	4.43
520.094	4.41
520.294	4.41
520.495	4.37
520.695	4.42
520.896	4.38
521.096	4.4
521.297	4.43
521.497	4.47
521.698	4.43
521.898	4.43
522.099	4.45
522.299	4.51
522.499	4.51
522.7	4.53
522.9	4.53
523.101	4.58
523.301	4.56
523.501	4.62
523.702	4.63
523.902	4.71
524.102	4.76
524.302	4.75
524.503	4.77
524.703	4.76
524.903	4.78
525.103	4.7
525.304	4.81
525.504	4.87
525.704	4.92
525.904	4.87
526.104	4.88
526.304	4.82
526.504	4.8
526.705	4.83
526.905	4.9
527.105	4.94
527.305	4.93
527.505	4.89
527.705	4.89
527.905	4.9
528.105	4.9
528.305	4.86
528.505	4.9
528.705	4.97
528.905	4.93
529.105	4.93
529.304	5.08
529.504	5.19
529.704	5.11
529.904	5.17
530.104	5.19
530.304	5.23
530.503	5.14
530.703	5.1
530.903	5.15
531.103	5.18
531.303	5.07
531.502	5.11
531.702	5.28
531.902	5.26
532.101	5.24
532.301	5.31
532.501	5.32
532.7	5.25
532.9	5.29
533.1	5.33
533.299	5.32
533.499	5.36
533.698	5.35
533.898	5.3
534.097	5.33
534.297	5.41
534.496	5.43
534.696	5.47
534.895	5.62
535.095	5.69
535.294	5.64
535.494	5.56
535.693	5.59
535.892	5.55
536.092	5.44
536.291	5.39
536.491	5.55
536.69	5.56
536.889	5.5
537.088	5.55
537.288	5.68
537.487	5.67
537.686	5.69
537.886	5.78
538.085	5.85
538.284	5.98
538.483	5.98
538.682	6.07
538.882	6.1
539.081	6.15
539.28	6.01
539.479	6.03
539.678	5.99
539.877	6.06
540.076	6.05
540.275	6.13
540.474	6.21
540.673	6.28
540.872	6.21
541.071	6.27
541.27	6.29
541.469	6.28
541.668	6.3
541.867	6.33
542.066	6.35
542.265	6.37
542.464	6.38
542.663	6.41
542.862	6.55
543.06	6.59
543.259	6.63
543.458	6.72
543.657	6.77
543.856	6.8
544.054	6.79
544.253	6.85
544.452	6.84
544.651	6.89
544.849	6.84
545.048	6.91
545.247	6.96
545.445	7.01
545.644	7
545.843	7
546.041	7.02
546.24	7.09
546.438	7.18
546.637	7.27
546.836	7.47
547.034	7.57
547.233	7.57
547.431	7.54
547.63	7.55
547.828	7.51
548.027	7.52
548.225	7.57
548.423	7.58
548.622	7.64
548.82	7.63
549.019	7.68
549.217	7.83
549.415	7.93
549.614	8.03
549.812	8.09
550.01	8.11
550.209	8.08
550.407	8.17
550.605	8.18
550.803	8.29
551.002	8.41
551.2	8.47
551.398	8.57
551.596	8.73
551.794	8.84
551.993	8.91
552.191	8.96
552.389	9
552.587	9
552.785	9
552.983	9.1
553.181	9.2
553.379	9.29
553.577	9.39
553.775	9.5
553.973	9.55
554.171	9.65
554.369	9.68
554.567	9.67
554.765	9.72
554.963	9.81
555.161	9.82
555.359	9.91
555.557	10.12
555.755	10.19
555.952	10.24
556.15	10.31
556.348	10.42
556.546	10.47
556.744	10.5
556.941	10.58
557.139	10.73
557.337	10.76
557.535	10.8
557.732	10.94
557.93	11.07
558.128	11.14
558.325	11.24
558.523	11.35
558.721	11.47
558.918	11.47
559.116	11.58
559.313	11.6
559.511	11.75
559.708	11.7
559.906	11.82
560.104	11.86
560.301	12.09
560.498	12.09
560.696	12.28
560.893	12.34
561.091	12.48
561.288	12.47
561.486	12.58
561.683	12.65
561.88	12.79
562.078	12.82
562.275	12.9
562.473	12.97
562.67	13.11
562.867	13.19
563.064	13.36
563.262	13.39
563.459	13.46
563.656	13.6
563.853	13.71
564.051	13.74
564.248	13.96
564.445	14.05
564.642	14.03
564.839	14.11
565.036	14.26
565.234	14.4
565.431	14.51
565.628	14.66
565.825	14.81
566.022	14.86
566.219	14.86
566.416	15.04
566.613	15.11
566.81	15.1
567.007	15.13
567.204	15.14
567.401	15.13
567.598	15.17
567.795	15.22
567.991	15.29
568.188	15.42
568.385	15.54
568.582	15.66
568.779	15.76
568.976	15.82
569.172	15.96
569.369	15.86
569.566	15.83
569.763	15.87
569.96	15.96
570.156	15.88
570.353	15.94
570.55	16.03
570.746	16.12
570.943	16.15
571.14	16.19
571.336	16.32
571.533	16.49
571.729	16.47
571.926	16.48
572.123	16.64
572.319	16.67
572.516	16.52
572.712	16.55
572.909	16.59
573.105	16.64
573.302	16.72
573.498	16.81
573.695	16.82
573.891	16.93
574.087	16.89
574.284	16.87
574.48	16.87
574.677	16.94
574.873	16.96
575.069	16.95
575.266	17.04
575.462	17.08
575.658	17.23
575.854	17.23
576.051	17.3
576.247	17.24
576.443	17.25
576.639	17.14
576.835	17.16
577.032	17.13
577.228	17.22
577.424	17.32
577.62	17.31
577.816	17.3
578.012	17.35
578.208	17.28
578.404	17.23
578.6	17.31
578.796	17.29
578.993	17.28
579.189	17.34
579.384	17.2
579.58	17.08
579.776	17.09
579.972	17.01
580.168	16.9
580.364	16.98
580.56	17
580.756	16.93
580.952	16.87
581.148	16.88
581.343	16.96
581.539	17.03
581.735	17.03
581.931	17.15
582.127	17.24
582.322	17.19
582.518	17.17
582.714	17.15
582.909	17.12
583.105	17.04
583.301	16.95
583.496	16.98
583.692	17.02
583.888	17.01
584.083	17.06
584.279	17.11
584.474	17.04
584.67	17.08
584.866	17.07
585.061	16.97
585.257	17.06
585.452	17.05
585.648	16.95
585.843	16.95
586.039	17.06
586.234	16.96
586.429	16.92
586.625	16.99
586.82	16.99
587.015	16.92
587.211	16.88
587.406	16.94
587.601	16.93
587.797	16.89
587.992	16.74
588.187	16.93
588.383	16.92
588.578	16.98
588.773	17.05
588.968	17.27
589.163	17.16
589.359	17.16
589.554	17.19
589.749	17.19
589.944	17.2
590.139	17.26
590.334	17.3
590.529	17.27
590.724	17.39
590.919	17.42
591.114	17.38
591.309	17.47
591.504	17.51
591.699	17.46
591.894	17.54
592.089	17.54
592.284	17.55
592.479	17.6
592.674	17.55
592.869	17.57
593.064	17.71
593.259	17.79
593.454	17.83
593.648	17.9
593.843	17.89
594.038	17.9
594.233	17.85
594.428	17.87
594.622	17.96
594.817	18.16
595.012	18.22
595.206	18.31
595.401	18.38
595.596	18.49
595.79	18.51
595.985	18.62
596.18	18.68
596.374	18.8
596.569	18.88
596.763	18.85
596.958	18.88
597.153	18.99
597.347	19.01
597.542	19.1
597.736	19.13
597.931	19.25
598.125	19.35
598.319	19.5
598.514	19.47
598.708	19.6
598.903	19.56
599.097	19.56
599.291	19.47
599.486	19.54
599.68	19.41
599.874	19.53
600.069	19.6
600.263	19.72
600.457	19.89
600.651	20.01
600.846	19.99
601.04	20.04
601.234	20.08
601.428	20.03
601.622	20.11
601.817	20.18
602.011	20.21
602.205	20.28
602.399	20.25
602.593	20.29
602.787	20.31
602.981	20.33
603.175	20.32
603.369	20.26
603.563	20.25
603.757	20.28
603.951	20.29
604.145	20.25
604.339	20.36
604.533	20.31
604.727	20.25
604.921	20.21
605.115	20.28
605.309	20.3
605.502	20.34
605.696	20.27
605.89	20.25
606.084	20.16
606.278	19.99
606.471	19.91
606.665	19.83
606.859	19.75
607.053	19.72
607.246	19.71
607.44	19.7
607.634	19.69
607.827	19.83
608.021	19.66
608.214	19.59
608.408	19.49
608.602	19.43
608.795	19.24
608.989	19.24
609.182	19.19
609.376	19.22
609.569	19.21
609.763	19.11
609.956	19.05
610.15	18.92
610.343	18.85
610.537	18.73
610.73	18.67
610.923	18.56
611.117	18.58
611.31	18.49
611.504	18.42
611.697	18.35
611.89	18.4
612.083	18.29
612.277	18.2
612.47	18.15
612.663	18.05
612.856	17.9
613.05	17.84
613.243	17.82
613.436	17.64
613.629	17.66
613.822	17.55
614.015	17.43
614.209	17.24
614.402	17.34
614.595	17.29
614.788	17.34
614.981	17.33
615.174	17.26
615.367	17.08
615.56	16.95
615.753	16.89
615.946	16.73
616.139	16.74
616.332	16.88
616.525	16.82
616.718	16.79
616.911	16.82
617.103	16.83
617.296	16.69
617.489	16.64
617.682	16.57
617.875	16.55
618.067	16.41
618.26	16.31
618.453	16.3
618.646	16.24
618.838	16.24
619.031	16.36
619.224	16.36
619.417	16.38
619.609	16.37
619.802	16.36
619.994	16.26
620.187	16.3
620.38	16.21
620.572	16.16
620.765	16.16
620.957	16.16
621.15	16.07
621.342	15.96
621.535	15.92
621.727	15.86
621.92	15.76
622.112	15.67
622.305	15.81
622.497	15.76
622.69	15.68
622.882	15.73
623.074	15.81
623.267	15.74
623.459	15.67
623.651	15.54
623.844	15.51
624.036	15.55
624.228	15.46
624.42	15.56
624.613	15.75
624.805	15.68
624.997	15.55
625.189	15.49
625.381	15.48
625.574	15.37
625.766	15.35
625.958	15.33
626.15	15.4
626.342	15.36
626.534	15.38
626.726	15.37
626.918	15.41
627.11	15.39
627.302	15.3
627.494	15.24
627.686	15.2
627.878	15.13
628.07	15.12
628.262	15.04
628.454	15.04
628.646	15.09
628.838	15.07
629.029	15.03
629.221	15.2
629.413	15.14
629.605	14.99
629.797	14.92
629.989	14.89
630.18	14.75
630.372	14.67
630.564	14.69
630.755	14.76
630.947	14.78
631.139	14.75
631.33	14.69
631.522	14.79
631.714	14.76
631.905	14.65
632.097	14.55
632.289	14.63
632.48	14.43
632.672	14.29
632.863	14.18
633.055	14.21
633.246	14.18
633.438	14.19
633.629	14.22
633.821	14.35
634.012	14.35
634.203	14.27
634.395	14.32
634.586	14.32
634.777	14.16
634.969	14.17
635.16	14.26
635.351	14.2
635.543	14.27
635.734	14.31
635.925	14.26
636.117	14.27
636.308	14.25
636.499	14.05
636.69	13.96
636.881	13.98
637.073	13.94
637.264	13.92
637.455	14
637.646	14.15
637.837	14.15
638.028	14.12
638.219	14.2
638.41	14.14
638.601	14.05
638.792	14.09
638.983	14.07
639.174	14.04
639.365	14.11
639.556	14.13
639.747	13.97
639.938	13.99
640.129	13.9
640.32	13.8
640.511	13.82
640.701	13.98
640.892	13.89
641.083	13.92
641.274	14.03
641.465	14.02
641.655	13.85
641.846	13.83
642.037	13.77
642.228	13.64
642.418	13.59
642.609	13.64
642.8	13.75
642.99	13.65
643.181	13.69
643.372	13.74
643.562	13.67
643.753	13.53
643.943	13.64
644.134	13.48
644.324	13.36
644.515	13.35
644.705	13.42
644.896	13.4
645.086	13.49
645.277	13.42
645.467	13.43
645.658	13.33
645.848	13.32
646.038	13.25
646.229	13.22
646.419	13.12
646.61	13.11
646.8	13.05
646.99	12.98
647.18	12.94
647.371	12.96
647.561	12.86
647.751	12.85
647.941	12.91
648.132	12.93
648.322	12.96
648.512	13.03
648.702	12.93
648.892	12.95
649.082	12.9
649.272	12.7
649.462	12.54
649.653	12.5
649.843	12.34
650.033	12.37
650.223	12.45
650.413	12.45
650.603	12.56
650.793	12.66
650.983	12.54
651.172	12.42
651.362	12.39
651.552	12.25
651.742	12.05
651.932	12.06
652.122	12.08
652.312	12.09
652.502	12
652.691	12
652.881	11.89
653.071	11.88
653.261	11.7
653.45	11.47
653.64	11.44
653.83	11.3
654.019	11.15
654.209	11.18
654.399	11.3
654.588	11.21
654.778	11.19
654.968	11.07
655.157	10.97
655.347	10.87
655.536	10.74
655.726	10.54
655.915	10.44
656.105	10.25
656.294	10.05
656.484	9.87
656.673	9.83
656.863	9.78
657.052	9.58
657.241	9.36
657.431	9.21
657.62	9.07
657.809	8.8
657.999	8.7
658.188	8.59
658.377	8.43
658.567	8.33
658.756	8.21
658.945	8.14
659.134	8.1
659.324	8.05
659.513	7.91
659.702	7.72
659.891	7.6
660.08	7.39
660.269	7.28
660.458	7.11
660.648	7.18
660.837	7.05
661.026	7.03
661.215	6.87
661.404	6.72
661.593	6.55
661.782	6.29
661.971	6.14
662.16	6.02
662.349	5.96
662.538	5.72
662.726	5.72
662.915	5.51
663.104	5.38
663.293	5.35
663.482	5.46
663.671	5.38
663.86	5.28
664.048	5.3
664.237	5.24
664.426	5.04
664.615	4.98
664.803	5.04
664.992	4.9
665.181	4.75
665.369	4.6
665.558	4.45
665.747	4.36
665.935	4.37
666.124	4.48
666.312	4.51
666.501	4.48
666.69	4.43
666.878	4.32
667.067	4.06
667.255	4.16
667.444	4.53
667.632	4.48
667.82	4.57
668.009	4.6
668.197	4.46
668.386	4.2
668.574	4.27
668.762	4.17
668.951	4.1
669.139	4.09
669.327	3.91
669.516	3.88
669.704	3.81
669.892	3.96
670.08	3.97
670.269	3.89
670.457	3.77
670.645	3.65
670.833	3.64
671.021	3.6
671.21	3.73
671.398	4
671.586	3.99
671.774	3.79
671.962	3.81
672.15	3.83
672.338	3.57
672.526	3.74
672.714	3.78
672.902	3.8
673.09	3.94
673.278	4.11
673.466	4.1
673.654	4.24
673.842	4.17
674.03	4.07
674.218	3.9
674.405	3.89
674.593	3.71
674.781	3.89
674.969	4
675.157	4.2
675.344	4.29
675.532	4.42
675.72	4.47
675.908	4.44
676.095	4.34
676.283	4.32
676.471	4.43
676.658	4.34
676.846	4.4
677.033	4.46
677.221	4.48
677.409	4.38
677.596	4.45
677.784	4.37
677.971	4.45
678.159	4.56
678.346	4.7
678.534	4.83
678.721	5.01
678.909	5.03
679.096	5.01
679.283	5.16
679.471	5.23
679.658	5.26
679.846	5.45
680.033	5.7
680.22	5.61
680.408	5.56
680.595	5.52
680.782	5.38
680.969	5.34
681.157	5.44
681.344	5.62
681.531	5.69
681.718	5.74
681.905	5.89
682.093	6.13
682.28	6.21
682.467	6.52
682.654	6.89
682.841	6.98
683.028	7.16
683.215	7.33
683.402	7.31
683.589	7.37
683.776	7.56
683.963	7.63
684.15	7.77
684.337	7.92
684.524	8.05
684.711	8.19
684.898	8.11
685.085	8.33
685.271	8.69
685.458	8.86
685.645	9.15
685.832	9.58
686.019	9.7
686.205	9.8
686.392	10.06
686.579	10.3
686.766	10.64
686.952	10.95
687.139	11.46
687.326	11.7
687.512	11.89
687.699	12.13
687.886	12.45
688.072	12.5
688.259	12.92
688.445	13.35
688.632	13.56
688.818	14.13
689.005	14.53
689.191	14.99
689.378	15.6
689.564	16.16
689.751	16.49
689.937	16.98
690.124	17.46
690.31	17.65
690.496	18.19
690.683	18.61
690.869	19.24
691.055	19.65
691.242	20.53
691.428	21.19
691.614	21.85
691.8	22.27
691.987	22.86
692.173	23.21
692.359	23.81
692.545	24.51
692.731	25.23
692.918	26.02
693.104	26.53
693.29	27.02
693.476	27.58
693.662	28.32
693.848	28.84
694.034	29.6
694.22	30.01
694.406	30.62
694.592	31.33
694.778	32
694.964	32.64
695.15	33.5
695.336	34.04
695.522	34.73
695.708	35.36
695.894	36.05
696.08	36.86
696.265	37.55
696.451	38.14
696.637	39.01
696.823	39.5
697.009	39.83
697.194	40.55
697.38	41.02
697.566	41.31
697.751	42.16
697.937	43.03
698.123	43.64
698.308	44.26
698.494	45.05
698.68	45.37
698.865	45.91
699.051	46.57
699.236	47.04
699.422	47.39
699.607	47.93
699.793	48.28
699.978	48.46
700.164	48.91
700.349	49.72
700.535	50.34
700.72	51
700.906	51.9
701.091	52.32
701.276	52.5
701.462	53.33
701.647	54.15
701.832	54.37
702.018	55
702.203	55.59
702.388	55.61
702.573	55.82
702.759	56.79
702.944	57.06
703.129	57.5
703.314	57.95
703.499	58.27
703.684	58.21
703.87	59.32
704.055	60.1
704.24	60.66
704.425	61.39
704.61	61.85
704.795	61.88
704.98	62
705.165	62.26
705.35	62.23
705.535	62.6
705.72	63.05
705.905	63.6
706.09	64.26
706.275	64.82
706.459	64.85
706.644	65.05
706.829	65.21
707.014	65.18
707.199	65.58
707.384	66.07
707.568	66.3
707.753	66.83
707.938	67.19
708.123	67.22
708.307	67.27
708.492	67.55
708.677	67.49
708.861	67.56
709.046	67.57
709.231	68.55
709.415	68.95
709.6	69.13
709.784	69.34
709.969	69.65
710.153	69.32
710.338	69.47
710.522	69.71
710.707	69.92
710.891	70.22
711.076	70.43
711.26	70.21
711.445	70.45
711.629	70.71
711.813	70.99
711.998	71.4
712.182	71.39
712.366	71.98
712.551	72.86
712.735	73.08
712.919	72.84
713.103	73.48
713.288	73.22
713.472	72.65
713.656	73.4
713.84	73.93
714.024	74.32
714.208	74.27
714.393	74.49
714.577	74.03
714.761	74.09
714.945	74.1
715.129	74.42
715.313	74.9
715.497	75.16
715.681	75.63
715.865	75.57
716.049	75.81
716.233	75.7
716.417	75.75
716.601	75.44
716.785	75.32
716.968	75.11
717.152	74.97
717.336	75.26
717.52	75.65
717.704	76.4
717.888	76.83
718.071	77.2
718.255	77.24
718.439	76.85
718.622	76.54
718.806	76.62
718.99	76.51
719.174	76.31
719.357	76.95
719.541	77.21
719.724	76.9
719.908	77.68
720.092	77.86
720.275	77.57
720.459	77.81
720.642	77.8
720.826	76.92
721.009	76.78
721.193	76.73
721.376	76.45
721.559	77.08
721.743	78.23
721.926	78.5
722.11	78.7
722.293	78.4
722.476	77.95
722.66	77.5
722.843	77.39
723.026	76.98
723.21	77.84
723.393	78.8
723.576	78.68
723.759	78.64
723.942	79.26
724.126	78.77
724.309	78.43
724.492	78.44
724.675	78.24
724.858	78.17
725.041	78.93
725.224	78.71
725.407	78.67
725.59	79.55
725.774	79.8
725.957	79.2
726.14	79.18
726.322	79.7
726.505	79.41
726.688	79.62
726.871	79.54
727.054	79.92
727.237	79.29
727.42	79.4
727.603	79.69
727.786	79.91
727.968	80.1
728.151	80.4
728.334	80.07
728.517	79.6
728.699	80.31
728.882	80.32
729.065	80.7
729.248	81.48
729.43	81.47
729.613	81.95
729.796	82.46
729.978	82.12
730.161	81.85
730.343	82.02
730.526	82.17
730.708	81.14
730.891	82.05
731.073	82.34
731.256	82.11
731.438	81.28
731.621	82.69
731.803	81.95
731.986	81.95
732.168	81.67
732.35	82.11
732.533	81.33
732.715	81.5
732.898	82.16
733.08	82.71
733.262	82.76
733.444	82.25
733.627	82.17
733.809	81.56
733.991	82.14
734.173	81.41
734.355	81.83
734.538	82.04
734.72	81.9
734.902	81.72
735.084	82.64
735.266	82.59
735.448	83.1
735.63	83.02
735.812	83.08
735.994	83.95
736.176	84.11
736.358	83.42
736.54	84.44
736.722	84.23
736.904	82.76
737.086	82.48
737.268	83.57
737.45	83.41
737.632	83.51
737.814	83.87
737.995	84.54
738.177	84.39
738.359	83.67
738.541	84.29
738.723	84.71
738.904	84.75
739.086	84.69
739.268	84.68
739.449	84.3
739.631	83.68
739.813	84.19
739.994	83.9
740.176	84.68
740.358	84.43
740.539	85.7
740.721	85.18
740.902	85.47
741.084	84.91
741.265	84.69
741.447	84.09
741.628	84.45
741.81	83.95
741.991	84.49
742.172	85.32
742.354	85.82
742.535	85.68
742.717	85.98
742.898	85.49
743.079	86.01
743.261	84.93
743.442	84.67
743.623	86.2
743.804	86.98
743.986	87.4
744.167	86.15
744.348	85.86
744.529	84.84
744.71	83.4
744.891	82.27
745.073	82.43
745.254	82.51
745.435	81.7
745.616	81.55
745.797	81.14
745.978	81.39
746.159	81.2
746.34	80.34
746.521	82.48
746.702	81.52
746.883	82.55
747.064	82.63
747.245	83.8
747.426	82.41
747.606	83.12
747.787	82.16
747.968	81.89
748.149	82.15
748.33	83.19
748.51	83.35
748.691	83.3
748.872	84.34
749.053	83.67
749.233	82.03
749.414	81.4
749.595	81.03
749.775	79.71
749.956	78.89
750.137	79.04
750.317	80.22
750.498	82.45
750.678	83.27
750.859	85.5
751.04	86.07
751.22	85.1
751.4	83.33
751.581	82.05
751.761	81.81
751.942	81.51
752.122	81.92
752.303	81.84
752.483	81.36
752.663	80.22
752.844	80.26
753.024	81.5
753.204	83.03
753.385	83.76
753.565	83.44
753.745	83.56
753.925	82.47
754.106	80.23
754.286	80.69
754.466	80.54
754.646	80.46
754.826	79.19
755.006	79.58
755.187	80.76
755.367	82.12
755.547	82.76
755.727	84.67
755.907	84.81
756.087	86.16
756.267	85.08
756.447	83.65
756.627	81.83
756.807	83.42
756.987	80.62
757.167	81.36
757.346	82.67
757.526	82.07
757.706	82.34
757.886	83.45
758.066	83.94
758.246	85.15
758.425	86.16
758.605	84.26
758.785	84.6
758.965	84.54
759.144	81.42
759.324	81.85
759.504	83.03
759.683	81.18
759.863	78.93
760.043	78.79
760.222	77.57
760.402	76.51
760.581	76.83
760.761	79.59
760.94	79.54
761.12	83.6
761.299	83.86
761.479	84.1
761.658	82.23
761.838	82.76
762.017	80.33
762.197	81.04
762.376	82.36
762.555	84.07
762.735	85.39
762.914	83.84
763.093	83.95
763.273	82.39
763.452	80.74
763.631	78.82
763.81	78.78
763.99	77.97
764.169	78.74
764.348	76.79
764.527	76.66
764.706	79.11
764.885	79.84
765.064	78.17
765.243	80.11
765.423	81.8
765.602	80.12
765.781	78.41
765.96	78.4
766.139	76.98
766.318	78.23
766.497	77.49
766.676	79.89
766.854	81.49
767.033	83.11
767.212	80.02
767.391	80.96
767.57	81.12
767.749	82.32
767.928	82.67
768.106	82.7
768.285	79.84
768.464	78.73
768.643	76.88
768.821	75.71
769	77.41
769.179	78.68
769.357	77.51
769.536	77.28
769.715	78.21
769.893	79.58
770.072	80.4
770.25	79.93
770.429	80.14
770.607	80.53
770.786	79.23
770.964	81.15
771.143	80.88
771.321	82.18
771.5	82.85
771.678	81.3
771.857	79.45
772.035	79.89
772.213	78.19
772.392	73.94
772.57	76.67
772.748	77.36
772.927	76.64
773.105	76.1
773.283	78.67
773.461	78.69
773.64	77.85
773.818	78.19
773.996	78.76
774.174	77.82
774.352	73.37
774.531	70.68
774.709	72.13
774.887	72.16
775.065	72.11
775.243	73.52
775.421	77.1
775.599	78.21
775.777	74.87
775.955	72.92
776.133	71.87
776.311	72.28
776.489	68.52
776.667	71.39
776.844	75.53
777.022	75.57
777.2	73.97
777.378	73.77
777.556	73.9
777.734	75.09
777.911	78.09
778.089	76.46
778.267	78.25
778.445	77.43
778.622	74.38
778.8	73.33
778.978	76.12
779.155	75.86
779.333	76.73
779.511	75.43
779.688	76.28
779.866	70.34
780.043	68.74
780.221	69.47
780.398	68.49
780.576	69
780.753	73.7
780.931	74.76
781.108	72
781.286	75.41
781.463	71.95
781.64	68.59
781.818	69.26
781.995	70.99
782.172	66.96
782.35	70.42
782.527	75.68
782.704	74.64
782.882	77.72
783.059	78.86
783.236	77.97
783.413	76.54
783.59	77.42
783.768	72.84
783.945	76.82
784.122	78.01
784.299	76.64
784.476	73.01
784.653	72.38
784.83	67.72
785.007	61.74
785.184	62.91
785.361	62.91
785.538	67.16
785.715	69.71
785.892	73.47
786.069	75.91
786.246	80.2
786.423	78.27
786.6	78.46
786.776	79.95
786.953	76.6
787.13	76.04
787.307	75.34
787.484	74.78
787.66	74.05
787.837	71.9
788.014	69.58
788.191	69.7
788.367	68.32
788.544	70.57
788.721	72.02
788.897	73.71
789.074	76.51
789.25	72.6
789.427	67.85
789.603	67.59
789.78	69.06
789.956	65.42
790.133	67.92
790.309	72.52
790.486	75.01
790.662	73.3
790.839	72.33
791.015	73.42
791.192	67.88
791.368	69.62
791.544	64.94
791.721	67.2
791.897	66.57
792.073	62.9
792.249	53.05
792.426	59
792.602	58.99
792.778	57.68
792.954	58.99
793.13	60.4
793.307	53.63
793.483	46.75
793.659	46.16
793.835	49.68
794.011	50.02
794.187	50.24
794.363	51.66
794.539	56.47
794.715	54.75
794.891	55.14
795.067	56.06
795.243	62.61
795.419	60.85
795.595	58.28
795.771	61.77
795.947	63.05
796.122	62.15
796.298	68.61
796.474	70.61
796.65	72.19
796.826	71.42
797.001	66.57
797.177	53.95
797.353	58.99
797.529	59.08
797.704	57
797.88	56.25
798.056	60.56
798.231	53.82
798.407	56.68
798.582	59.75
798.758	71.01
798.934	74.78
799.109	74.43
799.285	68.03
799.46	73.7
799.636	69.17
799.811	67.8
799.986	73.8
800.162	72.95
800.337	68.86
800.513	63.83
800.688	64.56
800.863	71.54
801.039	65.07
801.214	57.87
801.389	65.9
801.565	60.97
801.74	42.15
801.915	58.06
802.09	62.59
802.265	59.5
802.441	56.78
802.616	61.3
802.791	60.33
802.966	64.39
803.141	61.11
803.316	60.91
803.491	66.46
803.666	63.51
803.841	56.83
804.016	56.04
804.191	61.61
804.366	55.68
804.541	51.06
804.716	56.68
804.891	49.89
805.066	50.52
805.241	52.91
805.416	51.65
805.591	43.49
805.765	54.46
805.94	54.26
806.115	54.27
806.29	52.46
806.464	57.3
806.639	48.27
806.814	40.51
806.989	33.11
807.163	47.91
807.338	45.5
807.512	43.26
807.687	32.34
807.862	44.39
808.036	42.4
808.211	43.57
808.385	51.07
808.56	69.68
808.734	73.01
808.909	65.08
809.083	64.6
809.258	74.76
809.432	73.33
809.606	60.76
809.781	61.47
809.955	67.27
810.13	65.71
810.304	59.74
810.478	57.55
810.652	56.97
810.827	55.23
811.001	44.91
811.175	43.27
811.349	46.71
811.524	40.82
811.698	25.06
811.872	30.42
812.046	37.04
812.22	48.95
812.394	54.64
812.568	63.75
812.742	61.09
812.916	53.19
813.09	42.13
813.264	31.2
813.438	37.06
813.612	35.51
813.786	36.61
813.96	43.85
814.134	51.25
814.308	57.34
814.482	61.62
814.656	56.85
814.83	61.75
815.003	63.98
815.177	54.16
815.351	48.71
815.525	51.16
815.698	40.7
815.872	36.99
816.046	32.12
816.219	42.7
816.393	52.55
816.567	58.91
816.74	59.26
816.914	63.01
817.088	58.19
817.261	55
817.435	37.97
817.608	37.95
817.782	29.02
817.955	35.24
818.129	29.17
818.302	37.42
818.475	49.05
818.649	59.82
818.822	44.19
818.996	63.47
819.169	66.15
819.342	48.43
819.516	57.66
819.689	67.13
819.862	51.82
820.035	40.02
820.209	40.95
820.382	35.66
820.555	36.01
820.728	24.71
820.901	23.78
821.075	17.92
821.248	19.53
821.421	5.11
821.594	15.08
821.767	51.74
821.94	75.32
822.113	45.24
822.286	37.9
822.459	44.44
822.632	22.03
822.805	0.38
822.978	-2.01
823.151	-0.05
823.324	-8.93
823.496	-35.62
823.669	-38.76
823.842	-22.04
824.015	-26.19
824.188	-12.79
824.361	7.75
824.533	2.69
824.706	15.4
824.879	23.97
825.051	17.79
825.224	15.84
825.397	4.85
825.569	-14.76
825.742	10.94
825.915	18.02
826.087	37.23
826.26	42.06
826.432	42.44
826.605	38.09
826.777	29.42
826.95	20.07
827.122	1.2
827.295	15.85
827.467	18.33
827.64	-14.53
827.812	-18.98
827.984	2.89
828.157	-35.3
828.329	-85.31
828.501	-42.16
828.674	-11.76
828.846	-17.51
829.018	20.64
829.19	13.39
829.363	35.01
829.535	32.51
829.707	43.89
829.879	11.57
830.051	5.72
830.223	-12.81
830.395	-55.19
830.568	-77.39
830.74	-56.75
830.912	-6.54
831.084	-23.84
831.256	-4.25
831.428	-5.92
831.6	-44.36
831.772	-92.89
831.943	-99.71
832.115	-71.6
832.287	-40.76
832.459	-3.87
832.631	6.64
832.803	30.34
832.975	41.47
833.146	23.66
833.318	10.36
833.49	50.74
833.662	11.87
833.833	-20.52
834.005	-16.26
834.177	5.36
834.348	-23.72
834.52	-16.79
834.692	-7.49
834.863	-13.05
835.035	-41.21
835.206	-68.5
835.378	-42.35
835.549	-45.63
835.721	-36.41
835.892	-35.91
836.064	-26.62
836.235	-30.42
836.407	-19.5
836.578	-41.34
836.749	-10.88
836.921	-52.33
837.092	-53.5
837.264	-43.83
837.435	-63.64
837.606	-15.19
837.777	35.02
837.949	40.53
838.12	40.67
838.291	62.37
838.462	38.12
838.633	-9.26
838.805	-12.3
838.976	-18.34
839.147	-79.11
839.318	-67.3
839.489	-119.77
839.66	-106.53
839.831	-42.27
840.002	-51.3
840.173	-96.65
840.344	-15.64
840.515	-24.19
840.686	-220.35
840.857	-117.18
841.028	-77.11
841.199	-59.57
841.369	-78.14
841.54	-41.08
841.711	-13.3
841.882	8.09
842.053	-3.22
842.223	-18.73
842.394	-9.15
842.565	-8.96
842.736	9.8
842.906	6.26
843.077	29.62
843.248	55.05
843.418	37.72
843.589	-6.24
843.759	89.05
843.93	71.68
844.101	26.39
844.271	40.25
844.442	51.5
844.612	42.76
844.783	-3.79
844.953	-46.76
845.123	-79.85
845.294	-84.47
845.464	-299.4
845.635	-79.18
845.805	28.37
845.975	33.77
846.146	-24.98
846.316	-32.25
846.486	-16.65
846.656	-1.35
846.827	-14.89
846.997	-26.83
847.167	-36.02
847.337	-29.64
847.507	-93.94
847.677	-77.04
847.848	16.33
848.018	27.71
848.188	30.57
848.358	24.38
848.528	19.88
848.698	-50.37
848.868	-137.1
849.038	-278.15
849.208	-114.29
849.378	-83.7
849.548	-14.05
849.718	0.99
849.887	31.91
850.057	11.98
850.227	-18.46
850.397	-71.48
850.567	-183.5
850.737	-377.39
850.906	-1002.5
851.076	-774.22
851.246	-390.05
851.415	-32.6
851.585	-59.45
851.755	-102.72
851.924	-45.28
852.094	-48.49
852.264	-138.94
852.433	-1056.73
852.603	-219.31
852.772	-175.43
852.942	-123.76
853.111	-122.46
853.281	-20.84
853.45	16.26
853.62	-52.48
853.789	-29.5
853.959	-9.92
854.128	-69.46
854.297	-106.8
854.467	-147.01
854.636	-133.39
854.805	-44.53
854.975	-61.91
855.144	-55.34
855.313	154.55
855.482	-302.92
855.652	-279.23
855.821	-251.45
855.99	-42.18
856.159	-30.52
856.328	-12.94
856.497	-19.58
856.667	-11.91
856.836	-25.9
857.005	-34.62
857.174	-58.6
857.343	-82.28
857.512	-69.52
857.681	-147.63
857.85	-211.13
858.019	-149.6
858.188	-114.12
858.356	-110.81
858.525	-159.32
858.694	-121.44
858.863	-224.43
859.032	-179.24
859.201	-249.75
859.369	-157.91
859.538	-100.43
859.707	-60.15
859.876	-88.26
860.044	-83.12
860.213	-7.27
860.382	-14.12
860.55	-22.09
860.719	29.53
860.888	44.17
861.056	-0.36
861.225	-10.82
861.393	38.37
861.562	-2.79
861.73	-123.83
861.899	-328.8
862.067	-3458.62
862.236	-207.82
862.404	-289.05
862.572	-139.4
862.741	-46.22
862.909	-30.81
863.078	-136.3
863.246	-106.96
863.414	-91.28
863.582	-71.77
863.751	-76.47
863.919	-62.17
864.087	4.6
864.255	10.87
864.424	-188.05
864.592	8.79
864.76	6.33
864.928	-32
865.096	-136.94
865.264	-118.33
865.432	-1863.64
865.6	-234.5
865.768	-191.34
865.936	-187.84
866.104	-195.32
866.272	-299.38
866.44	-540.16
866.608	892.39
866.776	404.09
866.944	3825.58
867.112	-601.69
867.28	-234.43
867.448	-70.69
867.615	-6.23
867.783	27.28
867.951	-12.5
868.119	11.45
868.286	-26.58
868.454	-240.1
868.622	-305.97
868.789	-399.62
868.957	-7528.57
869.125	-4036.84
869.292	-255.28
869.46	-309.69
869.627	-25.29
869.795	-45.89
869.963	-8.11
870.13	10.61
870.298	17.62
870.465	-101.52
870.632	-104.19
870.8	-71.19
870.967	-132.77
871.135	-163.81
871.302	-132.87
871.469	-122.35
871.637	-213.88
871.804	-83.49
871.971	-140.12
872.139	-399.53
872.306	-3.13
872.473	-32.33
872.64	-362.23
872.807	-161.04
872.975	-17.99
873.142	-401.82
873.309	2678.38
873.476	36.75
873.643	121.94
873.81	86.24
873.977	112.3
874.144	50.11
874.311	-156.24
874.478	-198.47
874.645	-270.59
874.812	-226.72
874.979	-105.04
875.146	-99.47
875.313	-120.71
875.48	-13.67
875.647	-23.15
875.813	-73.33
875.98	-40.5
876.147	-83.23
876.314	-195.08
876.481	1448.76
876.647	-1915.73
876.814	743.52
876.981	-203.46
877.147	-76.59
877.314	-16.33
877.481	3.27
877.647	-3.01
877.814	-29.74
877.98	-90.39
878.147	-38.27
878.314	0.58
878.48	-63.5
878.647	-73.71
878.813	-9.86
878.979	-40.08
879.146	-77.42
879.312	-82.66
879.479	-156.15
879.645	-288.72
879.811	-588.01
879.978	-1342.75
880.144	-330.62
880.31	-173.32
880.477	-362.31
880.643	-252.82
880.809	-55.39
880.975	-74.32
881.142	-614.55
881.308	-74.02
881.474	-65.48
881.64	-91.07
881.806	-165.2
881.972	-48.98
882.138	-90.37
882.304	-88.47
882.47	-266.05
882.636	-883.61
882.802	-350.96
882.968	-106.83
883.134	-64.11
883.3	-66.52
883.466	-8.85
883.632	35.46
883.798	6.93
883.964	-9.09
884.129	24.72
884.295	35.62
884.461	-43.79
884.627	-54.45
884.793	-101.62
884.958	-52.02
885.124	-164.48
885.29	-274.39
885.455	-559.71
885.621	-175.47
885.787	-294.86
885.952	-153.81
886.118	-141.84
886.283	-117.4
886.449	-218.81
886.614	-199.46
886.78	-382.31
886.945	1521.31
887.111	-685.55
887.276	-569.89
887.442	-1067.27
887.607	-413.68
887.773	-312.74
887.938	-310.44
888.103	-395.05
888.269	-279.52
888.434	-558.38
888.599	-224.17
888.764	-129.69
888.93	-63.81
889.095	-55.47
889.26	-100.92
889.425	-82.06
889.59	-58.76
889.756	-140.54
889.921	-124.6
890.086	-64.54
890.251	-19.16
890.416	-221.97
890.581	-1472.58
890.746	302.5
890.911	497.45
891.076	272.56
891.241	-717.16
891.406	-63.64
891.571	-125.36
891.736	-471.1
891.901	-768.14
892.065	1026.37
892.23	229.43
892.395	322.5
892.56	509.25
892.725	-851.56
892.889	-2102.44
893.054	-306.94
893.219	-110.95
893.384	-45.73
893.548	-118.03
893.713	-144.12
893.878	-96.26
