Data from Ofra_PS_T2_1A_2CX08_Reflection_1.txt Node
Date: Wed Jul 21 17:53:18 EDT 2021
User: Adam
Spectrometer: FLMT01687
Trigger mode: 0
Integration Time (sec): 1.100000E0
Scans to average: 2
Electric dark correction enabled: true
Nonlinearity correction enabled: false
Boxcar width: 2
XAxis mode: Wavelengths
Number of Pixels in Spectrum: 3648
>>>>>Begin Spectral Data<<<<<
179.494	479.6
179.716	564.94
179.937	543.25
180.158	558.12
180.38	977.19
180.601	417.96
180.823	145.91
181.044	3.08
181.265	130.51
181.486	6.57
181.708	61.78
181.929	56.12
182.15	-97.89
182.372	189.36
182.593	32.23
182.814	27.8
183.035	62
183.257	40.42
183.478	-79.89
183.699	-4.76
183.92	5.59
184.141	16.62
184.363	-9.68
184.584	63.24
184.805	28.29
185.026	54.25
185.247	45.06
185.468	22.09
185.689	10.65
185.91	29.01
186.132	-0.32
186.353	-22.85
186.574	14.59
186.795	13.41
187.016	-23.13
187.237	-44.35
187.458	-70.9
187.679	-60.06
187.9	-60.18
188.121	-53.43
188.342	-30.47
188.563	40.99
188.784	66.44
189.005	67.68
189.226	111.1
189.447	86.18
189.667	-80.34
189.888	-300.25
190.109	-896.75
190.33	-517.1
190.551	-1035.84
190.772	-225.3
190.993	-187.71
191.214	-152.07
191.434	-112.58
191.655	-11.47
191.876	-43.25
192.097	-99.21
192.318	-185.76
192.538	-265.84
192.759	-201.36
192.98	-95.8
193.201	-38.61
193.421	-1.94
193.642	15.34
193.863	20.97
194.083	-14.08
194.304	-12.86
194.525	-22.2
194.745	-32.88
194.966	-60.77
195.187	-28.02
195.407	-75.88
195.628	-144.53
195.848	-175.28
196.069	-180.75
196.29	-148.06
196.51	-133.2
196.731	-103.76
196.951	-97.62
197.172	-100.92
197.392	-138.55
197.613	-127.39
197.833	-159.23
198.054	-133.71
198.274	-57.98
198.495	-79.13
198.715	-42.86
198.936	-66.22
199.156	-75.85
199.377	-210.94
199.597	-191.12
199.817	-198.22
200.038	-103.56
200.258	-137.55
200.479	-48.32
200.699	-25
200.919	33.57
201.14	-25
201.36	-51.84
201.58	-7.81
201.801	17.26
202.021	-20.54
202.241	9.19
202.461	4.98
202.682	-110.47
202.902	-167.22
203.122	-97.02
203.342	-91.43
203.563	-22.57
203.783	22.16
204.003	-9.73
204.223	-45.15
204.443	20.12
204.663	-5.27
204.884	8.55
205.104	55.5
205.324	115.53
205.544	69.64
205.764	71.63
205.984	62.03
206.204	50.44
206.424	29.08
206.644	11.46
206.864	15.27
207.084	-20.1
207.304	-14.61
207.525	-177.34
207.745	-130.11
207.964	-59.02
208.184	-81.44
208.404	-107.44
208.624	-96.49
208.844	-79.76
209.064	-406.57
209.284	-454.79
209.504	-202.72
209.724	-54.66
209.944	-28.36
210.164	10.1
210.384	22.44
210.604	0.4
210.823	-50.74
211.043	-83.91
211.263	-72.17
211.483	-70.27
211.703	-125.02
211.922	-114.71
212.142	-39.6
212.362	-26.28
212.582	-29.43
212.801	-13.03
213.021	-33.39
213.241	-47.29
213.461	-88.17
213.68	-103.56
213.9	-96.31
214.12	-68.48
214.339	-143.54
214.559	-93.76
214.779	-28.72
214.998	-9.46
215.218	-31.24
215.438	1.96
215.657	-17.79
215.877	-36.39
216.096	-15.25
216.316	10.55
216.535	4.18
216.755	5.42
216.974	-32.73
217.194	-92.54
217.413	-109.47
217.633	-93.69
217.852	-171.11
218.072	-62.91
218.291	-16.87
218.511	24.62
218.73	7.4
218.95	-7.98
219.169	-33.7
219.389	-73.81
219.608	-54.82
219.827	-55.86
220.047	-39.58
220.266	-1.39
220.485	7.86
220.705	-2.45
220.924	-24.23
221.143	8.76
221.363	-14.73
221.582	-6.32
221.801	12.08
222.021	52.61
222.24	13.76
222.459	46.9
222.678	1.26
222.897	-94.07
223.117	-193.27
223.336	-125.4
223.555	-86.9
223.774	-15.02
223.993	22.98
224.213	96.46
224.432	77.91
224.651	83.93
224.87	47.55
225.089	38.14
225.308	32.56
225.527	43.38
225.746	43.91
225.965	30.04
226.184	26.7
226.404	24.69
226.623	4.37
226.842	-2.39
227.061	20.85
227.28	22.47
227.499	8.82
227.718	29.93
227.936	27.75
228.155	30.77
228.374	13.95
228.593	11.15
228.812	-9.63
229.031	-22.39
229.25	-79.33
229.469	-79.63
229.688	-51.75
229.907	-20.37
230.125	-0.27
230.344	23.14
230.563	40.3
230.782	40.47
231.001	-19.12
231.22	-7.97
231.438	11.97
231.657	18.21
231.876	9.1
232.095	45.27
232.313	55.01
232.532	35
232.751	-25.46
232.969	-34.61
233.188	-114.77
233.407	-45.06
233.625	-10.68
233.844	-29.89
234.063	-16.96
234.281	4.26
234.5	-24.04
234.719	-18.19
234.937	13.1
235.156	23.06
235.374	21.99
235.593	8.58
235.811	-14.03
236.03	-9.07
236.249	-63.67
236.467	-59.82
236.686	-19.53
236.904	2.22
237.123	-43.26
237.341	-31.81
237.559	-21.13
237.778	-44.24
237.996	-88.95
238.215	-13.59
238.433	-13.51
238.652	-17.58
238.87	-26.17
239.088	-6.19
239.307	-13.45
239.525	-2.58
239.743	-45.41
239.962	-25.39
240.18	-56.29
240.398	-116.68
240.617	-140.63
240.835	-119.41
241.053	-86.7
241.271	-13.32
241.49	12.58
241.708	12.69
241.926	26.12
242.144	14.72
242.363	-65.44
242.581	-88.09
242.799	-53.34
243.017	-28.71
243.235	-60.43
243.453	-20.2
243.672	-9.7
243.89	0.13
244.108	-12.99
244.326	12.08
244.544	17.46
244.762	15.25
244.98	13.65
245.198	23.84
245.416	-6.56
245.634	-27.14
245.852	-32.44
246.07	-50.4
246.288	-57.3
246.506	-70.13
246.724	-47.87
246.942	-40.86
247.16	5.49
247.378	24.65
247.596	31.65
247.814	16.5
248.032	-10.11
248.25	-43.09
248.468	-41.63
248.685	-32
248.903	8.45
249.121	20.99
249.339	3.79
249.557	9.93
249.775	21.12
249.992	-59.26
250.21	-65.24
250.428	-40.53
250.646	-72.36
250.863	-104.13
251.081	-63.12
251.299	-53.09
251.517	-32.94
251.734	-11.49
251.952	-11.34
252.17	6.14
252.387	12.84
252.605	-5.77
252.823	-8.18
253.04	15.1
253.258	19.35
253.475	6.63
253.693	40.28
253.911	45.47
254.128	38.78
254.346	47
254.563	28.79
254.781	-12.96
254.998	-28.67
255.216	-34.37
255.433	-48.42
255.651	0.79
255.868	49.57
256.086	65.68
256.303	44.36
256.521	51.46
256.738	9.07
256.956	-26.09
257.173	-45.73
257.39	-55.46
257.608	-106.34
257.825	-43.71
258.043	-12.76
258.26	-18.6
258.477	21.41
258.695	22.01
258.912	-25.17
259.129	-18.86
259.346	-41.53
259.564	-75.47
259.781	-82.84
259.998	-18.59
260.216	-11.97
260.433	34.72
260.65	32.49
260.867	54.92
261.084	25.04
261.302	18.32
261.519	-15.67
261.736	-42.67
261.953	-74.81
262.17	-34.91
262.387	-65.97
262.604	-89.27
262.822	-74.63
263.039	-48.28
263.256	-69.94
263.473	-22.97
263.69	-6.84
263.907	14.95
264.124	35.87
264.341	21.69
264.558	13.68
264.775	34.53
264.992	46.54
265.209	36.99
265.426	64.1
265.643	73.97
265.86	82.18
266.077	68.54
266.294	52.15
266.51	-5
266.727	-39.2
266.944	-44.36
267.161	-26.91
267.378	-14.63
267.595	9.39
267.812	-5.51
268.028	-15.19
268.245	-20.22
268.462	-37.84
268.679	-30.61
268.896	24.16
269.112	21.72
269.329	13.12
269.546	23.05
269.763	16.96
269.979	-2.48
270.196	-6.68
270.413	-38.25
270.629	-66.54
270.846	-68.93
271.063	-62.17
271.279	-82.76
271.496	-53.06
271.712	-4.94
271.929	2.17
272.146	-10.96
272.362	12.77
272.579	44.88
272.795	27.97
273.012	34.4
273.228	35.74
273.445	1.37
273.661	-40.2
273.878	-74.98
274.094	-75.04
274.311	-109.2
274.527	-34.35
274.744	-41.12
274.96	-49.77
275.177	-38.17
275.393	-18.11
275.609	-20.34
275.826	13.47
276.042	15.39
276.259	7.42
276.475	30.18
276.691	22.28
276.908	2.32
277.124	22.97
277.34	20.31
277.557	-0.22
277.773	-6.35
277.989	-18.93
278.205	-29.65
278.422	-23.47
278.638	-21.69
278.854	-2.08
279.07	-9.98
279.286	-28.87
279.503	-41.71
279.719	-40.3
279.935	-82.36
280.151	-92.05
280.367	-32.48
280.583	-53.42
280.799	-37.9
281.016	-35.82
281.232	13.59
281.448	5.86
281.664	32.46
281.88	-1.01
282.096	3.44
282.312	4.93
282.528	11.54
282.744	18.79
282.96	34.71
283.176	18.91
283.392	9.59
283.608	-4.68
283.824	-16.07
284.04	-8
284.256	20.09
284.471	4.95
284.687	3.92
284.903	43.94
285.119	77.48
285.335	42
285.551	80.3
285.767	65.58
285.982	28.33
286.198	-51.18
286.414	1.99
286.63	-0.69
286.846	21.03
287.061	-0.17
287.277	45.94
287.493	21.92
287.709	24.52
287.924	13
288.14	51.06
288.356	33.32
288.571	41.88
288.787	22.71
289.003	17.05
289.218	0.57
289.434	-47.49
289.65	-59.02
289.865	-60.36
290.081	-21.34
290.296	-19.36
290.512	0.37
290.727	-18.56
290.943	-29.41
291.159	-53.67
291.374	-49.97
291.59	-65.09
291.805	-55.27
292.021	-29.22
292.236	-25.64
292.451	-9.67
292.667	7.2
292.882	25.15
293.098	3.35
293.313	-23.49
293.529	-63.72
293.744	-91.43
293.959	-91.98
294.175	-68.06
294.39	-26.12
294.605	-3.11
294.821	31.27
295.036	34.89
295.251	43.11
295.467	10.93
295.682	-3
295.897	-56.71
296.112	-56.69
296.328	-67.23
296.543	-54.61
296.758	-56.99
296.973	-5.9
297.188	18.21
297.404	-12.03
297.619	-14.75
297.834	-9.42
298.049	-38.06
298.264	-49.75
298.479	7.65
298.694	14.64
298.909	32.28
299.125	38.52
299.34	48.52
299.555	26.61
299.77	32.1
299.985	-26.78
300.2	-76.17
300.415	-104.02
300.63	-58.29
300.845	-73.02
301.06	-66.42
301.275	-33.62
301.49	-2.05
301.704	-20.95
301.919	-38.82
302.134	-52.79
302.349	-56.27
302.564	-128.04
302.779	-150.43
302.994	-63.09
303.209	4
303.423	41.37
303.638	68.32
303.853	9.61
304.068	-16.89
304.283	-7.64
304.497	-12.69
304.712	-27.33
304.927	-5.7
305.142	-2.22
305.356	-3.74
305.571	-16.86
305.786	-26.12
306	-46.38
306.215	-68.16
306.43	-94.73
306.644	-98.08
306.859	-68.53
307.074	-48.97
307.288	-53.6
307.503	-59.53
307.717	-40.09
307.932	-43.32
308.147	-40.33
308.361	-9.6
308.576	-22.98
308.79	-80.3
309.005	-58.62
309.219	-31.72
309.434	-42.86
309.648	-31.85
309.863	5.48
310.077	-6.19
310.292	-11.75
310.506	-4.69
310.72	7.16
310.935	21.33
311.149	17.01
311.364	29.25
311.578	34.01
311.792	16.7
312.007	11.21
312.221	4.16
312.435	5.38
312.649	-13.75
312.864	22.86
313.078	22.1
313.292	78.87
313.507	23.44
313.721	38.2
313.935	10.42
314.149	13.19
314.363	-6.93
314.578	7.19
314.792	0.39
315.006	-8.09
315.22	-2.27
315.434	4.81
315.648	13.39
315.862	20.86
316.077	9.44
316.291	-3.1
316.505	7.96
316.719	-24.11
316.933	-28.88
317.147	-4.67
317.361	-72.62
317.575	-107.54
317.789	-120.33
318.003	-194.97
318.217	-176.41
318.431	-47.44
318.645	-5.27
318.859	-8.99
319.073	16.6
319.287	5.27
319.5	-26.49
319.714	-62
319.928	-84.84
320.142	-124.41
320.356	-53.43
320.57	-41.64
320.784	-51.35
320.997	-49.43
321.211	-38.08
321.425	-110.69
321.639	-102.76
321.853	-38.89
322.066	-19.1
322.28	-12.66
322.494	3.23
322.707	11.46
322.921	-14.17
323.135	-16.23
323.349	2.44
323.562	-6.75
323.776	-20.33
323.989	-8.78
324.203	-30.55
324.417	-46.31
324.63	-70.23
324.844	-74.28
325.057	-87.96
325.271	-53.17
325.485	-18.94
325.698	7.67
325.912	28.91
326.125	10.49
326.339	16.32
326.552	-10.16
326.766	-13.32
326.979	-8.55
327.193	38.6
327.406	14.86
327.619	10.46
327.833	23.94
328.046	-5.89
328.26	-47.25
328.473	-33.38
328.686	-69.05
328.9	-66.61
329.113	-41.66
329.326	-69.83
329.54	-38.28
329.753	-19.03
329.966	-45.89
330.179	-26.97
330.393	-3.35
330.606	-19.59
330.819	-2.62
331.032	12.7
331.246	6.93
331.459	39.45
331.672	46.01
331.885	30.65
332.098	15.18
332.311	15.19
332.525	-61.64
332.738	-72.53
332.951	-40.81
333.164	-17.58
333.377	-5.11
333.59	26.39
333.803	30.93
334.016	21
334.229	11.42
334.442	30.28
334.655	36.53
334.868	35.72
335.081	20.32
335.294	5.96
335.507	-20.94
335.72	-31.53
335.933	-30.93
336.146	-20.58
336.359	-3.84
336.572	-37.66
336.785	-66.19
336.997	-62.92
337.21	-38.27
337.423	-49.19
337.636	-35.02
337.849	-3.87
338.062	-14.76
338.274	-9.84
338.487	-9.98
338.7	-11.91
338.913	-61.83
339.125	-75.31
339.338	-151.5
339.551	-125.31
339.763	-66.05
339.976	-17.53
340.189	17.74
340.402	49.15
340.614	23.47
340.827	8.12
341.039	-26.98
341.252	-39.76
341.465	-24.8
341.677	-14.69
341.89	-53.53
342.102	-4.55
342.315	-18.92
342.527	-41.35
342.74	-59.26
342.952	-21.55
343.165	-38.56
343.377	0.75
343.59	1.39
343.802	37.58
344.015	44.95
344.227	66.96
344.44	36.41
344.652	24.69
344.864	0.89
345.077	18.77
345.289	16.42
345.502	28.87
345.714	24.77
345.926	35.06
346.139	30.57
346.351	39.55
346.563	43
346.775	52.31
346.988	31.8
347.2	4.4
347.412	-51.93
347.624	-81.48
347.837	-109.8
348.049	-73.97
348.261	-20.75
348.473	-1.15
348.685	-9.29
348.897	-21.16
349.11	-42.18
349.322	-94.35
349.534	-76.47
349.746	-64.85
349.958	-36.06
350.17	-33.4
350.382	-1.76
350.594	-15.64
350.806	-10.4
351.018	-19.18
351.23	-29.29
351.442	-66.84
351.654	-67.85
351.866	-62.47
352.078	-36.74
352.29	0.34
352.502	12.53
352.714	28.03
352.926	20.26
353.138	13.77
353.35	-6.96
353.561	-15.62
353.773	-38.45
353.985	-25.18
354.197	-29.7
354.409	-38.36
354.621	-29.87
354.832	-13.94
355.044	-18.26
355.256	-24.03
355.468	-5.05
355.679	-9.13
355.891	-5.96
356.103	-17.67
356.314	-6.69
356.526	-8.37
356.738	-13.58
356.949	-15.11
357.161	-6.78
357.373	-8.89
357.584	-13.65
357.796	4.4
358.008	-6.93
358.219	15.25
358.431	11.71
358.642	23.24
358.854	5.33
359.065	-5.41
359.277	-45.71
359.488	-54.5
359.7	-104.3
359.911	-106.12
360.123	-76.58
360.334	-80.79
360.546	-106.38
360.757	-82.6
360.969	-54.19
361.18	-43.59
361.391	-21.05
361.603	-31.29
361.814	-28.67
362.025	-38.82
362.237	-38.72
362.448	-18.5
362.659	11.62
362.871	12.88
363.082	13.8
363.293	12.98
363.504	-23.08
363.716	-53.03
363.927	-53.25
364.138	-84.11
364.349	-106.35
364.56	-81.5
364.772	-58.24
364.983	-36.85
365.194	-26.91
365.405	-2.83
365.616	20.08
365.827	24.47
366.038	8.74
366.25	6.16
366.461	-25.97
366.672	-18.98
366.883	-2.87
367.094	-1.32
367.305	-8.61
367.516	-5.23
367.727	-35.47
367.938	-52.57
368.149	-54.4
368.36	-34.93
368.571	-15.87
368.781	-23.56
368.992	-33.33
369.203	-38.49
369.414	-56.45
369.625	-69.25
369.836	-60.48
370.047	-78.58
370.258	-63.31
370.468	-64.64
370.679	-85.72
370.89	-78.72
371.101	-45.75
371.312	-51.11
371.522	-39.7
371.733	-20.44
371.944	-10.74
372.155	-8.29
372.365	-20.08
372.576	-16.85
372.787	-25.95
372.997	-47.81
373.208	-59.91
373.419	-14.82
373.629	-46.87
373.84	-38.67
374.05	-40.05
374.261	-23.86
374.472	-55.17
374.682	-7.28
374.893	-12.2
375.103	23.5
375.314	12.5
375.524	14.08
375.735	6.9
375.945	14.36
376.156	-20.62
376.366	-11.02
376.577	-12.92
376.787	-21.28
376.997	-14.37
377.208	1.37
377.418	-14.37
377.629	-0.26
377.839	12.67
378.049	7.49
378.26	18.76
378.47	30.28
378.68	12.05
378.89	-0.78
379.101	-10.03
379.311	-47.74
379.521	-81.01
379.732	-67.41
379.942	-59.55
380.152	-68.73
380.362	-36.44
380.572	-31.03
380.783	-17.4
380.993	-7.21
381.203	-0.82
381.413	22.02
381.623	31.27
381.833	19.64
382.043	-1.58
382.253	-5.23
382.463	-17.66
382.674	-35.47
382.884	-49.77
383.094	-34.87
383.304	-20.64
383.514	-13.82
383.724	4.53
383.934	-1.74
384.144	-12.91
384.353	-26.96
384.563	-32.34
384.773	-28.9
384.983	-31.53
385.193	-14.57
385.403	-9.62
385.613	-6.62
385.823	-18.56
386.033	-11.39
386.242	-16.42
386.452	-19.63
386.662	-29.62
386.872	-15.71
387.082	-18.32
387.291	-23.35
387.501	-22.72
387.711	-15.66
387.921	-26.87
388.13	-24.92
388.34	-11.56
388.55	-14.36
388.759	-15.13
388.969	-6.74
389.179	-3.27
389.388	-6.79
389.598	-3.6
389.807	-9.31
390.017	-13.17
390.227	-13.43
390.436	-18.82
390.646	-16.77
390.855	-7.58
391.065	-10.2
391.274	-11.5
391.484	-7.78
391.693	-4.08
391.903	-5.14
392.112	2.25
392.322	5.26
392.531	8.53
392.74	6.85
392.95	1.56
393.159	-0.92
393.369	-2.6
393.578	-3.56
393.787	-4.27
393.997	-1.56
394.206	-3.35
394.415	-3.14
394.625	-2.21
394.834	-3.31
395.043	-2.65
395.252	0.62
395.462	3.61
395.671	4.37
395.88	5.36
396.089	6.79
396.298	4.8
396.508	4.24
396.717	2.88
396.926	4.17
397.135	3.18
397.344	3.07
397.553	2.77
397.762	4.45
397.971	3.61
398.181	3.63
398.39	2.84
398.599	2.17
398.808	1.72
399.017	2.36
399.226	4.17
399.435	5.96
399.644	6.58
399.853	5.14
400.062	4.87
400.27	3.64
400.479	3.16
400.688	2.42
400.897	3.26
401.106	3.31
401.315	3.14
401.524	3.07
401.733	3.84
401.941	4.26
402.15	4.42
402.359	4.35
402.568	4.76
402.777	4.57
402.985	4.11
403.194	3.86
403.403	3.97
403.612	3.4
403.82	3.42
404.029	3.87
404.238	3.65
404.446	3.95
404.655	3.86
404.864	3.78
405.072	3.38
405.281	3.68
405.489	3.22
405.698	3.3
405.906	3.3
406.115	3.26
406.324	3.07
406.532	3.31
406.741	3.55
406.949	3.46
407.158	3.48
407.366	3.63
407.574	3.51
407.783	3.35
407.991	3.26
408.2	3.4
408.408	3.27
408.617	3.15
408.825	3.1
409.033	3.27
409.242	3.24
409.45	3.29
409.658	3.25
409.867	3.28
410.075	3.1
410.283	2.99
410.491	2.97
410.7	3.02
410.908	3.13
411.116	3.46
411.324	3.53
411.533	3.47
411.741	3.58
411.949	3.57
412.157	3.17
412.365	3.07
412.573	3.21
412.781	3.26
412.99	3.11
413.198	3.44
413.406	3.52
413.614	3.36
413.822	3.18
414.03	3.12
414.238	2.82
414.446	2.94
414.654	2.77
414.862	2.95
415.07	3.07
415.278	3.3
415.486	2.99
415.694	3.26
415.902	3.07
416.109	2.9
416.317	2.84
416.525	2.81
416.733	2.69
416.941	2.84
417.149	2.83
417.357	2.77
417.564	3
417.772	3.21
417.98	3.09
418.188	3.12
418.395	3.23
418.603	3.23
418.811	2.92
419.019	2.95
419.226	3.14
419.434	3.01
419.642	2.76
419.849	2.83
420.057	2.78
420.265	2.75
420.472	2.54
420.68	2.62
420.887	2.62
421.095	2.78
421.302	2.59
421.51	3.01
421.717	3.14
421.925	3.24
422.132	3.04
422.34	2.98
422.547	2.94
422.755	2.82
422.962	2.67
423.17	2.64
423.377	2.76
423.585	2.62
423.792	2.47
423.999	2.58
424.207	2.62
424.414	2.7
424.621	2.64
424.829	2.84
425.036	2.81
425.243	2.96
425.451	2.8
425.658	2.66
425.865	2.73
426.072	2.6
426.28	2.78
426.487	2.75
426.694	2.92
426.901	2.69
427.108	2.73
427.315	2.42
427.523	2.69
427.73	2.7
427.937	2.62
428.144	2.52
428.351	2.53
428.558	2.53
428.765	2.41
428.972	2.49
429.179	2.68
429.386	3.03
429.593	2.75
429.8	2.7
430.007	2.82
430.214	2.9
430.421	2.59
430.628	2.55
430.835	2.53
431.042	2.75
431.249	2.68
431.456	2.66
431.662	2.85
431.869	3.14
432.076	3
432.283	3.17
432.49	3.22
432.697	3.29
432.903	3.04
433.11	2.96
433.317	2.98
433.524	3.11
433.73	2.94
433.937	3.18
434.144	3.11
434.35	2.93
434.557	2.86
434.764	3
434.97	2.79
435.177	2.9
435.384	2.9
435.59	2.92
435.797	2.97
436.003	3.09
436.21	3.12
436.416	3.21
436.623	3.13
436.829	3.24
437.036	3.33
437.242	3.34
437.449	3.21
437.655	3.25
437.862	3.14
438.068	3.02
438.275	3.19
438.481	3.37
438.687	3.34
438.894	3.4
439.1	3.48
439.307	3.48
439.513	3.36
439.719	3.44
439.926	3.46
440.132	3.38
440.338	3.23
440.544	3.4
440.751	3.33
440.957	3.33
441.163	3.32
441.369	3.42
441.575	3.13
441.782	3.12
441.988	3
442.194	2.99
442.4	2.95
442.606	3.24
442.812	3.34
443.018	3.45
443.224	3.54
443.431	3.62
443.637	3.44
443.843	3.32
444.049	3.29
444.255	3.27
444.461	3.2
444.667	3.19
444.873	3.4
445.079	3.37
445.284	3.43
445.49	3.21
445.696	3.15
445.902	2.96
446.108	2.97
446.314	2.83
446.52	2.95
446.726	3.2
446.931	3.22
447.137	3.24
447.343	3.29
447.549	3.2
447.755	3.06
447.96	3.15
448.166	3.14
448.372	3.14
448.578	3.27
448.783	3.26
448.989	3.24
449.195	3.39
449.4	3.43
449.606	3.41
449.812	3.34
450.017	3.36
450.223	3.22
450.428	3.1
450.634	3.27
450.84	3.5
451.045	3.42
451.251	3.4
451.456	3.7
451.662	3.7
451.867	3.67
452.073	3.73
452.278	3.82
452.483	3.87
452.689	3.73
452.894	3.72
453.1	3.7
453.305	3.69
453.51	3.6
453.716	3.6
453.921	3.62
454.127	3.6
454.332	3.47
454.537	3.31
454.742	3.38
454.948	3.37
455.153	3.49
455.358	3.64
455.563	3.87
455.769	4.02
455.974	3.96
456.179	3.77
456.384	3.74
456.589	3.58
456.795	3.33
457	3.28
457.205	3.57
457.41	3.55
457.615	3.6
457.82	3.76
458.025	3.83
458.23	3.7
458.435	3.76
458.64	3.68
458.845	3.81
459.05	3.81
459.255	3.78
459.46	3.72
459.665	3.82
459.87	3.76
460.075	3.76
460.28	3.85
460.485	3.94
460.69	3.94
460.895	3.85
461.099	3.88
461.304	3.99
461.509	4.04
461.714	3.98
461.919	4.17
462.123	4.07
462.328	4.11
462.533	4
462.738	4.16
462.942	4.04
463.147	4.19
463.352	4.17
463.556	4.24
463.761	4.24
463.966	4.27
464.17	4.21
464.375	4.14
464.58	4.17
464.784	4.14
464.989	4.07
465.193	4.13
465.398	4.15
465.602	4.3
465.807	4.26
466.011	4.36
466.216	4.44
466.42	4.53
466.625	4.51
466.829	4.68
467.034	4.75
467.238	4.96
467.443	4.92
467.647	4.78
467.851	4.81
468.056	4.88
468.26	4.71
468.464	4.76
468.669	4.92
468.873	5.05
469.077	5.07
469.282	5.15
469.486	5.25
469.69	5.27
469.894	5.1
470.099	5.19
470.303	5.29
470.507	5.21
470.711	5.11
470.915	5.12
471.119	4.98
471.324	4.86
471.528	4.88
471.732	5.05
471.936	5.09
472.14	5.19
472.344	5.27
472.548	5.33
472.752	5.5
472.956	5.75
473.16	5.73
473.364	5.6
473.568	5.57
473.772	5.5
473.976	5.33
474.18	5.35
474.384	5.47
474.588	5.52
474.792	5.38
474.995	5.48
475.199	5.63
475.403	5.71
475.607	5.75
475.811	5.73
476.015	5.73
476.218	5.75
476.422	5.68
476.626	5.75
476.83	5.9
477.033	5.85
477.237	5.73
477.441	5.79
477.644	5.76
477.848	5.71
478.052	5.69
478.255	5.78
478.459	5.79
478.663	5.94
478.866	5.98
479.07	5.97
479.273	6.15
479.477	6.17
479.681	6.06
479.884	6.03
480.088	6.07
480.291	5.89
480.495	5.84
480.698	5.88
480.901	5.91
481.105	5.98
481.308	5.96
481.512	5.94
481.715	6.04
481.919	6.09
482.122	6.11
482.325	6.18
482.529	6.25
482.732	6.14
482.935	6.04
483.138	5.97
483.342	6.02
483.545	6.09
483.748	6.17
483.952	6.25
484.155	6.37
484.358	6.39
484.561	6.33
484.764	6.27
484.967	6.33
485.171	6.39
485.374	6.27
485.577	6.35
485.78	6.34
485.983	6.28
486.186	6.13
486.389	6.15
486.592	6.16
486.795	6.25
486.998	6.22
487.201	6.26
487.404	6.36
487.607	6.4
487.81	6.37
488.013	6.45
488.216	6.43
488.419	6.42
488.622	6.3
488.825	6.21
489.028	6.11
489.231	6.05
489.433	5.97
489.636	5.88
489.839	5.91
490.042	5.8
490.245	5.86
490.447	5.89
490.65	5.95
490.853	5.96
491.056	6.12
491.258	6.07
491.461	6.06
491.664	6.16
491.866	6.09
492.069	6.19
492.272	6.19
492.474	6.21
492.677	6.19
492.879	6.26
493.082	6.2
493.285	6.29
493.487	6.27
493.69	6.17
493.892	6.1
494.095	6.09
494.297	6.01
494.5	6.02
494.702	6.08
494.905	6.17
495.107	6.16
495.309	6.21
495.512	6.31
495.714	6.39
495.917	6.4
496.119	6.42
496.321	6.44
496.524	6.43
496.726	6.34
496.928	6.35
497.13	6.31
497.333	6.27
497.535	6.28
497.737	6.29
497.939	6.33
498.142	6.38
498.344	6.39
498.546	6.29
498.748	6.34
498.95	6.4
499.152	6.36
499.355	6.4
499.557	6.51
499.759	6.53
499.961	6.47
500.163	6.49
500.365	6.52
500.567	6.61
500.769	6.5
500.971	6.57
501.173	6.51
501.375	6.47
501.577	6.32
501.779	6.35
501.981	6.28
502.183	6.37
502.385	6.31
502.587	6.27
502.788	6.37
502.99	6.4
503.192	6.46
503.394	6.51
503.596	6.59
503.798	6.59
503.999	6.62
504.201	6.59
504.403	6.6
504.605	6.66
504.806	6.63
505.008	6.6
505.21	6.65
505.411	6.67
505.613	6.64
505.815	6.65
506.016	6.69
506.218	6.74
506.42	6.74
506.621	6.76
506.823	6.78
507.024	6.71
507.226	6.64
507.427	6.65
507.629	6.71
507.83	6.76
508.032	6.78
508.233	6.87
508.435	6.89
508.636	6.97
508.838	6.9
509.039	7.01
509.24	7.02
509.442	7.05
509.643	6.87
509.845	6.88
510.046	6.88
510.247	6.87
510.448	6.86
510.65	6.97
510.851	7.15
511.052	7.12
511.254	7.1
511.455	7.17
511.656	7.22
511.857	7.22
512.058	7.27
512.26	7.27
512.461	7.24
512.662	7.27
512.863	7.11
513.064	7.07
513.265	7.03
513.466	7.08
513.667	7.04
513.868	7.15
514.069	7.21
514.27	7.37
514.471	7.28
514.672	7.27
514.873	7.2
515.074	7.2
515.275	7
515.476	7.02
515.677	7.03
515.878	7.23
516.079	7.18
516.28	7.27
516.481	7.37
516.682	7.42
516.882	7.24
517.083	7.27
517.284	7.25
517.485	7.18
517.686	7.12
517.886	7.15
518.087	7.22
518.288	7.31
518.488	7.28
518.689	7.29
518.89	7.28
519.091	7.25
519.291	7.16
519.492	7.2
519.692	7.23
519.893	7.3
520.094	7.28
520.294	7.29
520.495	7.26
520.695	7.31
520.896	7.3
521.096	7.32
521.297	7.33
521.497	7.36
521.698	7.27
521.898	7.23
522.099	7.22
522.299	7.34
522.499	7.33
522.7	7.38
522.9	7.43
523.101	7.52
523.301	7.43
523.501	7.42
523.702	7.41
523.902	7.46
524.102	7.47
524.302	7.48
524.503	7.56
524.703	7.55
524.903	7.52
525.103	7.47
525.304	7.58
525.504	7.65
525.704	7.75
525.904	7.74
526.104	7.74
526.304	7.69
526.504	7.64
526.705	7.6
526.905	7.66
527.105	7.67
527.305	7.63
527.505	7.58
527.705	7.51
527.905	7.5
528.105	7.52
528.305	7.5
528.505	7.6
528.705	7.75
528.905	7.72
529.105	7.67
529.304	7.76
529.504	7.83
529.704	7.69
529.904	7.74
530.104	7.8
530.304	7.9
530.503	7.79
530.703	7.84
530.903	7.87
531.103	7.91
531.303	7.82
531.502	7.83
531.702	7.93
531.902	7.88
532.101	7.86
532.301	7.85
532.501	7.87
532.7	7.83
532.9	7.84
533.1	7.85
533.299	7.86
533.499	7.94
533.698	7.89
533.898	7.95
534.097	8
534.297	8.09
534.496	8.06
534.696	8.17
534.895	8.26
535.095	8.31
535.294	8.27
535.494	8.2
535.693	8.21
535.892	8.14
536.092	8.06
536.291	8.04
536.491	8.19
536.69	8.21
536.889	8.17
537.088	8.2
537.288	8.3
537.487	8.36
537.686	8.34
537.886	8.42
538.085	8.47
538.284	8.58
538.483	8.53
538.682	8.61
538.882	8.65
539.081	8.7
539.28	8.57
539.479	8.58
539.678	8.54
539.877	8.64
540.076	8.65
540.275	8.73
540.474	8.81
540.673	8.83
540.872	8.79
541.071	8.82
541.27	8.88
541.469	8.91
541.668	9.01
541.867	9.04
542.066	9.09
542.265	9.12
542.464	9.07
542.663	9.1
542.862	9.24
543.06	9.31
543.259	9.35
543.458	9.46
543.657	9.54
543.856	9.53
544.054	9.49
544.253	9.42
544.452	9.36
544.651	9.33
544.849	9.31
545.048	9.4
545.247	9.51
545.445	9.62
545.644	9.69
545.843	9.7
546.041	9.74
546.24	9.86
546.438	9.95
546.637	9.95
546.836	10.17
547.034	10.23
547.233	10.27
547.431	10.27
547.63	10.32
547.828	10.28
548.027	10.25
548.225	10.19
548.423	10.19
548.622	10.3
548.82	10.27
549.019	10.43
549.217	10.59
549.415	10.69
549.614	10.75
549.812	10.8
550.01	10.77
550.209	10.82
550.407	10.88
550.605	10.84
550.803	10.97
551.002	11.04
551.2	11.07
551.398	11.2
551.596	11.39
551.794	11.48
551.993	11.6
552.191	11.66
552.389	11.75
552.587	11.84
552.785	11.82
552.983	11.87
553.181	12
553.379	11.98
553.577	11.96
553.775	12.16
553.973	12.24
554.171	12.25
554.369	12.3
554.567	12.4
554.765	12.46
554.963	12.54
555.161	12.59
555.359	12.74
555.557	12.86
555.755	12.9
555.952	13
556.15	13.13
556.348	13.23
556.546	13.36
556.744	13.4
556.941	13.47
557.139	13.58
557.337	13.6
557.535	13.58
557.732	13.74
557.93	13.92
558.128	13.93
558.325	14.04
558.523	14.09
558.721	14.19
558.918	14.21
559.116	14.36
559.313	14.41
559.511	14.62
559.708	14.7
559.906	14.76
560.104	14.8
560.301	15
560.498	14.99
560.696	15.02
560.893	15.17
561.091	15.33
561.288	15.42
561.486	15.59
561.683	15.74
561.88	15.74
562.078	15.83
562.275	15.78
562.473	15.93
562.67	16.12
562.867	16.32
563.064	16.41
563.262	16.57
563.459	16.63
563.656	16.78
563.853	16.85
564.051	16.94
564.248	17.1
564.445	17.23
564.642	17.18
564.839	17.38
565.036	17.64
565.234	17.79
565.431	17.82
565.628	17.86
565.825	17.94
566.022	17.97
566.219	17.95
566.416	18.09
566.613	18.22
566.81	18.24
567.007	18.23
567.204	18.33
567.401	18.34
567.598	18.5
567.795	18.51
567.991	18.64
568.188	18.75
568.385	18.93
568.582	19.03
568.779	19.23
568.976	19.24
569.172	19.4
569.369	19.36
569.566	19.38
569.763	19.43
569.96	19.54
570.156	19.52
570.353	19.61
570.55	19.61
570.746	19.6
570.943	19.64
571.14	19.66
571.336	19.76
571.533	19.86
571.729	19.86
571.926	19.93
572.123	20.05
572.319	20.06
572.516	20.03
572.712	20.13
572.909	20.19
573.105	20.23
573.302	20.2
573.498	20.39
573.695	20.37
573.891	20.4
574.087	20.41
574.284	20.48
574.48	20.27
574.677	20.34
574.873	20.24
575.069	20.28
575.266	20.34
575.462	20.41
575.658	20.49
575.854	20.61
576.051	20.62
576.247	20.54
576.443	20.62
576.639	20.55
576.835	20.43
577.032	20.34
577.228	20.55
577.424	20.57
577.62	20.56
577.816	20.68
578.012	20.7
578.208	20.62
578.404	20.62
578.6	20.66
578.796	20.67
578.993	20.71
579.189	20.65
579.384	20.6
579.58	20.53
579.776	20.49
579.972	20.45
580.168	20.42
580.364	20.48
580.56	20.46
580.756	20.42
580.952	20.35
581.148	20.32
581.343	20.32
581.539	20.34
581.735	20.36
581.931	20.48
582.127	20.52
582.322	20.39
582.518	20.41
582.714	20.42
582.909	20.35
583.105	20.35
583.301	20.35
583.496	20.35
583.692	20.33
583.888	20.21
584.083	20.18
584.279	20.24
584.474	20.2
584.67	20.16
584.866	20.22
585.061	20.14
585.257	20.11
585.452	20.05
585.648	20
585.843	20.06
586.039	20.15
586.234	20.11
586.429	20.1
586.625	20.22
586.82	20.15
587.015	20.11
587.211	19.98
587.406	19.93
587.601	19.8
587.797	19.83
587.992	19.73
588.187	19.83
588.383	19.72
588.578	19.78
588.773	19.82
588.968	19.92
589.163	20.02
589.359	20.11
589.554	20.1
589.749	20.08
589.944	20.15
590.139	20.09
590.334	20.11
590.529	20.1
590.724	20.15
590.919	20.14
591.114	20.16
591.309	20.38
591.504	20.43
591.699	20.35
591.894	20.4
592.089	20.39
592.284	20.34
592.479	20.48
592.674	20.49
592.869	20.5
593.064	20.69
593.259	20.72
593.454	20.8
593.648	20.85
593.843	20.82
594.038	20.79
594.233	20.83
594.428	20.78
594.622	20.95
594.817	21.11
595.012	21.18
595.206	21.17
595.401	21.27
595.596	21.27
595.79	21.32
595.985	21.48
596.18	21.69
596.374	21.84
596.569	21.88
596.763	21.96
596.958	21.98
597.153	21.95
597.347	21.87
597.542	22.01
597.736	22.03
597.931	22.04
598.125	22.15
598.319	22.36
598.514	22.37
598.708	22.47
598.903	22.54
599.097	22.59
599.291	22.55
599.486	22.64
599.68	22.67
599.874	22.79
600.069	22.82
600.263	22.9
600.457	22.97
600.651	23.1
600.846	23.07
601.04	23.07
601.234	23.2
601.428	23.29
601.622	23.34
601.817	23.41
602.011	23.48
602.205	23.42
602.399	23.36
602.593	23.38
602.787	23.43
602.981	23.44
603.175	23.48
603.369	23.4
603.563	23.4
603.757	23.43
603.951	23.45
604.145	23.37
604.339	23.51
604.533	23.37
604.727	23.34
604.921	23.35
605.115	23.39
605.309	23.49
605.502	23.55
605.696	23.39
605.89	23.38
606.084	23.28
606.278	23.03
606.471	22.93
606.665	22.94
606.859	22.82
607.053	22.88
607.246	22.89
607.44	22.86
607.634	22.73
607.827	22.73
608.021	22.59
608.214	22.46
608.408	22.35
608.602	22.4
608.795	22.28
608.989	22.22
609.182	22.19
609.376	22.07
609.569	21.96
609.763	21.88
609.956	21.81
610.15	21.72
610.343	21.74
610.537	21.68
610.73	21.69
610.923	21.64
611.117	21.58
611.31	21.53
611.504	21.46
611.697	21.25
611.89	21.15
612.083	21.13
612.277	21.11
612.47	21.03
612.663	20.98
612.856	20.93
613.05	20.8
613.243	20.64
613.436	20.47
613.629	20.4
613.822	20.26
614.015	20.16
614.209	20.05
614.402	20.03
614.595	20.02
614.788	20.02
614.981	19.82
615.174	19.71
615.367	19.59
615.56	19.46
615.753	19.37
615.946	19.4
616.139	19.45
616.332	19.61
616.525	19.62
616.718	19.62
616.911	19.61
617.103	19.49
617.296	19.33
617.489	19.23
617.682	19.13
617.875	19.1
618.067	19.08
618.26	18.9
618.453	18.88
618.646	18.87
618.838	18.82
619.031	18.9
619.224	18.98
619.417	18.92
619.609	18.89
619.802	18.84
619.994	18.74
620.187	18.7
620.38	18.73
620.572	18.64
620.765	18.7
620.957	18.6
621.15	18.46
621.342	18.3
621.535	18.32
621.727	18.22
621.92	18.15
622.112	18.11
622.305	18.18
622.497	18.05
622.69	18.03
622.882	18.14
623.074	18.25
623.267	18.22
623.459	18.13
623.651	18.04
623.844	17.96
624.036	17.93
624.228	17.77
624.42	17.83
624.613	17.92
624.805	17.81
624.997	17.71
625.189	17.81
625.381	17.8
625.574	17.71
625.766	17.71
625.958	17.71
626.15	17.66
626.342	17.7
626.534	17.64
626.726	17.57
626.918	17.59
627.11	17.57
627.302	17.49
627.494	17.45
627.686	17.53
627.878	17.43
628.07	17.39
628.262	17.32
628.454	17.34
628.646	17.3
628.838	17.33
629.029	17.28
629.221	17.41
629.413	17.3
629.605	17.23
629.797	17.06
629.989	17
630.18	16.86
630.372	16.82
630.564	16.83
630.755	16.96
630.947	17.04
631.139	16.93
631.33	16.85
631.522	16.88
631.714	16.73
631.905	16.63
632.097	16.69
632.289	16.73
632.48	16.71
632.672	16.69
632.863	16.57
633.055	16.53
633.246	16.49
633.438	16.4
633.629	16.43
633.821	16.56
634.012	16.54
634.203	16.48
634.395	16.48
634.586	16.44
634.777	16.3
634.969	16.26
635.16	16.32
635.351	16.2
635.543	16.15
635.734	16.22
635.925	16.19
636.117	16.14
636.308	16.24
636.499	16.25
636.69	16.23
636.881	16.14
637.073	16.26
637.264	16.18
637.455	16.26
637.646	16.28
637.837	16.38
638.028	16.25
638.219	16.32
638.41	16.11
638.601	15.96
638.792	15.93
638.983	15.9
639.174	15.76
639.365	15.9
639.556	15.95
639.747	15.93
639.938	15.94
640.129	15.96
640.32	15.86
640.511	15.86
640.701	15.95
640.892	15.92
641.083	16.02
641.274	16.09
641.465	16.05
641.655	15.87
641.846	15.78
642.037	15.61
642.228	15.44
642.418	15.54
642.609	15.65
642.8	15.69
642.99	15.67
643.181	15.79
643.372	15.82
643.562	15.71
643.753	15.71
643.943	15.67
644.134	15.57
644.324	15.33
644.515	15.26
644.705	15.25
644.896	15.41
645.086	15.43
645.277	15.44
645.467	15.47
645.658	15.4
645.848	15.24
646.038	15.23
646.229	15.24
646.419	15.14
646.61	15.14
646.8	15.17
646.99	15.04
647.18	15.02
647.371	15.07
647.561	15.03
647.751	14.99
647.941	14.99
648.132	14.96
648.322	14.93
648.512	15
648.702	14.97
648.892	15.02
649.082	15.06
649.272	14.96
649.462	14.79
649.653	14.67
649.843	14.58
650.033	14.51
650.223	14.54
650.413	14.55
650.603	14.61
650.793	14.65
650.983	14.6
651.172	14.48
651.362	14.43
651.552	14.23
651.742	14.1
651.932	14.06
652.122	14.09
652.312	14.05
652.502	14.17
652.691	14.2
652.881	14.11
653.071	14.11
653.261	14.04
653.45	13.79
653.64	13.77
653.83	13.61
654.019	13.42
654.209	13.33
654.399	13.39
654.588	13.24
654.778	13.16
654.968	13.03
655.157	12.91
655.347	12.73
655.536	12.62
655.726	12.51
655.915	12.45
656.105	12.36
656.294	12.35
656.484	12.1
656.673	11.99
656.863	11.86
657.052	11.7
657.241	11.5
657.431	11.36
657.62	11.28
657.809	11.02
657.999	10.83
658.188	10.58
658.377	10.44
658.567	10.3
658.756	10.27
658.945	10.09
659.134	9.95
659.324	9.85
659.513	9.73
659.702	9.55
659.891	9.54
660.08	9.45
660.269	9.39
660.458	9.26
660.648	9.09
660.837	8.92
661.026	8.9
661.215	8.74
661.404	8.48
661.593	8.54
661.782	8.26
661.971	8.12
662.16	7.99
662.349	8.05
662.538	7.8
662.726	7.82
662.915	7.63
663.104	7.49
663.293	7.45
663.482	7.5
663.671	7.41
663.86	7.36
664.048	7.28
664.237	7.16
664.426	6.88
664.615	6.89
664.803	6.82
664.992	6.69
665.181	6.63
665.369	6.65
665.558	6.52
665.747	6.42
665.935	6.42
666.124	6.44
666.312	6.47
666.501	6.46
666.69	6.46
666.878	6.48
667.067	6.29
667.255	6.34
667.444	6.58
667.632	6.6
667.82	6.7
668.009	6.65
668.197	6.51
668.386	6.38
668.574	6.47
668.762	6.3
668.951	6.23
669.139	6.24
669.327	6.05
669.516	6.09
669.704	6.18
669.892	6.45
670.08	6.45
670.269	6.46
670.457	6.27
670.645	6.07
670.833	6.11
671.021	6.13
671.21	6.26
671.398	6.51
671.586	6.64
671.774	6.54
671.962	6.6
672.15	6.62
672.338	6.49
672.526	6.52
672.714	6.37
672.902	6.4
673.09	6.52
673.278	6.71
673.466	6.84
673.654	7.23
673.842	7.18
674.03	7.11
674.218	6.99
674.405	6.96
674.593	6.77
674.781	6.92
674.969	7.03
675.157	7.17
675.344	7.32
675.532	7.46
675.72	7.64
675.908	7.72
676.095	7.66
676.283	7.68
676.471	7.87
676.658	7.73
676.846	7.73
677.033	7.86
677.221	8.02
677.409	7.85
677.596	7.95
677.784	8.06
677.971	8.14
678.159	8.08
678.346	8.24
678.534	8.31
678.721	8.48
678.909	8.49
679.096	8.63
679.283	8.81
679.471	8.96
679.658	9.05
679.846	9.32
680.033	9.5
680.22	9.57
680.408	9.61
680.595	9.53
680.782	9.41
680.969	9.34
681.157	9.43
681.344	9.64
681.531	9.88
681.718	9.99
681.905	10.29
682.093	10.48
682.28	10.63
682.467	10.88
682.654	11.07
682.841	11.17
683.028	11.28
683.215	11.4
683.402	11.3
683.589	11.59
683.776	11.88
683.963	11.96
684.15	12.24
684.337	12.56
684.524	12.74
684.711	12.92
684.898	13.04
685.085	13.29
685.271	13.6
685.458	13.74
685.645	13.85
685.832	14.19
686.019	14.34
686.205	14.55
686.392	14.9
686.579	15.25
686.766	15.77
686.952	16.19
687.139	16.63
687.326	16.94
687.512	17.37
687.699	17.59
687.886	17.84
688.072	18
688.259	18.56
688.445	18.95
688.632	19.13
688.818	19.75
689.005	20.37
689.191	20.73
689.378	21.39
689.564	22.15
689.751	22.62
689.937	23.03
690.124	23.58
690.31	23.75
690.496	24.23
690.683	24.82
690.869	25.41
691.055	25.87
691.242	26.84
691.428	27.63
691.614	28.19
691.8	29.03
691.987	29.8
692.173	30.22
692.359	30.83
692.545	31.48
692.731	31.89
692.918	32.72
693.104	33.46
693.29	34.15
693.476	35.01
693.662	35.92
693.848	36.45
694.034	37.26
694.22	38.03
694.406	38.83
694.592	39.35
694.778	40.05
694.964	40.56
695.15	41.22
695.336	41.74
695.522	42.78
695.708	43.49
695.894	44.36
696.08	45.14
696.265	45.76
696.451	46.44
696.637	47.33
696.823	47.88
697.009	48.24
697.194	48.9
697.38	49.2
697.566	49.59
697.751	50.32
697.937	51.3
698.123	51.93
698.308	52.66
698.494	53.55
698.68	53.98
698.865	54.57
699.051	55.21
699.236	55.7
699.422	56.22
699.607	56.85
699.793	57.18
699.978	57.63
700.164	58.24
700.349	58.72
700.535	59.39
700.72	59.68
700.906	60.39
701.091	60.9
701.276	61.46
701.462	61.95
701.647	62.87
701.832	63.19
702.018	63.77
702.203	63.75
702.388	63.9
702.573	64.23
702.759	65.11
702.944	65.13
703.129	65.5
703.314	66.09
703.499	66.44
703.684	66.43
703.87	67.65
704.055	68.43
704.24	68.73
704.425	69.39
704.61	69.76
704.795	69.62
704.98	70.01
705.165	70.21
705.35	70.39
705.535	70.58
705.72	71.08
705.905	71.37
706.09	72.01
706.275	72.02
706.459	72.26
706.644	72.31
706.829	72.6
707.014	72.77
707.199	73.36
707.384	73.7
707.568	73.83
707.753	74.21
707.938	74.24
708.123	74.18
708.307	74.07
708.492	74.31
708.677	74.44
708.861	74.52
709.046	74.44
709.231	75.24
709.415	75.59
709.6	75.31
709.784	75.49
709.969	75.92
710.153	75.53
710.338	75.54
710.522	75.99
710.707	76.57
710.891	76.76
711.076	77.32
711.26	77.2
711.445	77.43
711.629	77.39
711.813	77.65
711.998	78.16
712.182	78.1
712.366	79.05
712.551	79.84
712.735	79.91
712.919	79.51
713.103	80.23
713.288	79.09
713.472	78.46
713.656	78.92
713.84	79.06
714.024	79.1
714.208	79.48
714.393	79.98
714.577	79.95
714.761	80.16
714.945	80.16
715.129	80.45
715.313	81.13
715.497	81.22
715.681	81.83
715.865	82.16
716.049	82.5
716.233	81.71
716.417	81.83
716.601	81.34
716.785	81.27
716.968	81.27
717.152	81.17
717.336	80.92
717.52	80.9
717.704	80.95
717.888	81.53
718.071	82.09
718.255	82.57
718.439	82.88
718.622	83.19
718.806	83.09
718.99	82.55
719.174	82.39
719.357	82.53
719.541	82.51
719.724	82.65
719.908	84.19
720.092	84.7
720.275	85.27
720.459	85.13
720.642	84.74
720.826	83.89
721.009	83.48
721.193	82.34
721.376	82.97
721.559	83.3
721.743	83.36
721.926	83.82
722.11	84.83
722.293	84.28
722.476	83.59
722.66	83.2
722.843	82.93
723.026	82.55
723.21	82.79
723.393	84.38
723.576	84.3
723.759	84.07
723.942	84.14
724.126	84.39
724.309	83.67
724.492	84.11
724.675	84.53
724.858	84.8
725.041	84.98
725.224	85.04
725.407	85.64
725.59	86.02
725.774	85.43
725.957	84.69
726.14	84.76
726.322	85.15
726.505	85.09
726.688	86.15
726.871	86.6
727.054	86.35
727.237	85.65
727.42	85.52
727.603	85.07
727.786	85.31
727.968	85.61
728.151	85.81
728.334	85.37
728.517	85.47
728.699	86.3
728.882	85.98
729.065	86.28
729.248	87.5
729.43	87.72
729.613	87.94
729.796	89.02
729.978	88.81
730.161	88.22
730.343	88.3
730.526	88.44
730.708	87.09
730.891	86.88
731.073	86.61
731.256	86.46
731.438	85.92
731.621	87.06
731.803	87.41
731.986	87.55
732.168	87.3
732.35	87.09
732.533	86.92
732.715	86.93
732.898	87.93
733.08	87.63
733.262	88.67
733.444	88.75
733.627	88.95
733.809	88.64
733.991	90.33
734.173	88.78
734.355	88.59
734.538	88.77
734.72	88.13
734.902	87.35
735.084	88.47
735.266	88.86
735.448	89.58
735.63	90.36
735.812	90.7
735.994	92.18
736.176	92.4
736.358	91.65
736.54	92.44
736.722	91.57
736.904	90.6
737.086	89.88
737.268	90.68
737.45	89.97
737.632	90.67
737.814	89.18
737.995	89.51
738.177	88.65
738.359	87.55
738.541	88.06
738.723	89.28
738.904	90.16
739.086	90.77
739.268	92.02
739.449	91.34
739.631	90.86
739.813	90.37
739.994	90.26
740.176	89.88
740.358	90.36
740.539	90.63
740.721	90.84
740.902	91.75
741.084	91.46
741.265	90.53
741.447	90.61
741.628	91.16
741.81	89.93
741.991	91.11
742.172	92.65
742.354	93.59
742.535	92.72
742.717	93.28
742.898	93.16
743.079	93.32
743.261	92.67
743.442	92.36
743.623	92.42
743.804	91.72
743.986	91.35
744.167	90.29
744.348	89.87
744.529	90.08
744.71	89.12
744.891	88.3
745.073	87.28
745.254	87.36
745.435	86.88
745.616	86.87
745.797	87.48
745.978	88.41
746.159	88.81
746.34	87.68
746.521	89.72
746.702	88.66
746.883	88.74
747.064	87.82
747.245	88.9
747.426	87.22
747.606	88.82
747.787	89.24
747.968	90.11
748.149	90.34
748.33	92.17
748.51	90.82
748.691	90.5
748.872	90.94
749.053	90.38
749.233	88.06
749.414	87.52
749.595	86.51
749.775	84.77
749.956	84.47
750.137	85.55
750.317	87.1
750.498	89.25
750.678	90.88
750.859	91.18
751.04	91.3
751.22	89.91
751.4	87.75
751.581	86.23
751.761	87.22
751.942	87.37
752.122	87.6
752.303	88.23
752.483	89.23
752.663	87.6
752.844	86.45
753.024	87.07
753.204	87.6
753.385	85.78
753.565	85.53
753.745	85.19
753.925	84.39
754.106	83.61
754.286	84.28
754.466	84.41
754.646	86.28
754.826	86.16
755.006	84.87
755.187	86.74
755.367	87.16
755.547	86.42
755.727	87.8
755.907	88.32
756.087	88.01
756.267	87.03
756.447	86.85
756.627	84.41
756.807	87.3
756.987	87.17
757.167	88.78
757.346	88.31
757.526	87.55
757.706	86.19
757.886	86.07
758.066	86.39
758.246	89.04
758.425	89.72
758.605	89.19
758.785	88.8
758.965	88.41
759.144	84.91
759.324	86.07
759.504	86.57
759.683	86.21
759.863	84.38
760.043	83.94
760.222	84.48
760.402	83.02
760.581	82.33
760.761	84.28
760.94	83.95
761.12	84.45
761.299	86.01
761.479	87.01
761.658	84.7
761.838	85.26
762.017	83.9
762.197	82.99
762.376	82.38
762.555	84.3
762.735	85.38
762.914	84.48
763.093	84.86
763.273	84.28
763.452	83.44
763.631	83.48
763.81	83.86
763.99	82.92
764.169	83.52
764.348	80.63
764.527	79.12
764.706	80.7
764.885	82.75
765.064	80.85
765.243	83.45
765.423	84.35
765.602	82.97
765.781	79.09
765.96	79.7
766.139	79.3
766.318	80.21
766.497	79.88
766.676	81.47
766.854	83.01
767.033	82.11
767.212	81.05
767.391	81.59
767.57	82.41
767.749	82.02
767.928	83.92
768.106	82.62
768.285	79.5
768.464	79.34
768.643	77.86
768.821	78.03
769	80.8
769.179	82.41
769.357	80.56
769.536	82.11
769.715	81
769.893	79.97
770.072	80.13
770.25	81.63
770.429	81.96
770.607	81.95
770.786	81.17
770.964	81.4
771.143	79.55
771.321	78.68
771.5	78.72
771.678	77.54
771.857	76.62
772.035	78.06
772.213	77.25
772.392	76.5
772.57	80.02
772.748	81.36
772.927	79.24
773.105	79.34
773.283	79.65
773.461	76.72
773.64	77.78
773.818	77.96
773.996	79.49
774.174	79.37
774.352	77.98
774.531	73.38
774.709	76.13
774.887	74.84
775.065	73.23
775.243	74.41
775.421	76.6
775.599	78.29
775.777	73.78
775.955	72.81
776.133	70.82
776.311	70.41
776.489	66.07
776.667	70.2
776.844	72.58
777.022	71.94
777.2	72.89
777.378	72.05
777.556	71.49
777.734	73.26
777.911	78.45
778.089	77.61
778.267	80.24
778.445	78.77
778.622	77.11
778.8	73.18
778.978	74.26
779.155	73
779.333	74.9
779.511	73.21
779.688	77.14
779.866	73.8
780.043	71.38
780.221	70.4
780.398	68.82
780.576	69.1
780.753	71.6
780.931	72.44
781.108	71.19
781.286	74.33
781.463	71
781.64	67.49
781.818	70.4
781.995	72.49
782.172	70.54
782.35	72.57
782.527	77.53
782.704	72.73
782.882	71.76
783.059	72.01
783.236	69.01
783.413	67.8
783.59	69.8
783.768	68.59
783.945	72.35
784.122	74.42
784.299	74.26
784.476	74.04
784.653	72.5
784.83	67.11
785.007	64.76
785.184	66.39
785.361	64.36
785.538	70.77
785.715	75.96
785.892	78.1
786.069	78.53
786.246	82.66
786.423	80.97
786.6	78.69
786.776	80.99
786.953	76.07
787.13	75.76
787.307	74.85
787.484	75.94
787.66	70.69
787.837	73.58
788.014	70.28
788.191	68.05
788.367	65.03
788.544	69.7
788.721	64.52
788.897	67.51
789.074	67.32
789.25	63.98
789.427	60.95
789.603	64.4
789.78	65.76
789.956	64.45
790.133	62.05
790.309	62.82
790.486	67.53
790.662	65.16
790.839	66.88
791.015	72.23
791.192	69.18
791.368	67.26
791.544	67.03
791.721	66.95
791.897	63.65
792.073	61.48
792.249	53.02
792.426	53.97
792.602	55.86
792.778	56.88
792.954	55.41
793.13	59.55
793.307	54.72
793.483	48.72
793.659	51.44
793.835	59.17
794.011	59.17
794.187	61.9
794.363	62.24
794.539	62.26
794.715	56.51
794.891	57.32
795.067	55.89
795.243	59.52
795.419	58.03
795.595	59.48
795.771	59.79
795.947	62.16
796.122	59.5
796.298	62.77
796.474	63.16
796.65	61.96
796.826	59.89
797.001	59.4
797.177	52.3
797.353	58.28
797.529	61.23
797.704	59.85
797.88	57.69
798.056	54.27
798.231	44.82
798.407	47.6
798.582	46.96
798.758	54.23
798.934	66.89
799.109	66.83
799.285	61.07
799.46	66.22
799.636	62.44
799.811	59.15
799.986	65.43
800.162	69.52
800.337	67.48
800.513	64.16
800.688	60.91
800.863	64.23
801.039	56.66
801.214	52.1
801.389	55.98
801.565	51.99
801.74	38.83
801.915	44.69
802.09	48.02
802.265	52.58
802.441	55.08
802.616	57.64
802.791	57.65
802.966	59.59
803.141	55.92
803.316	51.89
803.491	60.41
803.666	61.64
803.841	53.2
804.016	48.37
804.191	55.04
804.366	48.86
804.541	44.65
804.716	47.97
804.891	44.24
805.066	49.78
805.241	51.76
805.416	52.55
805.591	52.4
805.765	60.27
805.94	63.24
806.115	58.84
806.29	51.52
806.464	56.45
806.639	51.72
806.814	33.52
806.989	26.06
807.163	43.39
807.338	36.45
807.512	36.8
807.687	28.45
807.862	49.85
808.036	44.59
808.211	52.04
808.385	59.06
808.56	82.27
808.734	76.63
808.909	70.27
809.083	63.12
809.258	68.85
809.432	61.14
809.606	50.78
809.781	54.01
809.955	57.83
810.13	52.45
810.304	48.89
810.478	47.64
810.652	50.89
810.827	50.39
811.001	45.09
811.175	46.51
811.349	45.19
811.524	38.41
811.698	31.26
811.872	33.25
812.046	40.61
812.22	51.95
812.394	51.37
812.568	53.8
812.742	58.71
812.916	55.08
813.09	44.72
813.264	45.2
813.438	53.28
813.612	53.29
813.786	45.37
813.96	58.59
814.134	64.87
814.308	68.17
814.482	68.1
814.656	71.94
814.83	68.72
815.003	68.22
815.177	55.54
815.351	46.41
815.525	44.46
815.698	35.52
815.872	28.31
816.046	23.76
816.219	30.93
816.393	42.31
816.567	46.63
816.74	51.42
816.914	60.85
817.088	56.97
817.261	43.65
817.435	31.52
817.608	33.6
817.782	22.04
817.955	30.49
818.129	31.15
818.302	48.41
818.475	53.74
818.649	52.69
818.822	35.78
818.996	52.34
819.169	44.69
819.342	27.73
819.516	46.16
819.689	63.84
819.862	44.39
820.035	32.83
820.209	41.92
820.382	38.16
820.555	40.61
820.728	35.44
820.901	31.27
821.075	23.48
821.248	26.8
821.421	3.32
821.594	6.48
821.767	44.07
821.94	59.37
822.113	28.31
822.286	24.69
822.459	29.32
822.632	9.9
822.805	-5.96
822.978	0.26
823.151	11.53
823.324	7.67
823.496	-15.25
823.669	-3.6
823.842	18.86
824.015	11.73
824.188	5.63
824.361	21.99
824.533	7.88
824.706	10.32
824.879	15.21
825.051	49.46
825.224	45.14
825.397	46.28
825.569	13.91
825.742	21.45
825.915	16.47
826.087	27.33
826.26	29.23
826.432	51.71
826.605	58.51
826.777	35.59
826.95	32.79
827.122	15.26
827.295	15.02
827.467	5.17
827.64	-25.76
827.812	-30.37
827.984	-13.88
828.157	-36.88
828.329	-59.94
828.501	-46.64
828.674	-17.26
828.846	-33.88
829.018	4.83
829.19	-4.05
829.363	37.98
829.535	23.76
829.707	41.66
829.879	-0.03
830.051	6.69
830.223	-20.2
830.395	-42.4
830.568	-58.13
830.74	-49.15
830.912	-22.6
831.084	-28.57
831.256	-19.67
831.428	-35.53
831.6	-34.48
831.772	-72.37
831.943	-81.55
832.115	-39.51
832.287	2.02
832.459	7.77
832.631	28.14
832.803	57.92
832.975	67.29
833.146	54.44
833.318	49.22
833.49	48.11
833.662	14.16
833.833	-0.21
834.005	7.84
834.177	25.26
834.348	29.64
834.52	31.17
834.692	26
834.863	-13.34
835.035	-24.09
835.206	-54.9
835.378	-35.08
835.549	-36.58
835.721	-11.52
835.892	-21.22
836.064	-28.17
836.235	-21.35
836.407	-6.98
836.578	-27.44
836.749	-34.18
836.921	-74.33
837.092	-108.1
837.264	-91.59
837.435	-106.27
837.606	-28.34
837.777	8.86
837.949	26.46
838.12	26.64
838.291	51.39
838.462	31.24
838.633	-3.16
838.805	-8.72
838.976	-11.24
839.147	-99.81
839.318	-105
839.489	-120.4
839.66	-93.87
839.831	-72.59
840.002	-38.26
840.173	-42.49
840.344	9.81
840.515	-9.28
840.686	-77.01
840.857	-85.23
841.028	-94.06
841.199	-114.16
841.369	-135.98
841.54	-116.31
841.711	-62.96
841.882	-46.68
842.053	-28.32
842.223	-40.87
842.394	-6.95
842.565	-23.8
842.736	-13.28
842.906	-9.96
843.077	27.44
843.248	32.62
843.418	35.26
843.589	-9.62
843.759	31.66
843.93	-14.25
844.101	-18.45
844.271	5.61
844.442	27.76
844.612	30.15
844.783	6.25
844.953	-7.3
845.123	-43.97
845.294	-57.38
845.464	-331.49
845.635	-145.65
845.805	-77.94
845.975	-43.9
846.146	-107.64
846.316	-70.16
846.486	-24.34
846.656	20.82
846.827	22.3
846.997	24.98
847.167	57.65
847.337	-0.72
847.507	-89.72
847.677	-57.48
847.848	40.76
848.018	32.25
848.188	44
848.358	35.3
848.528	13.8
848.698	-49.59
848.868	-128.34
849.038	-274.26
849.208	-85.05
849.378	-40.89
849.548	-42.98
849.718	-34.1
849.887	-2.86
850.057	-33.7
850.227	-78.31
850.397	-79.04
850.567	-184.58
850.737	-344.57
850.906	-1279.38
851.076	-900.39
851.246	-411.78
851.415	-19.83
851.585	-27.51
851.755	-32.01
851.924	6.82
852.094	-41.08
852.264	-177.99
852.433	-1572.6
852.603	-342.45
852.772	-354.44
852.942	-137.67
853.111	-81.37
853.281	-16.22
853.45	27.97
853.62	-44.01
853.789	-66.44
853.959	-71.66
854.128	-58.47
854.297	-122.91
854.467	-143.44
854.636	-133.85
854.805	-55.74
854.975	-113.9
855.144	-173.56
855.313	-119.93
855.482	-477.74
855.652	-251.58
855.821	-155.38
855.99	-0.06
856.159	26.99
856.328	30.14
856.497	-7.84
856.667	5.56
856.836	9.88
857.005	-37.77
857.174	-59.92
857.343	-62.88
857.512	-50.94
857.681	-128.71
857.85	-165.46
858.019	-61.35
858.188	-32.18
858.356	-69.97
858.525	-99.82
858.694	-88.49
858.863	-251.88
859.032	-220.16
859.201	-223.24
859.369	-157.02
859.538	-119.47
859.707	-98.85
859.876	-109.63
860.044	-86.92
860.213	8.38
860.382	9.22
860.55	48.08
860.719	68.82
860.888	63.53
861.056	10.26
861.225	3.53
861.393	33.21
861.562	39.19
861.73	-49.9
861.899	-190.31
862.067	-2112.07
862.236	-202.01
862.404	-447.12
862.572	-290.5
862.741	-116.75
862.909	-99.2
863.078	-231.76
863.246	-157.36
863.414	-120.98
863.582	-80.8
863.751	-93.16
863.919	-64.46
864.087	5.45
864.255	-12.48
864.424	-373.11
864.592	-65.8
864.76	-87.23
864.928	-257.2
865.096	-177.87
865.264	-68.87
865.432	-1173.86
865.6	-46.75
865.768	-108.94
865.936	-129.9
866.104	-161.8
866.272	-221.41
866.44	-463.19
866.608	843.21
866.776	421.12
866.944	4459.3
867.112	-813.77
867.28	-354.35
867.448	-165.58
867.615	-66.59
867.783	-13.17
867.951	-34.04
868.119	8.61
868.286	-36.71
868.454	-227.35
868.622	-257.16
868.789	-353.2
868.957	-6989.29
869.125	-3577.63
869.292	-204.3
869.46	-313.28
869.627	-38.66
869.795	-59.11
869.963	-23
870.13	-19.65
870.298	19.01
870.465	-87.74
870.632	-100.9
870.8	-65.13
870.967	-109.51
871.135	-210.4
871.302	-143.63
871.469	-145.46
871.637	-245.73
871.804	-170.08
871.971	-178.56
872.139	-639.3
872.306	-123.93
872.473	-127.29
872.64	-350.43
872.807	-122.89
872.975	-4.65
873.142	-198.73
873.309	1622.97
873.476	20.06
873.643	45.55
873.81	40.64
873.977	83.38
874.144	70.26
874.311	-24.12
874.478	-94.66
874.645	-157.35
874.812	-152.6
874.979	-81.65
875.146	-100.99
875.313	-123.91
875.48	-18.14
875.647	-25.92
875.813	-57.38
875.98	-32.95
876.147	-61.12
876.314	-142.25
876.481	1044.21
876.647	-1423.03
876.814	612.69
876.981	-140.96
877.147	-74.44
877.314	-32.19
877.481	-10.2
877.647	15.35
877.814	-9.25
877.98	-64.33
878.147	-2.58
878.314	41.02
878.48	-4.99
878.647	4.43
878.813	68.57
878.979	51.08
879.146	-5.74
879.312	-17.89
879.479	-95.27
879.645	-248.4
879.811	-472.4
879.978	-1145.42
880.144	-298.46
880.31	-151.25
880.477	-388.6
880.643	-368.84
880.809	-145.98
880.975	-131.56
881.142	-567.73
881.308	-71.58
881.474	-38.79
881.64	-37.38
881.806	-185.27
881.972	-85.55
882.138	-80.26
882.304	-85.73
882.47	-242.84
882.636	-612.7
882.802	-193.15
882.968	-24.77
883.134	-35.24
883.3	-16.24
883.466	20.65
883.632	51.01
883.798	-0.77
883.964	-16.1
884.129	-7.59
884.295	26.3
884.461	-41.09
884.627	-29.9
884.793	-27.1
884.958	12.75
885.124	-79.24
885.29	-185.76
885.455	-236.17
885.621	-96.85
885.787	-223.78
885.952	-125.68
886.118	-91.72
886.283	-86.95
886.449	-206.02
886.614	-204.73
886.78	-303.65
886.945	1436.89
887.111	-789.31
887.276	-636.08
887.442	-1230.45
887.607	-574.76
887.773	-327.87
887.938	-252.35
888.103	-285.29
888.269	-142.02
888.434	-350.54
888.599	-188.51
888.764	-93.85
888.93	-27.3
889.095	-51.1
889.26	-93.24
889.425	-62.6
889.59	-68.52
889.756	-143.13
889.921	-106.58
890.086	-60.73
890.251	-81.15
890.416	-266.48
890.581	-1931.45
890.746	202.68
890.911	374.84
891.076	172.09
891.241	-589.18
891.406	-34.6
891.571	-148.7
891.736	-491.51
891.901	-945.58
892.065	1048.9
892.23	202.76
892.395	316.54
892.56	522.98
892.725	-898.05
892.889	-2584.15
893.054	-406.15
893.219	-172.35
893.384	-63.16
893.548	-107.47
893.713	-109.16
893.878	-68.46
