Data from Ofra_PS_T2_2A_4CX12_Reflection_3.txt Node
Date: Wed Jul 21 17:11:59 EDT 2021
User: Adam
Spectrometer: FLMT01687
Trigger mode: 0
Integration Time (sec): 1.100000E0
Scans to average: 2
Electric dark correction enabled: true
Nonlinearity correction enabled: false
Boxcar width: 2
XAxis mode: Wavelengths
Number of Pixels in Spectrum: 3648
>>>>>Begin Spectral Data<<<<<
179.494	496
179.716	598.35
179.937	606.25
180.158	598.75
180.38	1037.5
180.601	462.98
180.823	101.53
181.044	-136.02
181.265	186.03
181.486	87.13
181.708	100.69
181.929	761.22
182.15	-647.89
182.372	110.14
182.593	75.96
182.814	12.22
183.035	31.13
183.257	68.21
183.478	-0.21
183.699	61.59
183.92	30.77
184.141	55.76
184.363	-10.21
184.584	49.74
184.805	35.63
185.026	68.46
185.247	48.15
185.468	35.32
185.689	28.69
185.91	21.77
186.132	15.35
186.353	13.53
186.574	57.09
186.795	49.83
187.016	14.84
187.237	-17.2
187.458	-53.87
187.679	-61.18
187.9	-57.68
188.121	-44.86
188.342	-21.62
188.563	43.72
188.784	92.33
189.005	90.32
189.226	153.47
189.447	118.69
189.667	-7.77
189.888	-327.09
190.109	-1212.99
190.33	-796.13
190.551	-1354.87
190.772	-295.88
190.993	-263.01
191.214	-224.89
191.434	-154.27
191.655	-28.1
191.876	-68.38
192.097	-84.09
192.318	-124.39
192.538	-141.94
192.759	-152.33
192.98	-38.12
193.201	0.47
193.421	21.98
193.642	15.48
193.863	27.15
194.083	6.76
194.304	-7.84
194.525	-26.31
194.745	-39.76
194.966	-60.82
195.187	-80.99
195.407	-100.24
195.628	-131.76
195.848	-115.57
196.069	-100.71
196.29	-18.23
196.51	-60.18
196.731	-65.63
196.951	-112.67
197.172	-131.78
197.392	-207.67
197.613	-218.89
197.833	-205.87
198.054	-125.45
198.274	-63.29
198.495	-77.71
198.715	-25.73
198.936	-45.59
199.156	-49.2
199.377	-153.73
199.597	-125
199.817	-140.62
200.038	-51.71
200.258	-100.66
200.479	-30.7
200.699	-2.83
200.919	55.15
201.14	-0.46
201.36	-14.61
201.58	29.24
201.801	41.49
202.021	0.32
202.241	-9.09
202.461	-18.57
202.682	-158.82
202.902	-207.98
203.122	-114.96
203.342	-59.62
203.563	-2.21
203.783	38.15
204.003	24.4
204.223	15.88
204.443	54.59
204.663	28.59
204.884	49.54
205.104	81.67
205.324	97.16
205.544	49
205.764	56.07
205.984	43.84
206.204	51.64
206.424	33.85
206.644	18.64
206.864	23.42
207.084	-9.5
207.304	15.36
207.525	-71.56
207.745	9.38
207.964	45.49
208.184	1.14
208.404	-59.34
208.624	-57.73
208.844	-78.53
209.064	-387.33
209.284	-417.62
209.504	-241.09
209.724	-57.31
209.944	-31.52
210.164	1.47
210.384	17.03
210.604	33.57
210.823	-26.48
211.043	-50.25
211.263	-26.71
211.483	-41.14
211.703	-102.74
211.922	-41.61
212.142	21.8
212.362	30.65
212.582	47.3
212.801	56.46
213.021	19.39
213.241	14.59
213.461	-34.69
213.68	-81.37
213.9	-52.6
214.12	-17.84
214.339	-79.07
214.559	-59.15
214.779	0.59
214.998	0.82
215.218	-38.12
215.438	-3.6
215.657	19.04
215.877	10.53
216.096	6.54
216.316	6.63
216.535	-1.72
216.755	-25.32
216.974	-110.74
217.194	-149.92
217.413	-129.64
217.633	-143.42
217.852	-207.49
218.072	-102.28
218.291	-45.79
218.511	-2.35
218.73	-29.39
218.95	-18.66
219.169	-15.21
219.389	-60.39
219.608	-60.02
219.827	-51.54
220.047	-35.47
220.266	-33.1
220.485	-29.28
220.705	-23.07
220.924	-32
221.143	-5.2
221.363	-18.43
221.582	-14.01
221.801	-2.58
222.021	15.6
222.24	-47.49
222.459	12.74
222.678	15.81
222.897	-61.39
223.117	-101.36
223.336	-38.13
223.555	-41.75
223.774	20.19
223.993	62.25
224.213	106.87
224.432	61.48
224.651	70.32
224.87	27.03
225.089	38.8
225.308	37.27
225.527	57.04
225.746	51.26
225.965	39.28
226.184	7.77
226.404	14.16
226.623	-23.79
226.842	-17.63
227.061	10.39
227.28	21.09
227.499	-2.49
227.718	17.81
227.936	13.4
228.155	12.21
228.374	-14.06
228.593	12.13
228.812	9.08
229.031	12.88
229.25	-21.08
229.469	-8.72
229.688	-2.81
229.907	9.52
230.125	28.06
230.344	21.67
230.563	32.71
230.782	31.46
231.001	-37.46
231.22	-47.43
231.438	-2.97
231.657	-3.26
231.876	-16.3
232.095	27.49
232.313	26.61
232.532	13.93
232.751	-7.23
232.969	-4.27
233.188	-23.21
233.407	44.88
233.625	19.4
233.844	-4.05
234.063	-0.08
234.281	14.69
234.5	-9.75
234.719	-7.25
234.937	13.25
235.156	23.55
235.374	15.44
235.593	18.59
235.811	24.04
236.03	37.79
236.249	-16.9
236.467	4.26
236.686	7.17
236.904	19.15
237.123	-2.18
237.341	5.22
237.559	1.42
237.778	-8.29
237.996	-32.62
238.215	6.62
238.433	19.6
238.652	16.23
238.87	-9.04
239.088	1.39
239.307	2.17
239.525	-4.47
239.743	-23.3
239.962	-10.17
240.18	-42.21
240.398	-82.21
240.617	-99.91
240.835	-87.06
241.053	-47
241.271	17.39
241.49	22.77
241.708	15.44
241.926	9.5
242.144	0.5
242.363	-77.82
242.581	-96.09
242.799	-23.35
243.017	19.79
243.235	-5.99
243.453	15.16
243.672	11.9
243.89	-5.24
244.108	-24.82
244.326	4.46
244.544	17.25
244.762	22.13
244.98	28.37
245.198	32.94
245.416	7.35
245.634	-8.41
245.852	-23.12
246.07	-29.89
246.288	-35
246.506	-51.72
246.724	-33.9
246.942	-44.79
247.16	-20.4
247.378	-1.41
247.596	15.57
247.814	10.73
248.032	10.45
248.25	22.69
248.468	14.73
248.685	21.03
248.903	49.81
249.121	54.09
249.339	24.39
249.557	23.46
249.775	30.54
249.992	-27.74
250.21	-35.7
250.428	-9.93
250.646	-30.07
250.863	-53.81
251.081	-27.81
251.299	-25.7
251.517	-27.93
251.734	-14.96
251.952	-10.31
252.17	-13.9
252.387	9
252.605	-2.24
252.823	-4.42
253.04	8.79
253.258	30.09
253.475	5.93
253.693	41.66
253.911	44.37
254.128	44.27
254.346	46.73
254.563	40.7
254.781	5.77
254.998	-9.14
255.216	-19.74
255.433	1.11
255.651	66.17
255.868	95.12
256.086	115.91
256.303	94.71
256.521	62.34
256.738	20.33
256.956	-9.69
257.173	-51.34
257.39	-53.77
257.608	-63.19
257.825	18.57
258.043	62.08
258.26	69.26
258.477	102.26
258.695	89.47
258.912	8.92
259.129	5.68
259.346	-28.06
259.564	-63.06
259.781	-79.42
259.998	4.79
260.216	36.19
260.433	78.83
260.65	57.33
260.867	56.29
261.084	3.75
261.302	-33.21
261.519	-73.96
261.736	-81.23
261.953	-63.7
262.17	-18.92
262.387	-45.46
262.604	-65
262.822	-51.96
263.039	-64.83
263.256	-101.78
263.473	-31.69
263.69	-5.43
263.907	19.87
264.124	40.28
264.341	44.09
264.558	23.4
264.775	22.87
264.992	34.31
265.209	20.39
265.426	26.22
265.643	22.64
265.86	39.74
266.077	27.64
266.294	20.27
266.51	-26.41
266.727	-31.75
266.944	-35.58
267.161	-36.25
267.378	-32.97
267.595	29.41
267.812	14.68
268.028	-5.3
268.245	19.31
268.462	-13.22
268.679	-43.48
268.896	6.34
269.112	9.77
269.329	-5.93
269.546	15.13
269.763	17.09
269.979	2.95
270.196	10.85
270.413	-5.98
270.629	-32.16
270.846	-44.98
271.063	-26.32
271.279	-40.65
271.496	-32.36
271.712	-6.81
271.929	9.98
272.146	-19.79
272.362	9.45
272.579	36.86
272.795	42.85
273.012	33.5
273.228	34.11
273.445	-16.33
273.661	-49.27
273.878	-82.49
274.094	-46.48
274.311	-63.11
274.527	8.42
274.744	24.1
274.96	12.86
275.177	8.7
275.393	18.18
275.609	15.22
275.826	19.8
276.042	34.38
276.259	7.59
276.475	19.13
276.691	17.79
276.908	10.89
277.124	21.12
277.34	36.39
277.557	39.01
277.773	22.87
277.989	6.36
278.205	1.26
278.422	14.14
278.638	13.62
278.854	34.89
279.07	59.62
279.286	51.23
279.503	21.2
279.719	19.94
279.935	-20.49
280.151	-46.82
280.367	-28.54
280.583	-44.16
280.799	-38.12
281.016	-50.21
281.232	-10.82
281.448	-2.64
281.664	35.01
281.88	-6.41
282.096	-3.96
282.312	13.48
282.528	29.25
282.744	16.68
282.96	42.79
283.176	36.98
283.392	14.29
283.608	-1.07
283.824	0.51
284.04	-4.78
284.256	1.16
284.471	4.76
284.687	-5.44
284.903	16.23
285.119	53.32
285.335	31.59
285.551	28.62
285.767	22.01
285.982	1.55
286.198	-42.45
286.414	15.9
286.63	30.41
286.846	47.87
287.061	23.9
287.277	55.92
287.493	25.22
287.709	36.85
287.924	30.51
288.14	69.21
288.356	58.18
288.571	73.03
288.787	41.32
289.003	35.39
289.218	18.01
289.434	-18.82
289.65	-8.38
289.865	-11.68
290.081	20.31
290.296	21.4
290.512	46.41
290.727	11.05
290.943	8.93
291.159	-15.27
291.374	-20.97
291.59	-35.43
291.805	-21.73
292.021	-14.26
292.236	-7.62
292.451	14.73
292.667	15.54
292.882	26.23
293.098	33.35
293.313	24.07
293.529	-26.21
293.744	-40.02
293.959	-39.52
294.175	-29.51
294.39	-3.88
294.605	13.96
294.821	32.88
295.036	32.05
295.251	36.19
295.467	33.84
295.682	27.23
295.897	-13.34
296.112	-34.9
296.328	-40.01
296.543	-75.14
296.758	-60.31
296.973	-3.97
297.188	31.54
297.404	9.12
297.619	12.1
297.834	1.75
298.049	-15.32
298.264	-38.15
298.479	0.7
298.694	1.61
298.909	25.88
299.125	22.54
299.34	31.48
299.555	10.81
299.77	27.03
299.985	-31.45
300.2	-84.51
300.415	-105.82
300.63	-69.48
300.845	-73.54
301.06	-70.54
301.275	-26.83
301.49	-8.46
301.704	-9.62
301.919	-25.29
302.134	-29.53
302.349	-35.72
302.564	-75.32
302.779	-95.84
302.994	-44.83
303.209	-14.16
303.423	30.96
303.638	51.79
303.853	19.02
304.068	4.94
304.283	11.19
304.497	2.57
304.712	-7.35
304.927	4.61
305.142	-2.25
305.356	7.38
305.571	14.19
305.786	10.91
306	-7.24
306.215	-1.18
306.43	-23.05
306.644	-25.27
306.859	24.46
307.074	23.89
307.288	0.37
307.503	-8
307.717	-16.96
307.932	-38.91
308.147	-34.75
308.361	-10.17
308.576	-2.7
308.79	-41.77
309.005	-30.38
309.219	-7.1
309.434	-15.48
309.648	-21.95
309.863	2.62
310.077	-9.22
310.292	-13.58
310.506	-6.45
310.72	4.65
310.935	14.4
311.149	21.07
311.364	33.61
311.578	36.86
311.792	31.98
312.007	36.07
312.221	20.33
312.435	20.6
312.649	1.31
312.864	-12.72
313.078	-0.53
313.292	79.65
313.507	65.88
313.721	131.75
313.935	94.59
314.149	84.66
314.363	37.74
314.578	31
314.792	21.35
315.006	1.54
315.22	3.59
315.434	15.44
315.648	21.36
315.862	21.27
316.077	17.98
316.291	-1.5
316.505	6.7
316.719	-5.31
316.933	-25.32
317.147	-2.27
317.361	-44.89
317.575	-67.55
317.789	-74.11
318.003	-116.69
318.217	-98.9
318.431	-8.4
318.645	32.51
318.859	20.67
319.073	66.14
319.287	60.57
319.5	36.9
319.714	-15.19
319.928	-34.27
320.142	-100.65
320.356	-54.54
320.57	-23.22
320.784	-33.68
320.997	-30.08
321.211	-6.8
321.425	-48.51
321.639	-78.63
321.853	-10.31
322.066	5.54
322.28	5.36
322.494	13.51
322.707	41.13
322.921	25.79
323.135	18.51
323.349	24.3
323.562	-1.43
323.776	-28.73
323.989	-37.53
324.203	-54.76
324.417	-62.58
324.63	-69.64
324.844	-55.3
325.057	-45.29
325.271	-22.17
325.485	14.43
325.698	45.07
325.912	51.83
326.125	30.22
326.339	33.85
326.552	13.04
326.766	-10.62
326.979	17.94
327.193	51.5
327.406	37.68
327.619	24.71
327.833	47
328.046	18.48
328.26	-21.12
328.473	-3.72
328.686	-27.25
328.9	-17.22
329.113	7.74
329.326	12.58
329.54	14.81
329.753	8.44
329.966	-40.14
330.179	-39.26
330.393	-16.06
330.606	-10.27
330.819	23.02
331.032	34.84
331.246	34.12
331.459	55.14
331.672	48.56
331.885	28.85
332.098	6.18
332.311	-6.91
332.525	-66.95
332.738	-51.29
332.951	-2.47
333.164	37.86
333.377	54.1
333.59	74.71
333.803	70.09
334.016	51.54
334.229	28.47
334.442	12.56
334.655	19.6
334.868	32.4
335.081	25.81
335.294	18.46
335.507	31.4
335.72	20.53
335.933	6.6
336.146	12.49
336.359	26.55
336.572	-2.1
336.785	-36.71
336.997	-34.67
337.21	-13.24
337.423	-8.6
337.636	-9.55
337.849	18.15
338.062	17.12
338.274	6.43
338.487	-19.21
338.7	-11.74
338.913	-56.49
339.125	-72.75
339.338	-115.28
339.551	-56.93
339.763	-26.1
339.976	11.24
340.189	32.69
340.402	43.23
340.614	25.52
340.827	7.94
341.039	-8.17
341.252	-6.81
341.465	6.53
341.677	3.22
341.89	-19.37
342.102	14.36
342.315	2.56
342.527	-16.84
342.74	-30.09
342.952	9.39
343.165	-1.75
343.377	19.49
343.59	11.01
343.802	43.87
344.015	47.45
344.227	62.37
344.44	46.13
344.652	54.95
344.864	33.35
345.077	39.23
345.289	34.05
345.502	37.6
345.714	32.86
345.926	36.69
346.139	26.08
346.351	26.11
346.563	28.86
346.775	33.3
346.988	24.03
347.2	5.64
347.412	-39.83
347.624	-54.71
347.837	-91.13
348.049	-67.59
348.261	-6.84
348.473	15.03
348.685	5.91
348.897	20.02
349.11	-9.48
349.322	-66.49
349.534	-50.8
349.746	-37.3
349.958	-38.32
350.17	-11.5
350.382	29.02
350.594	24.57
350.806	32.83
351.018	40.99
351.23	27.17
351.442	-20.97
351.654	-36.68
351.866	-45.07
352.078	-36.3
352.29	-9.66
352.502	8.37
352.714	22.5
352.926	17.51
353.138	13.63
353.35	3.12
353.561	-0.44
353.773	-11.84
353.985	4.69
354.197	-0.73
354.409	4.15
354.621	9.03
354.832	15.98
355.044	1.15
355.256	-4.05
355.468	-5.2
355.679	-11.55
355.891	-11.63
356.103	-16.44
356.314	-3.23
356.526	7.55
356.738	20.71
356.949	22.75
357.161	30.51
357.373	19.44
357.584	4.96
357.796	6.59
358.008	-3.63
358.219	13.07
358.431	19.1
358.642	26.37
358.854	35.04
359.065	36.68
359.277	-4.49
359.488	-14.13
359.7	-27.94
359.911	-66.58
360.123	-40.66
360.334	-46.32
360.546	-60.03
360.757	-51.41
360.969	-22.24
361.18	-23.23
361.391	-0.45
361.603	-2.04
361.814	9.67
362.025	0.46
362.237	-5.17
362.448	12.09
362.659	23.96
362.871	23.56
363.082	35.72
363.293	32.31
363.504	16.92
363.716	-8.48
363.927	-23.83
364.138	-51.27
364.349	-52.48
364.56	-36.58
364.772	-31.17
364.983	-9.54
365.194	-5.22
365.405	8.16
365.616	21.6
365.827	35.18
366.038	25.63
366.25	14.75
366.461	-15.38
366.672	4.04
366.883	10.73
367.094	13.05
367.305	5.16
367.516	15.59
367.727	-19.34
367.938	-25.36
368.149	-28.05
368.36	-0.18
368.571	1.52
368.781	-7.89
368.992	-26.77
369.203	-41.26
369.414	-67.87
369.625	-66.05
369.836	-47.55
370.047	-58.79
370.258	-42.13
370.468	-44.27
370.679	-66.35
370.89	-72.19
371.101	-38.81
371.312	-48.58
371.522	-34.91
371.733	-23.48
371.944	-3.53
372.155	-11.52
372.365	-7.94
372.576	-14.9
372.787	-14.9
372.997	-44.12
373.208	-33.4
373.419	-13.15
373.629	-35.67
373.84	-42.7
374.05	-32.96
374.261	-31.83
374.472	-56.07
374.682	-12.15
374.893	-1.93
375.103	26.27
375.314	21.54
375.524	26.42
375.735	22.36
375.945	24.71
376.156	-9.09
376.366	1.8
376.577	7.73
376.787	13.32
376.997	14.43
377.208	23.53
377.418	6.63
377.629	8.83
377.839	-4.93
378.049	-1.06
378.26	12.01
378.47	17.67
378.68	8.07
378.89	7.46
379.101	2.3
379.311	-19.78
379.521	-35.02
379.732	-37.14
379.942	-22
380.152	-37.55
380.362	-13.26
380.572	-9.82
380.783	11.22
380.993	17.34
381.203	31.7
381.413	34.52
381.623	39.97
381.833	30.23
382.043	16.99
382.253	9.04
382.463	2.65
382.674	-10.68
382.884	-25.34
383.094	-19.59
383.304	-6.99
383.514	-4.52
383.724	12.14
383.934	10.63
384.144	-0.47
384.353	-12.23
384.563	-8.49
384.773	-11.41
384.983	-18.35
385.193	0.22
385.403	2.74
385.613	1.95
385.823	-2.7
386.033	11.28
386.242	4.34
386.452	7.87
386.662	2.16
386.872	8.85
387.082	1.33
387.291	-8.65
387.501	-9.77
387.711	3.34
387.921	-1.72
388.13	-2.54
388.34	7.89
388.55	2.84
388.759	-3.61
388.969	4.18
389.179	4.98
389.388	4.59
389.598	11.22
389.807	10.97
390.017	7.7
390.227	10.65
390.436	6.88
390.646	8.17
390.855	10.27
391.065	7.85
391.274	3.81
391.484	4.2
391.693	5.02
391.903	6.89
392.112	12.18
392.322	17.23
392.531	22.06
392.74	23.2
392.95	17.97
393.159	16.64
393.369	14.86
393.578	14.37
393.787	11.28
393.997	15.44
394.206	14.49
394.415	16
394.625	14.24
394.834	13.69
395.043	12.76
395.252	14.38
395.462	15.72
395.671	17.29
395.88	18.46
396.089	19.02
396.298	17.98
396.508	17.16
396.717	15.79
396.926	16.94
397.135	15.98
397.344	15.19
397.553	15.76
397.762	17.85
397.971	16.8
398.181	17.43
398.39	18.01
398.599	17.64
398.808	17.08
399.017	18.16
399.226	19.95
399.435	20.98
399.644	21.11
399.853	20.52
400.062	19.63
400.27	18.38
400.479	17.59
400.688	16.9
400.897	16.93
401.106	17.02
401.315	16.65
401.524	16.56
401.733	16.8
401.941	17.17
402.15	17.53
402.359	17.6
402.568	18.17
402.777	18.18
402.985	17.8
403.194	17.57
403.403	17.75
403.612	17.27
403.82	17.4
404.029	17.71
404.238	17.55
404.446	17.73
404.655	17.47
404.864	17.54
405.072	17.13
405.281	17.41
405.489	17.06
405.698	17.18
405.906	16.85
406.115	16.9
406.324	16.7
406.532	16.76
406.741	16.91
406.949	16.96
407.158	16.89
407.366	16.92
407.574	16.97
407.783	16.81
407.991	16.84
408.2	17.2
408.408	17.13
408.617	17
408.825	16.82
409.033	16.68
409.242	16.47
409.45	16.46
409.658	16.39
409.867	16.44
410.075	16.32
410.283	16.02
410.491	15.8
410.7	15.59
410.908	15.64
411.116	15.87
411.324	16.09
411.533	15.98
411.741	16.22
411.949	16.17
412.157	15.73
412.365	15.47
412.573	15.57
412.781	15.41
412.99	15.25
413.198	15.62
413.406	15.66
413.614	15.61
413.822	15.51
414.03	15.61
414.238	15.24
414.446	15.32
414.654	15.16
414.862	15.23
415.07	15.06
415.278	15.23
415.486	15.03
415.694	15.03
415.902	14.88
416.109	14.83
416.317	14.98
416.525	14.83
416.733	14.99
416.941	15.14
417.149	15.2
417.357	15.07
417.564	15.31
417.772	15.37
417.98	15.14
418.188	15.16
418.395	15.21
418.603	15.14
418.811	14.7
419.019	14.68
419.226	14.77
419.434	14.75
419.642	14.56
419.849	14.82
420.057	14.89
420.265	14.69
420.472	14.37
420.68	14.29
420.887	14.12
421.095	14.14
421.302	14.16
421.51	14.34
421.717	14.36
421.925	14.34
422.132	14.11
422.34	13.88
422.547	13.9
422.755	13.97
422.962	14
423.17	14.03
423.377	14.22
423.585	14.04
423.792	13.91
423.999	13.83
424.207	13.82
424.414	13.9
424.621	13.81
424.829	13.71
425.036	13.91
425.243	13.99
425.451	13.72
425.658	13.6
425.865	13.93
426.072	13.71
426.28	13.94
426.487	14.06
426.694	14.22
426.901	13.94
427.108	14.07
427.315	13.84
427.523	13.89
427.73	13.79
427.937	13.88
428.144	13.53
428.351	13.47
428.558	13.62
428.765	13.73
428.972	13.68
429.179	13.98
429.386	14.34
429.593	14.03
429.8	13.94
430.007	14.16
430.214	14.23
430.421	13.89
430.628	13.85
430.835	13.82
431.042	13.83
431.249	13.88
431.456	13.99
431.662	14.21
431.869	14.37
432.076	14.37
432.283	14.42
432.49	14.42
432.697	14.45
432.903	14.15
433.11	14.08
433.317	14.16
433.524	14.37
433.73	14.18
433.937	14.68
434.144	14.65
434.35	14.68
434.557	14.5
434.764	14.56
434.97	14.43
435.177	14.66
435.384	14.43
435.59	14.42
435.797	14.69
436.003	14.69
436.21	14.7
436.416	14.83
436.623	14.91
436.829	14.98
437.036	15.04
437.242	15.04
437.449	15.07
437.655	15.19
437.862	15.16
438.068	15.18
438.275	15.31
438.481	15.47
438.687	15.45
438.894	15.37
439.1	15.32
439.307	15.4
439.513	15.25
439.719	15.27
439.926	15.31
440.132	15.33
440.338	15.15
440.544	15.37
440.751	15.32
440.957	15.55
441.163	15.61
441.369	15.82
441.575	15.57
441.782	15.52
441.988	15.33
442.194	15.35
442.4	15.18
442.606	15.5
442.812	15.81
443.018	15.93
443.224	15.94
443.431	16.06
443.637	15.84
443.843	15.65
444.049	15.64
444.255	15.68
444.461	15.75
444.667	15.74
444.873	15.82
445.079	15.79
445.284	15.78
445.49	15.6
445.696	15.59
445.902	15.61
446.108	15.63
446.314	15.65
446.52	15.8
446.726	15.95
446.931	16.07
447.137	16.16
447.343	16.27
447.549	16.11
447.755	16.04
447.96	15.94
448.166	15.86
448.372	15.86
448.578	15.96
448.783	16.07
448.989	16.19
449.195	16.41
449.4	16.34
449.606	16.34
449.812	16.27
450.017	16.2
450.223	16.07
450.428	16.14
450.634	16.36
450.84	16.46
451.045	16.41
451.251	16.29
451.456	16.44
451.662	16.25
451.867	16.36
452.073	16.42
452.278	16.6
452.483	16.66
452.689	16.72
452.894	16.6
453.1	16.59
453.305	16.48
453.51	16.42
453.716	16.43
453.921	16.49
454.127	16.47
454.332	16.42
454.537	16.28
454.742	16.19
454.948	16.21
455.153	16.27
455.358	16.44
455.563	16.52
455.769	16.82
455.974	16.72
456.179	16.48
456.384	16.48
456.589	16.49
456.795	16.26
457	16.28
457.205	16.57
457.41	16.47
457.615	16.46
457.82	16.45
458.025	16.45
458.23	16.32
458.435	16.35
458.64	16.13
458.845	16.34
459.05	16.32
459.255	16.38
459.46	16.46
459.665	16.56
459.87	16.4
460.075	16.39
460.28	16.36
460.485	16.46
460.69	16.53
460.895	16.43
461.099	16.39
461.304	16.54
461.509	16.43
461.714	16.49
461.919	16.62
462.123	16.68
462.328	16.76
462.533	16.78
462.738	16.88
462.942	16.85
463.147	16.9
463.352	16.81
463.556	16.77
463.761	16.74
463.966	16.83
464.17	16.85
464.375	16.8
464.58	16.81
464.784	16.75
464.989	16.63
465.193	16.69
465.398	16.79
465.602	16.89
465.807	16.84
466.011	16.98
466.216	17.03
466.42	17.08
466.625	17.04
466.829	17.2
467.034	17.27
467.238	17.47
467.443	17.36
467.647	17.35
467.851	17.37
468.056	17.45
468.26	17.28
468.464	17.34
468.669	17.57
468.873	17.77
469.077	17.66
469.282	17.73
469.486	17.81
469.69	17.82
469.894	17.58
470.099	17.75
470.303	17.84
470.507	17.78
470.711	17.62
470.915	17.63
471.119	17.56
471.324	17.43
471.528	17.52
471.732	17.6
471.936	17.68
472.14	17.66
472.344	17.74
472.548	17.8
472.752	18.04
472.956	18.28
473.16	18.41
473.364	18.43
473.568	18.4
473.772	18.35
473.976	18.21
474.18	18.15
474.384	18.18
474.588	18.11
474.792	18.02
474.995	18.14
475.199	18.26
475.403	18.32
475.607	18.41
475.811	18.42
476.015	18.44
476.218	18.55
476.422	18.5
476.626	18.68
476.83	18.78
477.033	18.71
477.237	18.57
477.441	18.72
477.644	18.74
477.848	18.76
478.052	18.72
478.255	18.72
478.459	18.66
478.663	18.71
478.866	18.79
479.07	18.85
479.273	19.02
479.477	19.12
479.681	19.12
479.884	19.09
480.088	19.04
480.291	19.02
480.495	19.02
480.698	19.05
480.901	19.1
481.105	19.32
481.308	19.27
481.512	19.3
481.715	19.39
481.919	19.43
482.122	19.35
482.325	19.45
482.529	19.49
482.732	19.41
482.935	19.31
483.138	19.31
483.342	19.37
483.545	19.42
483.748	19.41
483.952	19.51
484.155	19.65
484.358	19.68
484.561	19.62
484.764	19.72
484.967	19.83
485.171	19.95
485.374	19.87
485.577	19.96
485.78	19.96
485.983	19.93
486.186	19.73
486.389	19.77
486.592	19.75
486.795	19.88
486.998	19.88
487.201	19.94
487.404	19.99
487.607	20.04
487.81	19.91
488.013	19.97
488.216	19.99
488.419	20.01
488.622	19.95
488.825	19.89
489.028	19.74
489.231	19.77
489.433	19.66
489.636	19.63
489.839	19.65
490.042	19.67
490.245	19.59
490.447	19.71
490.65	19.8
490.853	19.85
491.056	19.94
491.258	20.02
491.461	19.97
491.664	20.05
491.866	20.01
492.069	20.12
492.272	20.04
492.474	20.15
492.677	20.11
492.879	20.23
493.082	20.3
493.285	20.49
493.487	20.39
493.69	20.37
493.892	20.28
494.095	20.17
494.297	20.15
494.5	20.23
494.702	20.22
494.905	20.35
495.107	20.39
495.309	20.35
495.512	20.38
495.714	20.44
495.917	20.48
496.119	20.5
496.321	20.6
496.524	20.71
496.726	20.78
496.928	20.74
497.13	20.69
497.333	20.71
497.535	20.62
497.737	20.6
497.939	20.6
498.142	20.75
498.344	20.74
498.546	20.75
498.748	20.89
498.95	21.03
499.152	21
499.355	20.99
499.557	21.13
499.759	21.16
499.961	21.07
500.163	21.08
500.365	21.14
500.567	21.28
500.769	21.25
500.971	21.3
501.173	21.28
501.375	21.31
501.577	21.18
501.779	21.17
501.981	21.29
502.183	21.28
502.385	21.3
502.587	21.25
502.788	21.37
502.99	21.4
503.192	21.58
503.394	21.57
503.596	21.58
503.798	21.61
503.999	21.61
504.201	21.63
504.403	21.71
504.605	21.89
504.806	21.77
505.008	21.83
505.21	21.91
505.411	21.95
505.613	21.93
505.815	22.07
506.016	22.13
506.218	22.27
506.42	22.27
506.621	22.33
506.823	22.33
507.024	22.21
507.226	22.11
507.427	22.12
507.629	22.18
507.83	22.3
508.032	22.37
508.233	22.4
508.435	22.5
508.636	22.55
508.838	22.58
509.039	22.65
509.24	22.7
509.442	22.76
509.643	22.74
509.845	22.78
510.046	22.82
510.247	22.86
510.448	22.82
510.65	22.82
510.851	22.87
511.052	22.94
511.254	22.93
511.455	23.03
511.656	23.09
511.857	23.06
512.058	23.1
512.26	23.14
512.461	23.19
512.662	23.28
512.863	23.21
513.064	23.21
513.265	23.3
513.466	23.34
513.667	23.34
513.868	23.45
514.069	23.54
514.27	23.61
514.471	23.61
514.672	23.68
514.873	23.66
515.074	23.69
515.275	23.61
515.476	23.6
515.677	23.61
515.878	23.77
516.079	23.71
516.28	23.72
516.481	23.9
516.682	23.96
516.882	23.91
517.083	23.89
517.284	23.88
517.485	23.78
517.686	23.65
517.886	23.7
518.087	23.8
518.288	23.91
518.488	23.93
518.689	24.05
518.89	24.07
519.091	24.15
519.291	24.16
519.492	24.24
519.692	24.23
519.893	24.29
520.094	24.24
520.294	24.2
520.495	24.16
520.695	24.22
520.896	24.24
521.096	24.31
521.297	24.4
521.497	24.39
521.698	24.47
521.898	24.43
522.099	24.43
522.299	24.45
522.499	24.52
522.7	24.49
522.9	24.53
523.101	24.61
523.301	24.61
523.501	24.6
523.702	24.61
523.902	24.66
524.102	24.72
524.302	24.71
524.503	24.85
524.703	24.87
524.903	24.81
525.103	24.73
525.304	24.79
525.504	24.72
525.704	24.83
525.904	24.89
526.104	24.87
526.304	24.9
526.504	24.89
526.705	24.88
526.905	25.08
527.105	25.17
527.305	25.17
527.505	25.19
527.705	25.2
527.905	25.07
528.105	25.09
528.305	25.08
528.505	25.16
528.705	25.25
528.905	25.23
529.105	25.22
529.304	25.31
529.504	25.35
529.704	25.27
529.904	25.29
530.104	25.34
530.304	25.44
530.503	25.41
530.703	25.31
530.903	25.3
531.103	25.33
531.303	25.25
531.502	25.3
531.702	25.48
531.902	25.6
532.101	25.6
532.301	25.66
532.501	25.66
532.7	25.66
532.9	25.62
533.1	25.66
533.299	25.64
533.499	25.69
533.698	25.66
533.898	25.73
534.097	25.72
534.297	25.79
534.496	25.72
534.696	25.75
534.895	25.87
535.095	25.97
535.294	25.9
535.494	25.91
535.693	25.95
535.892	25.92
536.092	25.75
536.291	25.78
536.491	25.88
536.69	25.97
536.889	25.87
537.088	25.99
537.288	26.08
537.487	26.09
537.686	26.13
537.886	26.19
538.085	26.22
538.284	26.31
538.483	26.3
538.682	26.36
538.882	26.44
539.081	26.56
539.28	26.54
539.479	26.53
539.678	26.49
539.877	26.58
540.076	26.6
540.275	26.61
540.474	26.74
540.673	26.76
540.872	26.69
541.071	26.75
541.27	26.77
541.469	26.81
541.668	26.88
541.867	26.97
542.066	26.96
542.265	27.07
542.464	27.09
542.663	27.13
542.862	27.2
543.06	27.23
543.259	27.23
543.458	27.34
543.657	27.34
543.856	27.34
544.054	27.42
544.253	27.4
544.452	27.37
544.651	27.46
544.849	27.49
545.048	27.54
545.247	27.63
545.445	27.72
545.644	27.75
545.843	27.81
546.041	27.81
546.24	27.93
546.438	27.97
546.637	28.05
546.836	28.1
547.034	28.13
547.233	28.08
547.431	28.1
547.63	28.09
547.828	28.19
548.027	28.26
548.225	28.3
548.423	28.37
548.622	28.5
548.82	28.54
549.019	28.58
549.217	28.77
549.415	28.89
549.614	29.01
549.812	29.02
550.01	29.15
550.209	29.28
550.407	29.35
550.605	29.33
550.803	29.47
551.002	29.53
551.2	29.5
551.398	29.58
551.596	29.78
551.794	29.9
551.993	30.05
552.191	30.11
552.389	30.25
552.587	30.24
552.785	30.27
552.983	30.31
553.181	30.49
553.379	30.48
553.577	30.59
553.775	30.67
553.973	30.74
554.171	30.81
554.369	30.97
554.567	31.05
554.765	31.19
554.963	31.31
555.161	31.31
555.359	31.38
555.557	31.54
555.755	31.57
555.952	31.7
556.15	31.85
556.348	31.98
556.546	32.09
556.744	32.17
556.941	32.2
557.139	32.29
557.337	32.28
557.535	32.32
557.732	32.41
557.93	32.55
558.128	32.67
558.325	32.85
558.523	32.89
558.721	33.07
558.918	33.14
559.116	33.21
559.313	33.26
559.511	33.52
559.708	33.54
559.906	33.58
560.104	33.71
560.301	33.81
560.498	33.88
560.696	33.96
560.893	34.12
561.091	34.24
561.288	34.38
561.486	34.41
561.683	34.55
561.88	34.66
562.078	34.75
562.275	34.83
562.473	34.91
562.67	35.16
562.867	35.32
563.064	35.39
563.262	35.55
563.459	35.65
563.656	35.68
563.853	35.75
564.051	35.85
564.248	35.9
564.445	36.11
564.642	36.25
564.839	36.41
565.036	36.6
565.234	36.78
565.431	36.79
565.628	36.86
565.825	36.92
566.022	36.99
566.219	37.12
566.416	37.26
566.613	37.48
566.81	37.56
567.007	37.63
567.204	37.59
567.401	37.71
567.598	37.61
567.795	37.72
567.991	37.77
568.188	37.93
568.385	38.12
568.582	38.26
568.779	38.23
568.976	38.28
569.172	38.4
569.369	38.28
569.566	38.36
569.763	38.56
569.96	38.65
570.156	38.7
570.353	38.75
570.55	38.83
570.746	38.89
570.943	38.92
571.14	39.05
571.336	39.2
571.533	39.35
571.729	39.29
571.926	39.45
572.123	39.42
572.319	39.42
572.516	39.34
572.712	39.5
572.909	39.37
573.105	39.53
573.302	39.58
573.498	39.63
573.695	39.58
573.891	39.71
574.087	39.66
574.284	39.7
574.48	39.67
574.677	39.72
574.873	39.73
575.069	39.72
575.266	39.75
575.462	39.81
575.658	39.87
575.854	39.99
576.051	39.95
576.247	39.85
576.443	39.82
576.639	39.77
576.835	39.67
577.032	39.67
577.228	39.85
577.424	39.87
577.62	39.8
577.816	39.85
578.012	39.88
578.208	39.9
578.404	39.95
578.6	40.03
578.796	40.05
578.993	40.05
579.189	39.96
579.384	39.81
579.58	39.73
579.776	39.63
579.972	39.55
580.168	39.43
580.364	39.48
580.56	39.46
580.756	39.45
580.952	39.48
581.148	39.53
581.343	39.57
581.539	39.74
581.735	39.66
581.931	39.75
582.127	39.8
582.322	39.81
582.518	39.7
582.714	39.92
582.909	39.74
583.105	39.73
583.301	39.64
583.496	39.66
583.692	39.52
583.888	39.64
584.083	39.65
584.279	39.71
584.474	39.73
584.67	39.73
584.866	39.65
585.061	39.56
585.257	39.54
585.452	39.51
585.648	39.48
585.843	39.61
586.039	39.63
586.234	39.66
586.429	39.58
586.625	39.6
586.82	39.54
587.015	39.56
587.211	39.46
587.406	39.58
587.601	39.69
587.797	39.7
587.992	39.75
588.187	39.92
588.383	39.78
588.578	39.68
588.773	39.65
588.968	39.48
589.163	39.5
589.359	39.53
589.554	39.57
589.749	39.63
589.944	39.82
590.139	39.76
590.334	39.82
590.529	39.81
590.724	39.87
590.919	39.97
591.114	39.98
591.309	40.17
591.504	40.18
591.699	40.17
591.894	40.17
592.089	40.12
592.284	40.05
592.479	40.09
592.674	40.12
592.869	40.19
593.064	40.36
593.259	40.47
593.454	40.61
593.648	40.56
593.843	40.51
594.038	40.44
594.233	40.39
594.428	40.41
594.622	40.65
594.817	40.84
595.012	41.06
595.206	41.22
595.401	41.3
595.596	41.33
595.79	41.39
595.985	41.45
596.18	41.45
596.374	41.6
596.569	41.55
596.763	41.49
596.958	41.55
597.153	41.68
597.347	41.62
597.542	41.87
597.736	41.96
597.931	42.01
598.125	42.05
598.319	42.29
598.514	42.27
598.708	42.4
598.903	42.49
599.097	42.51
599.291	42.56
599.486	42.52
599.68	42.54
599.874	42.62
600.069	42.58
600.263	42.52
600.457	42.7
600.651	42.65
600.846	42.71
601.04	42.89
601.234	42.97
601.428	42.93
601.622	43.07
601.817	43
602.011	42.99
602.205	42.93
602.399	43.03
602.593	43.11
602.787	43.19
602.981	43.22
603.175	43.29
603.369	43.1
603.563	42.97
603.757	43.04
603.951	43.03
604.145	43.01
604.339	43.15
604.533	43.03
604.727	42.95
604.921	42.89
605.115	43
605.309	43.07
605.502	43.21
605.696	43.29
605.89	43.27
606.084	43.23
606.278	43.09
606.471	43.07
606.665	42.99
606.859	42.9
607.053	42.83
607.246	42.84
607.44	42.78
607.634	42.73
607.827	42.84
608.021	42.6
608.214	42.56
608.408	42.5
608.602	42.42
608.795	42.29
608.989	42.38
609.182	42.25
609.376	42.17
609.569	42.15
609.763	42.09
609.956	42.01
610.15	42.01
610.343	42.01
610.537	41.75
610.73	41.69
610.923	41.6
611.117	41.44
611.31	41.3
611.504	41.32
611.697	41.24
611.89	41.15
612.083	41.11
612.277	41.15
612.47	41.12
612.663	41.11
612.856	41.07
613.05	41.03
613.243	40.88
613.436	40.76
613.629	40.54
613.822	40.4
614.015	40.25
614.209	40.12
614.402	40.14
614.595	40.14
614.788	40.12
614.981	40.04
615.174	39.95
615.367	39.85
615.56	39.76
615.753	39.72
615.946	39.64
616.139	39.77
616.332	39.95
616.525	39.99
616.718	39.99
616.911	40.05
617.103	39.92
617.296	39.64
617.489	39.46
617.682	39.4
617.875	39.38
618.067	39.37
618.26	39.25
618.453	39.17
618.646	39.12
618.838	39.11
619.031	39.17
619.224	39.17
619.417	39.3
619.609	39.4
619.802	39.3
619.994	39.26
620.187	39.21
620.38	39.1
620.572	38.91
620.765	38.99
620.957	38.77
621.15	38.76
621.342	38.66
621.535	38.64
621.727	38.59
621.92	38.61
622.112	38.55
622.305	38.72
622.497	38.68
622.69	38.56
622.882	38.5
623.074	38.56
623.267	38.4
623.459	38.37
623.651	38.24
623.844	38.35
624.036	38.28
624.228	38.19
624.42	38.17
624.613	38.3
624.805	38.12
624.997	38.11
625.189	38.03
625.381	38.06
625.574	38.03
625.766	38.02
625.958	37.99
626.15	38.1
626.342	38.03
626.534	37.93
626.726	37.83
626.918	37.81
627.11	37.72
627.302	37.65
627.494	37.68
627.686	37.78
627.878	37.69
628.07	37.65
628.262	37.51
628.454	37.32
628.646	37.38
628.838	37.42
629.029	37.38
629.221	37.46
629.413	37.48
629.605	37.28
629.797	37.18
629.989	37.12
630.18	37.08
630.372	37.14
630.564	37.02
630.755	36.98
630.947	36.98
631.139	36.75
631.33	36.51
631.522	36.72
631.714	36.72
631.905	36.62
632.097	36.68
632.289	36.86
632.48	36.7
632.672	36.57
632.863	36.57
633.055	36.48
633.246	36.39
633.438	36.32
633.629	36.29
633.821	36.28
634.012	36.33
634.203	36.16
634.395	36.06
634.586	36.13
634.777	35.94
634.969	35.95
635.16	36.07
635.351	36.05
635.543	35.95
635.734	36.04
635.925	36.07
636.117	35.93
636.308	36.07
636.499	35.95
636.69	35.87
636.881	35.71
637.073	35.8
637.264	35.64
637.455	35.79
637.646	35.94
637.837	36
638.028	35.81
638.219	35.82
638.41	35.64
638.601	35.45
638.792	35.5
638.983	35.64
639.174	35.66
639.365	35.74
639.556	35.73
639.747	35.64
639.938	35.63
640.129	35.51
640.32	35.43
640.511	35.47
640.701	35.44
640.892	35.45
641.083	35.49
641.274	35.48
641.465	35.36
641.655	35.19
641.846	35.06
642.037	34.99
642.228	34.95
642.418	35.08
642.609	35.22
642.8	35.16
642.99	35.09
643.181	35.15
643.372	35.03
643.562	34.98
643.753	34.99
643.943	34.95
644.134	34.82
644.324	34.87
644.515	34.77
644.705	34.91
644.896	34.87
645.086	34.94
645.277	34.77
645.467	34.72
645.658	34.6
645.848	34.67
646.038	34.63
646.229	34.65
646.419	34.71
646.61	34.62
646.8	34.49
646.99	34.46
647.18	34.31
647.371	34.15
647.561	34.1
647.751	34.02
647.941	33.91
648.132	33.99
648.322	33.94
648.512	33.94
648.702	34.01
648.892	33.95
649.082	33.89
649.272	33.83
649.462	33.67
649.653	33.53
649.843	33.54
650.033	33.48
650.223	33.48
650.413	33.45
650.603	33.5
650.793	33.49
650.983	33.42
651.172	33.4
651.362	33.38
651.552	33.33
651.742	33.13
651.932	33.13
652.122	33.17
652.312	33.24
652.502	33.18
652.691	33.17
652.881	33.07
653.071	32.97
653.261	32.8
653.45	32.64
653.64	32.7
653.83	32.55
654.019	32.32
654.209	32.24
654.399	32.09
654.588	31.9
654.778	31.84
654.968	31.81
655.157	31.65
655.347	31.54
655.536	31.38
655.726	31.24
655.915	30.97
656.105	30.89
656.294	30.82
656.484	30.63
656.673	30.45
656.863	30.44
657.052	30.24
657.241	29.96
657.431	29.66
657.62	29.41
657.809	29.05
657.999	28.87
658.188	28.63
658.377	28.49
658.567	28.36
658.756	28.27
658.945	27.98
659.134	27.83
659.324	27.68
659.513	27.43
659.702	27.26
659.891	27.08
660.08	26.87
660.269	26.72
660.458	26.55
660.648	26.34
660.837	26.19
661.026	26.13
661.215	25.9
661.404	25.65
661.593	25.49
661.782	25.07
661.971	24.86
662.16	24.75
662.349	24.59
662.538	24.26
662.726	24.22
662.915	24
663.104	23.68
663.293	23.65
663.482	23.65
663.671	23.51
663.86	23.29
664.048	23.15
664.237	23.1
664.426	22.86
664.615	22.78
664.803	22.68
664.992	22.68
665.181	22.37
665.369	22.13
665.558	21.94
665.747	21.87
665.935	21.69
666.124	21.65
666.312	21.63
666.501	21.51
666.69	21.27
666.878	21.15
667.067	20.84
667.255	20.85
667.444	21
667.632	21.03
667.82	21
668.009	21.04
668.197	20.97
668.386	20.72
668.574	20.63
668.762	20.6
668.951	20.51
669.139	20.42
669.327	20.36
669.516	20.38
669.704	20.24
669.892	20.37
670.08	20.32
670.269	20.2
670.457	20.11
670.645	19.96
670.833	19.9
671.021	19.88
671.21	19.91
671.398	20.02
671.586	20
671.774	19.83
671.962	19.81
672.15	19.86
672.338	19.64
672.526	19.79
672.714	19.78
672.902	19.71
673.09	19.82
673.278	20.09
673.466	20.07
673.654	20.34
673.842	20.58
674.03	20.53
674.218	20.46
674.405	20.63
674.593	20.42
674.781	20.33
674.969	20.39
675.157	20.49
675.344	20.51
675.532	20.79
675.72	20.94
675.908	21.04
676.095	20.97
676.283	20.93
676.471	21.05
676.658	21.14
676.846	21.17
677.033	21.33
677.221	21.51
677.409	21.44
677.596	21.53
677.784	21.73
677.971	21.88
678.159	21.98
678.346	22.03
678.534	22.18
678.721	22.4
678.909	22.5
679.096	22.63
679.283	22.95
679.471	23.01
679.658	23.15
679.846	23.41
680.033	23.75
680.22	23.87
680.408	23.95
680.595	23.93
680.782	23.91
680.969	24.06
681.157	24.26
681.344	24.47
681.531	24.74
681.718	24.99
681.905	24.95
682.093	25.19
682.28	25.41
682.467	25.64
682.654	25.86
682.841	26.31
683.028	26.54
683.215	26.88
683.402	27.09
683.589	27.31
683.776	27.65
683.963	27.77
684.15	28.09
684.337	28.44
684.524	28.85
684.711	29.09
684.898	29.38
685.085	29.77
685.271	30.29
685.458	30.55
685.645	30.74
685.832	31.19
686.019	31.61
686.205	31.75
686.392	32.19
686.579	32.66
686.766	33.21
686.952	33.47
687.139	33.99
687.326	34.46
687.512	34.96
687.699	35.28
687.886	35.87
688.072	36.3
688.259	36.75
688.445	37.37
688.632	37.8
688.818	38.31
689.005	38.76
689.191	39.14
689.378	39.68
689.564	40.52
689.751	41
689.937	41.52
690.124	42.19
690.31	42.48
690.496	42.72
690.683	43.38
690.869	43.95
691.055	44.41
691.242	45.15
691.428	45.87
691.614	46.24
691.8	46.93
691.987	47.68
692.173	48.31
692.359	48.83
692.545	49.48
692.731	49.94
692.918	50.45
693.104	50.89
693.29	51.57
693.476	52.28
693.662	52.96
693.848	53.57
694.034	54.28
694.22	54.77
694.406	55.24
694.592	55.74
694.778	56.28
694.964	56.71
695.15	56.97
695.336	57.32
695.522	58.12
695.708	58.66
695.894	59
696.08	59.76
696.265	60.47
696.451	60.74
696.637	61.32
696.823	61.88
697.009	62.12
697.194	62.47
697.38	62.92
697.566	63.2
697.751	63.93
697.937	64.94
698.123	65.44
698.308	66.13
698.494	66.71
698.68	67
698.865	67.21
699.051	67.63
699.236	67.71
699.422	68.15
699.607	68.2
699.793	68.56
699.978	68.93
700.164	69.47
700.349	69.94
700.535	70.66
700.72	70.97
700.906	71.7
701.091	71.79
701.276	71.95
701.462	72.56
701.647	73.45
701.832	73.36
702.018	74
702.203	74.03
702.388	74.06
702.573	73.88
702.759	74.75
702.944	74.96
703.129	75.22
703.314	75.45
703.499	75.41
703.684	75.15
703.87	75.91
704.055	76.77
704.24	77.12
704.425	77.8
704.61	78.39
704.795	78.11
704.98	78.06
705.165	78.07
705.35	78.35
705.535	78.21
705.72	78.36
705.905	78.88
706.09	79.37
706.275	79.33
706.459	79.32
706.644	79.49
706.829	79.56
707.014	79.64
707.199	79.88
707.384	80.52
707.568	80.69
707.753	81.12
707.938	81.52
708.123	81.69
708.307	81.65
708.492	82.05
708.677	81.85
708.861	81.68
709.046	81.71
709.231	82.41
709.415	82.74
709.6	83
709.784	82.97
709.969	83.28
710.153	82.57
710.338	82.52
710.522	82.53
710.707	82.91
710.891	83.22
711.076	83.79
711.26	83.51
711.445	83.5
711.629	83.75
711.813	83.52
711.998	83.58
712.182	83.72
712.366	84.43
712.551	84.98
712.735	85.12
712.919	85.26
713.103	85.7
713.288	85.2
713.472	84.86
713.656	85.62
713.84	85.62
714.024	85.82
714.208	85.93
714.393	85.94
714.577	85.57
714.761	86.03
714.945	85.71
715.129	86.14
715.313	86.54
715.497	86.51
715.681	86.78
715.865	86.89
716.049	87.08
716.233	86.63
716.417	86.7
716.601	85.9
716.785	86
716.968	86.21
717.152	86.61
717.336	86.63
717.52	86.92
717.704	87.23
717.888	87.14
718.071	86.96
718.255	87.19
718.439	87.29
718.622	87.4
718.806	87.22
718.99	86.97
719.174	86.65
719.357	86.87
719.541	87.06
719.724	87.19
719.908	88.38
720.092	89.12
720.275	89.48
720.459	89.35
720.642	88.81
720.826	88.42
721.009	88.07
721.193	87.51
721.376	87.3
721.559	88.08
721.743	87.86
721.926	87.98
722.11	88.27
722.293	87.83
722.476	87.48
722.66	87.53
722.843	87.76
723.026	87.39
723.21	88.19
723.393	88.93
723.576	89.23
723.759	88.54
723.942	89.01
724.126	88.84
724.309	88.75
724.492	88.36
724.675	89.01
724.858	89.36
725.041	89.52
725.224	89.23
725.407	89.81
725.59	89.89
725.774	89.94
725.957	89.9
726.14	90.17
726.322	90.03
726.505	89.45
726.688	89.74
726.871	89.76
727.054	89.88
727.237	90.16
727.42	91.29
727.603	90.61
727.786	90.82
727.968	90.71
728.151	90.57
728.334	90.14
728.517	90.69
728.699	90.89
728.882	90.65
729.065	91.47
729.248	92.14
729.43	92.55
729.613	93.11
729.796	94.15
729.978	93.16
730.161	92.25
730.343	91.81
730.526	92.37
730.708	91.58
730.891	92.15
731.073	92.98
731.256	92.95
731.438	92.4
731.621	93.25
731.803	93.08
731.986	92.85
732.168	92.2
732.35	91.48
732.533	91.67
732.715	92.06
732.898	92.72
733.08	93.45
733.262	94.22
733.444	93.89
733.627	93.43
733.809	93.69
733.991	93.98
734.173	93.4
734.355	93.03
734.538	94.12
734.72	93.31
734.902	93.62
735.084	94.38
735.266	94.33
735.448	93.57
735.63	93.62
735.812	93.3
735.994	94.71
736.176	95.48
736.358	95.52
736.54	96.76
736.722	96.63
736.904	95.36
737.086	94.83
737.268	95.22
737.45	95.13
737.632	95.34
737.814	94.63
737.995	95.51
738.177	95.33
738.359	93.72
738.541	94.4
738.723	94.93
738.904	94.73
739.086	95.05
739.268	95.83
739.449	95.55
739.631	95.39
739.813	95.75
739.994	96
740.176	96.21
740.358	95.39
740.539	96.76
740.721	96.7
740.902	97.59
741.084	97.34
741.265	98.18
741.447	97.66
741.628	97.5
741.81	95.93
741.991	96.96
742.172	97.41
742.354	97.56
742.535	97.02
742.717	97.23
742.898	96.32
743.079	96.74
743.261	96.98
743.442	96.09
743.623	97.75
743.804	98.9
743.986	98.79
744.167	96.44
744.348	97.23
744.529	95.18
744.71	93.53
744.891	92.58
745.073	93.3
745.254	93.6
745.435	94.36
745.616	93.76
745.797	93.8
745.978	93.21
746.159	93.11
746.34	92.6
746.521	94.8
746.702	94
746.883	94.28
747.064	93.92
747.245	93.89
747.426	93.06
747.606	94.11
747.787	95.48
747.968	96.53
748.149	97.84
748.33	98.23
748.51	98.31
748.691	97.54
748.872	97.1
749.053	95.05
749.233	94.2
749.414	93.29
749.595	91.7
749.775	90.4
749.956	91.12
750.137	91.74
750.317	94.18
750.498	98.17
750.678	98.23
750.859	99.8
751.04	99.22
751.22	97.08
751.4	94.9
751.581	94.64
751.761	93.85
751.942	94.83
752.122	94.29
752.303	93.79
752.483	94.91
752.663	94.82
752.844	92.94
753.024	93.95
753.204	95.28
753.385	94.32
753.565	93.36
753.745	94.15
753.925	93.12
754.106	91.45
754.286	91.08
754.466	91.23
754.646	91.48
754.826	91.63
755.006	91.75
755.187	93.33
755.367	93.88
755.547	93.58
755.727	94.55
755.907	94.81
756.087	95.13
756.267	93.36
756.447	93.71
756.627	91.43
756.807	91.96
756.987	90.09
757.167	91.51
757.346	91.25
757.526	92.08
757.706	92.75
757.886	94.97
758.066	96.18
758.246	98.04
758.425	98.7
758.605	97.45
758.785	96.42
758.965	95.44
759.144	92.46
759.324	93.09
759.504	93.89
759.683	94.17
759.863	92.46
760.043	92.27
760.222	91.07
760.402	90.69
760.581	90.43
760.761	92.25
760.94	91.27
761.12	93.44
761.299	92.93
761.479	92.88
761.658	90.01
761.838	91.53
762.017	89.54
762.197	90.56
762.376	91.48
762.555	93.24
762.735	93.22
762.914	92.75
763.093	92.88
763.273	91.3
763.452	91.89
763.631	90.98
763.81	90.4
763.99	88.77
764.169	88.81
764.348	87.92
764.527	87.48
764.706	90.03
764.885	90.92
765.064	88.97
765.243	89.44
765.423	91.07
765.602	90.03
765.781	89.37
765.96	90.26
766.139	89.61
766.318	90.77
766.497	90.33
766.676	89.98
766.854	91.32
767.033	91.53
767.212	88.79
767.391	88.69
767.57	89.51
767.749	90.05
767.928	91.28
768.106	92.05
768.285	90.06
768.464	89.39
768.643	88.83
768.821	87.49
769	89.42
769.179	89.59
769.357	88.33
769.536	87.81
769.715	87.5
769.893	87.56
770.072	87.87
770.25	90.4
770.429	90.64
770.607	90.61
770.786	88.66
770.964	91.66
771.143	89.81
771.321	90.73
771.5	90.78
771.678	91.22
771.857	88.42
772.035	88.73
772.213	86.55
772.392	85.73
772.57	86.98
772.748	89.26
772.927	88.63
773.105	88.37
773.283	89.89
773.461	89.71
773.64	88.23
773.818	88.99
773.996	90.42
774.174	89.07
774.352	85.43
774.531	83.01
774.709	83.59
774.887	80.69
775.065	79.72
775.243	81.5
775.421	82.46
775.599	82.61
775.777	83.13
775.955	82.96
776.133	80.24
776.311	81.47
776.489	78.46
776.667	79.11
776.844	80.13
777.022	81.6
777.2	80.96
777.378	83.35
777.556	85.75
777.734	89.05
777.911	91.56
778.089	92.01
778.267	91.22
778.445	87.64
778.622	84.66
778.8	82.8
778.978	83.37
779.155	81.73
779.333	82.49
779.511	81.66
779.688	83.3
779.866	79.82
780.043	79.46
780.221	79.77
780.398	78.08
780.576	80.42
780.753	83.99
780.931	84.46
781.108	82.68
781.286	85.76
781.463	81
781.64	75.33
781.818	75.95
781.995	79.47
782.172	79.55
782.35	79.59
782.527	85.59
782.704	84.34
782.882	83.11
783.059	81.19
783.236	84.85
783.413	85.51
783.59	85.83
783.768	82.53
783.945	85.59
784.122	84.53
784.299	84.2
784.476	84.07
784.653	86.62
784.83	83.6
785.007	77.87
785.184	77.29
785.361	78.35
785.538	82.72
785.715	88.02
785.892	90.05
786.069	90.27
786.246	89.88
786.423	88.23
786.6	84.72
786.776	89.94
786.953	87.64
787.13	89.72
787.307	86.44
787.484	82.47
787.66	77.77
787.837	78.69
788.014	76.8
788.191	75.68
788.367	73.42
788.544	78.47
788.721	76.29
788.897	77.94
789.074	78.96
789.25	79.37
789.427	79.02
789.603	77.62
789.78	81.4
789.956	81.67
790.133	86.37
790.309	84.5
790.486	90.68
790.662	84.37
790.839	84.72
791.015	81.23
791.192	79.76
791.368	78.39
791.544	77.14
791.721	76.52
791.897	80.53
792.073	77.67
792.249	73.03
792.426	79.27
792.602	82.22
792.778	80.54
792.954	79.54
793.13	78.41
793.307	67.78
793.483	60.9
793.659	62.24
793.835	66.81
794.011	69.68
794.187	73.45
794.363	71.94
794.539	74.04
794.715	66.25
794.891	63.02
795.067	62.05
795.243	67.92
795.419	65.13
795.595	67.42
795.771	69.83
795.947	73.88
796.122	67.33
796.298	71.36
796.474	73.34
796.65	75.24
796.826	71.32
797.001	73.65
797.177	65.81
797.353	65.77
797.529	66.09
797.704	66.37
797.88	67.43
798.056	65.67
798.231	62.3
798.407	61.12
798.582	63.39
798.758	67.48
798.934	75.34
799.109	80.12
799.285	80.28
799.46	82.85
799.636	81.24
799.811	75.92
799.986	74.38
800.162	75.17
800.337	72.29
800.513	66.44
800.688	68.71
800.863	77.29
801.039	69.97
801.214	64
801.389	68.86
801.565	65.07
801.74	50.46
801.915	60.44
802.09	69.76
802.265	72.88
802.441	74.91
802.616	79.9
802.791	79.2
802.966	74.77
803.141	77.17
803.316	70.06
803.491	76.73
803.666	78.71
803.841	77.35
804.016	65.72
804.191	71.75
804.366	64.21
804.541	59.44
804.716	61.57
804.891	65.75
805.066	69.19
805.241	65.18
805.416	65.16
805.591	65.95
805.765	66.36
805.94	67.75
806.115	69.59
806.29	64.5
806.464	62.29
806.639	62.43
806.814	55.24
806.989	46.49
807.163	61.28
807.338	59.99
807.512	57.04
807.687	50.23
807.862	69.51
808.036	65.46
808.211	71.55
808.385	77.32
808.56	93.51
808.734	96.57
808.909	95.65
809.083	85.24
809.258	86.52
809.432	81.54
809.606	66.9
809.781	63.15
809.955	63.65
810.13	67.94
810.304	63.7
810.478	59.44
810.652	63.3
810.827	69.79
811.001	59.01
811.175	53.25
811.349	58.08
811.524	45.17
811.698	36.77
811.872	36.89
812.046	50.77
812.22	58.51
812.394	63.65
812.568	67.17
812.742	71.84
812.916	61.56
813.09	50.38
813.264	52.08
813.438	60.96
813.612	54.11
813.786	55.74
813.96	67.13
814.134	74.66
814.308	78.89
814.482	89.91
814.656	87.27
814.83	86.16
815.003	86.3
815.177	70.14
815.351	57.96
815.525	60.94
815.698	52.2
815.872	40.34
816.046	34.44
816.219	42.43
816.393	50.27
816.567	53.64
816.74	57.49
816.914	72.32
817.088	82.45
817.261	70.97
817.435	70.57
817.608	69.72
817.782	64.32
817.955	59.31
818.129	57.65
818.302	60.82
818.475	71.92
818.649	74.53
818.822	53.29
818.996	71.33
819.169	75.84
819.342	59.98
819.516	62.11
819.689	81.8
819.862	63.97
820.035	52.84
820.209	53.79
820.382	54.35
820.555	52.7
820.728	48.11
820.901	45.6
821.075	44.34
821.248	41.52
821.421	32.56
821.594	31
821.767	45.22
821.94	57.54
822.113	40.38
822.286	39.54
822.459	46.4
822.632	32.37
822.805	19.03
822.978	27.88
823.151	26.11
823.324	16.28
823.496	-2.54
823.669	-3.62
823.842	0.98
824.015	3.81
824.188	5.07
824.361	29.08
824.533	23.06
824.706	27.44
824.879	24.66
825.051	32.41
825.224	33.17
825.397	32.56
825.569	19.16
825.742	38.88
825.915	60.33
826.087	60.65
826.26	54.33
826.432	62.77
826.605	57.08
826.777	42.74
826.95	44
827.122	37.33
827.295	46.36
827.467	57.62
827.64	29.42
827.812	30.45
827.984	44.26
828.157	17.25
828.329	-31.74
828.501	-12.1
828.674	-0.68
828.846	-9
829.018	11.1
829.19	5.88
829.363	36.4
829.535	39.6
829.707	55.18
829.879	37.4
830.051	27.75
830.223	9.26
830.395	10.09
830.568	-13.3
830.74	-18.49
830.912	24.72
831.084	22.38
831.256	8.17
831.428	-12.71
831.6	0.96
831.772	-34.64
831.943	-53.53
832.115	-30.16
832.287	16.93
832.459	14.55
832.631	29.2
832.803	58.36
832.975	57.64
833.146	31.5
833.318	31.88
833.49	55.62
833.662	34.41
833.833	6.76
834.005	19.77
834.177	36.24
834.348	17.78
834.52	-2.3
834.692	20.85
834.863	11.8
835.035	-13.53
835.206	-74.12
835.378	-36.24
835.549	-38.16
835.721	-36.64
835.892	-28.47
836.064	-19.48
836.235	-0.31
836.407	23.48
836.578	28.54
836.749	42.52
836.921	45.69
837.092	-18.54
837.264	-34.63
837.435	-53.52
837.606	-22.85
837.777	22.58
837.949	24.26
838.12	20.17
838.291	36.13
838.462	34.83
838.633	1.68
838.805	3.31
838.976	9.9
839.147	-43.88
839.318	-60.44
839.489	-106.74
839.66	-70.48
839.831	-23.99
840.002	-15.16
840.173	-29.91
840.344	32.17
840.515	5.45
840.686	-129.9
840.857	-131.08
841.028	-105.51
841.199	-79.12
841.369	-88.06
841.54	-57.25
841.711	-7.14
841.882	32.36
842.053	12.01
842.223	35.33
842.394	34.29
842.565	30.88
842.736	26.78
842.906	37.33
843.077	36.74
843.248	68.12
843.418	54.96
843.589	27.77
843.759	55.66
843.93	42.83
844.101	7.48
844.271	25.42
844.442	12.78
844.612	31.6
844.783	-0.85
844.953	-43.39
845.123	-50.19
845.294	-34.63
845.464	-252.84
845.635	-57.21
845.805	16.44
845.975	13.81
846.146	-34.57
846.316	-29.36
846.486	-0.63
846.656	31.14
846.827	8.98
846.997	16.61
847.167	21.1
847.337	-20.77
847.507	-58.49
847.677	-24.35
847.848	37.67
848.018	40.11
848.188	41.16
848.358	13.95
848.528	-7.78
848.698	-66.39
848.868	-168.14
849.038	-286.97
849.208	-86.55
849.378	-40.95
849.548	-9.83
849.718	13.68
849.887	47.57
850.057	25.63
850.227	-0.62
850.397	-26.1
850.567	-128.68
850.737	-391.74
850.906	-1306.25
851.076	-800
851.246	-335.08
851.415	-8.62
851.585	-8.37
851.755	-46.27
851.924	-17.25
852.094	-73.09
852.264	-185.4
852.433	-1212.5
852.603	-158.42
852.772	-73.04
852.942	-11.88
853.111	-20.83
853.281	18.5
853.45	40.66
853.62	-57.45
853.789	-77.39
853.959	-41.41
854.128	-44.3
854.297	-93.32
854.467	-113.51
854.636	-126.79
854.805	-61.91
854.975	-87.5
855.144	-68.49
855.313	179.72
855.482	-31.39
855.652	-109.15
855.821	-89.24
855.99	6.58
856.159	16.23
856.328	30.77
856.497	7.45
856.667	2.3
856.836	-6.05
857.005	-34.62
857.174	-70.64
857.343	-72.18
857.512	-1.71
857.681	-63.09
857.85	-60.6
858.019	-23.27
858.188	-12.04
858.356	-53.8
858.525	-94.58
858.694	-64.43
858.863	-97.91
859.032	-94.12
859.201	-91.46
859.369	11.22
859.538	-14.89
859.707	-53.23
859.876	-19.45
860.044	7.61
860.213	21.22
860.382	19.24
860.55	16.68
860.719	37.8
860.888	35.79
861.056	1.54
861.225	-9.17
861.393	40
861.562	11.76
861.73	-65.82
861.899	-135.6
862.067	-1813.79
862.236	-115.4
862.404	-286.46
862.572	-134
862.741	-39.38
862.909	-47.44
863.078	-173.8
863.246	-71.48
863.414	-73.68
863.582	-44.85
863.751	-36.32
863.919	-25.26
864.087	1.84
864.255	-1.07
864.424	-253.78
864.592	6.56
864.76	-14.63
864.928	-70.4
865.096	-43.31
865.264	-42.32
865.432	-1829.55
865.6	-63.5
865.768	-115.52
865.936	-136.79
866.104	-196.66
866.272	-233.75
866.44	-531.89
866.608	701.63
866.776	371.39
866.944	2897.67
867.112	-425
867.28	-161.91
867.448	-54.06
867.615	3.99
867.783	38.4
867.951	-2.52
868.119	31.33
868.286	9.58
868.454	-110.89
868.622	-206.44
868.789	-233.83
868.957	-3971.43
869.125	-2623.68
869.292	-138.82
869.46	-159.69
869.627	54.48
869.795	-2.95
869.963	31.15
870.13	30.48
870.298	44.19
870.465	-89.89
870.632	-81.22
870.8	-54.51
870.967	-125.81
871.135	-215.21
871.302	-137.01
871.469	-151.55
871.637	-233.1
871.804	-93.62
871.971	-58.89
872.139	-389.77
872.306	-18.91
872.473	-96.34
872.64	-465.24
872.807	-237.01
872.975	-16.62
873.142	-240.36
873.309	1518.92
873.476	51.31
873.643	82.81
873.81	42.2
873.977	34.55
874.144	56.14
874.311	-46.12
874.478	-117.63
874.645	-200.52
874.812	-127.64
874.979	-87.77
875.146	-90.37
875.313	-117.44
875.48	25.08
875.647	-7.4
875.813	-44.4
875.98	-22.83
876.147	-28.88
876.314	-130.25
876.481	1171.07
876.647	-1450.56
876.814	581.87
876.981	-40.77
877.147	-30.64
877.314	30.2
877.481	82.07
877.647	80.62
877.814	43.13
877.98	28.66
878.147	48.88
878.314	58.23
878.48	-4.58
878.647	-11.17
878.813	42.39
878.979	23.14
879.146	-24.68
879.312	-14.92
879.479	-79.9
879.645	-241.49
879.811	-433.75
879.978	-1205.34
880.144	-389.61
880.31	-173.32
880.477	-368.69
880.643	-332.04
880.809	-118.18
880.975	-106.76
881.142	-903.64
881.308	-112.7
881.474	-84.84
881.64	-64.85
881.806	-107.42
881.972	-34.74
882.138	-16.11
882.304	-63.4
882.47	-168.17
882.636	-760.66
882.802	-258.28
882.968	-59.32
883.134	-19.51
883.3	-36.18
883.466	18.82
883.632	64.02
883.798	-1.29
883.964	-33.8
884.129	-13.3
884.295	31.59
884.461	-62.23
884.627	-41.54
884.793	-39.14
884.958	-20.67
885.124	-137.09
885.29	-215.98
885.455	-459.22
885.621	-131.31
885.787	-175.32
885.952	-77.84
886.118	-61.6
886.283	-39.43
886.449	-107.97
886.614	-115.36
886.78	-148.08
886.945	837.7
887.111	-458.38
887.276	-494.89
887.442	-729.09
887.607	-371.23
887.773	-240.13
887.938	-257.96
888.103	-270.59
888.269	-185.54
888.434	-392.97
888.599	-144.55
888.764	-43.55
888.93	-11.64
889.095	-38.23
889.26	-63.86
889.425	-28.23
889.59	0.91
889.756	-44.64
889.921	-57.18
890.086	-3.88
890.251	-10.41
890.416	-207.55
890.581	-1700
890.746	203.93
890.911	403.82
891.076	191.92
891.241	-401.49
891.406	19.85
891.571	-16.59
891.736	-204.13
891.901	-380.53
892.065	403.3
892.23	149.16
892.395	257.34
892.56	419.08
892.725	-509.38
892.889	-1414.63
893.054	-257.73
893.219	-124.2
893.384	-72.18
893.548	-167.29
893.713	-188.55
893.878	-121.5
