Data from Ofra_PS_T2_2A_1GT36_Reflection_1.txt Node
Date: Wed Jul 21 16:53:10 EDT 2021
User: Adam
Spectrometer: FLMT01687
Trigger mode: 0
Integration Time (sec): 1.100000E0
Scans to average: 2
Electric dark correction enabled: true
Nonlinearity correction enabled: false
Boxcar width: 2
XAxis mode: Wavelengths
Number of Pixels in Spectrum: 3648
>>>>>Begin Spectral Data<<<<<
179.494	352.6
179.716	396.47
179.937	408.01
180.158	387.44
180.38	681.72
180.601	387.15
180.823	164.64
181.044	49.17
181.265	270.4
181.486	116.29
181.708	72.46
181.929	46.43
182.15	-116.55
182.372	76.44
182.593	133.19
182.814	33.78
183.035	22.13
183.257	35.89
183.478	6.01
183.699	4.89
183.92	31.53
184.141	39.75
184.363	15.28
184.584	22.79
184.805	32.47
185.026	28.91
185.247	34.83
185.468	27.9
185.689	35.25
185.91	39.59
186.132	48.92
186.353	37.37
186.574	78.46
186.795	75.88
187.016	37.51
187.237	37.13
187.458	60.01
187.679	31.75
187.9	35.63
188.121	51
188.342	52.87
188.563	56.4
188.784	87.12
189.005	80.18
189.226	106.26
189.447	128.15
189.667	171
189.888	0.62
190.109	-220.45
190.33	-136.61
190.551	-389.16
190.772	-46.91
190.993	-3.28
191.214	42.19
191.434	-15.82
191.655	48.01
191.876	56.17
192.097	27.49
192.318	-3.43
192.538	88.34
192.759	-36.88
192.98	18.42
193.201	20.82
193.421	40.89
193.642	37.46
193.863	43.35
194.083	25.24
194.304	13.88
194.525	3.75
194.745	-30.42
194.966	-16.11
195.187	-13.05
195.407	5.59
195.628	-32.61
195.848	-16.28
196.069	-13.03
196.29	-11.9
196.51	-18.21
196.731	13.65
196.951	38.52
197.172	48.56
197.392	54.6
197.613	59.48
197.833	-2.78
198.054	-22.75
198.274	-2.06
198.495	-18.69
198.715	6.51
198.936	4.8
199.156	16.66
199.377	-42.7
199.597	-47.71
199.817	-83.75
200.038	-49.5
200.258	-78.11
200.479	-33.61
200.699	-5.08
200.919	41.14
201.14	48.64
201.36	22.58
201.58	46.33
201.801	50.65
202.021	28.37
202.241	28.56
202.461	32.09
202.682	-43.88
202.902	-77.23
203.122	-28.74
203.342	-10.4
203.563	23.58
203.783	42
204.003	25.23
204.223	18.36
204.443	40.87
204.663	8.94
204.884	23.13
205.104	46.36
205.324	72.45
205.544	60.32
205.764	71.32
205.984	86.65
206.204	79.73
206.424	66.55
206.644	68.89
206.864	76.69
207.084	58.94
207.304	67.82
207.525	14.45
207.745	-5.39
207.964	32.79
208.184	-25.75
208.404	-31.69
208.624	-21.25
208.844	-11.98
209.064	-251.32
209.284	-145.79
209.504	-101.08
209.724	10.54
209.944	6.82
210.164	24.78
210.384	14.1
210.604	21.01
210.823	-23.15
211.043	-20.42
211.263	13.3
211.483	21.86
211.703	10.12
211.922	39.16
212.142	66.19
212.362	51.68
212.582	30.51
212.801	28.73
213.021	5.22
213.241	-0.16
213.461	-24.29
213.68	-17.28
213.9	-57.04
214.12	-39.52
214.339	-84.35
214.559	-42.03
214.779	-4.8
214.998	32.4
215.218	20.02
215.438	50.52
215.657	35.88
215.877	29.19
216.096	54.76
216.316	62.34
216.535	54.94
216.755	61.28
216.974	74.64
217.194	38.72
217.413	10.21
217.633	19.3
217.852	-21.07
218.072	-0.77
218.291	-0.59
218.511	30.96
218.73	-10.53
218.95	-7.57
219.169	-19.24
219.389	-34.36
219.608	-18.04
219.827	0.8
220.047	24.34
220.266	42.24
220.485	47.25
220.705	45.86
220.924	37.05
221.143	52.03
221.363	40.49
221.582	54.35
221.801	51.69
222.021	71.54
222.24	49.2
222.459	94.19
222.678	35.19
222.897	19.66
223.117	-43.74
223.336	-14.04
223.555	-27.48
223.774	16.18
223.993	16.85
224.213	24.67
224.432	12.26
224.651	42.2
224.87	18.44
225.089	32.22
225.308	31.44
225.527	50.61
225.746	51.77
225.965	50.39
226.184	22.42
226.404	46.12
226.623	17.3
226.842	12.58
227.061	22.73
227.28	38.7
227.499	38.4
227.718	42.86
227.936	50.79
228.155	67.13
228.374	59.09
228.593	45.27
228.812	50.24
229.031	25.16
229.25	-10.98
229.469	-17.42
229.688	-38.05
229.907	14.03
230.125	39.3
230.344	40.28
230.563	51.47
230.782	70.63
231.001	12.91
231.22	3.36
231.438	29.45
231.657	37.13
231.876	24.31
232.095	50.27
232.313	57.01
232.532	62.92
232.751	46.93
232.969	50.77
233.188	19.24
233.407	38.87
233.625	28.85
233.844	17.54
234.063	25.83
234.281	41.33
234.5	32.97
234.719	36.77
234.937	51.74
235.156	56.68
235.374	50.46
235.593	45.81
235.811	50.5
236.03	29.45
236.249	6.92
236.467	11.73
236.686	24.96
236.904	27.94
237.123	4
237.341	4.16
237.559	12.61
237.778	8.13
237.996	-23.24
238.215	37.51
238.433	44.73
238.652	45.63
238.87	30.32
239.088	42.49
239.307	35.67
239.525	42.62
239.743	22.67
239.962	45.11
240.18	22.02
240.398	-4.52
240.617	-17.43
240.835	16.17
241.053	29.29
241.271	79.42
241.49	77.76
241.708	81.58
241.926	59.47
242.144	42.94
242.363	-3.61
242.581	-58.89
242.799	-31.27
243.017	0.89
243.235	-8.6
243.453	8.07
243.672	15.72
243.89	14.55
244.108	13.2
244.326	27.66
244.544	26.04
244.762	37.01
244.98	35.16
245.198	25
245.416	8.64
245.634	10.72
245.852	14.5
246.07	24.85
246.288	31.35
246.506	27.66
246.724	26.59
246.942	23.66
247.16	34.33
247.378	58.58
247.596	50.12
247.814	28.09
248.032	12.85
248.25	23.99
248.468	4.37
248.685	27.45
248.903	53.03
249.121	55.99
249.339	17.93
249.557	22.01
249.775	6.43
249.992	-28.87
250.21	-28.7
250.428	-5.88
250.646	-30.74
250.863	-24.67
251.081	1.93
251.299	18.4
251.517	18.67
251.734	14.98
251.952	-1.4
252.17	-6.6
252.387	-8.84
252.605	-10.34
252.823	-4.31
253.04	8.75
253.258	26.91
253.475	30.78
253.693	58.63
253.911	51.79
254.128	61.14
254.346	45.06
254.563	29.27
254.781	4.88
254.998	10.62
255.216	1.16
255.433	16.7
255.651	58.27
255.868	62.64
256.086	84.95
256.303	77.17
256.521	52.47
256.738	24.83
256.956	9.52
257.173	-20.41
257.39	-35.5
257.608	-36.1
257.825	6.69
258.043	35.62
258.26	49.19
258.477	78.51
258.695	69.33
258.912	49.9
259.129	43.47
259.346	-0.31
259.564	-20.16
259.781	-17.76
259.998	14.45
260.216	30.62
260.433	74.58
260.65	65.9
260.867	72.75
261.084	48.32
261.302	31.44
261.519	31.62
261.736	17.19
261.953	-11.98
262.17	20.45
262.387	8.12
262.604	-34.29
262.822	-29.32
263.039	-10.21
263.256	-26.94
263.473	11.58
263.69	29.38
263.907	36.35
264.124	48.24
264.341	37.64
264.558	30.52
264.775	37.9
264.992	33.44
265.209	22.89
265.426	39.4
265.643	29.64
265.86	35.04
266.077	26.79
266.294	42.96
266.51	22.52
266.727	23.31
266.944	30.84
267.161	30.07
267.378	22.1
267.595	44.4
267.812	32.53
268.028	25.19
268.245	34.25
268.462	5.02
268.679	-7.82
268.896	31.87
269.112	30.2
269.329	29.29
269.546	43.43
269.763	47.29
269.979	31.17
270.196	21.89
270.413	5.01
270.629	-9.83
270.846	-28.83
271.063	-33.13
271.279	-34.62
271.496	-2.9
271.712	23.37
271.929	42.54
272.146	50.95
272.362	54.11
272.579	44.28
272.795	53.86
273.012	64.86
273.228	86.13
273.445	71.21
273.661	68.79
273.878	28.59
274.094	16.04
274.311	-25.61
274.527	9.72
274.744	0.08
274.96	-2.3
275.177	4.03
275.393	23.97
275.609	32.31
275.826	54.86
276.042	59.87
276.259	46.58
276.475	54.09
276.691	38.46
276.908	21.17
277.124	33.87
277.34	29.35
277.557	8.28
277.773	12.55
277.989	7.66
278.205	4.68
278.422	28.29
278.638	30.74
278.854	44.96
279.07	49.63
279.286	38.98
279.503	7.04
279.719	-3.54
279.935	-24.32
280.151	-25.84
280.367	-5.98
280.583	-4.9
280.799	10.29
281.016	-14.05
281.232	7.19
281.448	-11.7
281.664	1.79
281.88	-24.74
282.096	5.61
282.312	29.01
282.528	48.17
282.744	60.73
282.96	59.8
283.176	43.98
283.392	24.33
283.608	28.56
283.824	21.51
284.04	18.09
284.256	26.43
284.471	16.33
284.687	2.76
284.903	36.09
285.119	62.26
285.335	53.36
285.551	75.61
285.767	71.68
285.982	44.65
286.198	21.29
286.414	40.52
286.63	38.86
286.846	43.19
287.061	27.98
287.277	39.43
287.493	23.74
287.709	30.79
287.924	25.29
288.14	52.96
288.356	53.54
288.571	70.09
288.787	50.82
289.003	51.01
289.218	33.95
289.434	5.8
289.65	0.8
289.865	-2.56
290.081	9.26
290.296	1.16
290.512	32.56
290.727	-5.58
290.943	-1.66
291.159	-8.78
291.374	-10.7
291.59	-24.85
291.805	-0.26
292.021	17.43
292.236	26.72
292.451	46.59
292.667	40.3
292.882	52.48
293.098	37.25
293.313	27.96
293.529	5.93
293.744	1.74
293.959	-3.7
294.175	5.67
294.39	17.45
294.605	22.12
294.821	33.9
295.036	29.47
295.251	33.07
295.467	23.3
295.682	26.25
295.897	-5.98
296.112	-1.67
296.328	-0.33
296.543	13.2
296.758	0.33
296.973	32.33
297.188	42.5
297.404	24.75
297.619	9.5
297.834	-5.52
298.049	-8.27
298.264	-19.8
298.479	15.86
298.694	16.11
298.909	42
299.125	34.36
299.34	29.1
299.555	7.78
299.77	12.27
299.985	-14.37
300.2	-36.31
300.415	-30.92
300.63	-10.14
300.845	-17.48
301.06	-10.24
301.275	-1.36
301.49	15.71
301.704	7.69
301.919	4.19
302.134	-8.57
302.349	-17.84
302.564	-86.49
302.779	-107.67
302.994	-129.58
303.209	-63.39
303.423	-25.4
303.638	33.09
303.853	12.03
304.068	12.31
304.283	16.94
304.497	23.07
304.712	8.04
304.927	11.42
305.142	13.41
305.356	0.22
305.571	-4.95
305.786	-0.76
306	-8.45
306.215	11.19
306.43	18.85
306.644	26.78
306.859	41.27
307.074	44.09
307.288	13.76
307.503	10.06
307.717	9.76
307.932	4.33
308.147	0.77
308.361	12.72
308.576	7.33
308.79	-29.52
309.005	-17.41
309.219	5.27
309.434	1.48
309.648	1.55
309.863	17.53
310.077	21.21
310.292	13.6
310.506	17.35
310.72	31.6
310.935	52.26
311.149	47.1
311.364	49.55
311.578	58.04
311.792	53.91
312.007	53.02
312.221	37.28
312.435	42.6
312.649	29.42
312.864	46.97
313.078	38.72
313.292	96.36
313.507	80.61
313.721	73.44
313.935	53.1
314.149	50.88
314.363	39.9
314.578	36.29
314.792	41.33
315.006	37.63
315.22	38.24
315.434	32.6
315.648	43.37
315.862	38.77
316.077	21.54
316.291	5.19
316.505	27.48
316.719	17.04
316.933	14.26
317.147	18.88
317.361	-1.99
317.575	-46.85
317.789	-49.23
318.003	-95.38
318.217	-87.71
318.431	-11.74
318.645	29.56
318.859	29.29
319.073	50.24
319.287	54.94
319.5	25.89
319.714	-7.03
319.928	-37.29
320.142	-50.43
320.356	-12.43
320.57	24.03
320.784	11.94
320.997	-4.97
321.211	-24.82
321.425	-51.56
321.639	-73.97
321.853	-21.64
322.066	3.57
322.28	10.4
322.494	-3
322.707	9.62
322.921	4.44
323.135	8.09
323.349	36.93
323.562	29.7
323.776	30.84
323.989	43.49
324.203	24.85
324.417	-6.21
324.63	-5.97
324.844	5.69
325.057	11.81
325.271	34.21
325.485	49.65
325.698	66.76
325.912	54.22
326.125	29.86
326.339	22.62
326.552	-13.02
326.766	-10.67
326.979	11.89
327.193	45.83
327.406	42.66
327.619	36.18
327.833	38.11
328.046	11.8
328.26	-19.76
328.473	-1.53
328.686	-10.05
328.9	-12.37
329.113	14.89
329.326	-17.28
329.54	-7.46
329.753	7.16
329.966	13.76
330.179	22.96
330.393	36.36
330.606	36.08
330.819	40.86
331.032	48.38
331.246	38.95
331.459	56.26
331.672	48.66
331.885	46.54
332.098	19.07
332.311	5.98
332.525	-34.03
332.738	-30.77
332.951	-14.95
333.164	13.41
333.377	17.69
333.59	39.18
333.803	42.24
334.016	37.49
334.229	38.38
334.442	57.4
334.655	66.16
334.868	77.14
335.081	71.04
335.294	59.1
335.507	44.84
335.72	43.21
335.933	26.37
336.146	25
336.359	11.49
336.572	5.58
336.785	-25.24
336.997	-3.28
337.21	9.73
337.423	24.65
337.636	25.4
337.849	39.66
338.062	23.3
338.274	10.06
338.487	13.97
338.7	20.62
338.913	-7.07
339.125	-15.22
339.338	-35.86
339.551	-29.57
339.763	0.1
339.976	16.31
340.189	34.84
340.402	29.32
340.614	20.29
340.827	17.01
341.039	25.71
341.252	23.5
341.465	33.31
341.677	45.96
341.89	9.11
342.102	26.13
342.315	4.38
342.527	-4.86
342.74	-2.77
342.952	33.13
343.165	13.76
343.377	34.97
343.59	33.64
343.802	32.86
344.015	23.52
344.227	29.6
344.44	34.15
344.652	48.28
344.864	39.44
345.077	48.71
345.289	53.1
345.502	47.27
345.714	40.38
345.926	48.13
346.139	48.37
346.351	37.7
346.563	48.7
346.775	39.81
346.988	24.55
347.2	18.4
347.412	-5.9
347.624	-22.02
347.837	-17.49
348.049	16.98
348.261	23.05
348.473	32.5
348.685	29.19
348.897	26.27
349.11	3.5
349.322	-14.66
349.534	8.82
349.746	11.7
349.958	16.77
350.17	14.03
350.382	18.42
350.594	5.79
350.806	4.65
351.018	9.65
351.23	1.7
351.442	-5.24
351.654	-8.77
351.866	3.64
352.078	1.53
352.29	11.71
352.502	13.86
352.714	27.34
352.926	13.67
353.138	9.75
353.35	7.6
353.561	20.94
353.773	4.56
353.985	18.12
354.197	15.03
354.409	8.87
354.621	-10.46
354.832	0.67
355.044	-1.13
355.256	-1.05
355.468	21.78
355.679	25.6
355.891	35.24
356.103	20.55
356.314	35.03
356.526	35.6
356.738	38.73
356.949	42.79
357.161	40.95
357.373	31.48
357.584	10.56
357.796	16.09
358.008	4.44
358.219	21.15
358.431	11.92
358.642	20.18
358.854	11.05
359.065	10.99
359.277	-6.07
359.488	-2.44
359.7	-8.32
359.911	-20.08
360.123	-8.65
360.334	-21.35
360.546	-17.54
360.757	-16.29
360.969	0.67
361.18	-1.82
361.391	28.23
361.603	4.21
361.814	21.37
362.025	23.24
362.237	16.26
362.448	5.54
362.659	29.67
362.871	17.76
363.082	13.74
363.293	12.78
363.504	1.8
363.716	-16.28
363.927	-21.04
364.138	-26.62
364.349	-20.34
364.56	-10.26
364.772	-1.19
364.983	15.38
365.194	26.45
365.405	29.35
365.616	42.15
365.827	42.17
366.038	18.07
366.25	6.9
366.461	-12.37
366.672	-9.66
366.883	-3.23
367.094	13.79
367.305	10.57
367.516	11.63
367.727	-3.78
367.938	0.95
368.149	7.28
368.36	11.46
368.571	26.43
368.781	18.23
368.992	-0.47
369.203	-21.22
369.414	-37.08
369.625	-65.2
369.836	-55.48
370.047	-60.89
370.258	-46.48
370.468	-44.6
370.679	-36.35
370.89	-24.78
371.101	-17.55
371.312	-13.24
371.522	5.67
371.733	9.24
371.944	14.52
372.155	22.73
372.365	14.29
372.576	9.39
372.787	4.24
372.997	-11.22
373.208	-7.62
373.419	14.43
373.629	-3.73
373.84	-1.06
374.05	-7.9
374.261	-5.34
374.472	-20.91
374.682	6.51
374.893	6.3
375.103	40.1
375.314	33.67
375.524	33.32
375.735	37.43
375.945	49.77
376.156	26.25
376.366	23.2
376.577	23.57
376.787	10.74
376.997	0.18
377.208	1.78
377.418	10.5
377.629	15.78
377.839	26.14
378.049	23.38
378.26	28.11
378.47	19.41
378.68	11.04
378.89	2.25
379.101	3.73
379.311	-3.95
379.521	-9.83
379.732	-1.51
379.942	-8.38
380.152	-25.14
380.362	-11.17
380.572	-1.07
380.783	8.68
380.993	17.2
381.203	27.55
381.413	34.11
381.623	28.66
381.833	25.31
382.043	20.61
382.253	15.48
382.463	4.56
382.674	-6.39
382.884	-25.26
383.094	-15.56
383.304	-6.84
383.514	2.19
383.724	19.41
383.934	21.02
384.144	8.99
384.353	0.22
384.563	-2.39
384.773	-6.57
384.983	-11.82
385.193	8.21
385.403	13.02
385.613	10.43
385.823	2.08
386.033	10.11
386.242	-0.39
386.452	-0.61
386.662	-9.64
386.872	5.29
387.082	-1.26
387.291	-1.83
387.501	-4.72
387.711	5.95
387.921	-0.82
388.13	2.92
388.34	11.11
388.55	9.01
388.759	7.35
388.969	10.04
389.179	7.1
389.388	0.48
389.598	3.27
389.807	-3.59
390.017	-6.97
390.227	-2.15
390.436	-2.34
390.646	-1.09
390.855	3.69
391.065	3.4
391.274	-0.2
391.484	0.6
391.693	2.28
391.903	3.8
392.112	8.57
392.322	9.26
392.531	11.33
392.74	8.52
392.95	5.42
393.159	3.26
393.369	5.13
393.578	4.11
393.787	4.72
393.997	6.48
394.206	4.32
394.415	3.98
394.625	3.91
394.834	3.99
395.043	4.55
395.252	6.92
395.462	8.3
395.671	8.47
395.88	7.13
396.089	6.28
396.298	3.55
396.508	2.46
396.717	2.22
396.926	3.31
397.135	3.2
397.344	3.73
397.553	4.09
397.762	4.9
397.971	4.38
398.181	4.76
398.39	4.58
398.599	4.11
398.808	3.78
399.017	4.35
399.226	5.22
399.435	6.48
399.644	6.38
399.853	5.39
400.062	5.1
400.27	4.23
400.479	3.38
400.688	3.25
400.897	3.64
401.106	3.84
401.315	3.67
401.524	3.83
401.733	4.23
401.941	4.55
402.15	4.44
402.359	4.55
402.568	4.73
402.777	4.67
402.985	4.64
403.194	4.36
403.403	4.27
403.612	4.11
403.82	3.87
404.029	3.89
404.238	4.04
404.446	4.37
404.655	4.02
404.864	3.9
405.072	3.75
405.281	3.79
405.489	3.37
405.698	3.52
405.906	3.78
406.115	3.65
406.324	3.65
406.532	3.93
406.741	4.09
406.949	3.88
407.158	3.93
407.366	3.87
407.574	3.8
407.783	3.63
407.991	3.49
408.2	3.51
408.408	3.55
408.617	3.41
408.825	3.37
409.033	3.57
409.242	3.63
409.45	3.74
409.658	3.76
409.867	3.97
410.075	3.84
410.283	3.68
410.491	3.49
410.7	3.38
410.908	3.23
411.116	3.44
411.324	3.55
411.533	3.49
411.741	3.68
411.949	3.65
412.157	3.29
412.365	3.17
412.573	3.22
412.781	3.23
412.99	3.26
413.198	3.55
413.406	3.56
413.614	3.47
413.822	3.24
414.03	3.17
414.238	2.95
414.446	3.11
414.654	3
414.862	3.13
415.07	3.19
415.278	3.4
415.486	3.1
415.694	3.27
415.902	3.22
416.109	3.12
416.317	2.97
416.525	3
416.733	2.92
416.941	3.12
417.149	3.1
417.357	3.06
417.564	3.21
417.772	3.3
417.98	3.1
418.188	3.15
418.395	3.22
418.603	3.36
418.811	3.07
419.019	3.09
419.226	3.21
419.434	3.4
419.642	3.13
419.849	3.32
420.057	3.3
420.265	3.36
420.472	3.21
420.68	3.25
420.887	3.17
421.095	3.12
421.302	2.97
421.51	2.88
421.717	2.95
421.925	3.11
422.132	3.2
422.34	2.87
422.547	2.96
422.755	2.8
422.962	2.59
423.17	2.37
423.377	2.53
423.585	2.57
423.792	2.5
423.999	2.54
424.207	2.64
424.414	2.75
424.621	2.43
424.829	2.72
425.036	2.86
425.243	2.99
425.451	2.92
425.658	3.01
425.865	2.96
426.072	2.87
426.28	2.93
426.487	2.93
426.694	3
426.901	2.9
427.108	2.91
427.315	2.8
427.523	3.03
427.73	3.05
427.937	3.07
428.144	2.99
428.351	3.02
428.558	2.95
428.765	2.92
428.972	2.82
429.179	2.88
429.386	2.96
429.593	2.8
429.8	2.67
430.007	2.83
430.214	2.84
430.421	2.74
430.628	2.68
430.835	2.73
431.042	2.78
431.249	2.97
431.456	3
431.662	3.21
431.869	3.28
432.076	3.26
432.283	3.29
432.49	3.25
432.697	3.22
432.903	3.11
433.11	3.18
433.317	3.19
433.524	3.27
433.73	3.22
433.937	3.56
434.144	3.45
434.35	3.36
434.557	3.24
434.764	3.32
434.97	3.18
435.177	3.34
435.384	3.3
435.59	3.32
435.797	3.43
436.003	3.45
436.21	3.36
436.416	3.43
436.623	3.45
436.829	3.48
437.036	3.58
437.242	3.69
437.449	3.66
437.655	3.7
437.862	3.69
438.068	3.6
438.275	3.62
438.481	3.76
438.687	3.81
438.894	3.8
439.1	3.85
439.307	3.88
439.513	3.77
439.719	3.79
439.926	3.72
440.132	3.76
440.338	3.66
440.544	3.84
440.751	3.82
440.957	3.88
441.163	3.75
441.369	3.84
441.575	3.7
441.782	3.76
441.988	3.78
442.194	3.77
442.4	3.72
442.606	3.89
442.812	3.92
443.018	3.98
443.224	4.11
443.431	4.22
443.637	4.09
443.843	4.01
444.049	4.05
444.255	3.98
444.461	4.02
444.667	4.04
444.873	4.11
445.079	4.04
445.284	4.2
445.49	4.09
445.696	3.93
445.902	3.89
446.108	3.92
446.314	3.78
446.52	3.83
446.726	4.08
446.931	4.17
447.137	4.18
447.343	4.29
447.549	4.24
447.755	4.17
447.96	4.1
448.166	3.99
448.372	3.8
448.578	3.88
448.783	3.9
448.989	4.1
449.195	4.33
449.4	4.52
449.606	4.42
449.812	4.38
450.017	4.24
450.223	4.14
450.428	4.03
450.634	4.17
450.84	4.21
451.045	4.15
451.251	4.07
451.456	4.32
451.662	4.4
451.867	4.56
452.073	4.68
452.278	4.77
452.483	4.76
452.689	4.62
452.894	4.52
453.1	4.45
453.305	4.49
453.51	4.4
453.716	4.39
453.921	4.46
454.127	4.39
454.332	4.23
454.537	4.2
454.742	4.23
454.948	4.12
455.153	4.23
455.358	4.4
455.563	4.55
455.769	4.58
455.974	4.58
456.179	4.5
456.384	4.44
456.589	4.38
456.795	4.2
457	4.12
457.205	4.2
457.41	4.18
457.615	4.09
457.82	4.16
458.025	4.18
458.23	4.17
458.435	4.2
458.64	4.13
458.845	4.35
459.05	4.39
459.255	4.41
459.46	4.42
459.665	4.59
459.87	4.49
460.075	4.52
460.28	4.56
460.485	4.64
460.69	4.64
460.895	4.58
461.099	4.54
461.304	4.57
461.509	4.52
461.714	4.42
461.919	4.54
462.123	4.52
462.328	4.55
462.533	4.55
462.738	4.66
462.942	4.58
463.147	4.66
463.352	4.64
463.556	4.69
463.761	4.74
463.966	4.77
464.17	4.8
464.375	4.72
464.58	4.58
464.784	4.5
464.989	4.47
465.193	4.47
465.398	4.5
465.602	4.64
465.807	4.66
466.011	4.75
466.216	4.77
466.42	4.85
466.625	4.88
466.829	4.94
467.034	4.94
467.238	5.09
467.443	5.03
467.647	4.92
467.851	4.93
468.056	4.92
468.26	4.78
468.464	4.81
468.669	4.99
468.873	5.13
469.077	5.12
469.282	5.21
469.486	5.22
469.69	5.2
469.894	5.07
470.099	5.12
470.303	5.17
470.507	5.15
470.711	5.1
470.915	5.08
471.119	5.02
471.324	4.98
471.528	5.04
471.732	5.1
471.936	5.16
472.14	5.21
472.344	5.23
472.548	5.28
472.752	5.46
472.956	5.59
473.16	5.64
473.364	5.64
473.568	5.62
473.772	5.56
473.976	5.48
474.18	5.5
474.384	5.47
474.588	5.5
474.792	5.48
474.995	5.53
475.199	5.61
475.403	5.7
475.607	5.69
475.811	5.64
476.015	5.68
476.218	5.72
476.422	5.68
476.626	5.76
476.83	5.88
477.033	5.8
477.237	5.76
477.441	5.87
477.644	5.89
477.848	5.87
478.052	5.93
478.255	5.94
478.459	5.91
478.663	5.99
478.866	6.02
479.07	6.05
479.273	6.16
479.477	6.15
479.681	6.07
479.884	6.06
480.088	6.04
480.291	5.98
480.495	6.02
480.698	6.11
480.901	6.19
481.105	6.32
481.308	6.33
481.512	6.35
481.715	6.37
481.919	6.36
482.122	6.35
482.325	6.36
482.529	6.39
482.732	6.41
482.935	6.37
483.138	6.32
483.342	6.38
483.545	6.43
483.748	6.55
483.952	6.62
484.155	6.75
484.358	6.76
484.561	6.7
484.764	6.61
484.967	6.7
485.171	6.75
485.374	6.73
485.577	6.83
485.78	6.91
485.983	6.88
486.186	6.77
486.389	6.85
486.592	6.87
486.795	6.91
486.998	6.97
487.201	7.07
487.404	7.15
487.607	7.2
487.81	7.14
488.013	7.18
488.216	7.15
488.419	7.13
488.622	7.15
488.825	7.17
489.028	7.14
489.231	7.25
489.433	7.26
489.636	7.24
489.839	7.35
490.042	7.44
490.245	7.42
490.447	7.54
490.65	7.6
490.853	7.66
491.056	7.74
491.258	7.84
491.461	7.93
491.664	8.09
491.866	8.09
492.069	8.15
492.272	8.23
492.474	8.32
492.677	8.41
492.879	8.59
493.082	8.77
493.285	8.94
493.487	8.99
493.69	9.11
493.892	9.17
494.095	9.27
494.297	9.38
494.5	9.47
494.702	9.52
494.905	9.68
495.107	9.79
495.309	9.84
495.512	10.03
495.714	10.23
495.917	10.37
496.119	10.46
496.321	10.64
496.524	10.75
496.726	10.84
496.928	10.98
497.13	11.13
497.333	11.3
497.535	11.45
497.737	11.61
497.939	11.73
498.142	11.91
498.344	11.96
498.546	12.04
498.748	12.11
498.95	12.23
499.152	12.27
499.355	12.39
499.557	12.56
499.759	12.71
499.961	12.74
500.163	12.82
500.365	12.92
500.567	12.97
500.769	12.94
500.971	13.05
501.173	13.06
501.375	13.12
501.577	13.16
501.779	13.25
501.981	13.27
502.183	13.33
502.385	13.31
502.587	13.33
502.788	13.4
502.99	13.47
503.192	13.54
503.394	13.58
503.596	13.62
503.798	13.68
503.999	13.73
504.201	13.67
504.403	13.67
504.605	13.67
504.806	13.59
505.008	13.54
505.21	13.61
505.411	13.57
505.613	13.57
505.815	13.55
506.016	13.52
506.218	13.48
506.42	13.5
506.621	13.41
506.823	13.41
507.024	13.37
507.226	13.32
507.427	13.28
507.629	13.34
507.83	13.33
508.032	13.35
508.233	13.36
508.435	13.4
508.636	13.32
508.838	13.27
509.039	13.24
509.24	13.24
509.442	13.15
509.643	13.09
509.845	13.02
510.046	13.05
510.247	12.95
510.448	12.86
510.65	12.95
510.851	13.03
511.052	12.95
511.254	12.94
511.455	13.05
511.656	12.97
511.857	12.9
512.058	12.86
512.26	12.85
512.461	12.79
512.662	12.8
512.863	12.69
513.064	12.65
513.265	12.65
513.466	12.64
513.667	12.59
513.868	12.65
514.069	12.63
514.27	12.67
514.471	12.61
514.672	12.6
514.873	12.55
515.074	12.59
515.275	12.43
515.476	12.44
515.677	12.44
515.878	12.55
516.079	12.49
516.28	12.53
516.481	12.56
516.682	12.58
516.882	12.5
517.083	12.48
517.284	12.45
517.485	12.44
517.686	12.41
517.886	12.36
518.087	12.39
518.288	12.36
518.488	12.32
518.689	12.34
518.89	12.36
519.091	12.43
519.291	12.48
519.492	12.53
519.692	12.54
519.893	12.56
520.094	12.54
520.294	12.54
520.495	12.5
520.695	12.46
520.896	12.5
521.096	12.55
521.297	12.57
521.497	12.55
521.698	12.59
521.898	12.56
522.099	12.52
522.299	12.55
522.499	12.59
522.7	12.6
522.9	12.55
523.101	12.59
523.301	12.57
523.501	12.56
523.702	12.55
523.902	12.68
524.102	12.69
524.302	12.74
524.503	12.77
524.703	12.81
524.903	12.78
525.103	12.75
525.304	12.78
525.504	12.78
525.704	12.79
525.904	12.77
526.104	12.79
526.304	12.72
526.504	12.79
526.705	12.76
526.905	12.85
527.105	12.89
527.305	12.92
527.505	12.84
527.705	12.84
527.905	12.76
528.105	12.78
528.305	12.76
528.505	12.88
528.705	12.91
528.905	12.96
529.105	12.98
529.304	13.04
529.504	13.08
529.704	13.1
529.904	13.1
530.104	13.13
530.304	13.22
530.503	13.17
530.703	13.14
530.903	13.18
531.103	13.21
531.303	13.19
531.502	13.25
531.702	13.41
531.902	13.38
532.101	13.35
532.301	13.36
532.501	13.42
532.7	13.36
532.9	13.46
533.1	13.49
533.299	13.57
533.499	13.56
533.698	13.52
533.898	13.53
534.097	13.56
534.297	13.57
534.496	13.61
534.696	13.71
534.895	13.76
535.095	13.87
535.294	13.92
535.494	13.9
535.693	13.95
535.892	13.98
536.092	13.98
536.291	13.98
536.491	14.03
536.69	14.1
536.889	14.08
537.088	14.06
537.288	14.08
537.487	14.14
537.686	14.1
537.886	14.15
538.085	14.23
538.284	14.28
538.483	14.27
538.682	14.35
538.882	14.42
539.081	14.4
539.28	14.41
539.479	14.44
539.678	14.46
539.877	14.53
540.076	14.59
540.275	14.62
540.474	14.74
540.673	14.73
540.872	14.7
541.071	14.77
541.27	14.81
541.469	14.77
541.668	14.83
541.867	14.92
542.066	14.95
542.265	15.05
542.464	15.08
542.663	15.14
542.862	15.19
543.06	15.23
543.259	15.32
543.458	15.38
543.657	15.41
543.856	15.46
544.054	15.46
544.253	15.44
544.452	15.51
544.651	15.59
544.849	15.58
545.048	15.67
545.247	15.71
545.445	15.75
545.644	15.79
545.843	15.81
546.041	15.85
546.24	15.87
546.438	15.96
546.637	16.01
546.836	16.15
547.034	16.17
547.233	16.24
547.431	16.21
547.63	16.27
547.828	16.28
548.027	16.35
548.225	16.36
548.423	16.41
548.622	16.48
548.82	16.48
549.019	16.51
549.217	16.63
549.415	16.75
549.614	16.82
549.812	16.93
550.01	16.93
550.209	16.99
550.407	17.04
550.605	17.08
550.803	17.17
551.002	17.36
551.2	17.4
551.398	17.43
551.596	17.57
551.794	17.64
551.993	17.67
552.191	17.78
552.389	17.86
552.587	17.88
552.785	17.9
552.983	17.97
553.181	18.05
553.379	18.17
553.577	18.27
553.775	18.37
553.973	18.51
554.171	18.57
554.369	18.67
554.567	18.69
554.765	18.76
554.963	18.79
555.161	18.83
555.359	18.89
555.557	19.06
555.755	19.16
555.952	19.33
556.15	19.41
556.348	19.49
556.546	19.55
556.744	19.54
556.941	19.6
557.139	19.69
557.337	19.78
557.535	19.8
557.732	19.96
557.93	19.99
558.128	20.11
558.325	20.17
558.523	20.25
558.721	20.28
558.918	20.38
559.116	20.4
559.313	20.52
559.511	20.7
559.708	20.96
559.906	21.03
560.104	21.19
560.301	21.3
560.498	21.39
560.696	21.37
560.893	21.53
561.091	21.6
561.288	21.72
561.486	21.79
561.683	21.92
561.88	21.99
562.078	22.14
562.275	22.16
562.473	22.25
562.67	22.37
562.867	22.49
563.064	22.52
563.262	22.64
563.459	22.75
563.656	22.9
563.853	23
564.051	23.18
564.248	23.32
564.445	23.44
564.642	23.5
564.839	23.67
565.036	23.83
565.234	23.97
565.431	24.03
565.628	24.22
565.825	24.35
566.022	24.5
566.219	24.6
566.416	24.84
566.613	24.85
566.81	24.87
567.007	24.79
567.204	24.79
567.401	24.78
567.598	24.86
567.795	24.94
567.991	25.07
568.188	25.24
568.385	25.34
568.582	25.46
568.779	25.56
568.976	25.66
569.172	25.74
569.369	25.75
569.566	25.8
569.763	25.99
569.96	26.04
570.156	26.14
570.353	26.24
570.55	26.34
570.746	26.24
570.943	26.35
571.14	26.4
571.336	26.52
571.533	26.63
571.729	26.67
571.926	26.74
572.123	26.83
572.319	26.9
572.516	26.93
572.712	27.15
572.909	27.22
573.105	27.26
573.302	27.33
573.498	27.46
573.695	27.45
573.891	27.54
574.087	27.56
574.284	27.55
574.48	27.55
574.677	27.62
574.873	27.65
575.069	27.72
575.266	27.8
575.462	27.84
575.658	27.95
575.854	28.09
576.051	28.21
576.247	28.26
576.443	28.25
576.639	28.18
576.835	28.14
577.032	28.14
577.228	28.33
577.424	28.49
577.62	28.51
577.816	28.56
578.012	28.58
578.208	28.39
578.404	28.41
578.6	28.52
578.796	28.56
578.993	28.61
579.189	28.67
579.384	28.6
579.58	28.54
579.776	28.61
579.972	28.53
580.168	28.63
580.364	28.77
580.56	28.81
580.756	28.79
580.952	28.88
581.148	28.9
581.343	28.97
581.539	29.12
581.735	29.18
581.931	29.19
582.127	29.24
582.322	29.19
582.518	29.15
582.714	29.19
582.909	29.25
583.105	29.28
583.301	29.25
583.496	29.37
583.692	29.3
583.888	29.25
584.083	29.4
584.279	29.4
584.474	29.37
584.67	29.46
584.866	29.57
585.061	29.34
585.257	29.52
585.452	29.57
585.648	29.6
585.843	29.57
586.039	29.71
586.234	29.64
586.429	29.57
586.625	29.55
586.82	29.56
587.015	29.49
587.211	29.35
587.406	29.48
587.601	29.54
587.797	29.56
587.992	29.66
588.187	29.77
588.383	29.7
588.578	29.75
588.773	29.8
588.968	29.84
589.163	29.95
589.359	29.94
589.554	29.86
589.749	29.94
589.944	29.99
590.139	30.03
590.334	30.08
590.529	30.12
590.724	30.11
590.919	30.14
591.114	30.13
591.309	30.25
591.504	30.47
591.699	30.52
591.894	30.6
592.089	30.66
592.284	30.66
592.479	30.57
592.674	30.68
592.869	30.71
593.064	30.8
593.259	30.9
593.454	31.05
593.648	31.04
593.843	31.06
594.038	31.04
594.233	31.15
594.428	31.13
594.622	31.24
594.817	31.43
595.012	31.59
595.206	31.6
595.401	31.7
595.596	31.67
595.79	31.73
595.985	31.82
596.18	31.89
596.374	32.08
596.569	32.17
596.763	32.22
596.958	32.37
597.153	32.46
597.347	32.38
597.542	32.67
597.736	32.71
597.931	32.62
598.125	32.74
598.319	32.94
598.514	32.85
598.708	32.99
598.903	33.06
599.097	33.05
599.291	32.98
599.486	33.08
599.68	33.02
599.874	33.13
600.069	33.23
600.263	33.3
600.457	33.39
600.651	33.52
600.846	33.59
601.04	33.6
601.234	33.72
601.428	33.79
601.622	33.83
601.817	33.89
602.011	33.96
602.205	33.94
602.399	33.93
602.593	33.93
602.787	33.84
602.981	33.86
603.175	33.87
603.369	33.79
603.563	33.84
603.757	33.92
603.951	33.89
604.145	33.88
604.339	33.98
604.533	33.93
604.727	33.8
604.921	33.77
605.115	33.73
605.309	33.74
605.502	33.7
605.696	33.77
605.89	33.75
606.084	33.8
606.278	33.67
606.471	33.63
606.665	33.48
606.859	33.46
607.053	33.42
607.246	33.37
607.44	33.34
607.634	33.37
607.827	33.34
608.021	33.18
608.214	33.15
608.408	33.07
608.602	33.16
608.795	33.13
608.989	33.05
609.182	32.85
609.376	32.79
609.569	32.5
609.763	32.41
609.956	32.36
610.15	32.43
610.343	32.4
610.537	32.44
610.73	32.32
610.923	32.22
611.117	32.13
611.31	31.95
611.504	31.94
611.697	31.79
611.89	31.87
612.083	31.78
612.277	31.79
612.47	31.72
612.663	31.76
612.856	31.58
613.05	31.56
613.243	31.51
613.436	31.33
613.629	31.28
613.822	31.16
614.015	31.1
614.209	30.94
614.402	31.1
614.595	31.12
614.788	31.16
614.981	30.92
615.174	30.84
615.367	30.54
615.56	30.31
615.753	30.23
615.946	30.2
616.139	30.29
616.332	30.32
616.525	30.33
616.718	30.36
616.911	30.42
617.103	30.27
617.296	30.3
617.489	30.25
617.682	30.17
617.875	30.19
618.067	30.1
618.26	29.92
618.453	29.91
618.646	29.9
618.838	29.78
619.031	29.94
619.224	29.98
619.417	29.96
619.609	29.89
619.802	29.87
619.994	29.73
620.187	29.67
620.38	29.66
620.572	29.6
620.765	29.67
620.957	29.53
621.15	29.5
621.342	29.45
621.535	29.42
621.727	29.27
621.92	29.25
622.112	29.15
622.305	29.12
622.497	29.07
622.69	29.12
622.882	29.22
623.074	29.24
623.267	29.26
623.459	29.26
623.651	29.21
623.844	29.23
624.036	29.3
624.228	29.25
624.42	29.22
624.613	29.31
624.805	29.26
624.997	29.21
625.189	29.22
625.381	29.2
625.574	29.05
625.766	29.02
625.958	28.99
626.15	28.97
626.342	29.06
626.534	29.1
626.726	29.13
626.918	29.05
627.11	28.86
627.302	28.68
627.494	28.62
627.686	28.6
627.878	28.65
628.07	28.73
628.262	28.75
628.454	28.68
628.646	28.62
628.838	28.64
629.029	28.58
629.221	28.65
629.413	28.66
629.605	28.59
629.797	28.54
629.989	28.62
630.18	28.52
630.372	28.41
630.564	28.38
630.755	28.37
630.947	28.32
631.139	28.33
631.33	28.25
631.522	28.35
631.714	28.32
631.905	28.26
632.097	28.22
632.289	28.38
632.48	28.24
632.672	28.15
632.863	28.11
633.055	28.08
633.246	27.99
633.438	28
633.629	28.02
633.821	27.96
634.012	27.89
634.203	27.83
634.395	27.77
634.586	27.78
634.777	27.84
634.969	27.9
635.16	27.98
635.351	27.92
635.543	27.86
635.734	27.82
635.925	27.76
636.117	27.79
636.308	27.87
636.499	27.87
636.69	27.89
636.881	27.91
637.073	27.88
637.264	27.93
637.455	27.93
637.646	27.98
637.837	27.99
638.028	28
638.219	28.04
638.41	28.07
638.601	27.98
638.792	28.04
638.983	27.91
639.174	27.79
639.365	27.76
639.556	27.73
639.747	27.64
639.938	27.84
640.129	27.79
640.32	27.78
640.511	27.87
640.701	27.97
640.892	27.84
641.083	27.97
641.274	28.06
641.465	28.02
641.655	27.92
641.846	27.86
642.037	27.73
642.228	27.58
642.418	27.62
642.609	27.7
642.8	27.82
642.99	27.83
643.181	27.85
643.372	27.74
643.562	27.75
643.753	27.64
643.943	27.65
644.134	27.65
644.324	27.64
644.515	27.57
644.705	27.63
644.896	27.54
645.086	27.52
645.277	27.46
645.467	27.41
645.658	27.3
645.848	27.36
646.038	27.3
646.229	27.33
646.419	27.25
646.61	27.25
646.8	27.27
646.99	27.27
647.18	27.22
647.371	27.21
647.561	27.2
647.751	27.09
647.941	27
648.132	26.96
648.322	26.96
648.512	26.97
648.702	27.02
648.892	27.01
649.082	27.02
649.272	26.92
649.462	26.68
649.653	26.5
649.843	26.42
650.033	26.36
650.223	26.41
650.413	26.37
650.603	26.35
650.793	26.41
650.983	26.28
651.172	26.05
651.362	25.99
651.552	25.95
651.742	25.79
651.932	25.79
652.122	25.87
652.312	25.94
652.502	25.88
652.691	25.84
652.881	25.76
653.071	25.67
653.261	25.44
653.45	25.26
653.64	25.14
653.83	24.95
654.019	24.74
654.209	24.69
654.399	24.5
654.588	24.39
654.778	24.31
654.968	24.15
655.157	23.9
655.347	23.83
655.536	23.64
655.726	23.42
655.915	23.26
656.105	23.1
656.294	22.97
656.484	22.66
656.673	22.49
656.863	22.35
657.052	22.2
657.241	21.88
657.431	21.69
657.62	21.49
657.809	21.13
657.999	20.92
658.188	20.8
658.377	20.58
658.567	20.47
658.756	20.38
658.945	20.24
659.134	19.97
659.324	19.71
659.513	19.42
659.702	19.13
659.891	18.85
660.08	18.68
660.269	18.65
660.458	18.41
660.648	18.18
660.837	17.98
661.026	17.81
661.215	17.53
661.404	17.33
661.593	17.15
661.782	16.93
661.971	16.69
662.16	16.48
662.349	16.32
662.538	16.07
662.726	15.96
662.915	15.78
663.104	15.65
663.293	15.52
663.482	15.53
663.671	15.39
663.86	15.22
664.048	15.04
664.237	14.94
664.426	14.67
664.615	14.51
664.803	14.34
664.992	14.1
665.181	13.84
665.369	13.74
665.558	13.61
665.747	13.45
665.935	13.47
666.124	13.5
666.312	13.43
666.501	13.23
666.69	13.17
666.878	13.01
667.067	12.74
667.255	12.79
667.444	12.96
667.632	12.96
667.82	12.93
668.009	12.99
668.197	12.84
668.386	12.59
668.574	12.62
668.762	12.6
668.951	12.49
669.139	12.46
669.327	12.34
669.516	12.27
669.704	12.16
669.892	12.33
670.08	12.25
670.269	12.18
670.457	11.99
670.645	11.9
670.833	11.83
671.021	11.79
671.21	12.01
671.398	12.25
671.586	12.43
671.774	12.31
671.962	12.35
672.15	12.37
672.338	12.25
672.526	12.15
672.714	12.11
672.902	12.11
673.09	12.16
673.278	12.27
673.466	12.27
673.654	12.53
673.842	12.56
674.03	12.56
674.218	12.59
674.405	12.7
674.593	12.53
674.781	12.73
674.969	12.77
675.157	12.89
675.344	13.11
675.532	13.31
675.72	13.35
675.908	13.43
676.095	13.39
676.283	13.4
676.471	13.6
676.658	13.66
676.846	13.78
677.033	13.87
677.221	13.87
677.409	13.72
677.596	13.85
677.784	13.96
677.971	14.18
678.159	14.39
678.346	14.6
678.534	14.87
678.721	15.01
678.909	15.06
679.096	15.16
679.283	15.38
679.471	15.37
679.658	15.48
679.846	15.75
680.033	15.94
680.22	15.99
680.408	16.04
680.595	16.25
680.782	16.29
680.969	16.53
681.157	16.71
681.344	16.94
681.531	17.1
681.718	17.27
681.905	17.4
682.093	17.76
682.28	18.01
682.467	18.28
682.654	18.6
682.841	18.81
683.028	18.95
683.215	19.2
683.402	19.24
683.589	19.38
683.776	19.72
683.963	19.99
684.15	20.33
684.337	20.77
684.524	21.05
684.711	21.35
684.898	21.68
685.085	22.02
685.271	22.51
685.458	22.96
685.645	23.31
685.832	23.67
686.019	24.16
686.205	24.4
686.392	24.82
686.579	25.23
686.766	25.86
686.952	26.14
687.139	26.77
687.326	27.24
687.512	27.78
687.699	28.05
687.886	28.47
688.072	28.71
688.259	29.12
688.445	29.6
688.632	29.98
688.818	30.78
689.005	31.41
689.191	32.08
689.378	32.64
689.564	33.34
689.751	33.74
689.937	34.42
690.124	35.03
690.31	35.63
690.496	36.26
690.683	36.94
690.869	37.42
691.055	38.06
691.242	38.88
691.428	39.6
691.614	40.31
691.8	41.25
691.987	41.96
692.173	42.54
692.359	43.13
692.545	43.68
692.731	44.29
692.918	44.99
693.104	45.46
693.29	46.15
693.476	46.98
693.662	47.57
693.848	48.11
694.034	48.79
694.22	49.43
694.406	50.03
694.592	50.57
694.778	51.18
694.964	51.86
695.15	52.5
695.336	52.82
695.522	53.52
695.708	54.17
695.894	54.82
696.08	55.33
696.265	56.22
696.451	56.9
696.637	57.45
696.823	58.02
697.009	58.55
697.194	59.01
697.38	59.58
697.566	60.03
697.751	60.69
697.937	61.5
698.123	62.23
698.308	62.62
698.494	63.2
698.68	63.31
698.865	63.77
699.051	63.99
699.236	64.31
699.422	64.73
699.607	65.35
699.793	65.61
699.978	65.94
700.164	66.28
700.349	66.64
700.535	67.07
700.72	67.34
700.906	67.89
701.091	68.52
701.276	69.23
701.462	70.14
701.647	70.98
701.832	71.41
702.018	71.7
702.203	71.74
702.388	71.5
702.573	71.58
702.759	71.95
702.944	72.05
703.129	72.26
703.314	72.54
703.499	72.87
703.684	73.28
703.87	74.18
704.055	75.03
704.24	75.41
704.425	75.74
704.61	75.78
704.795	75.85
704.98	75.68
705.165	75.9
705.35	76.06
705.535	76.53
705.72	76.43
705.905	77.11
706.09	77.54
706.275	77.85
706.459	77.86
706.644	78.33
706.829	77.87
707.014	77.93
707.199	78.23
707.384	78.6
707.568	78.81
707.753	79.5
707.938	79.71
708.123	79.91
708.307	79.74
708.492	79.76
708.677	79.82
708.861	79.83
709.046	79.77
709.231	80.48
709.415	81.12
709.6	81.07
709.784	81.13
709.969	81.15
710.153	81.12
710.338	80.78
710.522	81.15
710.707	81.56
710.891	81.99
711.076	81.83
711.26	81.68
711.445	81.92
711.629	82.05
711.813	81.96
711.998	82.32
712.182	82.81
712.366	82.9
712.551	83.28
712.735	83.63
712.919	83.6
713.103	83.66
713.288	83.92
713.472	83.68
713.656	83.97
713.84	84.16
714.024	84.94
714.208	84.46
714.393	84.99
714.577	84.75
714.761	84.99
714.945	84.62
715.129	85.03
715.313	84.81
715.497	84.94
715.681	85.46
715.865	85.08
716.049	85.5
716.233	85.42
716.417	86.12
716.601	85.73
716.785	86.14
716.968	86.28
717.152	86.58
717.336	86.29
717.52	86.47
717.704	86.57
717.888	86.85
718.071	87.1
718.255	87.29
718.439	87.17
718.622	87.13
718.806	86.88
718.99	86.83
719.174	86.53
719.357	86.85
719.541	87.87
719.724	87.85
719.908	88.55
720.092	89.06
720.275	89.11
720.459	88.54
720.642	88.45
720.826	87.78
721.009	87.62
721.193	87.21
721.376	87.07
721.559	87
721.743	87.28
721.926	87.83
722.11	88.63
722.293	88.64
722.476	88.98
722.66	89.41
722.843	89
723.026	88.26
723.21	88.9
723.393	89.56
723.576	89.22
723.759	88.94
723.942	89.67
724.126	89.68
724.309	89.83
724.492	90.13
724.675	90.88
724.858	91.34
725.041	91.39
725.224	91.18
725.407	91.32
725.59	91.51
725.774	91.34
725.957	91.13
726.14	91.41
726.322	91.01
726.505	90.58
726.688	90.55
726.871	90.56
727.054	90.32
727.237	90.5
727.42	91.38
727.603	91.24
727.786	91.32
727.968	91.58
728.151	92.24
728.334	92.21
728.517	92.26
728.699	92.95
728.882	92.64
729.065	92.59
729.248	92.15
729.43	93.19
729.613	93.48
729.796	94.42
729.978	93.84
730.161	94.09
730.343	93.06
730.526	93.13
730.708	92.61
730.891	93.31
731.073	92.9
731.256	93.43
731.438	93.68
731.621	94.13
731.803	93.89
731.986	94.42
732.168	93.86
732.35	93.47
732.533	93.35
732.715	93.92
732.898	94.21
733.08	94.53
733.262	94.78
733.444	94.53
733.627	95.18
733.809	95.17
733.991	95.77
734.173	95.62
734.355	95.94
734.538	95.87
734.72	95.57
734.902	95.55
735.084	96.31
735.266	95.73
735.448	96.38
735.63	96.53
735.812	96.79
735.994	96.65
736.176	96.83
736.358	95.57
736.54	96.65
736.722	96.26
736.904	95.57
737.086	95.79
737.268	96.46
737.45	95.68
737.632	95.99
737.814	95.63
737.995	96.23
738.177	95.93
738.359	95.55
738.541	95.75
738.723	96.56
738.904	97.78
739.086	98.2
739.268	98.77
739.449	98.9
739.631	98.47
739.813	97.99
739.994	98.17
740.176	97.78
740.358	97.22
740.539	98.13
740.721	98.07
740.902	98.41
741.084	98.77
741.265	98.94
741.447	98.76
741.628	98.66
741.81	97.51
741.991	98.52
742.172	98.65
742.354	99.02
742.535	98.72
742.717	98.74
742.898	99.04
743.079	100.08
743.261	99.64
743.442	99.24
743.623	100.33
743.804	99.78
743.986	99.76
744.167	99.22
744.348	99.67
744.529	98.6
744.71	97.21
744.891	96.5
745.073	96.91
745.254	96.5
745.435	97.03
745.616	97.48
745.797	97.53
745.978	97.48
746.159	97.66
746.34	96.92
746.521	98.65
746.702	98.29
746.883	98.28
747.064	98.62
747.245	99.95
747.426	98.91
747.606	99.66
747.787	100.3
747.968	100.55
748.149	99.89
748.33	100.36
748.51	100.49
748.691	99.93
748.872	100.09
749.053	99.75
749.233	98.36
749.414	97.66
749.595	97.34
749.775	96.42
749.956	96.64
750.137	97.25
750.317	97.87
750.498	98.81
750.678	98.94
750.859	99.12
751.04	99.29
751.22	97.86
751.4	97.68
751.581	96.42
751.761	97.15
751.942	97.72
752.122	97.71
752.303	97.47
752.483	98.47
752.663	97.84
752.844	96.88
753.024	99.43
753.204	99.85
753.385	99.54
753.565	100.18
753.745	99.8
753.925	97.89
754.106	96.42
754.286	97.23
754.466	96.54
754.646	96.92
754.826	97.42
755.006	96.96
755.187	97.45
755.367	98.54
755.547	98.74
755.727	99.55
755.907	100.67
756.087	99.64
756.267	98.13
756.447	100.16
756.627	98.02
756.807	98.62
756.987	98.53
757.167	99.14
757.346	96.63
757.526	97.24
757.706	96.87
757.886	98.12
758.066	97.57
758.246	98.31
758.425	98.86
758.605	99.31
758.785	98.97
758.965	98.65
759.144	97.21
759.324	98.07
759.504	97.68
759.683	97.71
759.863	97.3
760.043	97.66
760.222	96.42
760.402	95.57
760.581	94.5
760.761	96.4
760.94	95.64
761.12	96.79
761.299	97.21
761.479	97.25
761.658	94.42
761.838	95.46
762.017	95.09
762.197	96.33
762.376	96.92
762.555	99.37
762.735	99.98
762.914	99.49
763.093	97.72
763.273	96.28
763.452	94.93
763.631	95.2
763.81	94.51
763.99	95.14
764.169	96.48
764.348	95.3
764.527	93.4
764.706	94.1
764.885	95.47
765.064	94.23
765.243	95.78
765.423	98.3
765.602	98.19
765.781	95.43
765.96	94.3
766.139	93.56
766.318	92.29
766.497	91.44
766.676	93.49
766.854	95.68
767.033	96.77
767.212	96.55
767.391	96.97
767.57	96.42
767.749	96.85
767.928	96.81
768.106	97.1
768.285	95.7
768.464	95.44
768.643	92.21
768.821	91.55
769	92.07
769.179	92.64
769.357	91.08
769.536	93.38
769.715	92.49
769.893	91.72
770.072	91.02
770.25	92.34
770.429	93.04
770.607	94.08
770.786	94.57
770.964	96.43
771.143	97.05
771.321	97.59
771.5	97.43
771.678	96.71
771.857	96.35
772.035	93.37
772.213	91.04
772.392	90.57
772.57	90.71
772.748	90.02
772.927	90.81
773.105	90.31
773.283	91.95
773.461	92.03
773.64	93.52
773.818	94.49
773.996	96.72
774.174	94.65
774.352	92.4
774.531	90.19
774.709	93.06
774.887	92.03
775.065	92.85
775.243	95.76
775.421	97.06
775.599	96.42
775.777	95.99
775.955	93.4
776.133	90.19
776.311	89.89
776.489	87.04
776.667	89.02
776.844	89.9
777.022	90.14
777.2	90.1
777.378	91.95
777.556	91.27
777.734	93.5
777.911	96.78
778.089	97.05
778.267	96.23
778.445	94.99
778.622	93.42
778.8	92.42
778.978	90.92
779.155	89.91
779.333	89.53
779.511	90.19
779.688	90.71
779.866	91.4
780.043	87.8
780.221	89.14
780.398	87.64
780.576	87.63
780.753	88.77
780.931	89.78
781.108	89.09
781.286	90.99
781.463	91.39
781.64	87.6
781.818	89.81
781.995	91.19
782.172	91.56
782.35	90.33
782.527	95.02
782.704	93.35
782.882	90.59
783.059	90.47
783.236	91.89
783.413	89.82
783.59	92.21
783.768	91.13
783.945	90.41
784.122	86.91
784.299	89.19
784.476	86.78
784.653	86.48
784.83	84.67
785.007	84.51
785.184	83.15
785.361	84.8
785.538	87.75
785.715	88.68
785.892	91.87
786.069	95.51
786.246	93
786.423	93.33
786.6	96.92
786.776	97.08
786.953	91.92
787.13	94.14
787.307	90.98
787.484	86.38
787.66	80.7
787.837	80.13
788.014	79.96
788.191	80.66
788.367	81.44
788.544	87.17
788.721	86.69
788.897	90.03
789.074	94.33
789.25	94.15
789.427	94.37
789.603	93.85
789.78	92.87
789.956	86.22
790.133	84.84
790.309	85.57
790.486	89.39
790.662	88.2
790.839	94.02
791.015	93.97
791.192	90.54
791.368	90.2
791.544	85.78
791.721	84.37
791.897	86.83
792.073	84.96
792.249	81.52
792.426	86.42
792.602	85.99
792.778	88.56
792.954	88.56
793.13	91.8
793.307	86.42
793.483	82.62
793.659	80.89
793.835	85.31
794.011	82.25
794.187	87.94
794.363	84.92
794.539	85.59
794.715	82.77
794.891	84.08
795.067	82.93
795.243	88.61
795.419	87.45
795.595	87.11
795.771	81.75
795.947	78.37
796.122	77.21
796.298	80.63
796.474	78.09
796.65	79.95
796.826	82.94
797.001	81.82
797.177	75.57
797.353	79.2
797.529	82.34
797.704	83.56
797.88	84.62
798.056	83.12
798.231	85.67
798.407	87.76
798.582	88.98
798.758	90.25
798.934	92.35
799.109	89.5
799.285	87.9
799.46	90.23
799.636	91.64
799.811	91.76
799.986	93.96
800.162	93.12
800.337	93
800.513	87.02
800.688	84.74
800.863	87.79
801.039	83.15
801.214	79.91
801.389	88.54
801.565	87.67
801.74	81.1
801.915	90.88
802.09	87.98
802.265	87.48
802.441	86.53
802.616	85.67
802.791	82.7
802.966	80.26
803.141	76.78
803.316	81.19
803.491	85.4
803.666	88.32
803.841	92.58
804.016	90.5
804.191	88.27
804.366	83.45
804.541	77.06
804.716	75.41
804.891	72.42
805.066	73.35
805.241	72.09
805.416	68.7
805.591	71.04
805.765	75.59
805.94	81.1
806.115	83.89
806.29	80.91
806.464	80.56
806.639	77.34
806.814	75.53
806.989	73.23
807.163	85.44
807.338	89.03
807.512	91.53
807.687	72.82
807.862	77.88
808.036	75.43
808.211	78.22
808.385	82.9
808.56	94.43
808.734	90.48
808.909	83.56
809.083	75.6
809.258	74.39
809.432	78.02
809.606	71.63
809.781	83.76
809.955	85.35
810.13	87.78
810.304	83.97
810.478	84.07
810.652	80.25
810.827	75.24
811.001	62.85
811.175	59.14
811.349	61.93
811.524	53.76
811.698	53.14
811.872	64.13
812.046	74
812.22	76.37
812.394	80.66
812.568	82.34
812.742	90.47
812.916	83.49
813.09	87.46
813.264	85.99
813.438	87.23
813.612	73.6
813.786	72.4
813.96	74.16
814.134	71.85
814.308	79.12
814.482	84.43
814.656	82.1
814.83	86.22
815.003	94.23
815.177	78.79
815.351	77.68
815.525	80.49
815.698	67.09
815.872	64.77
816.046	65.99
816.219	61.39
816.393	64.58
816.567	72.65
816.74	70.03
816.914	71.94
817.088	79.33
817.261	76.74
817.435	67.37
817.608	72.34
817.782	63.77
817.955	66.36
818.129	64.87
818.302	71.09
818.475	75.85
818.649	84.44
818.822	75.47
818.996	78.42
819.169	89.11
819.342	79.01
819.516	93.41
819.689	95.56
819.862	93.54
820.035	75.9
820.209	74.02
820.382	69.54
820.555	64.22
820.728	56.09
820.901	57.83
821.075	64.48
821.248	63.04
821.421	54.96
821.594	67.86
821.767	81.05
821.94	78.92
822.113	55.64
822.286	65.64
822.459	63.47
822.632	73
822.805	61.53
822.978	69.09
823.151	66.99
823.324	60.03
823.496	33.01
823.669	38.92
823.842	46.54
824.015	34.7
824.188	34.19
824.361	44.12
824.533	35.19
824.706	35.91
824.879	39.03
825.051	48.87
825.224	44.17
825.397	63.62
825.569	70.18
825.742	87.73
825.915	95.22
826.087	116.07
826.26	82.7
826.432	82.63
826.605	84.63
826.777	78.32
826.95	73.45
827.122	68.56
827.295	60.94
827.467	59.27
827.64	45.28
827.812	53.42
827.984	62.05
828.157	64.71
828.329	58.3
828.501	76.11
828.674	66.93
828.846	72.13
829.018	80.88
829.19	58.4
829.363	51.87
829.535	47.31
829.707	49.41
829.879	32.4
830.051	41.71
830.223	38.7
830.395	35.54
830.568	25.31
830.74	20.14
830.912	39.29
831.084	36.6
831.256	44.89
831.428	49.54
831.6	59.96
831.772	28.68
831.943	26.16
832.115	23.14
832.287	45.63
832.459	60.63
832.631	77.55
832.803	76.21
832.975	97.49
833.146	82
833.318	65.99
833.49	52.02
833.662	55.32
833.833	37.12
834.005	22.56
834.177	29.15
834.348	26.65
834.52	15.92
834.692	13.89
834.863	19.89
835.035	16.92
835.206	-13.74
835.378	12.91
835.549	39.99
835.721	61.04
835.892	60.5
836.064	83.31
836.235	96.24
836.407	76.09
836.578	46.41
836.749	76.17
836.921	37.09
837.092	3.95
837.264	0.09
837.435	2.73
837.606	26.42
837.777	49.69
837.949	59.23
838.12	61.88
838.291	66.31
838.462	60.79
838.633	41.94
838.805	47.26
838.976	72.18
839.147	56.52
839.318	27.57
839.489	7.69
839.66	9.95
839.831	34.14
840.002	51.84
840.173	39.01
840.344	104.41
840.515	120.83
840.686	11.62
840.857	-4.97
841.028	-10.63
841.199	-52.09
841.369	-28.01
841.54	-5.74
841.711	29.73
841.882	53.57
842.053	51.59
842.223	35.74
842.394	35.75
842.565	26.5
842.736	34.56
842.906	43.24
843.077	58.75
843.248	96.28
843.418	99.65
843.589	89.97
843.759	143.11
843.93	106.16
844.101	53.05
844.271	39.99
844.442	52.41
844.612	54.52
844.783	37.56
844.953	16.7
845.123	16.72
845.294	14.17
845.464	-124.1
845.635	8.52
845.805	78.07
845.975	63.94
846.146	51.97
846.316	46.91
846.486	36.64
846.656	44.68
846.827	35.53
846.997	45.65
847.167	63.42
847.337	45.81
847.507	30.21
847.677	67.03
847.848	80.7
848.018	69.11
848.188	80.07
848.358	70.4
848.528	48.94
848.698	26.97
848.868	-1.07
849.038	-16.75
849.208	45.89
849.378	79.11
849.548	35.4
849.718	29.28
849.887	23.8
850.057	1.69
850.227	-24.65
850.397	-31.38
850.567	-87.57
850.737	-89.46
850.906	-242.19
851.076	-62.3
851.246	32.07
851.415	95.65
851.585	40.87
851.755	10.44
851.924	33.01
852.094	16.15
852.264	-75.39
852.433	-621.88
852.603	-22.71
852.772	5.55
852.942	24.55
853.111	49.84
853.281	76.38
853.45	99.54
853.62	75.83
853.789	76.69
853.959	125.62
854.128	99.88
854.297	55.62
854.467	18.86
854.636	66.28
854.805	61.94
854.975	58.86
855.144	36.51
855.313	372.2
855.482	165.15
855.652	-1.67
855.821	46.58
855.99	80.92
856.159	60.73
856.328	52.46
856.497	50.8
856.667	37.97
856.836	25.92
857.005	-4.52
857.174	-22.91
857.343	-36.71
857.512	12.54
857.681	-6.24
857.85	-29.46
858.019	13.42
858.188	6.09
858.356	-23.21
858.525	-44.43
858.694	13.67
858.863	-32.31
859.032	-0.3
859.201	-14.76
859.369	63.07
859.538	-22.71
859.707	20.5
859.876	33.81
860.044	47.54
860.213	40.24
860.382	52.27
860.55	51.54
860.719	74.69
860.888	94.79
861.056	85.56
861.225	66.11
861.393	78.07
861.562	56.65
861.73	0.83
861.899	5.37
862.067	211.21
862.236	69.25
862.404	22.84
862.572	50.65
862.741	58.85
862.909	61.86
863.078	28.98
863.246	36.83
863.414	28.16
863.582	2.94
863.751	-37.32
863.919	-25.75
864.087	37.22
864.255	33.27
864.424	-26.99
864.592	77.09
864.76	72.33
864.928	142.6
865.096	57.72
865.264	103.03
865.432	159.66
865.6	288.63
865.768	38.13
865.936	6.04
866.104	-36.47
866.272	-42.73
866.44	-233.37
866.608	434.65
866.776	179.5
866.944	1197.09
867.112	-186.33
867.28	-38.91
867.448	-5.76
867.615	19.97
867.783	55.16
867.951	40.31
868.119	54.01
868.286	88.29
868.454	65.66
868.622	-4
868.789	68.14
868.957	887.5
869.125	-375.66
869.292	40.11
869.46	-21.17
869.627	45.7
869.795	27.61
869.963	40.48
870.13	51.04
870.298	85.98
870.465	52.53
870.632	29.58
870.8	30.84
870.967	-11.4
871.135	-77.4
871.302	-73.62
871.469	-76.71
871.637	-139.41
871.804	-47.61
871.971	-97.58
872.139	-363.6
872.306	-22
872.473	-3.76
872.64	-57.4
872.807	123.13
872.975	119.09
873.142	37.55
873.309	183.11
873.476	52.29
873.643	89.77
873.81	41.51
873.977	70.02
874.144	57.73
874.311	21.47
874.478	-7.92
874.645	9.04
874.812	77.04
874.979	61.04
875.146	53.59
875.313	55.35
875.48	95.72
875.647	43.01
875.813	32.43
875.98	24.39
876.147	15.45
876.314	-59.72
876.481	541.94
876.647	-625.56
876.814	190.54
876.981	63.94
877.147	49.27
877.314	48.19
877.481	94.17
877.647	77.63
877.814	20.91
877.98	24.29
878.147	67.63
878.314	77.82
878.48	103.31
878.647	132.19
878.813	132.97
878.979	96.51
879.146	50.17
879.312	26.13
879.479	-2.28
879.645	-44.41
879.811	-107.49
879.978	-273.85
880.144	-51.05
880.31	-4.95
880.477	-115.43
880.643	-202.38
880.809	-20.67
880.975	17.62
881.142	-159.77
881.308	33.64
881.474	84.4
881.64	55.58
881.806	-0.41
881.972	38.43
882.138	64.49
882.304	78.17
882.47	32.96
882.636	165.78
882.802	141.8
882.968	94.29
883.134	97.19
883.3	97.56
883.466	86.9
883.632	102.42
883.798	75.28
883.964	60.78
884.129	72.8
884.295	109.72
884.461	35.54
884.627	53.15
884.793	61.78
884.958	83.06
885.124	52.39
885.29	55.58
885.455	268.57
885.621	185.34
885.787	92.87
885.952	66.22
886.118	24.08
886.283	23.93
886.449	-30.3
886.614	-31.38
886.78	-72.21
886.945	-390.57
887.111	-96.39
887.276	-69.18
887.442	-107.95
887.607	-131.01
887.773	-152.47
887.938	-120.3
888.103	-149.15
888.269	-28.54
888.434	16.89
888.599	8.83
888.764	46.53
888.93	46.58
889.095	-2.51
889.26	-24.8
889.425	-25.96
889.59	12.82
889.756	-5.67
889.921	40.86
890.086	46.3
890.251	72.49
890.416	3.72
890.581	-244.76
890.746	22.05
890.911	6.85
891.076	70.25
891.241	25.56
891.406	84.28
891.571	-6.81
891.736	-109.52
891.901	-328.1
892.065	493.13
892.23	130.73
892.395	158.86
892.56	203.4
892.725	-134.96
892.889	-750.61
893.054	-76.26
893.219	15.59
893.384	38.03
893.548	19.55
893.713	30.38
893.878	35.16
