Data from Ofra_PS_T2_2A_6CX18_Reflection_2.txt Node
Date: Wed Jul 21 17:15:32 EDT 2021
User: Adam
Spectrometer: FLMT01687
Trigger mode: 0
Integration Time (sec): 1.100000E0
Scans to average: 2
Electric dark correction enabled: true
Nonlinearity correction enabled: false
Boxcar width: 2
XAxis mode: Wavelengths
Number of Pixels in Spectrum: 3648
>>>>>Begin Spectral Data<<<<<
179.494	552.2
179.716	591.76
179.937	584.53
180.158	539.56
180.38	730.16
180.601	206.22
180.823	112.34
181.044	3.44
181.265	318.57
181.486	160.39
181.708	179.04
181.929	1055.61
182.15	-289.08
182.372	150.59
182.593	86.32
182.814	76.72
183.035	111.96
183.257	86.9
183.478	3.56
183.699	55.32
183.92	-30.22
184.141	-13.36
184.363	-71.53
184.584	12.88
184.805	27.59
185.026	87.09
185.247	82.86
185.468	67.12
185.689	60.25
185.91	50.56
186.132	43.73
186.353	33.8
186.574	79.2
186.795	64.29
187.016	12.22
187.237	-4.04
187.458	-40.06
187.679	-53.4
187.9	-33.08
188.121	-26.25
188.342	-9.09
188.563	31.77
188.784	54.66
189.005	57.54
189.226	127.97
189.447	87.02
189.667	-101.09
189.888	-330.17
190.109	-1408.12
190.33	-960.81
190.551	-1493.14
190.772	-207.32
190.993	-147.08
191.214	-53.98
191.434	8.96
191.655	53.22
191.876	3.51
192.097	-26.44
192.318	-93.7
192.538	-164.88
192.759	-113.84
192.98	-16.6
193.201	14.91
193.421	28.12
193.642	35.61
193.863	45.21
194.083	14.74
194.304	-1.05
194.525	-1.92
194.745	-20.94
194.966	-54.23
195.187	-53.31
195.407	-73.43
195.628	-135.34
195.848	-144.36
196.069	-133.56
196.29	-68.53
196.51	-71.89
196.731	-66.26
196.951	-68.48
197.172	-85.97
197.392	-136.45
197.613	-124.46
197.833	-136.58
198.054	-108.54
198.274	-50.38
198.495	-54.54
198.715	-20.25
198.936	-64.64
199.156	-55.36
199.377	-154.14
199.597	-143.01
199.817	-162.4
200.038	-52.59
200.258	-77.65
200.479	34.42
200.699	101.02
200.919	131.28
201.14	109.32
201.36	99.97
201.58	76.46
201.801	79.85
202.021	52.33
202.241	57.27
202.461	41.37
202.682	-18.25
202.902	-129.82
203.122	-59.13
203.342	-56.04
203.563	-0.57
203.783	19.02
204.003	26.18
204.223	14.26
204.443	37.9
204.663	-17.74
204.884	2.38
205.104	48.66
205.324	72.18
205.544	71.46
205.764	86
205.984	80.77
206.204	60.42
206.424	39.13
206.644	11.93
206.864	22.34
207.084	-22.89
207.304	33.85
207.525	-13.52
207.745	31.29
207.964	50.28
208.184	4.86
208.404	-45.06
208.624	-49.6
208.844	-68.36
209.064	-381.85
209.284	-388.92
209.504	-172.47
209.724	-23.21
209.944	-5.38
210.164	45.32
210.384	58.31
210.604	42.18
210.823	-5.07
211.043	-34.82
211.263	-35.18
211.483	-58.66
211.703	-112.51
211.922	-92.23
212.142	-12.66
212.362	-4.95
212.582	11.04
212.801	21.31
213.021	4.83
213.241	-7.85
213.461	-39.69
213.68	-59.72
213.9	-37.58
214.12	-8.6
214.339	-70.42
214.559	-69.43
214.779	-13.21
214.998	-21.86
215.218	-60.12
215.438	-32.46
215.657	-36.71
215.877	-45.41
216.096	-4.28
216.316	-11.55
216.535	-11.82
216.755	8.55
216.974	-81.17
217.194	-158.63
217.413	-160.99
217.633	-149.97
217.852	-311.18
218.072	-116.91
218.291	-50.36
218.511	1.36
218.73	-28.35
218.95	-10.41
219.169	-16.18
219.389	-49
219.608	-32.56
219.827	-9.32
220.047	4.5
220.266	9.44
220.485	15.71
220.705	18.08
220.924	-3.37
221.143	40.07
221.363	28.83
221.582	33.62
221.801	48.38
222.021	58.83
222.24	-29.09
222.459	2.37
222.678	6.02
222.897	-52.89
223.117	-97.32
223.336	-29.63
223.555	-14.5
223.774	-3.36
223.993	13.74
224.213	92.12
224.432	66.3
224.651	74.21
224.87	66.91
225.089	77.12
225.308	58.46
225.527	55.69
225.746	63.62
225.965	48.91
226.184	23.2
226.404	34.13
226.623	24.98
226.842	11.42
227.061	27.37
227.28	23.06
227.499	-4.06
227.718	14.55
227.936	8.55
228.155	21.46
228.374	15.64
228.593	27.69
228.812	30.87
229.031	38.14
229.25	-19.3
229.469	-23.58
229.688	-17.86
229.907	16.58
230.125	28.5
230.344	31.49
230.563	55.58
230.782	65.9
231.001	-9.26
231.22	-17.83
231.438	19.26
231.657	14.59
231.876	-6.26
232.095	43.54
232.313	49.86
232.532	46.43
232.751	9.48
232.969	6.73
233.188	-46.29
233.407	16.25
233.625	20.74
233.844	36.86
234.063	45.65
234.281	57.05
234.5	52.98
234.719	45.89
234.937	47.62
235.156	48.5
235.374	39.91
235.593	18.16
235.811	2.79
236.03	11.94
236.249	-2.07
236.467	0.46
236.686	20.78
236.904	38.05
237.123	15.49
237.341	12.83
237.559	19.71
237.778	19.97
237.996	7.1
238.215	40.6
238.433	45.74
238.652	52.35
238.87	20.59
239.088	36.36
239.307	35.7
239.525	22.09
239.743	-17.24
239.962	-7.87
240.18	-37.84
240.398	-105.73
240.617	-90.65
240.835	-57.32
241.053	-23
241.271	21.88
241.49	57.12
241.708	44.95
241.926	52.21
242.144	20.08
242.363	-30.23
242.581	-56.07
242.799	-21.75
243.017	-0.89
243.235	-14.1
243.453	0.87
243.672	-8.16
243.89	-11.35
244.108	-26.99
244.326	3
244.544	10.2
244.762	11.02
244.98	23.86
245.198	33.96
245.416	-20.78
245.634	-17.6
245.852	-5.14
246.07	-15.32
246.288	-26.45
246.506	-43.3
246.724	-46.68
246.942	-51.07
247.16	1.45
247.378	11.25
247.596	44.53
247.814	43.55
248.032	9.31
248.25	2.61
248.468	4.57
248.685	28.74
248.903	52.4
249.121	73.32
249.339	45.36
249.557	62.11
249.775	57.35
249.992	0.34
250.21	-0.08
250.428	6.23
250.646	-32.96
250.863	-62.71
251.081	-38.92
251.299	-29.38
251.517	-10.8
251.734	2.19
251.952	-3.5
252.17	-5.74
252.387	-5.15
252.605	-18.67
252.823	-17.54
253.04	-2.91
253.258	28.09
253.475	31.26
253.693	59.27
253.911	74.22
254.128	80.67
254.346	93.29
254.563	48.58
254.781	37.65
254.998	10.91
255.216	5.13
255.433	9.15
255.651	71.18
255.868	82.19
256.086	122.81
256.303	103.2
256.521	71.24
256.738	44.57
256.956	17.86
257.173	-36.42
257.39	-36.54
257.608	-61.92
257.825	2.63
258.043	53.42
258.26	80.79
258.477	119.73
258.695	132.75
258.912	79.92
259.129	54.26
259.346	16.59
259.564	-35.98
259.781	-61.56
259.998	5.21
260.216	29.97
260.433	60.04
260.65	64.59
260.867	76.99
261.084	54.09
261.302	22.74
261.519	10.22
261.736	-15.82
261.953	-56.29
262.17	-30.2
262.387	-43.62
262.604	-61.14
262.822	-63.76
263.039	-31.58
263.256	-52.39
263.473	-26.68
263.69	-14.12
263.907	18.93
264.124	24.1
264.341	28.59
264.558	24.15
264.775	47.58
264.992	43.64
265.209	42.35
265.426	51.74
265.643	52.84
265.86	39.17
266.077	46.76
266.294	40.36
266.51	-3.5
266.727	-6.63
266.944	15.87
267.161	-6.08
267.378	-10.06
267.595	23.78
267.812	0.33
268.028	-40.09
268.245	-15.37
268.462	-31.93
268.679	-47.13
268.896	11.68
269.112	23.46
269.329	13.7
269.546	22.24
269.763	19.42
269.979	-11.95
270.196	-18.99
270.413	-36.92
270.629	-50.55
270.846	-57.3
271.063	-53.2
271.279	-70.19
271.496	-71.72
271.712	-28.88
271.929	-8.2
272.146	-11.56
272.362	13.8
272.579	48.32
272.795	40.34
273.012	38.68
273.228	35.68
273.445	12.15
273.661	-30.38
273.878	-87.49
274.094	-76.5
274.311	-81.53
274.527	-5.86
274.744	12.67
274.96	40.5
275.177	31.14
275.393	48.51
275.609	43.71
275.826	63.3
276.042	59.72
276.259	42.89
276.475	40.37
276.691	32.28
276.908	2.91
277.124	21.1
277.34	39.63
277.557	29.08
277.773	18.43
277.989	21.36
278.205	11.45
278.422	19.35
278.638	25.1
278.854	52.18
279.07	54.14
279.286	36.89
279.503	11.63
279.719	-9.19
279.935	-28.94
280.151	-50.27
280.367	-20.18
280.583	-30.36
280.799	-28.85
281.016	-57.3
281.232	-18.27
281.448	-17.18
281.664	-5.4
281.88	-12.52
282.096	8.51
282.312	21.37
282.528	34.16
282.744	70.06
282.96	44.43
283.176	26.75
283.392	21.21
283.608	3.14
283.824	-4.07
284.04	18.41
284.256	26.98
284.471	16.03
284.687	23.95
284.903	32.52
285.119	40.62
285.335	11.18
285.551	21.71
285.767	2.39
285.982	-6.77
286.198	-43.2
286.414	20.74
286.63	34.06
286.846	59.77
287.061	37.99
287.277	69.9
287.493	44.55
287.709	54.59
287.924	41.02
288.14	73.62
288.356	65.75
288.571	79.69
288.787	45.86
289.003	25.42
289.218	8.08
289.434	-39.46
289.65	-40.79
289.865	-35.75
290.081	20.29
290.296	25.68
290.512	38.89
290.727	3.82
290.943	-4.74
291.159	-20.94
291.374	-20.51
291.59	-25.73
291.805	-11.96
292.021	0.72
292.236	-6.95
292.451	6.78
292.667	11.56
292.882	29.57
293.098	26.96
293.313	5.71
293.529	-30.42
293.744	-45.44
293.959	-52.19
294.175	-40.73
294.39	-0.69
294.605	21.43
294.821	47.64
295.036	57.96
295.251	55.39
295.467	48.19
295.682	42.25
295.897	0.58
296.112	-20.81
296.328	-15.9
296.543	-47.28
296.758	-44.86
296.973	3.63
297.188	29.44
297.404	13.6
297.619	-0.67
297.834	-10.73
298.049	-47.72
298.264	-69.27
298.479	-9.69
298.694	9.63
298.909	28.99
299.125	36
299.34	55.19
299.555	17.28
299.77	30.89
299.985	-19.34
300.2	-62.77
300.415	-88.18
300.63	-46.23
300.845	-70.43
301.06	-69.19
301.275	-20.55
301.49	-1.08
301.704	-17.26
301.919	-22.55
302.134	-31.49
302.349	-29.35
302.564	-93.79
302.779	-84.14
302.994	-38.28
303.209	11.67
303.423	12.63
303.638	55.84
303.853	23.44
304.068	9
304.283	9.69
304.497	-2.1
304.712	-16.86
304.927	-7.2
305.142	-12.72
305.356	-10.75
305.571	-8.97
305.786	-14.2
306	-37.12
306.215	-21.39
306.43	-41.35
306.644	-26.18
306.859	18.6
307.074	40.92
307.288	8.28
307.503	29
307.717	2.01
307.932	-3.09
308.147	-17.42
308.361	16
308.576	-1.88
308.79	-32.82
309.005	-31.14
309.219	-17.68
309.434	-45.91
309.648	-43.3
309.863	-10.61
310.077	-9.76
310.292	-3.86
310.506	12.37
310.72	26.78
310.935	36.55
311.149	29.94
311.364	47.57
311.578	56.98
311.792	47.7
312.007	41.27
312.221	25.02
312.435	27.66
312.649	7.56
312.864	64.44
313.078	86.88
313.292	161.3
313.507	119.93
313.721	207.02
313.935	74.78
314.149	60.69
314.363	31.77
314.578	49.33
314.792	30.93
315.006	20.53
315.22	35.76
315.434	51.24
315.648	42.75
315.862	34.88
316.077	34.79
316.291	7.88
316.505	10.56
316.719	-5.99
316.933	-24.24
317.147	-15.89
317.361	-67.18
317.575	-99.2
317.789	-127.97
318.003	-165.25
318.217	-126.1
318.431	-19.52
318.645	35.8
318.859	31.95
319.073	49.96
319.287	28.63
319.5	-5.07
319.714	-50.56
319.928	-65.75
320.142	-60.69
320.356	-4.38
320.57	27.97
320.784	2.98
320.997	3.94
321.211	-25.68
321.425	-66.39
321.639	-76.03
321.853	-9.07
322.066	3.95
322.28	-2.2
322.494	2.64
322.707	3.64
322.921	-9.15
323.135	-11.39
323.349	10.46
323.562	-12.59
323.776	-25.36
323.989	-25.66
324.203	-42.68
324.417	-39.26
324.63	-43.54
324.844	-42.31
325.057	-44.47
325.271	-10.75
325.485	3.09
325.698	33.89
325.912	54.81
326.125	39.76
326.339	25.67
326.552	9.45
326.766	6.37
326.979	19.85
327.193	52.7
327.406	36.11
327.619	27.9
327.833	36.24
328.046	-0.06
328.26	-25.88
328.473	6.64
328.686	-35.46
328.9	-29.08
329.113	4.92
329.326	-9.54
329.54	-3.53
329.753	33.99
329.966	28.89
330.179	31.98
330.393	21.38
330.606	23.99
330.819	32.95
331.032	25.63
331.246	21.49
331.459	52.5
331.672	37.75
331.885	27.48
332.098	16.51
332.311	5.25
332.525	-51.85
332.738	-32.83
332.951	11.68
333.164	32.4
333.377	35.35
333.59	63.38
333.803	66.94
334.016	39.45
334.229	47.23
334.442	50.44
334.655	52.3
334.868	47.59
335.081	43.86
335.294	37.33
335.507	39.4
335.72	11.56
335.933	-0.75
336.146	-0.46
336.359	-2.28
336.572	-34.46
336.785	-50.75
336.997	-31.53
337.21	-10.66
337.423	-16.46
337.636	0.81
337.849	23.65
338.062	8.61
338.274	2.91
338.487	-17.73
338.7	-16.8
338.913	-71.51
339.125	-96.06
339.338	-157.08
339.551	-115.2
339.763	-63.51
339.976	-30.39
340.189	7.31
340.402	40.74
340.614	32.59
340.827	9.36
341.039	1.99
341.252	-7.2
341.465	-1.16
341.677	-5.42
341.89	-34.7
342.102	12.61
342.315	2.35
342.527	-39.28
342.74	-31.74
342.952	9.9
343.165	0.44
343.377	38.4
343.59	41.18
343.802	49.35
344.015	47.29
344.227	52.07
344.44	26.64
344.652	25.55
344.864	18.48
345.077	33.9
345.289	37.09
345.502	43.07
345.714	41.3
345.926	52.45
346.139	45.24
346.351	50.45
346.563	56.18
346.775	51.38
346.988	26.1
347.2	10.37
347.412	-55.15
347.624	-82.96
347.837	-88.9
348.049	-54.3
348.261	-16.7
348.473	-1.57
348.685	-7.02
348.897	-5.84
349.11	-19.09
349.322	-38.37
349.534	-18.23
349.746	1.88
349.958	-2.54
350.17	-6.72
350.382	2.35
350.594	3.92
350.806	-7.28
351.018	-15.64
351.23	-37.41
351.442	-84.88
351.654	-88.09
351.866	-61.02
352.078	-23.69
352.29	8.23
352.502	23.54
352.714	30.18
352.926	13.42
353.138	8.27
353.35	-1.39
353.561	-9.17
353.773	-28.15
353.985	-5.6
354.197	-18.16
354.409	-16.71
354.621	-8.42
354.832	-4.36
355.044	-21.99
355.256	-16.48
355.468	1.54
355.679	-7.14
355.891	4.14
356.103	-1.48
356.314	13.11
356.526	-6.42
356.738	7.69
356.949	-4.9
357.161	1.88
357.373	-2.97
357.584	-8.99
357.796	3.95
358.008	-0.32
358.219	15.76
358.431	9.11
358.642	17.87
358.854	2.9
359.065	-5.13
359.277	-28.37
359.488	-29.06
359.7	-52.4
359.911	-52.47
360.123	-30.41
360.334	-43.72
360.546	-59.84
360.757	-53.31
360.969	-41.68
361.18	-19
361.391	6.67
361.603	-1.69
361.814	7.45
362.025	8.85
362.237	-3.99
362.448	9.68
362.659	25.96
362.871	21.76
363.082	23.31
363.293	13.51
363.504	-7.75
363.716	-37.22
363.927	-29.17
364.138	-59.46
364.349	-60.59
364.56	-46.28
364.772	-28.54
364.983	-24.29
365.194	-13.87
365.405	-3.3
365.616	11.78
365.827	4.76
366.038	-5.23
366.25	-13.41
366.461	-34.6
366.672	-13.73
366.883	20.76
367.094	24.44
367.305	8.66
367.516	23.46
367.727	2.68
367.938	-21.37
368.149	-18.19
368.36	19.18
368.571	18.79
368.781	-5.68
368.992	-11.77
369.203	-30.78
369.414	-62.63
369.625	-75.39
369.836	-63.16
370.047	-74.33
370.258	-55.89
370.468	-59.62
370.679	-72.73
370.89	-56.29
371.101	-38.14
371.312	-41.1
371.522	-33.99
371.733	-16.37
371.944	-6.89
372.155	-8.19
372.365	-8.85
372.576	-0.71
372.787	-12.61
372.997	-34.55
373.208	-33.41
373.419	-2.17
373.629	-28.56
373.84	-33.1
374.05	-39.92
374.261	-28.8
374.472	-64.06
374.682	-8.8
374.893	2.55
375.103	42.28
375.314	37.27
375.524	40.63
375.735	30.9
375.945	30.82
376.156	-0.05
376.366	3.28
376.577	9.77
376.787	-1.44
376.997	11.02
377.208	14.85
377.418	6.11
377.629	8.7
377.839	12.99
378.049	14.45
378.26	24.23
378.47	30.34
378.68	23.47
378.89	22.9
379.101	5.01
379.311	-23.18
379.521	-47.5
379.732	-42.83
379.942	-44.95
380.152	-56.46
380.362	-15.77
380.572	-8.94
380.783	1.27
380.993	18.32
381.203	33.76
381.413	36.38
381.623	38.42
381.833	35.52
382.043	28.15
382.253	24.05
382.463	12.52
382.674	10.3
382.884	-12.43
383.094	-19.2
383.304	-12.64
383.514	-5.73
383.724	3.22
383.934	6.61
384.144	-1.18
384.353	-8.96
384.563	-7.69
384.773	-8.31
384.983	-14.58
385.193	6.02
385.403	11.26
385.613	7.48
385.823	-0.82
386.033	9.83
386.242	0.75
386.452	-4.44
386.662	-11.81
386.872	3.11
387.082	-2.82
387.291	-6.72
387.501	-4.62
387.711	4.28
387.921	-11.52
388.13	-12.1
388.34	-1.12
388.55	-5.79
388.759	-8.63
388.969	4.08
389.179	1.41
389.388	-3.76
389.598	0.98
389.807	-6.76
390.017	-18.36
390.227	-12.93
390.436	-12.52
390.646	-10.53
390.855	-2.65
391.065	3.15
391.274	0.3
391.484	-2.28
391.693	-0.61
391.903	-1.12
392.112	3.46
392.322	8.26
392.531	10.9
392.74	10.52
392.95	6.71
393.159	3.99
393.369	2.81
393.578	1.58
393.787	-0.6
393.997	1.84
394.206	0.27
394.415	1.25
394.625	1.62
394.834	0.48
395.043	0.67
395.252	3.21
395.462	4.59
395.671	6.09
395.88	7.64
396.089	8.2
396.298	6.12
396.508	5.25
396.717	3.91
396.926	4.39
397.135	4.65
397.344	5.34
397.553	5.47
397.762	7.09
397.971	7.3
398.181	7.26
398.39	5.88
398.599	5.9
398.808	5.85
399.017	6.71
399.226	7.79
399.435	9.42
399.644	9.25
399.853	7.93
400.062	6.95
400.27	5.84
400.479	5.1
400.688	4.62
400.897	4.89
401.106	4.81
401.315	4.65
401.524	4.76
401.733	5.23
401.941	5.8
402.15	5.77
402.359	5.56
402.568	5.94
402.777	5.97
402.985	5.58
403.194	5.73
403.403	6.23
403.612	5.66
403.82	5.34
404.029	5.67
404.238	5.53
404.446	5.64
404.655	5.47
404.864	5.71
405.072	5.32
405.281	5.5
405.489	5.08
405.698	5.21
405.906	5.12
406.115	5.2
406.324	5.01
406.532	5.17
406.741	5.45
406.949	5.41
407.158	5.46
407.366	5.53
407.574	5.52
407.783	5.5
407.991	5.35
408.2	5.37
408.408	5.35
408.617	5.29
408.825	4.98
409.033	5.13
409.242	5.36
409.45	5.61
409.658	5.47
409.867	5.69
410.075	5.48
410.283	5.08
410.491	4.76
410.7	4.76
410.908	4.66
411.116	5.02
411.324	5.07
411.533	4.99
411.741	5.29
411.949	5.3
412.157	4.98
412.365	4.92
412.573	4.99
412.781	4.97
412.99	4.97
413.198	5.16
413.406	5.29
413.614	5.31
413.822	4.98
414.03	4.79
414.238	4.58
414.446	4.72
414.654	4.53
414.862	4.73
415.07	4.86
415.278	5.05
415.486	4.63
415.694	4.82
415.902	4.68
416.109	4.57
416.317	4.48
416.525	4.46
416.733	4.4
416.941	4.45
417.149	4.45
417.357	4.44
417.564	4.79
417.772	4.97
417.98	4.96
418.188	5.01
418.395	4.97
418.603	4.89
418.811	4.47
419.019	4.37
419.226	4.61
419.434	4.69
419.642	4.48
419.849	4.64
420.057	4.74
420.265	4.64
420.472	4.38
420.68	4.45
420.887	4.26
421.095	4.27
421.302	4.13
421.51	4.35
421.717	4.45
421.925	4.68
422.132	4.53
422.34	4.24
422.547	4.3
422.755	4.16
422.962	3.97
423.17	3.94
423.377	4.19
423.585	4.08
423.792	4.17
423.999	4.24
424.207	4.24
424.414	4.37
424.621	4.4
424.829	4.28
425.036	4.29
425.243	4.39
425.451	4.22
425.658	4.02
425.865	4.31
426.072	4.35
426.28	4.71
426.487	4.76
426.694	4.82
426.901	4.57
427.108	4.54
427.315	4.16
427.523	4.37
427.73	4.33
427.937	4.27
428.144	4.12
428.351	4.09
428.558	4.1
428.765	4
428.972	4.11
429.179	4.36
429.386	4.71
429.593	4.44
429.8	4.53
430.007	4.61
430.214	4.65
430.421	4.43
430.628	4.44
430.835	4.3
431.042	4.51
431.249	4.61
431.456	4.68
431.662	4.9
431.869	5.23
432.076	5.15
432.283	5.16
432.49	5.01
432.697	4.89
432.903	4.63
433.11	4.59
433.317	4.56
433.524	4.91
433.73	4.99
433.937	5.32
434.144	5.17
434.35	5.26
434.557	5.02
434.764	5.05
434.97	4.87
435.177	5.12
435.384	4.95
435.59	5.06
435.797	5.22
436.003	5.27
436.21	5.27
436.416	5.44
436.623	5.37
436.829	5.37
437.036	5.51
437.242	5.39
437.449	5.26
437.655	5.42
437.862	5.42
438.068	5.38
438.275	5.49
438.481	5.76
438.687	5.71
438.894	5.63
439.1	5.64
439.307	5.82
439.513	5.68
439.719	5.62
439.926	5.79
440.132	5.76
440.338	5.61
440.544	5.79
440.751	5.89
440.957	5.89
441.163	5.88
441.369	6.02
441.575	5.76
441.782	5.72
441.988	5.58
442.194	5.59
442.4	5.53
442.606	5.72
442.812	5.82
443.018	5.98
443.224	5.99
443.431	6.07
443.637	6.01
443.843	5.89
444.049	5.79
444.255	5.79
444.461	5.78
444.667	5.76
444.873	5.98
445.079	6.03
445.284	6.12
445.49	5.83
445.696	5.72
445.902	5.6
446.108	5.59
446.314	5.57
446.52	5.83
446.726	6.09
446.931	6.04
447.137	6.04
447.343	6.1
447.549	5.97
447.755	5.79
447.96	5.85
448.166	5.81
448.372	5.69
448.578	5.83
448.783	5.89
448.989	6.04
449.195	6.3
449.4	6.33
449.606	6.29
449.812	6.21
450.017	6.14
450.223	5.95
450.428	5.95
450.634	6.02
450.84	6.24
451.045	6.22
451.251	6.17
451.456	6.45
451.662	6.59
451.867	6.56
452.073	6.62
452.278	6.82
452.483	6.81
452.689	6.63
452.894	6.66
453.1	6.65
453.305	6.54
453.51	6.47
453.716	6.45
453.921	6.44
454.127	6.44
454.332	6.43
454.537	6.34
454.742	6.4
454.948	6.39
455.153	6.38
455.358	6.5
455.563	6.71
455.769	6.9
455.974	6.85
456.179	6.74
456.384	6.72
456.589	6.65
456.795	6.4
457	6.45
457.205	6.72
457.41	6.71
457.615	6.58
457.82	6.68
458.025	6.7
458.23	6.52
458.435	6.55
458.64	6.52
458.845	6.61
459.05	6.69
459.255	6.75
459.46	6.77
459.665	6.89
459.87	6.94
460.075	6.92
460.28	6.97
460.485	7.07
460.69	7.03
460.895	6.9
461.099	6.86
461.304	6.97
461.509	7.01
461.714	7.02
461.919	7.17
462.123	7.18
462.328	7.24
462.533	7.12
462.738	7.29
462.942	7.23
463.147	7.35
463.352	7.28
463.556	7.36
463.761	7.36
463.966	7.36
464.17	7.3
464.375	7.21
464.58	7.13
464.784	7.04
464.989	6.99
465.193	7.06
465.398	7.17
465.602	7.43
465.807	7.48
466.011	7.63
466.216	7.71
466.42	7.74
466.625	7.74
466.829	7.85
467.034	7.95
467.238	8.08
467.443	8.09
467.647	7.81
467.851	7.84
468.056	7.9
468.26	7.78
468.464	7.82
468.669	8.1
468.873	8.28
469.077	8.11
469.282	8.19
469.486	8.28
469.69	8.3
469.894	8.16
470.099	8.31
470.303	8.36
470.507	8.26
470.711	8.11
470.915	8.13
471.119	8.03
471.324	8.02
471.528	8.02
471.732	8.17
471.936	8.12
472.14	8.27
472.344	8.32
472.548	8.38
472.752	8.55
472.956	8.77
473.16	8.73
473.364	8.61
473.568	8.6
473.772	8.53
473.976	8.45
474.18	8.49
474.384	8.56
474.588	8.57
474.792	8.46
474.995	8.51
475.199	8.54
475.403	8.64
475.607	8.68
475.811	8.72
476.015	8.8
476.218	8.92
476.422	8.73
476.626	8.81
476.83	8.92
477.033	8.8
477.237	8.68
477.441	8.86
477.644	8.8
477.848	8.84
478.052	8.82
478.255	8.86
478.459	8.81
478.663	9.04
478.866	9.09
479.07	9.18
479.273	9.32
479.477	9.36
479.681	9.2
479.884	9.05
480.088	9.01
480.291	8.9
480.495	8.92
480.698	8.91
480.901	9
481.105	9.13
481.308	9.17
481.512	9.16
481.715	9.27
481.919	9.28
482.122	9.22
482.325	9.17
482.529	9.18
482.732	9.14
482.935	9.05
483.138	9
483.342	9.16
483.545	9.26
483.748	9.27
483.952	9.35
484.155	9.5
484.358	9.42
484.561	9.38
484.764	9.36
484.967	9.41
485.171	9.43
485.374	9.38
485.577	9.43
485.78	9.46
485.983	9.47
486.186	9.38
486.389	9.39
486.592	9.34
486.795	9.34
486.998	9.23
487.201	9.22
487.404	9.31
487.607	9.37
487.81	9.37
488.013	9.5
488.216	9.5
488.419	9.5
488.622	9.42
488.825	9.32
489.028	9.19
489.231	9.09
489.433	8.99
489.636	8.99
489.839	9.02
490.042	9.01
490.245	9.05
490.447	9.05
490.65	9.05
490.853	9.06
491.056	9.12
491.258	9.19
491.461	9.22
491.664	9.28
491.866	9.21
492.069	9.34
492.272	9.23
492.474	9.24
492.677	9.28
492.879	9.38
493.082	9.34
493.285	9.51
493.487	9.5
493.69	9.4
493.892	9.34
494.095	9.2
494.297	9.16
494.5	9.1
494.702	9.12
494.905	9.15
495.107	9.22
495.309	9.16
495.512	9.26
495.714	9.3
495.917	9.33
496.119	9.31
496.321	9.35
496.524	9.39
496.726	9.39
496.928	9.38
497.13	9.34
497.333	9.3
497.535	9.24
497.737	9.19
497.939	9.19
498.142	9.25
498.344	9.22
498.546	9.14
498.748	9.14
498.95	9.16
499.152	9.14
499.355	9.2
499.557	9.27
499.759	9.32
499.961	9.32
500.163	9.34
500.365	9.34
500.567	9.43
500.769	9.33
500.971	9.31
501.173	9.23
501.375	9.21
501.577	9.09
501.779	9.08
501.981	9.08
502.183	9.1
502.385	9.06
502.587	9.02
502.788	9.07
502.99	9.11
503.192	9.17
503.394	9.15
503.596	9.17
503.798	9.23
503.999	9.27
504.201	9.3
504.403	9.39
504.605	9.45
504.806	9.4
505.008	9.32
505.21	9.29
505.411	9.32
505.613	9.28
505.815	9.28
506.016	9.35
506.218	9.42
506.42	9.3
506.621	9.34
506.823	9.4
507.024	9.3
507.226	9.25
507.427	9.25
507.629	9.31
507.83	9.37
508.032	9.41
508.233	9.47
508.435	9.55
508.636	9.54
508.838	9.45
509.039	9.49
509.24	9.5
509.442	9.48
509.643	9.45
509.845	9.53
510.046	9.59
510.247	9.56
510.448	9.52
510.65	9.53
510.851	9.59
511.052	9.54
511.254	9.5
511.455	9.62
511.656	9.7
511.857	9.69
512.058	9.67
512.26	9.69
512.461	9.68
512.662	9.64
512.863	9.52
513.064	9.54
513.265	9.61
513.466	9.58
513.667	9.51
513.868	9.56
514.069	9.65
514.27	9.65
514.471	9.62
514.672	9.67
514.873	9.65
515.074	9.6
515.275	9.48
515.476	9.48
515.677	9.5
515.878	9.63
516.079	9.59
516.28	9.63
516.481	9.76
516.682	9.73
516.882	9.59
517.083	9.58
517.284	9.56
517.485	9.43
517.686	9.41
517.886	9.46
518.087	9.54
518.288	9.52
518.488	9.56
518.689	9.57
518.89	9.51
519.091	9.46
519.291	9.45
519.492	9.5
519.692	9.55
519.893	9.64
520.094	9.63
520.294	9.62
520.495	9.51
520.695	9.49
520.896	9.45
521.096	9.53
521.297	9.61
521.497	9.66
521.698	9.59
521.898	9.55
522.099	9.54
522.299	9.57
522.499	9.57
522.7	9.59
522.9	9.59
523.101	9.64
523.301	9.57
523.501	9.56
523.702	9.61
523.902	9.63
524.102	9.58
524.302	9.57
524.503	9.6
524.703	9.59
524.903	9.59
525.103	9.53
525.304	9.6
525.504	9.68
525.704	9.69
525.904	9.69
526.104	9.67
526.304	9.63
526.504	9.57
526.705	9.53
526.905	9.61
527.105	9.65
527.305	9.62
527.505	9.54
527.705	9.53
527.905	9.5
528.105	9.5
528.305	9.47
528.505	9.52
528.705	9.65
528.905	9.59
529.105	9.61
529.304	9.67
529.504	9.75
529.704	9.64
529.904	9.67
530.104	9.67
530.304	9.76
530.503	9.71
530.703	9.68
530.903	9.64
531.103	9.7
531.303	9.59
531.502	9.65
531.702	9.75
531.902	9.82
532.101	9.76
532.301	9.76
532.501	9.72
532.7	9.7
532.9	9.68
533.1	9.71
533.299	9.68
533.499	9.68
533.698	9.63
533.898	9.61
534.097	9.61
534.297	9.72
534.496	9.72
534.696	9.75
534.895	9.87
535.095	9.97
535.294	9.88
535.494	9.85
535.693	9.87
535.892	9.83
536.092	9.69
536.291	9.7
536.491	9.78
536.69	9.83
536.889	9.73
537.088	9.74
537.288	9.78
537.487	9.79
537.686	9.76
537.886	9.84
538.085	9.91
538.284	10.06
538.483	10.03
538.682	10.12
538.882	10.16
539.081	10.2
539.28	10.05
539.479	10.05
539.678	10.01
539.877	10.1
540.076	10.03
540.275	10.03
540.474	10.07
540.673	10.05
540.872	9.92
541.071	9.94
541.27	9.97
541.469	10.04
541.668	10.1
541.867	10.08
542.066	10.15
542.265	10.22
542.464	10.18
542.663	10.17
542.862	10.34
543.06	10.41
543.259	10.46
543.458	10.52
543.657	10.55
543.856	10.49
544.054	10.41
544.253	10.33
544.452	10.31
544.651	10.35
544.849	10.33
545.048	10.4
545.247	10.46
545.445	10.49
545.644	10.5
545.843	10.54
546.041	10.58
546.24	10.66
546.438	10.7
546.637	10.75
546.836	10.89
547.034	10.9
547.233	10.9
547.431	10.9
547.63	10.9
547.828	10.88
548.027	10.92
548.225	10.92
548.423	10.97
548.622	11.03
548.82	10.94
549.019	10.97
549.217	11.05
549.415	11.05
549.614	11.14
549.812	11.26
550.01	11.21
550.209	11.24
550.407	11.35
550.605	11.28
550.803	11.31
551.002	11.48
551.2	11.49
551.398	11.55
551.596	11.72
551.794	11.82
551.993	11.83
552.191	11.89
552.389	11.97
552.587	11.99
552.785	12.01
552.983	12.01
553.181	12.12
553.379	12.11
553.577	12.11
553.775	12.22
553.973	12.34
554.171	12.33
554.369	12.28
554.567	12.33
554.765	12.35
554.963	12.42
555.161	12.45
555.359	12.55
555.557	12.7
555.755	12.71
555.952	12.77
556.15	12.85
556.348	12.92
556.546	12.93
556.744	12.95
556.941	13
557.139	13.09
557.337	13.12
557.535	13.16
557.732	13.31
557.93	13.47
558.128	13.47
558.325	13.63
558.523	13.66
558.721	13.71
558.918	13.64
559.116	13.74
559.313	13.7
559.511	13.84
559.708	13.89
559.906	13.94
560.104	13.97
560.301	14.05
560.498	14.05
560.696	14.02
560.893	14.14
561.091	14.28
561.288	14.44
561.486	14.5
561.683	14.62
561.88	14.71
562.078	14.72
562.275	14.77
562.473	15
562.67	15.09
562.867	15.2
563.064	15.3
563.262	15.29
563.459	15.22
563.656	15.41
563.853	15.38
564.051	15.47
564.248	15.62
564.445	15.78
564.642	15.75
564.839	15.97
565.036	16.1
565.234	16.22
565.431	16.29
565.628	16.31
565.825	16.37
566.022	16.5
566.219	16.52
566.416	16.62
566.613	16.8
566.81	16.85
567.007	16.74
567.204	16.72
567.401	16.73
567.598	16.71
567.795	16.7
567.991	16.84
568.188	16.98
568.385	17.2
568.582	17.33
568.779	17.51
568.976	17.55
569.172	17.7
569.369	17.6
569.566	17.62
569.763	17.69
569.96	17.73
570.156	17.69
570.353	17.69
570.55	17.74
570.746	17.71
570.943	17.74
571.14	17.79
571.336	17.89
571.533	17.96
571.729	17.91
571.926	17.97
572.123	18.03
572.319	18.1
572.516	18.08
572.712	18.2
572.909	18.23
573.105	18.29
573.302	18.3
573.498	18.41
573.695	18.36
573.891	18.42
574.087	18.41
574.284	18.38
574.48	18.34
574.677	18.44
574.873	18.41
575.069	18.54
575.266	18.67
575.462	18.62
575.658	18.63
575.854	18.68
576.051	18.63
576.247	18.53
576.443	18.66
576.639	18.67
576.835	18.61
577.032	18.52
577.228	18.64
577.424	18.6
577.62	18.55
577.816	18.66
578.012	18.71
578.208	18.61
578.404	18.63
578.6	18.74
578.796	18.72
578.993	18.7
579.189	18.71
579.384	18.57
579.58	18.53
579.776	18.48
579.972	18.47
580.168	18.44
580.364	18.58
580.56	18.55
580.756	18.57
580.952	18.51
581.148	18.54
581.343	18.55
581.539	18.61
581.735	18.65
581.931	18.74
582.127	18.73
582.322	18.62
582.518	18.62
582.714	18.58
582.909	18.51
583.105	18.51
583.301	18.47
583.496	18.44
583.692	18.36
583.888	18.43
584.083	18.44
584.279	18.51
584.474	18.45
584.67	18.48
584.866	18.45
585.061	18.42
585.257	18.5
585.452	18.55
585.648	18.6
585.843	18.66
586.039	18.61
586.234	18.55
586.429	18.56
586.625	18.64
586.82	18.54
587.015	18.66
587.211	18.55
587.406	18.57
587.601	18.5
587.797	18.51
587.992	18.41
588.187	18.58
588.383	18.48
588.578	18.37
588.773	18.43
588.968	18.5
589.163	18.44
589.359	18.47
589.554	18.61
589.749	18.63
589.944	18.7
590.139	18.74
590.334	18.79
590.529	18.76
590.724	18.75
590.919	18.77
591.114	18.8
591.309	18.88
591.504	18.93
591.699	18.95
591.894	19.02
592.089	19.04
592.284	19.06
592.479	19.13
592.674	19.13
592.869	19.15
593.064	19.18
593.259	19.28
593.454	19.38
593.648	19.48
593.843	19.47
594.038	19.48
594.233	19.42
594.428	19.39
594.622	19.36
594.817	19.45
595.012	19.5
595.206	19.52
595.401	19.6
595.596	19.63
595.79	19.75
595.985	19.93
596.18	20.07
596.374	20.07
596.569	20.18
596.763	20.1
596.958	20.13
597.153	20.17
597.347	20.18
597.542	20.31
597.736	20.36
597.931	20.36
598.125	20.49
598.319	20.7
598.514	20.68
598.708	20.82
598.903	20.87
599.097	20.91
599.291	20.93
599.486	20.93
599.68	20.95
599.874	21.05
600.069	21.06
600.263	21.02
600.457	21.13
600.651	21.11
600.846	21.15
601.04	21.18
601.234	21.16
601.428	21.19
601.622	21.25
601.817	21.21
602.011	21.26
602.205	21.29
602.399	21.28
602.593	21.27
602.787	21.27
602.981	21.24
603.175	21.37
603.369	21.41
603.563	21.51
603.757	21.62
603.951	21.64
604.145	21.53
604.339	21.51
604.533	21.33
604.727	21.26
604.921	21.21
605.115	21.26
605.309	21.32
605.502	21.45
605.696	21.33
605.89	21.32
606.084	21.28
606.278	21.23
606.471	21.14
606.665	21.12
606.859	21.06
607.053	21
607.246	21
607.44	20.95
607.634	20.92
607.827	21.01
608.021	20.96
608.214	20.84
608.408	20.75
608.602	20.72
608.795	20.54
608.989	20.55
609.182	20.47
609.376	20.47
609.569	20.4
609.763	20.33
609.956	20.16
610.15	20.08
610.343	20.01
610.537	19.96
610.73	19.96
610.923	19.96
611.117	19.94
611.31	19.85
611.504	19.89
611.697	19.85
611.89	19.75
612.083	19.67
612.277	19.66
612.47	19.56
612.663	19.48
612.856	19.39
613.05	19.3
613.243	19.23
613.436	19.14
613.629	19.02
613.822	18.99
614.015	18.98
614.209	18.86
614.402	18.89
614.595	18.85
614.788	18.82
614.981	18.72
615.174	18.59
615.367	18.41
615.56	18.33
615.753	18.3
615.946	18.2
616.139	18.3
616.332	18.42
616.525	18.4
616.718	18.42
616.911	18.43
617.103	18.38
617.296	18.2
617.489	18.12
617.682	18.04
617.875	18.05
618.067	17.93
618.26	17.94
618.453	18.02
618.646	18.06
618.838	18.04
619.031	18.18
619.224	18.16
619.417	18.02
619.609	17.88
619.802	17.82
619.994	17.69
620.187	17.71
620.38	17.72
620.572	17.64
620.765	17.69
620.957	17.58
621.15	17.46
621.342	17.46
621.535	17.58
621.727	17.53
621.92	17.56
622.112	17.51
622.305	17.53
622.497	17.38
622.69	17.33
622.882	17.34
623.074	17.48
623.267	17.35
623.459	17.32
623.651	17.2
623.844	17.14
624.036	17.06
624.228	17.02
624.42	17.05
624.613	17.27
624.805	17.22
624.997	17.18
625.189	17.16
625.381	17.14
625.574	16.98
625.766	16.93
625.958	16.87
626.15	16.96
626.342	16.92
626.534	16.89
626.726	16.8
626.918	16.86
627.11	16.78
627.302	16.81
627.494	16.74
627.686	16.88
627.878	16.81
628.07	16.81
628.262	16.69
628.454	16.76
628.646	16.69
628.838	16.67
629.029	16.61
629.221	16.75
629.413	16.65
629.605	16.56
629.797	16.42
629.989	16.41
630.18	16.26
630.372	16.26
630.564	16.31
630.755	16.38
630.947	16.45
631.139	16.38
631.33	16.22
631.522	16.31
631.714	16.41
631.905	16.31
632.097	16.29
632.289	16.39
632.48	16.26
632.672	16.08
632.863	16.01
633.055	15.98
633.246	16.01
633.438	15.91
633.629	15.88
633.821	15.88
634.012	15.9
634.203	15.87
634.395	15.92
634.586	15.94
634.777	15.87
634.969	15.85
635.16	15.81
635.351	15.71
635.543	15.75
635.734	15.84
635.925	15.82
636.117	15.79
636.308	15.83
636.499	15.71
636.69	15.49
636.881	15.46
637.073	15.55
637.264	15.5
637.455	15.6
637.646	15.82
637.837	15.94
638.028	15.75
638.219	15.81
638.41	15.68
638.601	15.5
638.792	15.47
638.983	15.46
639.174	15.42
639.365	15.49
639.556	15.46
639.747	15.36
639.938	15.5
640.129	15.48
640.32	15.44
640.511	15.57
640.701	15.64
640.892	15.55
641.083	15.61
641.274	15.67
641.465	15.58
641.655	15.52
641.846	15.45
642.037	15.43
642.228	15.33
642.418	15.38
642.609	15.41
642.8	15.45
642.99	15.36
643.181	15.4
643.372	15.39
643.562	15.35
643.753	15.31
643.943	15.29
644.134	15.19
644.324	15.17
644.515	15.13
644.705	15.19
644.896	15.2
645.086	15.28
645.277	15.2
645.467	15.25
645.658	15.21
645.848	15.2
646.038	15.1
646.229	15.04
646.419	14.95
646.61	14.87
646.8	14.8
646.99	14.86
647.18	14.9
647.371	14.86
647.561	14.74
647.751	14.82
647.941	14.68
648.132	14.68
648.322	14.66
648.512	14.79
648.702	14.8
648.892	14.83
649.082	14.83
649.272	14.74
649.462	14.64
649.653	14.5
649.843	14.49
650.033	14.48
650.223	14.45
650.413	14.32
650.603	14.34
650.793	14.38
650.983	14.3
651.172	14.27
651.362	14.27
651.552	14.1
651.742	13.94
651.932	13.96
652.122	14.03
652.312	14.11
652.502	14.2
652.691	14.2
652.881	14.08
653.071	14.02
653.261	13.92
653.45	13.78
653.64	13.73
653.83	13.6
654.019	13.54
654.209	13.48
654.399	13.54
654.588	13.53
654.778	13.49
654.968	13.35
655.157	13.29
655.347	13.19
655.536	13.09
655.726	13.08
655.915	13
656.105	12.9
656.294	12.77
656.484	12.63
656.673	12.48
656.863	12.47
657.052	12.32
657.241	12.21
657.431	11.97
657.62	11.8
657.809	11.49
657.999	11.42
658.188	11.34
658.377	11.28
658.567	11.22
658.756	11.13
658.945	10.98
659.134	10.76
659.324	10.62
659.513	10.5
659.702	10.46
659.891	10.38
660.08	10.25
660.269	10.25
660.458	10.2
660.648	10.13
660.837	10.06
661.026	10.1
661.215	9.99
661.404	9.84
661.593	9.84
661.782	9.68
661.971	9.61
662.16	9.57
662.349	9.61
662.538	9.36
662.726	9.38
662.915	9.21
663.104	9.07
663.293	8.95
663.482	9.05
663.671	8.97
663.86	8.88
664.048	8.78
664.237	8.79
664.426	8.59
664.615	8.53
664.803	8.52
664.992	8.53
665.181	8.44
665.369	8.37
665.558	8.28
665.747	8.26
665.935	8.23
666.124	8.25
666.312	8.36
666.501	8.33
666.69	8.21
666.878	8.13
667.067	8
667.255	7.96
667.444	8.29
667.632	8.42
667.82	8.51
668.009	8.5
668.197	8.46
668.386	8.22
668.574	8.34
668.762	8.33
668.951	8.3
669.139	8.4
669.327	8.33
669.516	8.3
669.704	8.22
669.892	8.34
670.08	8.33
670.269	8.25
670.457	8.14
670.645	8.03
670.833	8.12
671.021	8.05
671.21	8.11
671.398	8.18
671.586	8.27
671.774	8.1
671.962	8.01
672.15	8.03
672.338	7.96
672.526	8.03
672.714	7.94
672.902	8.13
673.09	8.32
673.278	8.52
673.466	8.6
673.654	8.86
673.842	8.76
674.03	8.74
674.218	8.49
674.405	8.49
674.593	8.5
674.781	8.6
674.969	8.66
675.157	9
675.344	9.06
675.532	9.13
675.72	9.23
675.908	9.25
676.095	9.12
676.283	9.14
676.471	9.19
676.658	9.16
676.846	9.14
677.033	9.24
677.221	9.28
677.409	9.16
677.596	9.26
677.784	9.27
677.971	9.29
678.159	9.33
678.346	9.47
678.534	9.46
678.721	9.78
678.909	9.81
679.096	9.9
679.283	10.02
679.471	10.1
679.658	10.02
679.846	10.19
680.033	10.38
680.22	10.3
680.408	10.39
680.595	10.45
680.782	10.34
680.969	10.33
681.157	10.55
681.344	10.56
681.531	10.54
681.718	10.66
681.905	10.72
682.093	10.84
682.28	10.99
682.467	11.25
682.654	11.41
682.841	11.48
683.028	11.56
683.215	11.76
683.402	11.62
683.589	11.71
683.776	11.97
683.963	12.06
684.15	12.14
684.337	12.35
684.524	12.51
684.711	12.53
684.898	12.61
685.085	12.92
685.271	13.22
685.458	13.39
685.645	13.58
685.832	13.86
686.019	14.03
686.205	14.24
686.392	14.53
686.579	14.67
686.766	15.05
686.952	15.08
687.139	15.52
687.326	15.61
687.512	15.9
687.699	16.01
687.886	16.3
688.072	16.16
688.259	16.45
688.445	16.79
688.632	17.04
688.818	17.52
689.005	18.1
689.191	18.48
689.378	19.06
689.564	19.48
689.751	19.88
689.937	20.17
690.124	20.75
690.31	20.86
690.496	21.25
690.683	21.73
690.869	22.19
691.055	22.61
691.242	23.4
691.428	23.93
691.614	24.36
691.8	25
691.987	25.48
692.173	25.79
692.359	26.45
692.545	26.99
692.731	27.43
692.918	27.96
693.104	28.42
693.29	28.81
693.476	29.43
693.662	30.03
693.848	30.58
694.034	31.26
694.22	32.05
694.406	32.73
694.592	33.19
694.778	33.91
694.964	34.56
695.15	35.16
695.336	35.54
695.522	36.54
695.708	37.38
695.894	38.19
696.08	38.7
696.265	39.54
696.451	39.91
696.637	40.56
696.823	41.03
697.009	41.45
697.194	41.76
697.38	42.45
697.566	42.84
697.751	43.54
697.937	44.45
698.123	45.15
698.308	45.79
698.494	46.3
698.68	46.66
698.865	47.19
699.051	47.95
699.236	48.49
699.422	48.88
699.607	49.2
699.793	49.7
699.978	50.07
700.164	50.37
700.349	51.42
700.535	52.23
700.72	52.6
700.906	53.43
701.091	53.96
701.276	53.99
701.462	54.64
701.647	55.51
701.832	55.77
702.018	56.32
702.203	57.08
702.388	57.18
702.573	57.37
702.759	58.27
702.944	58.56
703.129	58.7
703.314	59.21
703.499	59.59
703.684	59.66
703.87	60.92
704.055	61.61
704.24	62.17
704.425	62.96
704.61	63.47
704.795	63.35
704.98	63.61
705.165	63.89
705.35	64.06
705.535	64.22
705.72	64.43
705.905	65.1
706.09	65.56
706.275	65.9
706.459	66.22
706.644	66.21
706.829	66.12
707.014	66.31
707.199	66.48
707.384	66.88
707.568	67.49
707.753	68.36
707.938	68.59
708.123	68.83
708.307	68.85
708.492	69.02
708.677	69.02
708.861	69.42
709.046	69.4
709.231	70.28
709.415	70.73
709.6	70.65
709.784	70.62
709.969	71.17
710.153	70.72
710.338	71.04
710.522	71.44
710.707	72.16
710.891	72.07
711.076	72.29
711.26	72.19
711.445	72.51
711.629	72.37
711.813	72.77
711.998	73.08
712.182	72.92
712.366	73.43
712.551	74.11
712.735	74.21
712.919	74.43
713.103	74.95
713.288	74.49
713.472	74.23
713.656	75.01
713.84	74.91
714.024	75.23
714.208	75.22
714.393	75.56
714.577	75.39
714.761	75.74
714.945	75.84
715.129	75.98
715.313	76.07
715.497	76
715.681	76.76
715.865	76.7
716.049	76.69
716.233	76.28
716.417	76.76
716.601	76.39
716.785	76.41
716.968	76.95
717.152	77.43
717.336	77.22
717.52	77
717.704	76.92
717.888	77.41
718.071	77.65
718.255	77.8
718.439	78.12
718.622	78.73
718.806	78.59
718.99	78.09
719.174	78.14
719.357	78.21
719.541	77.96
719.724	77.92
719.908	79.19
720.092	79.77
720.275	80.1
720.459	80.23
720.642	80.23
720.826	79.5
721.009	79.17
721.193	79.12
721.376	79.36
721.559	79.7
721.743	80
721.926	79.94
722.11	79.83
722.293	79.53
722.476	79.11
722.66	79.05
722.843	79.2
723.026	79.05
723.21	79.41
723.393	80.06
723.576	79.74
723.759	79.12
723.942	79.53
724.126	79.32
724.309	79.38
724.492	79.89
724.675	80.47
724.858	80.97
725.041	81.8
725.224	81.72
725.407	81.83
725.59	82.28
725.774	81.78
725.957	80.63
726.14	80.09
726.322	80.22
726.505	79.56
726.688	80.37
726.871	81.14
727.054	81.6
727.237	81.61
727.42	82.3
727.603	81.93
727.786	82.05
727.968	82.32
728.151	82.41
728.334	82.5
728.517	82.48
728.699	83.16
728.882	82.43
729.065	82.53
729.248	82.95
729.43	82.93
729.613	83.23
729.796	84.42
729.978	83.68
730.161	83.02
730.343	82.54
730.526	82.69
730.708	81.91
730.891	82.65
731.073	82.54
731.256	82.48
731.438	81.86
731.621	82.7
731.803	82.75
731.986	83.22
732.168	83.92
732.35	83.56
732.533	82.76
732.715	82.69
732.898	83.32
733.08	83.35
733.262	83.81
733.444	84.25
733.627	84.17
733.809	84.29
733.991	85.18
734.173	84.68
734.355	85.08
734.538	85.95
734.72	85.26
734.902	84.77
735.084	85.38
735.266	85.5
735.448	85.67
735.63	85.59
735.812	85.85
735.994	86.2
736.176	85.58
736.358	84.74
736.54	86.14
736.722	85.54
736.904	85.25
737.086	85.81
737.268	87.84
737.45	87.25
737.632	87.73
737.814	87.39
737.995	87.77
738.177	86.24
738.359	85.58
738.541	85.31
738.723	86.23
738.904	86.39
739.086	86.8
739.268	87.3
739.449	88.49
739.631	87.89
739.813	88.04
739.994	87.89
740.176	87.88
740.358	87.01
740.539	87.99
740.721	87.72
740.902	88.3
741.084	88.76
741.265	88.31
741.447	88.92
741.628	89.58
741.81	88.53
741.991	88.4
742.172	89.74
742.354	89.27
742.535	88.66
742.717	90.13
742.898	90.71
743.079	91.38
743.261	90.63
743.442	90.74
743.623	91.18
743.804	91.17
743.986	91.07
744.167	90.15
744.348	89.86
744.529	89.57
744.71	88.41
744.891	86.76
745.073	87.62
745.254	87.52
745.435	85.91
745.616	86.15
745.797	86.79
745.978	86.44
746.159	86.43
746.34	85.97
746.521	88.01
746.702	86.94
746.883	87.06
747.064	86.66
747.245	87.92
747.426	85.84
747.606	87.55
747.787	87.91
747.968	87.98
748.149	88.83
748.33	89.82
748.51	88.57
748.691	87.4
748.872	88.77
749.053	87.47
749.233	86.01
749.414	86.15
749.595	86.32
749.775	84.98
749.956	83.82
750.137	84.27
750.317	84.29
750.498	85.87
750.678	86.26
750.859	87.68
751.04	87.11
751.22	86.51
751.4	85.86
751.581	85.21
751.761	86.32
751.942	88.69
752.122	89.26
752.303	89.29
752.483	89.42
752.663	88.55
752.844	86.07
753.024	87.32
753.204	87.81
753.385	87.89
753.565	87.3
753.745	87.77
753.925	86.32
754.106	85.34
754.286	84.54
754.466	84.35
754.646	85.53
754.826	85.15
755.006	84.62
755.187	85.9
755.367	86.36
755.547	86.42
755.727	88.29
755.907	88.69
756.087	89.24
756.267	87.84
756.447	87.35
756.627	84.93
756.807	86.78
756.987	86.45
757.167	87.66
757.346	87.87
757.526	87.77
757.706	87.36
757.886	86.9
758.066	87.54
758.246	89.06
758.425	90.25
758.605	89
758.785	89.07
758.965	88.98
759.144	85.42
759.324	85.65
759.504	86.13
759.683	86.41
759.863	83.34
760.043	83.68
760.222	84.53
760.402	84.17
760.581	83.7
760.761	86.96
760.94	86.98
761.12	86.99
761.299	87.14
761.479	86.45
761.658	85.2
761.838	85.36
762.017	84.88
762.197	85.33
762.376	86.5
762.555	88.34
762.735	88.49
762.914	86.5
763.093	86.25
763.273	86.12
763.452	85.07
763.631	85.49
763.81	86.58
763.99	86.2
764.169	86.44
764.348	84.44
764.527	82.63
764.706	83.98
764.885	86.13
765.064	84.8
765.243	85.98
765.423	89.33
765.602	87.82
765.781	84.17
765.96	83.2
766.139	82.36
766.318	81.65
766.497	81.88
766.676	83.55
766.854	86.36
767.033	87.79
767.212	85.53
767.391	85.73
767.57	86.16
767.749	85.06
767.928	85.86
768.106	85.54
768.285	83.97
768.464	84.43
768.643	84.11
768.821	82.84
769	86.47
769.179	86.02
769.357	83.56
769.536	82.82
769.715	82.63
769.893	82.41
770.072	82.33
770.25	83.22
770.429	84.71
770.607	85.6
770.786	84.07
770.964	87.45
771.143	87.14
771.321	87.13
771.5	86.41
771.678	84.28
771.857	81.7
772.035	81.69
772.213	80.9
772.392	78.24
772.57	81.5
772.748	83.99
772.927	85.17
773.105	83.42
773.283	85.56
773.461	84.79
773.64	82.82
773.818	81.38
773.996	84.14
774.174	82.66
774.352	79.45
774.531	77.49
774.709	79.43
774.887	77.21
775.065	77.07
775.243	79.02
775.421	81.17
775.599	81.88
775.777	81.13
775.955	80.3
776.133	79.53
776.311	79.82
776.489	75.76
776.667	76.26
776.844	79.06
777.022	77.89
777.2	76.79
777.378	76.78
777.556	78.7
777.734	82.05
777.911	83.67
778.089	82.01
778.267	84.24
778.445	82.87
778.622	77.06
778.8	76.96
778.978	80.5
779.155	80.86
779.333	80.37
779.511	81.2
779.688	82.88
779.866	77.85
780.043	73.3
780.221	74.67
780.398	73.16
780.576	73.21
780.753	77.12
780.931	78.47
781.108	76.68
781.286	79.66
781.463	76.82
781.64	72.25
781.818	75.19
781.995	76.92
782.172	74.51
782.35	76.23
782.527	82.23
782.704	79.32
782.882	79.82
783.059	81.63
783.236	82.37
783.413	81.94
783.59	83.58
783.768	79.5
783.945	80.77
784.122	81.48
784.299	79.92
784.476	77.18
784.653	77.92
784.83	75.14
785.007	69.18
785.184	68.93
785.361	71.07
785.538	77.5
785.715	81.27
785.892	83.76
786.069	86.74
786.246	86.01
786.423	78.75
786.6	75.87
786.776	79.07
786.953	76.25
787.13	80.03
787.307	83.64
787.484	82.2
787.66	76.72
787.837	77.88
788.014	74.27
788.191	70.51
788.367	69.22
788.544	75.05
788.721	71.81
788.897	74.75
789.074	77.5
789.25	77.77
789.427	75.12
789.603	74.8
789.78	78.75
789.956	78.74
790.133	75.93
790.309	76.59
790.486	82.11
790.662	74.99
790.839	74.64
791.015	78.44
791.192	75.93
791.368	73.76
791.544	73.19
791.721	72.81
791.897	72.32
792.073	71.81
792.249	64.12
792.426	64.62
792.602	69.63
792.778	72.58
792.954	73.71
793.13	80.08
793.307	79.69
793.483	70.95
793.659	66.47
793.835	68.54
794.011	66.32
794.187	64.79
794.363	66.34
794.539	70.81
794.715	65.36
794.891	61.25
795.067	58.43
795.243	61.62
795.419	60.93
795.595	59.47
795.771	65.05
795.947	66.26
796.122	63.62
796.298	63.94
796.474	72.46
796.65	72.94
796.826	71.23
797.001	72.73
797.177	63.95
797.353	64.8
797.529	63.99
797.704	68.08
797.88	63.29
798.056	61.7
798.231	57.04
798.407	60.7
798.582	56.87
798.758	70.31
798.934	81.12
799.109	77.67
799.285	74.35
799.46	81.99
799.636	74.08
799.811	72.07
799.986	76.31
800.162	75.59
800.337	73.12
800.513	67.69
800.688	69.03
800.863	78.04
801.039	75.09
801.214	71.93
801.389	78.04
801.565	74.06
801.74	61.53
801.915	70.74
802.09	73.4
802.265	79.22
802.441	77.76
802.616	76.35
802.791	70.52
802.966	70.82
803.141	64.67
803.316	60.91
803.491	67.6
803.666	71.02
803.841	66.42
804.016	62.25
804.191	70.22
804.366	68.5
804.541	63.84
804.716	63.69
804.891	65.11
805.066	66.95
805.241	60.62
805.416	62.61
805.591	63.46
805.765	66
805.94	62.6
806.115	64.9
806.29	59.76
806.464	57.1
806.639	55.41
806.814	49.59
806.989	46.1
807.163	61.2
807.338	65.34
807.512	66.05
807.687	57.95
807.862	69.87
808.036	69.73
808.211	72.01
808.385	76.72
808.56	93.82
808.734	93.58
808.909	78.05
809.083	81.03
809.258	83.16
809.432	86.41
809.606	75.83
809.781	78.16
809.955	77.54
810.13	74.37
810.304	64.8
810.478	58.64
810.652	65.65
810.827	63.08
811.001	56.99
811.175	51.48
811.349	59.46
811.524	50.61
811.698	42.12
811.872	46.56
812.046	59.78
812.22	64.07
812.394	66.78
812.568	74.68
812.742	81.07
812.916	67.45
813.09	50.29
813.264	45.36
813.438	46.08
813.612	41.25
813.786	42.13
813.96	62.45
814.134	66.12
814.308	75.76
814.482	79.26
814.656	76.52
814.83	72.47
815.003	77.5
815.177	56.32
815.351	48.62
815.525	58.19
815.698	49.64
815.872	37.5
816.046	32.89
816.219	41.88
816.393	45.99
816.567	50.02
816.74	50.81
816.914	68.61
817.088	72.12
817.261	62.85
817.435	59.87
817.608	66.03
817.782	52.24
817.955	54.54
818.129	49.35
818.302	51.18
818.475	55.9
818.649	57.84
818.822	42.27
818.996	63.57
819.169	59.95
819.342	52.83
819.516	70.27
819.689	81.13
819.862	52.93
820.035	48.69
820.209	46.17
820.382	36.27
820.555	37.82
820.728	39.37
820.901	44.69
821.075	45.24
821.248	56.02
821.421	42.86
821.594	40.02
821.767	65.03
821.94	78.82
822.113	59.93
822.286	65.01
822.459	75.39
822.632	62.12
822.805	46.86
822.978	45.69
823.151	36.54
823.324	39.22
823.496	15.83
823.669	22.87
823.842	31.67
824.015	22.67
824.188	11.59
824.361	23.86
824.533	17.27
824.706	24.32
824.879	36.59
825.051	53.86
825.224	54.3
825.397	58.75
825.569	50.42
825.742	61.22
825.915	57.33
826.087	66.82
826.26	52.18
826.432	48.26
826.605	57.07
826.777	43.24
826.95	52.37
827.122	44.55
827.295	69.48
827.467	61.4
827.64	62.82
827.812	32.14
827.984	42.69
828.157	7.57
828.329	-17.63
828.501	-2.45
828.674	31.08
828.846	39.57
829.018	60.21
829.19	52.31
829.363	69.58
829.535	70.8
829.707	72.54
829.879	50.56
830.051	50.33
830.223	28.08
830.395	3.8
830.568	0.53
830.74	4.42
830.912	28.04
831.084	19.9
831.256	32.5
831.428	28.24
831.6	8.94
831.772	-7.34
831.943	-6.5
832.115	-2.43
832.287	11.68
832.459	30.96
832.631	44.13
832.803	59.93
832.975	76.24
833.146	69.86
833.318	69.14
833.49	65.37
833.662	52.65
833.833	24.06
834.005	30.3
834.177	52.48
834.348	36.76
834.52	15.73
834.692	23.13
834.863	9.73
835.035	-25.71
835.206	-55.97
835.378	-14.57
835.549	-9.63
835.721	-7.6
835.892	4.19
836.064	13
836.235	10.33
836.407	24.56
836.578	26
836.749	12.82
836.921	-22.24
837.092	-26.19
837.264	-43.4
837.435	-55.96
837.606	3.13
837.777	40.5
837.949	46.09
838.12	53.55
838.291	56.79
838.462	33.67
838.633	2.01
838.805	-8.77
838.976	-2.29
839.147	-43.91
839.318	-49.59
839.489	-81.06
839.66	-40.05
839.831	-17.55
840.002	1.45
840.173	-0.46
840.344	81.75
840.515	90.25
840.686	-38
840.857	-41.94
841.028	-38.94
841.199	-62.8
841.369	-67.62
841.54	-51.7
841.711	-18.1
841.882	29.61
842.053	21.41
842.223	13.59
842.394	50.7
842.565	44.3
842.736	22.86
842.906	20.33
843.077	42.5
843.248	73.06
843.418	75.23
843.589	50.29
843.759	102.14
843.93	55.38
844.101	4.68
844.271	22.06
844.442	50.53
844.612	60.78
844.783	51.13
844.953	34.12
845.123	57.61
845.294	82.26
845.464	-15.6
845.635	33.35
845.805	94.77
845.975	51.89
846.146	-13.61
846.316	-16.29
846.486	8.59
846.656	28.87
846.827	15.44
846.997	10.78
847.167	19.01
847.337	-2.82
847.507	-51.37
847.677	-24.65
847.848	34.61
848.018	36.58
848.188	44.96
848.358	29.97
848.528	16.45
848.698	-24.51
848.868	-100.31
849.038	-200.05
849.208	-33.28
849.378	9.85
849.548	20.7
849.718	24.45
849.887	54.51
850.057	16.51
850.227	-19.01
850.397	-56.61
850.567	-145.83
850.737	-364.46
850.906	-1085.31
851.076	-765.04
851.246	-376.05
851.415	-24.65
851.585	-31.13
851.755	-70.8
851.924	-14.99
852.094	-15.72
852.264	-103.15
852.433	-852.16
852.603	-138.43
852.772	-61.86
852.942	-24.55
853.111	-5.05
853.281	31.12
853.45	58.46
853.62	-36.85
853.789	-78.87
853.959	-60.93
854.128	-49.09
854.297	-44.45
854.467	-49.64
854.636	5.83
854.805	-3.35
854.975	-14.74
855.144	-71.03
855.313	36.89
855.482	-327.19
855.652	-126.14
855.821	-96.29
855.99	41.16
856.159	40.81
856.328	63.15
856.497	39.93
856.667	36.07
856.836	15.76
857.005	-30.29
857.174	-62.76
857.343	-56.41
857.512	6.46
857.681	-45.21
857.85	-34.14
858.019	-4.57
858.188	-10.92
858.356	-55.6
858.525	-93.54
858.694	-67.02
858.863	-159.34
859.032	-137.76
859.201	-207.6
859.369	-92.16
859.538	-82.61
859.707	-57.88
859.876	-71.79
860.044	-89.29
860.213	-3.08
860.382	-26.85
860.55	-24.31
860.719	25.38
860.888	43.5
861.056	-15.57
861.225	-15.51
861.393	6.71
861.562	-7.68
861.73	-51.22
861.899	-36.78
862.067	-149.14
862.236	100.65
862.404	-107.56
862.572	-44.65
862.741	18.58
862.909	3.38
863.078	-157.92
863.246	-75.46
863.414	-71.02
863.582	-68.63
863.751	-61.07
863.919	-26.08
864.087	12.45
864.255	5.78
864.424	-277.79
864.592	-39.08
864.76	-78.88
864.928	-394.6
865.096	-230.65
865.264	-159.64
865.432	-1871.02
865.6	-113.13
865.768	-91.2
865.936	-99.39
866.104	-43.04
866.272	-70.7
866.44	-273.33
866.608	421.33
866.776	175.27
866.944	2221.51
867.112	-324.68
867.28	-171.87
867.448	-39.32
867.615	26.14
867.783	43.23
867.951	23.63
868.119	85.51
868.286	96.25
868.454	-0.31
868.622	-15.33
868.789	-71.52
868.957	-1123.21
869.125	-1748.03
869.292	-86.55
869.46	-126.02
869.627	59.21
869.795	57.34
869.963	65.69
870.13	72.73
870.298	91.39
870.465	15.62
870.632	-52.54
870.8	-44.19
870.967	-82.73
871.135	-108.78
871.302	-66.31
871.469	-62.67
871.637	24.11
871.804	-3.61
871.971	-58.94
872.139	-225.23
872.306	26.93
872.473	-52.78
872.64	-352.04
872.807	-184.5
872.975	-29.92
873.142	-226.27
873.309	1746.62
873.476	75.89
873.643	163.98
873.81	115.37
873.977	102.6
874.144	101.98
874.311	34.29
874.478	-45.97
874.645	-79.63
874.812	-28.06
874.979	-9.24
875.146	-12.43
875.313	-37.36
875.48	29.9
875.647	14.58
875.813	-32.69
875.98	-14.23
876.147	-33.48
876.314	-89.16
876.481	960.54
876.647	-844.1
876.814	378.37
876.981	88.37
877.147	10.11
877.314	60.18
877.481	72.91
877.647	76.08
877.814	36.98
877.98	26.26
878.147	24.55
878.314	63.72
878.48	18.45
878.647	38.25
878.813	102.81
878.979	85.41
879.146	54.12
879.312	62.17
879.479	24.21
879.645	-102.39
879.811	-236.04
879.978	-726.91
880.144	-195.86
880.31	-80.23
880.477	-283.97
880.643	-366.99
880.809	-151.85
880.975	-117.81
881.142	-813.86
881.308	-104.54
881.474	-60.69
881.64	-46.26
881.806	-159.69
881.972	-61.64
882.138	-51.52
882.304	-53.96
882.47	-220.76
882.636	-692.01
882.802	-206.77
882.968	-39.32
883.134	-12.87
883.3	-2.16
883.466	39.94
883.632	89.64
883.798	67.83
883.964	88.1
884.129	109.38
884.295	143.78
884.461	27.32
884.627	-10.42
884.793	-40.95
884.958	-13.62
885.124	-110.16
885.29	-224.03
885.455	-332.65
885.621	-72.49
885.787	-109.06
885.952	-40.76
886.118	-17.45
886.283	-4.43
886.449	-57.67
886.614	6.21
886.78	59.52
886.945	-42.21
887.111	-318.06
887.276	-334.8
887.442	-1026.59
887.607	-473.23
887.773	-255.49
887.938	-260.38
888.103	-244.66
888.269	-160.32
888.434	-226.08
888.599	-141.05
888.764	17.92
888.93	5.59
889.095	-7.1
889.26	-45.53
889.425	-7.29
889.59	28.79
889.756	2.46
889.921	5.82
890.086	31.41
890.251	37.15
890.416	-130.72
890.581	-819.76
890.746	152.59
890.911	304.62
891.076	167.15
891.241	-314.37
891.406	13.13
891.571	57.29
891.736	-19.84
891.901	17.48
892.065	-5.22
892.23	58.4
892.395	144.08
892.56	266.55
892.725	-216.6
892.889	-464.02
893.054	-115.85
893.219	-18.77
893.384	45.83
893.548	-3.4
893.713	-13.44
893.878	1.29
