Data from Ofra_PS_T2_2A_0GT01_Reflection_3.txt Node
Date: Wed Jul 21 16:51:01 EDT 2021
User: Adam
Spectrometer: FLMT01687
Trigger mode: 0
Integration Time (sec): 1.100000E0
Scans to average: 2
Electric dark correction enabled: true
Nonlinearity correction enabled: false
Boxcar width: 2
XAxis mode: Wavelengths
Number of Pixels in Spectrum: 3648
>>>>>Begin Spectral Data<<<<<
179.494	286
179.716	325.88
179.937	303.53
180.158	258.62
180.38	400.94
180.601	182.04
180.823	74.3
181.044	50.95
181.265	202.57
181.486	55.36
181.708	81.64
181.929	384.69
182.15	-96.48
182.372	117.74
182.593	20.03
182.814	78.57
183.035	112.26
183.257	102.39
183.478	69.68
183.699	95.07
183.92	59.29
184.141	56.73
184.363	55.41
184.584	61.06
184.805	57.96
185.026	56.81
185.247	49.24
185.468	32.27
185.689	25.76
185.91	30.59
186.132	25.14
186.353	16.45
186.574	41.94
186.795	22.8
187.016	-16.52
187.237	3.69
187.458	-5.22
187.679	-20.53
187.9	39.07
188.121	42.59
188.342	50.34
188.563	71.3
188.784	89.95
189.005	53.66
189.226	101.49
189.447	117.97
189.667	132.77
189.888	22.41
190.109	117.53
190.33	-96.45
190.551	-448.23
190.772	-105.93
190.993	-49.28
191.214	-68.67
191.434	-5.87
191.655	33.19
191.876	43.25
192.097	-18.27
192.318	-69.98
192.538	-188.12
192.759	-135.71
192.98	-93.12
193.201	-20.09
193.421	5.73
193.642	29.74
193.863	36
194.083	43.14
194.304	31.7
194.525	24.85
194.745	17.28
194.966	5.76
195.187	6.63
195.407	6.23
195.628	-14.55
195.848	-19.36
196.069	-25.92
196.29	-24.87
196.51	-50.67
196.731	-25.5
196.951	-34.65
197.172	-32.58
197.392	-49.63
197.613	-67.95
197.833	-90.16
198.054	-76.58
198.274	-26.06
198.495	-31.2
198.715	8.05
198.936	-6.57
199.156	3.78
199.377	-28
199.597	-11.14
199.817	-11.33
200.038	27.71
200.258	5.23
200.479	5.29
200.699	-15.28
200.919	29.06
201.14	45.79
201.36	41.14
201.58	58.04
201.801	75.5
202.021	49.02
202.241	38.94
202.461	41.68
202.682	-7.04
202.902	-68.15
203.122	-22.54
203.342	-27.3
203.563	1.46
203.783	21.82
204.003	32.41
204.223	44.83
204.443	55.64
204.663	37.23
204.884	45.52
205.104	22.89
205.324	21.21
205.544	23.81
205.764	32.66
205.984	30.86
206.204	58.59
206.424	36.58
206.644	26.54
206.864	33.85
207.084	15.21
207.304	-33.47
207.525	-79.53
207.745	-23.55
207.964	4.14
208.184	-33.63
208.404	-29.13
208.624	-23.85
208.844	-15.57
209.064	-145.74
209.284	-89.25
209.504	-34.8
209.724	42.63
209.944	23.08
210.164	32.22
210.384	35.76
210.604	33.9
210.823	-6.23
211.043	-20.48
211.263	-4.08
211.483	2.73
211.703	-24.59
211.922	-1.05
212.142	54.27
212.362	72.41
212.582	47.93
212.801	64.76
213.021	36.39
213.241	40.88
213.461	-7.18
213.68	-17.06
213.9	-42.07
214.12	-20.28
214.339	-83.85
214.559	-31.84
214.779	16.49
214.998	28.53
215.218	8.96
215.438	34.66
215.657	28.6
215.877	-4.99
216.096	19.65
216.316	38.29
216.535	33.32
216.755	26.88
216.974	10.52
217.194	-3.29
217.413	0.06
217.633	-10.11
217.852	-48.85
218.072	-6.21
218.291	8.45
218.511	6.87
218.73	-1.66
218.95	-0.45
219.169	-5.24
219.389	-22.38
219.608	-0.3
219.827	6.19
220.047	16.64
220.266	27.82
220.485	32.6
220.705	15.58
220.924	8.94
221.143	36.11
221.363	20.24
221.582	14.66
221.801	23.02
222.021	34.3
222.24	-22.14
222.459	18.67
222.678	-14.55
222.897	-8.47
223.117	-22.91
223.336	3.4
223.555	22.31
223.774	51.01
223.993	15.56
224.213	38.99
224.432	40.7
224.651	35.01
224.87	22.87
225.089	48.85
225.308	32.62
225.527	20.84
225.746	18.49
225.965	31.24
226.184	-20.81
226.404	7.65
226.623	0.41
226.842	0.37
227.061	15.23
227.28	28.23
227.499	18.76
227.718	20.98
227.936	14.52
228.155	8.29
228.374	14.68
228.593	34.06
228.812	67.41
229.031	65.63
229.25	36.18
229.469	21.63
229.688	-5.66
229.907	5.29
230.125	17.79
230.344	38.17
230.563	50.26
230.782	48.41
231.001	-3.09
231.22	-16.76
231.438	-23.54
231.657	-12.76
231.876	-2.7
232.095	38.56
232.313	41.83
232.532	46.87
232.751	32.28
232.969	3.62
233.188	-43.99
233.407	13.31
233.625	24.26
233.844	43.35
234.063	34.35
234.281	34.75
234.5	31.51
234.719	22.35
234.937	14.54
235.156	12.69
235.374	16.06
235.593	0.85
235.811	-6.47
236.03	2.55
236.249	-9.31
236.467	-8.95
236.686	10.62
236.904	19.22
237.123	-3.9
237.341	1.49
237.559	2.03
237.778	-15.01
237.996	-28.77
238.215	10.15
238.433	29.91
238.652	37.43
238.87	26.76
239.088	39.91
239.307	37.11
239.525	13.21
239.743	-16.68
239.962	18.92
240.18	-10.19
240.398	-39.7
240.617	-11.31
240.835	28.65
241.053	-11.39
241.271	-9.3
241.49	15.26
241.708	-15.18
241.926	-60.78
242.144	-19.85
242.363	-23.18
242.581	-41.02
242.799	-20.24
243.017	-5.38
243.235	-17.14
243.453	-11.38
243.672	-15.97
243.89	-5.01
244.108	-11.77
244.326	-0.13
244.544	15.17
244.762	27.87
244.98	29.97
245.198	50.9
245.416	35.57
245.634	26.51
245.852	7.24
246.07	5.41
246.288	-29.03
246.506	-53.13
246.724	-70.72
246.942	-50.3
247.16	-30.23
247.378	-3.52
247.596	8.79
247.814	10.84
248.032	-11.83
248.25	-13.04
248.468	-27.31
248.685	-16.47
248.903	-1.28
249.121	10.21
249.339	1.76
249.557	14.58
249.775	16.88
249.992	-18.98
250.21	-28.17
250.428	-18.69
250.646	-32.02
250.863	-45.87
251.081	-26.06
251.299	-14.85
251.517	-13.17
251.734	-6.15
251.952	-1.24
252.17	13.2
252.387	24.05
252.605	14.12
252.823	13.42
253.04	18.45
253.258	21.07
253.475	18.05
253.693	47.64
253.911	47.13
254.128	47.85
254.346	51.69
254.563	33.45
254.781	-0.17
254.998	-0.45
255.216	-4.41
255.433	-4.47
255.651	15.14
255.868	33.89
256.086	51.23
256.303	60.54
256.521	54.06
256.738	36.75
256.956	28.92
257.173	4.94
257.39	-17.22
257.608	-37.72
257.825	-24.07
258.043	-9.32
258.26	15.72
258.477	48.75
258.695	57.57
258.912	41.08
259.129	39.12
259.346	11.95
259.564	-31.69
259.781	-46.97
259.998	-7.47
260.216	6.69
260.433	14.61
260.65	13.81
260.867	40.75
261.084	16.61
261.302	-5.34
261.519	8.78
261.736	4.37
261.953	-37.58
262.17	13.25
262.387	-5.29
262.604	-41.08
262.822	-36.96
263.039	-11.56
263.256	-55.98
263.473	-6.94
263.69	19.22
263.907	42.02
264.124	41.97
264.341	35.46
264.558	25
264.775	19.84
264.992	-7.29
265.209	0.54
265.426	19.17
265.643	17.93
265.86	20.86
266.077	29.34
266.294	19.67
266.51	-9.86
266.727	-14.71
266.944	6.47
267.161	-2.45
267.378	-5.52
267.595	26.1
267.812	-1.23
268.028	-11.88
268.245	11.42
268.462	20.79
268.679	3.24
268.896	49.8
269.112	43.69
269.329	36.37
269.546	21.71
269.763	30.26
269.979	6.44
270.196	-10.71
270.413	-29.71
270.629	-45.99
270.846	-59.23
271.063	-38.31
271.279	-29.04
271.496	-11.72
271.712	37.2
271.929	54.74
272.146	52.22
272.362	67.68
272.579	63.69
272.795	49.51
273.012	53.54
273.228	48.04
273.445	29.24
273.661	25.36
273.878	-21.24
274.094	-3.95
274.311	-19.87
274.527	17.38
274.744	22.48
274.96	36.64
275.177	36.02
275.393	47.37
275.609	43.07
275.826	51.96
276.042	43.2
276.259	12.79
276.475	15.69
276.691	10.38
276.908	-14.04
277.124	2.61
277.34	13.2
277.557	-3.4
277.773	1.61
277.989	2.73
278.205	-6.88
278.422	-4.31
278.638	4.1
278.854	25.73
279.07	18.17
279.286	32.55
279.503	6.98
279.719	16.41
279.935	-6.84
280.151	-5.83
280.367	-3.31
280.583	-7.59
280.799	-9.62
281.016	-35.32
281.232	-8.52
281.448	-12.48
281.664	5.87
281.88	-32.1
282.096	-9.99
282.312	10.2
282.528	18.78
282.744	59.37
282.96	79.72
283.176	58.35
283.392	52.18
283.608	43.21
283.824	24.79
284.04	22.04
284.256	35.58
284.471	5.01
284.687	3.26
284.903	13.87
285.119	21.34
285.335	19.72
285.551	39.75
285.767	37.17
285.982	18.87
286.198	12.95
286.414	11.76
286.63	20.17
286.846	28.48
287.061	25
287.277	30.47
287.493	15.62
287.709	22.72
287.924	3.87
288.14	13.13
288.356	14.32
288.571	23.22
288.787	16.6
289.003	22.08
289.218	14.23
289.434	-0.9
289.65	3.83
289.865	-13.01
290.081	1.18
290.296	1.11
290.512	12.62
290.727	7.83
290.943	18.17
291.159	14.96
291.374	18.29
291.59	4.8
291.805	5.73
292.021	13.44
292.236	1.58
292.451	2.2
292.667	14.34
292.882	20.9
293.098	3.6
293.313	0.04
293.529	-0.89
293.744	-4.42
293.959	-11.86
294.175	-6.06
294.39	15.5
294.605	26.72
294.821	25.38
295.036	32.92
295.251	33.62
295.467	16.3
295.682	7.64
295.897	-11.21
296.112	-22.01
296.328	-15.36
296.543	-24.98
296.758	-42.38
296.973	-0.36
297.188	18.67
297.404	-8.48
297.619	-15.08
297.834	-8.28
298.049	-41.33
298.264	-47.78
298.479	8.3
298.694	20.23
298.909	28.29
299.125	30.58
299.34	23.6
299.555	-0.15
299.77	-2.87
299.985	-17.98
300.2	-40.51
300.415	-29.99
300.63	-11.32
300.845	-18.51
301.06	-8.14
301.275	4.34
301.49	10.45
301.704	-0.46
301.919	-5.46
302.134	-28.03
302.349	-19.13
302.564	-69.28
302.779	-76.96
302.994	-88.32
303.209	3.76
303.423	1.09
303.638	47.18
303.853	20.28
304.068	31.53
304.283	23.02
304.497	32.79
304.712	22.58
304.927	23.47
305.142	14.2
305.356	8.7
305.571	-17.62
305.786	-30.89
306	-49.81
306.215	-65.2
306.43	-70.74
306.644	-38.75
306.859	-17.14
307.074	15.86
307.288	3.12
307.503	-8.13
307.717	-13.83
307.932	-20.55
308.147	-22.4
308.361	4.55
308.576	5.64
308.79	-14.14
309.005	-1.08
309.219	11.33
309.434	8.04
309.648	9.04
309.863	13.71
310.077	27.86
310.292	24.01
310.506	18.35
310.72	17.92
310.935	24.12
311.149	18.81
311.364	29.69
311.578	37.28
311.792	38.99
312.007	27.84
312.221	10.86
312.435	2.24
312.649	-9.36
312.864	-48.15
313.078	-27.3
313.292	10.22
313.507	-17.65
313.721	-9.7
313.935	23.93
314.149	11.34
314.363	-2.8
314.578	-9.23
314.792	-10.12
315.006	-11.06
315.22	9.54
315.434	4.43
315.648	19.88
315.862	16.26
316.077	16.55
316.291	-9.77
316.505	23.55
316.719	32.56
316.933	22.5
317.147	33.23
317.361	16.81
317.575	-38.76
317.789	-60.51
318.003	-111.91
318.217	-110.33
318.431	-47.35
318.645	4.69
318.859	9.46
319.073	25.42
319.287	21.21
319.5	13.42
319.714	-5.8
319.928	-33.24
320.142	-38.96
320.356	-12.77
320.57	-14.77
320.784	-50.31
320.997	-82.01
321.211	-65.67
321.425	-75.97
321.639	-64.05
321.853	-9.99
322.066	29.59
322.28	20.2
322.494	14.69
322.707	25.84
322.921	22.56
323.135	26.61
323.349	29.32
323.562	30.12
323.776	17.11
323.989	8.78
324.203	3.01
324.417	-2
324.63	-11.46
324.844	-9.37
325.057	-1.43
325.271	-15.48
325.485	13.5
325.698	22.66
325.912	30.24
326.125	4.49
326.339	13.35
326.552	-7.31
326.766	0.23
326.979	10.1
327.193	44.73
327.406	35.34
327.619	26.38
327.833	22.82
328.046	1.42
328.26	-28.58
328.473	-16.57
328.686	-23.26
328.9	-20.18
329.113	-2.17
329.326	-2.69
329.54	3.02
329.753	-4.83
329.966	-19.1
330.179	-26.07
330.393	-7.77
330.606	-0.84
330.819	11.7
331.032	31.39
331.246	32.9
331.459	39.48
331.672	28.18
331.885	28.1
332.098	18.88
332.311	14.49
332.525	-7.75
332.738	-15.86
332.951	-10.65
333.164	1.43
333.377	17.5
333.59	37.05
333.803	54.46
334.016	54
334.229	61.05
334.442	51.33
334.655	52.21
334.868	73.6
335.081	61.86
335.294	45.43
335.507	43.03
335.72	33.32
335.933	9.93
336.146	-2.63
336.359	-6.57
336.572	-17.25
336.785	-41.21
336.997	-37.54
337.21	-10.18
337.423	-1.54
337.636	1.44
337.849	29.59
338.062	20.23
338.274	22.98
338.487	26.13
338.7	16.74
338.913	-40.49
339.125	-39.86
339.338	-77.42
339.551	-75.73
339.763	-51.06
339.976	2.38
340.189	4.23
340.402	6.49
340.614	7.81
340.827	13.93
341.039	13.6
341.252	28.89
341.465	38.6
341.677	44.88
341.89	20.8
342.102	18.96
342.315	11.07
342.527	-10.58
342.74	-18.96
342.952	4.58
343.165	-1.83
343.377	8.25
343.59	12.64
343.802	18
344.015	9.38
344.227	3.4
344.44	9.76
344.652	5.9
344.864	-4.57
345.077	24.12
345.289	34.82
345.502	26.48
345.714	34.6
345.926	40.17
346.139	30.22
346.351	22.86
346.563	29.58
346.775	23.11
346.988	12.2
347.2	9.04
347.412	-18.08
347.624	-33.94
347.837	-52.93
348.049	-29.2
348.261	-8.99
348.473	12.89
348.685	22.2
348.897	23.08
349.11	14.08
349.322	-4.8
349.534	1.19
349.746	12.3
349.958	29.17
350.17	28.37
350.382	48.33
350.594	44.77
350.806	42.94
351.018	46.04
351.23	33.32
351.442	-4.57
351.654	-22.02
351.866	-24.73
352.078	-26.65
352.29	-4.22
352.502	4.58
352.714	19.36
352.926	8.33
353.138	2.38
353.35	5.98
353.561	12.05
353.773	4.53
353.985	11.48
354.197	6.01
354.409	-4.87
354.621	-10.21
354.832	-0.97
355.044	-3.41
355.256	6.37
355.468	10.7
355.679	24.43
355.891	23.19
356.103	13.26
356.314	18.79
356.526	25.77
356.738	13.03
356.949	4.22
357.161	12.11
357.373	3.57
357.584	-4.51
357.796	-0.12
358.008	-1.17
358.219	16.11
358.431	11.89
358.642	10.56
358.854	2.28
359.065	1.93
359.277	-16.16
359.488	-16.23
359.7	-19.06
359.911	-17.68
360.123	-12.42
360.334	-15.34
360.546	-9.49
360.757	-23.67
360.969	-14.09
361.18	-5.28
361.391	-15.2
361.603	-23.86
361.814	-0.89
362.025	-13.53
362.237	-20.09
362.448	-0.31
362.659	19.57
362.871	18.55
363.082	31.09
363.293	25.88
363.504	10.46
363.716	-8.72
363.927	-7.6
364.138	-17.4
364.349	-23.33
364.56	-15.22
364.772	-9.43
364.983	5.13
365.194	-0.72
365.405	10.91
365.616	20.24
365.827	14.47
366.038	1.91
366.25	10.76
366.461	-5.07
366.672	14.54
366.883	31.78
367.094	32.94
367.305	23
367.516	29.66
367.727	12.2
367.938	1.21
368.149	-1.15
368.36	-1.9
368.571	-3.75
368.781	-16.85
368.992	-31.44
369.203	-43.46
369.414	-38.35
369.625	-45.7
369.836	-29.94
370.047	-43.73
370.258	-35.59
370.468	-32.43
370.679	-33.72
370.89	-36.26
371.101	-15.4
371.312	-19.79
371.522	-20.36
371.733	-13.68
371.944	-1.32
372.155	0.16
372.365	-2.83
372.576	-6.95
372.787	-0.65
372.997	-16.06
373.208	-25.21
373.419	-6.18
373.629	-28.17
373.84	-24.99
374.05	-23.88
374.261	-17.72
374.472	-25.29
374.682	1.64
374.893	3.65
375.103	25.19
375.314	33.76
375.524	33.16
375.735	32.99
375.945	27.71
376.156	7.4
376.366	-0.67
376.577	-9.23
376.787	-13.34
376.997	-14.2
377.208	-5.29
377.418	0.9
377.629	15.04
377.839	25.64
378.049	22.22
378.26	25.14
378.47	31.1
378.68	19.91
378.89	14.22
379.101	15.08
379.311	1.96
379.521	-25.35
379.732	-15.28
379.942	-12.64
380.152	-22.48
380.362	2.14
380.572	9.47
380.783	17.18
380.993	20.93
381.203	30.61
381.413	21.56
381.623	23.88
381.833	17.49
382.043	9.31
382.253	2.63
382.463	8.42
382.674	-1.19
382.884	-5.26
383.094	6.14
383.304	12.62
383.514	9.85
383.724	19.99
383.934	14.85
384.144	3
384.353	-7.54
384.563	-6.92
384.773	-2.37
384.983	-2.95
385.193	13.43
385.403	19.83
385.613	23.01
385.823	15.02
386.033	17.84
386.242	7.2
386.452	1.58
386.662	-7.55
386.872	5.47
387.082	-0.42
387.291	-4.45
387.501	-3.61
387.711	4.84
387.921	-4.36
388.13	1.9
388.34	12.83
388.55	9.25
388.759	8.77
388.969	10.79
389.179	8.97
389.388	4.21
389.598	11.06
389.807	4.15
390.017	0.78
390.227	1.41
390.436	0.24
390.646	-2.72
390.855	-0.22
391.065	0.95
391.274	-1.22
391.484	-1.19
391.693	1.95
391.903	4.95
392.112	7.34
392.322	6.16
392.531	8.7
392.74	7.21
392.95	3.45
393.159	-0.14
393.369	0.32
393.578	0.13
393.787	0.71
393.997	2.23
394.206	3.78
394.415	5.63
394.625	4.88
394.834	2.44
395.043	3.08
395.252	3.39
395.462	5.66
395.671	6.02
395.88	7.24
396.089	7.7
396.298	6.78
396.508	5.43
396.717	4.7
396.926	4.94
397.135	4.23
397.344	4.68
397.553	4.37
397.762	5.53
397.971	5.57
398.181	5.99
398.39	5.45
398.599	5.7
398.808	5.24
399.017	5.33
399.226	6.07
399.435	6.9
399.644	6.85
399.853	6.39
400.062	6.55
400.27	5.88
400.479	5.59
400.688	5.15
400.897	5.37
401.106	5.23
401.315	5.27
401.524	5.35
401.733	5.54
401.941	5.94
402.15	5.87
402.359	5.48
402.568	5.51
402.777	5.78
402.985	5.45
403.194	5.4
403.403	5.47
403.612	5.25
403.82	4.86
404.029	5.06
404.238	4.93
404.446	5.31
404.655	5.22
404.864	5.38
405.072	5.13
405.281	5.15
405.489	4.95
405.698	4.95
405.906	4.78
406.115	4.88
406.324	4.85
406.532	4.93
406.741	5.21
406.949	5.47
407.158	5.45
407.366	5.58
407.574	5.59
407.783	5.53
407.991	5.26
408.2	5.22
408.408	5.23
408.617	5.09
408.825	4.94
409.033	5.07
409.242	5.14
409.45	5.17
409.658	5.16
409.867	5.24
410.075	5.17
410.283	4.99
410.491	4.91
410.7	4.86
410.908	4.85
411.116	4.96
411.324	5.04
411.533	4.78
411.741	4.89
411.949	4.87
412.157	4.79
412.365	4.84
412.573	5
412.781	5.07
412.99	4.92
413.198	4.96
413.406	4.95
413.614	4.91
413.822	4.64
414.03	4.7
414.238	4.61
414.446	4.61
414.654	4.61
414.862	4.75
415.07	4.82
415.278	4.86
415.486	4.73
415.694	4.78
415.902	4.7
416.109	4.68
416.317	4.56
416.525	4.41
416.733	4.38
416.941	4.65
417.149	4.7
417.357	4.7
417.564	4.95
417.772	5.07
417.98	4.83
418.188	4.7
418.395	4.87
418.603	4.98
418.811	4.81
419.019	4.85
419.226	4.98
419.434	4.92
419.642	4.59
419.849	4.63
420.057	4.56
420.265	4.56
420.472	4.44
420.68	4.48
420.887	4.43
421.095	4.46
421.302	4.34
421.51	4.42
421.717	4.6
421.925	4.72
422.132	4.68
422.34	4.51
422.547	4.34
422.755	4.08
422.962	3.89
423.17	3.73
423.377	3.88
423.585	4.06
423.792	4.08
423.999	4.2
424.207	4.32
424.414	4.27
424.621	4.23
424.829	4.38
425.036	4.36
425.243	4.46
425.451	4.4
425.658	4.37
425.865	4.45
426.072	4.38
426.28	4.49
426.487	4.44
426.694	4.31
426.901	4.13
427.108	4.13
427.315	3.99
427.523	4.15
427.73	4.24
427.937	4.32
428.144	4.28
428.351	4.21
428.558	4.33
428.765	4.27
428.972	4.16
429.179	4.31
429.386	4.59
429.593	4.45
429.8	4.45
430.007	4.68
430.214	4.6
430.421	4.41
430.628	4.29
430.835	4.29
431.042	4.36
431.249	4.54
431.456	4.54
431.662	4.69
431.869	4.85
432.076	4.76
432.283	4.76
432.49	4.83
432.697	4.77
432.903	4.67
433.11	4.67
433.317	4.63
433.524	4.69
433.73	4.74
433.937	4.9
434.144	4.92
434.35	4.87
434.557	4.73
434.764	4.73
434.97	4.69
435.177	4.75
435.384	4.74
435.59	4.87
435.797	5.06
436.003	5.06
436.21	5.04
436.416	5.11
436.623	5.17
436.829	5.18
437.036	5.27
437.242	5.28
437.449	5.2
437.655	5.28
437.862	5.29
438.068	5.17
438.275	5.27
438.481	5.55
438.687	5.4
438.894	5.37
439.1	5.5
439.307	5.57
439.513	5.49
439.719	5.54
439.926	5.65
440.132	5.58
440.338	5.55
440.544	5.57
440.751	5.64
440.957	5.67
441.163	5.78
441.369	5.79
441.575	5.8
441.782	5.75
441.988	5.68
442.194	5.62
442.4	5.61
442.606	5.79
442.812	5.93
443.018	5.92
443.224	5.99
443.431	6.07
443.637	5.85
443.843	5.7
444.049	5.7
444.255	5.62
444.461	5.65
444.667	5.72
444.873	5.87
445.079	5.9
445.284	6.08
445.49	5.99
445.696	5.9
445.902	5.84
446.108	5.82
446.314	5.67
446.52	5.63
446.726	5.83
446.931	5.91
447.137	5.92
447.343	6.1
447.549	6.16
447.755	6.08
447.96	6.12
448.166	6.1
448.372	5.95
448.578	6
448.783	5.95
448.989	5.96
449.195	6.09
449.4	6.2
449.606	6.21
449.812	6.14
450.017	6.19
450.223	6.13
450.428	5.99
450.634	5.99
450.84	6.19
451.045	6.07
451.251	6.09
451.456	6.38
451.662	6.43
451.867	6.45
452.073	6.53
452.278	6.55
452.483	6.53
452.689	6.47
452.894	6.49
453.1	6.47
453.305	6.49
453.51	6.43
453.716	6.39
453.921	6.38
454.127	6.31
454.332	6.29
454.537	6.23
454.742	6.29
454.948	6.27
455.153	6.32
455.358	6.47
455.563	6.57
455.769	6.64
455.974	6.64
456.179	6.59
456.384	6.42
456.589	6.36
456.795	6.25
457	6.18
457.205	6.38
457.41	6.4
457.615	6.43
457.82	6.46
458.025	6.56
458.23	6.38
458.435	6.45
458.64	6.43
458.845	6.53
459.05	6.41
459.255	6.5
459.46	6.48
459.665	6.47
459.87	6.5
460.075	6.63
460.28	6.63
460.485	6.71
460.69	6.71
460.895	6.63
461.099	6.6
461.304	6.69
461.509	6.67
461.714	6.74
461.919	6.83
462.123	6.83
462.328	6.77
462.533	6.84
462.738	6.85
462.942	6.82
463.147	6.8
463.352	6.89
463.556	6.85
463.761	6.81
463.966	6.79
464.17	6.89
464.375	6.86
464.58	6.89
464.784	6.9
464.989	6.85
465.193	6.81
465.398	6.84
465.602	6.8
465.807	6.83
466.011	6.97
466.216	7.06
466.42	7.08
466.625	7.24
466.829	7.27
467.034	7.23
467.238	7.31
467.443	7.28
467.647	7.14
467.851	7.21
468.056	7.29
468.26	7.18
468.464	7.18
468.669	7.26
468.873	7.43
469.077	7.43
469.282	7.58
469.486	7.59
469.69	7.61
469.894	7.31
470.099	7.34
470.303	7.27
470.507	7.32
470.711	7.23
470.915	7.4
471.119	7.3
471.324	7.27
471.528	7.33
471.732	7.44
471.936	7.44
472.14	7.53
472.344	7.59
472.548	7.5
472.752	7.67
472.956	7.85
473.16	7.89
473.364	7.91
473.568	7.94
473.772	7.92
473.976	7.73
474.18	7.74
474.384	7.76
474.588	7.76
474.792	7.68
474.995	7.77
475.199	7.88
475.403	7.97
475.607	8.09
475.811	8.09
476.015	8.13
476.218	8.08
476.422	7.97
476.626	7.98
476.83	8.05
477.033	8.03
477.237	7.96
477.441	8.03
477.644	8.02
477.848	8.04
478.052	8.07
478.255	8.07
478.459	8.07
478.663	8.15
478.866	8.18
479.07	8.2
479.273	8.35
479.477	8.39
479.681	8.38
479.884	8.29
480.088	8.28
480.291	8.22
480.495	8.22
480.698	8.25
480.901	8.34
481.105	8.39
481.308	8.38
481.512	8.39
481.715	8.41
481.919	8.42
482.122	8.47
482.325	8.54
482.529	8.52
482.732	8.54
482.935	8.44
483.138	8.39
483.342	8.44
483.545	8.55
483.748	8.62
483.952	8.78
484.155	8.89
484.358	8.89
484.561	8.84
484.764	8.71
484.967	8.73
485.171	8.8
485.374	8.72
485.577	8.82
485.78	8.9
485.983	8.85
486.186	8.71
486.389	8.71
486.592	8.64
486.795	8.62
486.998	8.6
487.201	8.65
487.404	8.68
487.607	8.79
487.81	8.83
488.013	8.9
488.216	8.97
488.419	9.02
488.622	9
488.825	8.99
489.028	8.93
489.231	8.81
489.433	8.78
489.636	8.71
489.839	8.7
490.042	8.65
490.245	8.75
490.447	8.79
490.65	8.82
490.853	8.81
491.056	8.91
491.258	8.84
491.461	8.94
491.664	8.97
491.866	8.96
492.069	9.02
492.272	9
492.474	8.95
492.677	8.96
492.879	9.03
493.082	9.06
493.285	9.15
493.487	9.12
493.69	9.1
493.892	9.05
494.095	8.99
494.297	9.01
494.5	9.02
494.702	8.99
494.905	9.02
495.107	9.06
495.309	9.01
495.512	9.07
495.714	9.1
495.917	9.08
496.119	9.07
496.321	9.12
496.524	9.14
496.726	9.13
496.928	9.21
497.13	9.22
497.333	9.19
497.535	9.14
497.737	9.19
497.939	9.18
498.142	9.27
498.344	9.25
498.546	9.27
498.748	9.27
498.95	9.28
499.152	9.2
499.355	9.25
499.557	9.29
499.759	9.41
499.961	9.39
500.163	9.45
500.365	9.48
500.567	9.55
500.769	9.46
500.971	9.53
501.173	9.51
501.375	9.53
501.577	9.44
501.779	9.5
501.981	9.51
502.183	9.54
502.385	9.48
502.587	9.47
502.788	9.49
502.99	9.48
503.192	9.49
503.394	9.5
503.596	9.6
503.798	9.64
503.999	9.7
504.201	9.67
504.403	9.74
504.605	9.74
504.806	9.65
505.008	9.7
505.21	9.77
505.411	9.8
505.613	9.78
505.815	9.8
506.016	9.78
506.218	9.83
506.42	9.84
506.621	9.94
506.823	10.06
507.024	10.01
507.226	9.99
507.427	9.97
507.629	9.97
507.83	10
508.032	10.04
508.233	10.17
508.435	10.22
508.636	10.26
508.838	10.21
509.039	10.27
509.24	10.24
509.442	10.26
509.643	10.24
509.845	10.31
510.046	10.36
510.247	10.43
510.448	10.5
510.65	10.5
510.851	10.61
511.052	10.58
511.254	10.57
511.455	10.59
511.656	10.63
511.857	10.64
512.058	10.64
512.26	10.62
512.461	10.61
512.662	10.61
512.863	10.48
513.064	10.52
513.265	10.55
513.466	10.63
513.667	10.64
513.868	10.71
514.069	10.8
514.27	10.83
514.471	10.78
514.672	10.82
514.873	10.84
515.074	10.81
515.275	10.7
515.476	10.69
515.677	10.72
515.878	10.83
516.079	10.83
516.28	10.92
516.481	11
516.682	11.04
516.882	10.97
517.083	10.99
517.284	10.96
517.485	10.91
517.686	10.88
517.886	10.88
518.087	10.83
518.288	10.91
518.488	10.93
518.689	10.93
518.89	11.01
519.091	11.12
519.291	11.06
519.492	11.13
519.692	11.13
519.893	11.12
520.094	11.07
520.294	11.14
520.495	11.06
520.695	11.16
520.896	11.19
521.096	11.26
521.297	11.28
521.497	11.35
521.698	11.32
521.898	11.31
522.099	11.32
522.299	11.35
522.499	11.45
522.7	11.48
522.9	11.49
523.101	11.52
523.301	11.56
523.501	11.48
523.702	11.43
523.902	11.43
524.102	11.45
524.302	11.41
524.503	11.48
524.703	11.52
524.903	11.52
525.103	11.52
525.304	11.59
525.504	11.59
525.704	11.63
525.904	11.65
526.104	11.62
526.304	11.62
526.504	11.64
526.705	11.65
526.905	11.72
527.105	11.71
527.305	11.7
527.505	11.66
527.705	11.64
527.905	11.58
528.105	11.64
528.305	11.57
528.505	11.68
528.705	11.76
528.905	11.81
529.105	11.82
529.304	11.9
529.504	11.89
529.704	11.84
529.904	11.85
530.104	11.82
530.304	11.87
530.503	11.82
530.703	11.86
530.903	11.84
531.103	11.9
531.303	11.92
531.502	11.94
531.702	12.02
531.902	12.06
532.101	12.07
532.301	12.05
532.501	12.1
532.7	12.07
532.9	12.07
533.1	12.08
533.299	12.12
533.499	12.12
533.698	12.13
533.898	12.16
534.097	12.17
534.297	12.25
534.496	12.27
534.696	12.28
534.895	12.31
535.095	12.37
535.294	12.3
535.494	12.28
535.693	12.26
535.892	12.35
536.092	12.32
536.291	12.33
536.491	12.44
536.69	12.5
536.889	12.43
537.088	12.42
537.288	12.52
537.487	12.48
537.686	12.53
537.886	12.58
538.085	12.65
538.284	12.68
538.483	12.7
538.682	12.75
538.882	12.81
539.081	12.85
539.28	12.83
539.479	12.82
539.678	12.8
539.877	12.82
540.076	12.83
540.275	12.83
540.474	12.91
540.673	12.96
540.872	12.95
541.071	13
541.27	13.08
541.469	13.16
541.668	13.17
541.867	13.22
542.066	13.24
542.265	13.28
542.464	13.28
542.663	13.29
542.862	13.37
543.06	13.44
543.259	13.45
543.458	13.5
543.657	13.54
543.856	13.59
544.054	13.53
544.253	13.54
544.452	13.56
544.651	13.65
544.849	13.57
545.048	13.69
545.247	13.76
545.445	13.77
545.644	13.78
545.843	13.88
546.041	13.89
546.24	13.98
546.438	14.06
546.637	14.08
546.836	14.14
547.034	14.19
547.233	14.19
547.431	14.21
547.63	14.19
547.828	14.24
548.027	14.27
548.225	14.33
548.423	14.36
548.622	14.44
548.82	14.47
549.019	14.55
549.217	14.6
549.415	14.65
549.614	14.73
549.812	14.74
550.01	14.75
550.209	14.74
550.407	14.88
550.605	14.92
550.803	15.02
551.002	15.12
551.2	15.19
551.398	15.2
551.596	15.34
551.794	15.38
551.993	15.46
552.191	15.53
552.389	15.71
552.587	15.73
552.785	15.78
552.983	15.76
553.181	15.84
553.379	15.79
553.577	15.82
553.775	15.94
553.973	15.99
554.171	16.1
554.369	16.12
554.567	16.22
554.765	16.33
554.963	16.37
555.161	16.36
555.359	16.45
555.557	16.52
555.755	16.52
555.952	16.73
556.15	16.84
556.348	16.96
556.546	17.04
556.744	17.07
556.941	17.02
557.139	17.08
557.337	17.14
557.535	17.19
557.732	17.29
557.93	17.45
558.128	17.5
558.325	17.56
558.523	17.54
558.721	17.63
558.918	17.67
559.116	17.77
559.313	17.8
559.511	17.97
559.708	18.02
559.906	18.12
560.104	18.22
560.301	18.37
560.498	18.44
560.696	18.5
560.893	18.56
561.091	18.58
561.288	18.69
561.486	18.79
561.683	18.96
561.88	19.07
562.078	19.15
562.275	19.12
562.473	19.23
562.67	19.27
562.867	19.35
563.064	19.45
563.262	19.55
563.459	19.58
563.656	19.69
563.853	19.78
564.051	19.9
564.248	19.99
564.445	20.19
564.642	20.34
564.839	20.45
565.036	20.6
565.234	20.73
565.431	20.77
565.628	20.8
565.825	20.86
566.022	20.94
566.219	21.03
566.416	21.05
566.613	21.21
566.81	21.33
567.007	21.35
567.204	21.43
567.401	21.58
567.598	21.56
567.795	21.63
567.991	21.69
568.188	21.85
568.385	21.92
568.582	22.03
568.779	22.12
568.976	22.29
569.172	22.33
569.369	22.41
569.566	22.44
569.763	22.47
569.96	22.51
570.156	22.65
570.353	22.77
570.55	22.88
570.746	23.02
570.943	23.12
571.14	23.01
571.336	23
571.533	23.08
571.729	23.03
571.926	23.09
572.123	23.31
572.319	23.41
572.516	23.43
572.712	23.61
572.909	23.59
573.105	23.62
573.302	23.64
573.498	23.77
573.695	23.79
573.891	23.87
574.087	23.87
574.284	23.99
574.48	23.99
574.677	24.08
574.873	24.16
575.069	24.29
575.266	24.33
575.462	24.39
575.658	24.41
575.854	24.46
576.051	24.47
576.247	24.48
576.443	24.44
576.639	24.45
576.835	24.48
577.032	24.45
577.228	24.62
577.424	24.67
577.62	24.7
577.816	24.8
578.012	24.88
578.208	24.83
578.404	24.87
578.6	24.95
578.796	24.94
578.993	25.04
579.189	25.04
579.384	25.03
579.58	25.01
579.776	25.02
579.972	24.92
580.168	24.82
580.364	24.93
580.56	24.83
580.756	24.78
580.952	24.82
581.148	24.92
581.343	24.9
581.539	25.08
581.735	25.1
581.931	25.09
582.127	25.18
582.322	25.24
582.518	25.09
582.714	25.13
582.909	25.24
583.105	25.14
583.301	25.1
583.496	25.23
583.692	25.16
583.888	25.07
584.083	25.17
584.279	25.21
584.474	25.2
584.67	25.27
584.866	25.32
585.061	25.13
585.257	25.12
585.452	25.12
585.648	25.08
585.843	25.1
586.039	25.18
586.234	25.19
586.429	25.16
586.625	25.19
586.82	25.18
587.015	25.29
587.211	25.22
587.406	25.28
587.601	25.25
587.797	25.17
587.992	25.11
588.187	25.19
588.383	25.21
588.578	25.22
588.773	25.36
588.968	25.31
589.163	25.38
589.359	25.35
589.554	25.42
589.749	25.44
589.944	25.59
590.139	25.58
590.334	25.63
590.529	25.64
590.724	25.58
590.919	25.58
591.114	25.5
591.309	25.55
591.504	25.57
591.699	25.69
591.894	25.8
592.089	25.9
592.284	25.9
592.479	26.04
592.674	26.01
592.869	26.01
593.064	26.01
593.259	26.05
593.454	26.01
593.648	26.05
593.843	26.14
594.038	26.16
594.233	26.25
594.428	26.3
594.622	26.4
594.817	26.49
595.012	26.57
595.206	26.62
595.401	26.67
595.596	26.73
595.79	26.8
595.985	26.95
596.18	27.02
596.374	27.16
596.569	27.13
596.763	27.16
596.958	27.22
597.153	27.22
597.347	27.23
597.542	27.44
597.736	27.53
597.931	27.53
598.125	27.56
598.319	27.68
598.514	27.55
598.708	27.55
598.903	27.5
599.097	27.7
599.291	27.74
599.486	27.82
599.68	27.8
599.874	27.92
600.069	27.78
600.263	27.72
600.457	27.83
600.651	27.93
600.846	27.99
601.04	28
601.234	28.03
601.428	28.02
601.622	28.06
601.817	28.09
602.011	28.27
602.205	28.34
602.399	28.37
602.593	28.32
602.787	28.28
602.981	28.24
603.175	28.28
603.369	28.21
603.563	28.28
603.757	28.39
603.951	28.45
604.145	28.41
604.339	28.5
604.533	28.34
604.727	28.1
604.921	27.91
605.115	27.94
605.309	28.02
605.502	28.15
605.696	28.24
605.89	28.31
606.084	28.26
606.278	28.05
606.471	27.92
606.665	27.82
606.859	27.71
607.053	27.66
607.246	27.68
607.44	27.68
607.634	27.69
607.827	27.77
608.021	27.68
608.214	27.72
608.408	27.63
608.602	27.69
608.795	27.66
608.989	27.64
609.182	27.56
609.376	27.52
609.569	27.37
609.763	27.24
609.956	27.19
610.15	27.09
610.343	27.06
610.537	27.05
610.73	27.04
610.923	26.96
611.117	26.9
611.31	26.86
611.504	26.8
611.697	26.69
611.89	26.67
612.083	26.61
612.277	26.61
612.47	26.49
612.663	26.58
612.856	26.54
613.05	26.5
613.243	26.43
613.436	26.42
613.629	26.28
613.822	26.18
614.015	26.17
614.209	26.11
614.402	26.1
614.595	26.07
614.788	26.05
614.981	25.9
615.174	25.73
615.367	25.68
615.56	25.59
615.753	25.57
615.946	25.49
616.139	25.56
616.332	25.56
616.525	25.58
616.718	25.56
616.911	25.55
617.103	25.43
617.296	25.36
617.489	25.31
617.682	25.26
617.875	25.31
618.067	25.3
618.26	25.22
618.453	25.17
618.646	25.07
618.838	25.03
619.031	25.04
619.224	25.06
619.417	25.05
619.609	25.07
619.802	25.08
619.994	25.07
620.187	25.08
620.38	25.09
620.572	25.05
620.765	24.98
620.957	24.91
621.15	24.8
621.342	24.79
621.535	24.88
621.727	24.85
621.92	24.96
622.112	24.92
622.305	24.97
622.497	24.83
622.69	24.75
622.882	24.68
623.074	24.81
623.267	24.65
623.459	24.62
623.651	24.71
623.844	24.73
624.036	24.66
624.228	24.69
624.42	24.75
624.613	24.83
624.805	24.81
624.997	24.81
625.189	24.78
625.381	24.82
625.574	24.68
625.766	24.56
625.958	24.48
626.15	24.47
626.342	24.37
626.534	24.43
626.726	24.38
626.918	24.42
627.11	24.37
627.302	24.41
627.494	24.34
627.686	24.43
627.878	24.39
628.07	24.4
628.262	24.4
628.454	24.38
628.646	24.35
628.838	24.35
629.029	24.41
629.221	24.39
629.413	24.38
629.605	24.29
629.797	24.24
629.989	24.08
630.18	23.98
630.372	24
630.564	24.08
630.755	24.16
630.947	24.22
631.139	24.18
631.33	24.1
631.522	24.12
631.714	24
631.905	23.91
632.097	23.92
632.289	23.84
632.48	23.74
632.672	23.74
632.863	23.71
633.055	23.71
633.246	23.74
633.438	23.65
633.629	23.57
633.821	23.61
634.012	23.5
634.203	23.45
634.395	23.45
634.586	23.44
634.777	23.37
634.969	23.4
635.16	23.36
635.351	23.36
635.543	23.43
635.734	23.52
635.925	23.48
636.117	23.51
636.308	23.51
636.499	23.5
636.69	23.3
636.881	23.33
637.073	23.31
637.264	23.27
637.455	23.27
637.646	23.47
637.837	23.42
638.028	23.35
638.219	23.42
638.41	23.32
638.601	23.2
638.792	23.11
638.983	23.07
639.174	22.96
639.365	23
639.556	22.92
639.747	22.89
639.938	22.95
640.129	22.9
640.32	22.8
640.511	22.93
640.701	23.03
640.892	22.98
641.083	23.07
641.274	23.11
641.465	22.87
641.655	22.75
641.846	22.79
642.037	22.71
642.228	22.64
642.418	22.75
642.609	22.86
642.8	22.77
642.99	22.7
643.181	22.72
643.372	22.65
643.562	22.6
643.753	22.51
643.943	22.43
644.134	22.32
644.324	22.32
644.515	22.26
644.705	22.28
644.896	22.34
645.086	22.3
645.277	22.26
645.467	22.17
645.658	22.04
645.848	22
646.038	22.05
646.229	21.95
646.419	21.91
646.61	21.85
646.8	21.71
646.99	21.54
647.18	21.51
647.371	21.43
647.561	21.47
647.751	21.51
647.941	21.41
648.132	21.37
648.322	21.36
648.512	21.42
648.702	21.44
648.892	21.48
649.082	21.41
649.272	21.27
649.462	21.14
649.653	20.89
649.843	20.84
650.033	20.86
650.223	20.83
650.413	20.76
650.603	20.81
650.793	20.81
650.983	20.75
651.172	20.62
651.362	20.45
651.552	20.26
651.742	20.16
651.932	20
652.122	20.11
652.312	20.16
652.502	20.19
652.691	20.05
652.881	19.98
653.071	19.86
653.261	19.67
653.45	19.44
653.64	19.47
653.83	19.38
654.019	19.3
654.209	19.27
654.399	19.31
654.588	19.15
654.778	18.98
654.968	18.8
655.157	18.65
655.347	18.49
655.536	18.26
655.726	18.24
655.915	18.1
656.105	17.95
656.294	17.86
656.484	17.77
656.673	17.67
656.863	17.63
657.052	17.58
657.241	17.41
657.431	17.19
657.62	17.08
657.809	16.81
657.999	16.63
658.188	16.51
658.377	16.42
658.567	16.22
658.756	16.11
658.945	15.94
659.134	15.73
659.324	15.63
659.513	15.51
659.702	15.36
659.891	15.27
660.08	15.18
660.269	15.15
660.458	14.98
660.648	14.84
660.837	14.78
661.026	14.65
661.215	14.44
661.404	14.36
661.593	14.24
661.782	13.97
661.971	13.85
662.16	13.72
662.349	13.6
662.538	13.5
662.726	13.44
662.915	13.23
663.104	13.12
663.293	13.06
663.482	13.05
663.671	12.95
663.86	12.97
664.048	12.89
664.237	12.85
664.426	12.67
664.615	12.54
664.803	12.41
664.992	12.21
665.181	11.97
665.369	11.87
665.558	11.84
665.747	11.82
665.935	11.87
666.124	11.93
666.312	11.93
666.501	11.95
666.69	11.87
666.878	11.85
667.067	11.74
667.255	11.72
667.444	11.75
667.632	11.79
667.82	11.75
668.009	11.73
668.197	11.68
668.386	11.57
668.574	11.5
668.762	11.45
668.951	11.42
669.139	11.4
669.327	11.36
669.516	11.39
669.704	11.31
669.892	11.36
670.08	11.4
670.269	11.31
670.457	11.36
670.645	11.31
670.833	11.37
671.021	11.36
671.21	11.43
671.398	11.46
671.586	11.49
671.774	11.35
671.962	11.32
672.15	11.35
672.338	11.25
672.526	11.36
672.714	11.31
672.902	11.28
673.09	11.31
673.278	11.42
673.466	11.52
673.654	11.77
673.842	11.83
674.03	11.83
674.218	11.73
674.405	11.74
674.593	11.56
674.781	11.69
674.969	11.7
675.157	11.85
675.344	11.84
675.532	11.99
675.72	12.09
675.908	12.19
676.095	12.14
676.283	12.23
676.471	12.3
676.658	12.25
676.846	12.27
677.033	12.35
677.221	12.34
677.409	12.25
677.596	12.27
677.784	12.31
677.971	12.41
678.159	12.48
678.346	12.67
678.534	12.73
678.721	12.93
678.909	12.89
679.096	12.97
679.283	13.09
679.471	13.19
679.658	13.25
679.846	13.49
680.033	13.75
680.22	13.8
680.408	13.9
680.595	14.01
680.782	14.06
680.969	14.12
681.157	14.35
681.344	14.46
681.531	14.55
681.718	14.58
681.905	14.67
682.093	14.76
682.28	15.04
682.467	15.15
682.654	15.37
682.841	15.52
683.028	15.62
683.215	15.81
683.402	16.11
683.589	16.4
683.776	16.66
683.963	16.94
684.15	17.02
684.337	17.3
684.524	17.44
684.711	17.78
684.898	17.92
685.085	18.26
685.271	18.5
685.458	18.78
685.645	18.96
685.832	19.37
686.019	19.81
686.205	20.14
686.392	20.56
686.579	20.85
686.766	21.22
686.952	21.48
687.139	21.92
687.326	22.18
687.512	22.61
687.699	22.99
687.886	23.26
688.072	23.52
688.259	24.06
688.445	24.57
688.632	25.03
688.818	25.75
689.005	26.24
689.191	26.7
689.378	27.12
689.564	27.62
689.751	27.99
689.937	28.45
690.124	28.89
690.31	29.23
690.496	29.6
690.683	29.97
690.869	30.46
691.055	30.89
691.242	31.6
691.428	32.2
691.614	32.82
691.8	33.63
691.987	34.44
692.173	34.99
692.359	35.51
692.545	36.01
692.731	36.48
692.918	37.03
693.104	37.57
693.29	38.23
693.476	38.95
693.662	39.36
693.848	39.86
694.034	40.34
694.22	40.87
694.406	41.44
694.592	41.97
694.778	42.55
694.964	43.18
695.15	44.01
695.336	44.4
695.522	45.46
695.708	45.97
695.894	46.74
696.08	47.28
696.265	48.06
696.451	48.46
696.637	49.13
696.823	49.65
697.009	50
697.194	50.56
697.38	50.78
697.566	51.12
697.751	51.54
697.937	52.35
698.123	52.64
698.308	53.36
698.494	54.1
698.68	54.63
698.865	54.91
699.051	55.61
699.236	55.97
699.422	56.23
699.607	56.55
699.793	56.81
699.978	57.16
700.164	57.65
700.349	58.33
700.535	59.12
700.72	59.79
700.906	60.47
701.091	60.94
701.276	61.38
701.462	61.99
701.647	62.71
701.832	62.93
702.018	63.1
702.203	63.33
702.388	63.16
702.573	63.23
702.759	63.76
702.944	64.34
703.129	64.4
703.314	64.71
703.499	64.93
703.684	64.95
703.87	65.77
704.055	66.54
704.24	67.05
704.425	67.63
704.61	68.1
704.795	68.14
704.98	68.12
705.165	68.35
705.35	68.79
705.535	69.26
705.72	69.41
705.905	70.18
706.09	70.79
706.275	70.78
706.459	70.75
706.644	71.02
706.829	71.17
707.014	70.78
707.199	70.82
707.384	71.23
707.568	71.28
707.753	71.44
707.938	72.11
708.123	72.71
708.307	72.92
708.492	72.84
708.677	73.02
708.861	72.91
709.046	72.84
709.231	73.25
709.415	74.12
709.6	73.92
709.784	73.95
709.969	74.15
710.153	74.19
710.338	74.24
710.522	74.98
710.707	75.96
710.891	76.45
711.076	76.57
711.26	76.38
711.445	76.18
711.629	75.92
711.813	76.09
711.998	76.33
712.182	76.77
712.366	77.47
712.551	77.96
712.735	77.99
712.919	78.04
713.103	77.95
713.288	78.02
713.472	77.81
713.656	78.1
713.84	78.1
714.024	78.4
714.208	78.05
714.393	78.42
714.577	78.25
714.761	78.3
714.945	78.37
715.129	78.78
715.313	79.15
715.497	79.33
715.681	80.09
715.865	80.16
716.049	80.22
716.233	79.87
716.417	79.88
716.601	79.55
716.785	80.06
716.968	80.43
717.152	80.44
717.336	80.83
717.52	80.6
717.704	80.54
717.888	80.61
718.071	80.76
718.255	80.71
718.439	80.73
718.622	80.64
718.806	80.34
718.99	80.32
719.174	80.23
719.357	81.05
719.541	81.2
719.724	81.47
719.908	81.96
720.092	82.27
720.275	82.38
720.459	82.34
720.642	82.19
720.826	81.99
721.009	81.83
721.193	81.47
721.376	81.85
721.559	82.12
721.743	82.19
721.926	82.59
722.11	82.86
722.293	82.54
722.476	82.52
722.66	82.73
722.843	82.51
723.026	82.13
723.21	82.45
723.393	82.93
723.576	82.79
723.759	82.77
723.942	83.35
724.126	83.23
724.309	83.22
724.492	84.02
724.675	84.17
724.858	84.38
725.041	84.76
725.224	85.09
725.407	84.77
725.59	85.57
725.774	85.07
725.957	85.23
726.14	85.23
726.322	85.01
726.505	84.55
726.688	85.34
726.871	84.64
727.054	84.69
727.237	84.68
727.42	84.8
727.603	84.24
727.786	85.11
727.968	84.78
728.151	85.42
728.334	85.08
728.517	85.77
728.699	85.95
728.882	85.65
729.065	85.89
729.248	86.43
729.43	86.36
729.613	86.31
729.796	87
729.978	86.66
730.161	86.84
730.343	86.16
730.526	86.79
730.708	86.8
730.891	86.65
731.073	86.11
731.256	86.3
731.438	85.96
731.621	86.08
731.803	86.33
731.986	86.65
732.168	86.37
732.35	86.46
732.533	86.78
732.715	86.66
732.898	86.94
733.08	87.73
733.262	87.75
733.444	87.28
733.627	87.7
733.809	87.61
733.991	87.67
734.173	87.44
734.355	87.46
734.538	87.66
734.72	87.94
734.902	87.9
735.084	88.25
735.266	88.3
735.448	88.28
735.63	87.85
735.812	88.18
735.994	88.28
736.176	88.83
736.358	88.21
736.54	89.24
736.722	88.8
736.904	88.3
737.086	88.11
737.268	88.83
737.45	88.52
737.632	88.53
737.814	88.58
737.995	88.27
738.177	87.86
738.359	87.11
738.541	87.83
738.723	88.69
738.904	90.04
739.086	91.02
739.268	91.69
739.449	91.61
739.631	90.48
739.813	89.9
739.994	89.79
740.176	89.71
740.358	89.84
740.539	90.68
740.721	90.89
740.902	90.91
741.084	90.94
741.265	90.85
741.447	90.91
741.628	90.82
741.81	90.61
741.991	91.24
742.172	92.2
742.354	92.18
742.535	91.87
742.717	92.62
742.898	92.64
743.079	92.39
743.261	92.63
743.442	91.93
743.623	91.56
743.804	91.26
743.986	91.08
744.167	90.43
744.348	91.47
744.529	92.02
744.71	91.8
744.891	91.97
745.073	91.8
745.254	91.26
745.435	90.17
745.616	89.81
745.797	88.97
745.978	89.87
746.159	89.98
746.34	89.78
746.521	91.15
746.702	90.49
746.883	90.85
747.064	90.75
747.245	91.32
747.426	90.67
747.606	91.23
747.787	90.79
747.968	90.55
748.149	90.5
748.33	90.79
748.51	91.12
748.691	89.94
748.872	90.57
749.053	90.11
749.233	89.45
749.414	89.14
749.595	89.66
749.775	89.09
749.956	89.76
750.137	90.08
750.317	90.28
750.498	91.2
750.678	91.56
750.859	91.28
751.04	91.63
751.22	90.22
751.4	89.47
751.581	88.74
751.761	88.73
751.942	89.11
752.122	89.97
752.303	89.63
752.483	90.29
752.663	91.02
752.844	89.63
753.024	91.06
753.204	92.55
753.385	91.72
753.565	90.62
753.745	91.31
753.925	89.68
754.106	88.01
754.286	87.86
754.466	88.55
754.646	87.9
754.826	88.27
755.006	88.02
755.187	88.53
755.367	88.46
755.547	88.97
755.727	89.67
755.907	91.57
756.087	92.06
756.267	90.61
756.447	90.46
756.627	89
756.807	88.46
756.987	87.9
757.167	88.54
757.346	89.82
757.526	90.05
757.706	89.9
757.886	91.68
758.066	92.42
758.246	91.46
758.425	91.39
758.605	91.57
758.785	90.29
758.965	90.71
759.144	89.9
759.324	91.54
759.504	91.21
759.683	92.7
759.863	91.24
760.043	91.95
760.222	91.47
760.402	91.69
760.581	89.1
760.761	89.73
760.94	88.83
761.12	89.22
761.299	88.72
761.479	89.25
761.658	89.15
761.838	89.92
762.017	90.15
762.197	90.45
762.376	91.34
762.555	91.93
762.735	91.93
762.914	89.74
763.093	88.95
763.273	87.83
763.452	86.29
763.631	87.01
763.81	87.72
763.99	88.12
764.169	88.79
764.348	87.69
764.527	85.76
764.706	85.96
764.885	85.86
765.064	86
765.243	88.69
765.423	91.12
765.602	90.3
765.781	89.62
765.96	87.65
766.139	87.25
766.318	85.64
766.497	85.8
766.676	85.67
766.854	87.2
767.033	86.71
767.212	87.03
767.391	88.22
767.57	90.78
767.749	91.68
767.928	92.83
768.106	93.01
768.285	90.77
768.464	89
768.643	87.38
768.821	86.49
769	86.17
769.179	87.18
769.357	85.98
769.536	86.68
769.715	87.71
769.893	88.63
770.072	88.06
770.25	89.53
770.429	89.85
770.607	88.06
770.786	88.32
770.964	88.79
771.143	89.42
771.321	91.12
771.5	91.69
771.678	90.32
771.857	90.28
772.035	87.69
772.213	86
772.392	84.82
772.57	85.59
772.748	85.51
772.927	85.76
773.105	83.85
773.283	86.02
773.461	85.3
773.64	86.05
773.818	87.7
773.996	89.87
774.174	87.44
774.352	87.37
774.531	86.76
774.709	87.27
774.887	85.05
775.065	84.96
775.243	84.61
775.421	84.18
775.599	84.74
775.777	84.68
775.955	83.49
776.133	81.81
776.311	84.3
776.489	81.89
776.667	83.04
776.844	83.76
777.022	85.15
777.2	82.3
777.378	84.12
777.556	84.55
777.734	87.2
777.911	89.34
778.089	89.79
778.267	89.49
778.445	89.35
778.622	88.43
778.8	85.41
778.978	86.41
779.155	86.06
779.333	85.99
779.511	86.82
779.688	87.11
779.866	85.83
780.043	83.94
780.221	84.87
780.398	84.12
780.576	85.03
780.753	85.34
780.931	84.87
781.108	84.21
781.286	83.6
781.463	81.87
781.64	80.61
781.818	80.99
781.995	81.03
782.172	82.91
782.35	86.04
782.527	88.41
782.704	88.26
782.882	88.9
783.059	86.74
783.236	85.96
783.413	87.6
783.59	88.83
783.768	85.71
783.945	88.03
784.122	85.5
784.299	83.84
784.476	83.2
784.653	83.78
784.83	82.05
785.007	82.74
785.184	82.59
785.361	81.16
785.538	84.95
785.715	86.93
785.892	88.74
786.069	89.21
786.246	90.16
786.423	89.94
786.6	88.25
786.776	86.17
786.953	85.97
787.13	89.39
787.307	85.96
787.484	83.93
787.66	85.08
787.837	86.82
788.014	82.46
788.191	80.41
788.367	80.43
788.544	79.2
788.721	76.71
788.897	79.97
789.074	84.17
789.25	84.89
789.427	88.91
789.603	89.26
789.78	91.28
789.956	92.54
790.133	91.79
790.309	87.65
790.486	87.17
790.662	81.06
790.839	78.07
791.015	76.33
791.192	76.94
791.368	78.66
791.544	79.56
791.721	80.09
791.897	86.13
792.073	84.05
792.249	78.17
792.426	79.93
792.602	82.17
792.778	79.54
792.954	82.69
793.13	84.66
793.307	78.88
793.483	72.94
793.659	72.6
793.835	74.66
794.011	74.75
794.187	78.17
794.363	80.03
794.539	80.57
794.715	75.73
794.891	74.74
795.067	75.06
795.243	80.86
795.419	81.4
795.595	81.7
795.771	84.26
795.947	85.64
796.122	82.21
796.298	83.41
796.474	86.97
796.65	85.5
796.826	86.03
797.001	80.25
797.177	79.82
797.353	74.82
797.529	75.75
797.704	75.61
797.88	80.37
798.056	75.67
798.231	78.42
798.407	77.29
798.582	79.42
798.758	80.61
798.934	87.13
799.109	86.41
799.285	87.12
799.46	82.68
799.636	86.29
799.811	84.93
799.986	83.52
800.162	83.75
800.337	85.45
800.513	74.37
800.688	71.8
800.863	81.5
801.039	81
801.214	79.61
801.389	88.83
801.565	87.98
801.74	73.41
801.915	81.51
802.09	82.3
802.265	74.38
802.441	72.09
802.616	76.5
802.791	73.54
802.966	76.36
803.141	81.36
803.316	83.39
803.491	86.53
803.666	88.25
803.841	88.67
804.016	86.83
804.191	91.1
804.366	87.08
804.541	83.21
804.716	78.4
804.891	81.19
805.066	76.69
805.241	71.71
805.416	69.81
805.591	68.79
805.765	72.2
805.94	72.92
806.115	76.02
806.29	76.9
806.464	77.95
806.639	71.58
806.814	70.94
806.989	72.45
807.163	73.08
807.338	73.42
807.512	72.08
807.687	65.07
807.862	66.01
808.036	62.27
808.211	64.29
808.385	71.99
808.56	82.3
808.734	89.5
808.909	94.15
809.083	99.49
809.258	98.76
809.432	100.2
809.606	87.34
809.781	80.85
809.955	77.28
810.13	70.81
810.304	65.24
810.478	67.9
810.652	74.55
810.827	75.07
811.001	74.27
811.175	65.19
811.349	64.68
811.524	62.21
811.698	50.71
811.872	57.33
812.046	71.58
812.22	71.36
812.394	69.57
812.568	83.87
812.742	86.36
812.916	78.17
813.09	80.16
813.264	80.47
813.438	74.73
813.612	68.21
813.786	67.52
813.96	74.3
814.134	82.22
814.308	88.53
814.482	89.13
814.656	86.32
814.83	73.07
815.003	73.75
815.177	63.43
815.351	61.47
815.525	62.84
815.698	69.97
815.872	60.7
816.046	57.4
816.219	68.83
816.393	78.88
816.567	85.8
816.74	85.13
816.914	90.91
817.088	89.01
817.261	81.31
817.435	72.35
817.608	71.97
817.782	65.03
817.955	65.69
818.129	62.88
818.302	66.35
818.475	72.81
818.649	79.65
818.822	67.88
818.996	81.68
819.169	86.4
819.342	85.05
819.516	89.66
819.689	95.97
819.862	91.48
820.035	80.61
820.209	74.09
820.382	72.81
820.555	68.39
820.728	59.81
820.901	58.6
821.075	63.95
821.248	61.58
821.421	65.51
821.594	53.89
821.767	66.67
821.94	65.22
822.113	47.55
822.286	43.2
822.459	51.89
822.632	44.6
822.805	37.89
822.978	44.64
823.151	45.94
823.324	44.87
823.496	36.91
823.669	45.43
823.842	58.76
824.015	63.74
824.188	65.97
824.361	91.07
824.533	87.15
824.706	76.41
824.879	73.03
825.051	73.51
825.224	52.67
825.397	56.99
825.569	55.43
825.742	61.15
825.915	76.21
826.087	93.54
826.26	65.53
826.432	63.55
826.605	48.99
826.777	45.37
826.95	45.66
827.122	46.29
827.295	49.69
827.467	63.73
827.64	47.02
827.812	41.28
827.984	40.71
828.157	58.83
828.329	38.03
828.501	49.64
828.674	70.98
828.846	65.64
829.018	62.48
829.19	49.27
829.363	62.54
829.535	55.71
829.707	70.21
829.879	62.97
830.051	95.61
830.223	88.3
830.395	82.17
830.568	60.41
830.74	58.97
830.912	50.71
831.084	29.52
831.256	26.39
831.428	22.12
831.6	4.34
831.772	-18.31
831.943	-19.4
832.115	12.74
832.287	43.9
832.459	52.96
832.631	70.2
832.803	93.27
832.975	104.2
833.146	88.34
833.318	87.46
833.49	89.02
833.662	62.25
833.833	32.65
834.005	32.28
834.177	43.56
834.348	38.62
834.52	58.66
834.692	70.26
834.863	60.67
835.035	47.11
835.206	27.81
835.378	30.35
835.549	33.49
835.721	44.1
835.892	31.82
836.064	37.29
836.235	39.88
836.407	26.94
836.578	14.22
836.749	18.23
836.921	15.35
837.092	-27.28
837.264	-4.67
837.435	-11.18
837.606	23.18
837.777	42.86
837.949	50.83
838.12	49.1
838.291	64.55
838.462	46.27
838.633	26.09
838.805	31.61
838.976	52.64
839.147	47.53
839.318	45.52
839.489	23.71
839.66	19.31
839.831	24.51
840.002	37.22
840.173	40.55
840.344	106.42
840.515	183.05
840.686	221.73
840.857	119.4
841.028	102.84
841.199	59.11
841.369	23.4
841.54	3.67
841.711	30.59
841.882	51.86
842.053	28.32
842.223	29.31
842.394	51.91
842.565	49.48
842.736	34.68
842.906	49.7
843.077	67.86
843.248	75.83
843.418	68.44
843.589	82.99
843.759	119.98
843.93	72.99
844.101	52.98
844.271	33.88
844.442	8.08
844.612	19.22
844.783	0.03
844.953	-35.48
845.123	-35.37
845.294	17.31
845.464	-70.6
845.635	33.07
845.805	71.19
845.975	61.44
846.146	42.31
846.316	20.89
846.486	19.06
846.656	38.5
846.827	36.68
846.997	27.76
847.167	36.56
847.337	21.42
847.507	-17.83
847.677	-6.64
847.848	45.39
848.018	42.02
848.188	55.34
848.358	57.29
848.528	49.43
848.698	34.55
848.868	5.03
849.038	-33.93
849.208	6.9
849.378	36.65
849.548	31.39
849.718	51.45
849.887	43.11
850.057	30.06
850.227	14.15
850.397	-6.87
850.567	-54.13
850.737	-37.61
850.906	34.38
851.076	94.14
851.246	248.43
851.415	111.52
851.585	87.75
851.755	75.68
851.924	74.12
852.094	39.35
852.264	27.99
852.433	-313.94
852.603	-9.53
852.772	47.27
852.942	55.11
853.111	46.74
853.281	59.07
853.45	63.77
853.62	24.52
853.789	19.65
853.959	16.7
854.128	41.38
854.297	7.38
854.467	-8.9
854.636	-7.61
854.805	47.37
854.975	-16.69
855.144	-13.84
855.313	-33.22
855.482	-126.64
855.652	-159.33
855.821	-46.08
855.99	16.44
856.159	36.81
856.328	45.08
856.497	43.46
856.667	42.22
856.836	48.25
857.005	28.77
857.174	-1.32
857.343	-13.54
857.512	36.56
857.681	-16
857.85	-35.95
858.019	-3.35
858.188	-1.37
858.356	-23.27
858.525	-30.72
858.694	-4.32
858.863	-9.92
859.032	32.27
859.201	43.09
859.369	78.95
859.538	75.43
859.707	13.46
859.876	-3.76
860.044	6.22
860.213	28.28
860.382	-6.31
860.55	15.99
860.719	41.58
860.888	27.31
861.056	5.47
861.225	12.97
861.393	28.1
861.562	10.66
861.73	-25.68
861.899	-67.28
862.067	-650
862.236	-25.47
862.404	-148.56
862.572	-36.5
862.741	-2.82
862.909	9.01
863.078	4.2
863.246	35.15
863.414	19.47
863.582	-5.08
863.751	-26.4
863.919	-47.05
864.087	-70.11
864.255	-73.43
864.424	-217.33
864.592	-13.34
864.76	-60.81
864.928	-102.8
865.096	-51.43
865.264	-26.55
865.432	-803.41
865.6	-68.75
865.768	-76.81
865.936	-90.84
866.104	-153.56
866.272	-201.41
866.44	-329.33
866.608	435.05
866.776	235.29
866.944	1617.44
867.112	-317.58
867.28	-90.7
867.448	-40.58
867.615	8.22
867.783	6.89
867.951	-1.84
868.119	9.82
868.286	17.23
868.454	12
868.622	61.69
868.789	161.47
868.957	3067.86
869.125	806.58
869.292	90.79
869.46	33.91
869.627	72.04
869.795	38.89
869.963	28.25
870.13	33.4
870.298	52.64
870.465	20.84
870.632	6.52
870.8	34.76
870.967	33.93
871.135	-21.42
871.302	-54.13
871.469	-68.25
871.637	-83.1
871.804	-77.58
871.971	-92.39
872.139	-295.58
872.306	3.04
872.473	-19.18
872.64	-48.71
872.807	61.53
872.975	95.66
873.142	-15.09
873.309	428.38
873.476	39.83
873.643	81.32
873.81	33.12
873.977	68.59
874.144	84.1
874.311	26.94
874.478	-48.22
874.645	-49.74
874.812	-23.28
874.979	0.07
875.146	-12.99
875.313	-24.46
875.48	34.93
875.647	12.11
875.813	-33.58
875.98	-1.07
876.147	1.66
876.314	-38.82
876.481	416.12
876.647	-387.08
876.814	110.1
876.981	155.96
877.147	68.76
877.314	49.64
877.481	71.76
877.647	37.74
877.814	-5.05
877.98	-53.31
878.147	-15.85
878.314	25.6
878.48	41.82
878.647	60.56
878.813	92.6
878.979	97.68
879.146	68.08
879.312	44.81
879.479	55.9
879.645	12.87
879.811	-85.96
879.978	-377.48
880.144	-28.51
880.31	-17.71
880.477	-130.24
880.643	-128.7
880.809	-10.68
880.975	-70.56
881.142	-703.18
881.308	-51.46
881.474	-19.27
881.64	-34.85
881.806	60.67
881.972	81.48
882.138	74.95
882.304	84.01
882.47	58.22
882.636	-139.75
882.802	2.07
882.968	23.84
883.134	27.96
883.3	-16.8
883.466	24.33
883.632	30.17
883.798	33.64
883.964	20.59
884.129	67.44
884.295	58.64
884.461	60.29
884.627	47.26
884.793	42.17
884.958	22.98
885.124	-38.02
885.29	-141.91
885.455	-311.41
885.621	-59.46
885.787	-90.87
885.952	-37.48
886.118	-44.85
886.283	-40.58
886.449	-125
886.614	-126.88
886.78	-219.04
886.945	800.82
887.111	-301.45
887.276	-120.74
887.442	-305
887.607	-83.25
887.773	-62.9
887.938	-60.18
888.103	-171.67
888.269	-10.69
888.434	-140.81
888.599	-56.04
888.764	-9.28
888.93	-17.97
889.095	-88.45
889.26	-99.36
889.425	-73.55
889.59	-52.46
889.756	-2.05
889.921	66.29
890.086	97.3
890.251	69.35
890.416	-67.16
890.581	-618.55
890.746	96.25
890.911	121.97
891.076	90.13
891.241	22.76
891.406	33.49
891.571	-56.75
891.736	-166.28
891.901	-320.8
892.065	240.11
892.23	57.61
892.395	99.12
892.56	174.13
892.725	-231.64
892.889	-1052.44
893.054	-175.87
893.219	-8.39
893.384	29.78
893.548	43.67
893.713	44.58
893.878	65.65
