Data from Ofra_2a_PS_8HS24_Reflection_1.txt Node
Date: Tue Jul 20 09:57:30 EDT 2021
User: Adam
Spectrometer: FLMT01687
Trigger mode: 0
Integration Time (sec): 9.450000E-1
Scans to average: 3
Electric dark correction enabled: true
Nonlinearity correction enabled: false
Boxcar width: 3
XAxis mode: Wavelengths
Number of Pixels in Spectrum: 3648
>>>>>Begin Spectral Data<<<<<
179.494	1297.04
179.716	801.58
179.937	883.52
180.158	3178.91
180.38	-1280.81
180.601	-268.96
180.823	-32.19
181.044	142.03
181.265	137.56
181.486	117.64
181.708	493.48
181.929	3.95
182.15	-178.41
182.372	119.31
182.593	259.08
182.814	-199.7
183.035	-72.11
183.257	2.74
183.478	8.62
183.699	16.16
183.92	26.21
184.141	34.09
184.363	27.65
184.584	11.31
184.805	15.68
185.026	-5.9
185.247	-3.52
185.468	9.26
185.689	19.49
185.91	29.24
186.132	37.53
186.353	18.28
186.574	30.88
186.795	23.44
187.016	19.71
187.237	15.29
187.458	-12.23
187.679	-25
187.9	2.94
188.121	-10.81
188.342	15.91
188.563	16.65
188.784	20.93
189.005	34.91
189.226	31.88
189.447	25.43
189.667	18.91
189.888	22.77
190.109	20.35
190.33	4.64
190.551	6.69
190.772	11.73
190.993	17.84
191.214	22.56
191.434	13.3
191.655	16.56
191.876	34.32
192.097	29.06
192.318	33.63
192.538	35.47
192.759	45.48
192.98	40.96
193.201	43.53
193.421	43.13
193.642	42.56
193.863	39.78
194.083	34.1
194.304	1.87
194.525	25.81
194.745	-0.83
194.966	-12.54
195.187	-5.7
195.407	-5.23
195.628	-4.85
195.848	0.71
196.069	2.19
196.29	6.25
196.51	8.67
196.731	20.18
196.951	12.5
197.172	12.46
197.392	20.25
197.613	10.54
197.833	20.94
198.054	13.78
198.274	-13.12
198.495	7.39
198.715	-12.87
198.936	-22.32
199.156	-7.48
199.377	-3.22
199.597	11.97
199.817	36.46
200.038	10.51
200.258	21.71
200.479	18.24
200.699	13.91
200.919	-10.37
201.14	-15.62
201.36	-19.35
201.58	-7.96
201.801	-1.17
202.021	2.96
202.241	0.91
202.461	18.37
202.682	26.26
202.902	28.53
203.122	33.94
203.342	45.96
203.563	40.88
203.783	36.62
204.003	31.26
204.223	37.43
204.443	33.27
204.663	31.92
204.884	21.88
205.104	24.13
205.324	31.23
205.544	38.42
205.764	31.94
205.984	22.27
206.204	16.01
206.424	21.04
206.644	29.07
206.864	27.3
207.084	38.78
207.304	25.71
207.525	22.48
207.745	33.37
207.964	34.21
208.184	9.05
208.404	10.76
208.624	-8.59
208.844	-5.1
209.064	19.72
209.284	21.03
209.504	16.69
209.724	7.89
209.944	3.8
210.164	6.23
210.384	11.37
210.604	-14.03
210.823	-23.14
211.043	-11.58
211.263	18.42
211.483	20.23
211.703	31.53
211.922	35.83
212.142	40.31
212.362	44.19
212.582	36.52
212.801	28
213.021	24.04
213.241	0.1
213.461	1.69
213.68	-10.1
213.9	-5.8
214.12	-14.57
214.339	-17.56
214.559	-8.54
214.779	-0.02
214.998	-12.97
215.218	-9.44
215.438	-7.14
215.657	11.87
215.877	19.61
216.096	17.17
216.316	14.9
216.535	23.88
216.755	21.7
216.974	20.56
217.194	6.81
217.413	28.58
217.633	13.21
217.852	11.01
218.072	10.26
218.291	24.32
218.511	17.84
218.73	7.36
218.95	-5.73
219.169	-2.9
219.389	-3.31
219.608	8.45
219.827	-0.38
220.047	22.17
220.266	36.33
220.485	22.92
220.705	16.07
220.924	25.21
221.143	5.41
221.363	-9.55
221.582	-19.46
221.801	-19.27
222.021	-13.76
222.24	-16.32
222.459	-25.87
222.678	-29.66
222.897	-19.08
223.117	-4.73
223.336	-5.27
223.555	-14.31
223.774	1.13
223.993	15.1
224.213	16.99
224.432	24.96
224.651	13.91
224.87	15.06
225.089	22.41
225.308	22.91
225.527	29.36
225.746	27.71
225.965	21.35
226.184	20.45
226.404	2.36
226.623	4.43
226.842	3.54
227.061	10.1
227.28	25.83
227.499	35.07
227.718	31.91
227.936	32.23
228.155	32.28
228.374	34.18
228.593	24.06
228.812	17.79
229.031	0.44
229.25	11.71
229.469	24.06
229.688	26.97
229.907	26.15
230.125	25.26
230.344	34.92
230.563	47.63
230.782	36.61
231.001	31.99
231.22	24.49
231.438	22.76
231.657	23.92
231.876	13.5
232.095	2.92
232.313	6.67
232.532	5.62
232.751	17.92
232.969	25.62
233.188	23.12
233.407	22.88
233.625	19.35
233.844	21.51
234.063	29.04
234.281	11.98
234.5	10.12
234.719	6.18
234.937	11.78
235.156	9.88
235.374	10.19
235.593	2.63
235.811	3.23
236.03	-15.32
236.249	-9.28
236.467	-8.29
236.686	9.13
236.904	8.45
237.123	18.11
237.341	27.23
237.559	29.94
237.778	36.46
237.996	38.85
238.215	36.9
238.433	40.06
238.652	31.37
238.87	25.84
239.088	24.99
239.307	17.68
239.525	4.78
239.743	-3.54
239.962	-7.86
240.18	3.53
240.398	4.76
240.617	13.48
240.835	19.06
241.053	39.95
241.271	45.32
241.49	29.48
241.708	25.06
241.926	10.4
242.144	9.19
242.363	0.58
242.581	-6.55
242.799	-19.49
243.017	-5.12
243.235	-9.22
243.453	14.86
243.672	10.78
243.89	26.58
244.108	31.66
244.326	34.14
244.544	47.63
244.762	44.33
244.98	34.15
245.198	30.03
245.416	24.97
245.634	30.07
245.852	39.07
246.07	22.35
246.288	14.88
246.506	26.31
246.724	38.44
246.942	34.35
247.16	25.04
247.378	9.3
247.596	20.62
247.814	15.89
248.032	-4.97
248.25	-7.63
248.468	5.48
248.685	19.9
248.903	26.89
249.121	25.59
249.339	28.7
249.557	43.51
249.775	23.77
249.992	11.27
250.21	-8.28
250.428	-11.46
250.646	-16.7
250.863	-14.1
251.081	-26.31
251.299	-7.85
251.517	1.35
251.734	1.45
251.952	24.32
252.17	21.26
252.387	26.6
252.605	34.23
252.823	27.55
253.04	5.2
253.258	13.21
253.475	-0.13
253.693	12.27
253.911	10.11
254.128	12.84
254.346	2.86
254.563	6.21
254.781	9.49
254.998	13.11
255.216	14.48
255.433	16.96
255.651	9.35
255.868	35.04
256.086	44.78
256.303	42.23
256.521	38.41
256.738	38.25
256.956	29.16
257.173	34.04
257.39	31.12
257.608	24.75
257.825	20.76
258.043	23.66
258.26	20.83
258.477	24.83
258.695	23.15
258.912	28.82
259.129	20.16
259.346	21.09
259.564	19.97
259.781	24.67
259.998	21.76
260.216	25.58
260.433	17.25
260.65	23.35
260.867	12.53
261.084	19.04
261.302	6.48
261.519	-6.46
261.736	-14.49
261.953	-16.86
262.17	-1.8
262.387	11.01
262.604	-7.64
262.822	11.19
263.039	19.36
263.256	18.94
263.473	9.57
263.69	2.99
263.907	10.44
264.124	14.3
264.341	3.21
264.558	3.54
264.775	11.45
264.992	21.42
265.209	28.56
265.426	23.23
265.643	22.77
265.86	20.52
266.077	24.38
266.294	21.04
266.51	16.8
266.727	-3.29
266.944	-20.41
267.161	-18.14
267.378	-14.28
267.595	-20.21
267.812	-18.52
268.028	-15.63
268.245	3.99
268.462	8.72
268.679	4.16
268.896	0.07
269.112	6.69
269.329	11.34
269.546	20.98
269.763	22.95
269.979	22.16
270.196	26.28
270.413	31.84
270.629	26.5
270.846	23.19
271.063	16.01
271.279	9.22
271.496	3.79
271.712	1.67
271.929	1.35
272.146	11.42
272.362	3.96
272.579	-10.99
272.795	-11.77
273.012	-8.11
273.228	-1.44
273.445	-7.29
273.661	-12.76
273.878	-11.4
274.094	2.33
274.311	3.53
274.527	10.22
274.744	2.71
274.96	5.41
275.177	13.51
275.393	22.87
275.609	30.52
275.826	34.64
276.042	50.44
276.259	53.57
276.475	56.72
276.691	48.39
276.908	38.26
277.124	33.5
277.34	31.78
277.557	15.5
277.773	15.13
277.989	9.58
278.205	5.92
278.422	17.88
278.638	27.1
278.854	25.5
279.07	19.55
279.286	10.75
279.503	12.1
279.719	24.12
279.935	15.37
280.151	9.28
280.367	3.58
280.583	9.2
280.799	23.61
281.016	23.43
281.232	15.75
281.448	8.24
281.664	-0.75
281.88	7.65
282.096	2.04
282.312	-7.48
282.528	-10.83
282.744	-6.84
282.96	3.26
283.176	17.25
283.392	14.97
283.608	29.8
283.824	18.82
284.04	23.85
284.256	19.12
284.471	24.48
284.687	18.13
284.903	17.66
285.119	1.35
285.335	7.92
285.551	18.08
285.767	26.57
285.982	23.92
286.198	24.08
286.414	27.55
286.63	38.87
286.846	31.97
287.061	22.79
287.277	21.26
287.493	13.53
287.709	4.68
287.924	8.44
288.14	16.26
288.356	31.61
288.571	29.73
288.787	26.77
289.003	39.54
289.218	48.18
289.434	48.65
289.65	40.92
289.865	29.02
290.081	25.69
290.296	27.64
290.512	22.84
290.727	25.67
290.943	23.83
291.159	20.73
291.374	35.38
291.59	34.24
291.805	37.25
292.021	31.81
292.236	18.1
292.451	20.76
292.667	18.55
292.882	11.16
293.098	10.68
293.313	3.06
293.529	10.29
293.744	14.08
293.959	11.63
294.175	14.19
294.39	15.3
294.605	22.27
294.821	20.23
295.036	17.2
295.251	18.91
295.467	9.79
295.682	11.92
295.897	4.33
296.112	8.13
296.328	11.68
296.543	11.32
296.758	11.58
296.973	16.77
297.188	14.51
297.404	19.1
297.619	15.31
297.834	19.22
298.049	15.6
298.264	8.62
298.479	9.3
298.694	12.06
298.909	14.93
299.125	15.56
299.34	10.48
299.555	21.74
299.77	21.85
299.985	13.11
300.2	13.67
300.415	20.11
300.63	14.43
300.845	22.32
301.06	10.25
301.275	17.95
301.49	26.6
301.704	20.57
301.919	9.78
302.134	6.36
302.349	-4.88
302.564	-3.39
302.779	-4.27
302.994	-12.9
303.209	-15.52
303.423	-3.9
303.638	-1.66
303.853	13.44
304.068	23.15
304.283	27.45
304.497	26.39
304.712	39.17
304.927	36.53
305.142	39.92
305.356	39.48
305.571	41.56
305.786	30.35
306	42.98
306.215	31.19
306.43	33.43
306.644	27.53
306.859	25.17
307.074	16.16
307.288	26.33
307.503	18.04
307.717	15.39
307.932	12.16
308.147	18.93
308.361	15.83
308.576	12.92
308.79	12.3
309.005	12.73
309.219	14.45
309.434	10.25
309.648	-1.32
309.863	4.55
310.077	3.52
310.292	-0.79
310.506	10.49
310.72	14.62
310.935	23.39
311.149	24.51
311.364	24.62
311.578	16.74
311.792	11.31
312.007	1.14
312.221	2.17
312.435	-2.35
312.649	7.03
312.864	-2.76
313.078	27.89
313.292	41.17
313.507	58.17
313.721	63.07
313.935	67.76
314.149	42.58
314.363	45.58
314.578	57.17
314.792	54.75
315.006	41.91
315.22	38.53
315.434	28
315.648	28.02
315.862	31.91
316.077	17.97
316.291	16.21
316.505	17.94
316.719	6.4
316.933	18.88
317.147	14.33
317.361	17.47
317.575	6.25
317.789	8.32
318.003	12.5
318.217	30.38
318.431	22.94
318.645	26.19
318.859	9.2
319.073	9.79
319.287	10.4
319.5	7.98
319.714	-2.84
319.928	2.21
320.142	4.65
320.356	21.43
320.57	20.37
320.784	20.75
320.997	26.34
321.211	33.81
321.425	23.11
321.639	25.49
321.853	16.34
322.066	16.6
322.28	12.53
322.494	7.51
322.707	2.89
322.921	7.27
323.135	4.98
323.349	11.19
323.562	14.79
323.776	18.49
323.989	15.11
324.203	21.18
324.417	17.74
324.63	8.91
324.844	0.07
325.057	4.07
325.271	-2.86
325.485	2.43
325.698	-8.99
325.912	4.89
326.125	14.91
326.339	14.48
326.552	11.51
326.766	17.63
326.979	16.1
327.193	18.74
327.406	11.18
327.619	-2.79
327.833	-0.11
328.046	-2.96
328.26	-0.3
328.473	4.46
328.686	8.33
328.9	2.09
329.113	8
329.326	13.49
329.54	18.92
329.753	17.62
329.966	16.42
330.179	24.22
330.393	35.32
330.606	38.57
330.819	42.89
331.032	43.51
331.246	45.88
331.459	47.65
331.672	37.23
331.885	24.15
332.098	25.46
332.311	6.18
332.525	7.15
332.738	5.47
332.951	0.4
333.164	-5.66
333.377	-11
333.59	-12.99
333.803	6.07
334.016	-10.98
334.229	-14.64
334.442	-0.11
334.655	11.18
334.868	22.3
335.081	26.28
335.294	16.67
335.507	35.9
335.72	32.46
335.933	34.07
336.146	27.08
336.359	23.1
336.572	16.5
336.785	30.58
336.997	18.54
337.21	23.39
337.423	12.37
337.636	19.34
337.849	20.55
338.062	18.97
338.274	7.34
338.487	10.16
338.7	7.58
338.913	5.62
339.125	-5.52
339.338	0.55
339.551	7.33
339.763	5.21
339.976	6.49
340.189	10.31
340.402	13.09
340.614	20.83
340.827	9.81
341.039	11.39
341.252	14.31
341.465	9.71
341.677	-0.34
341.89	8.42
342.102	7.81
342.315	17.51
342.527	9.46
342.74	7.56
342.952	17.12
343.165	30.45
343.377	24.55
343.59	28.1
343.802	29.57
344.015	38.71
344.227	33.97
344.44	19.95
344.652	17.09
344.864	16.99
345.077	10.59
345.289	4.57
345.502	6.16
345.714	5.64
345.926	23.66
346.139	18.25
346.351	5.84
346.563	13.69
346.775	12.32
346.988	11.63
347.2	13.33
347.412	11.38
347.624	14.04
347.837	20.48
348.049	17.24
348.261	19.78
348.473	7.1
348.685	14.16
348.897	11.09
349.11	6.96
349.322	5.39
349.534	-3.93
349.746	-5.44
349.958	11.02
350.17	4.47
350.382	-3.52
350.594	-0.69
350.806	7.43
351.018	20.83
351.23	26.28
351.442	22.17
351.654	26.13
351.866	33.21
352.078	30.96
352.29	30.25
352.502	22.78
352.714	24.72
352.926	23.17
353.138	16.34
353.35	10.46
353.561	7.21
353.773	6.71
353.985	12
354.197	-3.1
354.409	-4.38
354.621	4.19
354.832	-2.93
355.044	6.62
355.256	-6.05
355.468	-11.15
355.679	0.28
355.891	2.44
356.103	-1.24
356.314	8.84
356.526	-0.34
356.738	5.89
356.949	15.61
357.161	17.35
357.373	20.34
357.584	28.18
357.796	24.77
358.008	29.02
358.219	40.92
358.431	30.27
358.642	27.04
358.854	25.34
359.065	12.95
359.277	8.38
359.488	7.77
359.7	1.81
359.911	-3.87
360.123	-2.22
360.334	-2.33
360.546	-1.86
360.757	8.29
360.969	13.93
361.18	11.71
361.391	17.07
361.603	15.34
361.814	17.64
362.025	16.96
362.237	14.9
362.448	13.89
362.659	3.21
362.871	1.17
363.082	7.67
363.293	11.89
363.504	19
363.716	23.08
363.927	20.33
364.138	29.45
364.349	32.61
364.56	26.33
364.772	24.12
364.983	17.67
365.194	7.62
365.405	3.73
365.616	-5.88
365.827	-6.98
366.038	9.89
366.25	7.86
366.461	13.36
366.672	21.98
366.883	26.9
367.094	25.91
367.305	27.3
367.516	19.18
367.727	18.65
367.938	10.36
368.149	6.13
368.36	3.26
368.571	6.43
368.781	4.94
368.992	1.68
369.203	-1.43
369.414	-2.55
369.625	-1.89
369.836	0.85
370.047	0.7
370.258	-2.16
370.468	-2.87
370.679	1.54
370.89	12.78
371.101	8.96
371.312	4.55
371.522	6.99
371.733	5.25
371.944	9.42
372.155	-6.29
372.365	-15.36
372.576	-12.07
372.787	-11.51
372.997	-12.39
373.208	-5.6
373.419	-9.35
373.629	5.26
373.84	0.74
374.05	3.84
374.261	-3.54
374.472	-5
374.682	-9.47
374.893	-9.94
375.103	-5.07
375.314	4.09
375.524	-2.17
375.735	4.08
375.945	2.02
376.156	0.83
376.366	6.57
376.577	4.43
376.787	7.17
376.997	11.87
377.208	6.16
377.418	5.19
377.629	6.64
377.839	8
378.049	8.92
378.26	0.84
378.47	3.83
378.68	6.08
378.89	5.63
379.101	-0.18
379.311	-7.98
379.521	-1.9
379.732	-9.81
379.942	-8.85
380.152	-1.25
380.362	0.81
380.572	8.13
380.783	12.02
380.993	9.49
381.203	17.38
381.413	20.93
381.623	21.63
381.833	26.33
382.043	22.33
382.253	19.06
382.463	16.87
382.674	20.32
382.884	12.88
383.094	11.69
383.304	4.71
383.514	8.51
383.724	10.25
383.934	9.22
384.144	9.98
384.353	12.71
384.563	10.32
384.773	15.76
384.983	13.96
385.193	15.79
385.403	15.65
385.613	9.99
385.823	6.42
386.033	6.47
386.242	1.6
386.452	0.64
386.662	-1.07
386.872	-3.34
387.082	-4.02
387.291	-1.44
387.501	0.37
387.711	1.6
387.921	1.68
388.13	1.84
388.34	3.49
388.55	9.12
388.759	7.51
388.969	5.95
389.179	9.68
389.388	9.41
389.598	6.66
389.807	4.88
390.017	1.32
390.227	1.69
390.436	2.89
390.646	1.08
390.855	3.59
391.065	4.71
391.274	4.97
391.484	6.36
391.693	7.49
391.903	6.92
392.112	5.83
392.322	5.78
392.531	7.12
392.74	5.75
392.95	6.47
393.159	6.38
393.369	5.5
393.578	6.49
393.787	5.49
393.997	5.21
394.206	6.09
394.415	5.48
394.625	3.76
394.834	4.07
395.043	3.81
395.252	4.12
395.462	4.36
395.671	4.93
395.88	4.47
396.089	5.63
396.298	5.63
396.508	5.74
396.717	5.19
396.926	4.51
397.135	4.06
397.344	4.53
397.553	4.73
397.762	4.41
397.971	4.18
398.181	3.92
398.39	4.24
398.599	4.44
398.808	4.37
399.017	4.44
399.226	4.92
399.435	5.07
399.644	5.28
399.853	5.53
400.062	5.37
400.27	5.15
400.479	5.04
400.688	5.01
400.897	5.1
401.106	5.14
401.315	4.72
401.524	4.89
401.733	4.75
401.941	4.52
402.15	4.27
402.359	4.03
402.568	3.91
402.777	3.98
402.985	3.77
403.194	3.84
403.403	3.66
403.612	3.67
403.82	3.77
404.029	3.73
404.238	3.6
404.446	3.61
404.655	3.55
404.864	3.59
405.072	3.65
405.281	3.5
405.489	3.65
405.698	3.68
405.906	3.67
406.115	3.69
406.324	3.75
406.532	3.69
406.741	3.76
406.949	3.6
407.158	3.72
407.366	3.86
407.574	3.88
407.783	3.75
407.991	3.69
408.2	3.6
408.408	3.66
408.617	3.48
408.825	3.33
409.033	3.32
409.242	3.37
409.45	3.44
409.658	3.42
409.867	3.38
410.075	3.41
410.283	3.32
410.491	3.26
410.7	3.26
410.908	3.24
411.116	3.24
411.324	3.32
411.533	3.24
411.741	3.3
411.949	3.33
412.157	3.36
412.365	3.31
412.573	3.37
412.781	3.31
412.99	3.43
413.198	3.43
413.406	3.41
413.614	3.36
413.822	3.31
414.03	3.17
414.238	3.22
414.446	3.16
414.654	3.14
414.862	3.13
415.07	3.15
415.278	3.15
415.486	3.3
415.694	3.16
415.902	3.08
416.109	3.11
416.317	3.13
416.525	3.23
416.733	3.32
416.941	3.2
417.149	3.36
417.357	3.41
417.564	3.37
417.772	3.34
417.98	3.19
418.188	3.06
418.395	3.08
418.603	2.9
418.811	2.86
419.019	2.93
419.226	3.01
419.434	2.92
419.642	2.98
419.849	3.01
420.057	3.1
420.265	3.12
420.472	3.04
420.68	2.88
420.887	3.03
421.095	3.07
421.302	3.05
421.51	3.08
421.717	3.11
421.925	3.12
422.132	3.08
422.34	2.99
422.547	2.91
422.755	2.87
422.962	2.8
423.17	2.76
423.377	2.77
423.585	2.87
423.792	2.88
423.999	2.92
424.207	2.92
424.414	2.95
424.621	2.96
424.829	2.97
425.036	2.97
425.243	2.97
425.451	2.99
425.658	3.05
425.865	2.9
426.072	2.93
426.28	2.9
426.487	2.84
426.694	2.8
426.901	2.72
427.108	2.71
427.315	2.78
427.523	2.8
427.73	2.83
427.937	2.92
428.144	2.93
428.351	3.05
428.558	2.98
428.765	2.95
428.972	2.93
429.179	2.78
429.386	2.81
429.593	2.84
429.8	2.92
430.007	2.96
430.214	3.07
430.421	3.06
430.628	3.01
430.835	2.91
431.042	2.89
431.249	2.79
431.456	2.85
431.662	2.84
431.869	2.88
432.076	3.05
432.283	3.1
432.49	3.12
432.697	3.12
432.903	3.09
433.11	3.1
433.317	3.12
433.524	3.01
433.73	3.02
433.937	3.01
434.144	3.09
434.35	3.08
434.557	3.06
434.764	3
434.97	3.11
435.177	3.08
435.384	3.14
435.59	3.06
435.797	3.06
436.003	3.06
436.21	3.03
436.416	3.01
436.623	3.04
436.829	2.99
437.036	3
437.242	3
437.449	3.04
437.655	3.05
437.862	3.11
438.068	3.14
438.275	3.12
438.481	3.19
438.687	3.23
438.894	3.2
439.1	3.26
439.307	3.25
439.513	3.19
439.719	3.29
439.926	3.28
440.132	3.27
440.338	3.29
440.544	3.24
440.751	3.21
440.957	3.21
441.163	3.2
441.369	3.17
441.575	3.09
441.782	3.07
441.988	3.1
442.194	3.14
442.4	3.2
442.606	3.2
442.812	3.21
443.018	3.31
443.224	3.34
443.431	3.38
443.637	3.34
443.843	3.39
444.049	3.36
444.255	3.29
444.461	3.26
444.667	3.29
444.873	3.24
445.079	3.26
445.284	3.15
445.49	3.11
445.696	3.22
445.902	3.26
446.108	3.2
446.314	3.25
446.52	3.26
446.726	3.31
446.931	3.39
447.137	3.35
447.343	3.32
447.549	3.32
447.755	3.33
447.96	3.34
448.166	3.44
448.372	3.4
448.578	3.42
448.783	3.37
448.989	3.46
449.195	3.45
449.4	3.43
449.606	3.37
449.812	3.45
450.017	3.48
450.223	3.52
450.428	3.49
450.634	3.5
450.84	3.51
451.045	3.47
451.251	3.49
451.456	3.47
451.662	3.44
451.867	3.41
452.073	3.4
452.278	3.38
452.483	3.42
452.689	3.37
452.894	3.36
453.1	3.41
453.305	3.47
453.51	3.48
453.716	3.52
453.921	3.51
454.127	3.49
454.332	3.48
454.537	3.55
454.742	3.51
454.948	3.47
455.153	3.46
455.358	3.53
455.563	3.57
455.769	3.57
455.974	3.49
456.179	3.42
456.384	3.46
456.589	3.44
456.795	3.37
457	3.37
457.205	3.33
457.41	3.36
457.615	3.46
457.82	3.47
458.025	3.45
458.23	3.44
458.435	3.39
458.64	3.51
458.845	3.48
459.05	3.49
459.255	3.51
459.46	3.52
459.665	3.57
459.87	3.61
460.075	3.57
460.28	3.6
460.485	3.61
460.69	3.6
460.895	3.63
461.099	3.67
461.304	3.66
461.509	3.62
461.714	3.65
461.919	3.58
462.123	3.59
462.328	3.57
462.533	3.52
462.738	3.55
462.942	3.64
463.147	3.57
463.352	3.64
463.556	3.71
463.761	3.74
463.966	3.79
464.17	3.79
464.375	3.78
464.58	3.81
464.784	3.81
464.989	3.73
465.193	3.74
465.398	3.76
465.602	3.76
465.807	3.72
466.011	3.8
466.216	3.82
466.42	3.88
466.625	3.88
466.829	3.86
467.034	3.87
467.238	3.91
467.443	3.9
467.647	3.85
467.851	3.85
468.056	3.86
468.26	3.84
468.464	3.87
468.669	3.88
468.873	3.85
469.077	3.94
469.282	3.94
469.486	3.93
469.69	3.94
469.894	3.95
470.099	3.95
470.303	3.95
470.507	3.9
470.711	3.89
470.915	3.94
471.119	4.02
471.324	3.98
471.528	3.96
471.732	4
471.936	4.03
472.14	4.04
472.344	4.03
472.548	4.03
472.752	4.11
472.956	4.17
473.16	4.19
473.364	4.18
473.568	4.21
473.772	4.23
473.976	4.19
474.18	4.15
474.384	4.13
474.588	4.12
474.792	4.13
474.995	4.12
475.199	4.15
475.403	4.19
475.607	4.22
475.811	4.25
476.015	4.33
476.218	4.32
476.422	4.36
476.626	4.31
476.83	4.3
477.033	4.3
477.237	4.33
477.441	4.31
477.644	4.36
477.848	4.36
478.052	4.41
478.255	4.42
478.459	4.46
478.663	4.44
478.866	4.45
479.07	4.46
479.273	4.47
479.477	4.52
479.681	4.54
479.884	4.51
480.088	4.55
480.291	4.56
480.495	4.56
480.698	4.55
480.901	4.55
481.105	4.58
481.308	4.6
481.512	4.61
481.715	4.59
481.919	4.6
482.122	4.65
482.325	4.64
482.529	4.65
482.732	4.68
482.935	4.68
483.138	4.7
483.342	4.72
483.545	4.72
483.748	4.74
483.952	4.73
484.155	4.75
484.358	4.71
484.561	4.72
484.764	4.72
484.967	4.75
485.171	4.76
485.374	4.78
485.577	4.81
485.78	4.84
485.983	4.87
486.186	4.86
486.389	4.8
486.592	4.8
486.795	4.81
486.998	4.79
487.201	4.82
487.404	4.82
487.607	4.82
487.81	4.88
488.013	4.87
488.216	4.85
488.419	4.81
488.622	4.74
488.825	4.72
489.028	4.73
489.231	4.71
489.433	4.7
489.636	4.7
489.839	4.68
490.042	4.74
490.245	4.76
490.447	4.78
490.65	4.81
490.853	4.83
491.056	4.83
491.258	4.94
491.461	4.92
491.664	4.86
491.866	4.87
492.069	4.84
492.272	4.81
492.474	4.79
492.677	4.73
492.879	4.75
493.082	4.81
493.285	4.79
493.487	4.8
493.69	4.81
493.892	4.86
494.095	4.85
494.297	4.85
494.5	4.84
494.702	4.83
494.905	4.86
495.107	4.9
495.309	4.86
495.512	4.9
495.714	4.94
495.917	4.95
496.119	5.01
496.321	5.02
496.524	5.04
496.726	5.06
496.928	5.08
497.13	5.09
497.333	5.09
497.535	5.05
497.737	5.03
497.939	4.98
498.142	4.97
498.344	4.95
498.546	4.94
498.748	4.98
498.95	4.99
499.152	4.96
499.355	5.03
499.557	5.11
499.759	5.19
499.961	5.2
500.163	5.21
500.365	5.23
500.567	5.3
500.769	5.27
500.971	5.25
501.173	5.21
501.375	5.23
501.577	5.25
501.779	5.28
501.981	5.31
502.183	5.29
502.385	5.34
502.587	5.35
502.788	5.36
502.99	5.32
503.192	5.33
503.394	5.32
503.596	5.4
503.798	5.44
503.999	5.45
504.201	5.44
504.403	5.51
504.605	5.53
504.806	5.57
505.008	5.53
505.21	5.54
505.411	5.59
505.613	5.64
505.815	5.65
506.016	5.69
506.218	5.7
506.42	5.75
506.621	5.78
506.823	5.8
507.024	5.82
507.226	5.81
507.427	5.75
507.629	5.77
507.83	5.74
508.032	5.76
508.233	5.76
508.435	5.75
508.636	5.78
508.838	5.84
509.039	5.85
509.24	5.89
509.442	5.86
509.643	5.87
509.845	5.91
510.046	5.95
510.247	6.01
510.448	6.01
510.65	6.05
510.851	6.12
511.052	6.18
511.254	6.15
511.455	6.16
511.656	6.13
511.857	6.19
512.058	6.18
512.26	6.16
512.461	6.17
512.662	6.17
512.863	6.15
513.064	6.16
513.265	6.18
513.466	6.21
513.667	6.21
513.868	6.2
514.069	6.29
514.27	6.31
514.471	6.37
514.672	6.38
514.873	6.43
515.074	6.47
515.275	6.49
515.476	6.47
515.677	6.52
515.878	6.53
516.079	6.54
516.28	6.5
516.481	6.47
516.682	6.51
516.882	6.49
517.083	6.48
517.284	6.45
517.485	6.45
517.686	6.44
517.886	6.48
518.087	6.48
518.288	6.5
518.488	6.49
518.689	6.51
518.89	6.54
519.091	6.57
519.291	6.6
519.492	6.6
519.692	6.62
519.893	6.64
520.094	6.64
520.294	6.62
520.495	6.61
520.695	6.6
520.896	6.58
521.096	6.59
521.297	6.61
521.497	6.62
521.698	6.62
521.898	6.65
522.099	6.67
522.299	6.68
522.499	6.68
522.7	6.68
522.9	6.68
523.101	6.71
523.301	6.7
523.501	6.71
523.702	6.72
523.902	6.73
524.102	6.74
524.302	6.76
524.503	6.76
524.703	6.76
524.903	6.76
525.103	6.8
525.304	6.82
525.504	6.85
525.704	6.84
525.904	6.84
526.104	6.88
526.304	6.87
526.504	6.88
526.705	6.89
526.905	6.88
527.105	6.9
527.305	6.86
527.505	6.88
527.705	6.9
527.905	6.89
528.105	6.87
528.305	6.88
528.505	6.91
528.705	6.95
528.905	6.95
529.105	6.96
529.304	6.95
529.504	6.95
529.704	6.96
529.904	6.95
530.104	6.95
530.304	6.95
530.503	6.93
530.703	6.96
530.903	6.99
531.103	7
531.303	7.04
531.502	7.05
531.702	7.03
531.902	7.08
532.101	7.08
532.301	7.08
532.501	7.1
532.7	7.09
532.9	7.13
533.1	7.14
533.299	7.14
533.499	7.13
533.698	7.17
533.898	7.19
534.097	7.21
534.297	7.2
534.496	7.22
534.696	7.25
534.895	7.31
535.095	7.3
535.294	7.27
535.494	7.27
535.693	7.28
535.892	7.3
536.092	7.27
536.291	7.27
536.491	7.25
536.69	7.29
536.889	7.29
537.088	7.31
537.288	7.36
537.487	7.4
537.686	7.4
537.886	7.45
538.085	7.49
538.284	7.52
538.483	7.53
538.682	7.51
538.882	7.51
539.081	7.55
539.28	7.54
539.479	7.56
539.678	7.6
539.877	7.66
540.076	7.69
540.275	7.75
540.474	7.71
540.673	7.75
540.872	7.79
541.071	7.8
541.27	7.81
541.469	7.85
541.668	7.87
541.867	7.96
542.066	8
542.265	8.01
542.464	8.04
542.663	8.13
542.862	8.18
543.06	8.22
543.259	8.23
543.458	8.25
543.657	8.3
543.856	8.32
544.054	8.31
544.253	8.3
544.452	8.3
544.651	8.35
544.849	8.39
545.048	8.36
545.247	8.4
545.445	8.39
545.644	8.43
545.843	8.46
546.041	8.46
546.24	8.55
546.438	8.64
546.637	8.68
546.836	8.73
547.034	8.78
547.233	8.83
547.431	8.91
547.63	8.94
547.828	8.94
548.027	8.96
548.225	9.03
548.423	9.06
548.622	9.06
548.82	9.07
549.019	9.06
549.217	9.13
549.415	9.22
549.614	9.26
549.812	9.31
550.01	9.38
550.209	9.44
550.407	9.52
550.605	9.57
550.803	9.6
551.002	9.63
551.2	9.73
551.398	9.76
551.596	9.85
551.794	9.91
551.993	9.96
552.191	10.05
552.389	10.14
552.587	10.14
552.785	10.21
552.983	10.25
553.181	10.29
553.379	10.33
553.577	10.35
553.775	10.41
553.973	10.51
554.171	10.55
554.369	10.6
554.567	10.69
554.765	10.73
554.963	10.79
555.161	10.82
555.359	10.85
555.557	10.95
555.755	11.02
555.952	11.08
556.15	11.18
556.348	11.26
556.546	11.33
556.744	11.43
556.941	11.51
557.139	11.6
557.337	11.65
557.535	11.75
557.732	11.81
557.93	11.9
558.128	11.95
558.325	11.99
558.523	12.05
558.721	12.12
558.918	12.17
559.116	12.24
559.313	12.32
559.511	12.41
559.708	12.49
559.906	12.56
560.104	12.65
560.301	12.72
560.498	12.8
560.696	12.88
560.893	12.97
561.091	13.04
561.288	13.12
561.486	13.2
561.683	13.27
561.88	13.35
562.078	13.42
562.275	13.53
562.473	13.62
562.67	13.7
562.867	13.77
563.064	13.86
563.262	13.96
563.459	14.06
563.656	14.14
563.853	14.23
564.051	14.3
564.248	14.37
564.445	14.47
564.642	14.54
564.839	14.62
565.036	14.71
565.234	14.79
565.431	14.91
565.628	15.05
565.825	15.15
566.022	15.23
566.219	15.26
566.416	15.28
566.613	15.39
566.81	15.39
567.007	15.41
567.204	15.43
567.401	15.48
567.598	15.54
567.795	15.58
567.991	15.62
568.188	15.69
568.385	15.73
568.582	15.8
568.779	15.87
568.976	15.95
569.172	16.04
569.369	16.08
569.566	16.12
569.763	16.18
569.96	16.22
570.156	16.25
570.353	16.33
570.55	16.39
570.746	16.42
570.943	16.54
571.14	16.58
571.336	16.6
571.533	16.65
571.729	16.62
571.926	16.62
572.123	16.67
572.319	16.64
572.516	16.65
572.712	16.72
572.909	16.79
573.105	16.91
573.302	16.94
573.498	17.01
573.695	17.04
573.891	17.08
574.087	17.08
574.284	17.05
574.48	17.03
574.677	17.07
574.873	17.07
575.069	17.14
575.266	17.14
575.462	17.16
575.658	17.21
575.854	17.22
576.051	17.18
576.247	17.16
576.443	17.15
576.639	17.17
576.835	17.17
577.032	17.18
577.228	17.17
577.424	17.21
577.62	17.24
577.816	17.23
578.012	17.23
578.208	17.23
578.404	17.24
578.6	17.26
578.796	17.27
578.993	17.27
579.189	17.21
579.384	17.21
579.58	17.23
579.776	17.19
579.972	17.15
580.168	17.14
580.364	17.13
580.56	17.19
580.756	17.17
580.952	17.13
581.148	17.16
581.343	17.21
581.539	17.21
581.735	17.16
581.931	17.13
582.127	17.09
582.322	17.09
582.518	17.04
582.714	16.98
582.909	16.91
583.105	16.89
583.301	16.88
583.496	16.89
583.692	16.88
583.888	16.86
584.083	16.88
584.279	16.91
584.474	16.89
584.67	16.9
584.866	16.91
585.061	16.93
585.257	16.94
585.452	16.9
585.648	16.9
585.843	16.94
586.039	16.93
586.234	16.89
586.429	16.86
586.625	16.84
586.82	16.84
587.015	16.81
587.211	16.77
587.406	16.83
587.601	16.89
587.797	16.91
587.992	16.95
588.187	16.98
588.383	16.99
588.578	16.99
588.773	16.92
588.968	16.91
589.163	16.92
589.359	16.89
589.554	16.92
589.749	17.01
589.944	17.08
590.139	17.14
590.334	17.11
590.529	17.17
590.724	17.2
590.919	17.26
591.114	17.24
591.309	17.22
591.504	17.27
591.699	17.3
591.894	17.29
592.089	17.33
592.284	17.24
592.479	17.22
592.674	17.28
592.869	17.32
593.064	17.43
593.259	17.44
593.454	17.45
593.648	17.55
593.843	17.58
594.038	17.62
594.233	17.66
594.428	17.69
594.622	17.78
594.817	17.84
595.012	17.9
595.206	17.93
595.401	17.95
595.596	18.04
595.79	18.05
595.985	18.1
596.18	18.2
596.374	18.28
596.569	18.39
596.763	18.51
596.958	18.48
597.153	18.56
597.347	18.61
597.542	18.65
597.736	18.66
597.931	18.72
598.125	18.72
598.319	18.76
598.514	18.8
598.708	18.84
598.903	18.87
599.097	18.93
599.291	19
599.486	19.08
599.68	19.14
599.874	19.24
600.069	19.29
600.263	19.32
600.457	19.37
600.651	19.4
600.846	19.39
601.04	19.45
601.234	19.49
601.428	19.48
601.622	19.51
601.817	19.54
602.011	19.55
602.205	19.59
602.399	19.59
602.593	19.57
602.787	19.63
602.981	19.64
603.175	19.61
603.369	19.58
603.563	19.59
603.757	19.58
603.951	19.57
604.145	19.56
604.339	19.52
604.533	19.49
604.727	19.5
604.921	19.47
605.115	19.44
605.309	19.43
605.502	19.44
605.696	19.42
605.89	19.48
606.084	19.45
606.278	19.43
606.471	19.39
606.665	19.33
606.859	19.28
607.053	19.28
607.246	19.2
607.44	19.14
607.634	19.08
607.827	18.99
608.021	18.96
608.214	18.88
608.408	18.78
608.602	18.73
608.795	18.68
608.989	18.63
609.182	18.66
609.376	18.61
609.569	18.53
609.763	18.59
609.956	18.49
610.15	18.45
610.343	18.41
610.537	18.37
610.73	18.32
610.923	18.26
611.117	18.09
611.31	18.06
611.504	18
611.697	17.93
611.89	17.8
612.083	17.75
612.277	17.68
612.47	17.65
612.663	17.56
612.856	17.51
613.05	17.46
613.243	17.4
613.436	17.26
613.629	17.25
613.822	17.15
614.015	17.08
614.209	17.14
614.402	17.07
614.595	17.02
614.788	16.98
614.981	16.9
615.174	16.91
615.367	16.86
615.56	16.7
615.753	16.6
615.946	16.57
616.139	16.59
616.332	16.51
616.525	16.44
616.718	16.41
616.911	16.43
617.103	16.43
617.296	16.39
617.489	16.33
617.682	16.35
617.875	16.29
618.067	16.23
618.26	16.15
618.453	16.09
618.646	16.03
618.838	15.98
619.031	15.97
619.224	15.99
619.417	15.98
619.609	15.96
619.802	15.96
619.994	15.96
620.187	15.95
620.38	15.85
620.572	15.81
620.765	15.76
620.957	15.67
621.15	15.62
621.342	15.58
621.535	15.55
621.727	15.53
621.92	15.51
622.112	15.54
622.305	15.54
622.497	15.49
622.69	15.44
622.882	15.42
623.074	15.41
623.267	15.36
623.459	15.31
623.651	15.32
623.844	15.39
624.036	15.38
624.228	15.34
624.42	15.34
624.613	15.34
624.805	15.35
624.997	15.31
625.189	15.28
625.381	15.26
625.574	15.22
625.766	15.2
625.958	15.16
626.15	15.11
626.342	15.09
626.534	15
626.726	15.02
626.918	15.03
627.11	15.02
627.302	15.05
627.494	15.03
627.686	15.02
627.878	15.03
628.07	14.94
628.262	14.88
628.454	14.84
628.646	14.78
628.838	14.72
629.029	14.58
629.221	14.53
629.413	14.48
629.605	14.45
629.797	14.41
629.989	14.38
630.18	14.34
630.372	14.42
630.564	14.41
630.755	14.41
630.947	14.39
631.139	14.34
631.33	14.34
631.522	14.32
631.714	14.27
631.905	14.22
632.097	14.21
632.289	14.15
632.48	14.12
632.672	14.01
632.863	14.01
633.055	13.99
633.246	14.01
633.438	13.99
633.629	14.03
633.821	14.05
634.012	14.06
634.203	14.12
634.395	14.13
634.586	14.08
634.777	14.05
634.969	14.03
635.16	13.95
635.351	13.95
635.543	13.92
635.734	13.87
635.925	13.92
636.117	13.93
636.308	13.92
636.499	13.91
636.69	13.98
636.881	13.97
637.073	13.96
637.264	13.94
637.455	13.94
637.646	13.91
637.837	13.94
638.028	13.93
638.219	13.86
638.41	13.86
638.601	13.84
638.792	13.76
638.983	13.73
639.174	13.76
639.365	13.67
639.556	13.66
639.747	13.67
639.938	13.67
640.129	13.73
640.32	13.72
640.511	13.67
640.701	13.65
640.892	13.68
641.083	13.66
641.274	13.62
641.465	13.57
641.655	13.61
641.846	13.55
642.037	13.57
642.228	13.53
642.418	13.48
642.609	13.43
642.8	13.37
642.99	13.33
643.181	13.31
643.372	13.26
643.562	13.22
643.753	13.22
643.943	13.19
644.134	13.22
644.324	13.2
644.515	13.23
644.705	13.23
644.896	13.21
645.086	13.14
645.277	13.2
645.467	13.19
645.658	13.17
645.848	13.09
646.038	13.08
646.229	13.07
646.419	13.14
646.61	13.03
646.8	12.97
646.99	12.96
647.18	13
647.371	12.99
647.561	12.97
647.751	12.9
647.941	12.92
648.132	12.95
648.322	12.93
648.512	12.88
648.702	12.86
648.892	12.91
649.082	12.89
649.272	12.86
649.462	12.86
649.653	12.83
649.843	12.77
650.033	12.73
650.223	12.66
650.413	12.71
650.603	12.7
650.793	12.64
650.983	12.64
651.172	12.66
651.362	12.65
651.552	12.62
651.742	12.54
651.932	12.55
652.122	12.54
652.312	12.49
652.502	12.45
652.691	12.41
652.881	12.37
653.071	12.3
653.261	12.21
653.45	12.09
653.64	12.06
653.83	11.99
654.019	11.87
654.209	11.79
654.399	11.75
654.588	11.65
654.778	11.62
654.968	11.48
655.157	11.38
655.347	11.29
655.536	11.15
655.726	11.04
655.915	10.97
656.105	10.93
656.294	10.82
656.484	10.76
656.673	10.7
656.863	10.63
657.052	10.52
657.241	10.4
657.431	10.21
657.62	10.05
657.809	9.95
657.999	9.82
658.188	9.72
658.377	9.69
658.567	9.6
658.756	9.47
658.945	9.42
659.134	9.28
659.324	9.19
659.513	9.05
659.702	8.87
659.891	8.74
660.08	8.67
660.269	8.59
660.458	8.49
660.648	8.37
660.837	8.31
661.026	8.25
661.215	8.19
661.404	8.12
661.593	7.98
661.782	7.92
661.971	7.86
662.16	7.74
662.349	7.63
662.538	7.53
662.726	7.43
662.915	7.38
663.104	7.26
663.293	7.17
663.482	7.1
663.671	7.04
663.86	6.99
664.048	6.97
664.237	6.92
664.426	6.9
664.615	6.81
664.803	6.8
664.992	6.81
665.181	6.79
665.369	6.71
665.558	6.7
665.747	6.69
665.935	6.72
666.124	6.67
666.312	6.55
666.501	6.47
666.69	6.45
666.878	6.39
667.067	6.41
667.255	6.41
667.444	6.44
667.632	6.42
667.82	6.38
668.009	6.38
668.197	6.34
668.386	6.25
668.574	6.19
668.762	6.11
668.951	6.12
669.139	6.2
669.327	6.18
669.516	6.25
669.704	6.34
669.892	6.41
670.08	6.44
670.269	6.46
670.457	6.4
670.645	6.49
670.833	6.49
671.021	6.45
671.21	6.46
671.398	6.55
671.586	6.61
671.774	6.66
671.962	6.59
672.15	6.6
672.338	6.67
672.526	6.72
672.714	6.71
672.902	6.68
673.09	6.77
673.278	6.81
673.466	6.94
673.654	6.94
673.842	7.02
674.03	7.11
674.218	7.2
674.405	7.29
674.593	7.39
674.781	7.4
674.969	7.44
675.157	7.48
675.344	7.53
675.532	7.62
675.72	7.69
675.908	7.82
676.095	7.94
676.283	7.97
676.471	8.02
676.658	8.09
676.846	8.12
677.033	8.17
677.221	8.21
677.409	8.25
677.596	8.45
677.784	8.48
677.971	8.6
678.159	8.68
678.346	8.74
678.534	8.79
678.721	8.87
678.909	8.88
679.096	9
679.283	9.07
679.471	9.22
679.658	9.3
679.846	9.43
680.033	9.53
680.22	9.61
680.408	9.64
680.595	9.69
680.782	9.7
680.969	9.72
681.157	9.75
681.344	9.82
681.531	9.93
681.718	10.04
681.905	10.17
682.093	10.33
682.28	10.6
682.467	10.71
682.654	10.8
682.841	10.93
683.028	11.18
683.215	11.28
683.402	11.33
683.589	11.39
683.776	11.58
683.963	11.73
684.15	11.81
684.337	11.92
684.524	12.08
684.711	12.28
684.898	12.42
685.085	12.6
685.271	12.79
685.458	13.05
685.645	13.16
685.832	13.44
686.019	13.64
686.205	13.91
686.392	14.16
686.579	14.35
686.766	14.55
686.952	14.91
687.139	15.1
687.326	15.46
687.512	15.65
687.699	15.82
687.886	16.17
688.072	16.47
688.259	16.77
688.445	17.07
688.632	17.47
688.818	17.83
689.005	18.27
689.191	18.63
689.378	19.02
689.564	19.3
689.751	19.74
689.937	19.95
690.124	20.43
690.31	20.85
690.496	21.32
690.683	21.76
690.869	22.22
691.055	22.77
691.242	23.25
691.428	23.72
691.614	24.29
691.8	24.69
691.987	25.27
692.173	25.95
692.359	26.47
692.545	27.07
692.731	27.67
692.918	28.22
693.104	28.8
693.29	29.29
693.476	29.71
693.662	30.21
693.848	30.59
694.034	30.98
694.22	31.55
694.406	32.07
694.592	32.59
694.778	33.12
694.964	33.56
695.15	34.31
695.336	35.13
695.522	35.69
695.708	36.39
695.894	37.07
696.08	37.74
696.265	38.43
696.451	39.04
696.637	39.38
696.823	39.97
697.009	40.52
697.194	41.12
697.38	41.74
697.566	42.25
697.751	42.8
697.937	43.55
698.123	44.07
698.308	44.54
698.494	45.04
698.68	45.5
698.865	46.15
699.051	46.75
699.236	47.22
699.422	47.74
699.607	48.25
699.793	48.73
699.978	49.31
700.164	49.93
700.349	50.48
700.535	51.04
700.72	51.55
700.906	52.08
701.091	52.53
701.276	53.05
701.462	53.43
701.647	53.69
701.832	54.14
702.018	54.64
702.203	55
702.388	55.5
702.573	56.06
702.759	56.54
702.944	57.24
703.129	57.56
703.314	57.98
703.499	58.6
703.684	59.11
703.87	59.41
704.055	59.76
704.24	60.05
704.425	60.58
704.61	60.84
704.795	61.27
704.98	61.6
705.165	61.89
705.35	62.25
705.535	62.69
705.72	62.9
705.905	63.17
706.09	63.39
706.275	63.52
706.459	64.03
706.644	64.52
706.829	64.75
707.014	65
707.199	65.2
707.384	65.53
707.568	66.07
707.753	66.31
707.938	66.39
708.123	66.45
708.307	66.96
708.492	67.38
708.677	67.73
708.861	67.75
709.046	67.71
709.231	68.04
709.415	68.44
709.6	68.4
709.784	68.76
709.969	69.01
710.153	69.64
710.338	69.94
710.522	70.13
710.707	69.96
710.891	70.19
711.076	70.17
711.26	70.48
711.445	70.34
711.629	70.64
711.813	70.73
711.998	71.12
712.182	71.52
712.366	72
712.551	71.88
712.735	72.09
712.919	72.34
713.103	72.49
713.288	72.91
713.472	73.04
713.656	73.01
713.84	73.22
714.024	73.5
714.208	73.53
714.393	74
714.577	74.07
714.761	74.27
714.945	74.39
715.129	74.72
715.313	74.99
715.497	75.23
715.681	75.37
715.865	75.34
716.049	75.47
716.233	75.68
716.417	75.91
716.601	75.96
716.785	76.19
716.968	76.01
717.152	76.42
717.336	76.75
717.52	77.15
717.704	77.26
717.888	77.4
718.071	77.46
718.255	77.6
718.439	77.63
718.622	77.7
718.806	77.59
718.99	77.84
719.174	78.02
719.357	78.23
719.541	78.63
719.724	78.87
719.908	78.88
720.092	79.03
720.275	79.01
720.459	78.84
720.642	78.8
720.826	78.78
721.009	78.64
721.193	78.79
721.376	79.15
721.559	79.31
721.743	79.59
721.926	79.57
722.11	79.7
722.293	79.67
722.476	79.72
722.66	79.71
722.843	79.71
723.026	80
723.21	80.41
723.393	80.46
723.576	80.77
723.759	80.89
723.942	80.97
724.126	81.05
724.309	81.27
724.492	81.19
724.675	81.41
724.858	81.74
725.041	82.12
725.224	82.29
725.407	82.29
725.59	82.03
725.774	82.16
725.957	82.45
726.14	82.28
726.322	81.88
726.505	82.25
726.688	82.6
726.871	83.25
727.054	83.51
727.237	83.35
727.42	83.91
727.603	84.41
727.786	84.22
727.968	84.39
728.151	84.14
728.334	84.3
728.517	84.6
728.699	84.93
728.882	85.48
729.065	85.66
729.248	85.41
729.43	85.5
729.613	85.57
729.796	85.57
729.978	85.49
730.161	85.47
730.343	85.64
730.526	86.12
730.708	86.83
730.891	86.93
731.073	87.07
731.256	87.21
731.438	87.33
731.621	87.75
731.803	88.02
731.986	87.78
732.168	87.71
732.35	88.15
732.533	88.24
732.715	88.2
732.898	88.09
733.08	88.71
733.262	88.82
733.444	89.18
733.627	89.21
733.809	89.47
733.991	89.76
734.173	89.83
734.355	89.5
734.538	89.54
734.72	90.14
734.902	90.35
735.084	90.45
735.266	90.74
735.448	90.68
735.63	90.77
735.812	90.72
735.994	90.48
736.176	90.61
736.358	90.87
736.54	90.43
736.722	90.6
736.904	90.64
737.086	91.17
737.268	91.3
737.45	91.17
737.632	90.42
737.814	90.91
737.995	91.09
738.177	91.29
738.359	91.28
738.541	91
738.723	91.26
738.904	91.37
739.086	91.18
739.268	91.49
739.449	91.7
739.631	92.04
739.813	92.16
739.994	92.46
740.176	92.82
740.358	92.9
740.539	92.87
740.721	92.62
740.902	91.91
741.084	92.48
741.265	92.47
741.447	92.32
741.628	92.08
741.81	92.35
741.991	92.4
742.172	92.96
742.354	92.93
742.535	92.77
742.717	92.84
742.898	93.43
743.079	92.75
743.261	93.1
743.442	93.05
743.623	92.57
743.804	92.66
743.986	92.67
744.167	92.3
744.348	93.24
744.529	92.82
744.71	91.95
744.891	92.08
745.073	92.31
745.254	93.17
745.435	92.96
745.616	92.66
745.797	92.79
745.978	93.99
746.159	93.88
746.34	93.58
746.521	93.04
746.702	92.81
746.883	93.4
747.064	93.45
747.245	93.8
747.426	94.71
747.606	94.7
747.787	95
747.968	95.57
748.149	94.37
748.33	94.86
748.51	93.78
748.691	93.07
748.872	92.65
749.053	91.57
749.233	91.56
749.414	91.77
749.595	90.5
749.775	91.08
749.956	90.81
750.137	90.55
750.317	91.53
750.498	91.13
750.678	91.29
750.859	91.93
751.04	91.56
751.22	91.46
751.4	92.59
751.581	92.26
751.761	93.19
751.942	93.49
752.122	93.33
752.303	93.25
752.483	94.28
752.663	93.98
752.844	93.7
753.024	93.8
753.204	93.28
753.385	93.01
753.565	92.4
753.745	91.94
753.925	91.42
754.106	91.94
754.286	91.1
754.466	91.23
754.646	91.58
754.826	92.15
755.006	91.86
755.187	92.47
755.367	92.66
755.547	92.47
755.727	92.01
755.907	92.57
756.087	92.93
756.267	93.14
756.447	92.71
756.627	92.16
756.807	93.32
756.987	94.58
757.167	94.27
757.346	93.29
757.526	92.92
757.706	93.11
757.886	92.8
758.066	92.22
758.246	91.7
758.425	91.3
758.605	91.58
758.785	92.3
758.965	91.28
759.144	92.04
759.324	92.2
759.504	91.69
759.683	91.18
759.863	91.32
760.043	90.55
760.222	90.92
760.402	90.69
760.581	90.21
760.761	89.41
760.94	89.4
761.12	88.94
761.299	88.77
761.479	89.4
761.658	88.61
761.838	89
762.017	90.1
762.197	90.97
762.376	91.67
762.555	91.87
762.735	90.48
762.914	90.91
763.093	89.84
763.273	89.45
763.452	88.83
763.631	88.12
763.81	88.34
763.99	89.3
764.169	89.87
764.348	91.09
764.527	91.4
764.706	91.8
764.885	92.59
765.064	92.26
765.243	92.21
765.423	91.02
765.602	89.69
765.781	89.14
765.96	89.11
766.139	88.41
766.318	89
766.497	89.29
766.676	90.9
766.854	90.31
767.033	90.35
767.212	89.41
767.391	89.49
767.57	88.26
767.749	87.73
767.928	86.53
768.106	87.72
768.285	88.31
768.464	88.58
768.643	88.83
768.821	89.49
769	90.92
769.179	90.16
769.357	89.76
769.536	88.47
769.715	88.54
769.893	87.62
770.072	86.04
770.25	85
770.429	85.74
770.607	85.86
770.786	86.81
770.964	87.46
771.143	87.89
771.321	88.86
771.5	88.16
771.678	88.54
771.857	88.04
772.035	87.4
772.213	86.66
772.392	87.67
772.57	87.77
772.748	87.87
772.927	87.08
773.105	87.6
773.283	87.47
773.461	86.92
773.64	85.15
773.818	84.52
773.996	84.1
774.174	84.63
774.352	84.68
774.531	83.48
774.709	85.41
774.887	85.1
775.065	85.7
775.243	86.53
775.421	86.37
775.599	84.77
775.777	86.47
775.955	84.41
776.133	85.13
776.311	85.26
776.489	84.89
776.667	83.98
776.844	85.22
777.022	83.66
777.2	83.95
777.378	84.56
777.556	84.69
777.734	83.97
777.911	84.96
778.089	84.85
778.267	85.39
778.445	84.45
778.622	83.92
778.8	84.4
778.978	83.65
779.155	82.66
779.333	81.25
779.511	81.95
779.688	81.02
779.866	80.48
780.043	79.97
780.221	80.94
780.398	81.8
780.576	82.02
780.753	80.36
780.931	83.44
781.108	83.87
781.286	82.75
781.463	84.6
781.64	84.32
781.818	85.47
781.995	87.57
782.172	86.27
782.35	85.77
782.527	87.8
782.704	85.14
782.882	86.4
783.059	85.27
783.236	84.84
783.413	84.12
783.59	83.59
783.768	83.09
783.945	84.9
784.122	83.42
784.299	84.98
784.476	85.31
784.653	84.21
784.83	84.2
785.007	83.1
785.184	82.32
785.361	81.74
785.538	80.05
785.715	77.55
785.892	78.12
786.069	78.09
786.246	77.01
786.423	78.25
786.6	78.98
786.776	79.18
786.953	81.46
787.13	81.86
787.307	83.33
787.484	85.15
787.66	82.93
787.837	83.37
788.014	83.67
788.191	81.87
788.367	82.38
788.544	80.18
788.721	79.49
788.897	81.21
789.074	79.58
789.25	80.82
789.427	81.1
789.603	84.09
789.78	86.95
789.956	85.46
790.133	84.69
790.309	84.52
790.486	86.68
790.662	87.58
790.839	86
791.015	84.9
791.192	86.86
791.368	85.57
791.544	87.56
791.721	84.02
791.897	84.15
792.073	81.5
792.249	85.51
792.426	83.79
792.602	82.99
792.778	81.56
792.954	81.87
793.13	84.07
793.307	83.41
793.483	79.44
793.659	80.29
793.835	81.24
794.011	79.41
794.187	76.01
794.363	74.55
794.539	73.29
794.715	71.35
794.891	69.64
795.067	70.04
795.243	73.08
795.419	75.04
795.595	73.4
795.771	75.17
795.947	75.46
796.122	77.83
796.298	77.26
796.474	76.69
796.65	76.57
796.826	80.09
797.001	81.13
797.177	81.95
797.353	83.34
797.529	83.43
797.704	80.91
797.88	81.15
798.056	78.7
798.231	79.6
798.407	78.94
798.582	76.92
798.758	80.41
798.934	83.23
799.109	81.4
799.285	82.66
799.46	80.96
799.636	82.65
799.811	85.36
799.986	83.49
800.162	82.2
800.337	84.8
800.513	84.92
800.688	89.28
800.863	87.04
801.039	82.88
801.214	83.3
801.389	84.74
801.565	85.83
801.74	82.99
801.915	79.03
802.09	79.86
802.265	80.74
802.441	76.63
802.616	72.48
802.791	73.66
802.966	73.32
803.141	69.16
803.316	70.8
803.491	69.64
803.666	72.22
803.841	75.83
804.016	75.78
804.191	73.6
804.366	77.91
804.541	75.37
804.716	72.47
804.891	76.57
805.066	75.21
805.241	70.88
805.416	72.39
805.591	73.35
805.765	72.55
805.94	74.91
806.115	68.21
806.29	71.33
806.464	69.92
806.639	70.78
806.814	68.6
806.989	69.97
807.163	71.84
807.338	73.83
807.512	65.41
807.687	66.43
807.862	64.75
808.036	66.32
808.211	69.98
808.385	67.88
808.56	69.39
808.734	74.6
808.909	74.44
809.083	75.64
809.258	78.61
809.432	73.14
809.606	71.12
809.781	67.31
809.955	69.53
810.13	74.37
810.304	74.05
810.478	73.14
810.652	77.91
810.827	82.25
811.001	81.32
811.175	72.07
811.349	69.7
811.524	68.47
811.698	66.62
811.872	64.04
812.046	61.39
812.22	64.72
812.394	72.44
812.568	74.17
812.742	72.7
812.916	73.25
813.09	76.05
813.264	76.55
813.438	78.92
813.612	73.79
813.786	77.97
813.96	82.74
814.134	79.72
814.308	74.2
814.482	73.27
814.656	72.14
814.83	75.32
815.003	71.26
815.177	71.05
815.351	73.13
815.525	72.02
815.698	72
815.872	68.46
816.046	66.63
816.219	68.47
816.393	62.8
816.567	59.25
816.74	59.52
816.914	63.18
817.088	64.31
817.261	66.62
817.435	60.78
817.608	63.2
817.782	65.23
817.955	66.37
818.129	67.47
818.302	69.6
818.475	67.25
818.649	66.99
818.822	71.82
818.996	69.82
819.169	71.57
819.342	67.15
819.516	64.69
819.689	65.72
819.862	67.66
820.035	61.52
820.209	64.99
820.382	60.86
820.555	63.48
820.728	61.45
820.901	58.83
821.075	59.98
821.248	62.72
821.421	54.15
821.594	59.76
821.767	57.12
821.94	58.36
822.113	61.5
822.286	62.4
822.459	68.72
822.632	72.6
822.805	70.25
822.978	65.12
823.151	69.94
823.324	62.39
823.496	54.67
823.669	49.89
823.842	51.68
824.015	47.16
824.188	48.31
824.361	42.15
824.533	45.39
824.706	56.34
824.879	61.04
825.051	68.74
825.224	75.89
825.397	79.07
825.569	77.85
825.742	76.6
825.915	70.25
826.087	61.77
826.26	56.94
826.432	54.93
826.605	53.3
826.777	53.86
826.95	52.86
827.122	58.13
827.295	62.39
827.467	54.92
827.64	47.61
827.812	49.39
827.984	56.07
828.157	57.45
828.329	49.97
828.501	49.23
828.674	50.22
828.846	47.62
829.018	40.64
829.19	34.05
829.363	37.9
829.535	38.11
829.707	37.19
829.879	47.49
830.051	50.61
830.223	49.64
830.395	49.69
830.568	49.59
830.74	53.47
830.912	48.59
831.084	40.76
831.256	36.32
831.428	36.37
831.6	37.55
831.772	28.23
831.943	24.03
832.115	33.53
832.287	33.71
832.459	42.08
832.631	52.73
832.803	57.23
832.975	61.99
833.146	59.59
833.318	65.21
833.49	73.24
833.662	73.06
833.833	73.21
834.005	68.11
834.177	65.03
834.348	62.66
834.52	59.51
834.692	54.21
834.863	49.23
835.035	36.41
835.206	32.53
835.378	38.06
835.549	41.23
835.721	42.58
835.892	44.23
836.064	47.16
836.235	56.95
836.407	55.46
836.578	58.37
836.749	61.36
836.921	57.89
837.092	61.25
837.264	59.45
837.435	46.53
837.606	53.74
837.777	44.86
837.949	42.42
838.12	47.05
838.291	54.28
838.462	53.1
838.633	60.66
838.805	52.66
838.976	55.35
839.147	61.29
839.318	59.99
839.489	49.35
839.66	49.41
839.831	43.28
840.002	42.62
840.173	51.5
840.344	49.39
840.515	39.46
840.686	41.47
840.857	41.91
841.028	43.92
841.199	48.88
841.369	41.67
841.54	41.8
841.711	48.3
841.882	32.87
842.053	33.33
842.223	36.88
842.394	37.85
842.565	51.13
842.736	48.44
842.906	50.49
843.077	67.99
843.248	64.11
843.418	55.31
843.589	56.07
843.759	52.62
843.93	55.61
844.101	54.13
844.271	51.35
844.442	48.07
844.612	48.07
844.783	29.35
844.953	24.44
845.123	24.24
845.294	20.97
845.464	21.19
845.635	21.16
845.805	39.88
845.975	40.56
846.146	31.06
846.316	37.4
846.486	52.19
846.656	68.6
846.827	68.19
846.997	74.62
847.167	85.14
847.337	98.27
847.507	89.03
847.677	89.95
847.848	78.13
848.018	89.12
848.188	85.09
848.358	88.78
848.528	78.75
848.698	62.94
848.868	37.7
849.038	46.01
849.208	50.73
849.378	36.13
849.548	37.53
849.718	32.61
849.887	45.59
850.057	56.41
850.227	54.34
850.397	39.15
850.567	45.59
850.737	40.32
850.906	42.42
851.076	35.84
851.246	45.19
851.415	53.38
851.585	49.42
851.755	48.58
851.924	66.37
852.094	57.78
852.264	50
852.433	46.07
852.603	45.52
852.772	56.94
852.942	40
853.111	29.52
853.281	37.62
853.45	54
853.62	43.77
853.789	44.81
853.959	32.37
854.128	24.57
854.297	26.69
854.467	28.6
854.636	24.96
854.805	44.19
854.975	37.81
855.144	50
855.313	68.79
855.482	59.73
855.652	52.48
855.821	49.89
855.99	52.08
856.159	44.8
856.328	28.28
856.497	26.02
856.667	36.7
856.836	35.96
857.005	25.54
857.174	29.43
857.343	28.56
857.512	30.77
857.681	40.85
857.85	24.39
858.019	34.26
858.188	35.57
858.356	-3.87
858.525	-8.9
858.694	6.9
858.863	2.21
859.032	1.36
859.201	-28.35
859.369	-4.6
859.538	-0.28
859.707	8.37
859.876	13.68
860.044	22.01
860.213	36.54
860.382	37.63
860.55	46.46
860.719	58.72
860.888	55.73
861.056	46.48
861.225	40.03
861.393	46.82
861.562	51.56
861.73	38.22
861.899	18.17
862.067	37.75
862.236	40.02
862.404	39.54
862.572	26.2
862.741	27.05
862.909	30.75
863.078	44.45
863.246	37.48
863.414	29.16
863.582	6.45
863.751	14.96
863.919	17.7
864.087	22.6
864.255	5.34
864.424	9.81
864.592	26.72
864.76	51.76
864.928	53.27
865.096	38.37
865.264	41.19
865.432	49.45
865.6	30.53
865.768	10.69
865.936	3.82
866.104	3.39
866.272	50.35
866.44	16.85
866.608	-10.54
866.776	43.85
866.944	51.73
867.112	14.29
867.28	-17.97
867.448	2.38
867.615	7.56
867.783	0.17
867.951	-40.08
868.119	1.05
868.286	10.18
868.454	33.6
868.622	2.9
868.789	36.94
868.957	61.21
869.125	62.91
869.292	43.86
869.46	38.56
869.627	11.47
869.795	24.76
869.963	2.44
870.13	8.07
870.298	3.02
870.465	-15.84
870.632	-12.87
870.8	12.52
870.967	-0.78
871.135	4.75
871.302	7.12
871.469	3
871.637	7.79
871.804	14.06
871.971	21.9
872.139	43.83
872.306	36.47
872.473	14.84
872.64	29.83
872.807	30.97
872.975	56.21
873.142	38.02
873.309	24.6
873.476	88.77
873.643	199.18
873.81	123.29
873.977	76.9
874.144	38.66
874.311	-31.29
874.478	-65.19
874.645	-82.31
874.812	-48.78
874.979	-75.57
875.146	-97.37
875.313	-146.66
875.48	-8.38
875.647	-7.63
875.813	-32.4
875.98	-77.24
876.147	53.62
876.314	62.37
876.481	50.18
876.647	31.66
876.814	49.44
876.981	54.07
877.147	48.36
877.314	-3.15
877.481	8.16
877.647	23.91
877.814	19.96
877.98	17.55
878.147	4.01
878.314	10.54
878.48	25.54
878.647	39.54
878.813	21.81
878.979	26.85
879.146	-13.93
879.312	30.26
879.479	34.07
879.645	18.87
879.811	-0.79
879.978	12.66
880.144	9.1
880.31	14.05
880.477	-35.57
880.643	-145.6
880.809	-44.33
880.975	-83.97
881.142	-60.5
881.308	-70.03
881.474	-16.97
881.64	-65.09
881.806	-6.73
881.972	14.7
882.138	33.02
882.304	-19.08
882.47	-33.21
882.636	-90.8
882.802	-88.23
882.968	-180.23
883.134	-440.95
883.3	-178.04
883.466	-47.78
883.632	-41.76
883.798	-21.9
883.964	-27.16
884.129	11.58
884.295	15.75
884.461	-19.13
884.627	-26.35
884.793	20.55
884.958	2.58
885.124	-18.11
885.29	-25.67
885.455	-15.43
885.621	-6.63
885.787	-33.01
885.952	-57.92
886.118	-36.95
886.283	4.55
886.449	-28.45
886.614	-17.9
886.78	14.42
886.945	12.35
887.111	11.96
887.276	-0.65
887.442	-26.66
887.607	-18.83
887.773	-40.91
887.938	-69.79
888.103	-5.16
888.269	9.65
888.434	15.92
888.599	47.27
888.764	52.07
888.93	85.94
889.095	93.92
889.26	123.42
889.425	122.7
889.59	87.66
889.756	74.11
889.921	63.63
890.086	61.16
890.251	55.43
890.416	-17.73
890.581	-4.61
890.746	18.13
890.911	-34.41
891.076	-91.15
891.241	-162.48
891.406	-59.99
891.571	-12.17
891.736	-27
891.901	-32.13
892.065	6.75
892.23	16.61
892.395	3.5
892.56	4.69
892.725	-0.45
892.889	-42.98
893.054	-106.13
893.219	-183.46
893.384	-270.1
893.548	-576.67
893.713	1107.43
893.878	658.15
