Data from Ofra_PS_T2_1A_2GT10_Reflection_2.txt Node
Date: Wed Jul 21 17:54:16 EDT 2021
User: Adam
Spectrometer: FLMT01687
Trigger mode: 0
Integration Time (sec): 1.100000E0
Scans to average: 2
Electric dark correction enabled: true
Nonlinearity correction enabled: false
Boxcar width: 2
XAxis mode: Wavelengths
Number of Pixels in Spectrum: 3648
>>>>>Begin Spectral Data<<<<<
179.494	656.2
179.716	732.47
179.937	718.6
180.158	676.56
180.38	1149.53
180.601	300.14
180.823	91.37
181.044	-134.95
181.265	-8.64
181.486	-24.06
181.708	112.3
181.929	784.18
182.15	-317.25
182.372	87.08
182.593	-60.71
182.814	27.32
183.035	81.87
183.257	37.41
183.478	-70.27
183.699	-3.16
183.92	-44.88
184.141	-39.23
184.363	-86.01
184.584	-14.61
184.805	-0.03
185.026	31.79
185.247	25.3
185.468	15.99
185.689	3.03
185.91	-0.27
186.132	-13.81
186.353	-4.47
186.574	19.72
186.795	23.51
187.016	-25.38
187.237	-50.77
187.458	-82.67
187.679	-48.67
187.9	-32.65
188.121	-29.77
188.342	5.64
188.563	32.14
188.784	46.01
189.005	58.78
189.226	122.6
189.447	92.93
189.667	-72.94
189.888	-397.66
190.109	-1558.77
190.33	-927.26
190.551	-1579.87
190.772	-336.38
190.993	-280.01
191.214	-241.76
191.434	-156.44
191.655	-57.45
191.876	-131.66
192.097	-152.14
192.318	-241.65
192.538	-387.17
192.759	-263.92
192.98	-123.9
193.201	-66.94
193.421	-28.24
193.642	12.96
193.863	13.68
194.083	-3.53
194.304	-7.98
194.525	-8.76
194.745	-5.55
194.966	-1.53
195.187	-10.99
195.407	-19.98
195.628	-62.96
195.848	-105.76
196.069	-144.5
196.29	-103.79
196.51	-129.51
196.731	-118.16
196.951	-156.06
197.172	-140.13
197.392	-171.77
197.613	-142.47
197.833	-137.56
198.054	-116.16
198.274	-57.48
198.495	-69.83
198.715	-44.45
198.936	-67.3
199.156	-55
199.377	-171.84
199.597	-147.31
199.817	-141.23
200.038	-73.6
200.258	-122.81
200.479	-51.51
200.699	-60.47
200.919	-15.88
201.14	-28.78
201.36	-58.03
201.58	-9.39
201.801	2.52
202.021	-41.98
202.241	-54.16
202.461	-38.38
202.682	-144.88
202.902	-189.93
203.122	-97.31
203.342	-76.98
203.563	-35.12
203.783	-14.61
204.003	-58.39
204.223	-92.14
204.443	-9.52
204.663	-53.51
204.884	-37.18
205.104	5.62
205.324	48.61
205.544	21.83
205.764	53.9
205.984	63.74
206.204	58.19
206.424	41.83
206.644	17.64
206.864	-5.3
207.084	-47.22
207.304	-45.12
207.525	-230.7
207.745	-139.07
207.964	-47.5
208.184	-69.57
208.404	-108.88
208.624	-93.93
208.844	-115.44
209.064	-459.74
209.284	-496.7
209.504	-193.67
209.724	-65.36
209.944	-12.98
210.164	31.94
210.384	29.18
210.604	-2.17
210.823	-48.89
211.043	-71.22
211.263	-61.75
211.483	-56.79
211.703	-102.67
211.922	-73.72
212.142	-11.42
212.362	-14.2
212.582	-17.76
212.801	5.03
213.021	-11.14
213.241	-26.45
213.461	-72.97
213.68	-110.1
213.9	-94.37
214.12	-78.75
214.339	-168.68
214.559	-134.5
214.779	-45.39
214.998	-49.83
215.218	-84.98
215.438	-27.36
215.657	-16.94
215.877	-45.88
216.096	-8.84
216.316	1.49
216.535	-5.18
216.755	-2.75
216.974	-72.75
217.194	-133.91
217.413	-128.77
217.633	-129.88
217.852	-261.47
218.072	-111.44
218.291	-68.93
218.511	-17.63
218.73	-57.17
218.95	-30.87
219.169	-39.91
219.389	-88.67
219.608	-80.67
219.827	-65.27
220.047	-47.65
220.266	-28.38
220.485	-30.02
220.705	-17.32
220.924	-41.05
221.143	-7.12
221.363	-34.26
221.582	-2.91
221.801	-4.82
222.021	21.08
222.24	-72.1
222.459	9.77
222.678	-33.27
222.897	-117.76
223.117	-140.59
223.336	-78.84
223.555	-66.78
223.774	-25.68
223.993	25.4
224.213	78.82
224.432	29.1
224.651	35.18
224.87	-9.83
225.089	-12.05
225.308	-27.53
225.527	5.34
225.746	-8.69
225.965	-7.58
226.184	-43.44
226.404	-17.96
226.623	-62.58
226.842	-52.58
227.061	-10.45
227.28	2.85
227.499	-20.65
227.718	11.35
227.936	-10.88
228.155	-4.04
228.374	-8.98
228.593	4.39
228.812	-8.52
229.031	4.58
229.25	-56.72
229.469	-54.52
229.688	-52.33
229.907	-12.59
230.125	9.44
230.344	15.36
230.563	27.13
230.782	34.8
231.001	-45.49
231.22	-37.81
231.438	-6.69
231.657	4.31
231.876	10.72
232.095	63.03
232.313	56.54
232.532	43.71
232.751	-19.55
232.969	-54.84
233.188	-188.86
233.407	-80.26
233.625	-48.47
233.844	-54.42
234.063	-50.54
234.281	-4.12
234.5	-16.76
234.719	-8.15
234.937	11.39
235.156	22.9
235.374	13.37
235.593	-2.48
235.811	-25.1
236.03	-31.88
236.249	-94
236.467	-85.32
236.686	-25.24
236.904	-1.41
237.123	-29.98
237.341	-8.8
237.559	-4.69
237.778	-36.53
237.996	-68.07
238.215	-30.19
238.433	-26.16
238.652	-42.64
238.87	-65.75
239.088	-43.34
239.307	-24.61
239.525	-36.07
239.743	-67.53
239.962	-36.75
240.18	-77.94
240.398	-133.2
240.617	-137.51
240.835	-112.09
241.053	-100.69
241.271	-35.3
241.49	-6.98
241.708	-36.09
241.926	-41.62
242.144	-44.35
242.363	-95.82
242.581	-158.83
242.799	-73.33
243.017	-24.48
243.235	-30.81
243.453	-19.23
243.672	0.69
243.89	-12.06
244.108	-44.39
244.326	-5.18
244.544	-2.72
244.762	-7.11
244.98	8.32
245.198	25.93
245.416	-23.41
245.634	-17.32
245.852	-24.5
246.07	-62.88
246.288	-65.23
246.506	-85.43
246.724	-95.03
246.942	-87.02
247.16	-34.7
247.378	-9.14
247.596	7.7
247.814	18.72
248.032	-13.68
248.25	-5.2
248.468	-13.6
248.685	6.25
248.903	23.29
249.121	57.04
249.339	35.53
249.557	19.72
249.775	4.8
249.992	-48.65
250.21	-67.38
250.428	-57.36
250.646	-81.8
250.863	-100.72
251.081	-59.4
251.299	-35.04
251.517	-24.77
251.734	-18.34
251.952	-7.06
252.17	-11.69
252.387	-17.53
252.605	-19.86
252.823	-1.61
253.04	9.42
253.258	31.96
253.475	40.01
253.693	60.15
253.911	47.08
254.128	48.18
254.346	26.5
254.563	7.7
254.781	-41.5
254.998	-71.47
255.216	-89.1
255.433	-81.6
255.651	-53.42
255.868	3.13
256.086	44.02
256.303	31.04
256.521	27.27
256.738	3.02
256.956	-46.65
257.173	-88.95
257.39	-95.13
257.608	-121.57
257.825	-77.35
258.043	-21.38
258.26	0.81
258.477	44.94
258.695	39.97
258.912	9.9
259.129	-3.06
259.346	-42.11
259.564	-104.01
259.781	-132.72
259.998	-58.56
260.216	-32.15
260.433	6.37
260.65	10.32
260.867	27.72
261.084	-22.75
261.302	-50.17
261.519	-55.1
261.736	-61.34
261.953	-95.68
262.17	-50.27
262.387	-95.04
262.604	-116.4
262.822	-131.52
263.039	-97.79
263.256	-154.28
263.473	-86.98
263.69	-62.74
263.907	-1.09
264.124	6.03
264.341	1.77
264.558	-11.89
264.775	-3.29
264.992	-38.46
265.209	-34.66
265.426	10.38
265.643	16.45
265.86	21.56
266.077	16.53
266.294	16.98
266.51	-33.12
266.727	-58.28
266.944	-48.87
267.161	-26.07
267.378	-29.44
267.595	-5.23
267.812	-14.34
268.028	-45.96
268.245	-36.49
268.462	-46.87
268.679	-56.04
268.896	5.52
269.112	19.8
269.329	16.69
269.546	22.44
269.763	15.26
269.979	-12.83
270.196	-18.59
270.413	-59.7
270.629	-86.15
270.846	-82.04
271.063	-71.17
271.279	-101.9
271.496	-75.93
271.712	-23.91
271.929	9.79
272.146	-2.95
272.362	15.8
272.579	26.68
272.795	21.44
273.012	-15.18
273.228	-9.75
273.445	-32.04
273.661	-64.62
273.878	-98.46
274.094	-92.13
274.311	-115.48
274.527	-32.02
274.744	-28.36
274.96	-28.86
275.177	-8.6
275.393	14.24
275.609	4.46
275.826	20.79
276.042	30.31
276.259	17.64
276.475	16.77
276.691	7.16
276.908	-11.43
277.124	-8.85
277.34	-14.33
277.557	-12.4
277.773	-14.08
277.989	-20.77
278.205	-31.28
278.422	-5.84
278.638	-18.92
278.854	-6.18
279.07	-3.33
279.286	-2.92
279.503	-20.64
279.719	-15.03
279.935	-54.83
280.151	-50.67
280.367	-34.35
280.583	-41.48
280.799	-42.9
281.016	-70.09
281.232	-29.93
281.448	-25.58
281.664	-5.17
281.88	-28.27
282.096	23.72
282.312	39.97
282.528	55.2
282.744	48.47
282.96	42.01
283.176	10.54
283.392	1.56
283.608	-7.14
283.824	-18.97
284.04	-14.2
284.256	0.33
284.471	-13.29
284.687	-16.33
284.903	13.06
285.119	39.62
285.335	9.83
285.551	-3
285.767	-31.38
285.982	-54.3
286.198	-108.38
286.414	-33.17
286.63	-2.01
286.846	30.77
287.061	12.03
287.277	50.19
287.493	16.3
287.709	24.07
287.924	6.33
288.14	42.07
288.356	25.75
288.571	54.65
288.787	24.19
289.003	21.05
289.218	-5.64
289.434	-49.65
289.65	-68.41
289.865	-72.16
290.081	-46.74
290.296	-35.88
290.512	-20.72
290.727	-57.95
290.943	-53.76
291.159	-67.44
291.374	-67.91
291.59	-88.35
291.805	-59.17
292.021	-49.57
292.236	-35.43
292.451	-23.82
292.667	-2.28
292.882	25
293.098	22.7
293.313	-7.91
293.529	-35.24
293.744	-58.05
293.959	-81.58
294.175	-68.53
294.39	-22.14
294.605	5.09
294.821	27.79
295.036	36.52
295.251	34.17
295.467	-7.41
295.682	-41.79
295.897	-115.16
296.112	-128.97
296.328	-112.36
296.543	-124.17
296.758	-99.86
296.973	-43.6
297.188	0.41
297.404	-39.54
297.619	-49.46
297.834	-60.88
298.049	-74.18
298.264	-96.7
298.479	-20.62
298.694	-2.64
298.909	14.32
299.125	11.59
299.34	20.59
299.555	-9.13
299.77	3.85
299.985	-37.29
300.2	-75.56
300.415	-111.85
300.63	-74.54
300.845	-84.65
301.06	-85.29
301.275	-48.52
301.49	-21.54
301.704	-33.42
301.919	-57.85
302.134	-65.31
302.349	-64.95
302.564	-146.47
302.779	-196.97
302.994	-143.93
303.209	-71.34
303.423	-53.54
303.638	17.98
303.853	-3.68
304.068	-8.54
304.283	-10.1
304.497	-7.88
304.712	-12.22
304.927	-1.32
305.142	-13.36
305.356	-13.02
305.571	-23.17
305.786	-38.41
306	-65.76
306.215	-58.82
306.43	-77.6
306.644	-64.59
306.859	3.35
307.074	29.39
307.288	4.17
307.503	25
307.717	-7.42
307.932	-16.16
308.147	-27.53
308.361	-22.23
308.576	-40.8
308.79	-79.24
309.005	-74.78
309.219	-63.76
309.434	-75.07
309.648	-67.89
309.863	-38.08
310.077	-50.92
310.292	-44.55
310.506	-17.81
310.72	2.04
310.935	28.41
311.149	23.43
311.364	33.51
311.578	45.16
311.792	32.72
312.007	16.57
312.221	9.13
312.435	12.04
312.649	-20.54
312.864	17.86
313.078	52.16
313.292	110.24
313.507	72.08
313.721	111.5
313.935	38.81
314.149	2.28
314.363	-7.23
314.578	-1.74
314.792	3.74
315.006	-16.28
315.22	4.25
315.434	8.51
315.648	23.84
315.862	23.04
316.077	21.17
316.291	9.58
316.505	19.12
316.719	-15.95
316.933	-43.83
317.147	-14.44
317.361	-62.38
317.575	-107.02
317.789	-132.64
318.003	-194.55
318.217	-191.96
318.431	-102.88
318.645	-35.7
318.859	-25.53
319.073	-0.78
319.287	-6.78
319.5	-29.06
319.714	-67.82
319.928	-103.97
320.142	-129.05
320.356	-81.43
320.57	-47.86
320.784	-85.21
320.997	-74.6
321.211	-65.44
321.425	-114.45
321.639	-145.03
321.853	-48.69
322.066	-22.76
322.28	-20.35
322.494	1.98
322.707	36.4
322.921	5.75
323.135	-2.53
323.349	10.52
323.562	-19.72
323.776	-47.38
323.989	-40.13
324.203	-62.63
324.417	-65.78
324.63	-67.91
324.844	-76.67
325.057	-92.97
325.271	-74.29
325.485	-55.77
325.698	-25.82
325.912	7.97
326.125	-1.61
326.339	6.34
326.552	-7.76
326.766	-21.12
326.979	-15.69
327.193	12.91
327.406	-4
327.619	0.28
327.833	18.86
328.046	-14.06
328.26	-47.94
328.473	-24.75
328.686	-59.54
328.9	-67.82
329.113	-42.24
329.326	-67.32
329.54	-50.86
329.753	-56.27
329.966	-81.55
330.179	-96.03
330.393	-51.12
330.606	-57.49
330.819	-23.94
331.032	-8.97
331.246	4.39
331.459	34.29
331.672	25.45
331.885	20.3
332.098	-3.36
332.311	-11.81
332.525	-90.25
332.738	-76.01
332.951	-51.47
333.164	-1.77
333.377	13.64
333.59	47.78
333.803	59.66
334.016	52.77
334.229	36.97
334.442	25.05
334.655	27.14
334.868	23.82
335.081	8.35
335.294	8.7
335.507	-11.35
335.72	-19.17
335.933	-26.82
336.146	-28.17
336.359	-33.84
336.572	-55.34
336.785	-70.78
336.997	-58.36
337.21	-28.23
337.423	-31.04
337.636	-17.78
337.849	-6.19
338.062	-21.92
338.274	-26.47
338.487	-36.81
338.7	-17.13
338.913	-68.08
339.125	-89.09
339.338	-141.61
339.551	-108.6
339.763	-90.87
339.976	-48.24
340.189	-11
340.402	3.02
340.614	-6.24
340.827	-4.97
341.039	-12.26
341.252	-30.75
341.465	-24.32
341.677	-34
341.89	-87.5
342.102	-56.82
342.315	-59.3
342.527	-96.32
342.74	-77.83
342.952	-28.88
343.165	-27.73
343.377	1.54
343.59	-9.65
343.802	14.54
344.015	16.61
344.227	19.73
344.44	5.64
344.652	14
344.864	-17.48
345.077	6.67
345.289	14.09
345.502	9.58
345.714	13.28
345.926	21.06
346.139	6.68
346.351	-7.62
346.563	4.7
346.775	4.22
346.988	5.66
347.2	-16.77
347.412	-50.98
347.624	-73.07
347.837	-82.74
348.049	-85.6
348.261	-23.39
348.473	-9.89
348.685	-10.62
348.897	-15.73
349.11	-24.17
349.322	-56.28
349.534	-38.12
349.746	-30.24
349.958	-18.48
350.17	-7.33
350.382	0.33
350.594	6.75
350.806	4.73
351.018	2.38
351.23	-23.82
351.442	-77.02
351.654	-105.76
351.866	-84.18
352.078	-48.39
352.29	-12.75
352.502	7.44
352.714	19.97
352.926	4.34
353.138	-3.37
353.35	-18.02
353.561	-18.91
353.773	-39.37
353.985	-17.25
354.197	-34.18
354.409	-33.31
354.621	-37.21
354.832	-25.02
355.044	-36.09
355.256	-34.37
355.468	-18.67
355.679	-20.12
355.891	-12.46
356.103	-24.75
356.314	-9.4
356.526	-20.68
356.738	-26.57
356.949	-52.98
357.161	-44.09
357.373	-49.32
357.584	-53.56
357.796	-26.27
358.008	-29.9
358.219	1.88
358.431	-9.85
358.642	-2.06
358.854	-10.3
359.065	-6.98
359.277	-52.34
359.488	-43.76
359.7	-72.2
359.911	-79.54
360.123	-60.08
360.334	-77.67
360.546	-99.68
360.757	-96.69
360.969	-86.74
361.18	-90.32
361.391	-54.58
361.603	-54.99
361.814	-24.07
362.025	-32.62
362.237	-30.01
362.448	-12.84
362.659	10.63
362.871	15.77
363.082	24.79
363.293	25
363.504	0.57
363.716	-15.86
363.927	-36.03
364.138	-63.39
364.349	-81.5
364.56	-68.94
364.772	-65.6
364.983	-37.55
365.194	-38.37
365.405	-21.23
365.616	4.48
365.827	3.02
366.038	-31.64
366.25	-30.11
366.461	-61.9
366.672	-49.19
366.883	-31.32
367.094	-13.1
367.305	-18.76
367.516	-4.18
367.727	-37.51
367.938	-51.22
368.149	-58.95
368.36	-49.9
368.571	-51.59
368.781	-66.18
368.992	-81.89
369.203	-94.89
369.414	-109.01
369.625	-107.96
369.836	-80.62
370.047	-92.04
370.258	-73.4
370.468	-81
370.679	-96.51
370.89	-90.71
371.101	-70.71
371.312	-85.91
371.522	-63.34
371.733	-46.75
371.944	-30.55
372.155	-6.68
372.365	-12.69
372.576	-25.51
372.787	-34.44
372.997	-73
373.208	-87.01
373.419	-44.4
373.629	-65.2
373.84	-60.94
374.05	-51.4
374.261	-31.96
374.472	-47.01
374.682	1.74
374.893	8.11
375.103	41.05
375.314	30.87
375.524	22.5
375.735	16.73
375.945	25.91
376.156	-9.3
376.366	-7.57
376.577	-5.26
376.787	-13.26
376.997	-8.82
377.208	-4.75
377.418	-17.38
377.629	-4.39
377.839	-6.88
378.049	-22.11
378.26	-6.74
378.47	1.49
378.68	-10.84
378.89	-14.98
379.101	-8.17
379.311	-35.74
379.521	-62.51
379.732	-58.88
379.942	-56.16
380.152	-89.56
380.362	-55.02
380.572	-39.58
380.783	-29.2
380.993	-20.37
381.203	1.25
381.413	3.37
381.623	1.91
381.833	2.28
382.043	-7
382.253	-17.53
382.463	-14.69
382.674	-24.51
382.884	-44.27
383.094	-37.04
383.304	-27.59
383.514	-22.96
383.724	-6.69
383.934	-14.68
384.144	-24.66
384.353	-30.23
384.563	-38.45
384.773	-35.66
384.983	-32.24
385.193	-16.69
385.403	-10.69
385.613	-8.81
385.823	-18.71
386.033	-10.52
386.242	-14.23
386.452	-20.76
386.662	-29.32
386.872	-14.75
387.082	-21.45
387.291	-34.78
387.501	-38.02
387.711	-23.92
387.921	-35.39
388.13	-30.07
388.34	-8.09
388.55	-10.47
388.759	-14.77
388.969	-3.19
389.179	-2.53
389.388	-9.52
389.598	1.14
389.807	-5.21
390.017	-16.53
390.227	-16.4
390.436	-16.97
390.646	-18.62
390.855	-12.44
391.065	-10.16
391.274	-13.35
391.484	-14.7
391.693	-13.39
391.903	-12.93
392.112	-8.12
392.322	-4.64
392.531	-1.58
392.74	-1.2
392.95	-3.48
393.159	-5.57
393.369	-5.03
393.578	-5.19
393.787	-7.31
393.997	-6.45
394.206	-7.03
394.415	-7.7
394.625	-8.5
394.834	-10.25
395.043	-7.64
395.252	-5.34
395.462	-2.02
395.671	0.25
395.88	2.67
396.089	2.54
396.298	1.27
396.508	-0.18
396.717	-1.65
396.926	-1.38
397.135	-1.85
397.344	-1.52
397.553	-0.97
397.762	0.69
397.971	1.08
398.181	1.78
398.39	1.17
398.599	1.01
398.808	0.67
399.017	0.98
399.226	1.74
399.435	3.33
399.644	3.33
399.853	2.33
400.062	1.66
400.27	0.91
400.479	-0.04
400.688	-0.52
400.897	-0.07
401.106	0.17
401.315	-0.1
401.524	-0.02
401.733	0.65
401.941	0.96
402.15	1.2
402.359	1.19
402.568	1.74
402.777	1.73
402.985	1.71
403.194	1.44
403.403	1.7
403.612	1.03
403.82	0.91
404.029	1.03
404.238	1.05
404.446	1.32
404.655	1.37
404.864	1.16
405.072	0.75
405.281	0.84
405.489	0.54
405.698	0.6
405.906	0.67
406.115	0.71
406.324	0.69
406.532	0.74
406.741	0.95
406.949	0.99
407.158	1.13
407.366	1.11
407.574	1.15
407.783	1.21
407.991	1.02
408.2	1.19
408.408	1.06
408.617	0.98
408.825	0.76
409.033	0.98
409.242	0.96
409.45	1.17
409.658	1.08
409.867	1.32
410.075	1.13
410.283	1.08
410.491	0.96
410.7	0.83
410.908	0.66
411.116	1.14
411.324	1.09
411.533	1.04
411.741	1.36
411.949	1.31
412.157	0.84
412.365	0.83
412.573	0.84
412.781	0.77
412.99	0.81
413.198	1.06
413.406	1.06
413.614	1.13
413.822	1.11
414.03	1.02
414.238	0.86
414.446	0.91
414.654	0.73
414.862	0.77
415.07	0.84
415.278	1.04
415.486	0.8
415.694	0.93
415.902	0.73
416.109	0.61
416.317	0.52
416.525	0.48
416.733	0.52
416.941	0.78
417.149	0.74
417.357	0.75
417.564	0.94
417.772	1.11
417.98	0.96
418.188	1.01
418.395	1.04
418.603	1.11
418.811	0.73
419.019	0.69
419.226	0.9
419.434	0.93
419.642	0.72
419.849	0.95
420.057	1.02
420.265	1.04
420.472	0.83
420.68	0.93
420.887	0.7
421.095	0.8
421.302	0.59
421.51	0.81
421.717	0.92
421.925	1.1
422.132	0.8
422.34	0.69
422.547	0.68
422.755	0.53
422.962	0.47
423.17	0.58
423.377	0.73
423.585	0.77
423.792	0.79
423.999	0.79
424.207	0.79
424.414	0.91
424.621	0.84
424.829	0.81
425.036	0.87
425.243	1.03
425.451	0.83
425.658	0.57
425.865	0.84
426.072	0.85
426.28	1.14
426.487	1.14
426.694	1.21
426.901	0.92
427.108	0.78
427.315	0.44
427.523	0.64
427.73	0.75
427.937	0.76
428.144	0.67
428.351	0.57
428.558	0.66
428.765	0.65
428.972	0.58
429.179	0.83
429.386	1.26
429.593	1.02
429.8	0.82
430.007	1.06
430.214	1.14
430.421	0.71
430.628	0.64
430.835	0.64
431.042	0.76
431.249	0.64
431.456	0.7
431.662	0.85
431.869	1.09
432.076	1.05
432.283	1.13
432.49	1.19
432.697	1.09
432.903	0.76
433.11	0.62
433.317	0.71
433.524	0.8
433.73	0.86
433.937	1.23
434.144	1.2
434.35	1.05
434.557	0.85
434.764	0.81
434.97	0.61
435.177	0.68
435.384	0.64
435.59	0.73
435.797	0.91
436.003	0.98
436.21	1
436.416	1.18
436.623	1.2
436.829	1.27
437.036	1.38
437.242	1.39
437.449	1.18
437.655	1.19
437.862	1.07
438.068	0.95
438.275	0.98
438.481	1.23
438.687	1.15
438.894	1.13
439.1	1.15
439.307	1.26
439.513	1.12
439.719	1.17
439.926	1.33
440.132	1.27
440.338	1.12
440.544	1.28
440.751	1.27
440.957	1.23
441.163	1.18
441.369	1.26
441.575	1
441.782	1.01
441.988	0.79
442.194	0.89
442.4	0.91
442.606	1.12
442.812	1.16
443.018	1.37
443.224	1.42
443.431	1.49
443.637	1.3
443.843	1.24
444.049	1.17
444.255	1.08
444.461	1.07
444.667	1.06
444.873	1.15
445.079	1.16
445.284	1.27
445.49	1
445.696	0.92
445.902	0.83
446.108	0.74
446.314	0.64
446.52	0.74
446.726	0.98
446.931	1.01
447.137	1.1
447.343	1.14
447.549	1.1
447.755	1.01
447.96	1.07
448.166	0.97
448.372	0.9
448.578	0.99
448.783	0.94
448.989	0.99
449.195	1.15
449.4	1.21
449.606	1.11
449.812	1.07
450.017	1.02
450.223	0.93
450.428	0.84
450.634	1.02
450.84	1.17
451.045	1.12
451.251	1.09
451.456	1.37
451.662	1.43
451.867	1.46
452.073	1.47
452.278	1.63
452.483	1.66
452.689	1.51
452.894	1.52
453.1	1.54
453.305	1.44
453.51	1.28
453.716	1.24
453.921	1.23
454.127	1.16
454.332	1.1
454.537	1.04
454.742	1.05
454.948	1.02
455.153	1.09
455.358	1.18
455.563	1.41
455.769	1.57
455.974	1.54
456.179	1.4
456.384	1.41
456.589	1.26
456.795	0.98
457	0.96
457.205	1.24
457.41	1.1
457.615	1.1
457.82	1.21
458.025	1.26
458.23	1.11
458.435	1.23
458.64	1.09
458.845	1.21
459.05	1.12
459.255	1.15
459.46	1.14
459.665	1.21
459.87	1.2
460.075	1.26
460.28	1.28
460.485	1.37
460.69	1.36
460.895	1.22
461.099	1.2
461.304	1.24
461.509	1.21
461.714	1.16
461.919	1.31
462.123	1.22
462.328	1.23
462.533	1.06
462.738	1.2
462.942	1.04
463.147	1.11
463.352	1.16
463.556	1.3
463.761	1.25
463.966	1.32
464.17	1.34
464.375	1.2
464.58	1.14
464.784	1.15
464.989	1.13
465.193	1.15
465.398	1.15
465.602	1.22
465.807	1.2
466.011	1.28
466.216	1.3
466.42	1.33
466.625	1.34
466.829	1.41
467.034	1.42
467.238	1.57
467.443	1.59
467.647	1.44
467.851	1.48
468.056	1.54
468.26	1.38
468.464	1.39
468.669	1.61
468.873	1.71
469.077	1.61
469.282	1.76
469.486	1.76
469.69	1.68
469.894	1.49
470.099	1.58
470.303	1.58
470.507	1.51
470.711	1.44
470.915	1.44
471.119	1.35
471.324	1.32
471.528	1.36
471.732	1.4
471.936	1.47
472.14	1.55
472.344	1.54
472.548	1.59
472.752	1.85
472.956	2.04
473.16	1.96
473.364	1.84
473.568	1.82
473.772	1.69
473.976	1.54
474.18	1.51
474.384	1.62
474.588	1.62
474.792	1.5
474.995	1.54
475.199	1.64
475.403	1.67
475.607	1.67
475.811	1.65
476.015	1.65
476.218	1.72
476.422	1.56
476.626	1.66
476.83	1.78
477.033	1.78
477.237	1.61
477.441	1.76
477.644	1.68
477.848	1.68
478.052	1.61
478.255	1.71
478.459	1.67
478.663	1.84
478.866	1.83
479.07	1.88
479.273	2.02
479.477	2.09
479.681	1.96
479.884	1.93
480.088	1.88
480.291	1.77
480.495	1.72
480.698	1.77
480.901	1.82
481.105	1.94
481.308	1.94
481.512	1.93
481.715	1.99
481.919	1.97
482.122	1.94
482.325	1.95
482.529	2.02
482.732	2.01
482.935	1.97
483.138	1.92
483.342	2.03
483.545	2.08
483.748	2.08
483.952	2.13
484.155	2.25
484.358	2.27
484.561	2.2
484.764	2.19
484.967	2.26
485.171	2.34
485.374	2.22
485.577	2.31
485.78	2.34
485.983	2.36
486.186	2.2
486.389	2.18
486.592	2.12
486.795	2.13
486.998	2.02
487.201	2.11
487.404	2.25
487.607	2.3
487.81	2.27
488.013	2.33
488.216	2.27
488.419	2.22
488.622	2.13
488.825	2.03
489.028	2
489.231	2.01
489.433	1.94
489.636	1.95
489.839	1.98
490.042	1.91
490.245	1.91
490.447	1.93
490.65	1.94
490.853	1.99
491.056	2.05
491.258	2.08
491.461	2.12
491.664	2.24
491.866	2.12
492.069	2.21
492.272	2.16
492.474	2.2
492.677	2.23
492.879	2.37
493.082	2.43
493.285	2.55
493.487	2.52
493.69	2.43
493.892	2.36
494.095	2.25
494.297	2.17
494.5	2.18
494.702	2.18
494.905	2.26
495.107	2.26
495.309	2.28
495.512	2.35
495.714	2.37
495.917	2.4
496.119	2.39
496.321	2.46
496.524	2.4
496.726	2.42
496.928	2.4
497.13	2.42
497.333	2.36
497.535	2.4
497.737	2.35
497.939	2.34
498.142	2.39
498.344	2.37
498.546	2.25
498.748	2.33
498.95	2.47
499.152	2.44
499.355	2.5
499.557	2.61
499.759	2.7
499.961	2.62
500.163	2.69
500.365	2.66
500.567	2.74
500.769	2.64
500.971	2.61
501.173	2.57
501.375	2.66
501.577	2.5
501.779	2.53
501.981	2.53
502.183	2.53
502.385	2.45
502.587	2.46
502.788	2.51
502.99	2.56
503.192	2.56
503.394	2.54
503.596	2.59
503.798	2.61
503.999	2.63
504.201	2.65
504.403	2.74
504.605	2.78
504.806	2.71
505.008	2.66
505.21	2.8
505.411	2.76
505.613	2.85
505.815	2.87
506.016	2.92
506.218	2.96
506.42	2.98
506.621	2.91
506.823	2.96
507.024	2.94
507.226	2.83
507.427	2.82
507.629	2.84
507.83	2.92
508.032	2.91
508.233	3.01
508.435	3.06
508.636	3.12
508.838	3.01
509.039	3.02
509.24	2.99
509.442	3.01
509.643	2.94
509.845	2.98
510.046	3.08
510.247	3.08
510.448	3.04
510.65	3.13
510.851	3.26
511.052	3.2
511.254	3.23
511.455	3.33
511.656	3.36
511.857	3.36
512.058	3.4
512.26	3.41
512.461	3.33
512.662	3.36
512.863	3.24
513.064	3.22
513.265	3.2
513.466	3.28
513.667	3.24
513.868	3.31
514.069	3.36
514.27	3.42
514.471	3.38
514.672	3.41
514.873	3.35
515.074	3.39
515.275	3.27
515.476	3.29
515.677	3.27
515.878	3.43
516.079	3.43
516.28	3.55
516.481	3.63
516.682	3.72
516.882	3.58
517.083	3.54
517.284	3.47
517.485	3.42
517.686	3.34
517.886	3.42
518.087	3.46
518.288	3.54
518.488	3.52
518.689	3.54
518.89	3.48
519.091	3.48
519.291	3.45
519.492	3.48
519.692	3.54
519.893	3.63
520.094	3.61
520.294	3.64
520.495	3.63
520.695	3.64
520.896	3.62
521.096	3.68
521.297	3.71
521.497	3.72
521.698	3.68
521.898	3.68
522.099	3.71
522.299	3.8
522.499	3.85
522.7	3.9
522.9	3.89
523.101	3.95
523.301	3.91
523.501	3.89
523.702	3.95
523.902	4
524.102	4.08
524.302	4.04
524.503	4.11
524.703	4.08
524.903	4.11
525.103	4.01
525.304	4.13
525.504	4.2
525.704	4.24
525.904	4.21
526.104	4.2
526.304	4.14
526.504	4.15
526.705	4.17
526.905	4.28
527.105	4.26
527.305	4.26
527.505	4.14
527.705	4.1
527.905	4.06
528.105	4.1
528.305	4.04
528.505	4.15
528.705	4.23
528.905	4.17
529.105	4.17
529.304	4.28
529.504	4.32
529.704	4.24
529.904	4.31
530.104	4.36
530.304	4.41
530.503	4.36
530.703	4.35
530.903	4.3
531.103	4.32
531.303	4.25
531.502	4.3
531.702	4.44
531.902	4.55
532.101	4.53
532.301	4.52
532.501	4.48
532.7	4.44
532.9	4.44
533.1	4.49
533.299	4.57
533.499	4.65
533.698	4.59
533.898	4.56
534.097	4.53
534.297	4.56
534.496	4.53
534.696	4.61
534.895	4.74
535.095	4.87
535.294	4.84
535.494	4.82
535.693	4.85
535.892	4.84
536.092	4.71
536.291	4.71
536.491	4.82
536.69	4.86
536.889	4.76
537.088	4.81
537.288	4.89
537.487	4.96
537.686	4.97
537.886	5.07
538.085	5.13
538.284	5.23
538.483	5.2
538.682	5.29
538.882	5.3
539.081	5.34
539.28	5.23
539.479	5.18
539.678	5.08
539.877	5.19
540.076	5.18
540.275	5.26
540.474	5.39
540.673	5.47
540.872	5.4
541.071	5.47
541.27	5.48
541.469	5.54
541.668	5.56
541.867	5.62
542.066	5.67
542.265	5.76
542.464	5.64
542.663	5.63
542.862	5.77
543.06	5.81
543.259	5.83
543.458	5.98
543.657	6.09
543.856	6.11
544.054	6.07
544.253	6.07
544.452	6.01
544.651	6.04
544.849	5.98
545.048	6.11
545.247	6.12
545.445	6.24
545.644	6.25
545.843	6.27
546.041	6.23
546.24	6.35
546.438	6.44
546.637	6.49
546.836	6.69
547.034	6.83
547.233	6.84
547.431	6.8
547.63	6.84
547.828	6.75
548.027	6.72
548.225	6.74
548.423	6.77
548.622	6.86
548.82	6.9
549.019	6.97
549.217	7.09
549.415	7.15
549.614	7.17
549.812	7.19
550.01	7.19
550.209	7.23
550.407	7.31
550.605	7.34
550.803	7.51
551.002	7.63
551.2	7.65
551.398	7.78
551.596	7.94
551.794	8.02
551.993	8.04
552.191	8.13
552.389	8.2
552.587	8.19
552.785	8.22
552.983	8.32
553.181	8.43
553.379	8.5
553.577	8.58
553.775	8.65
553.973	8.69
554.171	8.79
554.369	8.77
554.567	8.8
554.765	8.93
554.963	9.05
555.161	8.99
555.359	9.13
555.557	9.3
555.755	9.35
555.952	9.48
556.15	9.61
556.348	9.76
556.546	9.84
556.744	9.92
556.941	9.93
557.139	10.07
557.337	10.07
557.535	10.06
557.732	10.18
557.93	10.36
558.128	10.43
558.325	10.56
558.523	10.61
558.721	10.67
558.918	10.7
559.116	10.82
559.313	10.9
559.511	11.13
559.708	11.17
559.906	11.23
560.104	11.26
560.301	11.31
560.498	11.34
560.696	11.47
560.893	11.62
561.091	11.73
561.288	11.87
561.486	11.98
561.683	12.09
561.88	12.12
562.078	12.22
562.275	12.27
562.473	12.38
562.67	12.51
562.867	12.65
563.064	12.77
563.262	12.87
563.459	13.02
563.656	13.23
563.853	13.29
564.051	13.38
564.248	13.53
564.445	13.59
564.642	13.56
564.839	13.72
565.036	13.84
565.234	13.97
565.431	14.06
565.628	14.17
565.825	14.29
566.022	14.41
566.219	14.45
566.416	14.58
566.613	14.58
566.81	14.71
567.007	14.72
567.204	14.73
567.401	14.68
567.598	14.79
567.795	14.74
567.991	14.85
568.188	15.05
568.385	15.28
568.582	15.38
568.779	15.58
568.976	15.72
569.172	15.83
569.369	15.78
569.566	15.84
569.763	15.83
569.96	15.8
570.156	15.76
570.353	15.82
570.55	15.89
570.746	15.93
570.943	16.03
571.14	16.08
571.336	16.19
571.533	16.25
571.729	16.33
571.926	16.39
572.123	16.48
572.319	16.52
572.516	16.57
572.712	16.65
572.909	16.65
573.105	16.68
573.302	16.8
573.498	16.85
573.695	16.82
573.891	16.91
574.087	16.98
574.284	16.95
574.48	16.93
574.677	16.94
574.873	16.96
575.069	17.01
575.266	17.11
575.462	17.13
575.658	17.24
575.854	17.3
576.051	17.3
576.247	17.18
576.443	17.15
576.639	17.12
576.835	17.08
577.032	16.95
577.228	17.15
577.424	17.25
577.62	17.23
577.816	17.24
578.012	17.31
578.208	17.18
578.404	17.16
578.6	17.2
578.796	17.2
578.993	17.28
579.189	17.27
579.384	17.22
579.58	17.21
579.776	17.25
579.972	17.2
580.168	17.15
580.364	17.22
580.56	17.21
580.756	17.24
580.952	17.16
581.148	17.21
581.343	17.22
581.539	17.21
581.735	17.18
581.931	17.31
582.127	17.35
582.322	17.29
582.518	17.33
582.714	17.36
582.909	17.31
583.105	17.24
583.301	17.26
583.496	17.25
583.692	17.09
583.888	17.07
584.083	17.2
584.279	17.23
584.474	17.25
584.67	17.36
584.866	17.36
585.061	17.18
585.257	17.25
585.452	17.25
585.648	17.22
585.843	17.27
586.039	17.37
586.234	17.28
586.429	17.15
586.625	17.19
586.82	17.13
587.015	17.13
587.211	17.02
587.406	17.07
587.601	17.01
587.797	16.98
587.992	16.95
588.187	17.14
588.383	17.17
588.578	17.23
588.773	17.31
588.968	17.41
589.163	17.4
589.359	17.39
589.554	17.43
589.749	17.48
589.944	17.49
590.139	17.47
590.334	17.5
590.529	17.59
590.724	17.59
590.919	17.63
591.114	17.67
591.309	17.79
591.504	17.78
591.699	17.75
591.894	17.8
592.089	17.83
592.284	17.83
592.479	17.91
592.674	17.92
592.869	17.98
593.064	18.12
593.259	18.27
593.454	18.34
593.648	18.5
593.843	18.53
594.038	18.48
594.233	18.41
594.428	18.41
594.622	18.42
594.817	18.54
595.012	18.64
595.206	18.69
595.401	18.78
595.596	18.9
595.79	18.95
595.985	19.12
596.18	19.25
596.374	19.36
596.569	19.44
596.763	19.46
596.958	19.48
597.153	19.65
597.347	19.57
597.542	19.66
597.736	19.67
597.931	19.75
598.125	19.73
598.319	19.99
598.514	20.06
598.708	20.28
598.903	20.36
599.097	20.43
599.291	20.44
599.486	20.48
599.68	20.37
599.874	20.45
600.069	20.49
600.263	20.46
600.457	20.5
600.651	20.62
600.846	20.63
601.04	20.62
601.234	20.65
601.428	20.81
601.622	20.88
601.817	20.94
602.011	21.08
602.205	21.22
602.399	21.05
602.593	21.02
602.787	21.03
602.981	20.99
603.175	21.02
603.369	21.05
603.563	21.1
603.757	21.1
603.951	21.14
604.145	21.05
604.339	21.07
604.533	21.01
604.727	20.94
604.921	20.87
605.115	20.91
605.309	21.01
605.502	21.08
605.696	21.14
605.89	21.14
606.084	21.07
606.278	20.95
606.471	20.84
606.665	20.78
606.859	20.68
607.053	20.57
607.246	20.49
607.44	20.45
607.634	20.37
607.827	20.4
608.021	20.37
608.214	20.35
608.408	20.38
608.602	20.26
608.795	20.13
608.989	20.15
609.182	20.11
609.376	20.07
609.569	20.05
609.763	20
609.956	19.88
610.15	19.75
610.343	19.62
610.537	19.61
610.73	19.61
610.923	19.58
611.117	19.6
611.31	19.57
611.504	19.49
611.697	19.4
611.89	19.33
612.083	19.15
612.277	19.06
612.47	18.92
612.663	18.85
612.856	18.73
613.05	18.7
613.243	18.57
613.436	18.46
613.629	18.4
613.822	18.27
614.015	18.15
614.209	18.05
614.402	18.1
614.595	17.99
614.788	18.06
614.981	18.04
615.174	17.96
615.367	17.8
615.56	17.71
615.753	17.59
615.946	17.48
616.139	17.51
616.332	17.6
616.525	17.6
616.718	17.58
616.911	17.66
617.103	17.61
617.296	17.53
617.489	17.47
617.682	17.35
617.875	17.27
618.067	17.24
618.26	17.13
618.453	17.14
618.646	17.17
618.838	17.17
619.031	17.22
619.224	17.23
619.417	17.12
619.609	17.15
619.802	17.1
619.994	17.01
620.187	17.01
620.38	17
620.572	16.94
620.765	16.87
620.957	16.75
621.15	16.64
621.342	16.6
621.535	16.6
621.727	16.49
621.92	16.43
622.112	16.4
622.305	16.41
622.497	16.2
622.69	16.22
622.882	16.29
623.074	16.34
623.267	16.29
623.459	16.32
623.651	16.31
623.844	16.26
624.036	16.2
624.228	16.1
624.42	16.18
624.613	16.3
624.805	16.32
624.997	16.29
625.189	16.29
625.381	16.22
625.574	16.04
625.766	15.84
625.958	15.87
626.15	15.99
626.342	16.03
626.534	16.05
626.726	16.1
626.918	16.02
627.11	15.86
627.302	15.75
627.494	15.65
627.686	15.66
627.878	15.61
628.07	15.63
628.262	15.63
628.454	15.65
628.646	15.73
628.838	15.74
629.029	15.65
629.221	15.73
629.413	15.64
629.605	15.45
629.797	15.41
629.989	15.43
630.18	15.33
630.372	15.33
630.564	15.42
630.755	15.44
630.947	15.47
631.139	15.3
631.33	15.19
631.522	15.19
631.714	15.18
631.905	15.09
632.097	15.13
632.289	15.17
632.48	15.07
632.672	14.94
632.863	14.8
633.055	14.72
633.246	14.72
633.438	14.65
633.629	14.72
633.821	14.84
634.012	14.91
634.203	14.8
634.395	14.87
634.586	14.79
634.777	14.71
634.969	14.71
635.16	14.82
635.351	14.77
635.543	14.8
635.734	14.84
635.925	14.77
636.117	14.78
636.308	14.75
636.499	14.68
636.69	14.52
636.881	14.52
637.073	14.55
637.264	14.53
637.455	14.61
637.646	14.79
637.837	14.88
638.028	14.78
638.219	14.79
638.41	14.72
638.601	14.68
638.792	14.63
638.983	14.66
639.174	14.56
639.365	14.64
639.556	14.56
639.747	14.46
639.938	14.51
640.129	14.59
640.32	14.4
640.511	14.49
640.701	14.63
640.892	14.48
641.083	14.53
641.274	14.67
641.465	14.57
641.655	14.43
641.846	14.44
642.037	14.35
642.228	14.29
642.418	14.33
642.609	14.33
642.8	14.42
642.99	14.35
643.181	14.42
643.372	14.4
643.562	14.41
643.753	14.3
643.943	14.25
644.134	14.04
644.324	13.97
644.515	13.94
644.705	14.01
644.896	14.09
645.086	14.17
645.277	14.15
645.467	14.13
645.658	14.01
645.848	13.97
646.038	14.06
646.229	14.11
646.419	14.04
646.61	13.99
646.8	13.93
646.99	13.8
647.18	13.71
647.371	13.72
647.561	13.73
647.751	13.71
647.941	13.62
648.132	13.6
648.322	13.65
648.512	13.71
648.702	13.75
648.892	13.81
649.082	13.85
649.272	13.69
649.462	13.49
649.653	13.34
649.843	13.22
650.033	13.2
650.223	13.19
650.413	13.34
650.603	13.47
650.793	13.57
650.983	13.47
651.172	13.5
651.362	13.35
651.552	13.13
651.742	12.95
651.932	12.95
652.122	12.89
652.312	12.96
652.502	13.01
652.691	13.05
652.881	12.96
653.071	12.91
653.261	12.7
653.45	12.61
653.64	12.6
653.83	12.44
654.019	12.26
654.209	12.18
654.399	12.2
654.588	11.99
654.778	11.96
654.968	11.81
655.157	11.68
655.347	11.33
655.536	11.19
655.726	11.03
655.915	10.9
656.105	10.84
656.294	10.95
656.484	10.79
656.673	10.69
656.863	10.67
657.052	10.46
657.241	10.15
657.431	10.03
657.62	9.87
657.809	9.54
657.999	9.39
658.188	9.16
658.377	8.92
658.567	8.79
658.756	8.72
658.945	8.53
659.134	8.4
659.324	8.22
659.513	8.05
659.702	7.86
659.891	7.8
660.08	7.72
660.269	7.7
660.458	7.56
660.648	7.49
660.837	7.28
661.026	7.25
661.215	7.07
661.404	6.85
661.593	6.75
661.782	6.59
661.971	6.37
662.16	6.19
662.349	6.16
662.538	6.01
662.726	5.98
662.915	5.81
663.104	5.71
663.293	5.67
663.482	5.7
663.671	5.52
663.86	5.47
664.048	5.43
664.237	5.37
664.426	5.11
664.615	5.12
664.803	5.1
664.992	4.95
665.181	4.8
665.369	4.71
665.558	4.59
665.747	4.53
665.935	4.62
666.124	4.68
666.312	4.74
666.501	4.76
666.69	4.71
666.878	4.6
667.067	4.47
667.255	4.47
667.444	4.64
667.632	4.64
667.82	4.79
668.009	4.71
668.197	4.64
668.386	4.44
668.574	4.53
668.762	4.33
668.951	4.28
669.139	4.3
669.327	4.2
669.516	4.29
669.704	4.28
669.892	4.46
670.08	4.46
670.269	4.41
670.457	4.18
670.645	4.06
670.833	4.16
671.021	4.12
671.21	4.23
671.398	4.43
671.586	4.45
671.774	4.29
671.962	4.32
672.15	4.41
672.338	4.26
672.526	4.42
672.714	4.32
672.902	4.33
673.09	4.42
673.278	4.72
673.466	4.68
673.654	4.98
673.842	5.14
674.03	5.18
674.218	4.92
674.405	5.07
674.593	4.96
674.781	5.1
674.969	5.07
675.157	5.41
675.344	5.49
675.532	5.66
675.72	5.59
675.908	5.63
676.095	5.46
676.283	5.5
676.471	5.62
676.658	5.7
676.846	5.82
677.033	5.97
677.221	5.99
677.409	5.82
677.596	5.89
677.784	5.88
677.971	5.89
678.159	6.04
678.346	6.15
678.534	6.19
678.721	6.48
678.909	6.52
679.096	6.57
679.283	6.85
679.471	6.88
679.658	6.87
679.846	7.2
680.033	7.4
680.22	7.35
680.408	7.46
680.595	7.49
680.782	7.36
680.969	7.38
681.157	7.45
681.344	7.62
681.531	7.67
681.718	7.76
681.905	7.89
682.093	8.15
682.28	8.35
682.467	8.73
682.654	8.91
682.841	9.05
683.028	9.26
683.215	9.44
683.402	9.37
683.589	9.71
683.776	9.92
683.963	9.87
684.15	9.99
684.337	10.23
684.524	10.31
684.711	10.61
684.898	10.72
685.085	10.89
685.271	11.24
685.458	11.45
685.645	11.52
685.832	12.11
686.019	12.58
686.205	12.69
686.392	12.97
686.579	13.4
686.766	13.71
686.952	13.81
687.139	14.41
687.326	14.65
687.512	14.83
687.699	15.05
687.886	15.45
688.072	15.69
688.259	16.37
688.445	16.87
688.632	17.14
688.818	17.86
689.005	18.34
689.191	18.65
689.378	19.26
689.564	19.89
689.751	20.3
689.937	20.76
690.124	21.31
690.31	21.72
690.496	22.35
690.683	22.76
690.869	23.22
691.055	23.83
691.242	24.48
691.428	25.13
691.614	25.73
691.8	26.5
691.987	27.15
692.173	27.89
692.359	28.58
692.545	29.32
692.731	29.92
692.918	30.54
693.104	31.05
693.29	31.62
693.476	32.32
693.662	33.06
693.848	33.49
694.034	34.05
694.22	34.65
694.406	35.33
694.592	35.98
694.778	36.76
694.964	37.43
695.15	38.28
695.336	38.75
695.522	39.44
695.708	40.15
695.894	40.93
696.08	41.45
696.265	42.23
696.451	42.73
696.637	43.34
696.823	43.79
697.009	44.23
697.194	44.67
697.38	45.27
697.566	45.74
697.751	46.54
697.937	47.3
698.123	47.9
698.308	48.68
698.494	49.37
698.68	49.85
698.865	50.23
699.051	50.88
699.236	51.28
699.422	51.73
699.607	52.13
699.793	52.64
699.978	52.73
700.164	52.9
700.349	53.43
700.535	53.79
700.72	54.32
700.906	55.18
701.091	55.63
701.276	56.06
701.462	57.26
701.647	57.8
701.832	58.08
702.018	58.71
702.203	59.05
702.388	58.68
702.573	58.82
702.759	59.32
702.944	59.63
703.129	59.91
703.314	60.26
703.499	60.72
703.684	61.06
703.87	61.8
704.055	62.63
704.24	63.04
704.425	63.51
704.61	63.78
704.795	63.63
704.98	63.48
705.165	63.5
705.35	63.51
705.535	63.8
705.72	64.21
705.905	64.87
706.09	65.72
706.275	66.07
706.459	65.92
706.644	65.97
706.829	65.97
707.014	65.71
707.199	66.22
707.384	66.74
707.568	66.75
707.753	67.23
707.938	67.62
708.123	67.48
708.307	67.69
708.492	67.73
708.677	67.83
708.861	67.68
709.046	67.49
709.231	68.02
709.415	68.47
709.6	67.97
709.784	68.28
709.969	68.91
710.153	68.38
710.338	68.7
710.522	68.94
710.707	69.18
710.891	69.03
711.076	69.31
711.26	69.52
711.445	69.63
711.629	69.97
711.813	70.27
711.998	70.49
712.182	70.27
712.366	71.24
712.551	71.65
712.735	71.94
712.919	72.03
713.103	72.25
713.288	71.98
713.472	71.87
713.656	72.2
713.84	72.58
714.024	73.08
714.208	72.65
714.393	72.74
714.577	72.63
714.761	72.64
714.945	72.61
715.129	72.95
715.313	72.89
715.497	72.76
715.681	73.33
715.865	73.1
716.049	73.16
716.233	73.04
716.417	73.51
716.601	72.92
716.785	72.99
716.968	73.39
717.152	73.77
717.336	73.81
717.52	74.09
717.704	74.28
717.888	74.41
718.071	74.3
718.255	74.42
718.439	74.43
718.622	74.63
718.806	74.8
718.99	74.63
719.174	74.54
719.357	74.62
719.541	74.86
719.724	74.19
719.908	75.02
720.092	75.57
720.275	75.72
720.459	75.39
720.642	75.64
720.826	75.16
721.009	74.48
721.193	73.84
721.376	74.12
721.559	74.56
721.743	74.78
721.926	75.35
722.11	76.22
722.293	75.98
722.476	75.66
722.66	75.51
722.843	75.26
723.026	74.25
723.21	74.43
723.393	75.24
723.576	74.94
723.759	74.51
723.942	75.03
724.126	75.29
724.309	75.02
724.492	75.7
724.675	75.85
724.858	76.53
725.041	76.89
725.224	77.1
725.407	77.12
725.59	77.56
725.774	77.1
725.957	75.78
726.14	75.17
726.322	74.89
726.505	74.68
726.688	75.42
726.871	76.22
727.054	76.95
727.237	77.08
727.42	77.06
727.603	76.55
727.786	76.85
727.968	76.87
728.151	77.29
728.334	77.62
728.517	77.62
728.699	77.75
728.882	77.51
729.065	77.68
729.248	78.53
729.43	79.14
729.613	79.72
729.796	80.61
729.978	79.91
730.161	79.01
730.343	78.76
730.526	78.79
730.708	77.88
730.891	78.37
731.073	78.07
731.256	77.41
731.438	77.1
731.621	77.95
731.803	77.74
731.986	78.11
732.168	78.32
732.35	78.41
732.533	77.55
732.715	77.77
732.898	78.87
733.08	79.09
733.262	79.62
733.444	80.01
733.627	80.26
733.809	80.01
733.991	81.17
734.173	80.36
734.355	80.11
734.538	80.53
734.72	79.48
734.902	78.91
735.084	79.4
735.266	79.88
735.448	79.68
735.63	80.4
735.812	80.62
735.994	81.22
736.176	80.92
736.358	80.53
736.54	80.87
736.722	79.98
736.904	79.61
737.086	79.49
737.268	80.21
737.45	79.73
737.632	79.67
737.814	79.29
737.995	79.9
738.177	79.33
738.359	78.48
738.541	79.35
738.723	79.21
738.904	79.35
739.086	79.2
739.268	80.41
739.449	80.27
739.631	80.25
739.813	80.03
739.994	80.73
740.176	80.81
740.358	80.8
740.539	82.07
740.721	82.44
740.902	83.14
741.084	82.49
741.265	81.99
741.447	81.89
741.628	82.04
741.81	80.74
741.991	81.12
742.172	82.43
742.354	82.47
742.535	81.78
742.717	82.65
742.898	84.05
743.079	84.89
743.261	83.96
743.442	83.77
743.623	84.1
743.804	83.07
743.986	82.95
744.167	82.37
744.348	82.8
744.529	82.47
744.71	82.19
744.891	80.76
745.073	80.5
745.254	79.65
745.435	79.5
745.616	78.43
745.797	78.3
745.978	78.74
746.159	79.67
746.34	78.83
746.521	81.32
746.702	80.98
746.883	81.87
747.064	81.45
747.245	82.36
747.426	80.12
747.606	80.35
747.787	79.88
747.968	80.73
748.149	80.24
748.33	81.41
748.51	81.03
748.691	80.05
748.872	79.11
749.053	79.4
749.233	78.75
749.414	78.68
749.595	78.05
749.775	77.39
749.956	76.06
750.137	76.22
750.317	77.64
750.498	80.71
750.678	81.42
750.859	83.74
751.04	83.4
751.22	81.3
751.4	78.92
751.581	77.71
751.761	76.88
751.942	77.44
752.122	77.98
752.303	78.18
752.483	78.33
752.663	77.89
752.844	76.63
753.024	78.19
753.204	78.47
753.385	79.01
753.565	78.8
753.745	80.38
753.925	79.13
754.106	78.23
754.286	77.56
754.466	76.77
754.646	76.88
754.826	76.69
755.006	76.74
755.187	78.38
755.367	79.93
755.547	79.39
755.727	80.08
755.907	81.24
756.087	81.8
756.267	80.86
756.447	80.05
756.627	77.33
756.807	78.13
756.987	76.47
757.167	77.01
757.346	77.05
757.526	77.84
757.706	78.18
757.886	80.43
758.066	81.01
758.246	83.38
758.425	84.84
758.605	83.23
758.785	81.19
758.965	80.7
759.144	77.57
759.324	76.57
759.504	76.77
759.683	77.73
759.863	75.16
760.043	74.93
760.222	75.78
760.402	74.91
760.581	75.16
760.761	77.84
760.94	77.53
761.12	78.97
761.299	80.18
761.479	78.51
761.658	76.77
761.838	77.35
762.017	76.17
762.197	76.37
762.376	76.35
762.555	77.93
762.735	78.94
762.914	77.75
763.093	77.22
763.273	76.65
763.452	75.94
763.631	75.28
763.81	75.18
763.99	74.25
764.169	75.29
764.348	72.74
764.527	71.77
764.706	74.43
764.885	75.62
765.064	74.7
765.243	77.84
765.423	79
765.602	76.33
765.781	74.02
765.96	72.21
766.139	71.15
766.318	72.81
766.497	72.56
766.676	73.72
766.854	77.8
767.033	77.66
767.212	76.26
767.391	76.34
767.57	76.82
767.749	76.12
767.928	76.69
768.106	75.23
768.285	72.67
768.464	71.8
768.643	68.55
768.821	67.15
769	69.05
769.179	70.45
769.357	69.58
769.536	70.39
769.715	71.95
769.893	73.06
770.072	73.07
770.25	74.18
770.429	74.47
770.607	73.33
770.786	70.33
770.964	72.61
771.143	72.28
771.321	73.56
771.5	75.02
771.678	74.53
771.857	72.31
772.035	71.86
772.213	70.98
772.392	68.56
772.57	70.31
772.748	72.4
772.927	72.6
773.105	71.98
773.283	73.22
773.461	73.1
773.64	72.44
773.818	71.98
773.996	74
774.174	72.66
774.352	70.55
774.531	68.25
774.709	69.82
774.887	67.51
775.065	67.78
775.243	67.92
775.421	69.67
775.599	69.93
775.777	69.27
775.955	66.71
776.133	66.56
776.311	65.81
776.489	61.91
776.667	62.56
776.844	66.05
777.022	65.92
777.2	65.79
777.378	67.58
777.556	67.56
777.734	69.18
777.911	71.12
778.089	70.49
778.267	71.28
778.445	71.37
778.622	69.25
778.8	69.33
778.978	72.19
779.155	71.09
779.333	70.98
779.511	70.3
779.688	70.71
779.866	64.25
780.043	62.23
780.221	62.18
780.398	61.58
780.576	62.92
780.753	67.05
780.931	67.86
781.108	66.58
781.286	69.18
781.463	63.89
781.64	60.7
781.818	62.56
781.995	65.26
782.172	64.39
782.35	67.17
782.527	72.83
782.704	71.67
782.882	71.02
783.059	70.95
783.236	72.4
783.413	70.74
783.59	70.16
783.768	68.21
783.945	70.01
784.122	68.9
784.299	68.81
784.476	69.28
784.653	67.58
784.83	60.89
785.007	55.44
785.184	55.85
785.361	54.81
785.538	61.55
785.715	66.81
785.892	70.49
786.069	74.58
786.246	75.5
786.423	72.34
786.6	71.59
786.776	74.22
786.953	69.04
787.13	73.02
787.307	71.5
787.484	70.23
787.66	67.04
787.837	66.5
788.014	59.76
788.191	58.17
788.367	56.45
788.544	58.32
788.721	55.95
788.897	60.17
789.074	61.76
789.25	60.77
789.427	63.54
789.603	64.02
789.78	62.78
789.956	61.08
790.133	60.97
790.309	58.44
790.486	63.07
790.662	62.02
790.839	62.01
791.015	63.5
791.192	60.72
791.368	59.41
791.544	56.44
791.721	53.65
791.897	53.19
792.073	50.47
792.249	45.85
792.426	50.99
792.602	60.31
792.778	63.41
792.954	60.69
793.13	64.57
793.307	56.5
793.483	45.32
793.659	43.29
793.835	52.27
794.011	49.06
794.187	48.7
794.363	51.09
794.539	55.71
794.715	46.26
794.891	43.82
795.067	46.61
795.243	51.42
795.419	48.33
795.595	52.43
795.771	56.11
795.947	55.61
796.122	51.92
796.298	55.45
796.474	57.65
796.65	58.35
796.826	59.94
797.001	60.19
797.177	50.88
797.353	54.78
797.529	53.75
797.704	51.47
797.88	49.56
798.056	51.49
798.231	45.5
798.407	50.68
798.582	56.35
798.758	64.71
798.934	73.24
799.109	70.74
799.285	63.87
799.46	65.22
799.636	62.39
799.811	50.28
799.986	53.8
800.162	56.9
800.337	55.68
800.513	48.32
800.688	52.72
800.863	60.23
801.039	57.41
801.214	54.61
801.389	65.48
801.565	65.94
801.74	48.71
801.915	55.37
802.09	53.75
802.265	56.64
802.441	58.5
802.616	65.43
802.791	59.7
802.966	60.19
803.141	53.66
803.316	44.68
803.491	51.51
803.666	58.77
803.841	50.01
804.016	45.36
804.191	52.51
804.366	44.18
804.541	37.72
804.716	46.38
804.891	40.61
805.066	45.06
805.241	41.74
805.416	41.41
805.591	40.26
805.765	49.26
805.94	47.06
806.115	56.5
806.29	50.51
806.464	49.94
806.639	42.68
806.814	36.81
806.989	19.45
807.163	34.04
807.338	30.87
807.512	33.94
807.687	23.58
807.862	47.13
808.036	48.13
808.211	51.74
808.385	59.96
808.56	77.75
808.734	66.62
808.909	54.95
809.083	49.4
809.258	58.38
809.432	51.23
809.606	44.07
809.781	48.8
809.955	54.22
810.13	50.77
810.304	47.39
810.478	41.89
810.652	44.73
810.827	52.4
811.001	43.32
811.175	38.99
811.349	44.83
811.524	37.9
811.698	18.2
811.872	23.59
812.046	36.73
812.22	44.81
812.394	47.87
812.568	64.17
812.742	64.75
812.916	55.09
813.09	46.59
813.264	34.39
813.438	32.92
813.612	33.79
813.786	35.2
813.96	46.96
814.134	62.43
814.308	71.9
814.482	72.74
814.656	69.96
814.83	68.25
815.003	61.38
815.177	43.66
815.351	40.14
815.525	44.31
815.698	33.05
815.872	22.37
816.046	15.88
816.219	22.84
816.393	32.73
816.567	43.23
816.74	49.96
816.914	69.09
817.088	66.58
817.261	50.31
817.435	36.81
817.608	38.33
817.782	10.89
817.955	11.19
818.129	19.56
818.302	34.07
818.475	50.42
818.649	54.77
818.822	47.76
818.996	68.38
819.169	52.52
819.342	33.93
819.516	51.87
819.689	66.72
819.862	41.03
820.035	43.69
820.209	39.55
820.382	31.76
820.555	23.26
820.728	23.28
820.901	19.22
821.075	27.22
821.248	27.03
821.421	14.06
821.594	17.64
821.767	48.9
821.94	57.21
822.113	32.59
822.286	31.37
822.459	34.99
822.632	8.09
822.805	-15.56
822.978	-4.78
823.151	-9.33
823.324	-22.83
823.496	-40.45
823.669	-30.09
823.842	-14.62
824.015	-25.37
824.188	-31.48
824.361	-26.72
824.533	-32.1
824.706	-22.54
824.879	-8.93
825.051	9.78
825.224	19.03
825.397	9.79
825.569	-11.7
825.742	-3.68
825.915	5.78
826.087	21.91
826.26	19.26
826.432	25.57
826.605	30.66
826.777	12.8
826.95	12.08
827.122	11.8
827.295	14.89
827.467	15.14
827.64	-3.59
827.812	-31.55
827.984	-29.62
828.157	-48.34
828.329	-110.09
828.501	-82.91
828.674	-37.34
828.846	-43.41
829.018	-6.67
829.19	9.76
829.363	44.66
829.535	37.61
829.707	39.59
829.879	2.38
830.051	-14.39
830.223	-46.81
830.395	-82.15
830.568	-89.75
830.74	-77.98
830.912	-36.64
831.084	-50.24
831.256	-40.14
831.428	-48.35
831.6	-60.1
831.772	-87.5
831.943	-89.93
832.115	-50.83
832.287	-10.84
832.459	-4.16
832.631	10.88
832.803	42.1
832.975	46.44
833.146	27.22
833.318	21.51
833.49	39.26
833.662	0.66
833.833	-11.99
834.005	-8.35
834.177	1.61
834.348	-12.04
834.52	-24.54
834.692	-49.3
834.863	-78.69
835.035	-72.69
835.206	-152.34
835.378	-81.77
835.549	-60.74
835.721	-40.33
835.892	-46.9
836.064	-24.39
836.235	-34.07
836.407	-0.85
836.578	-55.12
836.749	-36.74
836.921	-50.53
837.092	-89.65
837.264	-99.42
837.435	-104.27
837.606	-50.04
837.777	-9.55
837.949	14.08
838.12	19.62
838.291	48.22
838.462	47.55
838.633	9.71
838.805	-3.21
838.976	9.48
839.147	-66.04
839.318	-99.55
839.489	-157.74
839.66	-124.3
839.831	-57.38
840.002	-46.3
840.173	-68.71
840.344	18.2
840.515	2.51
840.686	-190.77
840.857	-105.45
841.028	-90.4
841.199	-111.74
841.369	-127.32
841.54	-103.46
841.711	-62.94
841.882	-33.3
842.053	-38.22
842.223	-15.36
842.394	0.63
842.565	4.54
842.736	-6.64
842.906	6.67
843.077	15.42
843.248	47.02
843.418	31.12
843.589	20.99
843.759	43.2
843.93	-12.63
844.101	-31.79
844.271	-10.88
844.442	2.28
844.612	5.56
844.783	-21.4
844.953	-74.7
845.123	-142.91
845.294	-122.55
845.464	-269.63
845.635	-91.36
845.805	25.91
845.975	41.71
846.146	-27.6
846.316	-39.96
846.486	-18.29
846.656	11.46
846.827	0.16
846.997	6.58
847.167	42.96
847.337	9.76
847.507	-60.2
847.677	-37.11
847.848	22.47
848.018	19.72
848.188	32.58
848.358	26.28
848.528	2.86
848.698	-45.62
848.868	-144.86
849.038	-298.16
849.208	-113.12
849.378	-48.17
849.548	-53.23
849.718	-30.06
849.887	-7.85
850.057	-30.27
850.227	-71.36
850.397	-78.32
850.567	-172.15
850.737	-414.89
850.906	-1522.81
851.076	-1160.35
851.246	-589.14
851.415	-86.56
851.585	-47.86
851.755	-57.19
851.924	-13.47
852.094	-18.17
852.264	-121.52
852.433	-1231.97
852.603	-221.35
852.772	-159.81
852.942	-87.56
853.111	-76.82
853.281	-14.08
853.45	1.79
853.62	-97.87
853.789	-122.64
853.959	-104.82
854.128	-95.45
854.297	-124.04
854.467	-87.69
854.636	-41.33
854.805	-29.64
854.975	-77.68
855.144	-107.74
855.313	-8.57
855.482	-466.61
855.652	-243.05
855.821	-130.01
855.99	-33.9
856.159	-5.13
856.328	14.85
856.497	-3.66
856.667	6.87
856.836	22.38
857.005	-15.4
857.174	-50.95
857.343	-96.23
857.512	-104.32
857.681	-143.84
857.85	-189.8
858.019	-82.09
858.188	-65.71
858.356	-81.36
858.525	-151.09
858.694	-145.46
858.863	-311.33
859.032	-236.2
859.201	-342.27
859.369	-214.35
859.538	-131.54
859.707	-128.81
859.876	-145.37
860.044	-133.07
860.213	-9.43
860.382	-25.44
860.55	8.5
860.719	32.57
860.888	50.45
861.056	0.79
861.225	-22.85
861.393	-1.98
861.562	-15.04
861.73	-126.03
861.899	-416.36
862.067	-2752.59
862.236	-185.6
862.404	-359.73
862.572	-204.65
862.741	-89.71
862.909	-89.26
863.078	-233.26
863.246	-125.39
863.414	-104.7
863.582	-40.01
863.751	-73.27
863.919	-31.45
864.087	4.3
864.255	1.34
864.424	-383.76
864.592	-34.02
864.76	-115.99
864.928	-638.6
865.096	-311.54
865.264	-176.35
865.432	-2380.11
865.6	-276.13
865.768	-165.21
865.936	-165.84
866.104	-205.85
866.272	-286.95
866.44	-542.22
866.608	854.48
866.776	444.75
866.944	4158.72
867.112	-750.11
867.28	-287
867.448	-120.1
867.615	-41.76
867.783	-17.42
867.951	-25.92
868.119	-2.2
868.286	-51.97
868.454	-248.82
868.622	-270.7
868.789	-359.87
868.957	-8701.79
869.125	-4090.13
869.292	-288.27
869.46	-380.7
869.627	-77.64
869.795	-51.5
869.963	-8.87
870.13	27.23
870.298	38.35
870.465	-67.76
870.632	-77.54
870.8	-63.77
870.967	-175.77
871.135	-208.78
871.302	-176.64
871.469	-221.74
871.637	-341.73
871.804	-138.51
871.971	-206.37
872.139	-597.33
872.306	-50.86
872.473	-55.01
872.64	-329.72
872.807	-96.51
872.975	10.48
873.142	-302.27
873.309	3097.97
873.476	-14.04
873.643	55.09
873.81	45.64
873.977	76.83
874.144	62.92
874.311	-113
874.478	-211.06
874.645	-269.42
874.812	-237.71
874.979	-130.4
875.146	-121.14
875.313	-123.88
875.48	-13.27
875.647	-23.53
875.813	-84.21
875.98	-55.25
876.147	-76.17
876.314	-185.58
876.481	1331.61
876.647	-1287.92
876.814	553.5
876.981	-41.63
877.147	-29.48
877.314	4.57
877.481	27.71
877.647	44.31
877.814	-9.56
877.98	-82.24
878.147	-20.57
878.314	7.57
878.48	-39.32
878.647	4.05
878.813	77.41
878.979	54.83
879.146	8.37
879.312	-15.15
879.479	-79.28
879.645	-231.12
879.811	-491.25
879.978	-1138.36
880.144	-354
880.31	-194.73
880.477	-441.41
880.643	-447.98
880.809	-151
880.975	-100.82
881.142	-853.86
881.308	-118.99
881.474	-78.43
881.64	-133.45
881.806	-222.1
881.972	-70.45
882.138	-86.69
882.304	-77.88
882.47	-268.24
882.636	-851.02
882.802	-301.04
882.968	-68.52
883.134	-50.68
883.3	-34.75
883.466	2.23
883.632	29.89
883.798	-10.41
883.964	-55.86
884.129	-70.04
884.295	-55.03
884.461	-100.53
884.627	-120.66
884.793	-86.89
884.958	-13.51
885.124	-104.89
885.29	-178.94
885.455	-260.8
885.621	-81.37
885.787	-175.13
885.952	-67.37
886.118	-97.58
886.283	-104.43
886.449	-233.94
886.614	-214.87
886.78	-507.79
886.945	1726.64
887.111	-725
887.276	-533.66
887.442	-1142.95
887.607	-553.42
887.773	-372.69
887.938	-323.56
888.103	-436.61
888.269	-312.73
888.434	-392.57
888.599	-172.1
888.764	-66.26
888.93	-0.03
889.095	-22.57
889.26	-103.26
889.425	-95.42
889.59	-96.4
889.756	-144.69
889.921	-116.52
890.086	-30.37
890.251	-30.11
890.416	-267.11
890.581	-2332.66
890.746	302.23
890.911	531.37
891.076	174.3
891.241	-224.07
891.406	110.16
891.571	20.56
891.736	-239.56
891.901	-586.95
892.065	883.79
892.23	236.33
892.395	302.98
892.56	469.15
892.725	-766.6
892.889	-2122.56
893.054	-314.27
893.219	-165.95
893.384	-87.14
893.548	-156.7
893.713	-168.85
893.878	-119.74
