Data from Ofra_PS_T2_1A_1GT42_Reflection_2.txt Node
Date: Wed Jul 21 17:49:01 EDT 2021
User: Adam
Spectrometer: FLMT01687
Trigger mode: 0
Integration Time (sec): 1.100000E0
Scans to average: 2
Electric dark correction enabled: true
Nonlinearity correction enabled: false
Boxcar width: 2
XAxis mode: Wavelengths
Number of Pixels in Spectrum: 3648
>>>>>Begin Spectral Data<<<<<
179.494	531.8
179.716	647.53
179.937	596.32
180.158	611.94
180.38	987.97
180.601	473.9
180.823	77.43
181.044	-106.75
181.265	-77.39
181.486	-33.85
181.708	20.03
181.929	728.06
182.15	-544.72
182.372	43.67
182.593	-60.54
182.814	9.34
183.035	105.96
183.257	68.83
183.478	-11.44
183.699	47.79
183.92	28.77
184.141	32.24
184.363	-20.54
184.584	44.15
184.805	27.13
185.026	54.32
185.247	44.88
185.468	32.04
185.689	27.53
185.91	38.76
186.132	26.22
186.353	9.2
186.574	85.84
186.795	65.71
187.016	32.2
187.237	20.21
187.458	69.64
187.679	55.06
187.9	60.79
188.121	55.63
188.342	110.3
188.563	82.93
188.784	106
189.005	135.89
189.226	188.01
189.447	165.38
189.667	243.33
189.888	-19.09
190.109	-720.45
190.33	-735.32
190.551	-1295.35
190.772	-313.74
190.993	-261.28
191.214	-244.27
191.434	-103.32
191.655	-33.47
191.876	-57.5
192.097	-98.56
192.318	-92.78
192.538	-212.83
192.759	-135.75
192.98	-36.14
193.201	8.81
193.421	21.6
193.642	50.55
193.863	58.63
194.083	15.23
194.304	-7.56
194.525	-13
194.745	-39.63
194.966	-72.12
195.187	-45.77
195.407	-48.94
195.628	-75.74
195.848	-71.33
196.069	-35.33
196.29	44.27
196.51	8.7
196.731	-16.51
196.951	-32.86
197.172	-76.99
197.392	-163.67
197.613	-148.08
197.833	-167.94
198.054	-131.56
198.274	-56.25
198.495	-67.6
198.715	-44.41
198.936	-60.36
199.156	-71.24
199.377	-187.71
199.597	-164.9
199.817	-173.62
200.038	-86.38
200.258	-147.38
200.479	-59.89
200.699	-48.72
200.919	5.44
201.14	-20.41
201.36	-12.74
201.58	4.4
201.801	37.43
202.021	1.16
202.241	-11.01
202.461	-21.96
202.682	-124.94
202.902	-216.59
203.122	-123.93
203.342	-105.49
203.563	-60.45
203.783	-6.15
204.003	-30.22
204.223	-31
204.443	30.37
204.663	35.9
204.884	34.4
205.104	98.43
205.324	126.97
205.544	104.88
205.764	100.98
205.984	100.93
206.204	70.88
206.424	57.57
206.644	44.18
206.864	32.5
207.084	-25.33
207.304	-13.98
207.525	-157.42
207.745	-86.63
207.964	13.75
208.184	-0.29
208.404	-36.75
208.624	-31.19
208.844	-3.48
209.064	-258.47
209.284	-338.02
209.504	-189.07
209.724	-32.8
209.944	-11.02
210.164	32.64
210.384	59.75
210.604	75.93
210.823	24.59
211.043	-23.8
211.263	-31.39
211.483	-40.15
211.703	-120.08
211.922	-88.24
212.142	1.65
212.362	34.7
212.582	11.42
212.801	19.51
213.021	-6.18
213.241	-43.75
213.461	-89.61
213.68	-118.61
213.9	-78.19
214.12	-34.46
214.339	-83.58
214.559	-49.05
214.779	-3.32
214.998	-3.57
215.218	-52.25
215.438	-21.05
215.657	-46
215.877	-13.68
216.096	11.26
216.316	16.66
216.535	8.46
216.755	20.03
216.974	-58.31
217.194	-124.68
217.413	-126
217.633	-116.38
217.852	-227.98
218.072	-89.65
218.291	-43.88
218.511	3.54
218.73	-4.23
218.95	1.29
219.169	-18.66
219.389	-62.14
219.608	-49.29
219.827	-53.46
220.047	-36.47
220.266	-16.11
220.485	7.91
220.705	22.57
220.924	8.73
221.143	42.51
221.363	24.9
221.582	33.54
221.801	40.34
222.021	50.78
222.24	-11.7
222.459	72.33
222.678	30.61
222.897	-12.78
223.117	-46.47
223.336	-70.69
223.555	-52.72
223.774	-0.33
223.993	-10.3
224.213	30.45
224.432	-0.28
224.651	18.88
224.87	-15.34
225.089	19.61
225.308	7.9
225.527	36.29
225.746	26.97
225.965	32.74
226.184	-2.92
226.404	19.99
226.623	1.55
226.842	5.76
227.061	27.3
227.28	37.17
227.499	21.52
227.718	34.39
227.936	25.37
228.155	32.23
228.374	-6.54
228.593	18.64
228.812	5.47
229.031	-8.76
229.25	-77.24
229.469	-63.65
229.688	-68.21
229.907	-23.06
230.125	10.86
230.344	34.88
230.563	47.33
230.782	51.33
231.001	-10.43
231.22	-5.11
231.438	23.81
231.657	9.04
231.876	-5.69
232.095	30.94
232.313	20.82
232.532	-1.1
232.751	-14.85
232.969	-20.23
233.188	-73.58
233.407	11.54
233.625	7.94
233.844	-9.49
234.063	8.6
234.281	20.74
234.5	1.03
234.719	-3.58
234.937	17.12
235.156	11.82
235.374	14.64
235.593	5.96
235.811	4.36
236.03	-4.49
236.249	-37.76
236.467	-23.77
236.686	3.88
236.904	14.02
237.123	-8.17
237.341	-3.06
237.559	-1.73
237.778	-36.14
237.996	-66.29
238.215	-13.92
238.433	8.3
238.652	-3.95
238.87	-5.64
239.088	19.95
239.307	15.48
239.525	-10.38
239.743	-36.45
239.962	-18.08
240.18	-62.8
240.398	-104.42
240.617	-107.03
240.835	-65.64
241.053	-73.19
241.271	-10.23
241.49	15.03
241.708	9.66
241.926	24.68
242.144	35
242.363	-23.78
242.581	-42.78
242.799	-12.42
243.017	-8.81
243.235	-28.21
243.453	-12.54
243.672	-10.54
243.89	-9.9
244.108	-15.94
244.326	16.47
244.544	10.47
244.762	6.02
244.98	19.48
245.198	26.59
245.416	-4.25
245.634	-4.36
245.852	-13.9
246.07	-38.41
246.288	-57.53
246.506	-82.25
246.724	-72.02
246.942	-39.6
247.16	13.72
247.378	25.37
247.596	54.22
247.814	66.81
248.032	42.78
248.25	28.87
248.468	19.27
248.685	26.76
248.903	48.25
249.121	50.44
249.339	5.39
249.557	-0.98
249.775	7.41
249.992	-75.63
250.21	-68.52
250.428	-23.81
250.646	-39.43
250.863	-67.26
251.081	-15.8
251.299	5.51
251.517	8.74
251.734	0.25
251.952	-6.17
252.17	-4.66
252.387	1.28
252.605	-16.28
252.823	1.91
253.04	20.68
253.258	42.26
253.475	35.82
253.693	64.03
253.911	62.22
254.128	68.99
254.346	67.58
254.563	42.79
254.781	11.07
254.998	-23.72
255.216	-53.69
255.433	-40.77
255.651	-3.33
255.868	43.91
256.086	86.95
256.303	89.05
256.521	48.41
256.738	29.66
256.956	6.62
257.173	-6.67
257.39	-27.59
257.608	-32.82
257.825	7.07
258.043	44.66
258.26	21.06
258.477	71.87
258.695	68.48
258.912	25.38
259.129	15.97
259.346	-18.85
259.564	-79.07
259.781	-98.63
259.998	-32.23
260.216	-11.23
260.433	22.99
260.65	34.07
260.867	49.69
261.084	17.65
261.302	-5.58
261.519	5.58
261.736	-29.16
261.953	-47.35
262.17	7.82
262.387	-20.26
262.604	-79.38
262.822	-86.89
263.039	-51.83
263.256	-131.24
263.473	-89.17
263.69	-34.23
263.907	22.4
264.124	25.96
264.341	48.44
264.558	43.11
264.775	61.09
264.992	48.63
265.209	41.42
265.426	53.75
265.643	56.59
265.86	64.37
266.077	70.78
266.294	71.37
266.51	27.39
266.727	18.15
266.944	29.33
267.161	3.33
267.378	15.54
267.595	41.33
267.812	6.55
268.028	-18.36
268.245	15.28
268.462	-14.16
268.679	-25.21
268.896	46.85
269.112	46.74
269.329	47.02
269.546	52.52
269.763	39.75
269.979	17.35
270.196	11.78
270.413	-34.85
270.629	-53.4
270.846	-49.4
271.063	-45.51
271.279	-48.89
271.496	-33.77
271.712	-26.74
271.929	-19.36
272.146	-25
272.362	-19.34
272.579	18.24
272.795	53.56
273.012	49.19
273.228	49.83
273.445	29.22
273.661	5.26
273.878	-51.68
274.094	-41.23
274.311	-78.13
274.527	-9.05
274.744	-3.41
274.96	3.6
275.177	8.93
275.393	30.81
275.609	21.26
275.826	27.81
276.042	27.08
276.259	17.09
276.475	28.94
276.691	31.88
276.908	20.34
277.124	30.77
277.34	36.46
277.557	35.66
277.773	19.61
277.989	14.69
278.205	5.44
278.422	22.86
278.638	17.32
278.854	31.2
279.07	30.84
279.286	27.89
279.503	-30.81
279.719	-42.74
279.935	-77.42
280.151	-78.04
280.367	-37.67
280.583	-26.91
280.799	-28.76
281.016	-50.77
281.232	-23.1
281.448	-40.45
281.664	-11.85
281.88	-44.54
282.096	-14.72
282.312	20.12
282.528	57.21
282.744	64.25
282.96	68.26
283.176	54.15
283.392	33.73
283.608	10.34
283.824	-8.15
284.04	-1.91
284.256	6.6
284.471	-1.98
284.687	-13.43
284.903	25.22
285.119	53.21
285.335	25.34
285.551	37.66
285.767	26.22
285.982	-12.34
286.198	-63.05
286.414	7.29
286.63	16.16
286.846	43.86
287.061	26.75
287.277	43.39
287.493	7.95
287.709	17.77
287.924	-8.51
288.14	33.26
288.356	54.54
288.571	58.3
288.787	31.26
289.003	40.57
289.218	17.92
289.434	-35.97
289.65	-22.96
289.865	-21.99
290.081	-10.29
290.296	4.1
290.512	21.74
290.727	-9.54
290.943	-11.91
291.159	-22.17
291.374	-16.84
291.59	-45.25
291.805	-42.35
292.021	-40.07
292.236	-40.73
292.451	-38.42
292.667	-5.09
292.882	21.04
293.098	17.29
293.313	0.25
293.529	-19.58
293.744	-53.54
293.959	-65.12
294.175	-60.66
294.39	-15.34
294.605	15.08
294.821	40.61
295.036	48.62
295.251	65.59
295.467	21.32
295.682	-12.24
295.897	-83.19
296.112	-102.92
296.328	-89.03
296.543	-87.43
296.758	-76.86
296.973	5.1
297.188	45.51
297.404	17.36
297.619	17.48
297.834	4.53
298.049	-14.4
298.264	-53.3
298.479	1.82
298.694	3.33
298.909	32.19
299.125	26.7
299.34	36.85
299.555	-11.55
299.77	9.69
299.985	-51
300.2	-80.47
300.415	-98.48
300.63	-38.38
300.845	-43.78
301.06	-25.29
301.275	-5.91
301.49	9.26
301.704	-10.36
301.919	-26.76
302.134	-37.04
302.349	-49.84
302.564	-110.71
302.779	-149.24
302.994	-116.11
303.209	-69.06
303.423	-24.48
303.638	38.8
303.853	27.39
304.068	7.8
304.283	11.09
304.497	-2.32
304.712	-13.55
304.927	-7.42
305.142	-12.65
305.356	-5.1
305.571	-4.84
305.786	-25.58
306	-48.85
306.215	-45.25
306.43	-65.61
306.644	-47.66
306.859	8.93
307.074	19.54
307.288	-2.63
307.503	-11.98
307.717	-37.2
307.932	-38.48
308.147	-40.29
308.361	-17.32
308.576	-19.63
308.79	-56.9
309.005	-49.83
309.219	-15.55
309.434	-20
309.648	-24.63
309.863	7.25
310.077	8.29
310.292	-11.34
310.506	0.36
310.72	11.89
310.935	32.45
311.149	27.97
311.364	47.24
311.578	51.41
311.792	40.68
312.007	37.06
312.221	15.42
312.435	19.27
312.649	-4.47
312.864	44.28
313.078	54.69
313.292	121.56
313.507	76.96
313.721	108.31
313.935	34.18
314.149	25.13
314.363	10.68
314.578	23.85
314.792	40.17
315.006	23.19
315.22	35.57
315.434	45.49
315.648	44.75
315.862	37.13
316.077	50.49
316.291	31.67
316.505	33.22
316.719	14.33
316.933	-9.13
317.147	14.71
317.361	-28.28
317.575	-39.27
317.789	-51.85
318.003	-90.54
318.217	-80.86
318.431	5.57
318.645	43.65
318.859	35.27
319.073	72.36
319.287	44.3
319.5	11.96
319.714	-36.25
319.928	-51.5
320.142	-115.52
320.356	-52.29
320.57	-16.62
320.784	-36.66
320.997	-55.14
321.211	-27.66
321.425	-89.25
321.639	-117.14
321.853	-28.6
322.066	-10.48
322.28	-3.27
322.494	3.09
322.707	31.31
322.921	-4.7
323.135	-6.75
323.349	-3.94
323.562	-18.93
323.776	-45.74
323.989	-33.34
324.203	-59.43
324.417	-74.88
324.63	-80.83
324.844	-89.84
325.057	-89.79
325.271	-58.16
325.485	-17.04
325.698	1.52
325.912	33.5
326.125	5.11
326.339	2.43
326.552	-17.06
326.766	-11.71
326.979	-1.53
327.193	43.2
327.406	35.5
327.619	19.38
327.833	40.67
328.046	6.03
328.26	-30.71
328.473	4
328.686	-3
328.9	-19.59
329.113	14.63
329.326	-27.55
329.54	-40.97
329.753	-57.93
329.966	-90.79
330.179	-103.33
330.393	-45.43
330.606	-28.89
330.819	1.89
331.032	22.54
331.246	26.99
331.459	51.86
331.672	40.9
331.885	16.09
332.098	-14.13
332.311	-22.62
332.525	-73.26
332.738	-58.44
332.951	-8.7
333.164	23.71
333.377	30.66
333.59	44.31
333.803	36.8
334.016	19.55
334.229	26.86
334.442	30.13
334.655	39.36
334.868	53.24
335.081	50.05
335.294	8.73
335.507	-19.72
335.72	-22.72
335.933	-40.62
336.146	-49.25
336.359	-38.01
336.572	-64.05
336.785	-87.28
336.997	-66.63
337.21	-41.57
337.423	-41.3
337.636	-12.47
337.849	6.86
338.062	-0.55
338.274	10
338.487	-2.42
338.7	-15.29
338.913	-58.64
339.125	-69.21
339.338	-128.51
339.551	-89.89
339.763	-58.18
339.976	-25.59
340.189	-5.58
340.402	2.29
340.614	-11.39
340.827	-9.58
341.039	-30.32
341.252	-35.02
341.465	-15.98
341.677	-8.44
341.89	-50.96
342.102	-17.36
342.315	-36.27
342.527	-63
342.74	-61.66
342.952	-23.08
343.165	-19.25
343.377	7.3
343.59	-2.96
343.802	16.48
344.015	27.47
344.227	37.47
344.44	33.47
344.652	44.76
344.864	21.77
345.077	37.58
345.289	33.08
345.502	29.52
345.714	15.67
345.926	29.24
346.139	13.93
346.351	26.58
346.563	36.63
346.775	49.26
346.988	28.66
347.2	27.83
347.412	-23.88
347.624	-44.59
347.837	-53.4
348.049	-5.45
348.261	14.58
348.473	29.08
348.685	39.73
348.897	8.57
349.11	-11.12
349.322	-36.88
349.534	-43.13
349.746	-50.57
349.958	-25.11
350.17	-32.88
350.382	-7.78
350.594	-5.71
350.806	7.4
351.018	21.05
351.23	21.6
351.442	-26.7
351.654	-45.99
351.866	-42.94
352.078	-28.57
352.29	-6.45
352.502	21.95
352.714	45.23
352.926	27.64
353.138	17.78
353.35	10.35
353.561	0.54
353.773	-28.48
353.985	-19.36
354.197	-30.34
354.409	-37.77
354.621	-47.13
354.832	-26.85
355.044	-26.16
355.256	-22.9
355.468	-1.22
355.679	-0.5
355.891	6.09
356.103	-8.18
356.314	-2.11
356.526	-13.58
356.738	0.38
356.949	-0.82
357.161	26.5
357.373	14.35
357.584	-9.38
357.796	1.39
358.008	0.01
358.219	21.24
358.431	23.2
358.642	36.83
358.854	39.04
359.065	35
359.277	-16.86
359.488	-21.61
359.7	-28.63
359.911	-70.65
360.123	-59.74
360.334	-65.05
360.546	-85.06
360.757	-80.49
360.969	-54.14
361.18	-34.61
361.391	-10.01
361.603	-16.87
361.814	-6.59
362.025	-8.05
362.237	-25.55
362.448	-13.84
362.659	8.49
362.871	6.74
363.082	7.99
363.293	18.24
363.504	-1.73
363.716	-28.88
363.927	-49.31
364.138	-74.08
364.349	-85.52
364.56	-77.81
364.772	-61.54
364.983	-20.66
365.194	-12.7
365.405	0.01
365.616	23.19
365.827	27.4
366.038	-12.83
366.25	-17.56
366.461	-56.14
366.672	-26.79
366.883	-8.97
367.094	6.1
367.305	1.46
367.516	16.8
367.727	-19.01
367.938	-33.14
368.149	-30.78
368.36	-24.59
368.571	-17.53
368.781	-33.47
368.992	-45.27
369.203	-73.58
369.414	-93.03
369.625	-101.66
369.836	-82.52
370.047	-102.29
370.258	-67.9
370.468	-60.14
370.679	-85.24
370.89	-80.92
371.101	-60.04
371.312	-68.34
371.522	-66.58
371.733	-43.84
371.944	-22.09
372.155	4.15
372.365	-3.87
372.576	-3.41
372.787	-8.63
372.997	-34.63
373.208	-44.21
373.419	-4.07
373.629	-30.15
373.84	-14.9
374.05	-22.54
374.261	-10.63
374.472	-40.04
374.682	10.5
374.893	-1
375.103	43.61
375.314	31.13
375.524	32.66
375.735	37.76
375.945	45.38
376.156	8.35
376.366	3.22
376.577	6.4
376.787	-15.44
376.997	-6.28
377.208	-0.57
377.418	-5.15
377.629	10.89
377.839	7.35
378.049	0.11
378.26	12.05
378.47	17.27
378.68	0.36
378.89	4.04
379.101	1.95
379.311	-25.3
379.521	-49.01
379.732	-44.17
379.942	-38.12
380.152	-60.44
380.362	-20.32
380.572	-6.44
380.783	-0.21
380.993	9.75
381.203	25.11
381.413	29.68
381.623	30.28
381.833	29.02
382.043	9.41
382.253	0.63
382.463	-6.46
382.674	-18.47
382.884	-36.49
383.094	-31.1
383.304	-25.99
383.514	-21.83
383.724	-4.96
383.934	-9.42
384.144	-15.96
384.353	-20.74
384.563	-21.96
384.773	-22.35
384.983	-21.45
385.193	-5.8
385.403	-2.22
385.613	-0.68
385.823	-15.94
386.033	-5.58
386.242	-14.22
386.452	-12.93
386.662	-25.24
386.872	-3.27
387.082	-10.93
387.291	-19.91
387.501	-15.86
387.711	-1.38
387.921	-15.01
388.13	-11.32
388.34	8.49
388.55	1.33
388.759	-1.07
388.969	6.48
389.179	3.52
389.388	-0.86
389.598	4.07
389.807	-2.74
390.017	-9.08
390.227	-9.43
390.436	-13.09
390.646	-13.12
390.855	-6.12
391.065	-5.93
391.274	-7.28
391.484	-6.92
391.693	-7.2
391.903	-5.7
392.112	0.84
392.322	5.56
392.531	8.8
392.74	9.79
392.95	3.43
393.159	0.95
393.369	-0.56
393.578	-0.98
393.787	-3.18
393.997	-0.9
394.206	-3.78
394.415	-3.44
394.625	-5.18
394.834	-6.5
395.043	-6.01
395.252	-1.21
395.462	0.57
395.671	2.44
395.88	5.09
396.089	7.18
396.298	4.52
396.508	3.95
396.717	2.03
396.926	1.88
397.135	0.6
397.344	0.07
397.553	1.12
397.762	3.32
397.971	2.41
398.181	2.62
398.39	2.34
398.599	1.08
398.808	0.75
399.017	2.73
399.226	3.44
399.435	4.74
399.644	4.77
399.853	3.82
400.062	2.83
400.27	2.42
400.479	1.84
400.688	1.02
400.897	1.29
401.106	1.24
401.315	1.07
401.524	1.3
401.733	2.49
401.941	3
402.15	3.05
402.359	2.98
402.568	3.22
402.777	3.07
402.985	2.77
403.194	2.63
403.403	2.54
403.612	2.2
403.82	2.03
404.029	2.35
404.238	2.24
404.446	2.71
404.655	2.42
404.864	2.35
405.072	1.99
405.281	2.25
405.489	1.76
405.698	1.91
405.906	1.83
406.115	1.96
406.324	1.82
406.532	2.04
406.741	2.38
406.949	2.47
407.158	2.46
407.366	2.39
407.574	2.36
407.783	2.19
407.991	2.12
408.2	2.42
408.408	2.48
408.617	2.47
408.825	2.42
409.033	2.47
409.242	2.25
409.45	2.31
409.658	2.16
409.867	2.31
410.075	2.17
410.283	2.01
410.491	1.94
410.7	1.94
410.908	1.94
411.116	2.4
411.324	2.47
411.533	2.45
411.741	2.82
411.949	2.71
412.157	2.33
412.365	2.38
412.573	2.43
412.781	2.36
412.99	2.31
413.198	2.45
413.406	2.41
413.614	2.45
413.822	2.21
414.03	2.15
414.238	1.9
414.446	1.97
414.654	1.66
414.862	1.73
415.07	1.8
415.278	2.17
415.486	1.96
415.694	2.14
415.902	2.06
416.109	1.89
416.317	1.75
416.525	1.61
416.733	1.63
416.941	1.77
417.149	1.81
417.357	1.83
417.564	2.18
417.772	2.33
417.98	2.18
418.188	2.22
418.395	2.23
418.603	2.26
418.811	1.94
419.019	2.02
419.226	2.22
419.434	2.4
419.642	2.15
419.849	2.4
420.057	2.34
420.265	2.3
420.472	1.83
420.68	1.82
420.887	1.64
421.095	1.85
421.302	1.68
421.51	2.03
421.717	2.28
421.925	2.39
422.132	2.08
422.34	1.93
422.547	2.03
422.755	1.89
422.962	1.79
423.17	1.77
423.377	2
423.585	1.89
423.792	1.74
423.999	1.87
424.207	1.89
424.414	1.95
424.621	1.89
424.829	1.95
425.036	1.76
425.243	1.92
425.451	1.74
425.658	1.51
425.865	1.78
426.072	1.93
426.28	2.12
426.487	2.09
426.694	2.32
426.901	2.01
427.108	1.84
427.315	1.59
427.523	1.84
427.73	1.74
427.937	1.74
428.144	1.79
428.351	1.78
428.558	1.99
428.765	2.04
428.972	2.04
429.179	2.19
429.386	2.59
429.593	2.28
429.8	2.05
430.007	2.3
430.214	2.35
430.421	2.09
430.628	1.86
430.835	1.84
431.042	2.03
431.249	1.95
431.456	1.83
431.662	2.02
431.869	2.19
432.076	2.1
432.283	2.3
432.49	2.36
432.697	2.38
432.903	2.16
433.11	2.05
433.317	1.99
433.524	2.21
433.73	2.12
433.937	2.47
434.144	2.31
434.35	2.29
434.557	2.1
434.764	2.17
434.97	2.03
435.177	2.24
435.384	2.12
435.59	2.24
435.797	2.49
436.003	2.56
436.21	2.51
436.416	2.77
436.623	2.7
436.829	2.82
437.036	2.89
437.242	2.93
437.449	2.72
437.655	2.79
437.862	2.67
438.068	2.59
438.275	2.73
438.481	2.99
438.687	2.97
438.894	2.86
439.1	2.95
439.307	3.05
439.513	2.92
439.719	2.95
439.926	3.14
440.132	2.95
440.338	2.74
440.544	2.8
440.751	2.73
440.957	2.66
441.163	2.76
441.369	2.86
441.575	2.59
441.782	2.55
441.988	2.44
442.194	2.45
442.4	2.44
442.606	2.83
442.812	3
443.018	3.23
443.224	3.27
443.431	3.36
443.637	3.05
443.843	2.95
444.049	2.89
444.255	2.86
444.461	2.88
444.667	2.91
444.873	3.11
445.079	3
445.284	3.09
445.49	2.88
445.696	2.77
445.902	2.64
446.108	2.63
446.314	2.53
446.52	2.64
446.726	3
446.931	2.99
447.137	3.1
447.343	3.21
447.549	3.15
447.755	2.97
447.96	2.97
448.166	2.94
448.372	2.91
448.578	3.01
448.783	3.03
448.989	3.15
449.195	3.27
449.4	3.24
449.606	3.16
449.812	3.11
450.017	3.1
450.223	2.94
450.428	2.87
450.634	3.13
450.84	3.27
451.045	3.2
451.251	3.22
451.456	3.51
451.662	3.38
451.867	3.35
452.073	3.36
452.278	3.47
452.483	3.53
452.689	3.52
452.894	3.64
453.1	3.65
453.305	3.53
453.51	3.39
453.716	3.36
453.921	3.32
454.127	3.32
454.332	3.36
454.537	3.31
454.742	3.31
454.948	3.28
455.153	3.33
455.358	3.41
455.563	3.59
455.769	3.74
455.974	3.69
456.179	3.6
456.384	3.57
456.589	3.53
456.795	3.25
457	3.29
457.205	3.5
457.41	3.49
457.615	3.3
457.82	3.48
458.025	3.52
458.23	3.41
458.435	3.46
458.64	3.47
458.845	3.62
459.05	3.58
459.255	3.54
459.46	3.54
459.665	3.59
459.87	3.49
460.075	3.48
460.28	3.56
460.485	3.65
460.69	3.76
460.895	3.71
461.099	3.63
461.304	3.74
461.509	3.78
461.714	3.66
461.919	3.8
462.123	3.76
462.328	3.8
462.533	3.69
462.738	3.86
462.942	3.78
463.147	3.96
463.352	3.92
463.556	4.01
463.761	4.07
463.966	4.12
464.17	4.11
464.375	4.04
464.58	3.93
464.784	3.77
464.989	3.75
465.193	3.68
465.398	3.73
465.602	3.91
465.807	3.89
466.011	3.92
466.216	4.07
466.42	4.18
466.625	4.19
466.829	4.36
467.034	4.43
467.238	4.62
467.443	4.59
467.647	4.45
467.851	4.42
468.056	4.46
468.26	4.29
468.464	4.21
468.669	4.36
468.873	4.52
469.077	4.45
469.282	4.52
469.486	4.59
469.69	4.51
469.894	4.33
470.099	4.44
470.303	4.46
470.507	4.39
470.711	4.35
470.915	4.3
471.119	4.22
471.324	4.15
471.528	4.19
471.732	4.27
471.936	4.31
472.14	4.4
472.344	4.52
472.548	4.52
472.752	4.68
472.956	4.98
473.16	4.94
473.364	4.8
473.568	4.85
473.772	4.85
473.976	4.62
474.18	4.54
474.384	4.66
474.588	4.57
474.792	4.41
474.995	4.51
475.199	4.64
475.403	4.66
475.607	4.72
475.811	4.74
476.015	4.73
476.218	4.67
476.422	4.61
476.626	4.68
476.83	4.77
477.033	4.78
477.237	4.73
477.441	4.82
477.644	4.77
477.848	4.73
478.052	4.65
478.255	4.7
478.459	4.65
478.663	4.79
478.866	4.86
479.07	4.9
479.273	5.09
479.477	5.14
479.681	5.06
479.884	5.02
480.088	5
480.291	4.88
480.495	4.88
480.698	4.92
480.901	4.99
481.105	5.13
481.308	5.1
481.512	5.05
481.715	5.09
481.919	5.07
482.122	5
482.325	5.04
482.529	5.07
482.732	4.98
482.935	4.89
483.138	4.8
483.342	4.88
483.545	4.92
483.748	5
483.952	5.08
484.155	5.25
484.358	5.24
484.561	5.24
484.764	5.2
484.967	5.28
485.171	5.34
485.374	5.25
485.577	5.31
485.78	5.4
485.983	5.36
486.186	5.19
486.389	5.18
486.592	5.16
486.795	5.18
486.998	5.15
487.201	5.26
487.404	5.32
487.607	5.37
487.81	5.31
488.013	5.38
488.216	5.34
488.419	5.33
488.622	5.25
488.825	5.19
489.028	5.17
489.231	5.14
489.433	5.08
489.636	4.99
489.839	4.99
490.042	4.9
490.245	4.85
490.447	4.89
490.65	4.96
490.853	4.96
491.056	5.02
491.258	5.07
491.461	5.11
491.664	5.17
491.866	5.09
492.069	5.21
492.272	5.12
492.474	5.14
492.677	5.22
492.879	5.37
493.082	5.36
493.285	5.55
493.487	5.48
493.69	5.34
493.892	5.25
494.095	5.24
494.297	5.16
494.5	5.24
494.702	5.29
494.905	5.31
495.107	5.2
495.309	5.22
495.512	5.23
495.714	5.26
495.917	5.33
496.119	5.38
496.321	5.43
496.524	5.46
496.726	5.44
496.928	5.47
497.13	5.44
497.333	5.38
497.535	5.38
497.737	5.35
497.939	5.29
498.142	5.31
498.344	5.27
498.546	5.16
498.748	5.19
498.95	5.31
499.152	5.33
499.355	5.44
499.557	5.59
499.759	5.71
499.961	5.61
500.163	5.65
500.365	5.6
500.567	5.63
500.769	5.5
500.971	5.49
501.173	5.38
501.375	5.42
501.577	5.28
501.779	5.32
501.981	5.32
502.183	5.36
502.385	5.33
502.587	5.31
502.788	5.34
502.99	5.46
503.192	5.52
503.394	5.49
503.596	5.53
503.798	5.59
503.999	5.51
504.201	5.48
504.403	5.57
504.605	5.63
504.806	5.53
505.008	5.51
505.21	5.55
505.411	5.55
505.613	5.57
505.815	5.62
506.016	5.71
506.218	5.85
506.42	5.85
506.621	5.86
506.823	5.85
507.024	5.78
507.226	5.62
507.427	5.61
507.629	5.66
507.83	5.71
508.032	5.75
508.233	5.86
508.435	5.87
508.636	5.86
508.838	5.83
509.039	5.8
509.24	5.8
509.442	5.85
509.643	5.84
509.845	5.89
510.046	5.98
510.247	5.94
510.448	5.94
510.65	5.99
510.851	6.07
511.052	6.01
511.254	6.07
511.455	6.12
511.656	6.17
511.857	6.25
512.058	6.28
512.26	6.24
512.461	6.2
512.662	6.24
512.863	6.09
513.064	6.13
513.265	6.17
513.466	6.25
513.667	6.13
513.868	6.19
514.069	6.25
514.27	6.27
514.471	6.18
514.672	6.26
514.873	6.24
515.074	6.17
515.275	6.07
515.476	6.03
515.677	6.01
515.878	6.15
516.079	6.16
516.28	6.19
516.481	6.37
516.682	6.37
516.882	6.27
517.083	6.25
517.284	6.21
517.485	6.08
517.686	6.06
517.886	6.05
518.087	6.12
518.288	6.17
518.488	6.16
518.689	6.16
518.89	6.13
519.091	6.1
519.291	6.11
519.492	6.15
519.692	6.14
519.893	6.25
520.094	6.22
520.294	6.24
520.495	6.22
520.695	6.29
520.896	6.23
521.096	6.32
521.297	6.32
521.497	6.32
521.698	6.23
521.898	6.2
522.099	6.17
522.299	6.22
522.499	6.2
522.7	6.27
522.9	6.22
523.101	6.28
523.301	6.25
523.501	6.28
523.702	6.29
523.902	6.38
524.102	6.34
524.302	6.31
524.503	6.35
524.703	6.31
524.903	6.3
525.103	6.28
525.304	6.39
525.504	6.45
525.704	6.53
525.904	6.5
526.104	6.46
526.304	6.42
526.504	6.36
526.705	6.32
526.905	6.4
527.105	6.48
527.305	6.44
527.505	6.41
527.705	6.4
527.905	6.38
528.105	6.36
528.305	6.34
528.505	6.4
528.705	6.46
528.905	6.35
529.105	6.34
529.304	6.41
529.504	6.44
529.704	6.36
529.904	6.46
530.104	6.51
530.304	6.54
530.503	6.49
530.703	6.45
530.903	6.39
531.103	6.41
531.303	6.33
531.502	6.36
531.702	6.5
531.902	6.58
532.101	6.53
532.301	6.54
532.501	6.51
532.7	6.45
532.9	6.45
533.1	6.53
533.299	6.58
533.499	6.63
533.698	6.58
533.898	6.57
534.097	6.53
534.297	6.61
534.496	6.58
534.696	6.69
534.895	6.76
535.095	6.84
535.294	6.75
535.494	6.74
535.693	6.72
535.892	6.7
536.092	6.64
536.291	6.63
536.491	6.69
536.69	6.75
536.889	6.71
537.088	6.66
537.288	6.71
537.487	6.74
537.686	6.66
537.886	6.75
538.085	6.82
538.284	6.93
538.483	6.9
538.682	6.97
538.882	6.9
539.081	6.93
539.28	6.85
539.479	6.88
539.678	6.86
539.877	7.01
540.076	6.98
540.275	6.98
540.474	7.07
540.673	7.11
540.872	7.03
541.071	7.07
541.27	7.12
541.469	7.12
541.668	7.15
541.867	7.15
542.066	7.2
542.265	7.22
542.464	7.2
542.663	7.21
542.862	7.36
543.06	7.41
543.259	7.47
543.458	7.51
543.657	7.61
543.856	7.61
544.054	7.56
544.253	7.52
544.452	7.48
544.651	7.51
544.849	7.51
545.048	7.58
545.247	7.63
545.445	7.74
545.644	7.71
545.843	7.66
546.041	7.65
546.24	7.74
546.438	7.77
546.637	7.84
546.836	8
547.034	8.09
547.233	8.12
547.431	8.09
547.63	8.1
547.828	8.06
548.027	8.08
548.225	8.06
548.423	8.07
548.622	8.14
548.82	8.1
549.019	8.12
549.217	8.22
549.415	8.29
549.614	8.37
549.812	8.45
550.01	8.49
550.209	8.52
550.407	8.57
550.605	8.56
550.803	8.68
551.002	8.75
551.2	8.8
551.398	8.92
551.596	9.07
551.794	9.07
551.993	9.13
552.191	9.13
552.389	9.2
552.587	9.21
552.785	9.21
552.983	9.31
553.181	9.44
553.379	9.47
553.577	9.5
553.775	9.62
553.973	9.66
554.171	9.66
554.369	9.61
554.567	9.63
554.765	9.7
554.963	9.8
555.161	9.84
555.359	9.96
555.557	10.11
555.755	10.15
555.952	10.23
556.15	10.24
556.348	10.32
556.546	10.36
556.744	10.33
556.941	10.3
557.139	10.46
557.337	10.53
557.535	10.53
557.732	10.73
557.93	10.84
558.128	10.92
558.325	10.98
558.523	11.04
558.721	11.17
558.918	11.21
559.116	11.29
559.313	11.29
559.511	11.46
559.708	11.41
559.906	11.45
560.104	11.54
560.301	11.7
560.498	11.7
560.696	11.75
560.893	11.85
561.091	11.89
561.288	11.99
561.486	12.07
561.683	12.17
561.88	12.32
562.078	12.38
562.275	12.33
562.473	12.4
562.67	12.53
562.867	12.59
563.064	12.68
563.262	12.76
563.459	12.84
563.656	13.03
563.853	13.01
564.051	13.09
564.248	13.29
564.445	13.4
564.642	13.35
564.839	13.52
565.036	13.61
565.234	13.72
565.431	13.83
565.628	13.87
565.825	13.95
566.022	14.07
566.219	14.03
566.416	14.06
566.613	14.2
566.81	14.24
567.007	14.23
567.204	14.29
567.401	14.27
567.598	14.29
567.795	14.27
567.991	14.33
568.188	14.45
568.385	14.68
568.582	14.74
568.779	14.89
568.976	14.93
569.172	15
569.369	14.89
569.566	14.91
569.763	14.97
569.96	15
570.156	14.95
570.353	15.02
570.55	15.08
570.746	15.12
570.943	15.19
571.14	15.29
571.336	15.33
571.533	15.41
571.729	15.45
571.926	15.53
572.123	15.61
572.319	15.71
572.516	15.68
572.712	15.71
572.909	15.69
573.105	15.77
573.302	15.77
573.498	15.93
573.695	15.88
573.891	15.99
574.087	15.95
574.284	15.93
574.48	15.82
574.677	15.93
574.873	15.91
575.069	15.97
575.266	16.08
575.462	16.04
575.658	16.1
575.854	16.07
576.051	16.02
576.247	15.98
576.443	16.08
576.639	16.02
576.835	16.02
577.032	16.02
577.228	16.12
577.424	16.15
577.62	16.1
577.816	16.17
578.012	16.14
578.208	16.04
578.404	15.99
578.6	16.07
578.796	16.03
578.993	16.06
579.189	16.08
579.384	16.02
579.58	15.91
579.776	15.94
579.972	15.91
580.168	15.84
580.364	15.88
580.56	15.9
580.756	15.84
580.952	15.83
581.148	15.84
581.343	15.95
581.539	16
581.735	16.1
581.931	16.19
582.127	16.22
582.322	16.12
582.518	16.14
582.714	16.08
582.909	16
583.105	15.98
583.301	15.95
583.496	15.89
583.692	15.86
583.888	15.86
584.083	15.9
584.279	15.95
584.474	15.84
584.67	15.91
584.866	15.99
585.061	15.87
585.257	15.94
585.452	16.09
585.648	16.01
585.843	15.94
586.039	16.11
586.234	15.98
586.429	15.8
586.625	15.93
586.82	15.87
587.015	15.68
587.211	15.66
587.406	15.79
587.601	15.64
587.797	15.68
587.992	15.77
588.187	15.9
588.383	15.86
588.578	15.85
588.773	15.91
588.968	15.98
589.163	15.94
589.359	15.93
589.554	15.96
589.749	15.91
589.944	15.96
590.139	16
590.334	16.18
590.529	16.2
590.724	16.26
590.919	16.22
591.114	16.21
591.309	16.19
591.504	16.27
591.699	16.21
591.894	16.37
592.089	16.39
592.284	16.4
592.479	16.45
592.674	16.49
592.869	16.44
593.064	16.51
593.259	16.53
593.454	16.61
593.648	16.79
593.843	16.85
594.038	16.89
594.233	16.88
594.428	16.87
594.622	16.88
594.817	16.93
595.012	16.96
595.206	17.06
595.401	17.14
595.596	17.22
595.79	17.28
595.985	17.42
596.18	17.54
596.374	17.65
596.569	17.71
596.763	17.71
596.958	17.78
597.153	17.83
597.347	17.74
597.542	17.89
597.736	17.86
597.931	17.93
598.125	17.97
598.319	18.17
598.514	18.09
598.708	18.22
598.903	18.17
599.097	18.15
599.291	18.09
599.486	18.07
599.68	18.08
599.874	18.26
600.069	18.31
600.263	18.4
600.457	18.56
600.651	18.66
600.846	18.69
601.04	18.76
601.234	18.81
601.428	18.88
601.622	18.95
601.817	18.82
602.011	18.88
602.205	18.92
602.399	18.84
602.593	18.8
602.787	18.94
602.981	18.89
603.175	18.9
603.369	18.89
603.563	19.03
603.757	19.06
603.951	19.11
604.145	19.09
604.339	19.14
604.533	18.9
604.727	18.77
604.921	18.73
605.115	18.71
605.309	18.75
605.502	18.84
605.696	18.83
605.89	18.86
606.084	18.78
606.278	18.75
606.471	18.69
606.665	18.64
606.859	18.5
607.053	18.58
607.246	18.51
607.44	18.53
607.634	18.54
607.827	18.56
608.021	18.38
608.214	18.37
608.408	18.37
608.602	18.3
608.795	18.25
608.989	18.25
609.182	18.13
609.376	17.93
609.569	17.9
609.763	17.78
609.956	17.68
610.15	17.57
610.343	17.68
610.537	17.56
610.73	17.58
610.923	17.55
611.117	17.6
611.31	17.51
611.504	17.54
611.697	17.43
611.89	17.46
612.083	17.34
612.277	17.22
612.47	17.11
612.663	17.1
612.856	16.96
613.05	16.9
613.243	16.92
613.436	16.92
613.629	16.8
613.822	16.77
614.015	16.73
614.209	16.5
614.402	16.4
614.595	16.43
614.788	16.32
614.981	16.17
615.174	16.11
615.367	16.02
615.56	15.86
615.753	15.83
615.946	15.82
616.139	15.92
616.332	16.02
616.525	16.04
616.718	16.1
616.911	16.2
617.103	16.12
617.296	16
617.489	15.97
617.682	15.91
617.875	15.85
618.067	15.77
618.26	15.68
618.453	15.67
618.646	15.54
618.838	15.52
619.031	15.56
619.224	15.62
619.417	15.59
619.609	15.67
619.802	15.61
619.994	15.6
620.187	15.6
620.38	15.49
620.572	15.33
620.765	15.24
620.957	15.12
621.15	14.99
621.342	15.03
621.535	15.11
621.727	15.11
621.92	15.03
622.112	14.94
622.305	15.02
622.497	14.85
622.69	14.85
622.882	14.92
623.074	14.98
623.267	14.84
623.459	14.86
623.651	14.8
623.844	14.76
624.036	14.77
624.228	14.67
624.42	14.63
624.613	14.74
624.805	14.72
624.997	14.62
625.189	14.7
625.381	14.81
625.574	14.72
625.766	14.63
625.958	14.67
626.15	14.69
626.342	14.59
626.534	14.58
626.726	14.62
626.918	14.58
627.11	14.51
627.302	14.51
627.494	14.43
627.686	14.43
627.878	14.44
628.07	14.49
628.262	14.49
628.454	14.57
628.646	14.53
628.838	14.53
629.029	14.44
629.221	14.43
629.413	14.28
629.605	14.22
629.797	14.13
629.989	14.13
630.18	14.01
630.372	13.94
630.564	13.94
630.755	14.05
630.947	14.05
631.139	13.94
631.33	13.94
631.522	13.96
631.714	13.92
631.905	13.82
632.097	13.9
632.289	13.9
632.48	13.84
632.672	13.7
632.863	13.61
633.055	13.57
633.246	13.54
633.438	13.43
633.629	13.47
633.821	13.58
634.012	13.57
634.203	13.51
634.395	13.56
634.586	13.55
634.777	13.4
634.969	13.42
635.16	13.53
635.351	13.46
635.543	13.4
635.734	13.5
635.925	13.48
636.117	13.46
636.308	13.45
636.499	13.44
636.69	13.28
636.881	13.19
637.073	13.19
637.264	13.18
637.455	13.25
637.646	13.38
637.837	13.43
638.028	13.3
638.219	13.35
638.41	13.2
638.601	13.06
638.792	13.11
638.983	13.14
639.174	13.03
639.365	13.05
639.556	13.09
639.747	13.01
639.938	13.05
640.129	13.08
640.32	13.06
640.511	13.04
640.701	13.07
640.892	12.91
641.083	12.99
641.274	13.06
641.465	13.09
641.655	12.99
641.846	13.06
642.037	12.99
642.228	12.84
642.418	12.81
642.609	12.88
642.8	12.86
642.99	12.8
643.181	12.92
643.372	12.94
643.562	12.87
643.753	12.75
643.943	12.67
644.134	12.6
644.324	12.48
644.515	12.5
644.705	12.66
644.896	12.73
645.086	12.72
645.277	12.7
645.467	12.65
645.658	12.51
645.848	12.51
646.038	12.5
646.229	12.48
646.419	12.37
646.61	12.41
646.8	12.31
646.99	12.24
647.18	12.21
647.371	12.28
647.561	12.18
647.751	12.22
647.941	12.1
648.132	12.13
648.322	12.09
648.512	12.15
648.702	12.11
648.892	12.23
649.082	12.24
649.272	12.21
649.462	12.09
649.653	11.93
649.843	11.85
650.033	11.78
650.223	11.71
650.413	11.72
650.603	11.83
650.793	11.96
650.983	11.88
651.172	11.87
651.362	11.87
651.552	11.79
651.742	11.59
651.932	11.6
652.122	11.63
652.312	11.71
652.502	11.73
652.691	11.86
652.881	11.82
653.071	11.74
653.261	11.56
653.45	11.35
653.64	11.31
653.83	11.23
654.019	11.21
654.209	11.21
654.399	11.28
654.588	11.06
654.778	11
654.968	10.91
655.157	10.81
655.347	10.67
655.536	10.6
655.726	10.43
655.915	10.25
656.105	10.14
656.294	10.16
656.484	9.99
656.673	9.93
656.863	9.99
657.052	9.84
657.241	9.66
657.431	9.46
657.62	9.41
657.809	9.16
657.999	9.14
658.188	9.01
658.377	9.02
658.567	8.96
658.756	8.87
658.945	8.69
659.134	8.49
659.324	8.45
659.513	8.33
659.702	8.24
659.891	8.17
660.08	8.16
660.269	8.15
660.458	8.02
660.648	7.9
660.837	7.76
661.026	7.7
661.215	7.5
661.404	7.37
661.593	7.35
661.782	7.19
661.971	7.17
662.16	7.14
662.349	7.14
662.538	6.93
662.726	7.09
662.915	6.96
663.104	6.84
663.293	6.75
663.482	6.81
663.671	6.62
663.86	6.47
664.048	6.42
664.237	6.42
664.426	6.26
664.615	6.3
664.803	6.42
664.992	6.32
665.181	6.2
665.369	6.15
665.558	6.02
665.747	5.85
665.935	5.98
666.124	6.05
666.312	6.14
666.501	6.1
666.69	6.04
666.878	5.95
667.067	5.71
667.255	5.75
667.444	6.05
667.632	6.18
667.82	6.22
668.009	6.26
668.197	6.12
668.386	5.96
668.574	6
668.762	5.98
668.951	5.98
669.139	6.1
669.327	5.86
669.516	5.87
669.704	5.88
669.892	6.04
670.08	6.01
670.269	6.09
670.457	6
670.645	5.82
670.833	5.84
671.021	5.87
671.21	5.97
671.398	6.17
671.586	6.29
671.774	6.18
671.962	6.08
672.15	6.08
672.338	5.86
672.526	5.93
672.714	5.87
672.902	5.98
673.09	6.1
673.278	6.44
673.466	6.56
673.654	6.78
673.842	6.86
674.03	6.87
674.218	6.65
674.405	6.67
674.593	6.57
674.781	6.61
674.969	6.68
675.157	6.8
675.344	6.86
675.532	6.98
675.72	7.13
675.908	7.18
676.095	7.11
676.283	7.08
676.471	7.29
676.658	7.25
676.846	7.25
677.033	7.39
677.221	7.5
677.409	7.31
677.596	7.35
677.784	7.34
677.971	7.34
678.159	7.35
678.346	7.5
678.534	7.57
678.721	7.78
678.909	7.83
679.096	7.94
679.283	8.05
679.471	8.12
679.658	8.12
679.846	8.34
680.033	8.52
680.22	8.53
680.408	8.53
680.595	8.59
680.782	8.56
680.969	8.57
681.157	8.68
681.344	8.69
681.531	8.73
681.718	8.65
681.905	8.67
682.093	8.75
682.28	9.06
682.467	9.29
682.654	9.57
682.841	9.65
683.028	9.84
683.215	9.8
683.402	9.6
683.589	9.56
683.776	9.68
683.963	9.6
684.15	9.84
684.337	10.1
684.524	10.35
684.711	10.48
684.898	10.61
685.085	10.73
685.271	11.08
685.458	11.29
685.645	11.49
685.832	11.79
686.019	12.04
686.205	12.18
686.392	12.4
686.579	12.62
686.766	12.89
686.952	13.18
687.139	13.62
687.326	13.78
687.512	14.17
687.699	14.5
687.886	14.55
688.072	14.48
688.259	14.85
688.445	15.16
688.632	15.27
688.818	15.98
689.005	16.4
689.191	16.8
689.378	17.32
689.564	17.95
689.751	18.06
689.937	18.51
690.124	18.97
690.31	19.1
690.496	19.52
690.683	20.17
690.869	20.63
691.055	21.01
691.242	21.81
691.428	22.28
691.614	22.76
691.8	23.65
691.987	24.26
692.173	24.66
692.359	25.27
692.545	25.81
692.731	25.91
692.918	26.41
693.104	26.98
693.29	27.59
693.476	28.25
693.662	29.17
693.848	29.81
694.034	30.5
694.22	30.99
694.406	31.4
694.592	31.85
694.778	32.47
694.964	33.08
695.15	33.68
695.336	34.47
695.522	35.53
695.708	36.18
695.894	36.87
696.08	37.69
696.265	38.19
696.451	38.58
696.637	39.49
696.823	39.98
697.009	40.35
697.194	41
697.38	41.42
697.566	41.74
697.751	42.36
697.937	43.21
698.123	43.92
698.308	44.55
698.494	45.15
698.68	45.77
698.865	46.24
699.051	46.78
699.236	47.22
699.422	47.72
699.607	48
699.793	48.39
699.978	48.73
700.164	49.08
700.349	49.78
700.535	50.3
700.72	50.86
700.906	51.61
701.091	52.37
701.276	52.73
701.462	53.65
701.647	54.33
701.832	54.68
702.018	55.07
702.203	55.3
702.388	55.28
702.573	55.62
702.759	56.28
702.944	56.57
703.129	57.19
703.314	57.56
703.499	57.75
703.684	57.72
703.87	58.72
704.055	59.49
704.24	60.16
704.425	60.77
704.61	61.23
704.795	61.38
704.98	61.57
705.165	61.46
705.35	61.52
705.535	61.82
705.72	61.98
705.905	62.14
706.09	62.94
706.275	63.58
706.459	63.74
706.644	63.73
706.829	64.07
707.014	64.02
707.199	64.21
707.384	64.92
707.568	65.27
707.753	65.68
707.938	66.16
708.123	66.13
708.307	65.89
708.492	66.42
708.677	66.43
708.861	66.54
709.046	66.66
709.231	67.28
709.415	67.52
709.6	67.74
709.784	67.79
709.969	68.35
710.153	68.2
710.338	68.14
710.522	68.33
710.707	68.7
710.891	68.88
711.076	69.22
711.26	69.15
711.445	69.62
711.629	69.87
711.813	69.93
711.998	70.39
712.182	70.42
712.366	70.47
712.551	71.18
712.735	71.52
712.919	71.51
713.103	71.89
713.288	71.67
713.472	71.11
713.656	71.57
713.84	71.74
714.024	72.02
714.208	72.23
714.393	72.64
714.577	72.48
714.761	72.69
714.945	72.73
715.129	72.77
715.313	72.97
715.497	73.06
715.681	73.33
715.865	73.3
716.049	73.54
716.233	73.09
716.417	73
716.601	72.96
716.785	73.27
716.968	73.32
717.152	73.62
717.336	73.9
717.52	73.88
717.704	74.05
717.888	74.41
718.071	74.47
718.255	74.63
718.439	74.27
718.622	74.37
718.806	73.92
718.99	73.78
719.174	73.63
719.357	74
719.541	73.89
719.724	74.03
719.908	74.67
720.092	74.89
720.275	75.13
720.459	75.18
720.642	75.14
720.826	74.88
721.009	74.64
721.193	73.79
721.376	74.12
721.559	74.91
721.743	75.53
721.926	76.17
722.11	76.84
722.293	76.21
722.476	75.43
722.66	74.75
722.843	74.27
723.026	73.92
723.21	74.63
723.393	75.85
723.576	75.87
723.759	75.38
723.942	76.32
724.126	76.02
724.309	75.9
724.492	76.46
724.675	76.88
724.858	76.74
725.041	77.06
725.224	76.82
725.407	76.34
725.59	76.86
725.774	76.6
725.957	75.89
726.14	75.64
726.322	76.12
726.505	75.57
726.688	76.17
726.871	76.82
727.054	76.82
727.237	76.65
727.42	76.96
727.603	76.31
727.786	75.98
727.968	76.06
728.151	76.23
728.334	76.44
728.517	76.43
728.699	77.39
728.882	77.19
729.065	77.75
729.248	77.82
729.43	77.9
729.613	78.06
729.796	78.56
729.978	77.61
730.161	77.81
730.343	77.86
730.526	78.22
730.708	77.38
730.891	77.92
731.073	77.72
731.256	77.52
731.438	77.08
731.621	79.04
731.803	79.15
731.986	79.65
732.168	79.9
732.35	80.07
732.533	79.01
732.715	79.01
732.898	79.26
733.08	78.86
733.262	78.8
733.444	78.34
733.627	78.5
733.809	78.22
733.991	79.63
734.173	79.16
734.355	79.39
734.538	79.48
734.72	79.2
734.902	79.05
735.084	79.2
735.266	79.68
735.448	80.43
735.63	80.17
735.812	79.65
735.994	81.33
736.176	81.24
736.358	80.04
736.54	81.62
736.722	81.26
736.904	79.71
737.086	79.79
737.268	81.27
737.45	80.33
737.632	80.55
737.814	80.15
737.995	80.86
738.177	80.61
738.359	79.64
738.541	80.14
738.723	80.88
738.904	80.24
739.086	79.65
739.268	80.24
739.449	80.45
739.631	80.42
739.813	80.74
739.994	81.21
740.176	81.99
740.358	81.44
740.539	82.48
740.721	82.47
740.902	83.69
741.084	83.05
741.265	82.81
741.447	82.08
741.628	82.28
741.81	80.22
741.991	80.35
742.172	82.25
742.354	82.75
742.535	82.39
742.717	82.79
742.898	83.25
743.079	82.38
743.261	82.09
743.442	81.87
743.623	83.42
743.804	83.54
743.986	83.98
744.167	82.94
744.348	83.09
744.529	82.39
744.71	81.34
744.891	80.51
745.073	80.23
745.254	79.59
745.435	78.71
745.616	78.31
745.797	77.8
745.978	78.01
746.159	79.01
746.34	78.75
746.521	81.04
746.702	80.65
746.883	81.14
747.064	81.62
747.245	81.69
747.426	81.06
747.606	82.72
747.787	83.26
747.968	83.22
748.149	83.66
748.33	84.3
748.51	83.84
748.691	82.92
748.872	82.76
749.053	83.19
749.233	81.34
749.414	80.75
749.595	80.01
749.775	78.72
749.956	77.88
750.137	77.26
750.317	79.24
750.498	81.28
750.678	82.48
750.859	83.62
751.04	84.68
751.22	82.41
751.4	80.5
751.581	79.85
751.761	80.06
751.942	80.87
752.122	82.13
752.303	82.72
752.483	82.98
752.663	81.5
752.844	80.06
753.024	81.02
753.204	82.33
753.385	81.21
753.565	81.88
753.745	82.98
753.925	80.48
754.106	79.05
754.286	80.06
754.466	80.62
754.646	80.87
754.826	81.55
755.006	80.49
755.187	80.21
755.367	80.72
755.547	81.39
755.727	82.91
755.907	85.07
756.087	86.04
756.267	83.35
756.447	82.67
756.627	79.46
756.807	79.46
756.987	78.26
757.167	79.88
757.346	79.65
757.526	79.38
757.706	80.34
757.886	80.92
758.066	82.11
758.246	83.87
758.425	84.94
758.605	82.38
758.785	81.98
758.965	80.84
759.144	77.43
759.324	78.02
759.504	78.91
759.683	79.94
759.863	78.47
760.043	78.58
760.222	79.01
760.402	79.64
760.581	78.32
760.761	80.42
760.94	79.51
761.12	80.9
761.299	81.68
761.479	82.34
761.658	79.98
761.838	81.33
762.017	81.68
762.197	80.59
762.376	79.34
762.555	82.12
762.735	82.55
762.914	79.12
763.093	79.54
763.273	80.04
763.452	78.85
763.631	78.64
763.81	80.04
763.99	80.61
764.169	80.93
764.348	79.47
764.527	79.2
764.706	80.51
764.885	80.38
765.064	78.83
765.243	80.75
765.423	82.34
765.602	81.33
765.781	78.33
765.96	78.61
766.139	76.68
766.318	76.83
766.497	76.76
766.676	78.11
766.854	80.27
767.033	80.99
767.212	79.93
767.391	79.46
767.57	80.91
767.749	81.06
767.928	81.58
768.106	79.81
768.285	77.27
768.464	76.86
768.643	76.08
768.821	75.82
769	79.24
769.179	81.44
769.357	78.55
769.536	77.63
769.715	78.59
769.893	78.82
770.072	78.42
770.25	81.44
770.429	83.27
770.607	82.51
770.786	78.89
770.964	80.42
771.143	78.11
771.321	78.37
771.5	79.53
771.678	80.17
771.857	77.3
772.035	79.66
772.213	78.15
772.392	75.31
772.57	77.15
772.748	81.03
772.927	80.08
773.105	78.36
773.283	79.82
773.461	80.43
773.64	78.82
773.818	77.95
773.996	79.35
774.174	78.08
774.352	73.01
774.531	71.68
774.709	74.18
774.887	74.09
775.065	74.23
775.243	76.7
775.421	77.27
775.599	79.09
775.777	77.21
775.955	75.55
776.133	75.24
776.311	75.76
776.489	71.86
776.667	73.56
776.844	75.75
777.022	76.37
777.2	75.61
777.378	73.53
777.556	74.82
777.734	76.29
777.911	77.23
778.089	76.14
778.267	78.33
778.445	74.74
778.622	72.37
778.8	69.94
778.978	73.8
779.155	74.07
779.333	76.51
779.511	78.07
779.688	83.5
779.866	77.34
780.043	72.93
780.221	70.77
780.398	67.87
780.576	66.83
780.753	72.1
780.931	74.54
781.108	75.36
781.286	78.73
781.463	74.53
781.64	69.93
781.818	73.77
781.995	74.89
782.172	72.21
782.35	74.56
782.527	78.89
782.704	74.68
782.882	76.02
783.059	75.63
783.236	76.52
783.413	75.75
783.59	77.56
783.768	71.79
783.945	78.59
784.122	78.6
784.299	77.72
784.476	72.83
784.653	75.53
784.83	70.4
785.007	65.93
785.184	65.5
785.361	69.69
785.538	73.97
785.715	76.47
785.892	78.95
786.069	82.07
786.246	83.68
786.423	81.19
786.6	78.6
786.776	80.56
786.953	78.65
787.13	77.94
787.307	75.26
787.484	74.53
787.66	71.95
787.837	70.43
788.014	68.26
788.191	70.08
788.367	67.85
788.544	70.61
788.721	69.59
788.897	71.36
789.074	71.2
789.25	69.86
789.427	70.07
789.603	71.59
789.78	72.82
789.956	72.19
790.133	76.74
790.309	78.26
790.486	81.53
790.662	79.54
790.839	80.56
791.015	79.39
791.192	72.57
791.368	71.44
791.544	68.54
791.721	66.29
791.897	65.12
792.073	62.84
792.249	59.36
792.426	62.37
792.602	64.28
792.778	62.88
792.954	63.67
793.13	60.74
793.307	54.56
793.483	48.9
793.659	48.92
793.835	50.9
794.011	51.92
794.187	52.41
794.363	55.11
794.539	60.05
794.715	56.43
794.891	59.05
795.067	60.99
795.243	63.62
795.419	62.19
795.595	62.73
795.771	61.34
795.947	63.45
796.122	61.08
796.298	64.49
796.474	66.08
796.65	65.06
796.826	63.65
797.001	67.14
797.177	58.62
797.353	67.13
797.529	68.54
797.704	66.44
797.88	63.12
798.056	64
798.231	59.72
798.407	62.14
798.582	65.31
798.758	72.1
798.934	80.21
799.109	77.22
799.285	75.8
799.46	76.19
799.636	72.76
799.811	69.12
799.986	70.58
800.162	71.81
800.337	75.09
800.513	67.34
800.688	63.18
800.863	73.13
801.039	66.99
801.214	61.86
801.389	71.28
801.565	74.88
801.74	55.33
801.915	66.5
802.09	62.75
802.265	68.56
802.441	68.77
802.616	74.03
802.791	73.01
802.966	76.52
803.141	73.03
803.316	65.76
803.491	66.43
803.666	63.2
803.841	56.73
804.016	48.25
804.191	50.81
804.366	52.65
804.541	51.53
804.716	54.46
804.891	49.03
805.066	58.82
805.241	58.34
805.416	60.98
805.591	64.18
805.765	71.78
805.94	72.86
806.115	75.2
806.29	63.1
806.464	60.59
806.639	58.46
806.814	47.48
806.989	36.11
807.163	50.27
807.338	55.14
807.512	42.89
807.687	34.65
807.862	56.65
808.036	62.11
808.211	61.13
808.385	79.59
808.56	107.22
808.734	97.31
808.909	90.06
809.083	82.76
809.258	80.46
809.432	68.97
809.606	60.96
809.781	55.24
809.955	63.09
810.13	70.65
810.304	59.45
810.478	56.32
810.652	66.83
810.827	69.67
811.001	52.68
811.175	55.12
811.349	55.12
811.524	50.2
811.698	32.57
811.872	36.39
812.046	44.6
812.22	54.22
812.394	45.59
812.568	51.61
812.742	57.4
812.916	52.29
813.09	38.35
813.264	46.34
813.438	52.41
813.612	47.86
813.786	43.66
813.96	62.97
814.134	64.21
814.308	68.63
814.482	71.3
814.656	74.04
814.83	70.19
815.003	69.93
815.177	60.86
815.351	52.37
815.525	45.21
815.698	34.94
815.872	25.4
816.046	22.44
816.219	32.48
816.393	52.49
816.567	60.13
816.74	68.43
816.914	69.11
817.088	72.58
817.261	53.48
817.435	37.89
817.608	36.04
817.782	30.5
817.955	21.26
818.129	33.04
818.302	51.52
818.475	66.98
818.649	65.04
818.822	66.92
818.996	84.12
819.169	85.34
819.342	69.8
819.516	80.24
819.689	76.88
819.862	58.4
820.035	42.13
820.209	46.6
820.382	51.71
820.555	49.79
820.728	39.84
820.901	41.16
821.075	38.03
821.248	30.68
821.421	18.4
821.594	29.87
821.767	52.71
821.94	72.11
822.113	54.53
822.286	55
822.459	69.44
822.632	58.14
822.805	30.53
822.978	39.16
823.151	39.95
823.324	22.57
823.496	3.16
823.669	3.59
823.842	-2.79
824.015	-16.22
824.188	-36.58
824.361	-17.5
824.533	-23.56
824.706	2.28
824.879	19.09
825.051	40.51
825.224	39
825.397	53.08
825.569	34.88
825.742	45.77
825.915	55.31
826.087	62.41
826.26	35.55
826.432	41.79
826.605	44.05
826.777	28.19
826.95	24.31
827.122	29.47
827.295	27.68
827.467	23.73
827.64	9.84
827.812	13.14
827.984	18.54
828.157	6.86
828.329	-20.43
828.501	-8.36
828.674	15.19
828.846	3.13
829.018	39.07
829.19	22.19
829.363	55.08
829.535	53.16
829.707	60.29
829.879	22.59
830.051	22.23
830.223	-8.54
830.395	-49.69
830.568	-44.02
830.74	-34.16
830.912	19.07
831.084	-6.64
831.256	8.07
831.428	-0.55
831.6	-5.72
831.772	-53.75
831.943	-58.08
832.115	-27.54
832.287	8.6
832.459	10.3
832.631	36.27
832.803	67.45
832.975	80.85
833.146	68.52
833.318	79.9
833.49	76.35
833.662	59.3
833.833	18.07
834.005	26.44
834.177	39.03
834.348	37.64
834.52	47.72
834.692	68.19
834.863	74.26
835.035	34.94
835.206	-36.98
835.378	-23.05
835.549	-23.13
835.721	-38.89
835.892	-35.37
836.064	-13.46
836.235	-16.89
836.407	9.45
836.578	4.43
836.749	21.91
836.921	33.56
837.092	-19.04
837.264	-35.21
837.435	-59.15
837.606	-10.31
837.777	24.91
837.949	44.15
838.12	36.05
838.291	59.91
838.462	42.31
838.633	11.13
838.805	0.9
838.976	28.02
839.147	-13.69
839.318	-41.44
839.489	-84.31
839.66	-60.88
839.831	-19.1
840.002	-33.51
840.173	-41.12
840.344	20.34
840.515	18.44
840.686	-142.4
840.857	-86.82
841.028	-88.77
841.199	-63.8
841.369	-83.13
841.54	-48.77
841.711	-10.47
841.882	23.48
842.053	-10.13
842.223	-13.67
842.394	-9.92
842.565	4.1
842.736	9.87
842.906	22.95
843.077	36.31
843.248	72.93
843.418	39.23
843.589	-1.88
843.759	72.86
843.93	97.07
844.101	20.69
844.271	39.08
844.442	69.79
844.612	55.78
844.783	21.99
844.953	-10.61
845.123	-11.52
845.294	-30.24
845.464	-277.54
845.635	-138.62
845.805	-8.78
845.975	-16.91
846.146	-68.31
846.316	-21.95
846.486	3.03
846.656	29.59
846.827	21.66
846.997	21.93
847.167	45.36
847.337	18.44
847.507	-33.94
847.677	-5
847.848	56.62
848.018	44.82
848.188	52.36
848.358	33.93
848.528	20.67
848.698	-28.82
848.868	-86.86
849.038	-219.91
849.208	-41.39
849.378	6.19
849.548	-5.25
849.718	8.9
849.887	39.61
850.057	5.48
850.227	-28.19
850.397	-32.88
850.567	-159.09
850.737	-429.02
850.906	-1158.44
851.076	-871.68
851.246	-438.09
851.415	-27.23
851.585	-15.92
851.755	-47.54
851.924	2.6
852.094	-14.21
852.264	-155.92
852.433	-1020.91
852.603	-132.12
852.772	-94.11
852.942	-36.05
853.111	-42.13
853.281	-8.05
853.45	-13.44
853.62	-92.45
853.789	-125.48
853.959	-100.72
854.128	-86.83
854.297	-155.55
854.467	-154.64
854.636	-114.45
854.805	-19.93
854.975	-39.67
855.144	-5.68
855.313	369.41
855.482	89.96
855.652	-138.29
855.821	-103.71
855.99	35.39
856.159	23.15
856.328	27.76
856.497	4.44
856.667	12.5
856.836	18.17
857.005	-16.51
857.174	-38.16
857.343	-31.59
857.512	-32.32
857.681	-106.09
857.85	-148.9
858.019	-67.4
858.188	-54.86
858.356	-58.51
858.525	-98.32
858.694	-83.65
858.863	-243.58
859.032	-183.69
859.201	-269.03
859.369	-143.81
859.538	-89.95
859.707	-71.04
859.876	-105.64
860.044	-96.8
860.213	-22.77
860.382	-23.01
860.55	-14.55
860.719	29.86
860.888	36.31
861.056	-0.52
861.225	-30.22
861.393	14.37
861.562	-8.35
861.73	-60.3
861.899	-150.65
862.067	-1675
862.236	-85.25
862.404	-240.27
862.572	-152.35
862.741	-48.95
862.909	-30.68
863.078	-206.98
863.246	-135.18
863.414	-115
863.582	-83.08
863.751	-113.35
863.919	-42.38
864.087	-5.88
864.255	7.85
864.424	-203.09
864.592	-5.33
864.76	4.64
864.928	230.6
865.096	-39.09
865.264	-65.43
865.432	-1151.7
865.6	-17.88
865.768	-105.55
865.936	-101.58
866.104	-108.18
866.272	-91.8
866.44	-429.82
866.608	798.78
866.776	388.22
866.944	3634.3
867.112	-667.27
867.28	-270.74
867.448	-87.16
867.615	-35.29
867.783	-8.82
867.951	-28.04
868.119	15.93
868.286	-16.19
868.454	-118.75
868.622	-177.51
868.789	-188.25
868.957	-3983.93
869.125	-2707.24
869.292	-201.17
869.46	-226.8
869.627	-1.7
869.795	-1.87
869.963	15.23
870.13	38.48
870.298	35.98
870.465	-79.33
870.632	-114.44
870.8	-79.06
870.967	-174.3
871.135	-212.37
871.302	-182.75
871.469	-199.06
871.637	-277.49
871.804	-136.73
871.971	-165.96
872.139	-544.07
872.306	-77.92
872.473	-105.2
872.64	-417.06
872.807	-131.41
872.975	7.36
873.142	-181
873.309	1758.78
873.476	72.25
873.643	108.55
873.81	99.68
873.977	78.22
874.144	89.76
874.311	-39.47
874.478	-145.89
874.645	-218.47
874.812	-123.52
874.979	-82.41
875.146	-81.5
875.313	-61.68
875.48	57.19
875.647	14.25
875.813	-24.48
875.98	-12.13
876.147	-21.5
876.314	-95.64
876.481	1083.26
876.647	-1031.18
876.814	298.32
876.981	41.63
877.147	-51.08
877.314	5.23
877.481	19.64
877.647	28.96
877.814	-24.15
877.98	-29.72
878.147	25.59
878.314	71.49
878.48	-2.91
878.647	26.19
878.813	57
878.979	37.53
879.146	-35.94
879.312	-27.19
879.479	-90.16
879.645	-228.46
879.811	-423.9
879.978	-860.88
880.144	-239.26
880.31	-125.39
880.477	-320.9
880.643	-412.94
880.809	-157.88
880.975	-111.73
881.142	-812.5
881.308	-83.15
881.474	-11.57
881.64	-26.17
881.806	-114.1
881.972	-42.3
882.138	-47.69
882.304	-21.54
882.47	-216.38
882.636	-720.29
882.802	-154.7
882.968	-16.27
883.134	-11.5
883.3	-10.08
883.466	27.9
883.632	54.67
883.798	25.16
883.964	35.96
884.129	49.72
884.295	70.23
884.461	-25.94
884.627	-63.61
884.793	-83.71
884.958	-38.06
885.124	-142.48
885.29	-246.47
885.455	-264.93
885.621	-119.1
885.787	-180.4
885.952	-66.01
886.118	-56.66
886.283	-84.55
886.449	-198.77
886.614	-184.78
886.78	-421.06
886.945	1573.36
887.111	-698.7
887.276	-475.43
887.442	-954.32
887.607	-364.98
887.773	-308.52
887.938	-216.91
888.103	-275.77
888.269	-163.48
888.434	-363.11
888.599	-123.64
888.764	-14.01
888.93	-3.04
889.095	-28.15
889.26	-79.99
889.425	-46.27
889.59	-73.86
889.756	-94.24
889.921	-85.34
890.086	11.67
890.251	2.7
890.416	-148.91
890.581	-1194.76
890.746	94.2
890.911	290.29
891.076	166.87
891.241	-351.31
891.406	22.31
891.571	2.19
891.736	-207.68
891.901	-201.55
892.065	200.82
892.23	109.82
892.395	222.46
892.56	365.82
892.725	-508.4
892.889	-1923.78
893.054	-288.56
893.219	-123.98
893.384	-58.99
893.548	-136.44
893.713	-138.93
893.878	-105.96
