Data from Ofra_PS_T2_2A_9GT47_Reflection_3.txt Node
Date: Wed Jul 21 17:27:23 EDT 2021
User: Adam
Spectrometer: FLMT01687
Trigger mode: 0
Integration Time (sec): 1.100000E0
Scans to average: 2
Electric dark correction enabled: true
Nonlinearity correction enabled: false
Boxcar width: 2
XAxis mode: Wavelengths
Number of Pixels in Spectrum: 3648
>>>>>Begin Spectral Data<<<<<
179.494	553.6
179.716	661.18
179.937	615.93
180.158	614.5
180.38	1129.37
180.601	408.29
180.823	34.78
181.044	-137.44
181.265	80.15
181.486	-4.56
181.708	97.23
181.929	1226.53
182.15	-808.45
182.372	150.68
182.593	41.46
182.814	28.23
183.035	83.3
183.257	74.75
183.478	-50
183.699	34.08
183.92	7.69
184.141	-29.24
184.363	-114.94
184.584	-50
184.805	-43.84
185.026	-11.33
185.247	40.92
185.468	30.69
185.689	43.72
185.91	56.79
186.132	52.85
186.353	6.86
186.574	78.55
186.795	55.78
187.016	1.52
187.237	-4.86
187.458	-25.37
187.679	-37.04
187.9	-34.33
188.121	-13.99
188.342	-14.32
188.563	33.73
188.784	59.07
189.005	70.97
189.226	101.27
189.447	117.73
189.667	134.95
189.888	-142.36
190.109	-897.4
190.33	-604.52
190.551	-1325.66
190.772	-298.79
190.993	-273.75
191.214	-255.02
191.434	-176.68
191.655	-54.6
191.876	-125.93
192.097	-143.88
192.318	-190.78
192.538	-222.87
192.759	-187
192.98	-84.17
193.201	-42.34
193.421	-8.38
193.642	6.09
193.863	6.51
194.083	-32.25
194.304	-44.75
194.525	-50.51
194.745	-98.59
194.966	-107.72
195.187	-74.41
195.407	-81.74
195.628	-196.45
195.848	-197.38
196.069	-210.65
196.29	-143.7
196.51	-148.94
196.731	-91.78
196.951	-109.01
197.172	-104.28
197.392	-142.27
197.613	-162.59
197.833	-187.9
198.054	-165.25
198.274	-91.3
198.495	-130.43
198.715	-85.04
198.936	-98.81
199.156	-75.36
199.377	-180.66
199.597	-139.93
199.817	-120.94
200.038	-72.81
200.258	-107.42
200.479	-43.97
200.699	-36.75
200.919	2.58
201.14	-31.29
201.36	-47.76
201.58	-5.85
201.801	23.26
202.021	-20.95
202.241	-25.74
202.461	-31.3
202.682	-145.68
202.902	-223.14
203.122	-121.55
203.342	-87.27
203.563	-36.84
203.783	-11.37
204.003	-56.96
204.223	-78.46
204.443	3.17
204.663	-29.46
204.884	-5.91
205.104	33.18
205.324	54.53
205.544	15.73
205.764	42.75
205.984	40.25
206.204	41.62
206.424	29.71
206.644	3.93
206.864	8.89
207.084	-22.85
207.304	0.33
207.525	-127.81
207.745	-57.04
207.964	2.47
208.184	-58.73
208.404	-103.4
208.624	-97.38
208.844	-98.94
209.064	-448.16
209.284	-475.13
209.504	-313.13
209.724	-109.97
209.944	-81.68
210.164	-40.41
210.384	-10.24
210.604	-1.58
210.823	-51.83
211.043	-55.57
211.263	-38.41
211.483	-50.34
211.703	-114.29
211.922	-92.76
212.142	-38.71
212.362	-54.97
212.582	-52.28
212.801	-22.69
213.021	-37.7
213.241	-71.89
213.461	-109.38
213.68	-105.04
213.9	-69.55
214.12	-56.95
214.339	-102.51
214.559	-66.64
214.779	-28.32
214.998	-27.23
215.218	-55.64
215.438	-24.92
215.657	-35.86
215.877	-32.53
216.096	-18.59
216.316	-6.56
216.535	-10.86
216.755	-9.63
216.974	-132.51
217.194	-194.22
217.413	-190.72
217.633	-193.08
217.852	-330.71
218.072	-121.95
218.291	-57.16
218.511	-0.07
218.73	-22.8
218.95	-17.55
219.169	-35.16
219.389	-88.11
219.608	-86.69
219.827	-81.09
220.047	-73.27
220.266	-48.64
220.485	-37.17
220.705	-28.76
220.924	-44.39
221.143	16.54
221.363	-12.08
221.582	-12.31
221.801	8.7
222.021	41.09
222.24	-68.44
222.459	34.94
222.678	21.57
222.897	-80.85
223.117	-160.14
223.336	-123.58
223.555	-125.72
223.774	-70.31
223.993	-52.58
224.213	26.39
224.432	-0.71
224.651	39.72
224.87	-2.42
225.089	17.13
225.308	-4.44
225.527	22.25
225.746	6.03
225.965	10.34
226.184	-9.65
226.404	11.96
226.623	-24.36
226.842	-19.15
227.061	9.94
227.28	11.64
227.499	-5.95
227.718	22.23
227.936	7.71
228.155	-1.88
228.374	-20.61
228.593	-12.25
228.812	-30.16
229.031	-31.62
229.25	-91.11
229.469	-83.99
229.688	-80.06
229.907	-23.38
230.125	-11.61
230.344	18.18
230.563	28.05
230.782	40.62
231.001	-39.02
231.22	-15.47
231.438	-0.52
231.657	-2.7
231.876	1.29
232.095	42.7
232.313	44.77
232.532	47.01
232.751	5.17
232.969	-31.98
233.188	-110.85
233.407	-20
233.625	-23.4
233.844	-25.7
234.063	-8.42
234.281	13.57
234.5	-18.02
234.719	-5.17
234.937	12.9
235.156	6.61
235.374	-0.59
235.593	-7.86
235.811	-14.07
236.03	-23.91
236.249	-73.74
236.467	-65.38
236.686	-31.67
236.904	-19.8
237.123	-50
237.341	-37.84
237.559	-31.3
237.778	-56.26
237.996	-101.66
238.215	-31.38
238.433	-11.75
238.652	-34.33
238.87	-50
239.088	-29.06
239.307	-47.02
239.525	-71.26
239.743	-69.97
239.962	-53.36
240.18	-71.67
240.398	-129.79
240.617	-111.26
240.835	-89.98
241.053	-41.85
241.271	11.06
241.49	42.78
241.708	21.97
241.926	-15.53
242.144	-50.15
242.363	-116.25
242.581	-162.03
242.799	-103.7
243.017	-46.19
243.235	-63.62
243.453	-34.88
243.672	-28.9
243.89	-37.87
244.108	-66.87
244.326	-42.98
244.544	-48.02
244.762	-43.36
244.98	-30.86
245.198	-4.84
245.416	-33.13
245.634	-42.18
245.852	-61.76
246.07	-70.41
246.288	-70.2
246.506	-89.26
246.724	-73.11
246.942	-63.56
247.16	-20.84
247.378	-6.97
247.596	23.07
247.814	24.83
248.032	3.28
248.25	6.69
248.468	2.01
248.685	9.12
248.903	40.85
249.121	45.2
249.339	-4.22
249.557	-28.77
249.775	-27.22
249.992	-110.09
250.21	-95.43
250.428	-56.89
250.646	-69.93
250.863	-90.83
251.081	-51.64
251.299	-35.63
251.517	-31.3
251.734	-36.72
251.952	-45.52
252.17	-38.08
252.387	-35.66
252.605	-42.06
252.823	-32.96
253.04	0.1
253.258	16.01
253.475	-0.3
253.693	35.79
253.911	50.41
254.128	39.67
254.346	32.9
254.563	30.05
254.781	0.97
254.998	-30.67
255.216	-35.2
255.433	-23.08
255.651	2.7
255.868	24.28
256.086	57.11
256.303	41.33
256.521	29.96
256.738	14.26
256.956	-27.82
257.173	-59.36
257.39	-73.83
257.608	-120.09
257.825	-45.79
258.043	-8.72
258.26	22.42
258.477	60.13
258.695	71.91
258.912	2.92
259.129	6.04
259.346	-37.79
259.564	-90.15
259.781	-121.25
259.998	-45.14
260.216	-14.77
260.433	12.12
260.65	16.2
260.867	38.74
261.084	-0.92
261.302	-26.94
261.519	-37.95
261.736	-56.38
261.953	-70.43
262.17	-19.35
262.387	-59.61
262.604	-80
262.822	-84.77
263.039	-73.6
263.256	-121.3
263.473	-63.56
263.69	-51.24
263.907	-1.29
264.124	8.29
264.341	11.34
264.558	1.17
264.775	20.58
264.992	0.95
265.209	14.65
265.426	36.32
265.643	49.33
265.86	56.29
266.077	57.94
266.294	17.16
266.51	-40.49
266.727	-52.54
266.944	-52.98
267.161	-51.76
267.378	-30.66
267.595	1.74
267.812	-23.24
268.028	-44.78
268.245	2.76
268.462	-32.33
268.679	-48.18
268.896	-4.21
269.112	-0.05
269.329	-22.01
269.546	-2.37
269.763	-15.79
269.979	-46.61
270.196	-43.18
270.413	-80.43
270.629	-111.12
270.846	-101.78
271.063	-72.45
271.279	-84.37
271.496	-51.39
271.712	-12.32
271.929	11.94
272.146	4.97
272.362	0.73
272.579	26.87
272.795	27.48
273.012	26.35
273.228	17.81
273.445	-0.31
273.661	-34.14
273.878	-93.27
274.094	-85.16
274.311	-120.84
274.527	-44.6
274.744	-53.52
274.96	-36.67
275.177	-27.63
275.393	-17.36
275.609	-53.91
275.826	-11.65
276.042	-21.3
276.259	-34.6
276.475	2.34
276.691	23.37
276.908	-12.09
277.124	1.62
277.34	2.06
277.557	-16.26
277.773	-22.34
277.989	-14.4
278.205	-14.04
278.422	6.67
278.638	15.37
278.854	37.64
279.07	42.85
279.286	41.35
279.503	-4.41
279.719	-38.51
279.935	-71.52
280.151	-104.32
280.367	-93.23
280.583	-110.17
280.799	-68.19
281.016	-91.14
281.232	-36.46
281.448	-21.95
281.664	15.59
281.88	-16.64
282.096	14.67
282.312	28.39
282.528	38.87
282.744	37.06
282.96	38.63
283.176	17.37
283.392	7.35
283.608	-19.97
283.824	-27.31
284.04	-17.49
284.256	-22.6
284.471	-28.1
284.687	-22.65
284.903	-7.64
285.119	11.92
285.335	-1.11
285.551	0.15
285.767	-23.18
285.982	-32.07
286.198	-64.37
286.414	-13.01
286.63	-0.06
286.846	43.66
287.061	14.79
287.277	34.29
287.493	3.99
287.709	13.23
287.924	-16.09
288.14	25.33
288.356	24.12
288.571	48.24
288.787	23.28
289.003	19.73
289.218	-13.07
289.434	-44.11
289.65	-42.4
289.865	-50.41
290.081	-20.69
290.296	18.18
290.512	8.86
290.727	-28.15
290.943	-33.06
291.159	-46.74
291.374	-55.31
291.59	-75.75
291.805	-52.36
292.021	-31.61
292.236	-36.68
292.451	-27.59
292.667	-1.18
292.882	9.98
293.098	2
293.313	-17.03
293.529	-40.2
293.744	-66.33
293.959	-75.39
294.175	-65.53
294.39	-24.22
294.605	2.69
294.821	26.48
295.036	31.78
295.251	32.08
295.467	19.19
295.682	-10.09
295.897	-66.19
296.112	-80.31
296.328	-67.89
296.543	-108.5
296.758	-75.08
296.973	-16.48
297.188	18.6
297.404	-11.06
297.619	-7.13
297.834	-21.01
298.049	-46.66
298.264	-80.68
298.479	-22.77
298.694	-18.87
298.909	-6.43
299.125	11.31
299.34	17.12
299.555	-10.75
299.77	6.13
299.985	-37.16
300.2	-103.3
300.415	-110.14
300.63	-63.81
300.845	-70.59
301.06	-65.09
301.275	-26.47
301.49	-14.18
301.704	-15.62
301.919	-30.43
302.134	-46.29
302.349	-60.38
302.564	-111.28
302.779	-195.6
302.994	-213.17
303.209	-123.15
303.423	-81.93
303.638	-16.79
303.853	-24.36
304.068	-9.7
304.283	-14.28
304.497	-12.72
304.712	-26.51
304.927	-16.5
305.142	-31.56
305.356	-20.96
305.571	-24.66
305.786	-27.81
306	-46.22
306.215	-41.35
306.43	-70.39
306.644	-58.14
306.859	-31.42
307.074	-5.02
307.288	-32.48
307.503	-35.06
307.717	-52.66
307.932	-45.65
308.147	-59.64
308.361	-24.44
308.576	-46.45
308.79	-81.17
309.005	-86.73
309.219	-59.91
309.434	-79.72
309.648	-48.44
309.863	-34.03
310.077	-25.6
310.292	-38.46
310.506	-40.5
310.72	-33.94
310.935	-10.01
311.149	-20.29
311.364	3.41
311.578	24.16
311.792	17.24
312.007	20.95
312.221	10.01
312.435	10.35
312.649	-5.48
312.864	37.65
313.078	8.96
313.292	90.1
313.507	67.17
313.721	81.68
313.935	18.61
314.149	23.9
314.363	0.1
314.578	-6.17
314.792	1.48
315.006	-14.16
315.22	0.71
315.434	1.94
315.648	11.69
315.862	2.13
316.077	7.61
316.291	-8.24
316.505	-17.29
316.719	-46.59
316.933	-51.94
317.147	-54.22
317.361	-121.92
317.575	-130.07
317.789	-179.81
318.003	-256.94
318.217	-171.82
318.431	-61.85
318.645	-16.35
318.859	6.75
319.073	34.43
319.287	12.46
319.5	-19.1
319.714	-58.2
319.928	-82.37
320.142	-110.22
320.356	-62.28
320.57	-8.67
320.784	-15.34
320.997	-5.9
321.211	-10.45
321.425	-73.13
321.639	-103.33
321.853	-43.52
322.066	-38.89
322.28	-41.55
322.494	-31.18
322.707	-22.51
322.921	-41.62
323.135	-29.63
323.349	-21.45
323.562	-34.27
323.776	-42.11
323.989	-34.56
324.203	-71
324.417	-79.03
324.63	-96.17
324.844	-101.13
325.057	-102.23
325.271	-62.9
325.485	-16.39
325.698	17.15
325.912	42.85
326.125	9.03
326.339	8.73
326.552	-27.86
326.766	-27.82
326.979	-29.87
327.193	19.41
327.406	0.81
327.619	3.3
327.833	10.99
328.046	-15.65
328.26	-43.59
328.473	-12.02
328.686	-39.11
328.9	-39.69
329.113	-17.28
329.326	-36.09
329.54	-41.98
329.753	-45.13
329.966	-81.33
330.179	-70.53
330.393	-40.25
330.606	-27.58
330.819	-1.35
331.032	8.44
331.246	10.03
331.459	31.74
331.672	25.68
331.885	15.49
332.098	-0.81
332.311	-8.62
332.525	-66.95
332.738	-29.54
332.951	7.56
333.164	33.47
333.377	39.33
333.59	61.16
333.803	45.26
334.016	27.39
334.229	23.78
334.442	33.16
334.655	41.63
334.868	42.67
335.081	30.56
335.294	12.83
335.507	-10.23
335.72	-17.96
335.933	-41.38
336.146	-30.5
336.359	-35.69
336.572	-65.76
336.785	-91.35
336.997	-78.58
337.21	-66.15
337.423	-69.61
337.636	-54.92
337.849	-37.97
338.062	-46.51
338.274	-40.54
338.487	-43.62
338.7	-35.1
338.913	-68.81
339.125	-95.83
339.338	-157.06
339.551	-127.62
339.763	-94.72
339.976	-63.66
340.189	-15.65
340.402	-3.29
340.614	-9.22
340.827	-21.47
341.039	-27.58
341.252	-10.74
341.465	-5.07
341.677	-10.93
341.89	-39.72
342.102	-25.59
342.315	-68.33
342.527	-104.64
342.74	-79.1
342.952	-24.02
343.165	-21.52
343.377	8.63
343.59	5.9
343.802	14.5
344.015	-2.28
344.227	7.03
344.44	-3.51
344.652	-7.13
344.864	-14.3
345.077	17.05
345.289	17.11
345.502	21.26
345.714	23.28
345.926	19.6
346.139	-0.31
346.351	13.65
346.563	15.91
346.775	15.22
346.988	16.84
347.2	4.69
347.412	-56.07
347.624	-86.02
347.837	-95.64
348.049	-79.24
348.261	-40.46
348.473	-20
348.685	-13.37
348.897	-4.95
349.11	-10.34
349.322	-31.9
349.534	-30.15
349.746	-32.26
349.958	-28.54
350.17	-51.49
350.382	-20.48
350.594	-21.04
350.806	-11.31
351.018	-16.82
351.23	-30.33
351.442	-85.34
351.654	-93.99
351.866	-89.05
352.078	-71.33
352.29	-41.42
352.502	-9.71
352.714	-0.94
352.926	-12.43
353.138	-6.13
353.35	-7.1
353.561	-9.43
353.773	-29.59
353.985	-8.9
354.197	-34.21
354.409	-36.29
354.621	-40.12
354.832	-26.65
355.044	-37.71
355.256	-31.65
355.468	-27.91
355.679	-30.4
355.891	-23.36
356.103	-44.64
356.314	-31.38
356.526	-29.79
356.738	-19.93
356.949	-30.43
357.161	-13.92
357.373	-12.62
357.584	-21.5
357.796	-15.11
358.008	-24.89
358.219	-8.16
358.431	-11.91
358.642	-6.75
358.854	-1.74
359.065	-1.95
359.277	-23.75
359.488	-37.43
359.7	-58.5
359.911	-77.89
360.123	-54.05
360.334	-74.77
360.546	-89.2
360.757	-68.9
360.969	-65.4
361.18	-44.05
361.391	-9.9
361.603	-31.68
361.814	-22.46
362.025	-24.08
362.237	-38.58
362.448	-36.49
362.659	1.53
362.871	-12.53
363.082	6.65
363.293	7.3
363.504	-8.75
363.716	-38.69
363.927	-33.41
364.138	-76.15
364.349	-101.59
364.56	-75.01
364.772	-55.63
364.983	-26.06
365.194	-21.38
365.405	-1.27
365.616	14.62
365.827	3.12
366.038	-34.66
366.25	-36.66
366.461	-66.44
366.672	-49.74
366.883	-9.64
367.094	1.12
367.305	-11.77
367.516	-7.1
367.727	-30.43
367.938	-47.56
368.149	-49.71
368.36	-26.29
368.571	-18.23
368.781	-33.91
368.992	-42.96
369.203	-61.78
369.414	-75.93
369.625	-83.44
369.836	-60.51
370.047	-88.53
370.258	-66.48
370.468	-72.41
370.679	-82.93
370.89	-98.98
371.101	-65.29
371.312	-77.88
371.522	-66.18
371.733	-56.78
371.944	-38.88
372.155	-35.66
372.365	-29.68
372.576	-41.32
372.787	-34.61
372.997	-50.93
373.208	-59.93
373.419	-25.13
373.629	-50.53
373.84	-57.78
374.05	-71.62
374.261	-52.62
374.472	-79.31
374.682	-12.95
374.893	-20.06
375.103	25.25
375.314	16.77
375.524	12.32
375.735	-2.31
375.945	17.87
376.156	-14.57
376.366	-2.1
376.577	-3.01
376.787	-8.87
376.997	-14.01
377.208	-17.6
377.418	-36.16
377.629	-15.41
377.839	-15.06
378.049	-18.95
378.26	5.09
378.47	9.92
378.68	-6.72
378.89	-7.9
379.101	-1.1
379.311	-37.34
379.521	-54.66
379.732	-42.03
379.942	-41.56
380.152	-67.85
380.362	-24.62
380.572	-24.38
380.783	-16.44
380.993	-4.91
381.203	9.59
381.413	7.22
381.623	14.45
381.833	9.95
382.043	-2.85
382.253	-18.08
382.463	-14.35
382.674	-24.84
382.884	-42.25
383.094	-37.76
383.304	-26.29
383.514	-19.53
383.724	-5.51
383.934	-1.67
384.144	-11.52
384.353	-15.78
384.563	-22.27
384.773	-24.93
384.983	-27.78
385.193	-10.33
385.403	-4.17
385.613	-2.68
385.823	-14.25
386.033	-8.72
386.242	-15.31
386.452	-21.07
386.662	-34.29
386.872	-14.36
387.082	-16.4
387.291	-26.78
387.501	-30.23
387.711	-15.45
387.921	-20.54
388.13	-20.15
388.34	-2.21
388.55	-2.47
388.759	-5.6
388.969	-2.9
389.179	-5.41
389.388	-13.07
389.598	-7.96
389.807	-15.48
390.017	-18.49
390.227	-15.82
390.436	-15.34
390.646	-15.75
390.855	-10.41
391.065	-11.91
391.274	-12.66
391.484	-12.45
391.693	-9.91
391.903	-7.17
392.112	-0.73
392.322	1.59
392.531	6.92
392.74	7.07
392.95	1.88
393.159	0.26
393.369	0.24
393.578	-3.26
393.787	-5.25
393.997	-1.82
394.206	-4.49
394.415	-4.48
394.625	-3.54
394.834	-4.65
395.043	-3.61
395.252	0.29
395.462	2.68
395.671	3.55
395.88	5.88
396.089	6.06
396.298	3.19
396.508	2.05
396.717	1.12
396.926	1.25
397.135	1.15
397.344	1.54
397.553	2.81
397.762	4.8
397.971	4.27
398.181	4.06
398.39	3.87
398.599	2.36
398.808	2.38
399.017	3.78
399.226	5.56
399.435	6.93
399.644	7.66
399.853	6.63
400.062	5.85
400.27	4.8
400.479	3.99
400.688	3.34
400.897	3.33
401.106	3.36
401.315	3.04
401.524	3.17
401.733	4.04
401.941	4.87
402.15	5.21
402.359	5.09
402.568	5.58
402.777	5.42
402.985	4.97
403.194	4.67
403.403	4.96
403.612	4.43
403.82	4.24
404.029	4.45
404.238	4.35
404.446	4.63
404.655	4.54
404.864	4.47
405.072	4.05
405.281	4.32
405.489	3.94
405.698	3.97
405.906	3.95
406.115	4.17
406.324	4
406.532	4.24
406.741	4.63
406.949	4.61
407.158	4.59
407.366	4.74
407.574	4.74
407.783	4.61
407.991	4.55
408.2	4.8
408.408	4.63
408.617	4.55
408.825	4.36
409.033	4.41
409.242	4.31
409.45	4.4
409.658	4.25
409.867	4.35
410.075	4.38
410.283	4.2
410.491	4.05
410.7	4.08
410.908	4.19
411.116	4.37
411.324	4.34
411.533	4.37
411.741	4.54
411.949	4.36
412.157	4.04
412.365	4.08
412.573	4.05
412.781	4.01
412.99	3.98
413.198	4.17
413.406	4.22
413.614	4.27
413.822	4.15
414.03	4.14
414.238	3.96
414.446	3.89
414.654	3.59
414.862	3.59
415.07	3.63
415.278	3.75
415.486	3.49
415.694	3.82
415.902	3.64
416.109	3.61
416.317	3.58
416.525	3.61
416.733	3.53
416.941	3.79
417.149	3.77
417.357	3.73
417.564	3.98
417.772	4.07
417.98	3.88
418.188	3.81
418.395	3.87
418.603	4.01
418.811	3.71
419.019	3.6
419.226	3.75
419.434	3.86
419.642	3.53
419.849	3.74
420.057	3.96
420.265	3.88
420.472	3.46
420.68	3.55
420.887	3.4
421.095	3.41
421.302	3.36
421.51	3.59
421.717	3.73
421.925	3.83
422.132	3.57
422.34	3.38
422.547	3.53
422.755	3.31
422.962	3.09
423.17	3.02
423.377	3.14
423.585	3.05
423.792	3.06
423.999	3.38
424.207	3.45
424.414	3.62
424.621	3.51
424.829	3.49
425.036	3.32
425.243	3.49
425.451	3.33
425.658	3.19
425.865	3.4
426.072	3.34
426.28	3.47
426.487	3.41
426.694	3.6
426.901	3.34
427.108	3.44
427.315	3.26
427.523	3.61
427.73	3.53
427.937	3.44
428.144	3.34
428.351	3.23
428.558	3.35
428.765	3.36
428.972	3.56
429.179	3.75
429.386	4.26
429.593	3.82
429.8	3.72
430.007	3.74
430.214	3.75
430.421	3.36
430.628	3.29
430.835	3.17
431.042	3.32
431.249	3.38
431.456	3.43
431.662	3.61
431.869	3.94
432.076	3.89
432.283	3.99
432.49	3.99
432.697	4.06
432.903	3.75
433.11	3.65
433.317	3.55
433.524	3.72
433.73	3.68
433.937	4.01
434.144	4
434.35	4
434.557	3.76
434.764	3.73
434.97	3.55
435.177	3.8
435.384	3.77
435.59	3.94
435.797	4.22
436.003	4.32
436.21	4.21
436.416	4.35
436.623	4.3
436.829	4.17
437.036	4.24
437.242	4.28
437.449	4.08
437.655	4.06
437.862	4.05
438.068	3.93
438.275	4
438.481	4.29
438.687	4.32
438.894	4.35
439.1	4.45
439.307	4.57
439.513	4.5
439.719	4.61
439.926	4.7
440.132	4.73
440.338	4.5
440.544	4.55
440.751	4.46
440.957	4.52
441.163	4.34
441.369	4.53
441.575	4.44
441.782	4.38
441.988	4.25
442.194	4.29
442.4	4.24
442.606	4.52
442.812	4.62
443.018	4.75
443.224	4.8
443.431	4.89
443.637	4.59
443.843	4.55
444.049	4.52
444.255	4.57
444.461	4.55
444.667	4.63
444.873	4.73
445.079	4.7
445.284	4.77
445.49	4.6
445.696	4.43
445.902	4.35
446.108	4.31
446.314	4.25
446.52	4.36
446.726	4.56
446.931	4.55
447.137	4.62
447.343	4.67
447.549	4.62
447.755	4.55
447.96	4.63
448.166	4.58
448.372	4.51
448.578	4.5
448.783	4.54
448.989	4.61
449.195	4.84
449.4	4.81
449.606	4.83
449.812	4.78
450.017	4.77
450.223	4.55
450.428	4.61
450.634	4.72
450.84	4.85
451.045	4.74
451.251	4.75
451.456	4.97
451.662	4.95
451.867	4.97
452.073	4.98
452.278	5.01
452.483	4.95
452.689	4.92
452.894	4.91
453.1	4.93
453.305	4.89
453.51	4.85
453.716	4.83
453.921	4.79
454.127	4.79
454.332	4.78
454.537	4.66
454.742	4.66
454.948	4.66
455.153	4.68
455.358	4.81
455.563	5
455.769	5.14
455.974	5.08
456.179	4.97
456.384	4.95
456.589	4.89
456.795	4.67
457	4.72
457.205	5
457.41	4.96
457.615	4.93
457.82	5.02
458.025	4.99
458.23	4.75
458.435	4.81
458.64	4.7
458.845	4.85
459.05	4.9
459.255	4.93
459.46	4.9
459.665	5
459.87	4.93
460.075	4.92
460.28	4.94
460.485	4.97
460.69	5.02
460.895	4.88
461.099	4.82
461.304	4.96
461.509	4.95
461.714	4.81
461.919	5.04
462.123	4.98
462.328	4.97
462.533	4.93
462.738	5.14
462.942	4.98
463.147	5.09
463.352	5.05
463.556	5.05
463.761	5.08
463.966	5.15
464.17	5.14
464.375	5.11
464.58	5.07
464.784	4.88
464.989	4.8
465.193	4.88
465.398	4.86
465.602	5.01
465.807	5.04
466.011	5.21
466.216	5.23
466.42	5.29
466.625	5.4
466.829	5.52
467.034	5.49
467.238	5.69
467.443	5.65
467.647	5.4
467.851	5.41
468.056	5.51
468.26	5.3
468.464	5.36
468.669	5.6
468.873	5.75
469.077	5.68
469.282	5.81
469.486	5.85
469.69	5.78
469.894	5.61
470.099	5.74
470.303	5.77
470.507	5.65
470.711	5.54
470.915	5.52
471.119	5.38
471.324	5.27
471.528	5.34
471.732	5.5
471.936	5.51
472.14	5.57
472.344	5.6
472.548	5.69
472.752	5.83
472.956	6.12
473.16	6.06
473.364	6.05
473.568	6.01
473.772	5.95
473.976	5.76
474.18	5.8
474.384	5.82
474.588	5.8
474.792	5.66
474.995	5.79
475.199	5.84
475.403	5.93
475.607	5.95
475.811	6
476.015	5.99
476.218	6.08
476.422	6
476.626	6.07
476.83	6.18
477.033	6.08
477.237	5.92
477.441	5.99
477.644	5.96
477.848	5.9
478.052	5.94
478.255	6.03
478.459	6.09
478.663	6.21
478.866	6.27
479.07	6.31
479.273	6.36
479.477	6.37
479.681	6.27
479.884	6.21
480.088	6.16
480.291	6.17
480.495	6.15
480.698	6.22
480.901	6.3
481.105	6.45
481.308	6.44
481.512	6.42
481.715	6.38
481.919	6.48
482.122	6.46
482.325	6.45
482.529	6.45
482.732	6.53
482.935	6.37
483.138	6.27
483.342	6.37
483.545	6.47
483.748	6.49
483.952	6.57
484.155	6.73
484.358	6.68
484.561	6.66
484.764	6.62
484.967	6.68
485.171	6.65
485.374	6.6
485.577	6.67
485.78	6.7
485.983	6.64
486.186	6.51
486.389	6.49
486.592	6.43
486.795	6.48
486.998	6.49
487.201	6.57
487.404	6.76
487.607	6.87
487.81	6.85
488.013	6.95
488.216	7.02
488.419	6.91
488.622	6.81
488.825	6.77
489.028	6.68
489.231	6.55
489.433	6.5
489.636	6.42
489.839	6.39
490.042	6.37
490.245	6.4
490.447	6.47
490.65	6.5
490.853	6.52
491.056	6.53
491.258	6.53
491.461	6.52
491.664	6.59
491.866	6.54
492.069	6.68
492.272	6.66
492.474	6.69
492.677	6.71
492.879	6.83
493.082	6.83
493.285	6.95
493.487	6.91
493.69	6.8
493.892	6.64
494.095	6.59
494.297	6.57
494.5	6.61
494.702	6.71
494.905	6.82
495.107	6.82
495.309	6.79
495.512	6.89
495.714	6.89
495.917	6.96
496.119	6.95
496.321	7.03
496.524	7.01
496.726	7.03
496.928	7.01
497.13	6.99
497.333	6.96
497.535	6.91
497.737	6.89
497.939	6.94
498.142	6.95
498.344	6.93
498.546	6.85
498.748	6.9
498.95	7.03
499.152	7.02
499.355	7.04
499.557	7.17
499.759	7.28
499.961	7.19
500.163	7.3
500.365	7.3
500.567	7.36
500.769	7.22
500.971	7.2
501.173	7.13
501.375	7.15
501.577	7.02
501.779	7.01
501.981	6.97
502.183	6.97
502.385	6.96
502.587	7.02
502.788	7.15
502.99	7.18
503.192	7.24
503.394	7.29
503.596	7.37
503.798	7.39
503.999	7.47
504.201	7.5
504.403	7.48
504.605	7.49
504.806	7.46
505.008	7.46
505.21	7.51
505.411	7.55
505.613	7.53
505.815	7.53
506.016	7.62
506.218	7.72
506.42	7.72
506.621	7.71
506.823	7.8
507.024	7.74
507.226	7.63
507.427	7.64
507.629	7.73
507.83	7.76
508.032	7.8
508.233	7.96
508.435	8.05
508.636	8.09
508.838	8.02
509.039	8.05
509.24	7.96
509.442	7.92
509.643	7.86
509.845	7.88
510.046	7.92
510.247	7.99
510.448	8.09
510.65	8.2
510.851	8.36
511.052	8.32
511.254	8.24
511.455	8.3
511.656	8.29
511.857	8.34
512.058	8.42
512.26	8.47
512.461	8.4
512.662	8.53
512.863	8.33
513.064	8.3
513.265	8.4
513.466	8.42
513.667	8.34
513.868	8.39
514.069	8.47
514.27	8.5
514.471	8.45
514.672	8.47
514.873	8.49
515.074	8.53
515.275	8.38
515.476	8.43
515.677	8.4
515.878	8.57
516.079	8.55
516.28	8.66
516.481	8.83
516.682	8.93
516.882	8.83
517.083	8.79
517.284	8.7
517.485	8.59
517.686	8.53
517.886	8.56
518.087	8.67
518.288	8.77
518.488	8.79
518.689	8.82
518.89	8.8
519.091	8.78
519.291	8.78
519.492	8.83
519.692	8.86
519.893	8.92
520.094	8.89
520.294	8.9
520.495	8.82
520.695	8.84
520.896	8.81
521.096	8.91
521.297	8.93
521.497	8.96
521.698	8.92
521.898	8.93
522.099	8.86
522.299	8.96
522.499	9.03
522.7	9.09
522.9	9.11
523.101	9.21
523.301	9.19
523.501	9.15
523.702	9.19
523.902	9.26
524.102	9.3
524.302	9.29
524.503	9.39
524.703	9.41
524.903	9.47
525.103	9.38
525.304	9.49
525.504	9.53
525.704	9.57
525.904	9.51
526.104	9.52
526.304	9.48
526.504	9.45
526.705	9.44
526.905	9.54
527.105	9.56
527.305	9.53
527.505	9.46
527.705	9.48
527.905	9.45
528.105	9.48
528.305	9.48
528.505	9.6
528.705	9.64
528.905	9.59
529.105	9.62
529.304	9.68
529.504	9.72
529.704	9.69
529.904	9.76
530.104	9.82
530.304	9.88
530.503	9.85
530.703	9.78
530.903	9.81
531.103	9.83
531.303	9.78
531.502	9.82
531.702	9.98
531.902	10.02
532.101	9.98
532.301	9.99
532.501	10.07
532.7	9.98
532.9	9.97
533.1	10.01
533.299	10.1
533.499	10.07
533.698	10.11
533.898	10.15
534.097	10.22
534.297	10.27
534.496	10.2
534.696	10.23
534.895	10.32
535.095	10.37
535.294	10.32
535.494	10.39
535.693	10.41
535.892	10.45
536.092	10.35
536.291	10.39
536.491	10.48
536.69	10.54
536.889	10.44
537.088	10.47
537.288	10.52
537.487	10.57
537.686	10.53
537.886	10.64
538.085	10.75
538.284	10.83
538.483	10.76
538.682	10.85
538.882	10.84
539.081	10.88
539.28	10.8
539.479	10.83
539.678	10.86
539.877	11.02
540.076	11.03
540.275	11.12
540.474	11.25
540.673	11.29
540.872	11.2
541.071	11.23
541.27	11.25
541.469	11.2
541.668	11.26
541.867	11.28
542.066	11.3
542.265	11.44
542.464	11.48
542.663	11.51
542.862	11.69
543.06	11.82
543.259	11.81
543.458	11.9
543.657	11.93
543.856	11.97
544.054	11.89
544.253	11.87
544.452	11.87
544.651	11.99
544.849	11.95
545.048	12.09
545.247	12.19
545.445	12.3
545.644	12.29
545.843	12.31
546.041	12.29
546.24	12.37
546.438	12.53
546.637	12.57
546.836	12.71
547.034	12.81
547.233	12.85
547.431	12.71
547.63	12.77
547.828	12.78
548.027	12.86
548.225	12.92
548.423	13.06
548.622	13.16
548.82	13.22
549.019	13.23
549.217	13.34
549.415	13.39
549.614	13.44
549.812	13.47
550.01	13.48
550.209	13.52
550.407	13.64
550.605	13.7
550.803	13.88
551.002	14.03
551.2	14.08
551.398	14.18
551.596	14.34
551.794	14.38
551.993	14.41
552.191	14.53
552.389	14.6
552.587	14.69
552.785	14.74
552.983	14.89
553.181	15.01
553.379	15.08
553.577	15.11
553.775	15.23
553.973	15.29
554.171	15.31
554.369	15.26
554.567	15.31
554.765	15.37
554.963	15.51
555.161	15.55
555.359	15.77
555.557	15.92
555.755	16
555.952	16.11
556.15	16.19
556.348	16.32
556.546	16.39
556.744	16.45
556.941	16.49
557.139	16.58
557.337	16.58
557.535	16.61
557.732	16.73
557.93	16.9
558.128	17.01
558.325	17.19
558.523	17.28
558.721	17.39
558.918	17.4
559.116	17.46
559.313	17.43
559.511	17.63
559.708	17.74
559.906	17.83
560.104	17.94
560.301	18.14
560.498	18.19
560.696	18.18
560.893	18.37
561.091	18.53
561.288	18.58
561.486	18.67
561.683	18.86
561.88	18.82
562.078	18.9
562.275	19.01
562.473	19.09
562.67	19.28
562.867	19.51
563.064	19.6
563.262	19.61
563.459	19.72
563.656	19.79
563.853	19.84
564.051	19.97
564.248	20.18
564.445	20.28
564.642	20.4
564.839	20.59
565.036	20.72
565.234	20.92
565.431	21.07
565.628	21.16
565.825	21.21
566.022	21.28
566.219	21.32
566.416	21.44
566.613	21.53
566.81	21.65
567.007	21.66
567.204	21.65
567.401	21.62
567.598	21.63
567.795	21.62
567.991	21.66
568.188	21.8
568.385	21.94
568.582	22.02
568.779	22.13
568.976	22.3
569.172	22.49
569.369	22.47
569.566	22.49
569.763	22.52
569.96	22.56
570.156	22.47
570.353	22.53
570.55	22.69
570.746	22.71
570.943	22.76
571.14	22.75
571.336	22.88
571.533	22.86
571.729	22.88
571.926	22.92
572.123	23.12
572.319	23.15
572.516	23.12
572.712	23.29
572.909	23.33
573.105	23.37
573.302	23.34
573.498	23.47
573.695	23.44
573.891	23.52
574.087	23.49
574.284	23.55
574.48	23.56
574.677	23.64
574.873	23.58
575.069	23.59
575.266	23.73
575.462	23.67
575.658	23.59
575.854	23.73
576.051	23.77
576.247	23.65
576.443	23.7
576.639	23.68
576.835	23.49
577.032	23.53
577.228	23.66
577.424	23.67
577.62	23.62
577.816	23.81
578.012	23.72
578.208	23.62
578.404	23.66
578.6	23.74
578.796	23.64
578.993	23.68
579.189	23.64
579.384	23.49
579.58	23.41
579.776	23.37
579.972	23.33
580.168	23.26
580.364	23.37
580.56	23.37
580.756	23.34
580.952	23.29
581.148	23.41
581.343	23.42
581.539	23.52
581.735	23.56
581.931	23.62
582.127	23.6
582.322	23.5
582.518	23.46
582.714	23.41
582.909	23.32
583.105	23.24
583.301	23.22
583.496	23.17
583.692	23.11
583.888	23.15
584.083	23.17
584.279	23.27
584.474	23.25
584.67	23.35
584.866	23.3
585.061	23.14
585.257	23.17
585.452	23.2
585.648	23.08
585.843	23.08
586.039	23.19
586.234	23.11
586.429	23.03
586.625	23.11
586.82	23.05
587.015	22.99
587.211	22.84
587.406	22.87
587.601	22.82
587.797	22.77
587.992	22.82
588.187	22.98
588.383	22.95
588.578	22.91
588.773	23.01
588.968	23.05
589.163	22.95
589.359	22.99
589.554	23
589.749	23.04
589.944	23.11
590.139	23.25
590.334	23.3
590.529	23.31
590.724	23.41
590.919	23.41
591.114	23.35
591.309	23.38
591.504	23.44
591.699	23.32
591.894	23.31
592.089	23.35
592.284	23.32
592.479	23.38
592.674	23.47
592.869	23.6
593.064	23.7
593.259	23.9
593.454	24.04
593.648	23.99
593.843	23.96
594.038	23.99
594.233	23.9
594.428	23.82
594.622	23.97
594.817	24.06
595.012	24.05
595.206	24.11
595.401	24.17
595.596	24.2
595.79	24.27
595.985	24.4
596.18	24.43
596.374	24.56
596.569	24.69
596.763	24.7
596.958	24.84
597.153	25
597.347	24.99
597.542	25.07
597.736	25.07
597.931	25.07
598.125	25.1
598.319	25.24
598.514	25.18
598.708	25.27
598.903	25.27
599.097	25.26
599.291	25.22
599.486	25.3
599.68	25.42
599.874	25.55
600.069	25.61
600.263	25.7
600.457	25.74
600.651	25.72
600.846	25.74
601.04	25.79
601.234	25.87
601.428	25.95
601.622	25.96
601.817	25.89
602.011	26
602.205	26
602.399	25.93
602.593	25.93
602.787	26
602.981	25.88
603.175	25.81
603.369	25.75
603.563	25.85
603.757	25.85
603.951	25.86
604.145	25.87
604.339	26.04
604.533	25.87
604.727	25.84
604.921	25.82
605.115	25.86
605.309	25.88
605.502	25.89
605.696	25.79
605.89	25.74
606.084	25.62
606.278	25.49
606.471	25.48
606.665	25.43
606.859	25.34
607.053	25.31
607.246	25.22
607.44	25.16
607.634	25.15
607.827	25.14
608.021	24.97
608.214	24.88
608.408	24.76
608.602	24.7
608.795	24.7
608.989	24.72
609.182	24.6
609.376	24.64
609.569	24.6
609.763	24.4
609.956	24.33
610.15	24.27
610.343	24.1
610.537	23.95
610.73	23.92
610.923	23.89
611.117	23.85
611.31	23.77
611.504	23.71
611.697	23.64
611.89	23.52
612.083	23.44
612.277	23.42
612.47	23.34
612.663	23.23
612.856	23.19
613.05	23.07
613.243	22.96
613.436	22.89
613.629	22.81
613.822	22.67
614.015	22.55
614.209	22.47
614.402	22.41
614.595	22.39
614.788	22.33
614.981	22.3
615.174	22.1
615.367	21.99
615.56	21.86
615.753	21.86
615.946	21.79
616.139	21.83
616.332	21.99
616.525	22.06
616.718	22.01
616.911	21.96
617.103	21.96
617.296	21.79
617.489	21.63
617.682	21.51
617.875	21.52
618.067	21.42
618.26	21.29
618.453	21.38
618.646	21.4
618.838	21.38
619.031	21.53
619.224	21.54
619.417	21.38
619.609	21.38
619.802	21.34
619.994	21.21
620.187	21.11
620.38	21.04
620.572	20.99
620.765	20.94
620.957	20.77
621.15	20.75
621.342	20.71
621.535	20.65
621.727	20.62
621.92	20.6
622.112	20.55
622.305	20.58
622.497	20.51
622.69	20.44
622.882	20.45
623.074	20.52
623.267	20.45
623.459	20.34
623.651	20.27
623.844	20.3
624.036	20.27
624.228	20.3
624.42	20.35
624.613	20.5
624.805	20.45
624.997	20.46
625.189	20.46
625.381	20.46
625.574	20.31
625.766	20.12
625.958	20.03
626.15	20.03
626.342	20.06
626.534	20.1
626.726	20.17
626.918	20.13
627.11	20.04
627.302	19.96
627.494	19.84
627.686	19.9
627.878	19.85
628.07	19.8
628.262	19.76
628.454	19.75
628.646	19.69
628.838	19.74
629.029	19.7
629.221	19.78
629.413	19.75
629.605	19.67
629.797	19.6
629.989	19.56
630.18	19.5
630.372	19.49
630.564	19.48
630.755	19.49
630.947	19.51
631.139	19.24
631.33	19.07
631.522	19.11
631.714	19.01
631.905	19.03
632.097	19.15
632.289	19.22
632.48	19.17
632.672	19.11
632.863	19
633.055	19.02
633.246	18.96
633.438	18.78
633.629	18.79
633.821	18.76
634.012	18.65
634.203	18.63
634.395	18.74
634.586	18.75
634.777	18.68
634.969	18.65
635.16	18.7
635.351	18.72
635.543	18.74
635.734	18.76
635.925	18.76
636.117	18.8
636.308	18.8
636.499	18.63
636.69	18.51
636.881	18.53
637.073	18.37
637.264	18.29
637.455	18.38
637.646	18.63
637.837	18.63
638.028	18.71
638.219	18.72
638.41	18.61
638.601	18.39
638.792	18.39
638.983	18.34
639.174	18.28
639.365	18.3
639.556	18.3
639.747	18.18
639.938	18.25
640.129	18.2
640.32	18.23
640.511	18.27
640.701	18.39
640.892	18.26
641.083	18.32
641.274	18.3
641.465	18.24
641.655	18.11
641.846	18.14
642.037	18.08
642.228	18.02
642.418	18.07
642.609	18.08
642.8	18.03
642.99	17.95
643.181	17.97
643.372	18
643.562	17.91
643.753	17.83
643.943	17.82
644.134	17.65
644.324	17.53
644.515	17.59
644.705	17.62
644.896	17.6
645.086	17.71
645.277	17.64
645.467	17.59
645.658	17.6
645.848	17.66
646.038	17.67
646.229	17.71
646.419	17.64
646.61	17.56
646.8	17.43
646.99	17.3
647.18	17.2
647.371	17.19
647.561	17.16
647.751	17.18
647.941	17.18
648.132	17.22
648.322	17.21
648.512	17.32
648.702	17.32
648.892	17.4
649.082	17.32
649.272	17.16
649.462	16.95
649.653	16.82
649.843	16.63
650.033	16.6
650.223	16.61
650.413	16.51
650.603	16.61
650.793	16.64
650.983	16.52
651.172	16.52
651.362	16.56
651.552	16.39
651.742	16.34
651.932	16.38
652.122	16.29
652.312	16.29
652.502	16.19
652.691	16.15
652.881	16.05
653.071	16.03
653.261	15.82
653.45	15.68
653.64	15.64
653.83	15.48
654.019	15.36
654.209	15.33
654.399	15.32
654.588	15.1
654.778	14.99
654.968	14.8
655.157	14.69
655.347	14.61
655.536	14.47
655.726	14.35
655.915	14.21
656.105	14.11
656.294	14
656.484	13.9
656.673	13.8
656.863	13.79
657.052	13.53
657.241	13.3
657.431	13.11
657.62	12.89
657.809	12.62
657.999	12.55
658.188	12.37
658.377	12.16
658.567	12.05
658.756	11.93
658.945	11.77
659.134	11.61
659.324	11.52
659.513	11.33
659.702	11.14
659.891	10.98
660.08	10.86
660.269	10.81
660.458	10.66
660.648	10.61
660.837	10.41
661.026	10.41
661.215	10.1
661.404	10
661.593	9.88
661.782	9.7
661.971	9.53
662.16	9.5
662.349	9.4
662.538	9.25
662.726	9.28
662.915	9.07
663.104	8.95
663.293	8.9
663.482	8.89
663.671	8.78
663.86	8.68
664.048	8.6
664.237	8.58
664.426	8.34
664.615	8.25
664.803	8.21
664.992	8.08
665.181	7.83
665.369	7.73
665.558	7.58
665.747	7.43
665.935	7.44
666.124	7.52
666.312	7.61
666.501	7.58
666.69	7.59
666.878	7.5
667.067	7.32
667.255	7.32
667.444	7.59
667.632	7.62
667.82	7.73
668.009	7.77
668.197	7.59
668.386	7.49
668.574	7.57
668.762	7.48
668.951	7.4
669.139	7.46
669.327	7.27
669.516	7.29
669.704	7.2
669.892	7.42
670.08	7.42
670.269	7.36
670.457	7.11
670.645	7.07
670.833	7.09
671.021	7.14
671.21	7.21
671.398	7.51
671.586	7.53
671.774	7.32
671.962	7.22
672.15	7.26
672.338	7.18
672.526	7.38
672.714	7.41
672.902	7.53
673.09	7.66
673.278	7.86
673.466	7.81
673.654	8.06
673.842	8.1
674.03	8.04
674.218	7.85
674.405	7.91
674.593	7.7
674.781	7.73
674.969	7.78
675.157	7.94
675.344	8
675.532	8.26
675.72	8.42
675.908	8.53
676.095	8.49
676.283	8.49
676.471	8.51
676.658	8.54
676.846	8.53
677.033	8.66
677.221	8.73
677.409	8.57
677.596	8.54
677.784	8.64
677.971	8.66
678.159	8.78
678.346	8.99
678.534	9.09
678.721	9.32
678.909	9.36
679.096	9.31
679.283	9.54
679.471	9.62
679.658	9.62
679.846	9.76
680.033	10
680.22	10
680.408	10.01
680.595	10.06
680.782	10.11
680.969	10.21
681.157	10.29
681.344	10.54
681.531	10.66
681.718	10.7
681.905	10.71
682.093	10.9
682.28	11.09
682.467	11.42
682.654	11.57
682.841	11.81
683.028	11.99
683.215	12.11
683.402	11.99
683.589	12.24
683.776	12.44
683.963	12.52
684.15	12.76
684.337	12.93
684.524	13.01
684.711	13.26
684.898	13.32
685.085	13.44
685.271	13.87
685.458	14.23
685.645	14.46
685.832	14.84
686.019	15.21
686.205	15.41
686.392	15.72
686.579	16.06
686.766	16.41
686.952	16.71
687.139	17.15
687.326	17.36
687.512	17.63
687.699	17.94
687.886	18.18
688.072	18.32
688.259	18.7
688.445	19.03
688.632	19.33
688.818	19.95
689.005	20.36
689.191	20.87
689.378	21.59
689.564	22.33
689.751	22.62
689.937	23.05
690.124	23.68
690.31	23.77
690.496	24
690.683	24.54
690.869	25.24
691.055	25.66
691.242	26.54
691.428	27.33
691.614	28.03
691.8	28.75
691.987	29.49
692.173	29.96
692.359	30.71
692.545	31.29
692.731	31.7
692.918	32.25
693.104	32.86
693.29	33.25
693.476	33.69
693.662	34.52
693.848	34.87
694.034	35.36
694.22	35.94
694.406	36.74
694.592	37.34
694.778	38.08
694.964	38.9
695.15	39.62
695.336	40.13
695.522	40.89
695.708	41.44
695.894	42.14
696.08	42.88
696.265	43.5
696.451	43.96
696.637	44.8
696.823	45.35
697.009	45.62
697.194	46.37
697.38	46.76
697.566	47.29
697.751	47.88
697.937	48.62
698.123	49.06
698.308	49.85
698.494	50.3
698.68	50.72
698.865	51.2
699.051	52
699.236	52.25
699.422	52.81
699.607	53.1
699.793	53.45
699.978	53.52
700.164	53.98
700.349	54.83
700.535	55.5
700.72	55.98
700.906	56.7
701.091	57.09
701.276	57.13
701.462	57.79
701.647	58.51
701.832	58.86
702.018	59.36
702.203	59.89
702.388	59.96
702.573	60.09
702.759	60.56
702.944	60.87
703.129	60.88
703.314	61.29
703.499	61.35
703.684	61.47
703.87	62.49
704.055	63.38
704.24	63.83
704.425	64.66
704.61	65.18
704.795	65.02
704.98	65.12
705.165	65.17
705.35	65.35
705.535	65.51
705.72	65.95
705.905	66.31
706.09	66.86
706.275	67.19
706.459	67.2
706.644	67.09
706.829	67.32
707.014	67.25
707.199	67.66
707.384	68.49
707.568	68.73
707.753	69.2
707.938	69.49
708.123	69.32
708.307	69.19
708.492	69.49
708.677	69.39
708.861	69.4
709.046	69.21
709.231	69.83
709.415	70.3
709.6	70.3
709.784	70.98
709.969	71.73
710.153	71.47
710.338	71.72
710.522	72.19
710.707	72.08
710.891	72.18
711.076	72.07
711.26	71.77
711.445	71.73
711.629	72.02
711.813	72.43
711.998	73
712.182	73.14
712.366	73.8
712.551	74.46
712.735	74.62
712.919	74.35
713.103	74.43
713.288	74.27
713.472	73.76
713.656	74.07
713.84	74.55
714.024	75.13
714.208	74.85
714.393	75.14
714.577	74.86
714.761	75.08
714.945	74.96
715.129	75.16
715.313	75.39
715.497	75.41
715.681	75.75
715.865	75.76
716.049	76
716.233	75.87
716.417	76.1
716.601	75.82
716.785	75.62
716.968	75.52
717.152	75.73
717.336	75.86
717.52	75.48
717.704	76.25
717.888	77.19
718.071	77.51
718.255	77.78
718.439	78.33
718.622	78.08
718.806	77.85
718.99	77.13
719.174	76.72
719.357	76.65
719.541	76.77
719.724	76.57
719.908	77.95
720.092	78.8
720.275	78.94
720.459	78.93
720.642	78.47
720.826	77.34
721.009	76.8
721.193	76.63
721.376	76.92
721.559	77.63
721.743	78.44
721.926	78.9
722.11	79.41
722.293	78.71
722.476	78.38
722.66	78.41
722.843	78.1
723.026	77.57
723.21	78.28
723.393	79.18
723.576	78.89
723.759	78.89
723.942	79.21
724.126	78.96
724.309	78.62
724.492	78.62
724.675	78.55
724.858	78.98
725.041	79.46
725.224	79.32
725.407	79.39
725.59	79.62
725.774	79.46
725.957	78.91
726.14	78.79
726.322	79.1
726.505	78.97
726.688	79.63
726.871	79.91
727.054	80.19
727.237	80.34
727.42	81.11
727.603	80.93
727.786	81.38
727.968	81.49
728.151	81.33
728.334	81
728.517	80.82
728.699	80.94
728.882	81.11
729.065	81.27
729.248	81.93
729.43	82.24
729.613	82.34
729.796	82.71
729.978	82.05
730.161	81.35
730.343	81.08
730.526	81.86
730.708	80.76
730.891	81.86
731.073	81.77
731.256	81.68
731.438	80.85
731.621	81.95
731.803	81.27
731.986	81.3
732.168	81.33
732.35	81.73
732.533	81.85
732.715	82.12
732.898	83.05
733.08	82.97
733.262	83.2
733.444	82.87
733.627	82.78
733.809	82.33
733.991	83.55
734.173	83.05
734.355	83.11
734.538	83.96
734.72	83.27
734.902	82.38
735.084	82.75
735.266	83.06
735.448	83.1
735.63	84.3
735.812	84.72
735.994	85.53
736.176	85.97
736.358	85.6
736.54	86.06
736.722	85.99
736.904	84.8
737.086	83.53
737.268	84.39
737.45	84.21
737.632	83.97
737.814	84.22
737.995	85.22
738.177	84.47
738.359	83.78
738.541	84.07
738.723	84.57
738.904	84.66
739.086	84.95
739.268	84.67
739.449	84.95
739.631	85.09
739.813	85.22
739.994	84.81
740.176	85.62
740.358	85.02
740.539	84.4
740.721	84.54
740.902	85.54
741.084	85.32
741.265	85.66
741.447	86.43
741.628	86.76
741.81	85.7
741.991	85.86
742.172	86.5
742.354	86.32
742.535	85.66
742.717	86.49
742.898	86.73
743.079	86.7
743.261	86.38
743.442	86.03
743.623	86.76
743.804	86.42
743.986	87.1
744.167	86.29
744.348	85.66
744.529	85.59
744.71	84.35
744.891	82.48
745.073	82.29
745.254	82.57
745.435	81.44
745.616	82.37
745.797	82.83
745.978	82.8
746.159	83.6
746.34	82.72
746.521	83.87
746.702	83.2
746.883	83.5
747.064	82.95
747.245	83.78
747.426	82.2
747.606	83.82
747.787	84.44
747.968	83.97
748.149	84.4
748.33	84.9
748.51	83.91
748.691	82.92
748.872	84.31
749.053	82.78
749.233	82.11
749.414	81.55
749.595	81.45
749.775	80.05
749.956	80.84
750.137	81.19
750.317	82.89
750.498	85.2
750.678	85.67
750.859	86.66
751.04	86.96
751.22	85.58
751.4	83.66
751.581	83.04
751.761	82.1
751.942	82.25
752.122	81.96
752.303	81.48
752.483	82.74
752.663	82.32
752.844	81.34
753.024	82.52
753.204	83.24
753.385	82.09
753.565	82.38
753.745	82.69
753.925	82.29
754.106	81.82
754.286	81.79
754.466	81.29
754.646	81.5
754.826	81.62
755.006	81.72
755.187	82.65
755.367	83.89
755.547	84.32
755.727	85.43
755.907	84.31
756.087	85.61
756.267	83.64
756.447	82.92
756.627	79.92
756.807	82.03
756.987	79.3
757.167	80.18
757.346	80.87
757.526	80.03
757.706	79.59
757.886	80.64
758.066	81.39
758.246	83.39
758.425	84.19
758.605	83.24
758.785	83.85
758.965	84.25
759.144	81.3
759.324	83.31
759.504	84.12
759.683	83.3
759.863	80.01
760.043	79.88
760.222	78.49
760.402	78
760.581	78.13
760.761	81.98
760.94	80.72
761.12	82.04
761.299	83.47
761.479	83.19
761.658	80.76
761.838	82.07
762.017	80.88
762.197	79.5
762.376	79.66
762.555	79.86
762.735	80.35
762.914	79.15
763.093	80.47
763.273	79.63
763.452	79.69
763.631	78.56
763.81	78.36
763.99	76.98
764.169	77.11
764.348	75.35
764.527	75.65
764.706	79.46
764.885	80.69
765.064	79.39
765.243	81.24
765.423	81.88
765.602	80.15
765.781	77
765.96	77.34
766.139	76.67
766.318	77.53
766.497	76.64
766.676	77.88
766.854	79.6
767.033	79.76
767.212	77.44
767.391	77.36
767.57	79.77
767.749	78.25
767.928	79.52
768.106	79.66
768.285	77.19
768.464	74.89
768.643	74.31
768.821	73
769	75.5
769.179	77.51
769.357	76.33
769.536	76.76
769.715	77.27
769.893	76.05
770.072	74.98
770.25	75.2
770.429	75.6
770.607	74.87
770.786	74.54
770.964	76.97
771.143	77.55
771.321	79.58
771.5	79.38
771.678	79.09
771.857	77.61
772.035	77.73
772.213	74.9
772.392	73.53
772.57	74.85
772.748	76.32
772.927	75.16
773.105	75.88
773.283	78.23
773.461	77.16
773.64	76.72
773.818	75.57
773.996	74.56
774.174	73.18
774.352	71.57
774.531	67.47
774.709	70.62
774.887	70.93
775.065	68.98
775.243	68.78
775.421	72.43
775.599	74.02
775.777	71.86
775.955	72.02
776.133	71.75
776.311	70.5
776.489	65.51
776.667	67.86
776.844	70.69
777.022	69.27
777.2	68.35
777.378	71.15
777.556	72.15
777.734	73.66
777.911	77.59
778.089	76.59
778.267	77.3
778.445	74.13
778.622	69.38
778.8	68.87
778.978	72.08
779.155	69.21
779.333	71.61
779.511	73.3
779.688	74.78
779.866	68.45
780.043	67.63
780.221	65.08
780.398	63.81
780.576	64.5
780.753	69.41
780.931	67.78
781.108	69.57
781.286	71.99
781.463	66.4
781.64	63.89
781.818	65.42
781.995	67
782.172	64.78
782.35	65.64
782.527	69.04
782.704	72.35
782.882	71.97
783.059	71.24
783.236	73.59
783.413	73.53
783.59	71.66
783.768	66.37
783.945	70.81
784.122	68.58
784.299	68.22
784.476	66.86
784.653	69.02
784.83	63.83
785.007	61.77
785.184	61.73
785.361	60.8
785.538	65.38
785.715	69.79
785.892	73.64
786.069	76.43
786.246	80.11
786.423	76.03
786.6	72.86
786.776	75.34
786.953	71.75
787.13	71.6
787.307	70.88
787.484	70.84
787.66	64.3
787.837	63.66
788.014	62.51
788.191	61.44
788.367	58
788.544	62.7
788.721	60.92
788.897	61.26
789.074	63.81
789.25	63.35
789.427	64.54
789.603	64.22
789.78	65.72
789.956	64.62
790.133	65.13
790.309	64
790.486	69.09
790.662	65.95
790.839	65.95
791.015	69.47
791.192	67.23
791.368	67.5
791.544	66.16
791.721	65.63
791.897	64.01
792.073	62.45
792.249	55.74
792.426	61.79
792.602	62.88
792.778	63.97
792.954	61.05
793.13	60.89
793.307	50.16
793.483	43.88
793.659	41.84
793.835	48.26
794.011	47.67
794.187	47.79
794.363	48.66
794.539	54.01
794.715	45.05
794.891	43.9
795.067	45.48
795.243	49.88
795.419	48.05
795.595	48.03
795.771	52.81
795.947	56.5
796.122	53.17
796.298	58.84
796.474	64.16
796.65	63.37
796.826	62.06
797.001	66.16
797.177	54.85
797.353	55.11
797.529	60.41
797.704	60.68
797.88	63.25
798.056	60.81
798.231	59.81
798.407	59.55
798.582	56.5
798.758	58.87
798.934	71.73
799.109	68.59
799.285	60.51
799.46	70.28
799.636	64.86
799.811	59.57
799.986	66.42
800.162	69.36
800.337	62.93
800.513	58.11
800.688	55.78
800.863	57.54
801.039	54.69
801.214	50.98
801.389	59.61
801.565	59.73
801.74	50.46
801.915	55.8
802.09	57.63
802.265	57.03
802.441	55.41
802.616	58.38
802.791	58.52
802.966	60.45
803.141	58.46
803.316	55.59
803.491	60.56
803.666	60.74
803.841	54.95
804.016	50.15
804.191	58.19
804.366	50.02
804.541	46.9
804.716	48.37
804.891	41.87
805.066	42.55
805.241	40.63
805.416	39.09
805.591	34.59
805.765	44.81
805.94	46.41
806.115	51.16
806.29	48.6
806.464	55.64
806.639	48.55
806.814	34.94
806.989	26.05
807.163	37.24
807.338	36.2
807.512	36.21
807.687	27.54
807.862	40.04
808.036	38.72
808.211	40.34
808.385	43.09
808.56	65.46
808.734	60.71
808.909	61.19
809.083	51.71
809.258	70.38
809.432	65.68
809.606	52.08
809.781	40.92
809.955	50.21
810.13	41.4
810.304	30.17
810.478	36.28
810.652	50.64
810.827	48.99
811.001	48.54
811.175	54.4
811.349	53.71
811.524	41.27
811.698	31.86
811.872	27.84
812.046	33.56
812.22	45.04
812.394	51.74
812.568	58.76
812.742	61.89
812.916	50.54
813.09	44.44
813.264	38.1
813.438	32.9
813.612	27.34
813.786	24.64
813.96	30.54
814.134	33.34
814.308	52.15
814.482	65.63
814.656	64.52
814.83	63.67
815.003	57.05
815.177	43.4
815.351	32.52
815.525	36.12
815.698	30.05
815.872	31.22
816.046	19.22
816.219	30.01
816.393	44.57
816.567	45.35
816.74	48.85
816.914	63.37
817.088	59.64
817.261	47.14
817.435	30.71
817.608	24.48
817.782	12.15
817.955	8.84
818.129	16.22
818.302	33.09
818.475	40.1
818.649	37.56
818.822	37.4
818.996	46.69
819.169	42.68
819.342	34.74
819.516	45.52
819.689	52.57
819.862	47.64
820.035	41.5
820.209	42.47
820.382	39.75
820.555	39.64
820.728	21.7
820.901	22.38
821.075	21.95
821.248	30.52
821.421	8.17
821.594	14.55
821.767	33.35
821.94	53.67
822.113	21.06
822.286	26.53
822.459	32.08
822.632	19.38
822.805	-11.63
822.978	-9.73
823.151	-1.02
823.324	-4.82
823.496	-24.07
823.669	-4.67
823.842	11.61
824.015	1.19
824.188	10.9
824.361	15.72
824.533	14.55
824.706	20.36
824.879	19.44
825.051	23.69
825.224	24.9
825.397	1.3
825.569	-21.92
825.742	3.61
825.915	0.64
826.087	24.48
826.26	19.93
826.432	34.77
826.605	31.33
826.777	23.65
826.95	17.97
827.122	19.96
827.295	17.83
827.467	23.25
827.64	7.98
827.812	-24.09
827.984	-16.85
828.157	-35.91
828.329	-109.17
828.501	-92.84
828.674	-47.03
828.846	-66.3
829.018	-19.5
829.19	-13.68
829.363	13.13
829.535	3.15
829.707	16.27
829.879	-20.41
830.051	-23.77
830.223	-47.81
830.395	-74.42
830.568	-74.29
830.74	-65.35
830.912	-20.96
831.084	-10.15
831.256	-10.13
831.428	-27.44
831.6	-47.44
831.772	-87.77
831.943	-100.15
832.115	-49.12
832.287	-11.45
832.459	12.06
832.631	29.05
832.803	48.39
832.975	51.71
833.146	45.32
833.318	28.55
833.49	34.99
833.662	-9.99
833.833	-29.55
834.005	-32.3
834.177	-21.91
834.348	-36.91
834.52	-31.28
834.692	-41.19
834.863	-92.74
835.035	-81.55
835.206	-120.37
835.378	-91.29
835.549	-73.93
835.721	-30.55
835.892	-24.42
836.064	-14.73
836.235	-7.49
836.407	22.09
836.578	-9.86
836.749	0.62
836.921	-49.79
837.092	-74.15
837.264	-76.59
837.435	-88.49
837.606	-37.98
837.777	3.99
837.949	21.79
838.12	13.13
838.291	32.42
838.462	2.91
838.633	-31.33
838.805	-46.72
838.976	-34.42
839.147	-121.76
839.318	-91.61
839.489	-139.31
839.66	-92.53
839.831	-43.67
840.002	-24
840.173	-64.25
840.344	4.38
840.515	-42.08
840.686	-236.18
840.857	-177.41
841.028	-133.91
841.199	-127.39
841.369	-142.75
841.54	-112.73
841.711	-73.25
841.882	-40.73
842.053	-23.77
842.223	-6.45
842.394	7.71
842.565	24.4
842.736	18.12
842.906	14.39
843.077	30.64
843.248	35.71
843.418	11.58
843.589	-50.96
843.759	-2.37
843.93	-13.81
844.101	-8.66
844.271	-5.08
844.442	20.45
844.612	22.09
844.783	-19.49
844.953	-57.65
845.123	-89.47
845.294	-131.99
845.464	-464.18
845.635	-205.49
845.805	-63.49
845.975	-32.76
846.146	-65.73
846.316	-38.24
846.486	-33.61
846.656	-0.05
846.827	-11.48
846.997	-3.17
847.167	6.38
847.337	-3.26
847.507	-76.66
847.677	-48.61
847.848	8.89
848.018	17.99
848.188	22.67
848.358	11
848.528	4.79
848.698	-49.63
848.868	-176
849.038	-293.91
849.208	-124.01
849.378	-102.18
849.548	-80.95
849.718	-47.04
849.887	-30.96
850.057	-51.48
850.227	-95.92
850.397	-116.17
850.567	-244.79
850.737	-616.09
850.906	-1771.25
851.076	-1137.5
851.246	-548.69
851.415	-90.44
851.585	-67.13
851.755	-95.62
851.924	-42.71
852.094	-93.38
852.264	-202.65
852.433	-1068.27
852.603	-199.26
852.772	-113.99
852.942	-48.42
853.111	-54.33
853.281	1.64
853.45	18.81
853.62	-70.06
853.789	-73.04
853.959	-51.72
854.128	-88.92
854.297	-119.9
854.467	-120.91
854.636	-150.46
854.805	-66.42
854.975	-104.71
855.144	-171.23
855.313	-210.49
855.482	-491.24
855.652	-320.42
855.821	-273.26
855.99	-74.57
856.159	-19.32
856.328	-4.07
856.497	-17.24
856.667	-11.48
856.836	-6.9
857.005	-61.61
857.174	-117.43
857.343	-151.68
857.512	-105.99
857.681	-127.87
857.85	-169.79
858.019	-71.62
858.188	-64.93
858.356	-96.88
858.525	-176.65
858.694	-149.57
858.863	-257.62
859.032	-198.44
859.201	-282.91
859.369	-206.12
859.538	-159.15
859.707	-142.31
859.876	-174.13
860.044	-148.79
860.213	-17.42
860.382	-49.34
860.55	-46.29
860.719	-2.83
860.888	3.36
861.056	-63.83
861.225	-64.99
861.393	-53.91
861.562	-85.29
861.73	-185.35
861.899	-496.86
862.067	-3831.03
862.236	-192.89
862.404	-416.14
862.572	-248
862.741	-81.15
862.909	-65.99
863.078	-214.9
863.246	-130.62
863.414	-85.41
863.582	-63.06
863.751	-79.56
863.919	-57.46
864.087	-13.53
864.255	-76.88
864.424	-538.25
864.592	-101.19
864.76	-186.9
864.928	-696.8
865.096	-295.54
865.264	-218.6
865.432	-2456.82
865.6	-152
865.768	-127.44
865.936	-129.01
866.104	-129.18
866.272	-188.75
866.44	-546.06
866.608	882.61
866.776	439.24
866.944	3839.53
867.112	-716.1
867.28	-286.61
867.448	-115.76
867.615	-54.09
867.783	-24.33
867.951	-49.46
868.119	-31.2
868.286	-64.14
868.454	-245.3
868.622	-341.05
868.789	-423.31
868.957	-7828.57
869.125	-4818.42
869.292	-333.42
869.46	-398.75
869.627	-96.82
869.795	-71.47
869.963	-28.85
870.13	-17.15
870.298	-4.38
870.465	-123.13
870.632	-146.53
870.8	-98.89
870.967	-162.44
871.135	-227.27
871.302	-198.45
871.469	-217.92
871.637	-301.42
871.804	-139.21
871.971	-169.17
872.139	-534.88
872.306	-75.16
872.473	-97.12
872.64	-447.21
872.807	-171.75
872.975	-10.67
873.142	-216.36
873.309	2508.11
873.476	-9.14
873.643	33.6
873.81	-2.39
873.977	10.4
874.144	38.06
874.311	-126.59
874.478	-146.61
874.645	-164.19
874.812	-133.21
874.979	-81.29
875.146	-93.54
875.313	-141.96
875.48	-39.83
875.647	-39.54
875.813	-80.63
875.98	-52.87
876.147	-70.04
876.314	-174.52
876.481	1121.49
876.647	-1544.94
876.814	605.18
876.981	-218.46
877.147	-108.09
877.314	-50.61
877.481	-6.54
877.647	16.37
877.814	-3.86
877.98	-69.61
878.147	-18.58
878.314	27.5
878.48	-63.01
878.647	-54.9
878.813	37.67
878.979	17.25
879.146	-44.16
879.312	-39.72
879.479	-95.85
879.645	-252.98
879.811	-476.34
879.978	-1024.43
880.144	-260.67
880.31	-124.65
880.477	-358.66
880.643	-390.14
880.809	-170.82
880.975	-149.61
881.142	-1119.09
881.308	-175.39
881.474	-116.29
881.64	-181.94
881.806	-302.32
881.972	-145.45
882.138	-136.35
882.304	-237.18
882.47	-310.61
882.636	-1053.28
882.802	-349.04
882.968	-122.67
883.134	-69.26
883.3	-69.89
883.466	-17.17
883.632	37.48
883.798	-2.74
883.964	-19.04
884.129	1.38
884.295	31.15
884.461	-77.29
884.627	-104.75
884.793	-103.4
884.958	-52.7
885.124	-127.67
885.29	-217.83
885.455	-325.24
885.621	-80.84
885.787	-121.34
885.952	-69.21
886.118	-65.28
886.283	-79.07
886.449	-175.59
886.614	-222.5
886.78	-461.92
886.945	1713.11
887.111	-692.49
887.276	-677.27
887.442	-1206.36
887.607	-525.47
887.773	-385.35
887.938	-345.69
888.103	-412.69
888.269	-245.18
888.434	-530.81
888.599	-184.36
888.764	-52.34
888.93	1.02
889.095	-60.77
889.26	-76.67
889.425	-45.65
889.59	-76.28
889.756	-156.61
889.921	-77.53
890.086	-13.85
890.251	-62.56
890.416	-249.43
890.581	-1806.45
890.746	287.5
890.911	633.12
891.076	225.75
891.241	-618.66
891.406	-26.9
891.571	-121.8
891.736	-370.64
891.901	-754.87
892.065	845.05
892.23	205.35
892.395	296.09
892.56	430.35
892.725	-385.16
892.889	-997.56
893.054	-159.31
893.219	-42.58
893.384	-15.2
893.548	-97.04
893.713	-111.15
893.878	-69.63
